3.992094e+002;0.000000e+000
4.011380e+002;0.000000e+000
4.030665e+002;0.000000e+000
4.049951e+002;0.000000e+000
4.069236e+002;0.000000e+000
4.088522e+002;0.000000e+000
4.107807e+002;0.000000e+000
4.127093e+002;0.000000e+000
4.146378e+002;0.000000e+000
4.165664e+002;0.000000e+000
4.184949e+002;0.000000e+000
4.204235e+002;0.000000e+000
4.223520e+002;0.000000e+000
4.242806e+002;0.000000e+000
4.262091e+002;0.000000e+000
4.281377e+002;0.000000e+000
4.300662e+002;0.000000e+000
4.319948e+002;0.000000e+000
4.339233e+002;0.000000e+000
4.358519e+002;0.000000e+000
4.377804e+002;0.000000e+000
4.397090e+002;0.000000e+000
4.416375e+002;0.000000e+000
4.435660e+002;0.000000e+000
4.454946e+002;0.000000e+000
4.474232e+002;0.000000e+000
4.493517e+002;0.000000e+000
4.512802e+002;0.000000e+000
4.532088e+002;0.000000e+000
4.551373e+002;0.000000e+000
4.570659e+002;0.000000e+000
4.589944e+002;0.000000e+000
4.609230e+002;0.000000e+000
4.628515e+002;0.000000e+000
4.647801e+002;0.000000e+000
4.667086e+002;0.000000e+000
4.686372e+002;0.000000e+000
4.705657e+002;0.000000e+000
4.724943e+002;0.000000e+000
4.744228e+002;0.000000e+000
4.763513e+002;0.000000e+000
4.782799e+002;0.000000e+000
4.802085e+002;0.000000e+000
4.821370e+002;0.000000e+000
4.840656e+002;0.000000e+000
4.859941e+002;0.000000e+000
4.879226e+002;0.000000e+000
4.898512e+002;0.000000e+000
4.917798e+002;0.000000e+000
4.937083e+002;0.000000e+000
4.956368e+002;0.000000e+000
4.975654e+002;0.000000e+000
4.994939e+002;0.000000e+000
5.014225e+002;0.000000e+000
5.033510e+002;0.000000e+000
5.052796e+002;0.000000e+000
5.072081e+002;0.000000e+000
5.091367e+002;0.000000e+000
5.110652e+002;0.000000e+000
5.129938e+002;0.000000e+000
5.149223e+002;0.000000e+000
5.168509e+002;0.000000e+000
5.187794e+002;0.000000e+000
5.207079e+002;0.000000e+000
5.226365e+002;0.000000e+000
5.245651e+002;0.000000e+000
5.264936e+002;0.000000e+000
5.284222e+002;0.000000e+000
5.303507e+002;0.000000e+000
5.322792e+002;0.000000e+000
5.342078e+002;0.000000e+000
5.361364e+002;0.000000e+000
5.380649e+002;0.000000e+000
5.399935e+002;0.000000e+000
5.419220e+002;0.000000e+000
5.438505e+002;0.000000e+000
5.457791e+002;0.000000e+000
5.477076e+002;0.000000e+000
5.496362e+002;0.000000e+000
5.515648e+002;0.000000e+000
5.534933e+002;0.000000e+000
5.554218e+002;0.000000e+000
5.573504e+002;0.000000e+000
5.592789e+002;0.000000e+000
5.612075e+002;0.000000e+000
5.631360e+002;0.000000e+000
5.650646e+002;0.000000e+000
5.669931e+002;0.000000e+000
5.689217e+002;0.000000e+000
5.708502e+002;0.000000e+000
5.727787e+002;0.000000e+000
5.747073e+002;0.000000e+000
5.766359e+002;0.000000e+000
5.785644e+002;0.000000e+000
5.804930e+002;0.000000e+000
5.824215e+002;0.000000e+000
5.843500e+002;0.000000e+000
5.862786e+002;0.000000e+000
5.882072e+002;0.000000e+000
5.901357e+002;0.000000e+000
5.920643e+002;0.000000e+000
5.939928e+002;0.000000e+000
5.959213e+002;0.000000e+000
5.978499e+002;0.000000e+000
5.997784e+002;2.605815e-001
6.017070e+002;2.604922e-001
6.036355e+002;2.635387e-001
6.055641e+002;2.656166e-001
6.074926e+002;2.629446e-001
6.094211e+002;2.591774e-001
6.113497e+002;2.580599e-001
6.132783e+002;2.596751e-001
6.152068e+002;2.612677e-001
6.171354e+002;2.579150e-001
6.190639e+002;2.518429e-001
6.209924e+002;2.462606e-001
6.229210e+002;2.442442e-001
6.248495e+002;2.472605e-001
6.267781e+002;2.468952e-001
6.287067e+002;2.454813e-001
6.306352e+002;2.434888e-001
6.325637e+002;2.361992e-001
6.344923e+002;2.292075e-001
6.364208e+002;2.244548e-001
6.383494e+002;2.226983e-001
6.402780e+002;2.215737e-001
6.422065e+002;2.202529e-001
6.441350e+002;2.225933e-001
6.460636e+002;2.215271e-001
6.479921e+002;2.215064e-001
6.499207e+002;2.214193e-001
6.518492e+002;2.210202e-001
6.537778e+002;2.240193e-001
6.557063e+002;2.306787e-001
6.576349e+002;2.352115e-001
6.595634e+002;2.377375e-001
6.614919e+002;2.380246e-001
6.634205e+002;2.411149e-001
6.653491e+002;2.446704e-001
6.672776e+002;2.421195e-001
6.692062e+002;2.355543e-001
6.711347e+002;2.313314e-001
6.730632e+002;2.272159e-001
6.749918e+002;2.193799e-001
6.769203e+002;2.120272e-001
6.788489e+002;2.061675e-001
6.807775e+002;2.019306e-001
6.827060e+002;2.000152e-001
6.846345e+002;1.985433e-001
6.865631e+002;1.952043e-001
6.884916e+002;1.930490e-001
6.904202e+002;1.917873e-001
6.923488e+002;1.922570e-001
6.942773e+002;1.928407e-001
6.962058e+002;1.928364e-001
6.981344e+002;1.926276e-001
7.000629e+002;1.907798e-001
7.019915e+002;1.888194e-001
7.039200e+002;1.873971e-001
7.058486e+002;1.868534e-001
7.077771e+002;1.846324e-001
7.097057e+002;1.822841e-001
7.116342e+002;1.810669e-001
7.135627e+002;1.780319e-001
7.154913e+002;1.751494e-001
7.174199e+002;1.734241e-001
7.193484e+002;1.702615e-001
7.212770e+002;1.668017e-001
7.232055e+002;1.640284e-001
7.251340e+002;1.612188e-001
7.270626e+002;1.586141e-001
7.289911e+002;1.555619e-001
7.309197e+002;1.527582e-001
7.328483e+002;1.506987e-001
7.347768e+002;1.492526e-001
7.367053e+002;1.475580e-001
7.386339e+002;1.451812e-001
7.405624e+002;1.430804e-001
7.424910e+002;1.416646e-001
7.444196e+002;1.406903e-001
7.463481e+002;1.401224e-001
7.482766e+002;1.392445e-001
7.502052e+002;1.373383e-001
7.521337e+002;1.349762e-001
7.540623e+002;1.333897e-001
7.559908e+002;1.322537e-001
7.579194e+002;1.313708e-001
7.598479e+002;1.305749e-001
7.617765e+002;1.292067e-001
7.637050e+002;1.282019e-001
7.656335e+002;1.265988e-001
7.675621e+002;1.248278e-001
7.694907e+002;1.244842e-001
7.714192e+002;1.241800e-001
7.733478e+002;1.231518e-001
7.752763e+002;1.221079e-001
7.772048e+002;1.210560e-001
7.791334e+002;1.204169e-001
7.810620e+002;1.199552e-001
7.829905e+002;1.201459e-001
7.849191e+002;1.199274e-001
7.868476e+002;1.180712e-001
7.887761e+002;1.156644e-001
7.907047e+002;1.139585e-001
7.926332e+002;1.129361e-001
7.945618e+002;1.117844e-001
7.964903e+002;1.098220e-001
7.984189e+002;1.092264e-001
8.003474e+002;1.096213e-001
8.022759e+002;1.087905e-001
8.042045e+002;1.078872e-001
8.061331e+002;1.078172e-001
8.080616e+002;1.077323e-001
8.099902e+002;1.075205e-001
8.119187e+002;1.073400e-001
8.138472e+002;1.065568e-001
8.157758e+002;1.054440e-001
8.177043e+002;1.048593e-001
8.196329e+002;1.043402e-001
8.215615e+002;1.039100e-001
8.234900e+002;1.041295e-001
8.254185e+002;1.046305e-001
8.273471e+002;1.048848e-001
8.292756e+002;1.053094e-001
8.312042e+002;1.059451e-001
8.331328e+002;1.058157e-001
8.350613e+002;1.053755e-001
8.369898e+002;1.053095e-001
8.389184e+002;1.056961e-001
8.408469e+002;1.053084e-001
8.427755e+002;1.053968e-001
8.447040e+002;1.062479e-001
8.466326e+002;1.062720e-001
8.485611e+002;1.058290e-001
8.504897e+002;1.054742e-001
8.524182e+002;1.057890e-001
8.543467e+002;1.067324e-001
8.562753e+002;1.070475e-001
8.582039e+002;1.079588e-001
8.601324e+002;1.097026e-001
8.620610e+002;1.112013e-001
8.639895e+002;1.126607e-001
8.659180e+002;1.143969e-001
8.678466e+002;1.167910e-001
8.697751e+002;1.195151e-001
8.717037e+002;1.222513e-001
8.736323e+002;1.249171e-001
8.755608e+002;1.276901e-001
8.774893e+002;1.310522e-001
8.794179e+002;1.341659e-001
8.813464e+002;1.371730e-001
8.832750e+002;1.411300e-001
8.852036e+002;1.453212e-001
8.871321e+002;1.491273e-001
8.890606e+002;1.521760e-001
8.909892e+002;1.553106e-001
8.929177e+002;1.581956e-001
8.948463e+002;1.596875e-001
8.967748e+002;1.603051e-001
8.987034e+002;1.603791e-001
9.006319e+002;1.596119e-001
9.025605e+002;1.577210e-001
9.044890e+002;1.550719e-001
9.064175e+002;1.529937e-001
9.083461e+002;1.509890e-001
9.102747e+002;1.488840e-001
9.122032e+002;1.468782e-001
9.141318e+002;1.445512e-001
9.160603e+002;1.426829e-001
9.179888e+002;1.421505e-001
9.199174e+002;1.424169e-001
9.218459e+002;1.433657e-001
9.237745e+002;1.450256e-001
9.257031e+002;1.467648e-001
9.276316e+002;1.481365e-001
9.295601e+002;1.498412e-001
9.314887e+002;1.519082e-001
9.334172e+002;1.541079e-001
9.353458e+002;1.561233e-001
9.372744e+002;1.584661e-001
9.392029e+002;1.611231e-001
9.411314e+002;1.636884e-001
9.430600e+002;1.662357e-001
9.449885e+002;1.695531e-001
9.469171e+002;1.734665e-001
9.488456e+002;1.775542e-001
9.507742e+002;1.821792e-001
9.527027e+002;1.871565e-001
9.546313e+002;1.923122e-001
9.565598e+002;1.983042e-001
9.584883e+002;2.048326e-001
9.604169e+002;2.113005e-001
9.623455e+002;2.177073e-001
9.642740e+002;2.248994e-001
9.662026e+002;2.326904e-001
9.681311e+002;2.416465e-001
9.700596e+002;2.516437e-001
9.719882e+002;2.627357e-001
9.739167e+002;2.754570e-001
9.758453e+002;2.900660e-001
9.777739e+002;3.069046e-001
9.797024e+002;3.249640e-001
9.816309e+002;3.412074e-001
9.835595e+002;3.540383e-001
9.854880e+002;3.626305e-001
9.874166e+002;3.671630e-001
9.893452e+002;3.707124e-001
9.912737e+002;3.762413e-001
9.932022e+002;3.827390e-001
9.951307e+002;3.895314e-001
9.970593e+002;3.963031e-001
9.989879e+002;4.023416e-001
1.000916e+003;4.063835e-001
1.002845e+003;4.083934e-001
1.004773e+003;4.096769e-001
1.006702e+003;4.108368e-001
1.008631e+003;4.122645e-001
1.010559e+003;4.161064e-001
1.012488e+003;4.211842e-001
1.014416e+003;4.258683e-001
1.016345e+003;4.305867e-001
1.018273e+003;4.353247e-001
1.020202e+003;4.400893e-001
1.022130e+003;4.448760e-001
1.024059e+003;4.494438e-001
1.025988e+003;4.535988e-001
1.027916e+003;4.569937e-001
1.029845e+003;4.581972e-001
1.031773e+003;4.558157e-001
1.033702e+003;4.505395e-001
1.035630e+003;4.439301e-001
1.037559e+003;4.363748e-001
1.039487e+003;4.286149e-001
1.041416e+003;4.243181e-001
1.043344e+003;4.228928e-001
1.045273e+003;4.222009e-001
1.047202e+003;4.238071e-001
1.049130e+003;4.270132e-001
1.051059e+003;4.294536e-001
1.052987e+003;4.295511e-001
1.054916e+003;4.263574e-001
1.056844e+003;4.204060e-001
1.058773e+003;4.110286e-001
1.060701e+003;3.964660e-001
1.062630e+003;3.780472e-001
1.064558e+003;3.599329e-001
1.066487e+003;3.434702e-001
1.068416e+003;3.292180e-001
1.070344e+003;3.174665e-001
1.072273e+003;3.079199e-001
1.074201e+003;3.006951e-001
1.076130e+003;2.931893e-001
1.078058e+003;2.857631e-001
1.079987e+003;2.799008e-001
1.081915e+003;2.752045e-001
1.083844e+003;2.722951e-001
1.085773e+003;2.702554e-001
1.087701e+003;2.690358e-001
1.089630e+003;2.688400e-001
1.091558e+003;2.685136e-001
1.093487e+003;2.690428e-001
1.095415e+003;2.705270e-001
1.097344e+003;2.714565e-001
1.099272e+003;2.720656e-001
1.101201e+003;2.725744e-001
1.103129e+003;2.714502e-001
1.105058e+003;2.691629e-001
1.106987e+003;2.664721e-001
1.108915e+003;2.626701e-001
1.110844e+003;2.577983e-001
1.112772e+003;2.507496e-001
1.114701e+003;2.409005e-001
1.116629e+003;2.304623e-001
1.118558e+003;2.209899e-001
1.120486e+003;2.122029e-001
1.122415e+003;2.049745e-001
1.124344e+003;1.981118e-001
1.126272e+003;1.906508e-001
1.128201e+003;1.831668e-001
1.130129e+003;1.766735e-001
1.132058e+003;1.715263e-001
1.133986e+003;1.673810e-001
1.135915e+003;1.641893e-001
1.137843e+003;1.620866e-001
1.139772e+003;1.612102e-001
1.141700e+003;1.617959e-001
1.143629e+003;1.636917e-001
1.145557e+003;1.658259e-001
1.147486e+003;1.676421e-001
1.149415e+003;1.693415e-001
1.151343e+003;1.714234e-001
1.153272e+003;1.729067e-001
1.155200e+003;1.731939e-001
1.157129e+003;1.729845e-001
1.159057e+003;1.725801e-001
1.160986e+003;1.709060e-001
1.162914e+003;1.672971e-001
1.164843e+003;1.611943e-001
1.166771e+003;1.537769e-001
1.168700e+003;1.459613e-001
1.170629e+003;1.378032e-001
1.172557e+003;1.301568e-001
1.174486e+003;1.239862e-001
1.176414e+003;1.191825e-001
1.178343e+003;1.150903e-001
1.180271e+003;1.115964e-001
1.182200e+003;1.091902e-001
1.184128e+003;1.078598e-001
1.186057e+003;1.075906e-001
1.187986e+003;1.087400e-001
1.189914e+003;1.107210e-001
1.191843e+003;1.131768e-001
1.193771e+003;1.160277e-001
1.195700e+003;1.188746e-001
1.197628e+003;1.212401e-001
1.199557e+003;1.227005e-001
1.201485e+003;1.232277e-001
1.203414e+003;1.230242e-001
1.205343e+003;1.222027e-001
1.207271e+003;1.204474e-001
1.209200e+003;1.169910e-001
1.211128e+003;1.127555e-001
1.213057e+003;1.096329e-001
1.214985e+003;1.082358e-001
1.216914e+003;1.084456e-001
1.218842e+003;1.097318e-001
1.220771e+003;1.111725e-001
1.222699e+003;1.130873e-001
1.224628e+003;1.153463e-001
1.226557e+003;1.174615e-001
1.228485e+003;1.194279e-001
1.230414e+003;1.212576e-001
1.232342e+003;1.227287e-001
1.234271e+003;1.237371e-001
1.236199e+003;1.243682e-001
1.238128e+003;1.245759e-001
1.240056e+003;1.247493e-001
1.241985e+003;1.250060e-001
1.243913e+003;1.255798e-001
1.245842e+003;1.265015e-001
1.247771e+003;1.271738e-001
1.249699e+003;1.273698e-001
1.251628e+003;1.272397e-001
1.253556e+003;1.268044e-001
1.255485e+003;1.258829e-001
1.257413e+003;1.249910e-001
1.259342e+003;1.242937e-001
1.261270e+003;1.235792e-001
1.263199e+003;1.231215e-001
1.265127e+003;1.237738e-001
1.267056e+003;1.253009e-001
1.268985e+003;1.266565e-001
1.270913e+003;1.279468e-001
1.272842e+003;1.292433e-001
1.274770e+003;1.303275e-001
1.276699e+003;1.309652e-001
1.278627e+003;1.310531e-001
1.280556e+003;1.304932e-001
1.282484e+003;1.292152e-001
1.284413e+003;1.280032e-001
1.286342e+003;1.275704e-001
1.288270e+003;1.280126e-001
1.290199e+003;1.286255e-001
1.292127e+003;1.293522e-001
1.294056e+003;1.306180e-001
1.295984e+003;1.323438e-001
1.297913e+003;1.342148e-001
1.299841e+003;1.364110e-001
1.301770e+003;1.396545e-001
1.303698e+003;1.437931e-001
1.305627e+003;1.481911e-001
1.307556e+003;1.525484e-001
1.309484e+003;1.568585e-001
1.311413e+003;1.612848e-001
1.313341e+003;1.645406e-001
1.315270e+003;1.657960e-001
1.317198e+003;1.651966e-001
1.319127e+003;1.629868e-001
1.321055e+003;1.600574e-001
1.322984e+003;1.572590e-001
1.324912e+003;1.550175e-001
1.326841e+003;1.535150e-001
1.328770e+003;1.527230e-001
1.330698e+003;1.527885e-001
1.332627e+003;1.535575e-001
1.334555e+003;1.537306e-001
1.336484e+003;1.527481e-001
1.338412e+003;1.512828e-001
1.340341e+003;1.492873e-001
1.342269e+003;1.468870e-001
1.344198e+003;1.442408e-001
1.346126e+003;1.419376e-001
1.348055e+003;1.405934e-001
1.349984e+003;1.404198e-001
1.351912e+003;1.409200e-001
1.353841e+003;1.417873e-001
1.355769e+003;1.430046e-001
1.357698e+003;1.441424e-001
1.359626e+003;1.448945e-001
1.361555e+003;1.448361e-001
1.363483e+003;1.441433e-001
1.365412e+003;1.433757e-001
1.367341e+003;1.425266e-001
1.369269e+003;1.413012e-001
1.371198e+003;1.398556e-001
1.373126e+003;1.378015e-001
1.375055e+003;1.347754e-001
1.376983e+003;1.314441e-001
1.378912e+003;1.282980e-001
1.380840e+003;1.253532e-001
1.382769e+003;1.224263e-001
1.384698e+003;1.197276e-001
1.386626e+003;1.175094e-001
1.388555e+003;1.157171e-001
1.390483e+003;1.142510e-001
1.392412e+003;1.130302e-001
1.394340e+003;1.124969e-001
1.396269e+003;1.123378e-001
1.398197e+003;1.124286e-001
1.400126e+003;1.126886e-001
1.402054e+003;1.127609e-001
1.403983e+003;1.129263e-001
1.405911e+003;1.134456e-001
1.407840e+003;1.140148e-001
1.409769e+003;1.143610e-001
1.411697e+003;1.150040e-001
1.413626e+003;1.161232e-001
1.415554e+003;1.173113e-001
1.417483e+003;1.187496e-001
1.419411e+003;1.203035e-001
1.421340e+003;1.219488e-001
1.423268e+003;1.234915e-001
1.425197e+003;1.243441e-001
1.427125e+003;1.249017e-001
1.429054e+003;1.247504e-001
1.430983e+003;1.236545e-001
1.432911e+003;1.220252e-001
1.434840e+003;1.198509e-001
1.436768e+003;1.176152e-001
1.438697e+003;1.157088e-001
1.440625e+003;1.142720e-001
1.442554e+003;1.131811e-001
1.444482e+003;1.124290e-001
1.446411e+003;1.118571e-001
1.448340e+003;1.111616e-001
1.450268e+003;1.105663e-001
1.452197e+003;1.100298e-001
1.454125e+003;1.091218e-001
1.456054e+003;1.076872e-001
1.457982e+003;1.061828e-001
1.459911e+003;1.045574e-001
1.461839e+003;1.028944e-001
1.463768e+003;1.011961e-001
1.465697e+003;9.915400e-002
1.467625e+003;9.697161e-002
1.469554e+003;9.479669e-002
1.471482e+003;9.255721e-002
1.473411e+003;9.022651e-002
1.475339e+003;8.821435e-002
1.477268e+003;8.663526e-002
1.479196e+003;8.532814e-002
1.481125e+003;8.368303e-002
1.483053e+003;8.155051e-002
1.484982e+003;7.917953e-002
1.486911e+003;7.674683e-002
1.488839e+003;7.438982e-002
1.490768e+003;7.220980e-002
1.492696e+003;7.035434e-002
1.494625e+003;6.893782e-002
1.496553e+003;6.787952e-002
1.498482e+003;6.719047e-002
1.500410e+003;6.668578e-002
1.502339e+003;6.596185e-002
1.504267e+003;6.532416e-002
1.506196e+003;6.506863e-002
1.508125e+003;6.460604e-002
1.510053e+003;6.402156e-002
1.511982e+003;6.352890e-002
1.513910e+003;6.286176e-002
1.515839e+003;6.242220e-002
1.517767e+003;6.193548e-002
1.519696e+003;6.120256e-002
1.521624e+003;6.084957e-002
1.523553e+003;6.070528e-002
1.525481e+003;6.025001e-002
1.527410e+003;6.015958e-002
1.529339e+003;6.009367e-002
1.531267e+003;5.985953e-002
1.533196e+003;5.983405e-002
1.535124e+003;5.990087e-002
1.537053e+003;5.970128e-002
1.538981e+003;5.937122e-002
1.540910e+003;5.920513e-002
1.542838e+003;5.927444e-002
1.544767e+003;5.925222e-002
1.546695e+003;5.932131e-002
1.548624e+003;5.943216e-002
1.550553e+003;5.941126e-002
1.552481e+003;5.934099e-002
1.554410e+003;5.920939e-002
1.556338e+003;5.901945e-002
1.558267e+003;5.906298e-002
1.560195e+003;5.914525e-002
1.562124e+003;5.925450e-002
1.564052e+003;5.948372e-002
1.565981e+003;5.979382e-002
1.567910e+003;6.022786e-002
1.569838e+003;6.056801e-002
1.571767e+003;6.070273e-002
1.573695e+003;6.086394e-002
1.575624e+003;6.122465e-002
1.577552e+003;6.168717e-002
1.579481e+003;6.207609e-002
1.581409e+003;6.254544e-002
1.583338e+003;6.303469e-002
1.585266e+003;6.338460e-002
1.587195e+003;6.399579e-002
1.589124e+003;6.483245e-002
1.591052e+003;6.530036e-002
1.592981e+003;6.576292e-002
1.594909e+003;6.655139e-002
1.596838e+003;6.743080e-002
1.598766e+003;6.841620e-002
1.600695e+003;6.928762e-002
1.602623e+003;7.018407e-002
1.604552e+003;7.125667e-002
1.606480e+003;7.221191e-002
1.608409e+003;7.300599e-002
1.610338e+003;7.394246e-002
1.612266e+003;7.470339e-002
1.614195e+003;7.538962e-002
1.616123e+003;7.613690e-002
1.618052e+003;7.680710e-002
1.619980e+003;7.745911e-002
1.621909e+003;7.802399e-002
1.623837e+003;7.835574e-002
1.625766e+003;7.833321e-002
1.627694e+003;7.833404e-002
1.629623e+003;7.833392e-002
1.631552e+003;7.823814e-002
1.633480e+003;7.810969e-002
1.635409e+003;7.807051e-002
1.637337e+003;7.806079e-002
1.639266e+003;7.789299e-002
1.641194e+003;7.779500e-002
1.643123e+003;7.792760e-002
1.645051e+003;7.764307e-002
1.646980e+003;7.694991e-002
1.648909e+003;7.622761e-002
1.650837e+003;7.558737e-002
1.652766e+003;7.504251e-002
1.654694e+003;7.456182e-002
1.656623e+003;7.392015e-002
1.658551e+003;7.295766e-002
1.660480e+003;7.215001e-002
1.662408e+003;7.157417e-002
1.664337e+003;7.073578e-002
1.666266e+003;6.973413e-002
1.668194e+003;6.878138e-002
1.670123e+003;6.784683e-002
1.672051e+003;6.678871e-002
1.673980e+003;6.571416e-002
1.675908e+003;6.492740e-002
1.677837e+003;6.417418e-002
1.679765e+003;6.327435e-002
1.681694e+003;6.218998e-002
1.683622e+003;6.104553e-002
1.685551e+003;6.030723e-002
1.687479e+003;5.978047e-002
1.689408e+003;5.897606e-002
1.691337e+003;5.805228e-002
1.693265e+003;5.707970e-002
1.695194e+003;5.639102e-002
1.697122e+003;5.589141e-002
1.699051e+003;5.500988e-002
1.700979e+003;5.433981e-002
1.702908e+003;5.406930e-002
1.704836e+003;5.340348e-002
1.706765e+003;5.284570e-002
1.708693e+003;5.247146e-002
1.710622e+003;5.202955e-002
1.712551e+003;5.163392e-002
1.714479e+003;5.126889e-002
1.716408e+003;5.092864e-002
1.718336e+003;5.075119e-002
1.720265e+003;5.064689e-002
1.722193e+003;5.058714e-002
1.724122e+003;5.060612e-002
1.726050e+003;5.060988e-002
1.727979e+003;5.052292e-002
1.729908e+003;5.058140e-002
1.731836e+003;5.032138e-002
1.733765e+003;5.008828e-002
1.735693e+003;5.004686e-002
1.737622e+003;4.992574e-002
1.739550e+003;4.946607e-002
1.741479e+003;4.884434e-002
1.743407e+003;4.814613e-002
1.745336e+003;4.756414e-002
1.747265e+003;4.690046e-002
1.749193e+003;4.611781e-002
1.751122e+003;4.587436e-002
1.753050e+003;4.561920e-002
1.754979e+003;4.492269e-002
1.756907e+003;4.435025e-002
1.758836e+003;4.413013e-002
1.760764e+003;4.400632e-002
1.762693e+003;4.378809e-002
1.764621e+003;4.340334e-002
1.766550e+003;4.318022e-002
1.768479e+003;4.308116e-002
1.770407e+003;4.280452e-002
1.772336e+003;4.242338e-002
1.774264e+003;4.226543e-002
1.776193e+003;4.231054e-002
1.778121e+003;4.206480e-002
1.780050e+003;4.176995e-002
1.781978e+003;4.159791e-002
1.783907e+003;4.144788e-002
1.785835e+003;4.136023e-002
1.787764e+003;4.116959e-002
1.789693e+003;4.083905e-002
1.791621e+003;4.065785e-002
1.793550e+003;4.070108e-002
1.795478e+003;4.070653e-002
1.797407e+003;4.056839e-002
1.799335e+003;4.037242e-002
1.801264e+003;4.024881e-002
1.803192e+003;4.012319e-002
1.805121e+003;3.984339e-002
1.807049e+003;3.970119e-002
1.808978e+003;3.968293e-002
1.810907e+003;3.943544e-002
1.812835e+003;3.924866e-002
1.814764e+003;3.929762e-002
1.816692e+003;3.929559e-002
1.818621e+003;3.920057e-002
1.820549e+003;3.914574e-002
1.822478e+003;3.904035e-002
1.824406e+003;3.876493e-002
1.826335e+003;3.858166e-002
1.828264e+003;3.858858e-002
1.830192e+003;3.864565e-002
1.832121e+003;3.852756e-002
1.834049e+003;3.835105e-002
1.835978e+003;3.827613e-002
1.837906e+003;3.792844e-002
1.839835e+003;3.758349e-002
1.841763e+003;3.750037e-002
1.843692e+003;3.738631e-002
1.845620e+003;3.726542e-002
1.847549e+003;3.727679e-002
1.849478e+003;3.709176e-002
1.851406e+003;3.695537e-002
1.853335e+003;3.687561e-002
1.855263e+003;3.674445e-002
1.857192e+003;3.663797e-002
1.859120e+003;3.655114e-002
1.861049e+003;3.642691e-002
1.862977e+003;3.642688e-002
1.864906e+003;3.651214e-002
1.866834e+003;3.650969e-002
1.868763e+003;3.662309e-002
1.870692e+003;3.659612e-002
1.872620e+003;3.645311e-002
1.874549e+003;3.624859e-002
1.876477e+003;3.603289e-002
1.878406e+003;3.604668e-002
1.880334e+003;3.631018e-002
1.882263e+003;3.623533e-002
1.884191e+003;3.604167e-002
1.886120e+003;3.610861e-002
1.888048e+003;3.635748e-002
1.889977e+003;3.646262e-002
1.891906e+003;3.623940e-002
1.893834e+003;3.600964e-002
1.895763e+003;3.606259e-002
1.897691e+003;3.611358e-002
1.899620e+003;3.602670e-002
1.901548e+003;3.612049e-002
1.903477e+003;3.608923e-002
1.905405e+003;3.606183e-002
1.907334e+003;3.610832e-002
1.909262e+003;3.610738e-002
1.911191e+003;3.610529e-002
1.913120e+003;3.598447e-002
1.915048e+003;3.611624e-002
1.916977e+003;3.621167e-002
1.918905e+003;3.641614e-002
1.920834e+003;3.658704e-002
1.922762e+003;3.642179e-002
1.924691e+003;3.651016e-002
1.926619e+003;3.663069e-002
1.928548e+003;3.652630e-002
1.930477e+003;3.664223e-002
1.932405e+003;3.670081e-002
1.934334e+003;3.661912e-002
1.936262e+003;3.662182e-002
1.938191e+003;3.679940e-002
1.940119e+003;3.689715e-002
1.942048e+003;3.702432e-002
1.943976e+003;3.720878e-002
1.945905e+003;3.714951e-002
1.947833e+003;3.718333e-002
1.949762e+003;3.730329e-002
1.951691e+003;3.741480e-002
1.953619e+003;3.753700e-002
1.955548e+003;3.776558e-002
1.957476e+003;3.788072e-002
1.959405e+003;3.780665e-002
1.961333e+003;3.789008e-002
1.963262e+003;3.798655e-002
1.965190e+003;3.803400e-002
1.967119e+003;3.800146e-002
1.969047e+003;3.801682e-002
1.970976e+003;3.808052e-002
1.972905e+003;3.822019e-002
1.974833e+003;3.843104e-002
1.976762e+003;3.863558e-002
1.978690e+003;3.858524e-002
1.980619e+003;3.835590e-002
1.982547e+003;3.824237e-002
1.984476e+003;3.855128e-002
1.986404e+003;3.873168e-002
1.988333e+003;3.883920e-002
1.990261e+003;3.901432e-002
1.992190e+003;3.897217e-002
1.994119e+003;3.887153e-002
1.996047e+003;3.904307e-002
1.997976e+003;3.924888e-002
1.999904e+003;3.936963e-002
2.001833e+003;3.952754e-002
2.003761e+003;3.949604e-002
2.005690e+003;3.947104e-002
2.007618e+003;3.961192e-002
2.009547e+003;3.961486e-002
2.011476e+003;3.976593e-002
2.013404e+003;4.009442e-002
2.015333e+003;4.028796e-002
2.017261e+003;4.050567e-002
2.019190e+003;4.070974e-002
2.021118e+003;4.078485e-002
2.023047e+003;4.073608e-002
2.024975e+003;4.091259e-002
2.026904e+003;4.112169e-002
2.028833e+003;4.103417e-002
2.030761e+003;4.117571e-002
2.032690e+003;4.121440e-002
2.034618e+003;4.124799e-002
2.036547e+003;4.135578e-002
2.038475e+003;4.126198e-002
2.040404e+003;4.121688e-002
2.042332e+003;4.136270e-002
2.044261e+003;4.151824e-002
2.046189e+003;4.160498e-002
2.048118e+003;4.160863e-002
2.050047e+003;4.146968e-002
2.051975e+003;4.124890e-002
2.053904e+003;4.136985e-002
2.055832e+003;4.154015e-002
2.057761e+003;4.131310e-002
2.059689e+003;4.114103e-002
2.061618e+003;4.126052e-002
2.063546e+003;4.142539e-002
2.065475e+003;4.147333e-002
2.067404e+003;4.146414e-002
2.069332e+003;4.156243e-002
2.071260e+003;4.142452e-002
2.073189e+003;4.136066e-002
2.075118e+003;4.134995e-002
2.077046e+003;4.093039e-002
2.078975e+003;4.085824e-002
2.080903e+003;4.097397e-002
2.082832e+003;4.086082e-002
2.084760e+003;4.073641e-002
2.086689e+003;4.103144e-002
2.088617e+003;4.126162e-002
2.090546e+003;4.117024e-002
2.092475e+003;4.127342e-002
2.094403e+003;4.132524e-002
2.096332e+003;4.088266e-002
2.098260e+003;4.064679e-002
2.100189e+003;4.083712e-002
2.102117e+003;4.104531e-002
2.104046e+003;4.116405e-002
2.105974e+003;4.133552e-002
2.107903e+003;4.131030e-002
2.109832e+003;4.136613e-002
2.111760e+003;4.163678e-002
2.113688e+003;4.191965e-002
2.115617e+003;4.214486e-002
2.117546e+003;4.219079e-002
2.119474e+003;4.207279e-002
2.121403e+003;4.204691e-002
2.123331e+003;4.206246e-002
2.125260e+003;4.217374e-002
2.127188e+003;4.244311e-002
2.129117e+003;4.237325e-002
2.131045e+003;4.230754e-002
2.132974e+003;4.244439e-002
2.134903e+003;4.238842e-002
2.136831e+003;4.206929e-002
2.138760e+003;4.203870e-002
2.140688e+003;4.218002e-002
2.142617e+003;4.187867e-002
2.144545e+003;4.153206e-002
2.146474e+003;4.172552e-002
2.148402e+003;4.204980e-002
2.150331e+003;4.180190e-002
2.152260e+003;4.150800e-002
2.154188e+003;4.166727e-002
2.156117e+003;4.169955e-002
2.158045e+003;4.143389e-002
2.159974e+003;4.111349e-002
2.161902e+003;4.102623e-002
2.163831e+003;4.087112e-002
2.165759e+003;4.055063e-002
2.167688e+003;4.050389e-002
2.169616e+003;4.050844e-002
2.171545e+003;4.005772e-002
2.173474e+003;3.963109e-002
2.175402e+003;3.956398e-002
2.177331e+003;3.961548e-002
2.179259e+003;3.979545e-002
2.181188e+003;3.946890e-002
2.183116e+003;3.904397e-002
2.185045e+003;3.895640e-002
2.186973e+003;3.882453e-002
2.188902e+003;3.880641e-002
2.190831e+003;3.860165e-002
2.192759e+003;3.830458e-002
2.194688e+003;3.829112e-002
2.196616e+003;3.824838e-002
2.198545e+003;3.831362e-002
2.200473e+003;3.830921e-002
2.202402e+003;3.825200e-002
2.204330e+003;3.822634e-002
2.206259e+003;3.796818e-002
2.208188e+003;3.783379e-002
2.210116e+003;3.782038e-002
2.212044e+003;3.777910e-002
2.213973e+003;3.765236e-002
2.215902e+003;3.739667e-002
2.217830e+003;3.723426e-002
2.219759e+003;3.742531e-002
2.221687e+003;3.755083e-002
2.223616e+003;3.749177e-002
2.225544e+003;3.752219e-002
2.227473e+003;3.773082e-002
2.229401e+003;3.760846e-002
2.231330e+003;3.740418e-002
2.233259e+003;3.727596e-002
2.235187e+003;3.722260e-002
2.237116e+003;3.739627e-002
2.239044e+003;3.749448e-002
2.240973e+003;3.743896e-002
2.242901e+003;3.732301e-002
2.244830e+003;3.708458e-002
2.246758e+003;3.701432e-002
2.248687e+003;3.705333e-002
2.250615e+003;3.688185e-002
2.252544e+003;3.682501e-002
2.254473e+003;3.699589e-002
2.256401e+003;3.685184e-002
2.258330e+003;3.643480e-002
2.260258e+003;3.628752e-002
2.262187e+003;3.642526e-002
2.264115e+003;3.631087e-002
2.266044e+003;3.604560e-002
2.267972e+003;3.589424e-002
2.269901e+003;3.595373e-002
2.271830e+003;3.599282e-002
2.273758e+003;3.590086e-002
2.275687e+003;3.573793e-002
2.277615e+003;3.554816e-002
2.279544e+003;3.550189e-002
2.281472e+003;3.550045e-002
2.283401e+003;3.522493e-002
2.285329e+003;3.516277e-002
2.287258e+003;3.546784e-002
2.289187e+003;3.564178e-002
2.291115e+003;3.542588e-002
2.293043e+003;3.524566e-002
2.294972e+003;3.508909e-002
2.296901e+003;3.501624e-002
2.298829e+003;3.519866e-002
2.300758e+003;3.512846e-002
2.302686e+003;3.482657e-002
2.304615e+003;3.484933e-002
2.306543e+003;3.503988e-002
2.308472e+003;3.523984e-002
2.310400e+003;3.536427e-002
2.312329e+003;3.497440e-002
2.314258e+003;3.466559e-002
2.316186e+003;3.504038e-002
2.318115e+003;3.522083e-002
2.320043e+003;3.505331e-002
2.321972e+003;3.524818e-002
2.323900e+003;3.555679e-002
2.325829e+003;3.522058e-002
2.327757e+003;3.501340e-002
2.329686e+003;3.533152e-002
2.331615e+003;3.550890e-002
2.333543e+003;3.551918e-002
2.335472e+003;3.565444e-002
2.337400e+003;3.577787e-002
2.339329e+003;3.583256e-002
2.341257e+003;3.586145e-002
2.343186e+003;3.597216e-002
2.345114e+003;3.618880e-002
2.347043e+003;3.630842e-002
2.348971e+003;3.642872e-002
2.350900e+003;3.672692e-002
2.352829e+003;3.682699e-002
2.354757e+003;3.658808e-002
2.356686e+003;3.639643e-002
2.358614e+003;3.648522e-002
2.360543e+003;3.671553e-002
2.362471e+003;3.701212e-002
2.364400e+003;3.728069e-002
2.366328e+003;3.747728e-002
2.368257e+003;3.753494e-002
2.370186e+003;3.732831e-002
2.372114e+003;3.714702e-002
2.374042e+003;3.730199e-002
2.375971e+003;3.731001e-002
2.377900e+003;3.715362e-002
2.379828e+003;3.720748e-002
2.381757e+003;3.717824e-002
2.383685e+003;3.714027e-002
2.385614e+003;3.725531e-002
2.387542e+003;3.760481e-002
2.389471e+003;3.790060e-002
2.391399e+003;3.803621e-002
2.393328e+003;3.824643e-002
2.395257e+003;3.839919e-002
2.397185e+003;3.835865e-002
2.399114e+003;3.837885e-002
2.401042e+003;3.857080e-002
2.402971e+003;3.887580e-002
2.404899e+003;3.885682e-002
2.406828e+003;3.885203e-002
2.408756e+003;3.917138e-002
2.410685e+003;3.932867e-002
2.412614e+003;3.915227e-002
2.414542e+003;3.959029e-002
2.416471e+003;3.984818e-002
2.418399e+003;3.959171e-002
2.420328e+003;3.985327e-002
2.422256e+003;4.037620e-002
2.424185e+003;4.069460e-002
2.426113e+003;4.105256e-002
2.428042e+003;4.117239e-002
2.429970e+003;4.096826e-002
2.431899e+003;4.119848e-002
2.433828e+003;4.163288e-002
2.435756e+003;4.163073e-002
2.437685e+003;4.136493e-002
2.439613e+003;4.144989e-002
2.441542e+003;4.169017e-002
2.443470e+003;4.229290e-002
2.445399e+003;4.253606e-002
2.447327e+003;4.223450e-002
2.449256e+003;4.225605e-002
2.451185e+003;4.258299e-002
2.453113e+003;4.289449e-002
2.455042e+003;4.303927e-002
2.456970e+003;4.310791e-002
2.458899e+003;4.318388e-002
2.460827e+003;4.322681e-002
2.462756e+003;4.322275e-002
2.464684e+003;4.341275e-002
2.466613e+003;4.355562e-002
2.468542e+003;4.358459e-002
2.470470e+003;4.378014e-002
2.472398e+003;4.418207e-002
2.474327e+003;4.448979e-002
2.476256e+003;4.467003e-002
2.478184e+003;4.454805e-002
2.480113e+003;4.434654e-002
2.482041e+003;4.469254e-002
2.483970e+003;4.513373e-002
2.485898e+003;4.532832e-002
2.487827e+003;4.559851e-002
2.489755e+003;4.558512e-002
2.491684e+003;4.579585e-002
2.493613e+003;4.620304e-002
2.495541e+003;4.612606e-002
2.497470e+003;4.625095e-002
2.499398e+003;4.657704e-002
2.501327e+003;4.670745e-002
2.503255e+003;4.694206e-002
2.505184e+003;4.708204e-002
2.507112e+003;4.709851e-002
2.509041e+003;4.719383e-002
2.510969e+003;4.722179e-002
2.512898e+003;4.757231e-002
2.514827e+003;4.786569e-002
2.516755e+003;4.772583e-002
2.518684e+003;4.781549e-002
2.520612e+003;4.800640e-002
2.522541e+003;4.816834e-002
2.524469e+003;4.824961e-002
2.526398e+003;4.864268e-002
2.528326e+003;4.879963e-002
2.530255e+003;4.848668e-002
2.532184e+003;4.841537e-002
2.534112e+003;4.872467e-002
2.536041e+003;4.878317e-002
2.537969e+003;4.888242e-002
2.539898e+003;4.891083e-002
2.541826e+003;4.869450e-002
2.543755e+003;4.886032e-002
2.545683e+003;4.905232e-002
2.547612e+003;4.909235e-002
2.549541e+003;4.905500e-002
2.551469e+003;4.924171e-002
2.553397e+003;4.924200e-002
2.555326e+003;4.913502e-002
2.557255e+003;4.954721e-002
2.559183e+003;4.973922e-002
2.561112e+003;4.958320e-002
2.563040e+003;4.962353e-002
2.564969e+003;4.954479e-002
2.566897e+003;4.965020e-002
2.568826e+003;4.951371e-002
2.570754e+003;4.921491e-002
2.572683e+003;4.946406e-002
2.574612e+003;4.963951e-002
2.576540e+003;4.978076e-002
2.578469e+003;4.990968e-002
2.580397e+003;4.988716e-002
2.582326e+003;5.012074e-002
2.584254e+003;5.045801e-002
2.586183e+003;5.066435e-002
2.588111e+003;5.062768e-002
2.590040e+003;5.070062e-002
2.591969e+003;5.110446e-002
2.593897e+003;5.124193e-002
2.595826e+003;5.125032e-002
2.597754e+003;5.137558e-002
2.599683e+003;5.132740e-002
2.601611e+003;5.153449e-002
2.603540e+003;5.211741e-002
2.605468e+003;5.222454e-002
2.607397e+003;5.215560e-002
2.609325e+003;5.250634e-002
2.611254e+003;5.269054e-002
2.613183e+003;5.273835e-002
2.615111e+003;5.301660e-002
2.617040e+003;5.323431e-002
2.618968e+003;5.317460e-002
2.620897e+003;5.321502e-002
2.622825e+003;5.335125e-002
2.624754e+003;5.364440e-002
2.626682e+003;5.402851e-002
2.628611e+003;5.395032e-002
2.630540e+003;5.394582e-002
2.632468e+003;5.419425e-002
2.634396e+003;5.441176e-002
2.636325e+003;5.468259e-002
2.638254e+003;5.491662e-002
2.640182e+003;5.515857e-002
2.642111e+003;5.540341e-002
2.644039e+003;5.550618e-002
2.645968e+003;5.548668e-002
2.647896e+003;5.549662e-002
2.649825e+003;5.563987e-002
2.651753e+003;5.595160e-002
2.653682e+003;5.600660e-002
2.655611e+003;5.618346e-002
2.657539e+003;5.663821e-002
2.659468e+003;5.693125e-002
2.661396e+003;5.695648e-002
2.663325e+003;5.683089e-002
2.665253e+003;5.679921e-002
2.667182e+003;5.720634e-002
2.669110e+003;5.757148e-002
2.671039e+003;5.793897e-002
2.672968e+003;5.802550e-002
2.674896e+003;5.795654e-002
2.676825e+003;5.826343e-002
2.678753e+003;5.826752e-002
2.680682e+003;5.848458e-002
2.682610e+003;5.885011e-002
2.684539e+003;5.887463e-002
2.686467e+003;5.893511e-002
2.688396e+003;5.930536e-002
2.690324e+003;5.957245e-002
2.692253e+003;5.965296e-002
2.694182e+003;5.996431e-002
2.696110e+003;6.032908e-002
2.698039e+003;6.050181e-002
2.699967e+003;6.049659e-002
2.701896e+003;6.082098e-002
2.703824e+003;6.113508e-002
2.705753e+003;6.119268e-002
2.707681e+003;6.128314e-002
2.709610e+003;6.151290e-002
2.711539e+003;6.199579e-002
2.713467e+003;6.217835e-002
2.715396e+003;6.208144e-002
2.717324e+003;6.236544e-002
2.719253e+003;6.254139e-002
2.721181e+003;6.255723e-002
2.723110e+003;6.281037e-002
2.725038e+003;6.329308e-002
2.726967e+003;6.332203e-002
2.728896e+003;6.306744e-002
2.730824e+003;6.332751e-002
2.732752e+003;6.350025e-002
2.734681e+003;6.346420e-002
2.736610e+003;6.365475e-002
2.738538e+003;6.371146e-002
2.740467e+003;6.379170e-002
2.742395e+003;6.396857e-002
2.744324e+003;6.386025e-002
2.746252e+003;6.384777e-002
2.748181e+003;6.407378e-002
2.750109e+003;6.442453e-002
2.752038e+003;6.479825e-002
2.753967e+003;6.483711e-002
2.755895e+003;6.454172e-002
2.757824e+003;6.465891e-002
2.759752e+003;6.505354e-002
2.761681e+003;6.530764e-002
2.763609e+003;6.521957e-002
2.765538e+003;6.525011e-002
2.767466e+003;6.556501e-002
2.769395e+003;6.555221e-002
2.771323e+003;6.571609e-002
2.773252e+003;6.621730e-002
2.775181e+003;6.652996e-002
2.777109e+003;6.663996e-002
2.779038e+003;6.685723e-002
2.780966e+003;6.703237e-002
2.782895e+003;6.696840e-002
2.784823e+003;6.706853e-002
2.786752e+003;6.719012e-002
2.788680e+003;6.728400e-002
2.790609e+003;6.796007e-002
2.792538e+003;6.872676e-002
2.794466e+003;6.907298e-002
2.796395e+003;6.922812e-002
2.798323e+003;6.958430e-002
2.800252e+003;7.007851e-002
2.802180e+003;7.016648e-002
2.804109e+003;7.016613e-002
2.806037e+003;7.071367e-002
2.807966e+003;7.124496e-002
2.809895e+003;7.179176e-002
2.811823e+003;7.251166e-002
2.813751e+003;7.304719e-002
2.815680e+003;7.352664e-002
2.817609e+003;7.405192e-002
2.819537e+003;7.441346e-002
2.821466e+003;7.476892e-002
2.823394e+003;7.522592e-002
2.825323e+003;7.605739e-002
2.827251e+003;7.699224e-002
2.829180e+003;7.798854e-002
2.831108e+003;7.875378e-002
2.833037e+003;7.934615e-002
2.834966e+003;8.015834e-002
2.836894e+003;8.122732e-002
2.838823e+003;8.249258e-002
2.840751e+003;8.335946e-002
2.842680e+003;8.409389e-002
2.844608e+003;8.559777e-002
2.846537e+003;8.753806e-002
2.848465e+003;8.930403e-002
2.850394e+003;9.107877e-002
2.852323e+003;9.237953e-002
2.854251e+003;9.375007e-002
2.856180e+003;9.534208e-002
2.858108e+003;9.658919e-002
2.860037e+003;9.742381e-002
2.861965e+003;9.846080e-002
2.863894e+003;9.981738e-002
2.865822e+003;1.007809e-001
2.867751e+003;1.011974e-001
2.869679e+003;1.019666e-001
2.871608e+003;1.027348e-001
2.873536e+003;1.032757e-001
2.875465e+003;1.035558e-001
2.877394e+003;1.038238e-001
2.879322e+003;1.040024e-001
2.881251e+003;1.050321e-001
2.883179e+003;1.060364e-001
2.885108e+003;1.062422e-001
2.887036e+003;1.065613e-001
2.888965e+003;1.068611e-001
2.890893e+003;1.071181e-001
2.892822e+003;1.079875e-001
2.894750e+003;1.087636e-001
2.896679e+003;1.089452e-001
2.898608e+003;1.085142e-001
2.900536e+003;1.081998e-001
2.902465e+003;1.079292e-001
2.904393e+003;1.076651e-001
2.906322e+003;1.069261e-001
2.908250e+003;1.057961e-001
2.910179e+003;1.054102e-001
2.912107e+003;1.048637e-001
2.914036e+003;1.034677e-001
2.915965e+003;1.022973e-001
2.917893e+003;1.010170e-001
2.919822e+003;9.990449e-002
2.921750e+003;9.945524e-002
2.923679e+003;9.861986e-002
2.925607e+003;9.700296e-002
2.927536e+003;9.526715e-002
2.929464e+003;9.397747e-002
2.931393e+003;9.288849e-002
2.933322e+003;9.139731e-002
2.935250e+003;9.008146e-002
2.937178e+003;8.919697e-002
2.939107e+003;8.863762e-002
2.941036e+003;8.759635e-002
2.942964e+003;8.659021e-002
2.944893e+003;8.588199e-002
2.946821e+003;8.486418e-002
2.948750e+003;8.382238e-002
2.950678e+003;8.260178e-002
2.952607e+003;8.101481e-002
2.954535e+003;7.995176e-002
2.956464e+003;7.860195e-002
2.958393e+003;7.730532e-002
2.960321e+003;7.611377e-002
2.962250e+003;7.479836e-002
2.964178e+003;7.393453e-002
2.966107e+003;7.324117e-002
2.968035e+003;7.242005e-002
2.969964e+003;7.164563e-002
2.971892e+003;7.075360e-002
2.973821e+003;6.964245e-002
2.975750e+003;6.906890e-002
2.977678e+003;6.808989e-002
2.979607e+003;6.670606e-002
2.981535e+003;6.566201e-002
2.983464e+003;6.495126e-002
2.985392e+003;6.484353e-002
2.987321e+003;6.437761e-002
2.989249e+003;6.348303e-002
2.991178e+003;6.344322e-002
2.993106e+003;6.378014e-002
2.995035e+003;6.344357e-002
2.996964e+003;6.306177e-002
2.998892e+003;6.302729e-002
3.000821e+003;6.257281e-002
3.002749e+003;6.193655e-002
3.004678e+003;6.178873e-002
3.006606e+003;6.177799e-002
3.008535e+003;6.211550e-002
3.010463e+003;6.246448e-002
3.012392e+003;6.250343e-002
3.014321e+003;6.236165e-002
3.016249e+003;6.247362e-002
3.018177e+003;6.295838e-002
3.020106e+003;6.317159e-002
3.022035e+003;6.331973e-002
3.023963e+003;6.388531e-002
3.025892e+003;6.428973e-002
3.027820e+003;6.470194e-002
3.029749e+003;6.537546e-002
3.031677e+003;6.533402e-002
3.033606e+003;6.490920e-002
3.035534e+003;6.493586e-002
3.037463e+003;6.549978e-002
3.039392e+003;6.605520e-002
3.041320e+003;6.616987e-002
3.043249e+003;6.628306e-002
3.045177e+003;6.665978e-002
3.047106e+003;6.728137e-002
3.049034e+003;6.773342e-002
3.050963e+003;6.785104e-002
3.052891e+003;6.814202e-002
3.054820e+003;6.847055e-002
3.056749e+003;6.913902e-002
3.058677e+003;6.982573e-002
3.060606e+003;6.994307e-002
3.062534e+003;7.008450e-002
3.064463e+003;7.042374e-002
3.066391e+003;7.052206e-002
3.068320e+003;7.128639e-002
3.070248e+003;7.215479e-002
3.072177e+003;7.232089e-002
3.074105e+003;7.232461e-002
3.076034e+003;7.265788e-002
3.077963e+003;7.311431e-002
3.079891e+003;7.356083e-002
3.081820e+003;7.374027e-002
3.083748e+003;7.406469e-002
3.085677e+003;7.461080e-002
3.087605e+003;7.530493e-002
3.089534e+003;7.601369e-002
3.091462e+003;7.640899e-002
3.093391e+003;7.663468e-002
3.095320e+003;7.706512e-002
3.097248e+003;7.778398e-002
3.099177e+003;7.801419e-002
3.101105e+003;7.820120e-002
3.103034e+003;7.885388e-002
3.104962e+003;7.981978e-002
3.106891e+003;8.060350e-002
3.108819e+003;8.088111e-002
3.110748e+003;8.134803e-002
3.112677e+003;8.225686e-002
3.114605e+003;8.279976e-002
3.116533e+003;8.267371e-002
3.118462e+003;8.283544e-002
3.120391e+003;8.379071e-002
3.122319e+003;8.391136e-002
3.124248e+003;8.414545e-002
3.126176e+003;8.525471e-002
3.128105e+003;8.602636e-002
3.130033e+003;8.646093e-002
3.131962e+003;8.710776e-002
3.133890e+003;8.749631e-002
3.135819e+003;8.750620e-002
3.137748e+003;8.802015e-002
3.139676e+003;8.874678e-002
3.141605e+003;8.927563e-002
3.143533e+003;8.982895e-002
3.145462e+003;9.039319e-002
3.147390e+003;9.134346e-002
3.149319e+003;9.253839e-002
3.151247e+003;9.281603e-002
3.153176e+003;9.260437e-002
3.155104e+003;9.294315e-002
3.157033e+003;9.400458e-002
3.158962e+003;9.489460e-002
3.160890e+003;9.555525e-002
3.162819e+003;9.644473e-002
3.164747e+003;9.727029e-002
3.166676e+003;9.810992e-002
3.168604e+003;9.880622e-002
3.170533e+003;9.935421e-002
3.172461e+003;1.002400e-001
3.174390e+003;1.010110e-001
3.176319e+003;1.013486e-001
3.178247e+003;1.015777e-001
3.180176e+003;1.019751e-001
3.182104e+003;1.026989e-001
3.184033e+003;1.034535e-001
3.185961e+003;1.041866e-001
3.187890e+003;1.051550e-001
3.189818e+003;1.057836e-001
3.191747e+003;1.066811e-001
3.193676e+003;1.079045e-001
3.195604e+003;1.084410e-001
3.197532e+003;1.088645e-001
3.199461e+003;1.098541e-001
3.201390e+003;1.109064e-001
3.203318e+003;1.120229e-001
3.205247e+003;1.128028e-001
3.207175e+003;1.134345e-001
3.209104e+003;1.143190e-001
3.211032e+003;1.156485e-001
3.212961e+003;1.164871e-001
3.214889e+003;1.172381e-001
3.216818e+003;1.186067e-001
3.218747e+003;1.198510e-001
3.220675e+003;1.208576e-001
3.222604e+003;1.222281e-001
3.224532e+003;1.229771e-001
3.226461e+003;1.234390e-001
3.228389e+003;1.242175e-001
3.230318e+003;1.249382e-001
3.232246e+003;1.258502e-001
3.234175e+003;1.272530e-001
3.236104e+003;1.285755e-001
3.238032e+003;1.295567e-001
3.239961e+003;1.303656e-001
3.241889e+003;1.312952e-001
3.243818e+003;1.322956e-001
3.245746e+003;1.336655e-001
3.247675e+003;1.347886e-001
3.249603e+003;1.358361e-001
3.251532e+003;1.372189e-001
3.253460e+003;1.383082e-001
3.255389e+003;1.395864e-001
3.257318e+003;1.410154e-001
3.259246e+003;1.422770e-001
3.261175e+003;1.436082e-001
3.263103e+003;1.447682e-001
3.265032e+003;1.449820e-001
3.266960e+003;1.456087e-001
3.268889e+003;1.469915e-001
3.270817e+003;1.480561e-001
3.272746e+003;1.482840e-001
3.274675e+003;1.486842e-001
3.276603e+003;1.495701e-001
3.278531e+003;1.503715e-001
3.280460e+003;1.509282e-001
3.282389e+003;1.511599e-001
3.284317e+003;1.520797e-001
3.286246e+003;1.528196e-001
3.288174e+003;1.525895e-001
3.290103e+003;1.528087e-001
3.292031e+003;1.533705e-001
3.293960e+003;1.538978e-001
3.295888e+003;1.544654e-001
3.297817e+003;1.547866e-001
3.299746e+003;1.548700e-001
3.301674e+003;1.551645e-001
3.303603e+003;1.555915e-001
3.305531e+003;1.557714e-001
3.307460e+003;1.559548e-001
3.309388e+003;1.563945e-001
3.311317e+003;1.569838e-001
3.313245e+003;1.574204e-001
3.315174e+003;1.583766e-001
3.317103e+003;1.590584e-001
3.319031e+003;1.588617e-001
3.320960e+003;1.591428e-001
3.322888e+003;1.591926e-001
3.324817e+003;1.595335e-001
3.326745e+003;1.601415e-001
3.328674e+003;1.601338e-001
3.330602e+003;1.604658e-001
3.332531e+003;1.613823e-001
3.334459e+003;1.617062e-001
3.336388e+003;1.611556e-001
3.338317e+003;1.606157e-001
3.340245e+003;1.603022e-001
3.342174e+003;1.598943e-001
3.344102e+003;1.591426e-001
3.346031e+003;1.584011e-001
3.347959e+003;1.578834e-001
3.349888e+003;1.569634e-001
3.351816e+003;1.558981e-001
3.353745e+003;1.547235e-001
3.355674e+003;1.541813e-001
3.357602e+003;1.541454e-001
3.359531e+003;1.532583e-001
3.361459e+003;1.525231e-001
3.363388e+003;1.517009e-001
3.365316e+003;1.507592e-001
3.367245e+003;1.502436e-001
3.369173e+003;1.495975e-001
3.371102e+003;1.484931e-001
3.373031e+003;1.476781e-001
3.374959e+003;1.468086e-001
3.376887e+003;1.453307e-001
3.378816e+003;1.438575e-001
3.380745e+003;1.432945e-001
3.382673e+003;1.432793e-001
3.384602e+003;1.429467e-001
3.386530e+003;1.417420e-001
3.388459e+003;1.407071e-001
3.390387e+003;1.405082e-001
3.392316e+003;1.401468e-001
3.394244e+003;1.391543e-001
3.396173e+003;1.383875e-001
3.398102e+003;1.376149e-001
3.400030e+003;1.365990e-001
3.401959e+003;1.357493e-001
3.403887e+003;1.346048e-001
3.405816e+003;1.332099e-001
3.407744e+003;1.329395e-001
3.409673e+003;1.328270e-001
3.411601e+003;1.317193e-001
3.413530e+003;1.309455e-001
3.415458e+003;1.297921e-001
3.417387e+003;1.286961e-001
3.419316e+003;1.275764e-001
3.421244e+003;1.261410e-001
3.423173e+003;1.254662e-001
3.425101e+003;1.245863e-001
3.427030e+003;1.234062e-001
3.428958e+003;1.226729e-001
3.430887e+003;1.221527e-001
3.432815e+003;1.212108e-001
3.434744e+003;1.199827e-001
3.436673e+003;1.192123e-001
3.438601e+003;1.185087e-001
3.440530e+003;1.177059e-001
3.442458e+003;1.166652e-001
3.444387e+003;1.156241e-001
3.446315e+003;1.143968e-001
3.448244e+003;1.125546e-001
3.450172e+003;1.115107e-001
3.452101e+003;1.110732e-001
3.454030e+003;1.101192e-001
3.455958e+003;1.090356e-001
3.457886e+003;1.082870e-001
3.459815e+003;1.070489e-001
3.461744e+003;1.055149e-001
3.463672e+003;1.049372e-001
3.465601e+003;1.037586e-001
3.467529e+003;1.022739e-001
3.469458e+003;1.015153e-001
3.471386e+003;1.006638e-001
3.473315e+003;9.967613e-002
3.475243e+003;9.842315e-002
3.477172e+003;9.701067e-002
3.479101e+003;9.585515e-002
3.481029e+003;9.490688e-002
3.482958e+003;9.414876e-002
3.484886e+003;9.307475e-002
3.486815e+003;9.194852e-002
3.488743e+003;9.119251e-002
3.490672e+003;9.022006e-002
3.492600e+003;8.880198e-002
3.494529e+003;8.784091e-002
3.496458e+003;8.689454e-002
3.498386e+003;8.513997e-002
3.500315e+003;8.428994e-002
3.502243e+003;8.388925e-002
3.504172e+003;8.277858e-002
3.506100e+003;8.161272e-002
3.508029e+003;8.060354e-002
3.509957e+003;7.930662e-002
3.511886e+003;7.852333e-002
3.513814e+003;7.818002e-002
3.515743e+003;7.764438e-002
3.517672e+003;7.652405e-002
3.519600e+003;7.512522e-002
3.521529e+003;7.445207e-002
3.523457e+003;7.388083e-002
3.525386e+003;7.238489e-002
3.527314e+003;7.083301e-002
3.529243e+003;6.976484e-002
3.531171e+003;6.918708e-002
3.533100e+003;6.840099e-002
3.535029e+003;6.747496e-002
3.536957e+003;6.690770e-002
3.538885e+003;6.633694e-002
3.540814e+003;6.524079e-002
3.542743e+003;6.421354e-002
3.544671e+003;6.296933e-002
3.546600e+003;6.186303e-002
3.548528e+003;6.160205e-002
3.550457e+003;6.096233e-002
3.552385e+003;5.987912e-002
3.554314e+003;5.913709e-002
3.556242e+003;5.808204e-002
3.558171e+003;5.715108e-002
3.560100e+003;5.668389e-002
3.562028e+003;5.615197e-002
3.563957e+003;5.511320e-002
3.565885e+003;5.436440e-002
3.567814e+003;5.369723e-002
3.569742e+003;5.308597e-002
3.571671e+003;5.250372e-002
3.573599e+003;5.169834e-002
3.575528e+003;5.038906e-002
3.577457e+003;4.937466e-002
3.579385e+003;4.897777e-002
3.581314e+003;4.865573e-002
3.583242e+003;4.827934e-002
3.585171e+003;4.758340e-002
3.587099e+003;4.637404e-002
3.589028e+003;4.547311e-002
3.590956e+003;4.485953e-002
3.592885e+003;4.406393e-002
3.594813e+003;4.302255e-002
3.596742e+003;4.197370e-002
3.598671e+003;4.141249e-002
3.600599e+003;4.041551e-002
3.602528e+003;3.973561e-002
3.604456e+003;3.956641e-002
3.606385e+003;3.968569e-002
3.608313e+003;3.928047e-002
3.610242e+003;3.799241e-002
3.612170e+003;3.660585e-002
3.614099e+003;3.620187e-002
3.616028e+003;3.623601e-002
3.617956e+003;3.564807e-002
3.619885e+003;3.418368e-002
3.621813e+003;3.306020e-002
3.623742e+003;3.251814e-002
3.625670e+003;3.224212e-002
3.627599e+003;3.190942e-002
3.629527e+003;3.108086e-002
3.631456e+003;2.982400e-002
3.633385e+003;2.869892e-002
3.635313e+003;2.802770e-002
3.637241e+003;2.763804e-002
3.639170e+003;2.721490e-002
3.641099e+003;2.613776e-002
3.643027e+003;2.510719e-002
3.644956e+003;2.425057e-002
3.646884e+003;2.349083e-002
3.648813e+003;2.336252e-002
3.650741e+003;2.306787e-002
3.652670e+003;2.234152e-002
3.654598e+003;2.150607e-002
3.656527e+003;2.089961e-002
3.658456e+003;2.070516e-002
3.660384e+003;2.038001e-002
3.662313e+003;1.973171e-002
3.664241e+003;1.912758e-002
3.666170e+003;1.855635e-002
3.668098e+003;1.790469e-002
3.670027e+003;1.721142e-002
3.671955e+003;1.690489e-002
3.673884e+003;1.687943e-002
3.675813e+003;1.674112e-002
3.677741e+003;1.640439e-002
3.679669e+003;1.613845e-002
3.681598e+003;1.579017e-002
3.683527e+003;1.540883e-002
3.685455e+003;1.462590e-002
3.687384e+003;1.419617e-002
3.689312e+003;1.394695e-002
3.691241e+003;1.343737e-002
3.693169e+003;1.307277e-002
3.695098e+003;1.293252e-002
3.697026e+003;1.274324e-002
3.698955e+003;1.252817e-002
3.700884e+003;1.232584e-002
3.702812e+003;1.217646e-002
3.704741e+003;1.165006e-002
3.706669e+003;1.135515e-002
3.708598e+003;1.116306e-002
3.710526e+003;1.100368e-002
3.712455e+003;1.135131e-002
3.714383e+003;1.156699e-002
3.716312e+003;1.114008e-002
3.718240e+003;1.064026e-002
3.720169e+003;1.057820e-002
3.722098e+003;1.066353e-002
3.724026e+003;1.052449e-002
3.725955e+003;1.043179e-002
3.727883e+003;1.084136e-002
3.729812e+003;1.041523e-002
3.731740e+003;9.655000e-003
3.733669e+003;1.011623e-002
3.735597e+003;1.024540e-002
3.737526e+003;9.684171e-003
3.739455e+003;9.552630e-003
3.741383e+003;9.622545e-003
3.743312e+003;9.475546e-003
3.745240e+003;9.055148e-003
3.747169e+003;9.577559e-003
3.749097e+003;1.029202e-002
3.751026e+003;1.059263e-002
3.752954e+003;1.074754e-002
3.754883e+003;1.028662e-002
3.756812e+003;9.326160e-003
3.758740e+003;9.165049e-003
3.760668e+003;9.592633e-003
3.762597e+003;1.011454e-002
3.764526e+003;1.025168e-002
3.766454e+003;1.015741e-002
3.768383e+003;1.008917e-002
3.770311e+003;9.811379e-003
3.772240e+003;9.687660e-003
3.774168e+003;9.818903e-003
3.776097e+003;1.035845e-002
3.778025e+003;1.003546e-002
3.779954e+003;9.057550e-003
3.781883e+003;8.847401e-003
3.783811e+003;9.210769e-003
3.785740e+003;9.769864e-003
3.787668e+003;9.269324e-003
3.789597e+003;8.608285e-003
3.791525e+003;8.713510e-003
3.793454e+003;8.928025e-003
3.795382e+003;9.623629e-003
3.797311e+003;1.008276e-002
3.799240e+003;9.796704e-003
3.801168e+003;9.528988e-003
3.803097e+003;9.431152e-003
3.805025e+003;9.543383e-003
3.806954e+003;9.807448e-003
3.808882e+003;1.012420e-002
3.810811e+003;1.011545e-002
3.812739e+003;1.028272e-002
3.814668e+003;1.047900e-002
3.816596e+003;9.919132e-003
3.818525e+003;9.463998e-003
3.820454e+003;9.589686e-003
3.822382e+003;1.011671e-002
3.824311e+003;1.075498e-002
3.826239e+003;1.095994e-002
3.828168e+003;1.035879e-002
3.830096e+003;1.004526e-002
3.832025e+003;1.028784e-002
3.833953e+003;1.038326e-002
3.835882e+003;1.035849e-002
3.837811e+003;1.034447e-002
3.839739e+003;1.014907e-002
3.841667e+003;1.039724e-002
3.843596e+003;1.080947e-002
3.845525e+003;1.024082e-002
3.847453e+003;9.624984e-003
3.849382e+003;1.015917e-002
3.851310e+003;1.020480e-002
3.853239e+003;1.013312e-002
3.855167e+003;1.064634e-002
3.857096e+003;1.066859e-002
3.859024e+003;1.044238e-002
3.860953e+003;1.044981e-002
3.862882e+003;1.044717e-002
3.864810e+003;1.044679e-002
3.866739e+003;1.076341e-002
3.868667e+003;1.121803e-002
3.870596e+003;1.148989e-002
3.872524e+003;1.155954e-002
3.874453e+003;1.186770e-002
3.876381e+003;1.153783e-002
3.878310e+003;1.152953e-002
3.880239e+003;1.147580e-002
3.882167e+003;1.145386e-002
3.884096e+003;1.156148e-002
3.886024e+003;1.178095e-002
3.887953e+003;1.134093e-002
3.889881e+003;1.140052e-002
3.891810e+003;1.171562e-002
3.893738e+003;1.180961e-002
3.895667e+003;1.220079e-002
3.897595e+003;1.260460e-002
3.899524e+003;1.252503e-002
3.901453e+003;1.248029e-002
3.903381e+003;1.295771e-002
3.905310e+003;1.284626e-002
3.907238e+003;1.264683e-002
3.909167e+003;1.309554e-002
3.911095e+003;1.310726e-002
3.913024e+003;1.259082e-002
3.914952e+003;1.233143e-002
3.916881e+003;1.273031e-002
3.918810e+003;1.298062e-002
3.920738e+003;1.241069e-002
3.922667e+003;1.245430e-002
3.924595e+003;1.247425e-002
3.926524e+003;1.267102e-002
3.928452e+003;1.312727e-002
3.930381e+003;1.327589e-002
3.932309e+003;1.332765e-002
3.934238e+003;1.335303e-002
3.936167e+003;1.359652e-002
3.938095e+003;1.331285e-002
3.940023e+003;1.323161e-002
3.941952e+003;1.320087e-002
3.943881e+003;1.334873e-002
3.945809e+003;1.399044e-002
3.947738e+003;1.475415e-002
3.949666e+003;1.474634e-002
3.951595e+003;1.396508e-002
3.953523e+003;1.385772e-002
3.955452e+003;1.385687e-002
3.957380e+003;1.347660e-002
3.959309e+003;1.369896e-002
3.961238e+003;1.451529e-002
3.963166e+003;1.465064e-002
3.965095e+003;1.451800e-002
3.967023e+003;1.383306e-002
3.968952e+003;1.336940e-002
3.970880e+003;1.413312e-002
3.972809e+003;1.536636e-002
3.974737e+003;1.528841e-002
3.976666e+003;1.489609e-002
3.978594e+003;1.485494e-002
3.980523e+003;1.478586e-002
3.982452e+003;1.444154e-002
3.984380e+003;1.365679e-002
3.986309e+003;1.353242e-002
3.988237e+003;1.413432e-002
3.990166e+003;1.456679e-002
3.992094e+003;1.449080e-002
3.994023e+003;1.474891e-002
3.995951e+003;1.504747e-002
3.997880e+003;1.478209e-002
3.999809e+003;1.459982e-002
4.001737e+003;0.000000e+000
