3.992094e+002;0.000000e+000
4.011380e+002;0.000000e+000
4.030665e+002;0.000000e+000
4.049951e+002;0.000000e+000
4.069236e+002;0.000000e+000
4.088522e+002;0.000000e+000
4.107807e+002;0.000000e+000
4.127093e+002;0.000000e+000
4.146378e+002;0.000000e+000
4.165664e+002;0.000000e+000
4.184949e+002;0.000000e+000
4.204235e+002;0.000000e+000
4.223520e+002;0.000000e+000
4.242806e+002;0.000000e+000
4.262091e+002;0.000000e+000
4.281377e+002;0.000000e+000
4.300662e+002;0.000000e+000
4.319948e+002;0.000000e+000
4.339233e+002;0.000000e+000
4.358519e+002;0.000000e+000
4.377804e+002;0.000000e+000
4.397090e+002;0.000000e+000
4.416375e+002;0.000000e+000
4.435660e+002;0.000000e+000
4.454946e+002;0.000000e+000
4.474232e+002;0.000000e+000
4.493517e+002;0.000000e+000
4.512802e+002;0.000000e+000
4.532088e+002;0.000000e+000
4.551373e+002;0.000000e+000
4.570659e+002;0.000000e+000
4.589944e+002;0.000000e+000
4.609230e+002;0.000000e+000
4.628515e+002;0.000000e+000
4.647801e+002;0.000000e+000
4.667086e+002;0.000000e+000
4.686372e+002;0.000000e+000
4.705657e+002;0.000000e+000
4.724943e+002;0.000000e+000
4.744228e+002;0.000000e+000
4.763513e+002;0.000000e+000
4.782799e+002;0.000000e+000
4.802085e+002;0.000000e+000
4.821370e+002;0.000000e+000
4.840656e+002;0.000000e+000
4.859941e+002;0.000000e+000
4.879226e+002;0.000000e+000
4.898512e+002;0.000000e+000
4.917798e+002;0.000000e+000
4.937083e+002;0.000000e+000
4.956368e+002;0.000000e+000
4.975654e+002;0.000000e+000
4.994939e+002;0.000000e+000
5.014225e+002;0.000000e+000
5.033510e+002;0.000000e+000
5.052796e+002;0.000000e+000
5.072081e+002;0.000000e+000
5.091367e+002;0.000000e+000
5.110652e+002;0.000000e+000
5.129938e+002;0.000000e+000
5.149223e+002;0.000000e+000
5.168509e+002;0.000000e+000
5.187794e+002;0.000000e+000
5.207079e+002;0.000000e+000
5.226365e+002;0.000000e+000
5.245651e+002;0.000000e+000
5.264936e+002;0.000000e+000
5.284222e+002;0.000000e+000
5.303507e+002;0.000000e+000
5.322792e+002;0.000000e+000
5.342078e+002;0.000000e+000
5.361364e+002;0.000000e+000
5.380649e+002;0.000000e+000
5.399935e+002;0.000000e+000
5.419220e+002;0.000000e+000
5.438505e+002;0.000000e+000
5.457791e+002;0.000000e+000
5.477076e+002;0.000000e+000
5.496362e+002;0.000000e+000
5.515648e+002;0.000000e+000
5.534933e+002;0.000000e+000
5.554218e+002;0.000000e+000
5.573504e+002;0.000000e+000
5.592789e+002;0.000000e+000
5.612075e+002;0.000000e+000
5.631360e+002;0.000000e+000
5.650646e+002;0.000000e+000
5.669931e+002;0.000000e+000
5.689217e+002;0.000000e+000
5.708502e+002;0.000000e+000
5.727787e+002;0.000000e+000
5.747073e+002;0.000000e+000
5.766359e+002;0.000000e+000
5.785644e+002;0.000000e+000
5.804930e+002;0.000000e+000
5.824215e+002;0.000000e+000
5.843500e+002;0.000000e+000
5.862786e+002;0.000000e+000
5.882072e+002;0.000000e+000
5.901357e+002;0.000000e+000
5.920643e+002;0.000000e+000
5.939928e+002;0.000000e+000
5.959213e+002;0.000000e+000
5.978499e+002;0.000000e+000
5.997784e+002;2.679724e-001
6.017070e+002;2.762041e-001
6.036355e+002;2.792376e-001
6.055641e+002;2.748818e-001
6.074926e+002;2.728649e-001
6.094211e+002;2.721899e-001
6.113497e+002;2.693404e-001
6.132783e+002;2.700489e-001
6.152068e+002;2.748960e-001
6.171354e+002;2.732284e-001
6.190639e+002;2.676666e-001
6.209924e+002;2.620033e-001
6.229210e+002;2.591842e-001
6.248495e+002;2.559493e-001
6.267781e+002;2.512094e-001
6.287067e+002;2.491309e-001
6.306352e+002;2.469305e-001
6.325637e+002;2.459315e-001
6.344923e+002;2.434945e-001
6.364208e+002;2.358040e-001
6.383494e+002;2.283910e-001
6.402780e+002;2.269482e-001
6.422065e+002;2.274764e-001
6.441350e+002;2.285603e-001
6.460636e+002;2.275122e-001
6.479921e+002;2.285772e-001
6.499207e+002;2.290352e-001
6.518492e+002;2.284465e-001
6.537778e+002;2.324576e-001
6.557063e+002;2.378410e-001
6.576349e+002;2.430426e-001
6.595634e+002;2.470805e-001
6.614919e+002;2.490755e-001
6.634205e+002;2.521847e-001
6.653491e+002;2.532795e-001
6.672776e+002;2.508222e-001
6.692062e+002;2.455705e-001
6.711347e+002;2.399244e-001
6.730632e+002;2.337975e-001
6.749918e+002;2.257316e-001
6.769203e+002;2.166762e-001
6.788489e+002;2.099115e-001
6.807775e+002;2.059120e-001
6.827060e+002;2.028616e-001
6.846345e+002;1.999753e-001
6.865631e+002;1.958623e-001
6.884916e+002;1.931938e-001
6.904202e+002;1.914244e-001
6.923488e+002;1.910320e-001
6.942773e+002;1.913948e-001
6.962058e+002;1.916531e-001
6.981344e+002;1.907896e-001
7.000629e+002;1.887487e-001
7.019915e+002;1.873203e-001
7.039200e+002;1.863806e-001
7.058486e+002;1.849580e-001
7.077771e+002;1.818683e-001
7.097057e+002;1.786941e-001
7.116342e+002;1.768928e-001
7.135627e+002;1.746019e-001
7.154913e+002;1.713676e-001
7.174199e+002;1.681734e-001
7.193484e+002;1.647922e-001
7.212770e+002;1.606096e-001
7.232055e+002;1.569565e-001
7.251340e+002;1.538211e-001
7.270626e+002;1.506984e-001
7.289911e+002;1.482124e-001
7.309197e+002;1.460102e-001
7.328483e+002;1.433411e-001
7.347768e+002;1.410190e-001
7.367053e+002;1.387256e-001
7.386339e+002;1.364193e-001
7.405624e+002;1.346919e-001
7.424910e+002;1.339497e-001
7.444196e+002;1.324842e-001
7.463481e+002;1.304509e-001
7.482766e+002;1.288432e-001
7.502052e+002;1.272906e-001
7.521337e+002;1.259899e-001
7.540623e+002;1.246128e-001
7.559908e+002;1.223260e-001
7.579194e+002;1.211323e-001
7.598479e+002;1.205123e-001
7.617765e+002;1.195557e-001
7.637050e+002;1.182984e-001
7.656335e+002;1.164833e-001
7.675621e+002;1.149144e-001
7.694907e+002;1.141230e-001
7.714192e+002;1.129951e-001
7.733478e+002;1.115950e-001
7.752763e+002;1.109121e-001
7.772048e+002;1.105510e-001
7.791334e+002;1.101041e-001
7.810620e+002;1.093172e-001
7.829905e+002;1.089162e-001
7.849191e+002;1.087355e-001
7.868476e+002;1.075057e-001
7.887761e+002;1.055776e-001
7.907047e+002;1.039280e-001
7.926332e+002;1.025407e-001
7.945618e+002;1.013289e-001
7.964903e+002;9.985378e-002
7.984189e+002;9.912116e-002
8.003474e+002;9.877503e-002
8.022759e+002;9.839181e-002
8.042045e+002;9.825410e-002
8.061331e+002;9.729346e-002
8.080616e+002;9.696928e-002
8.099902e+002;9.714471e-002
8.119187e+002;9.643815e-002
8.138472e+002;9.584085e-002
8.157758e+002;9.566133e-002
8.177043e+002;9.541114e-002
8.196329e+002;9.474126e-002
8.215615e+002;9.447994e-002
8.234900e+002;9.480408e-002
8.254185e+002;9.525238e-002
8.273471e+002;9.548155e-002
8.292756e+002;9.554324e-002
8.312042e+002;9.583899e-002
8.331328e+002;9.604053e-002
8.350613e+002;9.534101e-002
8.369898e+002;9.459239e-002
8.389184e+002;9.477048e-002
8.408469e+002;9.468254e-002
8.427755e+002;9.492626e-002
8.447040e+002;9.603702e-002
8.466326e+002;9.670140e-002
8.485611e+002;9.672049e-002
8.504897e+002;9.644067e-002
8.524182e+002;9.684582e-002
8.543467e+002;9.770965e-002
8.562753e+002;9.817218e-002
8.582039e+002;9.881413e-002
8.601324e+002;1.002335e-001
8.620610e+002;1.017700e-001
8.639895e+002;1.031289e-001
8.659180e+002;1.047765e-001
8.678466e+002;1.068394e-001
8.697751e+002;1.091342e-001
8.717037e+002;1.112662e-001
8.736323e+002;1.134388e-001
8.755608e+002;1.160905e-001
8.774893e+002;1.186417e-001
8.794179e+002;1.203751e-001
8.813464e+002;1.225806e-001
8.832750e+002;1.255645e-001
8.852036e+002;1.285345e-001
8.871321e+002;1.315545e-001
8.890606e+002;1.346534e-001
8.909892e+002;1.377641e-001
8.929177e+002;1.401884e-001
8.948463e+002;1.415673e-001
8.967748e+002;1.423149e-001
8.987034e+002;1.425254e-001
9.006319e+002;1.419131e-001
9.025605e+002;1.401787e-001
9.044890e+002;1.379166e-001
9.064175e+002;1.358106e-001
9.083461e+002;1.335756e-001
9.102747e+002;1.312892e-001
9.122032e+002;1.293825e-001
9.141318e+002;1.273266e-001
9.160603e+002;1.259704e-001
9.179888e+002;1.253142e-001
9.199174e+002;1.252263e-001
9.218459e+002;1.255058e-001
9.237745e+002;1.259836e-001
9.257031e+002;1.270652e-001
9.276316e+002;1.287653e-001
9.295601e+002;1.306064e-001
9.314887e+002;1.319432e-001
9.334172e+002;1.334537e-001
9.353458e+002;1.350047e-001
9.372744e+002;1.366723e-001
9.392029e+002;1.386371e-001
9.411314e+002;1.405233e-001
9.430600e+002;1.429142e-001
9.449885e+002;1.456428e-001
9.469171e+002;1.484982e-001
9.488456e+002;1.514851e-001
9.507742e+002;1.548599e-001
9.527027e+002;1.591350e-001
9.546313e+002;1.638295e-001
9.565598e+002;1.685935e-001
9.584883e+002;1.737185e-001
9.604169e+002;1.795803e-001
9.623455e+002;1.857922e-001
9.642740e+002;1.923597e-001
9.662026e+002;1.990830e-001
9.681311e+002;2.065295e-001
9.700596e+002;2.154578e-001
9.719882e+002;2.259621e-001
9.739167e+002;2.377677e-001
9.758453e+002;2.511289e-001
9.777739e+002;2.671607e-001
9.797024e+002;2.853783e-001
9.816309e+002;3.025184e-001
9.835595e+002;3.154009e-001
9.854880e+002;3.228451e-001
9.874166e+002;3.262691e-001
9.893452e+002;3.281347e-001
9.912737e+002;3.315500e-001
9.932022e+002;3.370612e-001
9.951307e+002;3.443906e-001
9.970593e+002;3.529962e-001
9.989879e+002;3.610095e-001
1.000916e+003;3.668070e-001
1.002845e+003;3.703978e-001
1.004773e+003;3.718725e-001
1.006702e+003;3.720394e-001
1.008631e+003;3.731352e-001
1.010559e+003;3.757402e-001
1.012488e+003;3.794685e-001
1.014416e+003;3.845771e-001
1.016345e+003;3.904206e-001
1.018273e+003;3.963886e-001
1.020202e+003;4.024233e-001
1.022130e+003;4.079138e-001
1.024059e+003;4.132531e-001
1.025988e+003;4.183423e-001
1.027916e+003;4.223734e-001
1.029845e+003;4.250191e-001
1.031773e+003;4.246897e-001
1.033702e+003;4.212385e-001
1.035630e+003;4.156515e-001
1.037559e+003;4.086900e-001
1.039487e+003;4.015843e-001
1.041416e+003;3.963453e-001
1.043344e+003;3.935084e-001
1.045273e+003;3.926451e-001
1.047202e+003;3.943166e-001
1.049130e+003;3.970909e-001
1.051059e+003;3.986990e-001
1.052987e+003;3.993552e-001
1.054916e+003;3.992959e-001
1.056844e+003;3.962888e-001
1.058773e+003;3.890387e-001
1.060701e+003;3.778599e-001
1.062630e+003;3.632695e-001
1.064558e+003;3.478410e-001
1.066487e+003;3.326305e-001
1.068416e+003;3.185055e-001
1.070344e+003;3.072119e-001
1.072273e+003;2.983492e-001
1.074201e+003;2.911127e-001
1.076130e+003;2.848119e-001
1.078058e+003;2.788024e-001
1.079987e+003;2.730606e-001
1.081915e+003;2.681455e-001
1.083844e+003;2.649696e-001
1.085773e+003;2.629814e-001
1.087701e+003;2.619147e-001
1.089630e+003;2.611705e-001
1.091558e+003;2.603138e-001
1.093487e+003;2.604162e-001
1.095415e+003;2.619254e-001
1.097344e+003;2.638032e-001
1.099272e+003;2.649426e-001
1.101201e+003;2.653967e-001
1.103129e+003;2.647111e-001
1.105058e+003;2.623076e-001
1.106987e+003;2.596431e-001
1.108915e+003;2.564840e-001
1.110844e+003;2.517365e-001
1.112772e+003;2.445811e-001
1.114701e+003;2.352755e-001
1.116629e+003;2.243839e-001
1.118558e+003;2.143296e-001
1.120486e+003;2.063631e-001
1.122415e+003;1.993896e-001
1.124344e+003;1.925390e-001
1.126272e+003;1.854412e-001
1.128201e+003;1.783557e-001
1.130129e+003;1.720454e-001
1.132058e+003;1.665023e-001
1.133986e+003;1.614758e-001
1.135915e+003;1.573897e-001
1.137843e+003;1.546353e-001
1.139772e+003;1.533886e-001
1.141700e+003;1.534272e-001
1.143629e+003;1.542706e-001
1.145557e+003;1.553423e-001
1.147486e+003;1.564561e-001
1.149415e+003;1.574637e-001
1.151343e+003;1.587931e-001
1.153272e+003;1.600024e-001
1.155200e+003;1.613241e-001
1.157129e+003;1.628289e-001
1.159057e+003;1.636350e-001
1.160986e+003;1.631519e-001
1.162914e+003;1.614612e-001
1.164843e+003;1.579545e-001
1.166771e+003;1.529120e-001
1.168700e+003;1.463714e-001
1.170629e+003;1.386476e-001
1.172557e+003;1.312726e-001
1.174486e+003;1.242055e-001
1.176414e+003;1.184751e-001
1.178343e+003;1.144512e-001
1.180271e+003;1.111245e-001
1.182200e+003;1.081545e-001
1.184128e+003;1.061175e-001
1.186057e+003;1.055481e-001
1.187986e+003;1.062744e-001
1.189914e+003;1.077381e-001
1.191843e+003;1.103565e-001
1.193771e+003;1.134881e-001
1.195700e+003;1.163046e-001
1.197628e+003;1.189131e-001
1.199557e+003;1.206445e-001
1.201485e+003;1.214899e-001
1.203414e+003;1.215979e-001
1.205343e+003;1.208538e-001
1.207271e+003;1.189839e-001
1.209200e+003;1.153927e-001
1.211128e+003;1.109919e-001
1.213057e+003;1.073756e-001
1.214985e+003;1.054983e-001
1.216914e+003;1.056483e-001
1.218842e+003;1.069351e-001
1.220771e+003;1.083564e-001
1.222699e+003;1.104919e-001
1.224628e+003;1.126788e-001
1.226557e+003;1.147387e-001
1.228485e+003;1.166790e-001
1.230414e+003;1.183931e-001
1.232342e+003;1.199473e-001
1.234271e+003;1.209294e-001
1.236199e+003;1.214738e-001
1.238128e+003;1.217749e-001
1.240056e+003;1.221770e-001
1.241985e+003;1.228143e-001
1.243913e+003;1.235349e-001
1.245842e+003;1.248631e-001
1.247771e+003;1.259521e-001
1.249699e+003;1.261354e-001
1.251628e+003;1.258293e-001
1.253556e+003;1.250727e-001
1.255485e+003;1.242118e-001
1.257413e+003;1.237569e-001
1.259342e+003;1.230194e-001
1.261270e+003;1.222770e-001
1.263199e+003;1.220651e-001
1.265127e+003;1.227453e-001
1.267056e+003;1.239304e-001
1.268985e+003;1.251307e-001
1.270913e+003;1.262561e-001
1.272842e+003;1.272688e-001
1.274770e+003;1.280469e-001
1.276699e+003;1.283171e-001
1.278627e+003;1.283983e-001
1.280556e+003;1.279959e-001
1.282484e+003;1.267438e-001
1.284413e+003;1.256549e-001
1.286342e+003;1.253819e-001
1.288270e+003;1.257688e-001
1.290199e+003;1.263665e-001
1.292127e+003;1.271581e-001
1.294056e+003;1.282248e-001
1.295984e+003;1.294761e-001
1.297913e+003;1.313307e-001
1.299841e+003;1.339978e-001
1.301770e+003;1.372712e-001
1.303698e+003;1.410832e-001
1.305627e+003;1.456402e-001
1.307556e+003;1.506258e-001
1.309484e+003;1.554646e-001
1.311413e+003;1.598707e-001
1.313341e+003;1.634493e-001
1.315270e+003;1.653658e-001
1.317198e+003;1.647372e-001
1.319127e+003;1.621837e-001
1.321055e+003;1.588292e-001
1.322984e+003;1.553716e-001
1.324912e+003;1.525720e-001
1.326841e+003;1.507957e-001
1.328770e+003;1.498933e-001
1.330698e+003;1.498597e-001
1.332627e+003;1.504842e-001
1.334555e+003;1.508667e-001
1.336484e+003;1.503945e-001
1.338412e+003;1.489692e-001
1.340341e+003;1.467246e-001
1.342269e+003;1.441265e-001
1.344198e+003;1.412554e-001
1.346126e+003;1.384684e-001
1.348055e+003;1.365632e-001
1.349984e+003;1.356150e-001
1.351912e+003;1.354523e-001
1.353841e+003;1.360260e-001
1.355769e+003;1.374079e-001
1.357698e+003;1.387594e-001
1.359626e+003;1.397009e-001
1.361555e+003;1.398088e-001
1.363483e+003;1.391217e-001
1.365412e+003;1.382165e-001
1.367341e+003;1.373488e-001
1.369269e+003;1.365298e-001
1.371198e+003;1.352860e-001
1.373126e+003;1.332417e-001
1.375055e+003;1.304767e-001
1.376983e+003;1.272734e-001
1.378912e+003;1.241124e-001
1.380840e+003;1.212532e-001
1.382769e+003;1.185253e-001
1.384698e+003;1.161112e-001
1.386626e+003;1.143368e-001
1.388555e+003;1.128330e-001
1.390483e+003;1.113608e-001
1.392412e+003;1.103396e-001
1.394340e+003;1.100208e-001
1.396269e+003;1.098834e-001
1.398197e+003;1.100465e-001
1.400126e+003;1.105010e-001
1.402054e+003;1.109522e-001
1.403983e+003;1.114019e-001
1.405911e+003;1.118795e-001
1.407840e+003;1.122995e-001
1.409769e+003;1.125909e-001
1.411697e+003;1.130997e-001
1.413626e+003;1.136557e-001
1.415554e+003;1.144695e-001
1.417483e+003;1.159396e-001
1.419411e+003;1.175115e-001
1.421340e+003;1.187578e-001
1.423268e+003;1.199464e-001
1.425197e+003;1.211643e-001
1.427125e+003;1.221257e-001
1.429054e+003;1.223889e-001
1.430983e+003;1.216497e-001
1.432911e+003;1.199879e-001
1.434840e+003;1.180127e-001
1.436768e+003;1.160192e-001
1.438697e+003;1.141232e-001
1.440625e+003;1.128271e-001
1.442554e+003;1.121604e-001
1.444482e+003;1.116622e-001
1.446411e+003;1.111938e-001
1.448340e+003;1.107301e-001
1.450268e+003;1.103100e-001
1.452197e+003;1.095593e-001
1.454125e+003;1.085748e-001
1.456054e+003;1.072391e-001
1.457982e+003;1.058346e-001
1.459911e+003;1.044201e-001
1.461839e+003;1.028111e-001
1.463768e+003;1.009360e-001
1.465697e+003;9.859516e-002
1.467625e+003;9.609304e-002
1.469554e+003;9.364338e-002
1.471482e+003;9.119567e-002
1.473411e+003;8.868264e-002
1.475339e+003;8.654847e-002
1.477268e+003;8.502655e-002
1.479196e+003;8.361172e-002
1.481125e+003;8.188146e-002
1.483053e+003;7.983679e-002
1.484982e+003;7.767183e-002
1.486911e+003;7.568099e-002
1.488839e+003;7.374031e-002
1.490768e+003;7.180068e-002
1.492696e+003;7.037382e-002
1.494625e+003;6.941923e-002
1.496553e+003;6.855733e-002
1.498482e+003;6.789222e-002
1.500410e+003;6.769818e-002
1.502339e+003;6.733592e-002
1.504267e+003;6.696383e-002
1.506196e+003;6.692966e-002
1.508125e+003;6.690662e-002
1.510053e+003;6.659225e-002
1.511982e+003;6.610855e-002
1.513910e+003;6.534446e-002
1.515839e+003;6.457856e-002
1.517767e+003;6.407294e-002
1.519696e+003;6.345093e-002
1.521624e+003;6.285589e-002
1.523553e+003;6.250771e-002
1.525481e+003;6.193456e-002
1.527410e+003;6.168724e-002
1.529339e+003;6.169374e-002
1.531267e+003;6.162297e-002
1.533196e+003;6.155123e-002
1.535124e+003;6.153466e-002
1.537053e+003;6.147324e-002
1.538981e+003;6.101190e-002
1.540910e+003;6.074716e-002
1.542838e+003;6.078207e-002
1.544767e+003;6.078054e-002
1.546695e+003;6.090812e-002
1.548624e+003;6.100092e-002
1.550553e+003;6.088334e-002
1.552481e+003;6.080238e-002
1.554410e+003;6.079544e-002
1.556338e+003;6.073550e-002
1.558267e+003;6.088044e-002
1.560195e+003;6.099936e-002
1.562124e+003;6.120959e-002
1.564052e+003;6.137022e-002
1.565981e+003;6.163241e-002
1.567910e+003;6.195050e-002
1.569838e+003;6.218485e-002
1.571767e+003;6.238758e-002
1.573695e+003;6.274421e-002
1.575624e+003;6.315240e-002
1.577552e+003;6.347585e-002
1.579481e+003;6.386346e-002
1.581409e+003;6.436692e-002
1.583338e+003;6.489842e-002
1.585266e+003;6.516059e-002
1.587195e+003;6.551673e-002
1.589124e+003;6.615239e-002
1.591052e+003;6.659025e-002
1.592981e+003;6.695722e-002
1.594909e+003;6.738874e-002
1.596838e+003;6.813151e-002
1.598766e+003;6.881667e-002
1.600695e+003;6.920376e-002
1.602623e+003;6.981923e-002
1.604552e+003;7.072981e-002
1.606480e+003;7.162683e-002
1.608409e+003;7.223292e-002
1.610338e+003;7.281035e-002
1.612266e+003;7.354179e-002
1.614195e+003;7.420810e-002
1.616123e+003;7.472503e-002
1.618052e+003;7.507496e-002
1.619980e+003;7.540960e-002
1.621909e+003;7.583875e-002
1.623837e+003;7.605463e-002
1.625766e+003;7.602976e-002
1.627694e+003;7.605131e-002
1.629623e+003;7.615120e-002
1.631552e+003;7.604760e-002
1.633480e+003;7.602202e-002
1.635409e+003;7.621817e-002
1.637337e+003;7.621746e-002
1.639266e+003;7.573491e-002
1.641194e+003;7.548844e-002
1.643123e+003;7.572568e-002
1.645051e+003;7.563994e-002
1.646980e+003;7.512388e-002
1.648909e+003;7.445868e-002
1.650837e+003;7.409141e-002
1.652766e+003;7.385333e-002
1.654694e+003;7.340264e-002
1.656623e+003;7.286133e-002
1.658551e+003;7.233878e-002
1.660480e+003;7.179923e-002
1.662408e+003;7.106120e-002
1.664337e+003;7.039104e-002
1.666266e+003;6.971285e-002
1.668194e+003;6.910068e-002
1.670123e+003;6.837881e-002
1.672051e+003;6.732962e-002
1.673980e+003;6.626415e-002
1.675908e+003;6.556235e-002
1.677837e+003;6.491455e-002
1.679765e+003;6.418028e-002
1.681694e+003;6.317282e-002
1.683622e+003;6.217021e-002
1.685551e+003;6.161656e-002
1.687479e+003;6.118036e-002
1.689408e+003;6.044190e-002
1.691337e+003;5.955520e-002
1.693265e+003;5.873660e-002
1.695194e+003;5.807890e-002
1.697122e+003;5.748281e-002
1.699051e+003;5.671255e-002
1.700979e+003;5.618745e-002
1.702908e+003;5.609496e-002
1.704836e+003;5.555961e-002
1.706765e+003;5.484102e-002
1.708693e+003;5.440425e-002
1.710622e+003;5.402217e-002
1.712551e+003;5.375074e-002
1.714479e+003;5.347599e-002
1.716408e+003;5.308979e-002
1.718336e+003;5.289641e-002
1.720265e+003;5.271792e-002
1.722193e+003;5.261947e-002
1.724122e+003;5.284861e-002
1.726050e+003;5.297875e-002
1.727979e+003;5.300802e-002
1.729908e+003;5.297972e-002
1.731836e+003;5.255929e-002
1.733765e+003;5.216460e-002
1.735693e+003;5.218089e-002
1.737622e+003;5.209978e-002
1.739550e+003;5.168162e-002
1.741479e+003;5.123895e-002
1.743407e+003;5.065564e-002
1.745336e+003;5.003421e-002
1.747265e+003;4.946109e-002
1.749193e+003;4.877457e-002
1.751122e+003;4.844938e-002
1.753050e+003;4.807028e-002
1.754979e+003;4.745742e-002
1.756907e+003;4.703289e-002
1.758836e+003;4.674073e-002
1.760764e+003;4.632508e-002
1.762693e+003;4.586964e-002
1.764621e+003;4.559115e-002
1.766550e+003;4.561544e-002
1.768479e+003;4.564882e-002
1.770407e+003;4.535903e-002
1.772336e+003;4.498373e-002
1.774264e+003;4.486445e-002
1.776193e+003;4.478815e-002
1.778121e+003;4.455514e-002
1.780050e+003;4.437543e-002
1.781978e+003;4.441202e-002
1.783907e+003;4.425511e-002
1.785835e+003;4.406206e-002
1.787764e+003;4.388625e-002
1.789693e+003;4.357716e-002
1.791621e+003;4.336255e-002
1.793550e+003;4.334110e-002
1.795478e+003;4.335120e-002
1.797407e+003;4.335384e-002
1.799335e+003;4.323223e-002
1.801264e+003;4.295110e-002
1.803192e+003;4.297173e-002
1.805121e+003;4.278471e-002
1.807049e+003;4.250504e-002
1.808978e+003;4.245213e-002
1.810907e+003;4.229169e-002
1.812835e+003;4.212416e-002
1.814764e+003;4.209480e-002
1.816692e+003;4.226503e-002
1.818621e+003;4.230718e-002
1.820549e+003;4.228099e-002
1.822478e+003;4.216447e-002
1.824406e+003;4.187779e-002
1.826335e+003;4.160801e-002
1.828264e+003;4.148095e-002
1.830192e+003;4.143294e-002
1.832121e+003;4.137050e-002
1.834049e+003;4.124169e-002
1.835978e+003;4.125717e-002
1.837906e+003;4.113509e-002
1.839835e+003;4.080043e-002
1.841763e+003;4.059883e-002
1.843692e+003;4.049098e-002
1.845620e+003;4.052892e-002
1.847549e+003;4.067022e-002
1.849478e+003;4.058581e-002
1.851406e+003;4.039606e-002
1.853335e+003;4.012683e-002
1.855263e+003;3.995475e-002
1.857192e+003;3.996612e-002
1.859120e+003;3.981008e-002
1.861049e+003;3.957523e-002
1.862977e+003;3.973772e-002
1.864906e+003;3.992747e-002
1.866834e+003;3.982443e-002
1.868763e+003;3.990015e-002
1.870692e+003;3.995533e-002
1.872620e+003;3.987506e-002
1.874549e+003;3.975169e-002
1.876477e+003;3.946345e-002
1.878406e+003;3.934155e-002
1.880334e+003;3.953578e-002
1.882263e+003;3.953832e-002
1.884191e+003;3.945329e-002
1.886120e+003;3.958622e-002
1.888048e+003;3.971608e-002
1.889977e+003;3.952423e-002
1.891906e+003;3.936560e-002
1.893834e+003;3.961817e-002
1.895763e+003;3.983968e-002
1.897691e+003;3.974846e-002
1.899620e+003;3.944694e-002
1.901548e+003;3.932418e-002
1.903477e+003;3.935352e-002
1.905405e+003;3.934101e-002
1.907334e+003;3.931318e-002
1.909262e+003;3.936992e-002
1.911191e+003;3.936647e-002
1.913120e+003;3.948599e-002
1.915048e+003;3.966089e-002
1.916977e+003;3.964906e-002
1.918905e+003;3.984894e-002
1.920834e+003;4.002327e-002
1.922762e+003;3.997575e-002
1.924691e+003;4.010746e-002
1.926619e+003;4.002280e-002
1.928548e+003;3.978590e-002
1.930477e+003;4.004376e-002
1.932405e+003;4.028647e-002
1.934334e+003;4.037166e-002
1.936262e+003;4.036831e-002
1.938191e+003;4.045988e-002
1.940119e+003;4.060309e-002
1.942048e+003;4.069689e-002
1.943976e+003;4.077826e-002
1.945905e+003;4.070988e-002
1.947833e+003;4.066065e-002
1.949762e+003;4.064264e-002
1.951691e+003;4.076192e-002
1.953619e+003;4.098333e-002
1.955548e+003;4.130596e-002
1.957476e+003;4.155445e-002
1.959405e+003;4.155798e-002
1.961333e+003;4.151412e-002
1.963262e+003;4.144497e-002
1.965190e+003;4.126668e-002
1.967119e+003;4.121852e-002
1.969047e+003;4.148638e-002
1.970976e+003;4.172169e-002
1.972905e+003;4.172847e-002
1.974833e+003;4.159485e-002
1.976762e+003;4.172486e-002
1.978690e+003;4.211266e-002
1.980619e+003;4.218674e-002
1.982547e+003;4.216786e-002
1.984476e+003;4.235890e-002
1.986404e+003;4.251553e-002
1.988333e+003;4.272635e-002
1.990261e+003;4.279553e-002
1.992190e+003;4.280335e-002
1.994119e+003;4.278145e-002
1.996047e+003;4.272229e-002
1.997976e+003;4.272862e-002
1.999904e+003;4.288904e-002
2.001833e+003;4.309924e-002
2.003761e+003;4.310945e-002
2.005690e+003;4.310136e-002
2.007618e+003;4.325873e-002
2.009547e+003;4.334025e-002
2.011476e+003;4.348848e-002
2.013404e+003;4.385374e-002
2.015333e+003;4.393523e-002
2.017261e+003;4.394993e-002
2.019190e+003;4.417932e-002
2.021118e+003;4.432313e-002
2.023047e+003;4.436218e-002
2.024975e+003;4.456968e-002
2.026904e+003;4.477181e-002
2.028833e+003;4.466617e-002
2.030761e+003;4.481063e-002
2.032690e+003;4.498281e-002
2.034618e+003;4.509157e-002
2.036547e+003;4.511289e-002
2.038475e+003;4.496704e-002
2.040404e+003;4.483653e-002
2.042332e+003;4.501695e-002
2.044261e+003;4.541450e-002
2.046189e+003;4.571074e-002
2.048118e+003;4.567367e-002
2.050047e+003;4.543864e-002
2.051975e+003;4.522307e-002
2.053904e+003;4.521296e-002
2.055832e+003;4.535043e-002
2.057761e+003;4.522226e-002
2.059689e+003;4.506617e-002
2.061618e+003;4.510031e-002
2.063546e+003;4.524091e-002
2.065475e+003;4.540365e-002
2.067404e+003;4.540435e-002
2.069332e+003;4.549772e-002
2.071260e+003;4.536709e-002
2.073189e+003;4.507903e-002
2.075118e+003;4.500772e-002
2.077046e+003;4.508550e-002
2.078975e+003;4.520686e-002
2.080903e+003;4.508925e-002
2.082832e+003;4.482536e-002
2.084760e+003;4.491126e-002
2.086689e+003;4.513755e-002
2.088617e+003;4.526558e-002
2.090546e+003;4.511119e-002
2.092475e+003;4.498891e-002
2.094403e+003;4.498902e-002
2.096332e+003;4.497980e-002
2.098260e+003;4.499277e-002
2.100189e+003;4.501949e-002
2.102117e+003;4.499001e-002
2.104046e+003;4.504378e-002
2.105974e+003;4.532630e-002
2.107903e+003;4.554280e-002
2.109832e+003;4.542495e-002
2.111760e+003;4.537301e-002
2.113688e+003;4.551472e-002
2.115617e+003;4.574221e-002
2.117546e+003;4.603071e-002
2.119474e+003;4.610565e-002
2.121403e+003;4.591712e-002
2.123331e+003;4.579346e-002
2.125260e+003;4.592017e-002
2.127188e+003;4.612488e-002
2.129117e+003;4.623208e-002
2.131045e+003;4.626330e-002
2.132974e+003;4.637846e-002
2.134903e+003;4.621244e-002
2.136831e+003;4.582027e-002
2.138760e+003;4.574785e-002
2.140688e+003;4.565217e-002
2.142617e+003;4.525933e-002
2.144545e+003;4.503316e-002
2.146474e+003;4.534907e-002
2.148402e+003;4.575259e-002
2.150331e+003;4.562133e-002
2.152260e+003;4.536827e-002
2.154188e+003;4.529338e-002
2.156117e+003;4.520995e-002
2.158045e+003;4.500104e-002
2.159974e+003;4.471135e-002
2.161902e+003;4.482055e-002
2.163831e+003;4.470040e-002
2.165759e+003;4.434009e-002
2.167688e+003;4.424682e-002
2.169616e+003;4.401263e-002
2.171545e+003;4.367633e-002
2.173474e+003;4.364965e-002
2.175402e+003;4.356932e-002
2.177331e+003;4.348325e-002
2.179259e+003;4.359610e-002
2.181188e+003;4.331957e-002
2.183116e+003;4.314271e-002
2.185045e+003;4.300312e-002
2.186973e+003;4.281162e-002
2.188902e+003;4.276551e-002
2.190831e+003;4.253811e-002
2.192759e+003;4.234356e-002
2.194688e+003;4.255854e-002
2.196616e+003;4.278938e-002
2.198545e+003;4.276748e-002
2.200473e+003;4.268391e-002
2.202402e+003;4.244621e-002
2.204330e+003;4.213197e-002
2.206259e+003;4.195884e-002
2.208188e+003;4.202724e-002
2.210116e+003;4.211569e-002
2.212044e+003;4.205257e-002
2.213973e+003;4.208119e-002
2.215902e+003;4.208283e-002
2.217830e+003;4.204045e-002
2.219759e+003;4.209590e-002
2.221687e+003;4.197807e-002
2.223616e+003;4.180380e-002
2.225544e+003;4.183087e-002
2.227473e+003;4.204308e-002
2.229401e+003;4.180938e-002
2.231330e+003;4.158887e-002
2.233259e+003;4.174372e-002
2.235187e+003;4.194844e-002
2.237116e+003;4.200351e-002
2.239044e+003;4.182179e-002
2.240973e+003;4.168255e-002
2.242901e+003;4.197450e-002
2.244830e+003;4.199326e-002
2.246758e+003;4.173624e-002
2.248687e+003;4.162125e-002
2.250615e+003;4.147624e-002
2.252544e+003;4.131467e-002
2.254473e+003;4.135162e-002
2.256401e+003;4.156615e-002
2.258330e+003;4.160145e-002
2.260258e+003;4.140356e-002
2.262187e+003;4.120146e-002
2.264115e+003;4.099109e-002
2.266044e+003;4.077419e-002
2.267972e+003;4.051949e-002
2.269901e+003;4.050723e-002
2.271830e+003;4.054412e-002
2.273758e+003;4.062212e-002
2.275687e+003;4.057013e-002
2.277615e+003;4.028643e-002
2.279544e+003;4.036988e-002
2.281472e+003;4.054900e-002
2.283401e+003;4.034889e-002
2.285329e+003;4.024143e-002
2.287258e+003;4.035606e-002
2.289187e+003;4.049411e-002
2.291115e+003;4.030112e-002
2.293043e+003;4.025012e-002
2.294972e+003;4.007134e-002
2.296901e+003;3.987920e-002
2.298829e+003;3.987168e-002
2.300758e+003;3.984422e-002
2.302686e+003;3.963145e-002
2.304615e+003;3.979752e-002
2.306543e+003;4.009579e-002
2.308472e+003;4.010826e-002
2.310400e+003;3.995780e-002
2.312329e+003;3.978579e-002
2.314258e+003;3.969241e-002
2.316186e+003;4.005713e-002
2.318115e+003;4.032057e-002
2.320043e+003;4.001851e-002
2.321972e+003;4.005288e-002
2.323900e+003;4.032268e-002
2.325829e+003;4.012977e-002
2.327757e+003;3.994407e-002
2.329686e+003;4.032515e-002
2.331615e+003;4.075053e-002
2.333543e+003;4.088492e-002
2.335472e+003;4.078704e-002
2.337400e+003;4.086126e-002
2.339329e+003;4.111138e-002
2.341257e+003;4.132094e-002
2.343186e+003;4.146801e-002
2.345114e+003;4.143924e-002
2.347043e+003;4.149688e-002
2.348971e+003;4.179497e-002
2.350900e+003;4.197008e-002
2.352829e+003;4.183262e-002
2.354757e+003;4.175350e-002
2.356686e+003;4.196154e-002
2.358614e+003;4.243343e-002
2.360543e+003;4.258149e-002
2.362471e+003;4.229071e-002
2.364400e+003;4.214369e-002
2.366328e+003;4.217991e-002
2.368257e+003;4.209743e-002
2.370186e+003;4.204293e-002
2.372114e+003;4.233114e-002
2.374042e+003;4.244066e-002
2.375971e+003;4.242897e-002
2.377900e+003;4.266826e-002
2.379828e+003;4.277897e-002
2.381757e+003;4.274456e-002
2.383685e+003;4.266819e-002
2.385614e+003;4.290970e-002
2.387542e+003;4.331547e-002
2.389471e+003;4.341751e-002
2.391399e+003;4.351119e-002
2.393328e+003;4.357950e-002
2.395257e+003;4.376834e-002
2.397185e+003;4.391565e-002
2.399114e+003;4.407632e-002
2.401042e+003;4.406844e-002
2.402971e+003;4.430464e-002
2.404899e+003;4.451310e-002
2.406828e+003;4.449302e-002
2.408756e+003;4.444464e-002
2.410685e+003;4.444769e-002
2.412614e+003;4.453385e-002
2.414542e+003;4.497314e-002
2.416471e+003;4.530111e-002
2.418399e+003;4.533973e-002
2.420328e+003;4.549209e-002
2.422256e+003;4.564305e-002
2.424185e+003;4.551060e-002
2.426113e+003;4.559520e-002
2.428042e+003;4.601631e-002
2.429970e+003;4.623079e-002
2.431899e+003;4.641581e-002
2.433828e+003;4.654009e-002
2.435756e+003;4.647053e-002
2.437685e+003;4.645578e-002
2.439613e+003;4.640261e-002
2.441542e+003;4.647411e-002
2.443470e+003;4.702266e-002
2.445399e+003;4.732879e-002
2.447327e+003;4.713289e-002
2.449256e+003;4.720765e-002
2.451185e+003;4.768050e-002
2.453113e+003;4.799479e-002
2.455042e+003;4.785585e-002
2.456970e+003;4.776951e-002
2.458899e+003;4.787864e-002
2.460827e+003;4.788245e-002
2.462756e+003;4.785848e-002
2.464684e+003;4.795019e-002
2.466613e+003;4.813746e-002
2.468542e+003;4.837467e-002
2.470470e+003;4.845364e-002
2.472398e+003;4.840070e-002
2.474327e+003;4.863079e-002
2.476256e+003;4.871952e-002
2.478184e+003;4.883596e-002
2.480113e+003;4.896401e-002
2.482041e+003;4.930454e-002
2.483970e+003;4.962740e-002
2.485898e+003;4.967194e-002
2.487827e+003;4.974550e-002
2.489755e+003;4.966562e-002
2.491684e+003;4.965578e-002
2.493613e+003;4.951683e-002
2.495541e+003;4.940113e-002
2.497470e+003;4.976378e-002
2.499398e+003;5.014309e-002
2.501327e+003;5.030653e-002
2.503255e+003;5.048477e-002
2.505184e+003;5.052058e-002
2.507112e+003;5.050629e-002
2.509041e+003;5.066979e-002
2.510969e+003;5.097611e-002
2.512898e+003;5.138214e-002
2.514827e+003;5.137786e-002
2.516755e+003;5.102586e-002
2.518684e+003;5.097693e-002
2.520612e+003;5.113908e-002
2.522541e+003;5.141429e-002
2.524469e+003;5.168737e-002
2.526398e+003;5.191202e-002
2.528326e+003;5.210127e-002
2.530255e+003;5.187461e-002
2.532184e+003;5.161635e-002
2.534112e+003;5.190758e-002
2.536041e+003;5.220185e-002
2.537969e+003;5.238155e-002
2.539898e+003;5.221594e-002
2.541826e+003;5.189048e-002
2.543755e+003;5.203504e-002
2.545683e+003;5.223851e-002
2.547612e+003;5.211943e-002
2.549541e+003;5.224995e-002
2.551469e+003;5.257036e-002
2.553397e+003;5.247015e-002
2.555326e+003;5.242734e-002
2.557255e+003;5.260772e-002
2.559183e+003;5.265343e-002
2.561112e+003;5.278665e-002
2.563040e+003;5.300428e-002
2.564969e+003;5.296512e-002
2.566897e+003;5.285707e-002
2.568826e+003;5.276394e-002
2.570754e+003;5.279668e-002
2.572683e+003;5.301705e-002
2.574612e+003;5.320284e-002
2.576540e+003;5.338707e-002
2.578469e+003;5.339101e-002
2.580397e+003;5.324239e-002
2.582326e+003;5.318389e-002
2.584254e+003;5.324329e-002
2.586183e+003;5.361306e-002
2.588111e+003;5.356126e-002
2.590040e+003;5.338171e-002
2.591969e+003;5.377669e-002
2.593897e+003;5.414508e-002
2.595826e+003;5.428540e-002
2.597754e+003;5.447276e-002
2.599683e+003;5.434292e-002
2.601611e+003;5.436350e-002
2.603540e+003;5.487188e-002
2.605468e+003;5.510628e-002
2.607397e+003;5.492711e-002
2.609325e+003;5.501410e-002
2.611254e+003;5.522859e-002
2.613183e+003;5.535685e-002
2.615111e+003;5.539946e-002
2.617040e+003;5.540085e-002
2.618968e+003;5.555189e-002
2.620897e+003;5.594101e-002
2.622825e+003;5.604840e-002
2.624754e+003;5.599868e-002
2.626682e+003;5.603140e-002
2.628611e+003;5.618983e-002
2.630540e+003;5.648407e-002
2.632468e+003;5.686405e-002
2.634396e+003;5.687448e-002
2.636325e+003;5.673109e-002
2.638254e+003;5.664554e-002
2.640182e+003;5.665022e-002
2.642111e+003;5.677474e-002
2.644039e+003;5.715807e-002
2.645968e+003;5.747234e-002
2.647896e+003;5.717372e-002
2.649825e+003;5.716918e-002
2.651753e+003;5.745978e-002
2.653682e+003;5.756180e-002
2.655611e+003;5.775795e-002
2.657539e+003;5.808299e-002
2.659468e+003;5.819788e-002
2.661396e+003;5.812833e-002
2.663325e+003;5.808216e-002
2.665253e+003;5.829765e-002
2.667182e+003;5.871210e-002
2.669110e+003;5.880701e-002
2.671039e+003;5.866803e-002
2.672968e+003;5.869978e-002
2.674896e+003;5.896821e-002
2.676825e+003;5.931504e-002
2.678753e+003;5.934015e-002
2.680682e+003;5.939234e-002
2.682610e+003;5.944842e-002
2.684539e+003;5.958804e-002
2.686467e+003;5.951343e-002
2.688396e+003;5.939683e-002
2.690324e+003;5.959955e-002
2.692253e+003;5.987512e-002
2.694182e+003;6.036182e-002
2.696110e+003;6.087213e-002
2.698039e+003;6.074026e-002
2.699967e+003;6.045458e-002
2.701896e+003;6.074480e-002
2.703824e+003;6.096649e-002
2.705753e+003;6.106594e-002
2.707681e+003;6.129470e-002
2.709610e+003;6.133484e-002
2.711539e+003;6.160793e-002
2.713467e+003;6.188642e-002
2.715396e+003;6.179786e-002
2.717324e+003;6.179740e-002
2.719253e+003;6.203878e-002
2.721181e+003;6.214964e-002
2.723110e+003;6.219694e-002
2.725038e+003;6.252550e-002
2.726967e+003;6.271576e-002
2.728896e+003;6.257866e-002
2.730824e+003;6.267170e-002
2.732752e+003;6.281875e-002
2.734681e+003;6.283724e-002
2.736610e+003;6.276745e-002
2.738538e+003;6.262424e-002
2.740467e+003;6.298137e-002
2.742395e+003;6.341872e-002
2.744324e+003;6.319708e-002
2.746252e+003;6.273138e-002
2.748181e+003;6.292146e-002
2.750109e+003;6.313373e-002
2.752038e+003;6.330854e-002
2.753967e+003;6.374764e-002
2.755895e+003;6.373785e-002
2.757824e+003;6.376253e-002
2.759752e+003;6.402889e-002
2.761681e+003;6.411272e-002
2.763609e+003;6.399576e-002
2.765538e+003;6.401000e-002
2.767466e+003;6.452224e-002
2.769395e+003;6.488877e-002
2.771323e+003;6.467026e-002
2.773252e+003;6.465230e-002
2.775181e+003;6.483291e-002
2.777109e+003;6.516745e-002
2.779038e+003;6.540620e-002
2.780966e+003;6.532617e-002
2.782895e+003;6.533252e-002
2.784823e+003;6.537377e-002
2.786752e+003;6.571015e-002
2.788680e+003;6.635829e-002
2.790609e+003;6.682222e-002
2.792538e+003;6.707653e-002
2.794466e+003;6.738757e-002
2.796395e+003;6.763344e-002
2.798323e+003;6.785957e-002
2.800252e+003;6.807090e-002
2.802180e+003;6.781665e-002
2.804109e+003;6.793961e-002
2.806037e+003;6.837842e-002
2.807966e+003;6.856517e-002
2.809895e+003;6.900555e-002
2.811823e+003;6.958395e-002
2.813751e+003;7.022081e-002
2.815680e+003;7.081152e-002
2.817609e+003;7.110897e-002
2.819537e+003;7.142276e-002
2.821466e+003;7.173247e-002
2.823394e+003;7.208015e-002
2.825323e+003;7.276193e-002
2.827251e+003;7.363148e-002
2.829180e+003;7.465278e-002
2.831108e+003;7.563501e-002
2.833037e+003;7.629996e-002
2.834966e+003;7.710156e-002
2.836894e+003;7.802434e-002
2.838823e+003;7.903092e-002
2.840751e+003;8.021673e-002
2.842680e+003;8.158410e-002
2.844608e+003;8.332192e-002
2.846537e+003;8.494145e-002
2.848465e+003;8.670565e-002
2.850394e+003;8.871309e-002
2.852323e+003;9.011094e-002
2.854251e+003;9.128016e-002
2.856180e+003;9.246410e-002
2.858108e+003;9.337413e-002
2.860037e+003;9.428645e-002
2.861965e+003;9.542063e-002
2.863894e+003;9.668021e-002
2.865822e+003;9.801088e-002
2.867751e+003;9.907112e-002
2.869679e+003;9.989469e-002
2.871608e+003;1.000662e-001
2.873536e+003;1.005368e-001
2.875465e+003;1.013124e-001
2.877394e+003;1.015881e-001
2.879322e+003;1.016555e-001
2.881251e+003;1.021777e-001
2.883179e+003;1.030523e-001
2.885108e+003;1.037958e-001
2.887036e+003;1.045022e-001
2.888965e+003;1.051881e-001
2.890893e+003;1.055171e-001
2.892822e+003;1.061986e-001
2.894750e+003;1.067051e-001
2.896679e+003;1.066145e-001
2.898608e+003;1.064980e-001
2.900536e+003;1.063058e-001
2.902465e+003;1.057519e-001
2.904393e+003;1.050676e-001
2.906322e+003;1.042627e-001
2.908250e+003;1.037378e-001
2.910179e+003;1.030585e-001
2.912107e+003;1.018738e-001
2.914036e+003;1.010731e-001
2.915965e+003;1.005604e-001
2.917893e+003;9.932602e-002
2.919822e+003;9.808143e-002
2.921750e+003;9.729897e-002
2.923679e+003;9.613665e-002
2.925607e+003;9.476303e-002
2.927536e+003;9.378263e-002
2.929464e+003;9.268012e-002
2.931393e+003;9.139408e-002
2.933322e+003;8.981106e-002
2.935250e+003;8.844411e-002
2.937178e+003;8.721476e-002
2.939107e+003;8.596493e-002
2.941036e+003;8.481833e-002
2.942964e+003;8.407620e-002
2.944893e+003;8.331686e-002
2.946821e+003;8.227552e-002
2.948750e+003;8.114768e-002
2.950678e+003;7.960477e-002
2.952607e+003;7.806773e-002
2.954535e+003;7.694299e-002
2.956464e+003;7.583524e-002
2.958393e+003;7.502707e-002
2.960321e+003;7.371589e-002
2.962250e+003;7.203043e-002
2.964178e+003;7.089413e-002
2.966107e+003;7.015027e-002
2.968035e+003;6.967652e-002
2.969964e+003;6.920169e-002
2.971892e+003;6.835779e-002
2.973821e+003;6.684954e-002
2.975750e+003;6.622791e-002
2.977678e+003;6.570171e-002
2.979607e+003;6.459574e-002
2.981535e+003;6.359157e-002
2.983464e+003;6.302626e-002
2.985392e+003;6.322041e-002
2.987321e+003;6.294949e-002
2.989249e+003;6.223269e-002
2.991178e+003;6.230168e-002
2.993106e+003;6.232011e-002
2.995035e+003;6.185673e-002
2.996964e+003;6.154657e-002
2.998892e+003;6.167655e-002
3.000821e+003;6.182980e-002
3.002749e+003;6.166517e-002
3.004678e+003;6.125106e-002
3.006606e+003;6.091895e-002
3.008535e+003;6.108695e-002
3.010463e+003;6.119917e-002
3.012392e+003;6.126090e-002
3.014321e+003;6.128581e-002
3.016249e+003;6.146133e-002
3.018177e+003;6.183854e-002
3.020106e+003;6.178334e-002
3.022035e+003;6.185325e-002
3.023963e+003;6.228707e-002
3.025892e+003;6.234780e-002
3.027820e+003;6.265176e-002
3.029749e+003;6.335017e-002
3.031677e+003;6.355149e-002
3.033606e+003;6.349841e-002
3.035534e+003;6.376790e-002
3.037463e+003;6.419480e-002
3.039392e+003;6.439409e-002
3.041320e+003;6.415144e-002
3.043249e+003;6.416096e-002
3.045177e+003;6.430694e-002
3.047106e+003;6.466834e-002
3.049034e+003;6.556778e-002
3.050963e+003;6.600988e-002
3.052891e+003;6.614780e-002
3.054820e+003;6.609787e-002
3.056749e+003;6.613541e-002
3.058677e+003;6.689332e-002
3.060606e+003;6.791338e-002
3.062534e+003;6.813760e-002
3.064463e+003;6.785070e-002
3.066391e+003;6.777323e-002
3.068320e+003;6.832773e-002
3.070248e+003;6.891906e-002
3.072177e+003;6.929939e-002
3.074105e+003;6.950030e-002
3.076034e+003;6.965385e-002
3.077963e+003;7.037448e-002
3.079891e+003;7.088445e-002
3.081820e+003;7.067109e-002
3.083748e+003;7.083569e-002
3.085677e+003;7.133668e-002
3.087605e+003;7.198510e-002
3.089534e+003;7.257223e-002
3.091462e+003;7.304178e-002
3.093391e+003;7.312471e-002
3.095320e+003;7.351907e-002
3.097248e+003;7.416003e-002
3.099177e+003;7.444464e-002
3.101105e+003;7.491878e-002
3.103034e+003;7.551269e-002
3.104962e+003;7.610161e-002
3.106891e+003;7.649635e-002
3.108819e+003;7.661618e-002
3.110748e+003;7.706452e-002
3.112677e+003;7.776306e-002
3.114605e+003;7.839885e-002
3.116533e+003;7.861850e-002
3.118462e+003;7.862553e-002
3.120391e+003;7.902452e-002
3.122319e+003;7.939484e-002
3.124248e+003;8.017488e-002
3.126176e+003;8.091364e-002
3.128105e+003;8.127587e-002
3.130033e+003;8.185089e-002
3.131962e+003;8.255589e-002
3.133890e+003;8.316937e-002
3.135819e+003;8.368821e-002
3.137748e+003;8.396482e-002
3.139676e+003;8.441842e-002
3.141605e+003;8.529954e-002
3.143533e+003;8.581977e-002
3.145462e+003;8.637898e-002
3.147390e+003;8.709505e-002
3.149319e+003;8.776859e-002
3.151247e+003;8.789705e-002
3.153176e+003;8.808037e-002
3.155104e+003;8.859105e-002
3.157033e+003;8.960396e-002
3.158962e+003;9.047925e-002
3.160890e+003;9.080004e-002
3.162819e+003;9.149764e-002
3.164747e+003;9.255090e-002
3.166676e+003;9.361309e-002
3.168604e+003;9.410917e-002
3.170533e+003;9.461270e-002
3.172461e+003;9.552056e-002
3.174390e+003;9.603996e-002
3.176319e+003;9.672554e-002
3.178247e+003;9.754006e-002
3.180176e+003;9.799925e-002
3.182104e+003;9.863304e-002
3.184033e+003;9.945074e-002
3.185961e+003;1.005151e-001
3.187890e+003;1.014669e-001
3.189818e+003;1.018386e-001
3.191747e+003;1.027960e-001
3.193676e+003;1.037819e-001
3.195604e+003;1.039558e-001
3.197532e+003;1.042486e-001
3.199461e+003;1.053688e-001
3.201390e+003;1.068278e-001
3.203318e+003;1.080496e-001
3.205247e+003;1.087775e-001
3.207175e+003;1.094696e-001
3.209104e+003;1.099578e-001
3.211032e+003;1.104104e-001
3.212961e+003;1.115320e-001
3.214889e+003;1.130928e-001
3.216818e+003;1.142406e-001
3.218747e+003;1.154074e-001
3.220675e+003;1.162243e-001
3.222604e+003;1.167631e-001
3.224532e+003;1.175090e-001
3.226461e+003;1.187476e-001
3.228389e+003;1.198335e-001
3.230318e+003;1.204159e-001
3.232246e+003;1.214889e-001
3.234175e+003;1.230249e-001
3.236104e+003;1.242359e-001
3.238032e+003;1.250796e-001
3.239961e+003;1.250134e-001
3.241889e+003;1.259273e-001
3.243818e+003;1.277332e-001
3.245746e+003;1.289256e-001
3.247675e+003;1.296094e-001
3.249603e+003;1.304676e-001
3.251532e+003;1.320518e-001
3.253460e+003;1.335612e-001
3.255389e+003;1.350179e-001
3.257318e+003;1.364710e-001
3.259246e+003;1.372201e-001
3.261175e+003;1.380305e-001
3.263103e+003;1.392758e-001
3.265032e+003;1.401609e-001
3.266960e+003;1.410397e-001
3.268889e+003;1.423998e-001
3.270817e+003;1.436786e-001
3.272746e+003;1.439698e-001
3.274675e+003;1.441428e-001
3.276603e+003;1.451571e-001
3.278531e+003;1.462726e-001
3.280460e+003;1.471808e-001
3.282389e+003;1.472961e-001
3.284317e+003;1.475866e-001
3.286246e+003;1.483923e-001
3.288174e+003;1.489794e-001
3.290103e+003;1.496241e-001
3.292031e+003;1.500008e-001
3.293960e+003;1.498397e-001
3.295888e+003;1.498354e-001
3.297817e+003;1.496737e-001
3.299746e+003;1.501386e-001
3.301674e+003;1.508347e-001
3.303603e+003;1.510184e-001
3.305531e+003;1.509382e-001
3.307460e+003;1.507346e-001
3.309388e+003;1.513266e-001
3.311317e+003;1.519852e-001
3.313245e+003;1.521574e-001
3.315174e+003;1.524155e-001
3.317103e+003;1.525517e-001
3.319031e+003;1.530088e-001
3.320960e+003;1.540406e-001
3.322888e+003;1.544657e-001
3.324817e+003;1.549146e-001
3.326745e+003;1.549309e-001
3.328674e+003;1.548753e-001
3.330602e+003;1.551838e-001
3.332531e+003;1.555966e-001
3.334459e+003;1.557703e-001
3.336388e+003;1.558668e-001
3.338317e+003;1.553528e-001
3.340245e+003;1.548133e-001
3.342174e+003;1.544358e-001
3.344102e+003;1.533063e-001
3.346031e+003;1.522198e-001
3.347959e+003;1.516331e-001
3.349888e+003;1.513081e-001
3.351816e+003;1.511091e-001
3.353745e+003;1.508259e-001
3.355674e+003;1.501947e-001
3.357602e+003;1.491060e-001
3.359531e+003;1.481745e-001
3.361459e+003;1.478756e-001
3.363388e+003;1.473698e-001
3.365316e+003;1.461711e-001
3.367245e+003;1.447783e-001
3.369173e+003;1.442739e-001
3.371102e+003;1.438332e-001
3.373031e+003;1.434942e-001
3.374959e+003;1.430435e-001
3.376887e+003;1.420275e-001
3.378816e+003;1.411296e-001
3.380745e+003;1.401026e-001
3.382673e+003;1.390391e-001
3.384602e+003;1.388487e-001
3.386530e+003;1.383133e-001
3.388459e+003;1.374834e-001
3.390387e+003;1.373991e-001
3.392316e+003;1.369065e-001
3.394244e+003;1.361191e-001
3.396173e+003;1.355337e-001
3.398102e+003;1.347503e-001
3.400030e+003;1.332318e-001
3.401959e+003;1.319505e-001
3.403887e+003;1.308573e-001
3.405816e+003;1.297942e-001
3.407744e+003;1.296621e-001
3.409673e+003;1.294138e-001
3.411601e+003;1.285428e-001
3.413530e+003;1.280622e-001
3.415458e+003;1.269569e-001
3.417387e+003;1.252346e-001
3.419316e+003;1.241326e-001
3.421244e+003;1.232389e-001
3.423173e+003;1.224640e-001
3.425101e+003;1.213899e-001
3.427030e+003;1.205747e-001
3.428958e+003;1.200528e-001
3.430887e+003;1.187958e-001
3.432815e+003;1.173385e-001
3.434744e+003;1.164419e-001
3.436673e+003;1.158175e-001
3.438601e+003;1.147543e-001
3.440530e+003;1.135597e-001
3.442458e+003;1.125835e-001
3.444387e+003;1.116856e-001
3.446315e+003;1.104611e-001
3.448244e+003;1.089485e-001
3.450172e+003;1.080816e-001
3.452101e+003;1.077217e-001
3.454030e+003;1.066322e-001
3.455958e+003;1.051501e-001
3.457886e+003;1.044554e-001
3.459815e+003;1.038655e-001
3.461744e+003;1.023278e-001
3.463672e+003;1.009849e-001
3.465601e+003;1.000075e-001
3.467529e+003;9.946207e-002
3.469458e+003;9.894589e-002
3.471386e+003;9.779289e-002
3.473315e+003;9.677232e-002
3.475243e+003;9.568157e-002
3.477172e+003;9.379181e-002
3.479101e+003;9.213876e-002
3.481029e+003;9.101278e-002
3.482958e+003;8.996862e-002
3.484886e+003;8.888610e-002
3.486815e+003;8.853844e-002
3.488743e+003;8.816694e-002
3.490672e+003;8.737000e-002
3.492600e+003;8.592644e-002
3.494529e+003;8.447999e-002
3.496458e+003;8.287505e-002
3.498386e+003;8.150438e-002
3.500315e+003;8.118207e-002
3.502243e+003;8.074825e-002
3.504172e+003;7.950135e-002
3.506100e+003;7.833860e-002
3.508029e+003;7.747899e-002
3.509957e+003;7.650441e-002
3.511886e+003;7.570399e-002
3.513814e+003;7.510907e-002
3.515743e+003;7.435758e-002
3.517672e+003;7.295550e-002
3.519600e+003;7.159050e-002
3.521529e+003;7.102779e-002
3.523457e+003;7.056786e-002
3.525386e+003;6.959671e-002
3.527314e+003;6.820820e-002
3.529243e+003;6.674640e-002
3.531171e+003;6.566964e-002
3.533100e+003;6.487292e-002
3.535029e+003;6.393176e-002
3.536957e+003;6.302484e-002
3.538885e+003;6.235033e-002
3.540814e+003;6.197167e-002
3.542743e+003;6.164654e-002
3.544671e+003;6.055155e-002
3.546600e+003;5.898764e-002
3.548528e+003;5.805750e-002
3.550457e+003;5.727730e-002
3.552385e+003;5.647860e-002
3.554314e+003;5.583214e-002
3.556242e+003;5.491377e-002
3.558171e+003;5.392680e-002
3.560100e+003;5.318842e-002
3.562028e+003;5.254725e-002
3.563957e+003;5.181428e-002
3.565885e+003;5.116984e-002
3.567814e+003;5.048306e-002
3.569742e+003;4.966770e-002
3.571671e+003;4.915227e-002
3.573599e+003;4.873983e-002
3.575528e+003;4.749154e-002
3.577457e+003;4.647820e-002
3.579385e+003;4.624841e-002
3.581314e+003;4.561548e-002
3.583242e+003;4.474007e-002
3.585171e+003;4.382625e-002
3.587099e+003;4.266684e-002
3.589028e+003;4.275512e-002
3.590956e+003;4.307520e-002
3.592885e+003;4.214647e-002
3.594813e+003;4.107077e-002
3.596742e+003;3.993971e-002
3.598671e+003;3.900573e-002
3.600599e+003;3.862334e-002
3.602528e+003;3.861469e-002
3.604456e+003;3.880804e-002
3.606385e+003;3.813130e-002
3.608313e+003;3.717380e-002
3.610242e+003;3.609669e-002
3.612170e+003;3.530033e-002
3.614099e+003;3.535298e-002
3.616028e+003;3.530747e-002
3.617956e+003;3.475808e-002
3.619885e+003;3.375841e-002
3.621813e+003;3.294198e-002
3.623742e+003;3.275068e-002
3.625670e+003;3.278280e-002
3.627599e+003;3.247551e-002
3.629527e+003;3.215915e-002
3.631456e+003;3.148075e-002
3.633385e+003;3.058325e-002
3.635313e+003;3.010481e-002
3.637241e+003;2.969133e-002
3.639170e+003;2.962108e-002
3.641099e+003;2.914342e-002
3.643027e+003;2.815707e-002
3.644956e+003;2.766555e-002
3.646884e+003;2.708676e-002
3.648813e+003;2.628727e-002
3.650741e+003;2.616781e-002
3.652670e+003;2.663559e-002
3.654598e+003;2.638102e-002
3.656527e+003;2.548204e-002
3.658456e+003;2.499617e-002
3.660384e+003;2.474277e-002
3.662313e+003;2.399484e-002
3.664241e+003;2.321325e-002
3.666170e+003;2.266186e-002
3.668098e+003;2.194832e-002
3.670027e+003;2.160248e-002
3.671955e+003;2.170575e-002
3.673884e+003;2.156202e-002
3.675813e+003;2.098682e-002
3.677741e+003;2.070808e-002
3.679669e+003;2.055656e-002
3.681598e+003;2.017444e-002
3.683527e+003;2.011110e-002
3.685455e+003;1.996783e-002
3.687384e+003;1.926476e-002
3.689312e+003;1.869767e-002
3.691241e+003;1.860335e-002
3.693169e+003;1.832618e-002
3.695098e+003;1.845480e-002
3.697026e+003;1.846465e-002
3.698955e+003;1.784234e-002
3.700884e+003;1.739952e-002
3.702812e+003;1.788294e-002
3.704741e+003;1.775089e-002
3.706669e+003;1.700891e-002
3.708598e+003;1.667669e-002
3.710526e+003;1.686400e-002
3.712455e+003;1.663747e-002
3.714383e+003;1.627001e-002
3.716312e+003;1.593918e-002
3.718240e+003;1.583762e-002
3.720169e+003;1.601818e-002
3.722098e+003;1.582848e-002
3.724026e+003;1.552416e-002
3.725955e+003;1.563887e-002
3.727883e+003;1.607391e-002
3.729812e+003;1.570242e-002
3.731740e+003;1.478363e-002
3.733669e+003;1.456720e-002
3.735597e+003;1.505056e-002
3.737526e+003;1.560109e-002
3.739455e+003;1.587629e-002
3.741383e+003;1.537419e-002
3.743312e+003;1.500841e-002
3.745240e+003;1.513290e-002
3.747169e+003;1.551743e-002
3.749097e+003;1.567823e-002
3.751026e+003;1.533094e-002
3.752954e+003;1.525045e-002
3.754883e+003;1.547121e-002
3.756812e+003;1.507207e-002
3.758740e+003;1.478956e-002
3.760668e+003;1.517568e-002
3.762597e+003;1.583645e-002
3.764526e+003;1.614506e-002
3.766454e+003;1.572303e-002
3.768383e+003;1.499112e-002
3.770311e+003;1.472532e-002
3.772240e+003;1.497846e-002
3.774168e+003;1.550301e-002
3.776097e+003;1.559717e-002
3.778025e+003;1.485097e-002
3.779954e+003;1.395037e-002
3.781883e+003;1.416054e-002
3.783811e+003;1.452341e-002
3.785740e+003;1.465784e-002
3.787668e+003;1.488073e-002
3.789597e+003;1.499602e-002
3.791525e+003;1.497407e-002
3.793454e+003;1.465510e-002
3.795382e+003;1.487569e-002
3.797311e+003;1.519747e-002
3.799240e+003;1.510936e-002
3.801168e+003;1.471103e-002
3.803097e+003;1.462453e-002
3.805025e+003;1.505101e-002
3.806954e+003;1.533334e-002
3.808882e+003;1.546290e-002
3.810811e+003;1.568401e-002
3.812739e+003;1.614468e-002
3.814668e+003;1.616452e-002
3.816596e+003;1.546455e-002
3.818525e+003;1.535033e-002
3.820454e+003;1.538511e-002
3.822382e+003;1.548055e-002
3.824311e+003;1.579584e-002
3.826239e+003;1.601171e-002
3.828168e+003;1.618808e-002
3.830096e+003;1.583845e-002
3.832025e+003;1.521353e-002
3.833953e+003;1.565467e-002
3.835882e+003;1.610541e-002
3.837811e+003;1.584010e-002
3.839739e+003;1.545782e-002
3.841667e+003;1.595692e-002
3.843596e+003;1.616081e-002
3.845525e+003;1.580439e-002
3.847453e+003;1.591172e-002
3.849382e+003;1.620259e-002
3.851310e+003;1.538771e-002
3.853239e+003;1.483694e-002
3.855167e+003;1.491426e-002
3.857096e+003;1.522159e-002
3.859024e+003;1.543334e-002
3.860953e+003;1.594510e-002
3.862882e+003;1.627761e-002
3.864810e+003;1.622161e-002
3.866739e+003;1.649586e-002
3.868667e+003;1.661919e-002
3.870596e+003;1.659413e-002
3.872524e+003;1.675771e-002
3.874453e+003;1.705108e-002
3.876381e+003;1.671037e-002
3.878310e+003;1.687341e-002
3.880239e+003;1.701821e-002
3.882167e+003;1.689700e-002
3.884096e+003;1.721170e-002
3.886024e+003;1.766309e-002
3.887953e+003;1.748878e-002
3.889881e+003;1.699895e-002
3.891810e+003;1.685553e-002
3.893738e+003;1.741342e-002
3.895667e+003;1.806662e-002
3.897595e+003;1.867906e-002
3.899524e+003;1.856939e-002
3.901453e+003;1.844049e-002
3.903381e+003;1.889482e-002
3.905310e+003;1.870642e-002
3.907238e+003;1.804659e-002
3.909167e+003;1.811723e-002
3.911095e+003;1.853889e-002
3.913024e+003;1.898284e-002
3.914952e+003;1.883672e-002
3.916881e+003;1.799413e-002
3.918810e+003;1.781385e-002
3.920738e+003;1.798332e-002
3.922667e+003;1.812708e-002
3.924595e+003;1.821615e-002
3.926524e+003;1.881682e-002
3.928452e+003;1.929967e-002
3.930381e+003;1.927387e-002
3.932309e+003;1.898007e-002
3.934238e+003;1.917644e-002
3.936167e+003;1.968850e-002
3.938095e+003;1.969578e-002
3.940023e+003;1.971194e-002
3.941952e+003;1.928325e-002
3.943881e+003;1.917298e-002
3.945809e+003;1.885450e-002
3.947738e+003;1.869878e-002
3.949666e+003;1.887579e-002
3.951595e+003;1.879651e-002
3.953523e+003;1.921280e-002
3.955452e+003;1.936283e-002
3.957380e+003;1.917346e-002
3.959309e+003;1.951862e-002
3.961238e+003;2.005922e-002
3.963166e+003;1.984209e-002
3.965095e+003;1.985447e-002
3.967023e+003;1.968781e-002
3.968952e+003;1.966805e-002
3.970880e+003;2.028994e-002
3.972809e+003;2.097531e-002
3.974737e+003;2.059428e-002
3.976666e+003;2.028956e-002
3.978594e+003;2.042991e-002
3.980523e+003;2.119750e-002
3.982452e+003;2.080895e-002
3.984380e+003;2.014557e-002
3.986309e+003;2.017982e-002
3.988237e+003;1.949810e-002
3.990166e+003;1.938593e-002
3.992094e+003;2.009004e-002
3.994023e+003;2.028532e-002
3.995951e+003;2.005919e-002
3.997880e+003;1.964905e-002
3.999809e+003;1.990962e-002
4.001737e+003;0.000000e+000
