3.992094e+002;0.000000e+000
4.011380e+002;0.000000e+000
4.030665e+002;0.000000e+000
4.049951e+002;0.000000e+000
4.069236e+002;0.000000e+000
4.088522e+002;0.000000e+000
4.107807e+002;0.000000e+000
4.127093e+002;0.000000e+000
4.146378e+002;0.000000e+000
4.165664e+002;0.000000e+000
4.184949e+002;0.000000e+000
4.204235e+002;0.000000e+000
4.223520e+002;0.000000e+000
4.242806e+002;0.000000e+000
4.262091e+002;0.000000e+000
4.281377e+002;0.000000e+000
4.300662e+002;0.000000e+000
4.319948e+002;0.000000e+000
4.339233e+002;0.000000e+000
4.358519e+002;0.000000e+000
4.377804e+002;0.000000e+000
4.397090e+002;0.000000e+000
4.416375e+002;0.000000e+000
4.435660e+002;0.000000e+000
4.454946e+002;0.000000e+000
4.474232e+002;0.000000e+000
4.493517e+002;0.000000e+000
4.512802e+002;0.000000e+000
4.532088e+002;0.000000e+000
4.551373e+002;0.000000e+000
4.570659e+002;0.000000e+000
4.589944e+002;0.000000e+000
4.609230e+002;0.000000e+000
4.628515e+002;0.000000e+000
4.647801e+002;0.000000e+000
4.667086e+002;0.000000e+000
4.686372e+002;0.000000e+000
4.705657e+002;0.000000e+000
4.724943e+002;0.000000e+000
4.744228e+002;0.000000e+000
4.763513e+002;0.000000e+000
4.782799e+002;0.000000e+000
4.802085e+002;0.000000e+000
4.821370e+002;0.000000e+000
4.840656e+002;0.000000e+000
4.859941e+002;0.000000e+000
4.879226e+002;0.000000e+000
4.898512e+002;0.000000e+000
4.917798e+002;0.000000e+000
4.937083e+002;0.000000e+000
4.956368e+002;0.000000e+000
4.975654e+002;0.000000e+000
4.994939e+002;0.000000e+000
5.014225e+002;0.000000e+000
5.033510e+002;0.000000e+000
5.052796e+002;0.000000e+000
5.072081e+002;0.000000e+000
5.091367e+002;0.000000e+000
5.110652e+002;0.000000e+000
5.129938e+002;0.000000e+000
5.149223e+002;0.000000e+000
5.168509e+002;0.000000e+000
5.187794e+002;0.000000e+000
5.207079e+002;0.000000e+000
5.226365e+002;0.000000e+000
5.245651e+002;0.000000e+000
5.264936e+002;0.000000e+000
5.284222e+002;0.000000e+000
5.303507e+002;0.000000e+000
5.322792e+002;0.000000e+000
5.342078e+002;0.000000e+000
5.361364e+002;0.000000e+000
5.380649e+002;0.000000e+000
5.399935e+002;0.000000e+000
5.419220e+002;0.000000e+000
5.438505e+002;0.000000e+000
5.457791e+002;0.000000e+000
5.477076e+002;0.000000e+000
5.496362e+002;0.000000e+000
5.515648e+002;0.000000e+000
5.534933e+002;0.000000e+000
5.554218e+002;0.000000e+000
5.573504e+002;0.000000e+000
5.592789e+002;0.000000e+000
5.612075e+002;0.000000e+000
5.631360e+002;0.000000e+000
5.650646e+002;0.000000e+000
5.669931e+002;0.000000e+000
5.689217e+002;0.000000e+000
5.708502e+002;0.000000e+000
5.727787e+002;0.000000e+000
5.747073e+002;0.000000e+000
5.766359e+002;0.000000e+000
5.785644e+002;0.000000e+000
5.804930e+002;0.000000e+000
5.824215e+002;0.000000e+000
5.843500e+002;0.000000e+000
5.862786e+002;0.000000e+000
5.882072e+002;0.000000e+000
5.901357e+002;0.000000e+000
5.920643e+002;0.000000e+000
5.939928e+002;0.000000e+000
5.959213e+002;0.000000e+000
5.978499e+002;0.000000e+000
5.997784e+002;3.190501e-001
6.017070e+002;3.141104e-001
6.036355e+002;3.204681e-001
6.055641e+002;3.199377e-001
6.074926e+002;3.189727e-001
6.094211e+002;3.220878e-001
6.113497e+002;3.165640e-001
6.132783e+002;3.104445e-001
6.152068e+002;3.111092e-001
6.171354e+002;3.086737e-001
6.190639e+002;3.047459e-001
6.209924e+002;3.019225e-001
6.229210e+002;2.980537e-001
6.248495e+002;2.906747e-001
6.267781e+002;2.789472e-001
6.287067e+002;2.755944e-001
6.306352e+002;2.775396e-001
6.325637e+002;2.774468e-001
6.344923e+002;2.712932e-001
6.364208e+002;2.678075e-001
6.383494e+002;2.671824e-001
6.402780e+002;2.654987e-001
6.422065e+002;2.594383e-001
6.441350e+002;2.572898e-001
6.460636e+002;2.555684e-001
6.479921e+002;2.541307e-001
6.499207e+002;2.576175e-001
6.518492e+002;2.606462e-001
6.537778e+002;2.635186e-001
6.557063e+002;2.708030e-001
6.576349e+002;2.789691e-001
6.595634e+002;2.838413e-001
6.614919e+002;2.845456e-001
6.634205e+002;2.844175e-001
6.653491e+002;2.846219e-001
6.672776e+002;2.830066e-001
6.692062e+002;2.776229e-001
6.711347e+002;2.721517e-001
6.730632e+002;2.655944e-001
6.749918e+002;2.564090e-001
6.769203e+002;2.489376e-001
6.788489e+002;2.424974e-001
6.807775e+002;2.380180e-001
6.827060e+002;2.351292e-001
6.846345e+002;2.324194e-001
6.865631e+002;2.311402e-001
6.884916e+002;2.307154e-001
6.904202e+002;2.299061e-001
6.923488e+002;2.287189e-001
6.942773e+002;2.288697e-001
6.962058e+002;2.299294e-001
6.981344e+002;2.296885e-001
7.000629e+002;2.290697e-001
7.019915e+002;2.283212e-001
7.039200e+002;2.282106e-001
7.058486e+002;2.270949e-001
7.077771e+002;2.236139e-001
7.097057e+002;2.200666e-001
7.116342e+002;2.177704e-001
7.135627e+002;2.146944e-001
7.154913e+002;2.097000e-001
7.174199e+002;2.037060e-001
7.193484e+002;1.993261e-001
7.212770e+002;1.952146e-001
7.232055e+002;1.905891e-001
7.251340e+002;1.858763e-001
7.270626e+002;1.803121e-001
7.289911e+002;1.756153e-001
7.309197e+002;1.719389e-001
7.328483e+002;1.690677e-001
7.347768e+002;1.660705e-001
7.367053e+002;1.626310e-001
7.386339e+002;1.602811e-001
7.405624e+002;1.590519e-001
7.424910e+002;1.577208e-001
7.444196e+002;1.557975e-001
7.463481e+002;1.540406e-001
7.482766e+002;1.526362e-001
7.502052e+002;1.518305e-001
7.521337e+002;1.502526e-001
7.540623e+002;1.477585e-001
7.559908e+002;1.460890e-001
7.579194e+002;1.454939e-001
7.598479e+002;1.450761e-001
7.617765e+002;1.436063e-001
7.637050e+002;1.431658e-001
7.656335e+002;1.428746e-001
7.675621e+002;1.412386e-001
7.694907e+002;1.402110e-001
7.714192e+002;1.397173e-001
7.733478e+002;1.391720e-001
7.752763e+002;1.391187e-001
7.772048e+002;1.391781e-001
7.791334e+002;1.392859e-001
7.810620e+002;1.404884e-001
7.829905e+002;1.419058e-001
7.849191e+002;1.439964e-001
7.868476e+002;1.469465e-001
7.887761e+002;1.501637e-001
7.907047e+002;1.534390e-001
7.926332e+002;1.574806e-001
7.945618e+002;1.605099e-001
7.964903e+002;1.623103e-001
7.984189e+002;1.642809e-001
8.003474e+002;1.654346e-001
8.022759e+002;1.656413e-001
8.042045e+002;1.652197e-001
8.061331e+002;1.646894e-001
8.080616e+002;1.643398e-001
8.099902e+002;1.631857e-001
8.119187e+002;1.610753e-001
8.138472e+002;1.588516e-001
8.157758e+002;1.573557e-001
8.177043e+002;1.564393e-001
8.196329e+002;1.550032e-001
8.215615e+002;1.529088e-001
8.234900e+002;1.499961e-001
8.254185e+002;1.460964e-001
8.273471e+002;1.424303e-001
8.292756e+002;1.386048e-001
8.312042e+002;1.353066e-001
8.331328e+002;1.335839e-001
8.350613e+002;1.316858e-001
8.369898e+002;1.296824e-001
8.389184e+002;1.287561e-001
8.408469e+002;1.283533e-001
8.427755e+002;1.284019e-001
8.447040e+002;1.283893e-001
8.466326e+002;1.289638e-001
8.485611e+002;1.294497e-001
8.504897e+002;1.294895e-001
8.524182e+002;1.296244e-001
8.543467e+002;1.299786e-001
8.562753e+002;1.312373e-001
8.582039e+002;1.327179e-001
8.601324e+002;1.336892e-001
8.620610e+002;1.348053e-001
8.639895e+002;1.361697e-001
8.659180e+002;1.374280e-001
8.678466e+002;1.389579e-001
8.697751e+002;1.404646e-001
8.717037e+002;1.421717e-001
8.736323e+002;1.445991e-001
8.755608e+002;1.470114e-001
8.774893e+002;1.492665e-001
8.794179e+002;1.518482e-001
8.813464e+002;1.544783e-001
8.832750e+002;1.571729e-001
8.852036e+002;1.603382e-001
8.871321e+002;1.642097e-001
8.890606e+002;1.680714e-001
8.909892e+002;1.712477e-001
8.929177e+002;1.739662e-001
8.948463e+002;1.762336e-001
8.967748e+002;1.770163e-001
8.987034e+002;1.769875e-001
9.006319e+002;1.767901e-001
9.025605e+002;1.752787e-001
9.044890e+002;1.728772e-001
9.064175e+002;1.709858e-001
9.083461e+002;1.692031e-001
9.102747e+002;1.668310e-001
9.122032e+002;1.645933e-001
9.141318e+002;1.630231e-001
9.160603e+002;1.618066e-001
9.179888e+002;1.610787e-001
9.199174e+002;1.611423e-001
9.218459e+002;1.621771e-001
9.237745e+002;1.635487e-001
9.257031e+002;1.646839e-001
9.276316e+002;1.659233e-001
9.295601e+002;1.681359e-001
9.314887e+002;1.704516e-001
9.334172e+002;1.721718e-001
9.353458e+002;1.737177e-001
9.372744e+002;1.757741e-001
9.392029e+002;1.780168e-001
9.411314e+002;1.801204e-001
9.430600e+002;1.830525e-001
9.449885e+002;1.867364e-001
9.469171e+002;1.904234e-001
9.488456e+002;1.944761e-001
9.507742e+002;1.993128e-001
9.527027e+002;2.049396e-001
9.546313e+002;2.109205e-001
9.565598e+002;2.171660e-001
9.584883e+002;2.234575e-001
9.604169e+002;2.304521e-001
9.623455e+002;2.381805e-001
9.642740e+002;2.460975e-001
9.662026e+002;2.548462e-001
9.681311e+002;2.643261e-001
9.700596e+002;2.746792e-001
9.719882e+002;2.871056e-001
9.739167e+002;3.019445e-001
9.758453e+002;3.198859e-001
9.777739e+002;3.402085e-001
9.797024e+002;3.623119e-001
9.816309e+002;3.835307e-001
9.835595e+002;3.980044e-001
9.854880e+002;4.043184e-001
9.874166e+002;4.066204e-001
9.893452e+002;4.097346e-001
9.912737e+002;4.164518e-001
9.932022e+002;4.264795e-001
9.951307e+002;4.384668e-001
9.970593e+002;4.510018e-001
9.989879e+002;4.619563e-001
1.000916e+003;4.695199e-001
1.002845e+003;4.739259e-001
1.004773e+003;4.769184e-001
1.006702e+003;4.798907e-001
1.008631e+003;4.838944e-001
1.010559e+003;4.895711e-001
1.012488e+003;4.973261e-001
1.014416e+003;5.066625e-001
1.016345e+003;5.151209e-001
1.018273e+003;5.227868e-001
1.020202e+003;5.300127e-001
1.022130e+003;5.371728e-001
1.024059e+003;5.452741e-001
1.025988e+003;5.530115e-001
1.027916e+003;5.603219e-001
1.029845e+003;5.660487e-001
1.031773e+003;5.660255e-001
1.033702e+003;5.601383e-001
1.035630e+003;5.490627e-001
1.037559e+003;5.353802e-001
1.039487e+003;5.219340e-001
1.041416e+003;5.116134e-001
1.043344e+003;5.081351e-001
1.045273e+003;5.100554e-001
1.047202e+003;5.157875e-001
1.049130e+003;5.248340e-001
1.051059e+003;5.343115e-001
1.052987e+003;5.400020e-001
1.054916e+003;5.409158e-001
1.056844e+003;5.363170e-001
1.058773e+003;5.242536e-001
1.060701e+003;5.027574e-001
1.062630e+003;4.752826e-001
1.064558e+003;4.477465e-001
1.066487e+003;4.233808e-001
1.068416e+003;4.039804e-001
1.070344e+003;3.893930e-001
1.072273e+003;3.782662e-001
1.074201e+003;3.703416e-001
1.076130e+003;3.635639e-001
1.078058e+003;3.554771e-001
1.079987e+003;3.475983e-001
1.081915e+003;3.417716e-001
1.083844e+003;3.388429e-001
1.085773e+003;3.380907e-001
1.087701e+003;3.382873e-001
1.089630e+003;3.385746e-001
1.091558e+003;3.392285e-001
1.093487e+003;3.413525e-001
1.095415e+003;3.443554e-001
1.097344e+003;3.467163e-001
1.099272e+003;3.484983e-001
1.101201e+003;3.498812e-001
1.103129e+003;3.490607e-001
1.105058e+003;3.454829e-001
1.106987e+003;3.401464e-001
1.108915e+003;3.351026e-001
1.110844e+003;3.297921e-001
1.112772e+003;3.203873e-001
1.114701e+003;3.063111e-001
1.116629e+003;2.896860e-001
1.118558e+003;2.739434e-001
1.120486e+003;2.615321e-001
1.122415e+003;2.521145e-001
1.124344e+003;2.431972e-001
1.126272e+003;2.330774e-001
1.128201e+003;2.225446e-001
1.130129e+003;2.135366e-001
1.132058e+003;2.060570e-001
1.133986e+003;2.006553e-001
1.135915e+003;1.963362e-001
1.137843e+003;1.925427e-001
1.139772e+003;1.909978e-001
1.141700e+003;1.919036e-001
1.143629e+003;1.942002e-001
1.145557e+003;1.975408e-001
1.147486e+003;2.008751e-001
1.149415e+003;2.029556e-001
1.151343e+003;2.050513e-001
1.153272e+003;2.079726e-001
1.155200e+003;2.106284e-001
1.157129e+003;2.133963e-001
1.159057e+003;2.153688e-001
1.160986e+003;2.154557e-001
1.162914e+003;2.122164e-001
1.164843e+003;2.047700e-001
1.166771e+003;1.945360e-001
1.168700e+003;1.830243e-001
1.170629e+003;1.715675e-001
1.172557e+003;1.612432e-001
1.174486e+003;1.523460e-001
1.176414e+003;1.455182e-001
1.178343e+003;1.403426e-001
1.180271e+003;1.360244e-001
1.182200e+003;1.328189e-001
1.184128e+003;1.306513e-001
1.186057e+003;1.295251e-001
1.187986e+003;1.295227e-001
1.189914e+003;1.307867e-001
1.191843e+003;1.334463e-001
1.193771e+003;1.362444e-001
1.195700e+003;1.389443e-001
1.197628e+003;1.414254e-001
1.199557e+003;1.434507e-001
1.201485e+003;1.447057e-001
1.203414e+003;1.447300e-001
1.205343e+003;1.435726e-001
1.207271e+003;1.409005e-001
1.209200e+003;1.364684e-001
1.211128e+003;1.311123e-001
1.213057e+003;1.265827e-001
1.214985e+003;1.243078e-001
1.216914e+003;1.240571e-001
1.218842e+003;1.251385e-001
1.220771e+003;1.271050e-001
1.222699e+003;1.294491e-001
1.224628e+003;1.314976e-001
1.226557e+003;1.334962e-001
1.228485e+003;1.359496e-001
1.230414e+003;1.387096e-001
1.232342e+003;1.411703e-001
1.234271e+003;1.427086e-001
1.236199e+003;1.433402e-001
1.238128e+003;1.439904e-001
1.240056e+003;1.445549e-001
1.241985e+003;1.457173e-001
1.243913e+003;1.478767e-001
1.245842e+003;1.505468e-001
1.247771e+003;1.529481e-001
1.249699e+003;1.548067e-001
1.251628e+003;1.570698e-001
1.253556e+003;1.604105e-001
1.255485e+003;1.647730e-001
1.257413e+003;1.695205e-001
1.259342e+003;1.735692e-001
1.261270e+003;1.750793e-001
1.263199e+003;1.735781e-001
1.265127e+003;1.698925e-001
1.267056e+003;1.653966e-001
1.268985e+003;1.615030e-001
1.270913e+003;1.592822e-001
1.272842e+003;1.585470e-001
1.274770e+003;1.581552e-001
1.276699e+003;1.579570e-001
1.278627e+003;1.571865e-001
1.280556e+003;1.555598e-001
1.282484e+003;1.537225e-001
1.284413e+003;1.520081e-001
1.286342e+003;1.508378e-001
1.288270e+003;1.503044e-001
1.290199e+003;1.504482e-001
1.292127e+003;1.506624e-001
1.294056e+003;1.510016e-001
1.295984e+003;1.523859e-001
1.297913e+003;1.547195e-001
1.299841e+003;1.577944e-001
1.301770e+003;1.617673e-001
1.303698e+003;1.665591e-001
1.305627e+003;1.718446e-001
1.307556e+003;1.775172e-001
1.309484e+003;1.829930e-001
1.311413e+003;1.878899e-001
1.313341e+003;1.913813e-001
1.315270e+003;1.925380e-001
1.317198e+003;1.908328e-001
1.319127e+003;1.866656e-001
1.321055e+003;1.815445e-001
1.322984e+003;1.770550e-001
1.324912e+003;1.739629e-001
1.326841e+003;1.722787e-001
1.328770e+003;1.721997e-001
1.330698e+003;1.737998e-001
1.332627e+003;1.759796e-001
1.334555e+003;1.770829e-001
1.336484e+003;1.762629e-001
1.338412e+003;1.740641e-001
1.340341e+003;1.710222e-001
1.342269e+003;1.674329e-001
1.344198e+003;1.637715e-001
1.346126e+003;1.602711e-001
1.348055e+003;1.575475e-001
1.349984e+003;1.564473e-001
1.351912e+003;1.567844e-001
1.353841e+003;1.581183e-001
1.355769e+003;1.598767e-001
1.357698e+003;1.617678e-001
1.359626e+003;1.632632e-001
1.361555e+003;1.632852e-001
1.363483e+003;1.618329e-001
1.365412e+003;1.599802e-001
1.367341e+003;1.590347e-001
1.369269e+003;1.588277e-001
1.371198e+003;1.577614e-001
1.373126e+003;1.548980e-001
1.375055e+003;1.508822e-001
1.376983e+003;1.468382e-001
1.378912e+003;1.427841e-001
1.380840e+003;1.387579e-001
1.382769e+003;1.356319e-001
1.384698e+003;1.330491e-001
1.386626e+003;1.306436e-001
1.388555e+003;1.288649e-001
1.390483e+003;1.278047e-001
1.392412e+003;1.273147e-001
1.394340e+003;1.274702e-001
1.396269e+003;1.276789e-001
1.398197e+003;1.279205e-001
1.400126e+003;1.283546e-001
1.402054e+003;1.288425e-001
1.403983e+003;1.294648e-001
1.405911e+003;1.299100e-001
1.407840e+003;1.303679e-001
1.409769e+003;1.310379e-001
1.411697e+003;1.319147e-001
1.413626e+003;1.332518e-001
1.415554e+003;1.349827e-001
1.417483e+003;1.370276e-001
1.419411e+003;1.392547e-001
1.421340e+003;1.418253e-001
1.423268e+003;1.441053e-001
1.425197e+003;1.457935e-001
1.427125e+003;1.468895e-001
1.429054e+003;1.470413e-001
1.430983e+003;1.461733e-001
1.432911e+003;1.444172e-001
1.434840e+003;1.421157e-001
1.436768e+003;1.399587e-001
1.438697e+003;1.383815e-001
1.440625e+003;1.369960e-001
1.442554e+003;1.360301e-001
1.444482e+003;1.357165e-001
1.446411e+003;1.351446e-001
1.448340e+003;1.345355e-001
1.450268e+003;1.343824e-001
1.452197e+003;1.343771e-001
1.454125e+003;1.339020e-001
1.456054e+003;1.323267e-001
1.457982e+003;1.304294e-001
1.459911e+003;1.284565e-001
1.461839e+003;1.259423e-001
1.463768e+003;1.233612e-001
1.465697e+003;1.208651e-001
1.467625e+003;1.185896e-001
1.469554e+003;1.161271e-001
1.471482e+003;1.132401e-001
1.473411e+003;1.106125e-001
1.475339e+003;1.084938e-001
1.477268e+003;1.069962e-001
1.479196e+003;1.059319e-001
1.481125e+003;1.046534e-001
1.483053e+003;1.025953e-001
1.484982e+003;1.000279e-001
1.486911e+003;9.756486e-002
1.488839e+003;9.540911e-002
1.490768e+003;9.367475e-002
1.492696e+003;9.245939e-002
1.494625e+003;9.159365e-002
1.496553e+003;9.108412e-002
1.498482e+003;9.074760e-002
1.500410e+003;9.040955e-002
1.502339e+003;8.996907e-002
1.504267e+003;8.962290e-002
1.506196e+003;8.927380e-002
1.508125e+003;8.872333e-002
1.510053e+003;8.838221e-002
1.511982e+003;8.841312e-002
1.513910e+003;8.831298e-002
1.515839e+003;8.773923e-002
1.517767e+003;8.733309e-002
1.519696e+003;8.711550e-002
1.521624e+003;8.680058e-002
1.523553e+003;8.651333e-002
1.525481e+003;8.640116e-002
1.527410e+003;8.651374e-002
1.529339e+003;8.651111e-002
1.531267e+003;8.642267e-002
1.533196e+003;8.667009e-002
1.535124e+003;8.694331e-002
1.537053e+003;8.697246e-002
1.538981e+003;8.678450e-002
1.540910e+003;8.694307e-002
1.542838e+003;8.725012e-002
1.544767e+003;8.733657e-002
1.546695e+003;8.720565e-002
1.548624e+003;8.713344e-002
1.550553e+003;8.730882e-002
1.552481e+003;8.721152e-002
1.554410e+003;8.701796e-002
1.556338e+003;8.706731e-002
1.558267e+003;8.665141e-002
1.560195e+003;8.604628e-002
1.562124e+003;8.598533e-002
1.564052e+003;8.609415e-002
1.565981e+003;8.609532e-002
1.567910e+003;8.607233e-002
1.569838e+003;8.636826e-002
1.571767e+003;8.673701e-002
1.573695e+003;8.665650e-002
1.575624e+003;8.628406e-002
1.577552e+003;8.631175e-002
1.579481e+003;8.642644e-002
1.581409e+003;8.655713e-002
1.583338e+003;8.683849e-002
1.585266e+003;8.695696e-002
1.587195e+003;8.705153e-002
1.589124e+003;8.731559e-002
1.591052e+003;8.752172e-002
1.592981e+003;8.761058e-002
1.594909e+003;8.797620e-002
1.596838e+003;8.817688e-002
1.598766e+003;8.821302e-002
1.600695e+003;8.827651e-002
1.602623e+003;8.852487e-002
1.604552e+003;8.894937e-002
1.606480e+003;8.926948e-002
1.608409e+003;8.956385e-002
1.610338e+003;9.016170e-002
1.612266e+003;9.072094e-002
1.614195e+003;9.122910e-002
1.616123e+003;9.164042e-002
1.618052e+003;9.227757e-002
1.619980e+003;9.289493e-002
1.621909e+003;9.340281e-002
1.623837e+003;9.375060e-002
1.625766e+003;9.429472e-002
1.627694e+003;9.498324e-002
1.629623e+003;9.536648e-002
1.631552e+003;9.548762e-002
1.633480e+003;9.564345e-002
1.635409e+003;9.611408e-002
1.637337e+003;9.683153e-002
1.639266e+003;9.709767e-002
1.641194e+003;9.699497e-002
1.643123e+003;9.707990e-002
1.645051e+003;9.741129e-002
1.646980e+003;9.765518e-002
1.648909e+003;9.767368e-002
1.650837e+003;9.783664e-002
1.652766e+003;9.802262e-002
1.654694e+003;9.781635e-002
1.656623e+003;9.758133e-002
1.658551e+003;9.741639e-002
1.660480e+003;9.701718e-002
1.662408e+003;9.650539e-002
1.664337e+003;9.648412e-002
1.666266e+003;9.619714e-002
1.668194e+003;9.530424e-002
1.670123e+003;9.444910e-002
1.672051e+003;9.348712e-002
1.673980e+003;9.235400e-002
1.675908e+003;9.131037e-002
1.677837e+003;9.028508e-002
1.679765e+003;8.929528e-002
1.681694e+003;8.832601e-002
1.683622e+003;8.701197e-002
1.685551e+003;8.583459e-002
1.687479e+003;8.510792e-002
1.689408e+003;8.407515e-002
1.691337e+003;8.304243e-002
1.693265e+003;8.249359e-002
1.695194e+003;8.198246e-002
1.697122e+003;8.153236e-002
1.699051e+003;8.106133e-002
1.700979e+003;8.047287e-002
1.702908e+003;7.992429e-002
1.704836e+003;7.953095e-002
1.706765e+003;7.935932e-002
1.708693e+003;7.942885e-002
1.710622e+003;7.916640e-002
1.712551e+003;7.881066e-002
1.714479e+003;7.861116e-002
1.716408e+003;7.809442e-002
1.718336e+003;7.755203e-002
1.720265e+003;7.740121e-002
1.722193e+003;7.745942e-002
1.724122e+003;7.736138e-002
1.726050e+003;7.725480e-002
1.727979e+003;7.691217e-002
1.729908e+003;7.651456e-002
1.731836e+003;7.635000e-002
1.733765e+003;7.600098e-002
1.735693e+003;7.584088e-002
1.737622e+003;7.571132e-002
1.739550e+003;7.515331e-002
1.741479e+003;7.447784e-002
1.743407e+003;7.391252e-002
1.745336e+003;7.339228e-002
1.747265e+003;7.284997e-002
1.749193e+003;7.250453e-002
1.751122e+003;7.209259e-002
1.753050e+003;7.167967e-002
1.754979e+003;7.126296e-002
1.756907e+003;7.115604e-002
1.758836e+003;7.106541e-002
1.760764e+003;7.079303e-002
1.762693e+003;7.055040e-002
1.764621e+003;7.037152e-002
1.766550e+003;7.044279e-002
1.768479e+003;7.051317e-002
1.770407e+003;7.047794e-002
1.772336e+003;7.020418e-002
1.774264e+003;6.991065e-002
1.776193e+003;6.971212e-002
1.778121e+003;6.955808e-002
1.780050e+003;6.953437e-002
1.781978e+003;6.950454e-002
1.783907e+003;6.935148e-002
1.785835e+003;6.910580e-002
1.787764e+003;6.899557e-002
1.789693e+003;6.889584e-002
1.791621e+003;6.882296e-002
1.793550e+003;6.873216e-002
1.795478e+003;6.863521e-002
1.797407e+003;6.872762e-002
1.799335e+003;6.883103e-002
1.801264e+003;6.880856e-002
1.803192e+003;6.860316e-002
1.805121e+003;6.849390e-002
1.807049e+003;6.828458e-002
1.808978e+003;6.813667e-002
1.810907e+003;6.810562e-002
1.812835e+003;6.815372e-002
1.814764e+003;6.793318e-002
1.816692e+003;6.784861e-002
1.818621e+003;6.803559e-002
1.820549e+003;6.810458e-002
1.822478e+003;6.804354e-002
1.824406e+003;6.799529e-002
1.826335e+003;6.785027e-002
1.828264e+003;6.756960e-002
1.830192e+003;6.756786e-002
1.832121e+003;6.764846e-002
1.834049e+003;6.771154e-002
1.835978e+003;6.759805e-002
1.837906e+003;6.722307e-002
1.839835e+003;6.714424e-002
1.841763e+003;6.721132e-002
1.843692e+003;6.714290e-002
1.845620e+003;6.689193e-002
1.847549e+003;6.679242e-002
1.849478e+003;6.695142e-002
1.851406e+003;6.679253e-002
1.853335e+003;6.647675e-002
1.855263e+003;6.627657e-002
1.857192e+003;6.621363e-002
1.859120e+003;6.615204e-002
1.861049e+003;6.608657e-002
1.862977e+003;6.615497e-002
1.864906e+003;6.621930e-002
1.866834e+003;6.623343e-002
1.868763e+003;6.619777e-002
1.870692e+003;6.594558e-002
1.872620e+003;6.576161e-002
1.874549e+003;6.574284e-002
1.876477e+003;6.573983e-002
1.878406e+003;6.566937e-002
1.880334e+003;6.574924e-002
1.882263e+003;6.599013e-002
1.884191e+003;6.609463e-002
1.886120e+003;6.580880e-002
1.888048e+003;6.564486e-002
1.889977e+003;6.575815e-002
1.891906e+003;6.575564e-002
1.893834e+003;6.565881e-002
1.895763e+003;6.577079e-002
1.897691e+003;6.579839e-002
1.899620e+003;6.560100e-002
1.901548e+003;6.546888e-002
1.903477e+003;6.534804e-002
1.905405e+003;6.533387e-002
1.907334e+003;6.559587e-002
1.909262e+003;6.581061e-002
1.911191e+003;6.602257e-002
1.913120e+003;6.602847e-002
1.915048e+003;6.593235e-002
1.916977e+003;6.605107e-002
1.918905e+003;6.612380e-002
1.920834e+003;6.602712e-002
1.922762e+003;6.584860e-002
1.924691e+003;6.561480e-002
1.926619e+003;6.559931e-002
1.928548e+003;6.597532e-002
1.930477e+003;6.643303e-002
1.932405e+003;6.652679e-002
1.934334e+003;6.635250e-002
1.936262e+003;6.626658e-002
1.938191e+003;6.637740e-002
1.940119e+003;6.655715e-002
1.942048e+003;6.668358e-002
1.943976e+003;6.672712e-002
1.945905e+003;6.669501e-002
1.947833e+003;6.688737e-002
1.949762e+003;6.709304e-002
1.951691e+003;6.718753e-002
1.953619e+003;6.719224e-002
1.955548e+003;6.721824e-002
1.957476e+003;6.724942e-002
1.959405e+003;6.705017e-002
1.961333e+003;6.697806e-002
1.963262e+003;6.722616e-002
1.965190e+003;6.720145e-002
1.967119e+003;6.718729e-002
1.969047e+003;6.726435e-002
1.970976e+003;6.754296e-002
1.972905e+003;6.777854e-002
1.974833e+003;6.774004e-002
1.976762e+003;6.771611e-002
1.978690e+003;6.767777e-002
1.980619e+003;6.764753e-002
1.982547e+003;6.774972e-002
1.984476e+003;6.802811e-002
1.986404e+003;6.816199e-002
1.988333e+003;6.825957e-002
1.990261e+003;6.823727e-002
1.992190e+003;6.816439e-002
1.994119e+003;6.821742e-002
1.996047e+003;6.826235e-002
1.997976e+003;6.840200e-002
1.999904e+003;6.851345e-002
2.001833e+003;6.857126e-002
2.003761e+003;6.856420e-002
2.005690e+003;6.865236e-002
2.007618e+003;6.885476e-002
2.009547e+003;6.902617e-002
2.011476e+003;6.919555e-002
2.013404e+003;6.929376e-002
2.015333e+003;6.933511e-002
2.017261e+003;6.950520e-002
2.019190e+003;6.983662e-002
2.021118e+003;6.978697e-002
2.023047e+003;6.983515e-002
2.024975e+003;6.994801e-002
2.026904e+003;7.006060e-002
2.028833e+003;7.026957e-002
2.030761e+003;7.035796e-002
2.032690e+003;7.036038e-002
2.034618e+003;7.015751e-002
2.036547e+003;7.020161e-002
2.038475e+003;7.049209e-002
2.040404e+003;7.061671e-002
2.042332e+003;7.074413e-002
2.044261e+003;7.071920e-002
2.046189e+003;7.062766e-002
2.048118e+003;7.063830e-002
2.050047e+003;7.069612e-002
2.051975e+003;7.053765e-002
2.053904e+003;7.029174e-002
2.055832e+003;7.041162e-002
2.057761e+003;7.070766e-002
2.059689e+003;7.067881e-002
2.061618e+003;7.030042e-002
2.063546e+003;7.029999e-002
2.065475e+003;7.057792e-002
2.067404e+003;7.040807e-002
2.069332e+003;7.013991e-002
2.071260e+003;7.013621e-002
2.073189e+003;7.016426e-002
2.075118e+003;7.007407e-002
2.077046e+003;7.005344e-002
2.078975e+003;7.029742e-002
2.080903e+003;7.023638e-002
2.082832e+003;7.005300e-002
2.084760e+003;7.003178e-002
2.086689e+003;6.998118e-002
2.088617e+003;7.001337e-002
2.090546e+003;7.006406e-002
2.092475e+003;7.027370e-002
2.094403e+003;7.051064e-002
2.096332e+003;7.065834e-002
2.098260e+003;7.055971e-002
2.100189e+003;7.038313e-002
2.102117e+003;7.030163e-002
2.104046e+003;7.038216e-002
2.105974e+003;7.073157e-002
2.107903e+003;7.086963e-002
2.109832e+003;7.067351e-002
2.111760e+003;7.049283e-002
2.113688e+003;7.072393e-002
2.115617e+003;7.104922e-002
2.117546e+003;7.111739e-002
2.119474e+003;7.097352e-002
2.121403e+003;7.083999e-002
2.123331e+003;7.110081e-002
2.125260e+003;7.140046e-002
2.127188e+003;7.135519e-002
2.129117e+003;7.130939e-002
2.131045e+003;7.154471e-002
2.132974e+003;7.150775e-002
2.134903e+003;7.141931e-002
2.136831e+003;7.130005e-002
2.138760e+003;7.118586e-002
2.140688e+003;7.125390e-002
2.142617e+003;7.114597e-002
2.144545e+003;7.082450e-002
2.146474e+003;7.065476e-002
2.148402e+003;7.061253e-002
2.150331e+003;7.073858e-002
2.152260e+003;7.074525e-002
2.154188e+003;7.056435e-002
2.156117e+003;7.074198e-002
2.158045e+003;7.077868e-002
2.159974e+003;7.072404e-002
2.161902e+003;7.045954e-002
2.163831e+003;7.004300e-002
2.165759e+003;7.000998e-002
2.167688e+003;6.983701e-002
2.169616e+003;6.952659e-002
2.171545e+003;6.938545e-002
2.173474e+003;6.945372e-002
2.175402e+003;6.934273e-002
2.177331e+003;6.914726e-002
2.179259e+003;6.903802e-002
2.181188e+003;6.874159e-002
2.183116e+003;6.841089e-002
2.185045e+003;6.833541e-002
2.186973e+003;6.861185e-002
2.188902e+003;6.874575e-002
2.190831e+003;6.841453e-002
2.192759e+003;6.814086e-002
2.194688e+003;6.829470e-002
2.196616e+003;6.851481e-002
2.198545e+003;6.835054e-002
2.200473e+003;6.792989e-002
2.202402e+003;6.753584e-002
2.204330e+003;6.760641e-002
2.206259e+003;6.798657e-002
2.208188e+003;6.794244e-002
2.210116e+003;6.766530e-002
2.212044e+003;6.775394e-002
2.213973e+003;6.791783e-002
2.215902e+003;6.793260e-002
2.217830e+003;6.785543e-002
2.219759e+003;6.786744e-002
2.221687e+003;6.808729e-002
2.223616e+003;6.815923e-002
2.225544e+003;6.788757e-002
2.227473e+003;6.776285e-002
2.229401e+003;6.787162e-002
2.231330e+003;6.799862e-002
2.233259e+003;6.804132e-002
2.235187e+003;6.817663e-002
2.237116e+003;6.806822e-002
2.239044e+003;6.792895e-002
2.240973e+003;6.812733e-002
2.242901e+003;6.827252e-002
2.244830e+003;6.821839e-002
2.246758e+003;6.796440e-002
2.248687e+003;6.786522e-002
2.250615e+003;6.765744e-002
2.252544e+003;6.744516e-002
2.254473e+003;6.761811e-002
2.256401e+003;6.775762e-002
2.258330e+003;6.754448e-002
2.260258e+003;6.733770e-002
2.262187e+003;6.722187e-002
2.264115e+003;6.714293e-002
2.266044e+003;6.711296e-002
2.267972e+003;6.690260e-002
2.269901e+003;6.665951e-002
2.271830e+003;6.691010e-002
2.273758e+003;6.708678e-002
2.275687e+003;6.690685e-002
2.277615e+003;6.665333e-002
2.279544e+003;6.648335e-002
2.281472e+003;6.618720e-002
2.283401e+003;6.605825e-002
2.285329e+003;6.626666e-002
2.287258e+003;6.623134e-002
2.289187e+003;6.607453e-002
2.291115e+003;6.590427e-002
2.293043e+003;6.605925e-002
2.294972e+003;6.632289e-002
2.296901e+003;6.637802e-002
2.298829e+003;6.627376e-002
2.300758e+003;6.611349e-002
2.302686e+003;6.603426e-002
2.304615e+003;6.591234e-002
2.306543e+003;6.604753e-002
2.308472e+003;6.615938e-002
2.310400e+003;6.589433e-002
2.312329e+003;6.588816e-002
2.314258e+003;6.621679e-002
2.316186e+003;6.618191e-002
2.318115e+003;6.638713e-002
2.320043e+003;6.663297e-002
2.321972e+003;6.659948e-002
2.323900e+003;6.658631e-002
2.325829e+003;6.659292e-002
2.327757e+003;6.674670e-002
2.329686e+003;6.704877e-002
2.331615e+003;6.695645e-002
2.333543e+003;6.666654e-002
2.335472e+003;6.664475e-002
2.337400e+003;6.673500e-002
2.339329e+003;6.689440e-002
2.341257e+003;6.724551e-002
2.343186e+003;6.747914e-002
2.345114e+003;6.747271e-002
2.347043e+003;6.765880e-002
2.348971e+003;6.789897e-002
2.350900e+003;6.799506e-002
2.352829e+003;6.798296e-002
2.354757e+003;6.794383e-002
2.356686e+003;6.813934e-002
2.358614e+003;6.830509e-002
2.360543e+003;6.810307e-002
2.362471e+003;6.789292e-002
2.364400e+003;6.844006e-002
2.366328e+003;6.887013e-002
2.368257e+003;6.870805e-002
2.370186e+003;6.887960e-002
2.372114e+003;6.924199e-002
2.374042e+003;6.907810e-002
2.375971e+003;6.902252e-002
2.377900e+003;6.926923e-002
2.379828e+003;6.915674e-002
2.381757e+003;6.914547e-002
2.383685e+003;6.933916e-002
2.385614e+003;6.954592e-002
2.387542e+003;6.976709e-002
2.389471e+003;6.993750e-002
2.391399e+003;6.995634e-002
2.393328e+003;7.020768e-002
2.395257e+003;7.017317e-002
2.397185e+003;6.990041e-002
2.399114e+003;6.987523e-002
2.401042e+003;7.002961e-002
2.402971e+003;7.015444e-002
2.404899e+003;7.015553e-002
2.406828e+003;7.018965e-002
2.408756e+003;7.050565e-002
2.410685e+003;7.111775e-002
2.412614e+003;7.119007e-002
2.414542e+003;7.110897e-002
2.416471e+003;7.139003e-002
2.418399e+003;7.158866e-002
2.420328e+003;7.147107e-002
2.422256e+003;7.160824e-002
2.424185e+003;7.187746e-002
2.426113e+003;7.195789e-002
2.428042e+003;7.221594e-002
2.429970e+003;7.240982e-002
2.431899e+003;7.238129e-002
2.433828e+003;7.248742e-002
2.435756e+003;7.270787e-002
2.437685e+003;7.302696e-002
2.439613e+003;7.328224e-002
2.441542e+003;7.324227e-002
2.443470e+003;7.315004e-002
2.445399e+003;7.327326e-002
2.447327e+003;7.356334e-002
2.449256e+003;7.372464e-002
2.451185e+003;7.374899e-002
2.453113e+003;7.362720e-002
2.455042e+003;7.350697e-002
2.456970e+003;7.372437e-002
2.458899e+003;7.412886e-002
2.460827e+003;7.425059e-002
2.462756e+003;7.417677e-002
2.464684e+003;7.400622e-002
2.466613e+003;7.409114e-002
2.468542e+003;7.429112e-002
2.470470e+003;7.439159e-002
2.472398e+003;7.462819e-002
2.474327e+003;7.445385e-002
2.476256e+003;7.446069e-002
2.478184e+003;7.485005e-002
2.480113e+003;7.521938e-002
2.482041e+003;7.538903e-002
2.483970e+003;7.568675e-002
2.485898e+003;7.601883e-002
2.487827e+003;7.593152e-002
2.489755e+003;7.584948e-002
2.491684e+003;7.581188e-002
2.493613e+003;7.582971e-002
2.495541e+003;7.596152e-002
2.497470e+003;7.614990e-002
2.499398e+003;7.610125e-002
2.501327e+003;7.580285e-002
2.503255e+003;7.597999e-002
2.505184e+003;7.632942e-002
2.507112e+003;7.638773e-002
2.509041e+003;7.638027e-002
2.510969e+003;7.650603e-002
2.512898e+003;7.682287e-002
2.514827e+003;7.708327e-002
2.516755e+003;7.723715e-002
2.518684e+003;7.727226e-002
2.520612e+003;7.716060e-002
2.522541e+003;7.728259e-002
2.524469e+003;7.740910e-002
2.526398e+003;7.738525e-002
2.528326e+003;7.750751e-002
2.530255e+003;7.785893e-002
2.532184e+003;7.773936e-002
2.534112e+003;7.748533e-002
2.536041e+003;7.740343e-002
2.537969e+003;7.749258e-002
2.539898e+003;7.768134e-002
2.541826e+003;7.779389e-002
2.543755e+003;7.775850e-002
2.545683e+003;7.749467e-002
2.547612e+003;7.757267e-002
2.549541e+003;7.807653e-002
2.551469e+003;7.853437e-002
2.553397e+003;7.844632e-002
2.555326e+003;7.819969e-002
2.557255e+003;7.832118e-002
2.559183e+003;7.847216e-002
2.561112e+003;7.848994e-002
2.563040e+003;7.859015e-002
2.564969e+003;7.887864e-002
2.566897e+003;7.895827e-002
2.568826e+003;7.876509e-002
2.570754e+003;7.863137e-002
2.572683e+003;7.861827e-002
2.574612e+003;7.853889e-002
2.576540e+003;7.836865e-002
2.578469e+003;7.844699e-002
2.580397e+003;7.885603e-002
2.582326e+003;7.922629e-002
2.584254e+003;7.893963e-002
2.586183e+003;7.870667e-002
2.588111e+003;7.921837e-002
2.590040e+003;7.945543e-002
2.591969e+003;7.931553e-002
2.593897e+003;7.934138e-002
2.595826e+003;7.972001e-002
2.597754e+003;7.974171e-002
2.599683e+003;7.971407e-002
2.601611e+003;7.999120e-002
2.603540e+003;8.016249e-002
2.605468e+003;8.005020e-002
2.607397e+003;7.986028e-002
2.609325e+003;7.998391e-002
2.611254e+003;8.032610e-002
2.613183e+003;8.055555e-002
2.615111e+003;8.034261e-002
2.617040e+003;8.024590e-002
2.618968e+003;8.068109e-002
2.620897e+003;8.062831e-002
2.622825e+003;8.052368e-002
2.624754e+003;8.078113e-002
2.626682e+003;8.090019e-002
2.628611e+003;8.088067e-002
2.630540e+003;8.106381e-002
2.632468e+003;8.138703e-002
2.634396e+003;8.190235e-002
2.636325e+003;8.205982e-002
2.638254e+003;8.168134e-002
2.640182e+003;8.163060e-002
2.642111e+003;8.190931e-002
2.644039e+003;8.252636e-002
2.645968e+003;8.272418e-002
2.647896e+003;8.236516e-002
2.649825e+003;8.236551e-002
2.651753e+003;8.252708e-002
2.653682e+003;8.249319e-002
2.655611e+003;8.255213e-002
2.657539e+003;8.270843e-002
2.659468e+003;8.296224e-002
2.661396e+003;8.289270e-002
2.663325e+003;8.290433e-002
2.665253e+003;8.310417e-002
2.667182e+003;8.298238e-002
2.669110e+003;8.314762e-002
2.671039e+003;8.350569e-002
2.672968e+003;8.361526e-002
2.674896e+003;8.363490e-002
2.676825e+003;8.396346e-002
2.678753e+003;8.431725e-002
2.680682e+003;8.423293e-002
2.682610e+003;8.387531e-002
2.684539e+003;8.372317e-002
2.686467e+003;8.416238e-002
2.688396e+003;8.481438e-002
2.690324e+003;8.528495e-002
2.692253e+003;8.527701e-002
2.694182e+003;8.482824e-002
2.696110e+003;8.463767e-002
2.698039e+003;8.485402e-002
2.699967e+003;8.529112e-002
2.701896e+003;8.586842e-002
2.703824e+003;8.619601e-002
2.705753e+003;8.593828e-002
2.707681e+003;8.585328e-002
2.709610e+003;8.622967e-002
2.711539e+003;8.640909e-002
2.713467e+003;8.651717e-002
2.715396e+003;8.648147e-002
2.717324e+003;8.636393e-002
2.719253e+003;8.625998e-002
2.721181e+003;8.626244e-002
2.723110e+003;8.664020e-002
2.725038e+003;8.713453e-002
2.726967e+003;8.708116e-002
2.728896e+003;8.703829e-002
2.730824e+003;8.700006e-002
2.732752e+003;8.702072e-002
2.734681e+003;8.730477e-002
2.736610e+003;8.769082e-002
2.738538e+003;8.745295e-002
2.740467e+003;8.714551e-002
2.742395e+003;8.722452e-002
2.744324e+003;8.760580e-002
2.746252e+003;8.789708e-002
2.748181e+003;8.792804e-002
2.750109e+003;8.791311e-002
2.752038e+003;8.816114e-002
2.753967e+003;8.840553e-002
2.755895e+003;8.806507e-002
2.757824e+003;8.788540e-002
2.759752e+003;8.833238e-002
2.761681e+003;8.879890e-002
2.763609e+003;8.873825e-002
2.765538e+003;8.871415e-002
2.767466e+003;8.904409e-002
2.769395e+003;8.920751e-002
2.771323e+003;8.920539e-002
2.773252e+003;8.953184e-002
2.775181e+003;8.990116e-002
2.777109e+003;8.995244e-002
2.779038e+003;8.999438e-002
2.780966e+003;9.010405e-002
2.782895e+003;9.023622e-002
2.784823e+003;9.077978e-002
2.786752e+003;9.139878e-002
2.788680e+003;9.168911e-002
2.790609e+003;9.142537e-002
2.792538e+003;9.155904e-002
2.794466e+003;9.197927e-002
2.796395e+003;9.212614e-002
2.798323e+003;9.265842e-002
2.800252e+003;9.320031e-002
2.802180e+003;9.356681e-002
2.804109e+003;9.380957e-002
2.806037e+003;9.384934e-002
2.807966e+003;9.435870e-002
2.809895e+003;9.505355e-002
2.811823e+003;9.539875e-002
2.813751e+003;9.583648e-002
2.815680e+003;9.648627e-002
2.817609e+003;9.690534e-002
2.819537e+003;9.724173e-002
2.821466e+003;9.763580e-002
2.823394e+003;9.815540e-002
2.825323e+003;9.893366e-002
2.827251e+003;1.000088e-001
2.829180e+003;1.009163e-001
2.831108e+003;1.017468e-001
2.833037e+003;1.023875e-001
2.834966e+003;1.030787e-001
2.836894e+003;1.043891e-001
2.838823e+003;1.059906e-001
2.840751e+003;1.076165e-001
2.842680e+003;1.091903e-001
2.844608e+003;1.114242e-001
2.846537e+003;1.137811e-001
2.848465e+003;1.160946e-001
2.850394e+003;1.186322e-001
2.852323e+003;1.201012e-001
2.854251e+003;1.204548e-001
2.856180e+003;1.209352e-001
2.858108e+003;1.214838e-001
2.860037e+003;1.221246e-001
2.861965e+003;1.228348e-001
2.863894e+003;1.233518e-001
2.865822e+003;1.238326e-001
2.867751e+003;1.248617e-001
2.869679e+003;1.258800e-001
2.871608e+003;1.261897e-001
2.873536e+003;1.265612e-001
2.875465e+003;1.272599e-001
2.877394e+003;1.275394e-001
2.879322e+003;1.277389e-001
2.881251e+003;1.284228e-001
2.883179e+003;1.295828e-001
2.885108e+003;1.300883e-001
2.887036e+003;1.303445e-001
2.888965e+003;1.311066e-001
2.890893e+003;1.321978e-001
2.892822e+003;1.329893e-001
2.894750e+003;1.336921e-001
2.896679e+003;1.345492e-001
2.898608e+003;1.351147e-001
2.900536e+003;1.347864e-001
2.902465e+003;1.344084e-001
2.904393e+003;1.346047e-001
2.906322e+003;1.342819e-001
2.908250e+003;1.333995e-001
2.910179e+003;1.324717e-001
2.912107e+003;1.316867e-001
2.914036e+003;1.309239e-001
2.915965e+003;1.304187e-001
2.917893e+003;1.292397e-001
2.919822e+003;1.272781e-001
2.921750e+003;1.254739e-001
2.923679e+003;1.236889e-001
2.925607e+003;1.225365e-001
2.927536e+003;1.211505e-001
2.929464e+003;1.190486e-001
2.931393e+003;1.168245e-001
2.933322e+003;1.152302e-001
2.935250e+003;1.137434e-001
2.937178e+003;1.123578e-001
2.939107e+003;1.114756e-001
2.941036e+003;1.104629e-001
2.942964e+003;1.093510e-001
2.944893e+003;1.083295e-001
2.946821e+003;1.074731e-001
2.948750e+003;1.064694e-001
2.950678e+003;1.053947e-001
2.952607e+003;1.044463e-001
2.954535e+003;1.033897e-001
2.956464e+003;1.024764e-001
2.958393e+003;1.014190e-001
2.960321e+003;1.005509e-001
2.962250e+003;9.989165e-002
2.964178e+003;9.893358e-002
2.966107e+003;9.777521e-002
2.968035e+003;9.662499e-002
2.969964e+003;9.558494e-002
2.971892e+003;9.416152e-002
2.973821e+003;9.283088e-002
2.975750e+003;9.153675e-002
2.977678e+003;8.975146e-002
2.979607e+003;8.832796e-002
2.981535e+003;8.777678e-002
2.983464e+003;8.755533e-002
2.985392e+003;8.728293e-002
2.987321e+003;8.671848e-002
2.989249e+003;8.616105e-002
2.991178e+003;8.593824e-002
2.993106e+003;8.583450e-002
2.995035e+003;8.571893e-002
2.996964e+003;8.594094e-002
2.998892e+003;8.566254e-002
3.000821e+003;8.516565e-002
3.002749e+003;8.546842e-002
3.004678e+003;8.585760e-002
3.006606e+003;8.573273e-002
3.008535e+003;8.562392e-002
3.010463e+003;8.581965e-002
3.012392e+003;8.597786e-002
3.014321e+003;8.630605e-002
3.016249e+003;8.641540e-002
3.018177e+003;8.644888e-002
3.020106e+003;8.654519e-002
3.022035e+003;8.615334e-002
3.023963e+003;8.616085e-002
3.025892e+003;8.682878e-002
3.027820e+003;8.739006e-002
3.029749e+003;8.770983e-002
3.031677e+003;8.823668e-002
3.033606e+003;8.861263e-002
3.035534e+003;8.828918e-002
3.037463e+003;8.815062e-002
3.039392e+003;8.838075e-002
3.041320e+003;8.868001e-002
3.043249e+003;8.896454e-002
3.045177e+003;8.932300e-002
3.047106e+003;8.962131e-002
3.049034e+003;8.968224e-002
3.050963e+003;8.974241e-002
3.052891e+003;9.021325e-002
3.054820e+003;9.116676e-002
3.056749e+003;9.183531e-002
3.058677e+003;9.201723e-002
3.060606e+003;9.199127e-002
3.062534e+003;9.173437e-002
3.064463e+003;9.178386e-002
3.066391e+003;9.238966e-002
3.068320e+003;9.299881e-002
3.070248e+003;9.322199e-002
3.072177e+003;9.359673e-002
3.074105e+003;9.415790e-002
3.076034e+003;9.449460e-002
3.077963e+003;9.448270e-002
3.079891e+003;9.465633e-002
3.081820e+003;9.510048e-002
3.083748e+003;9.558035e-002
3.085677e+003;9.610540e-002
3.087605e+003;9.621083e-002
3.089534e+003;9.628063e-002
3.091462e+003;9.665483e-002
3.093391e+003;9.707708e-002
3.095320e+003;9.732638e-002
3.097248e+003;9.746984e-002
3.099177e+003;9.791464e-002
3.101105e+003;9.861711e-002
3.103034e+003;9.915072e-002
3.104962e+003;9.944524e-002
3.106891e+003;9.956957e-002
3.108819e+003;9.979636e-002
3.110748e+003;9.982438e-002
3.112677e+003;9.999663e-002
3.114605e+003;1.005836e-001
3.116533e+003;1.011615e-001
3.118462e+003;1.015763e-001
3.120391e+003;1.022277e-001
3.122319e+003;1.027279e-001
3.124248e+003;1.031080e-001
3.126176e+003;1.040101e-001
3.128105e+003;1.048683e-001
3.130033e+003;1.055684e-001
3.131962e+003;1.060136e-001
3.133890e+003;1.058777e-001
3.135819e+003;1.060936e-001
3.137748e+003;1.068573e-001
3.139676e+003;1.074670e-001
3.141605e+003;1.075817e-001
3.143533e+003;1.081320e-001
3.145462e+003;1.087892e-001
3.147390e+003;1.092282e-001
3.149319e+003;1.102431e-001
3.151247e+003;1.113963e-001
3.153176e+003;1.115902e-001
3.155104e+003;1.118499e-001
3.157033e+003;1.127993e-001
3.158962e+003;1.135458e-001
3.160890e+003;1.139420e-001
3.162819e+003;1.144744e-001
3.164747e+003;1.150128e-001
3.166676e+003;1.157737e-001
3.168604e+003;1.165895e-001
3.170533e+003;1.173982e-001
3.172461e+003;1.177955e-001
3.174390e+003;1.177512e-001
3.176319e+003;1.186899e-001
3.178247e+003;1.203542e-001
3.180176e+003;1.207642e-001
3.182104e+003;1.208465e-001
3.184033e+003;1.219128e-001
3.185961e+003;1.231715e-001
3.187890e+003;1.241260e-001
3.189818e+003;1.248509e-001
3.191747e+003;1.255011e-001
3.193676e+003;1.262917e-001
3.195604e+003;1.265605e-001
3.197532e+003;1.269953e-001
3.199461e+003;1.281305e-001
3.201390e+003;1.295087e-001
3.203318e+003;1.303531e-001
3.205247e+003;1.305774e-001
3.207175e+003;1.314090e-001
3.209104e+003;1.326953e-001
3.211032e+003;1.339366e-001
3.212961e+003;1.348158e-001
3.214889e+003;1.355468e-001
3.216818e+003;1.365455e-001
3.218747e+003;1.376975e-001
3.220675e+003;1.387618e-001
3.222604e+003;1.401504e-001
3.224532e+003;1.419146e-001
3.226461e+003;1.428353e-001
3.228389e+003;1.435075e-001
3.230318e+003;1.444097e-001
3.232246e+003;1.453407e-001
3.234175e+003;1.465205e-001
3.236104e+003;1.482353e-001
3.238032e+003;1.494443e-001
3.239961e+003;1.507496e-001
3.241889e+003;1.526918e-001
3.243818e+003;1.541148e-001
3.245746e+003;1.549828e-001
3.247675e+003;1.560476e-001
3.249603e+003;1.577957e-001
3.251532e+003;1.599468e-001
3.253460e+003;1.615562e-001
3.255389e+003;1.629446e-001
3.257318e+003;1.648042e-001
3.259246e+003;1.665149e-001
3.261175e+003;1.675369e-001
3.263103e+003;1.689643e-001
3.265032e+003;1.714052e-001
3.266960e+003;1.727630e-001
3.268889e+003;1.731867e-001
3.270817e+003;1.740528e-001
3.272746e+003;1.758696e-001
3.274675e+003;1.770563e-001
3.276603e+003;1.774978e-001
3.278531e+003;1.784156e-001
3.280460e+003;1.788312e-001
3.282389e+003;1.790548e-001
3.284317e+003;1.798086e-001
3.286246e+003;1.805971e-001
3.288174e+003;1.809905e-001
3.290103e+003;1.815590e-001
3.292031e+003;1.824470e-001
3.293960e+003;1.824545e-001
3.295888e+003;1.820796e-001
3.297817e+003;1.820375e-001
3.299746e+003;1.818320e-001
3.301674e+003;1.816957e-001
3.303603e+003;1.821091e-001
3.305531e+003;1.825707e-001
3.307460e+003;1.827683e-001
3.309388e+003;1.827077e-001
3.311317e+003;1.826293e-001
3.313245e+003;1.830823e-001
3.315174e+003;1.839808e-001
3.317103e+003;1.850872e-001
3.319031e+003;1.859900e-001
3.320960e+003;1.861541e-001
3.322888e+003;1.866088e-001
3.324817e+003;1.881011e-001
3.326745e+003;1.899486e-001
3.328674e+003;1.908085e-001
3.330602e+003;1.910074e-001
3.332531e+003;1.916351e-001
3.334459e+003;1.913345e-001
3.336388e+003;1.907424e-001
3.338317e+003;1.905385e-001
3.340245e+003;1.898096e-001
3.342174e+003;1.890949e-001
3.344102e+003;1.885413e-001
3.346031e+003;1.868310e-001
3.347959e+003;1.846586e-001
3.349888e+003;1.833750e-001
3.351816e+003;1.825670e-001
3.353745e+003;1.814090e-001
3.355674e+003;1.800061e-001
3.357602e+003;1.788761e-001
3.359531e+003;1.772696e-001
3.361459e+003;1.759301e-001
3.363388e+003;1.743264e-001
3.365316e+003;1.727002e-001
3.367245e+003;1.716978e-001
3.369173e+003;1.703210e-001
3.371102e+003;1.693486e-001
3.373031e+003;1.686546e-001
3.374959e+003;1.672713e-001
3.376887e+003;1.666882e-001
3.378816e+003;1.664399e-001
3.380745e+003;1.653989e-001
3.382673e+003;1.644594e-001
3.384602e+003;1.642314e-001
3.386530e+003;1.635725e-001
3.388459e+003;1.617049e-001
3.390387e+003;1.602462e-001
3.392316e+003;1.601774e-001
3.394244e+003;1.606479e-001
3.396173e+003;1.604238e-001
3.398102e+003;1.592860e-001
3.400030e+003;1.581729e-001
3.401959e+003;1.575344e-001
3.403887e+003;1.566387e-001
3.405816e+003;1.551080e-001
3.407744e+003;1.542966e-001
3.409673e+003;1.537058e-001
3.411601e+003;1.520800e-001
3.413530e+003;1.506504e-001
3.415458e+003;1.495515e-001
3.417387e+003;1.479298e-001
3.419316e+003;1.464612e-001
3.421244e+003;1.453338e-001
3.423173e+003;1.444827e-001
3.425101e+003;1.436041e-001
3.427030e+003;1.423671e-001
3.428958e+003;1.409635e-001
3.430887e+003;1.399026e-001
3.432815e+003;1.384410e-001
3.434744e+003;1.370414e-001
3.436673e+003;1.364192e-001
3.438601e+003;1.351145e-001
3.440530e+003;1.335708e-001
3.442458e+003;1.322742e-001
3.444387e+003;1.309994e-001
3.446315e+003;1.298761e-001
3.448244e+003;1.286634e-001
3.450172e+003;1.275570e-001
3.452101e+003;1.264666e-001
3.454030e+003;1.255988e-001
3.455958e+003;1.245820e-001
3.457886e+003;1.232348e-001
3.459815e+003;1.220695e-001
3.461744e+003;1.206244e-001
3.463672e+003;1.190995e-001
3.465601e+003;1.185859e-001
3.467529e+003;1.181096e-001
3.469458e+003;1.164419e-001
3.471386e+003;1.148930e-001
3.473315e+003;1.132349e-001
3.475243e+003;1.115795e-001
3.477172e+003;1.105394e-001
3.479101e+003;1.096344e-001
3.481029e+003;1.087609e-001
3.482958e+003;1.081481e-001
3.484886e+003;1.075426e-001
3.486815e+003;1.061947e-001
3.488743e+003;1.043734e-001
3.490672e+003;1.028375e-001
3.492600e+003;1.020767e-001
3.494529e+003;1.016258e-001
3.496458e+003;1.009863e-001
3.498386e+003;9.985954e-002
3.500315e+003;9.790493e-002
3.502243e+003;9.624114e-002
3.504172e+003;9.566694e-002
3.506100e+003;9.485469e-002
3.508029e+003;9.376874e-002
3.509957e+003;9.284175e-002
3.511886e+003;9.208891e-002
3.513814e+003;9.122799e-002
3.515743e+003;8.999678e-002
3.517672e+003;8.899248e-002
3.519600e+003;8.818217e-002
3.521529e+003;8.724490e-002
3.523457e+003;8.599506e-002
3.525386e+003;8.517577e-002
3.527314e+003;8.430201e-002
3.529243e+003;8.349890e-002
3.531171e+003;8.272931e-002
3.533100e+003;8.196857e-002
3.535029e+003;8.126664e-002
3.536957e+003;8.070847e-002
3.538885e+003;8.006757e-002
3.540814e+003;7.918867e-002
3.542743e+003;7.840131e-002
3.544671e+003;7.752097e-002
3.546600e+003;7.643977e-002
3.548528e+003;7.533046e-002
3.550457e+003;7.454719e-002
3.552385e+003;7.401561e-002
3.554314e+003;7.337259e-002
3.556242e+003;7.278877e-002
3.558171e+003;7.193814e-002
3.560100e+003;7.101722e-002
3.562028e+003;7.024079e-002
3.563957e+003;6.962996e-002
3.565885e+003;6.959363e-002
3.567814e+003;6.873173e-002
3.569742e+003;6.765520e-002
3.571671e+003;6.715465e-002
3.573599e+003;6.660921e-002
3.575528e+003;6.608552e-002
3.577457e+003;6.564809e-002
3.579385e+003;6.533148e-002
3.581314e+003;6.475286e-002
3.583242e+003;6.415616e-002
3.585171e+003;6.352061e-002
3.587099e+003;6.285318e-002
3.589028e+003;6.292047e-002
3.590956e+003;6.304139e-002
3.592885e+003;6.240946e-002
3.594813e+003;6.139289e-002
3.596742e+003;6.061334e-002
3.598671e+003;6.037519e-002
3.600599e+003;5.913375e-002
3.602528e+003;5.820251e-002
3.604456e+003;5.849887e-002
3.606385e+003;5.836222e-002
3.608313e+003;5.772994e-002
3.610242e+003;5.724546e-002
3.612170e+003;5.706413e-002
3.614099e+003;5.709976e-002
3.616028e+003;5.621909e-002
3.617956e+003;5.504584e-002
3.619885e+003;5.458516e-002
3.621813e+003;5.401699e-002
3.623742e+003;5.382124e-002
3.625670e+003;5.434799e-002
3.627599e+003;5.423119e-002
3.629527e+003;5.350601e-002
3.631456e+003;5.283279e-002
3.633385e+003;5.208469e-002
3.635313e+003;5.171028e-002
3.637241e+003;5.165434e-002
3.639170e+003;5.107408e-002
3.641099e+003;5.008337e-002
3.643027e+003;4.944639e-002
3.644956e+003;4.949280e-002
3.646884e+003;4.949659e-002
3.648813e+003;4.924193e-002
3.650741e+003;4.899001e-002
3.652670e+003;4.857672e-002
3.654598e+003;4.818415e-002
3.656527e+003;4.787035e-002
3.658456e+003;4.788530e-002
3.660384e+003;4.791379e-002
3.662313e+003;4.718219e-002
3.664241e+003;4.614662e-002
3.666170e+003;4.608590e-002
3.668098e+003;4.570054e-002
3.670027e+003;4.510418e-002
3.671955e+003;4.512535e-002
3.673884e+003;4.548117e-002
3.675813e+003;4.456865e-002
3.677741e+003;4.421765e-002
3.679669e+003;4.399132e-002
3.681598e+003;4.294273e-002
3.683527e+003;4.239339e-002
3.685455e+003;4.223801e-002
3.687384e+003;4.254023e-002
3.689312e+003;4.295985e-002
3.691241e+003;4.294233e-002
3.693169e+003;4.247460e-002
3.695098e+003;4.217202e-002
3.697026e+003;4.189257e-002
3.698955e+003;4.212441e-002
3.700884e+003;4.219561e-002
3.702812e+003;4.196877e-002
3.704741e+003;4.167883e-002
3.706669e+003;4.136106e-002
3.708598e+003;4.104003e-002
3.710526e+003;4.127156e-002
3.712455e+003;4.200826e-002
3.714383e+003;4.168361e-002
3.716312e+003;4.080221e-002
3.718240e+003;4.069409e-002
3.720169e+003;4.119731e-002
3.722098e+003;4.133180e-002
3.724026e+003;4.118361e-002
3.725955e+003;4.133016e-002
3.727883e+003;4.191461e-002
3.729812e+003;4.131474e-002
3.731740e+003;4.049589e-002
3.733669e+003;4.015747e-002
3.735597e+003;3.956985e-002
3.737526e+003;3.894781e-002
3.739455e+003;3.877497e-002
3.741383e+003;3.902690e-002
3.743312e+003;3.974807e-002
3.745240e+003;4.026735e-002
3.747169e+003;4.069554e-002
3.749097e+003;4.040035e-002
3.751026e+003;3.961207e-002
3.752954e+003;3.944292e-002
3.754883e+003;3.989463e-002
3.756812e+003;3.998796e-002
3.758740e+003;4.004612e-002
3.760668e+003;4.022609e-002
3.762597e+003;4.040799e-002
3.764526e+003;3.998727e-002
3.766454e+003;3.980816e-002
3.768383e+003;3.975315e-002
3.770311e+003;3.963294e-002
3.772240e+003;3.979592e-002
3.774168e+003;3.969672e-002
3.776097e+003;3.964492e-002
3.778025e+003;4.002763e-002
3.779954e+003;3.994865e-002
3.781883e+003;3.944742e-002
3.783811e+003;3.961428e-002
3.785740e+003;3.987804e-002
3.787668e+003;3.987993e-002
3.789597e+003;4.038358e-002
3.791525e+003;3.992722e-002
3.793454e+003;3.964013e-002
3.795382e+003;3.985962e-002
3.797311e+003;4.013802e-002
3.799240e+003;3.983700e-002
3.801168e+003;3.936012e-002
3.803097e+003;3.944759e-002
3.805025e+003;3.992210e-002
3.806954e+003;4.039267e-002
3.808882e+003;4.034130e-002
3.810811e+003;4.053841e-002
3.812739e+003;4.094914e-002
3.814668e+003;4.117268e-002
3.816596e+003;4.051087e-002
3.818525e+003;4.011313e-002
3.820454e+003;4.023721e-002
3.822382e+003;4.031406e-002
3.824311e+003;4.014064e-002
3.826239e+003;3.984974e-002
3.828168e+003;4.051698e-002
3.830096e+003;4.094543e-002
3.832025e+003;4.011157e-002
3.833953e+003;3.933012e-002
3.835882e+003;3.918708e-002
3.837811e+003;4.007893e-002
3.839739e+003;4.094069e-002
3.841667e+003;4.108148e-002
3.843596e+003;4.108005e-002
3.845525e+003;4.111775e-002
3.847453e+003;4.116165e-002
3.849382e+003;4.115003e-002
3.851310e+003;4.064729e-002
3.853239e+003;4.042395e-002
3.855167e+003;4.165918e-002
3.857096e+003;4.283257e-002
3.859024e+003;4.260981e-002
3.860953e+003;4.186345e-002
3.862882e+003;4.147570e-002
3.864810e+003;4.088976e-002
3.866739e+003;4.082183e-002
3.868667e+003;4.085223e-002
3.870596e+003;4.115804e-002
3.872524e+003;4.179439e-002
3.874453e+003;4.228804e-002
3.876381e+003;4.284127e-002
3.878310e+003;4.295948e-002
3.880239e+003;4.295392e-002
3.882167e+003;4.295484e-002
3.884096e+003;4.276196e-002
3.886024e+003;4.227332e-002
3.887953e+003;4.210769e-002
3.889881e+003;4.258588e-002
3.891810e+003;4.313583e-002
3.893738e+003;4.309089e-002
3.895667e+003;4.266398e-002
3.897595e+003;4.236792e-002
3.899524e+003;4.275648e-002
3.901453e+003;4.370879e-002
3.903381e+003;4.361701e-002
3.905310e+003;4.330379e-002
3.907238e+003;4.391415e-002
3.909167e+003;4.353958e-002
3.911095e+003;4.272266e-002
3.913024e+003;4.319753e-002
3.914952e+003;4.469592e-002
3.916881e+003;4.541726e-002
3.918810e+003;4.500717e-002
3.920738e+003;4.479623e-002
3.922667e+003;4.407743e-002
3.924595e+003;4.337031e-002
3.926524e+003;4.314318e-002
3.928452e+003;4.367076e-002
3.930381e+003;4.411791e-002
3.932309e+003;4.374643e-002
3.934238e+003;4.375551e-002
3.936167e+003;4.381998e-002
3.938095e+003;4.319790e-002
3.940023e+003;4.279209e-002
3.941952e+003;4.335508e-002
3.943881e+003;4.378102e-002
3.945809e+003;4.389967e-002
3.947738e+003;4.415691e-002
3.949666e+003;4.489829e-002
3.951595e+003;4.548525e-002
3.953523e+003;4.535738e-002
3.955452e+003;4.528128e-002
3.957380e+003;4.551601e-002
3.959309e+003;4.544353e-002
3.961238e+003;4.517160e-002
3.963166e+003;4.447662e-002
3.965095e+003;4.383365e-002
3.967023e+003;4.411370e-002
3.968952e+003;4.452981e-002
3.970880e+003;4.492005e-002
3.972809e+003;4.579258e-002
3.974737e+003;4.666439e-002
3.976666e+003;4.633927e-002
3.978594e+003;4.479083e-002
3.980523e+003;4.452746e-002
3.982452e+003;4.504091e-002
3.984380e+003;4.493845e-002
3.986309e+003;4.480556e-002
3.988237e+003;4.560179e-002
3.990166e+003;4.571482e-002
3.992094e+003;4.522175e-002
3.994023e+003;4.525727e-002
3.995951e+003;4.505959e-002
3.997880e+003;4.476843e-002
3.999809e+003;4.506267e-002
4.001737e+003;0.000000e+000
