3.992094e+002;0.000000e+000
4.011380e+002;0.000000e+000
4.030665e+002;0.000000e+000
4.049951e+002;0.000000e+000
4.069236e+002;0.000000e+000
4.088522e+002;0.000000e+000
4.107807e+002;0.000000e+000
4.127093e+002;0.000000e+000
4.146378e+002;0.000000e+000
4.165664e+002;0.000000e+000
4.184949e+002;0.000000e+000
4.204235e+002;0.000000e+000
4.223520e+002;0.000000e+000
4.242806e+002;0.000000e+000
4.262091e+002;0.000000e+000
4.281377e+002;0.000000e+000
4.300662e+002;0.000000e+000
4.319948e+002;0.000000e+000
4.339233e+002;0.000000e+000
4.358519e+002;0.000000e+000
4.377804e+002;0.000000e+000
4.397090e+002;0.000000e+000
4.416375e+002;0.000000e+000
4.435660e+002;0.000000e+000
4.454946e+002;0.000000e+000
4.474232e+002;0.000000e+000
4.493517e+002;0.000000e+000
4.512802e+002;0.000000e+000
4.532088e+002;0.000000e+000
4.551373e+002;0.000000e+000
4.570659e+002;0.000000e+000
4.589944e+002;0.000000e+000
4.609230e+002;0.000000e+000
4.628515e+002;0.000000e+000
4.647801e+002;0.000000e+000
4.667086e+002;0.000000e+000
4.686372e+002;0.000000e+000
4.705657e+002;0.000000e+000
4.724943e+002;0.000000e+000
4.744228e+002;0.000000e+000
4.763513e+002;0.000000e+000
4.782799e+002;0.000000e+000
4.802085e+002;0.000000e+000
4.821370e+002;0.000000e+000
4.840656e+002;0.000000e+000
4.859941e+002;0.000000e+000
4.879226e+002;0.000000e+000
4.898512e+002;0.000000e+000
4.917798e+002;0.000000e+000
4.937083e+002;0.000000e+000
4.956368e+002;0.000000e+000
4.975654e+002;0.000000e+000
4.994939e+002;0.000000e+000
5.014225e+002;0.000000e+000
5.033510e+002;0.000000e+000
5.052796e+002;0.000000e+000
5.072081e+002;0.000000e+000
5.091367e+002;0.000000e+000
5.110652e+002;0.000000e+000
5.129938e+002;0.000000e+000
5.149223e+002;0.000000e+000
5.168509e+002;0.000000e+000
5.187794e+002;0.000000e+000
5.207079e+002;0.000000e+000
5.226365e+002;0.000000e+000
5.245651e+002;0.000000e+000
5.264936e+002;0.000000e+000
5.284222e+002;0.000000e+000
5.303507e+002;0.000000e+000
5.322792e+002;0.000000e+000
5.342078e+002;0.000000e+000
5.361364e+002;0.000000e+000
5.380649e+002;0.000000e+000
5.399935e+002;0.000000e+000
5.419220e+002;0.000000e+000
5.438505e+002;0.000000e+000
5.457791e+002;0.000000e+000
5.477076e+002;0.000000e+000
5.496362e+002;0.000000e+000
5.515648e+002;0.000000e+000
5.534933e+002;0.000000e+000
5.554218e+002;0.000000e+000
5.573504e+002;0.000000e+000
5.592789e+002;0.000000e+000
5.612075e+002;0.000000e+000
5.631360e+002;0.000000e+000
5.650646e+002;0.000000e+000
5.669931e+002;0.000000e+000
5.689217e+002;0.000000e+000
5.708502e+002;0.000000e+000
5.727787e+002;0.000000e+000
5.747073e+002;0.000000e+000
5.766359e+002;0.000000e+000
5.785644e+002;0.000000e+000
5.804930e+002;0.000000e+000
5.824215e+002;0.000000e+000
5.843500e+002;0.000000e+000
5.862786e+002;0.000000e+000
5.882072e+002;0.000000e+000
5.901357e+002;0.000000e+000
5.920643e+002;0.000000e+000
5.939928e+002;0.000000e+000
5.959213e+002;0.000000e+000
5.978499e+002;0.000000e+000
5.997784e+002;2.750675e-001
6.017070e+002;2.733622e-001
6.036355e+002;2.765206e-001
6.055641e+002;2.740502e-001
6.074926e+002;2.733908e-001
6.094211e+002;2.720298e-001
6.113497e+002;2.727490e-001
6.132783e+002;2.757020e-001
6.152068e+002;2.760192e-001
6.171354e+002;2.718099e-001
6.190639e+002;2.623770e-001
6.209924e+002;2.588468e-001
6.229210e+002;2.612154e-001
6.248495e+002;2.582878e-001
6.267781e+002;2.538823e-001
6.287067e+002;2.487729e-001
6.306352e+002;2.452241e-001
6.325637e+002;2.436829e-001
6.344923e+002;2.432548e-001
6.364208e+002;2.424628e-001
6.383494e+002;2.394909e-001
6.402780e+002;2.360234e-001
6.422065e+002;2.335118e-001
6.441350e+002;2.324444e-001
6.460636e+002;2.345086e-001
6.479921e+002;2.375371e-001
6.499207e+002;2.364365e-001
6.518492e+002;2.342057e-001
6.537778e+002;2.372951e-001
6.557063e+002;2.411703e-001
6.576349e+002;2.428764e-001
6.595634e+002;2.462599e-001
6.614919e+002;2.512781e-001
6.634205e+002;2.512503e-001
6.653491e+002;2.492953e-001
6.672776e+002;2.476860e-001
6.692062e+002;2.425556e-001
6.711347e+002;2.376130e-001
6.730632e+002;2.318118e-001
6.749918e+002;2.239336e-001
6.769203e+002;2.163005e-001
6.788489e+002;2.117141e-001
6.807775e+002;2.078349e-001
6.827060e+002;2.036858e-001
6.846345e+002;2.001018e-001
6.865631e+002;1.976461e-001
6.884916e+002;1.953571e-001
6.904202e+002;1.930727e-001
6.923488e+002;1.919222e-001
6.942773e+002;1.918674e-001
6.962058e+002;1.920326e-001
6.981344e+002;1.915963e-001
7.000629e+002;1.917744e-001
7.019915e+002;1.904832e-001
7.039200e+002;1.877863e-001
7.058486e+002;1.856615e-001
7.077771e+002;1.838786e-001
7.097057e+002;1.830937e-001
7.116342e+002;1.820487e-001
7.135627e+002;1.787630e-001
7.154913e+002;1.758289e-001
7.174199e+002;1.731643e-001
7.193484e+002;1.699822e-001
7.212770e+002;1.671030e-001
7.232055e+002;1.635266e-001
7.251340e+002;1.599645e-001
7.270626e+002;1.561635e-001
7.289911e+002;1.539371e-001
7.309197e+002;1.528860e-001
7.328483e+002;1.501382e-001
7.347768e+002;1.465694e-001
7.367053e+002;1.448615e-001
7.386339e+002;1.440486e-001
7.405624e+002;1.424836e-001
7.424910e+002;1.400819e-001
7.444196e+002;1.380983e-001
7.463481e+002;1.366670e-001
7.482766e+002;1.351120e-001
7.502052e+002;1.342834e-001
7.521337e+002;1.339261e-001
7.540623e+002;1.318124e-001
7.559908e+002;1.286822e-001
7.579194e+002;1.258003e-001
7.598479e+002;1.234988e-001
7.617765e+002;1.224842e-001
7.637050e+002;1.225553e-001
7.656335e+002;1.216696e-001
7.675621e+002;1.194211e-001
7.694907e+002;1.177875e-001
7.714192e+002;1.159418e-001
7.733478e+002;1.144156e-001
7.752763e+002;1.136272e-001
7.772048e+002;1.126075e-001
7.791334e+002;1.111583e-001
7.810620e+002;1.105581e-001
7.829905e+002;1.111713e-001
7.849191e+002;1.114584e-001
7.868476e+002;1.104728e-001
7.887761e+002;1.094880e-001
7.907047e+002;1.084642e-001
7.926332e+002;1.077904e-001
7.945618e+002;1.071967e-001
7.964903e+002;1.067091e-001
7.984189e+002;1.063174e-001
8.003474e+002;1.060708e-001
8.022759e+002;1.057891e-001
8.042045e+002;1.062942e-001
8.061331e+002;1.064898e-001
8.080616e+002;1.059372e-001
8.099902e+002;1.054582e-001
8.119187e+002;1.051205e-001
8.138472e+002;1.046489e-001
8.157758e+002;1.042346e-001
8.177043e+002;1.034257e-001
8.196329e+002;1.017785e-001
8.215615e+002;9.949977e-002
8.234900e+002;9.777746e-002
8.254185e+002;9.751090e-002
8.273471e+002;9.745553e-002
8.292756e+002;9.657805e-002
8.312042e+002;9.604033e-002
8.331328e+002;9.589874e-002
8.350613e+002;9.508386e-002
8.369898e+002;9.431218e-002
8.389184e+002;9.358728e-002
8.408469e+002;9.324466e-002
8.427755e+002;9.286580e-002
8.447040e+002;9.239364e-002
8.466326e+002;9.209145e-002
8.485611e+002;9.216641e-002
8.504897e+002;9.303682e-002
8.524182e+002;9.345253e-002
8.543467e+002;9.338181e-002
8.562753e+002;9.391762e-002
8.582039e+002;9.516508e-002
8.601324e+002;9.747320e-002
8.620610e+002;9.951073e-002
8.639895e+002;1.017490e-001
8.659180e+002;1.046454e-001
8.678466e+002;1.079868e-001
8.697751e+002;1.119985e-001
8.717037e+002;1.159162e-001
8.736323e+002;1.192286e-001
8.755608e+002;1.212269e-001
8.774893e+002;1.226835e-001
8.794179e+002;1.244280e-001
8.813464e+002;1.266112e-001
8.832750e+002;1.295253e-001
8.852036e+002;1.324790e-001
8.871321e+002;1.355984e-001
8.890606e+002;1.393555e-001
8.909892e+002;1.430167e-001
8.929177e+002;1.462905e-001
8.948463e+002;1.483875e-001
8.967748e+002;1.492946e-001
8.987034e+002;1.491547e-001
9.006319e+002;1.482234e-001
9.025605e+002;1.463936e-001
9.044890e+002;1.434996e-001
9.064175e+002;1.403591e-001
9.083461e+002;1.374462e-001
9.102747e+002;1.343881e-001
9.122032e+002;1.319376e-001
9.141318e+002;1.300586e-001
9.160603e+002;1.285686e-001
9.179888e+002;1.280863e-001
9.199174e+002;1.281473e-001
9.218459e+002;1.283911e-001
9.237745e+002;1.291017e-001
9.257031e+002;1.303932e-001
9.276316e+002;1.322445e-001
9.295601e+002;1.344762e-001
9.314887e+002;1.370706e-001
9.334172e+002;1.396501e-001
9.353458e+002;1.420010e-001
9.372744e+002;1.442244e-001
9.392029e+002;1.468128e-001
9.411314e+002;1.495269e-001
9.430600e+002;1.525221e-001
9.449885e+002;1.561325e-001
9.469171e+002;1.598122e-001
9.488456e+002;1.633161e-001
9.507742e+002;1.671681e-001
9.527027e+002;1.721033e-001
9.546313e+002;1.775570e-001
9.565598e+002;1.832237e-001
9.584883e+002;1.888609e-001
9.604169e+002;1.951147e-001
9.623455e+002;2.022572e-001
9.642740e+002;2.093583e-001
9.662026e+002;2.166186e-001
9.681311e+002;2.251030e-001
9.700596e+002;2.353490e-001
9.719882e+002;2.472954e-001
9.739167e+002;2.612567e-001
9.758453e+002;2.773644e-001
9.777739e+002;2.952929e-001
9.797024e+002;3.138062e-001
9.816309e+002;3.311979e-001
9.835595e+002;3.453738e-001
9.854880e+002;3.548195e-001
9.874166e+002;3.609292e-001
9.893452e+002;3.666615e-001
9.912737e+002;3.734345e-001
9.932022e+002;3.808717e-001
9.951307e+002;3.887857e-001
9.970593e+002;3.971208e-001
9.989879e+002;4.044942e-001
1.000916e+003;4.107643e-001
1.002845e+003;4.150183e-001
1.004773e+003;4.172686e-001
1.006702e+003;4.195828e-001
1.008631e+003;4.221631e-001
1.010559e+003;4.258817e-001
1.012488e+003;4.309979e-001
1.014416e+003;4.376718e-001
1.016345e+003;4.452056e-001
1.018273e+003;4.519898e-001
1.020202e+003;4.587371e-001
1.022130e+003;4.662175e-001
1.024059e+003;4.722540e-001
1.025988e+003;4.767165e-001
1.027916e+003;4.794576e-001
1.029845e+003;4.795037e-001
1.031773e+003;4.777424e-001
1.033702e+003;4.739937e-001
1.035630e+003;4.679427e-001
1.037559e+003;4.603390e-001
1.039487e+003;4.537482e-001
1.041416e+003;4.488478e-001
1.043344e+003;4.459359e-001
1.045273e+003;4.460862e-001
1.047202e+003;4.469813e-001
1.049130e+003;4.474362e-001
1.051059e+003;4.471388e-001
1.052987e+003;4.451942e-001
1.054916e+003;4.406055e-001
1.056844e+003;4.327711e-001
1.058773e+003;4.223823e-001
1.060701e+003;4.090450e-001
1.062630e+003;3.926359e-001
1.064558e+003;3.756770e-001
1.066487e+003;3.604916e-001
1.068416e+003;3.474112e-001
1.070344e+003;3.359454e-001
1.072273e+003;3.258621e-001
1.074201e+003;3.182224e-001
1.076130e+003;3.119907e-001
1.078058e+003;3.055409e-001
1.079987e+003;2.993720e-001
1.081915e+003;2.943867e-001
1.083844e+003;2.907024e-001
1.085773e+003;2.888967e-001
1.087701e+003;2.882826e-001
1.089630e+003;2.875144e-001
1.091558e+003;2.865926e-001
1.093487e+003;2.873083e-001
1.095415e+003;2.881411e-001
1.097344e+003;2.879460e-001
1.099272e+003;2.876993e-001
1.101201e+003;2.873000e-001
1.103129e+003;2.856782e-001
1.105058e+003;2.819004e-001
1.106987e+003;2.773630e-001
1.108915e+003;2.720583e-001
1.110844e+003;2.647107e-001
1.112772e+003;2.553021e-001
1.114701e+003;2.444362e-001
1.116629e+003;2.332126e-001
1.118558e+003;2.229674e-001
1.120486e+003;2.141373e-001
1.122415e+003;2.063787e-001
1.124344e+003;1.986713e-001
1.126272e+003;1.911136e-001
1.128201e+003;1.835247e-001
1.130129e+003;1.764414e-001
1.132058e+003;1.708867e-001
1.133986e+003;1.667335e-001
1.135915e+003;1.633233e-001
1.137843e+003;1.603568e-001
1.139772e+003;1.588938e-001
1.141700e+003;1.589814e-001
1.143629e+003;1.595009e-001
1.145557e+003;1.606219e-001
1.147486e+003;1.619034e-001
1.149415e+003;1.627404e-001
1.151343e+003;1.635271e-001
1.153272e+003;1.640146e-001
1.155200e+003;1.643678e-001
1.157129e+003;1.646475e-001
1.159057e+003;1.638646e-001
1.160986e+003;1.618066e-001
1.162914e+003;1.582324e-001
1.164843e+003;1.529011e-001
1.166771e+003;1.468632e-001
1.168700e+003;1.401165e-001
1.170629e+003;1.324640e-001
1.172557e+003;1.251794e-001
1.174486e+003;1.187216e-001
1.176414e+003;1.131240e-001
1.178343e+003;1.084826e-001
1.180271e+003;1.042782e-001
1.182200e+003;1.014535e-001
1.184128e+003;1.001367e-001
1.186057e+003;9.936275e-002
1.187986e+003;9.940758e-002
1.189914e+003;1.009096e-001
1.191843e+003;1.031948e-001
1.193771e+003;1.059394e-001
1.195700e+003;1.089326e-001
1.197628e+003;1.115488e-001
1.199557e+003;1.134573e-001
1.201485e+003;1.137985e-001
1.203414e+003;1.131927e-001
1.205343e+003;1.121460e-001
1.207271e+003;1.095075e-001
1.209200e+003;1.054424e-001
1.211128e+003;1.016823e-001
1.213057e+003;9.883206e-002
1.214985e+003;9.720190e-002
1.216914e+003;9.719808e-002
1.218842e+003;9.840024e-002
1.220771e+003;9.999195e-002
1.222699e+003;1.017718e-001
1.224628e+003;1.038575e-001
1.226557e+003;1.059699e-001
1.228485e+003;1.081821e-001
1.230414e+003;1.103221e-001
1.232342e+003;1.118907e-001
1.234271e+003;1.126825e-001
1.236199e+003;1.131347e-001
1.238128e+003;1.135032e-001
1.240056e+003;1.139613e-001
1.241985e+003;1.145310e-001
1.243913e+003;1.151251e-001
1.245842e+003;1.161163e-001
1.247771e+003;1.167857e-001
1.249699e+003;1.172696e-001
1.251628e+003;1.172718e-001
1.253556e+003;1.168787e-001
1.255485e+003;1.167710e-001
1.257413e+003;1.170181e-001
1.259342e+003;1.171932e-001
1.261270e+003;1.174418e-001
1.263199e+003;1.175978e-001
1.265127e+003;1.175866e-001
1.267056e+003;1.180048e-001
1.268985e+003;1.186925e-001
1.270913e+003;1.188345e-001
1.272842e+003;1.186926e-001
1.274770e+003;1.190505e-001
1.276699e+003;1.194381e-001
1.278627e+003;1.192454e-001
1.280556e+003;1.185114e-001
1.282484e+003;1.173974e-001
1.284413e+003;1.163214e-001
1.286342e+003;1.157436e-001
1.288270e+003;1.158655e-001
1.290199e+003;1.166833e-001
1.292127e+003;1.179999e-001
1.294056e+003;1.195085e-001
1.295984e+003;1.209427e-001
1.297913e+003;1.226267e-001
1.299841e+003;1.254665e-001
1.301770e+003;1.291965e-001
1.303698e+003;1.329773e-001
1.305627e+003;1.372046e-001
1.307556e+003;1.416879e-001
1.309484e+003;1.458539e-001
1.311413e+003;1.494638e-001
1.313341e+003;1.516152e-001
1.315270e+003;1.517031e-001
1.317198e+003;1.498599e-001
1.319127e+003;1.469106e-001
1.321055e+003;1.436368e-001
1.322984e+003;1.407887e-001
1.324912e+003;1.388518e-001
1.326841e+003;1.377825e-001
1.328770e+003;1.376106e-001
1.330698e+003;1.384193e-001
1.332627e+003;1.395832e-001
1.334555e+003;1.397508e-001
1.336484e+003;1.385510e-001
1.338412e+003;1.369146e-001
1.340341e+003;1.350107e-001
1.342269e+003;1.328091e-001
1.344198e+003;1.303867e-001
1.346126e+003;1.281984e-001
1.348055e+003;1.267761e-001
1.349984e+003;1.263237e-001
1.351912e+003;1.268254e-001
1.353841e+003;1.275381e-001
1.355769e+003;1.284095e-001
1.357698e+003;1.296061e-001
1.359626e+003;1.304678e-001
1.361555e+003;1.303593e-001
1.363483e+003;1.297816e-001
1.365412e+003;1.293508e-001
1.367341e+003;1.288201e-001
1.369269e+003;1.282644e-001
1.371198e+003;1.268573e-001
1.373126e+003;1.239632e-001
1.375055e+003;1.210531e-001
1.376983e+003;1.186685e-001
1.378912e+003;1.159989e-001
1.380840e+003;1.134613e-001
1.382769e+003;1.110797e-001
1.384698e+003;1.084843e-001
1.386626e+003;1.057027e-001
1.388555e+003;1.047076e-001
1.390483e+003;1.047806e-001
1.392412e+003;1.039822e-001
1.394340e+003;1.029962e-001
1.396269e+003;1.034787e-001
1.398197e+003;1.043011e-001
1.400126e+003;1.055416e-001
1.402054e+003;1.068319e-001
1.403983e+003;1.074319e-001
1.405911e+003;1.085128e-001
1.407840e+003;1.098153e-001
1.409769e+003;1.107303e-001
1.411697e+003;1.117707e-001
1.413626e+003;1.131016e-001
1.415554e+003;1.140733e-001
1.417483e+003;1.140332e-001
1.419411e+003;1.145625e-001
1.421340e+003;1.173376e-001
1.423268e+003;1.191899e-001
1.425197e+003;1.200676e-001
1.427125e+003;1.201096e-001
1.429054e+003;1.189005e-001
1.430983e+003;1.177318e-001
1.432911e+003;1.164114e-001
1.434840e+003;1.131073e-001
1.436768e+003;1.099901e-001
1.438697e+003;1.102515e-001
1.440625e+003;1.099245e-001
1.442554e+003;1.085955e-001
1.444482e+003;1.074817e-001
1.446411e+003;1.060175e-001
1.448340e+003;1.049780e-001
1.450268e+003;1.046556e-001
1.452197e+003;1.033928e-001
1.454125e+003;1.002249e-001
1.456054e+003;9.466866e-002
1.457982e+003;9.363804e-002
1.459911e+003;9.596027e-002
1.461839e+003;9.571486e-002
1.463768e+003;9.258747e-002
1.465697e+003;9.027790e-002
1.467625e+003;8.907996e-002
1.469554e+003;8.662406e-002
1.471482e+003;8.293798e-002
1.473411e+003;8.051016e-002
1.475339e+003;7.912239e-002
1.477268e+003;7.740945e-002
1.479196e+003;7.580671e-002
1.481125e+003;7.364471e-002
1.483053e+003;7.126004e-002
1.484982e+003;6.800745e-002
1.486911e+003;6.415190e-002
1.488839e+003;6.081759e-002
1.490768e+003;5.913846e-002
1.492696e+003;5.848056e-002
1.494625e+003;5.620389e-002
1.496553e+003;5.405740e-002
1.498482e+003;5.443463e-002
1.500410e+003;5.532689e-002
1.502339e+003;5.488218e-002
1.504267e+003;5.086084e-002
1.506196e+003;4.674346e-002
1.508125e+003;4.867823e-002
1.510053e+003;5.174708e-002
1.511982e+003;5.225970e-002
1.513910e+003;5.203938e-002
1.515839e+003;5.067947e-002
1.517767e+003;4.964731e-002
1.519696e+003;4.745125e-002
1.521624e+003;4.603278e-002
1.523553e+003;4.796770e-002
1.525481e+003;4.892551e-002
1.527410e+003;4.966555e-002
1.529339e+003;5.066293e-002
1.531267e+003;5.075268e-002
1.533196e+003;5.016172e-002
1.535124e+003;5.148274e-002
1.537053e+003;5.032867e-002
1.538981e+003;4.630853e-002
1.540910e+003;4.719346e-002
1.542838e+003;5.046002e-002
1.544767e+003;5.154952e-002
1.546695e+003;5.211024e-002
1.548624e+003;5.179513e-002
1.550553e+003;5.130364e-002
1.552481e+003;5.038976e-002
1.554410e+003;4.872311e-002
1.556338e+003;4.614386e-002
1.558267e+003;4.169025e-002
1.560195e+003;4.379792e-002
1.562124e+003;4.931501e-002
1.564052e+003;5.082121e-002
1.565981e+003;5.116249e-002
1.567910e+003;5.072441e-002
1.569838e+003;5.069593e-002
1.571767e+003;5.265133e-002
1.573695e+003;5.224157e-002
1.575624e+003;5.000979e-002
1.577552e+003;5.214226e-002
1.579481e+003;5.467150e-002
1.581409e+003;5.472130e-002
1.583338e+003;5.436624e-002
1.585266e+003;5.411651e-002
1.587195e+003;5.426817e-002
1.589124e+003;5.422394e-002
1.591052e+003;5.425176e-002
1.592981e+003;5.439208e-002
1.594909e+003;5.481387e-002
1.596838e+003;5.530351e-002
1.598766e+003;5.560187e-002
1.600695e+003;5.592601e-002
1.602623e+003;5.624391e-002
1.604552e+003;5.647939e-002
1.606480e+003;5.674865e-002
1.608409e+003;5.723087e-002
1.610338e+003;5.785746e-002
1.612266e+003;5.833880e-002
1.614195e+003;5.746984e-002
1.616123e+003;5.536867e-002
1.618052e+003;5.723578e-002
1.619980e+003;5.991989e-002
1.621909e+003;5.977492e-002
1.623837e+003;6.005147e-002
1.625766e+003;6.143900e-002
1.627694e+003;6.235082e-002
1.629623e+003;6.350462e-002
1.631552e+003;6.395874e-002
1.633480e+003;6.200813e-002
1.635409e+003;6.031027e-002
1.637337e+003;6.277177e-002
1.639266e+003;6.516571e-002
1.641194e+003;6.557371e-002
1.643123e+003;6.485453e-002
1.645051e+003;6.238269e-002
1.646980e+003;6.151263e-002
1.648909e+003;6.302702e-002
1.650837e+003;5.956630e-002
1.652766e+003;5.415318e-002
1.654694e+003;5.808477e-002
1.656623e+003;6.257506e-002
1.658551e+003;6.254927e-002
1.660480e+003;6.121843e-002
1.662408e+003;5.962935e-002
1.664337e+003;5.942088e-002
1.666266e+003;5.857057e-002
1.668194e+003;5.580128e-002
1.670123e+003;5.436797e-002
1.672051e+003;5.420521e-002
1.673980e+003;5.207513e-002
1.675908e+003;5.101852e-002
1.677837e+003;5.165240e-002
1.679765e+003;5.038738e-002
1.681694e+003;4.731951e-002
1.683622e+003;4.217615e-002
1.685551e+003;4.216870e-002
1.687479e+003;4.471175e-002
1.689408e+003;4.425019e-002
1.691337e+003;4.323311e-002
1.693265e+003;4.043810e-002
1.695194e+003;3.554719e-002
1.697122e+003;3.457610e-002
1.699051e+003;3.253317e-002
1.700979e+003;3.181344e-002
1.702908e+003;3.463232e-002
1.704836e+003;3.420142e-002
1.706765e+003;3.388259e-002
1.708693e+003;3.377045e-002
1.710622e+003;3.307940e-002
1.712551e+003;3.138721e-002
1.714479e+003;2.903054e-002
1.716408e+003;2.608512e-002
1.718336e+003;2.606408e-002
1.720265e+003;2.855604e-002
1.722193e+003;2.901673e-002
1.724122e+003;2.818656e-002
1.726050e+003;2.758533e-002
1.727979e+003;2.676282e-002
1.729908e+003;2.575689e-002
1.731836e+003;2.293032e-002
1.733765e+003;1.972037e-002
1.735693e+003;2.170801e-002
1.737622e+003;2.277016e-002
1.739550e+003;2.090430e-002
1.741479e+003;2.009854e-002
1.743407e+003;1.936740e-002
1.745336e+003;1.883900e-002
1.747265e+003;1.796550e-002
1.749193e+003;1.664078e-002
1.751122e+003;1.641647e-002
1.753050e+003;1.847810e-002
1.754979e+003;1.910265e-002
1.756907e+003;1.901340e-002
1.758836e+003;1.967183e-002
1.760764e+003;1.924931e-002
1.762693e+003;1.955622e-002
1.764621e+003;2.037580e-002
1.766550e+003;1.947835e-002
1.768479e+003;1.872538e-002
1.770407e+003;1.780502e-002
1.772336e+003;1.675486e-002
1.774264e+003;1.801961e-002
1.776193e+003;1.907478e-002
1.778121e+003;1.907714e-002
1.780050e+003;1.884883e-002
1.781978e+003;1.872365e-002
1.783907e+003;1.824641e-002
1.785835e+003;1.816421e-002
1.787764e+003;1.845221e-002
1.789693e+003;1.731596e-002
1.791621e+003;1.557619e-002
1.793550e+003;1.596665e-002
1.795478e+003;1.719905e-002
1.797407e+003;1.700270e-002
1.799335e+003;1.636059e-002
1.801264e+003;1.637504e-002
1.803192e+003;1.676274e-002
1.805121e+003;1.683155e-002
1.807049e+003;1.669194e-002
1.808978e+003;1.629643e-002
1.810907e+003;1.606356e-002
1.812835e+003;1.608144e-002
1.814764e+003;1.604974e-002
1.816692e+003;1.571898e-002
1.818621e+003;1.564643e-002
1.820549e+003;1.557808e-002
1.822478e+003;1.522653e-002
1.824406e+003;1.447634e-002
1.826335e+003;1.444445e-002
1.828264e+003;1.401720e-002
1.830192e+003;1.368955e-002
1.832121e+003;1.442945e-002
1.834049e+003;1.484610e-002
1.835978e+003;1.483866e-002
1.837906e+003;1.476570e-002
1.839835e+003;1.476756e-002
1.841763e+003;1.382375e-002
1.843692e+003;1.223777e-002
1.845620e+003;1.283551e-002
1.847549e+003;1.376978e-002
1.849478e+003;1.394120e-002
1.851406e+003;1.413897e-002
1.853335e+003;1.407959e-002
1.855263e+003;1.373900e-002
1.857192e+003;1.356329e-002
1.859120e+003;1.346372e-002
1.861049e+003;1.347233e-002
1.862977e+003;1.346112e-002
1.864906e+003;1.315633e-002
1.866834e+003;1.233034e-002
1.868763e+003;1.179038e-002
1.870692e+003;1.254713e-002
1.872620e+003;1.323096e-002
1.874549e+003;1.322270e-002
1.876477e+003;1.316282e-002
1.878406e+003;1.296327e-002
1.880334e+003;1.273546e-002
1.882263e+003;1.255098e-002
1.884191e+003;1.255784e-002
1.886120e+003;1.281746e-002
1.888048e+003;1.281343e-002
1.889977e+003;1.254488e-002
1.891906e+003;1.272809e-002
1.893834e+003;1.272205e-002
1.895763e+003;1.278979e-002
1.897691e+003;1.276948e-002
1.899620e+003;1.261128e-002
1.901548e+003;1.258441e-002
1.903477e+003;1.257919e-002
1.905405e+003;1.234200e-002
1.907334e+003;1.216102e-002
1.909262e+003;1.235717e-002
1.911191e+003;1.261545e-002
1.913120e+003;1.255327e-002
1.915048e+003;1.241356e-002
1.916977e+003;1.214157e-002
1.918905e+003;1.246808e-002
1.920834e+003;1.288586e-002
1.922762e+003;1.295552e-002
1.924691e+003;1.300059e-002
1.926619e+003;1.290931e-002
1.928548e+003;1.281746e-002
1.930477e+003;1.293180e-002
1.932405e+003;1.297676e-002
1.934334e+003;1.296573e-002
1.936262e+003;1.314838e-002
1.938191e+003;1.339041e-002
1.940119e+003;1.322936e-002
1.942048e+003;1.294969e-002
1.943976e+003;1.304456e-002
1.945905e+003;1.331025e-002
1.947833e+003;1.355878e-002
1.949762e+003;1.375477e-002
1.951691e+003;1.361036e-002
1.953619e+003;1.338812e-002
1.955548e+003;1.363491e-002
1.957476e+003;1.392190e-002
1.959405e+003;1.384664e-002
1.961333e+003;1.371031e-002
1.963262e+003;1.383282e-002
1.965190e+003;1.388731e-002
1.967119e+003;1.368234e-002
1.969047e+003;1.353878e-002
1.970976e+003;1.360496e-002
1.972905e+003;1.394010e-002
1.974833e+003;1.403212e-002
1.976762e+003;1.410300e-002
1.978690e+003;1.427533e-002
1.980619e+003;1.431656e-002
1.982547e+003;1.430995e-002
1.984476e+003;1.431345e-002
1.986404e+003;1.445000e-002
1.988333e+003;1.448806e-002
1.990261e+003;1.435605e-002
1.992190e+003;1.423329e-002
1.994119e+003;1.432502e-002
1.996047e+003;1.443784e-002
1.997976e+003;1.461370e-002
1.999904e+003;1.473290e-002
2.001833e+003;1.468440e-002
2.003761e+003;1.469485e-002
2.005690e+003;1.482080e-002
2.007618e+003;1.503197e-002
2.009547e+003;1.505272e-002
2.011476e+003;1.509344e-002
2.013404e+003;1.495977e-002
2.015333e+003;1.502895e-002
2.017261e+003;1.546438e-002
2.019190e+003;1.573647e-002
2.021118e+003;1.579292e-002
2.023047e+003;1.561682e-002
2.024975e+003;1.540793e-002
2.026904e+003;1.566113e-002
2.028833e+003;1.607597e-002
2.030761e+003;1.624177e-002
2.032690e+003;1.617037e-002
2.034618e+003;1.611565e-002
2.036547e+003;1.622282e-002
2.038475e+003;1.630517e-002
2.040404e+003;1.636228e-002
2.042332e+003;1.660240e-002
2.044261e+003;1.671501e-002
2.046189e+003;1.650206e-002
2.048118e+003;1.640766e-002
2.050047e+003;1.647091e-002
2.051975e+003;1.646444e-002
2.053904e+003;1.654408e-002
2.055832e+003;1.650632e-002
2.057761e+003;1.634177e-002
2.059689e+003;1.606896e-002
2.061618e+003;1.587226e-002
2.063546e+003;1.581457e-002
2.065475e+003;1.577611e-002
2.067404e+003;1.575921e-002
2.069332e+003;1.580773e-002
2.071260e+003;1.580543e-002
2.073189e+003;1.584646e-002
2.075118e+003;1.594747e-002
2.077046e+003;1.597737e-002
2.078975e+003;1.610823e-002
2.080903e+003;1.618182e-002
2.082832e+003;1.592114e-002
2.084760e+003;1.590186e-002
2.086689e+003;1.595025e-002
2.088617e+003;1.587378e-002
2.090546e+003;1.592062e-002
2.092475e+003;1.592705e-002
2.094403e+003;1.600886e-002
2.096332e+003;1.591694e-002
2.098260e+003;1.577529e-002
2.100189e+003;1.599136e-002
2.102117e+003;1.607848e-002
2.104046e+003;1.618292e-002
2.105974e+003;1.645893e-002
2.107903e+003;1.644365e-002
2.109832e+003;1.632261e-002
2.111760e+003;1.659307e-002
2.113688e+003;1.702569e-002
2.115617e+003;1.706880e-002
2.117546e+003;1.687644e-002
2.119474e+003;1.678358e-002
2.121403e+003;1.677242e-002
2.123331e+003;1.673230e-002
2.125260e+003;1.680107e-002
2.127188e+003;1.677793e-002
2.129117e+003;1.664181e-002
2.131045e+003;1.676564e-002
2.132974e+003;1.696184e-002
2.134903e+003;1.704478e-002
2.136831e+003;1.696749e-002
2.138760e+003;1.684995e-002
2.140688e+003;1.682046e-002
2.142617e+003;1.677790e-002
2.144545e+003;1.656143e-002
2.146474e+003;1.635884e-002
2.148402e+003;1.645556e-002
2.150331e+003;1.658119e-002
2.152260e+003;1.652797e-002
2.154188e+003;1.642019e-002
2.156117e+003;1.640739e-002
2.158045e+003;1.616056e-002
2.159974e+003;1.588216e-002
2.161902e+003;1.576887e-002
2.163831e+003;1.558601e-002
2.165759e+003;1.562135e-002
2.167688e+003;1.555307e-002
2.169616e+003;1.512439e-002
2.171545e+003;1.514988e-002
2.173474e+003;1.523137e-002
2.175402e+003;1.498378e-002
2.177331e+003;1.490566e-002
2.179259e+003;1.478137e-002
2.181188e+003;1.434108e-002
2.183116e+003;1.421209e-002
2.185045e+003;1.433752e-002
2.186973e+003;1.412603e-002
2.188902e+003;1.379249e-002
2.190831e+003;1.375271e-002
2.192759e+003;1.378363e-002
2.194688e+003;1.386798e-002
2.196616e+003;1.387517e-002
2.198545e+003;1.352603e-002
2.200473e+003;1.329720e-002
2.202402e+003;1.358571e-002
2.204330e+003;1.372594e-002
2.206259e+003;1.344424e-002
2.208188e+003;1.328924e-002
2.210116e+003;1.337446e-002
2.212044e+003;1.355908e-002
2.213973e+003;1.359378e-002
2.215902e+003;1.349892e-002
2.217830e+003;1.342264e-002
2.219759e+003;1.345015e-002
2.221687e+003;1.356759e-002
2.223616e+003;1.354674e-002
2.225544e+003;1.353967e-002
2.227473e+003;1.372402e-002
2.229401e+003;1.377389e-002
2.231330e+003;1.351567e-002
2.233259e+003;1.346529e-002
2.235187e+003;1.361819e-002
2.237116e+003;1.361836e-002
2.239044e+003;1.355884e-002
2.240973e+003;1.341495e-002
2.242901e+003;1.342797e-002
2.244830e+003;1.346990e-002
2.246758e+003;1.334258e-002
2.248687e+003;1.332805e-002
2.250615e+003;1.316880e-002
2.252544e+003;1.306334e-002
2.254473e+003;1.326400e-002
2.256401e+003;1.336502e-002
2.258330e+003;1.303640e-002
2.260258e+003;1.274072e-002
2.262187e+003;1.275150e-002
2.264115e+003;1.253366e-002
2.266044e+003;1.260562e-002
2.267972e+003;1.288620e-002
2.269901e+003;1.257179e-002
2.271830e+003;1.230965e-002
2.273758e+003;1.236647e-002
2.275687e+003;1.246429e-002
2.277615e+003;1.251040e-002
2.279544e+003;1.228006e-002
2.281472e+003;1.195400e-002
2.283401e+003;1.180287e-002
2.285329e+003;1.182521e-002
2.287258e+003;1.203789e-002
2.289187e+003;1.213669e-002
2.291115e+003;1.212620e-002
2.293043e+003;1.207455e-002
2.294972e+003;1.190479e-002
2.296901e+003;1.190843e-002
2.298829e+003;1.193077e-002
2.300758e+003;1.203401e-002
2.302686e+003;1.198288e-002
2.304615e+003;1.183695e-002
2.306543e+003;1.182555e-002
2.308472e+003;1.196623e-002
2.310400e+003;1.169152e-002
2.312329e+003;1.128482e-002
2.314258e+003;1.148128e-002
2.316186e+003;1.189532e-002
2.318115e+003;1.189287e-002
2.320043e+003;1.179331e-002
2.321972e+003;1.189954e-002
2.323900e+003;1.207329e-002
2.325829e+003;1.194538e-002
2.327757e+003;1.180413e-002
2.329686e+003;1.199204e-002
2.331615e+003;1.221633e-002
2.333543e+003;1.216896e-002
2.335472e+003;1.208746e-002
2.337400e+003;1.221578e-002
2.339329e+003;1.242109e-002
2.341257e+003;1.262431e-002
2.343186e+003;1.283415e-002
2.345114e+003;1.282067e-002
2.347043e+003;1.271250e-002
2.348971e+003;1.279525e-002
2.350900e+003;1.307106e-002
2.352829e+003;1.311699e-002
2.354757e+003;1.326752e-002
2.356686e+003;1.345087e-002
2.358614e+003;1.337910e-002
2.360543e+003;1.325416e-002
2.362471e+003;1.361535e-002
2.364400e+003;1.398558e-002
2.366328e+003;1.402401e-002
2.368257e+003;1.386063e-002
2.370186e+003;1.383491e-002
2.372114e+003;1.375022e-002
2.374042e+003;1.341495e-002
2.375971e+003;1.333349e-002
2.377900e+003;1.373972e-002
2.379828e+003;1.402226e-002
2.381757e+003;1.415595e-002
2.383685e+003;1.423021e-002
2.385614e+003;1.412935e-002
2.387542e+003;1.422856e-002
2.389471e+003;1.461031e-002
2.391399e+003;1.491337e-002
2.393328e+003;1.523964e-002
2.395257e+003;1.536478e-002
2.397185e+003;1.506538e-002
2.399114e+003;1.494983e-002
2.401042e+003;1.501208e-002
2.402971e+003;1.505910e-002
2.404899e+003;1.526246e-002
2.406828e+003;1.547015e-002
2.408756e+003;1.545960e-002
2.410685e+003;1.554013e-002
2.412614e+003;1.588539e-002
2.414542e+003;1.605947e-002
2.416471e+003;1.602891e-002
2.418399e+003;1.601577e-002
2.420328e+003;1.607800e-002
2.422256e+003;1.625587e-002
2.424185e+003;1.644317e-002
2.426113e+003;1.665779e-002
2.428042e+003;1.688960e-002
2.429970e+003;1.725790e-002
2.431899e+003;1.731293e-002
2.433828e+003;1.726772e-002
2.435756e+003;1.739007e-002
2.437685e+003;1.753256e-002
2.439613e+003;1.769670e-002
2.441542e+003;1.795842e-002
2.443470e+003;1.822458e-002
2.445399e+003;1.827022e-002
2.447327e+003;1.831038e-002
2.449256e+003;1.835034e-002
2.451185e+003;1.862624e-002
2.453113e+003;1.914902e-002
2.455042e+003;1.934017e-002
2.456970e+003;1.911366e-002
2.458899e+003;1.920231e-002
2.460827e+003;1.956839e-002
2.462756e+003;1.942488e-002
2.464684e+003;1.919552e-002
2.466613e+003;1.939494e-002
2.468542e+003;1.960260e-002
2.470470e+003;1.968237e-002
2.472398e+003;1.978289e-002
2.474327e+003;2.008733e-002
2.476256e+003;2.046701e-002
2.478184e+003;2.047482e-002
2.480113e+003;2.060752e-002
2.482041e+003;2.108107e-002
2.483970e+003;2.135875e-002
2.485898e+003;2.152167e-002
2.487827e+003;2.162153e-002
2.489755e+003;2.174783e-002
2.491684e+003;2.184304e-002
2.493613e+003;2.182057e-002
2.495541e+003;2.194330e-002
2.497470e+003;2.212976e-002
2.499398e+003;2.194051e-002
2.501327e+003;2.189820e-002
2.503255e+003;2.225080e-002
2.505184e+003;2.263701e-002
2.507112e+003;2.280693e-002
2.509041e+003;2.313175e-002
2.510969e+003;2.347509e-002
2.512898e+003;2.352703e-002
2.514827e+003;2.355708e-002
2.516755e+003;2.355257e-002
2.518684e+003;2.349965e-002
2.520612e+003;2.387552e-002
2.522541e+003;2.423950e-002
2.524469e+003;2.413917e-002
2.526398e+003;2.400832e-002
2.528326e+003;2.420173e-002
2.530255e+003;2.447725e-002
2.532184e+003;2.440476e-002
2.534112e+003;2.436586e-002
2.536041e+003;2.443161e-002
2.537969e+003;2.456651e-002
2.539898e+003;2.471127e-002
2.541826e+003;2.479967e-002
2.543755e+003;2.508901e-002
2.545683e+003;2.515764e-002
2.547612e+003;2.498683e-002
2.549541e+003;2.484671e-002
2.551469e+003;2.480893e-002
2.553397e+003;2.508855e-002
2.555326e+003;2.549026e-002
2.557255e+003;2.548250e-002
2.559183e+003;2.527854e-002
2.561112e+003;2.521940e-002
2.563040e+003;2.535739e-002
2.564969e+003;2.546819e-002
2.566897e+003;2.562658e-002
2.568826e+003;2.566426e-002
2.570754e+003;2.554828e-002
2.572683e+003;2.550196e-002
2.574612e+003;2.538075e-002
2.576540e+003;2.547751e-002
2.578469e+003;2.567958e-002
2.580397e+003;2.589431e-002
2.582326e+003;2.619181e-002
2.584254e+003;2.608765e-002
2.586183e+003;2.583224e-002
2.588111e+003;2.589502e-002
2.590040e+003;2.628998e-002
2.591969e+003;2.685970e-002
2.593897e+003;2.701405e-002
2.595826e+003;2.695238e-002
2.597754e+003;2.713268e-002
2.599683e+003;2.719289e-002
2.601611e+003;2.725593e-002
2.603540e+003;2.759115e-002
2.605468e+003;2.776045e-002
2.607397e+003;2.772703e-002
2.609325e+003;2.760531e-002
2.611254e+003;2.779531e-002
2.613183e+003;2.830710e-002
2.615111e+003;2.857540e-002
2.617040e+003;2.882524e-002
2.618968e+003;2.905555e-002
2.620897e+003;2.914622e-002
2.622825e+003;2.926136e-002
2.624754e+003;2.910778e-002
2.626682e+003;2.917641e-002
2.628611e+003;2.984018e-002
2.630540e+003;3.044494e-002
2.632468e+003;3.065941e-002
2.634396e+003;3.063903e-002
2.636325e+003;3.055221e-002
2.638254e+003;3.062378e-002
2.640182e+003;3.073163e-002
2.642111e+003;3.121058e-002
2.644039e+003;3.170724e-002
2.645968e+003;3.203018e-002
2.647896e+003;3.205030e-002
2.649825e+003;3.187598e-002
2.651753e+003;3.199327e-002
2.653682e+003;3.240835e-002
2.655611e+003;3.258542e-002
2.657539e+003;3.250936e-002
2.659468e+003;3.269073e-002
2.661396e+003;3.285773e-002
2.663325e+003;3.308777e-002
2.665253e+003;3.383792e-002
2.667182e+003;3.425340e-002
2.669110e+003;3.426792e-002
2.671039e+003;3.426151e-002
2.672968e+003;3.424950e-002
2.674896e+003;3.421805e-002
2.676825e+003;3.445796e-002
2.678753e+003;3.508459e-002
2.680682e+003;3.542185e-002
2.682610e+003;3.560923e-002
2.684539e+003;3.586099e-002
2.686467e+003;3.611599e-002
2.688396e+003;3.628702e-002
2.690324e+003;3.658001e-002
2.692253e+003;3.696980e-002
2.694182e+003;3.715478e-002
2.696110e+003;3.731029e-002
2.698039e+003;3.735204e-002
2.699967e+003;3.781359e-002
2.701896e+003;3.852941e-002
2.703824e+003;3.860194e-002
2.705753e+003;3.849849e-002
2.707681e+003;3.872726e-002
2.709610e+003;3.919223e-002
2.711539e+003;3.909552e-002
2.713467e+003;3.894118e-002
2.715396e+003;3.915654e-002
2.717324e+003;3.947532e-002
2.719253e+003;3.974980e-002
2.721181e+003;3.978739e-002
2.723110e+003;4.016688e-002
2.725038e+003;4.030567e-002
2.726967e+003;4.038675e-002
2.728896e+003;4.062558e-002
2.730824e+003;4.068346e-002
2.732752e+003;4.076829e-002
2.734681e+003;4.098486e-002
2.736610e+003;4.110981e-002
2.738538e+003;4.103497e-002
2.740467e+003;4.116966e-002
2.742395e+003;4.137764e-002
2.744324e+003;4.154799e-002
2.746252e+003;4.176510e-002
2.748181e+003;4.189005e-002
2.750109e+003;4.169327e-002
2.752038e+003;4.184846e-002
2.753967e+003;4.203019e-002
2.755895e+003;4.188779e-002
2.757824e+003;4.213785e-002
2.759752e+003;4.235747e-002
2.761681e+003;4.227296e-002
2.763609e+003;4.267254e-002
2.765538e+003;4.350115e-002
2.767466e+003;4.429506e-002
2.769395e+003;4.457118e-002
2.771323e+003;4.457368e-002
2.773252e+003;4.462057e-002
2.775181e+003;4.455727e-002
2.777109e+003;4.481563e-002
2.779038e+003;4.496763e-002
2.780966e+003;4.523705e-002
2.782895e+003;4.542348e-002
2.784823e+003;4.563885e-002
2.786752e+003;4.636696e-002
2.788680e+003;4.681874e-002
2.790609e+003;4.689803e-002
2.792538e+003;4.699619e-002
2.794466e+003;4.740605e-002
2.796395e+003;4.772191e-002
2.798323e+003;4.787505e-002
2.800252e+003;4.840674e-002
2.802180e+003;4.921721e-002
2.804109e+003;5.002771e-002
2.806037e+003;5.038894e-002
2.807966e+003;5.087459e-002
2.809895e+003;5.151221e-002
2.811823e+003;5.195101e-002
2.813751e+003;5.256445e-002
2.815680e+003;5.349829e-002
2.817609e+003;5.447835e-002
2.819537e+003;5.546522e-002
2.821466e+003;5.582732e-002
2.823394e+003;5.632410e-002
2.825323e+003;5.718725e-002
2.827251e+003;5.751637e-002
2.829180e+003;5.812712e-002
2.831108e+003;5.901929e-002
2.833037e+003;6.018352e-002
2.834966e+003;6.166383e-002
2.836894e+003;6.286938e-002
2.838823e+003;6.415255e-002
2.840751e+003;6.611477e-002
2.842680e+003;6.845239e-002
2.844608e+003;7.147314e-002
2.846537e+003;7.535911e-002
2.848465e+003;7.891011e-002
2.850394e+003;8.057318e-002
2.852323e+003;8.042116e-002
2.854251e+003;7.919034e-002
2.856180e+003;7.842020e-002
2.858108e+003;7.867894e-002
2.860037e+003;7.959363e-002
2.861965e+003;8.121594e-002
2.863894e+003;8.245512e-002
2.865822e+003;8.324767e-002
2.867751e+003;8.383958e-002
2.869679e+003;8.476017e-002
2.871608e+003;8.569160e-002
2.873536e+003;8.616474e-002
2.875465e+003;8.628063e-002
2.877394e+003;8.688511e-002
2.879322e+003;8.777840e-002
2.881251e+003;8.881295e-002
2.883179e+003;8.957297e-002
2.885108e+003;9.027260e-002
2.887036e+003;9.134701e-002
2.888965e+003;9.221721e-002
2.890893e+003;9.243540e-002
2.892822e+003;9.289736e-002
2.894750e+003;9.284504e-002
2.896679e+003;9.269632e-002
2.898608e+003;9.291866e-002
2.900536e+003;9.297545e-002
2.902465e+003;9.277312e-002
2.904393e+003;9.246525e-002
2.906322e+003;9.212356e-002
2.908250e+003;9.209382e-002
2.910179e+003;9.249227e-002
2.912107e+003;9.267512e-002
2.914036e+003;9.286613e-002
2.915965e+003;9.285090e-002
2.917893e+003;9.228806e-002
2.919822e+003;9.089357e-002
2.921750e+003;8.853579e-002
2.923679e+003;8.533846e-002
2.925607e+003;8.240317e-002
2.927536e+003;7.998391e-002
2.929464e+003;7.783705e-002
2.931393e+003;7.600323e-002
2.933322e+003;7.402618e-002
2.935250e+003;7.261958e-002
2.937178e+003;7.215796e-002
2.939107e+003;7.130256e-002
2.941036e+003;6.987835e-002
2.942964e+003;6.888536e-002
2.944893e+003;6.795537e-002
2.946821e+003;6.682210e-002
2.948750e+003;6.542889e-002
2.950678e+003;6.414621e-002
2.952607e+003;6.266148e-002
2.954535e+003;6.114077e-002
2.956464e+003;6.040184e-002
2.958393e+003;5.943862e-002
2.960321e+003;5.797457e-002
2.962250e+003;5.673392e-002
2.964178e+003;5.560413e-002
2.966107e+003;5.453939e-002
2.968035e+003;5.377519e-002
2.969964e+003;5.348652e-002
2.971892e+003;5.303348e-002
2.973821e+003;5.208420e-002
2.975750e+003;5.060024e-002
2.977678e+003;4.913580e-002
2.979607e+003;4.812802e-002
2.981535e+003;4.727606e-002
2.983464e+003;4.692353e-002
2.985392e+003;4.629308e-002
2.987321e+003;4.534370e-002
2.989249e+003;4.473456e-002
2.991178e+003;4.417964e-002
2.993106e+003;4.371847e-002
2.995035e+003;4.373774e-002
2.996964e+003;4.359196e-002
2.998892e+003;4.289686e-002
3.000821e+003;4.219474e-002
3.002749e+003;4.238224e-002
3.004678e+003;4.269875e-002
3.006606e+003;4.242290e-002
3.008535e+003;4.261391e-002
3.010463e+003;4.305562e-002
3.012392e+003;4.317568e-002
3.014321e+003;4.330203e-002
3.016249e+003;4.377395e-002
3.018177e+003;4.422917e-002
3.020106e+003;4.401629e-002
3.022035e+003;4.367233e-002
3.023963e+003;4.400830e-002
3.025892e+003;4.441290e-002
3.027820e+003;4.505977e-002
3.029749e+003;4.583956e-002
3.031677e+003;4.629725e-002
3.033606e+003;4.663758e-002
3.035534e+003;4.663112e-002
3.037463e+003;4.670398e-002
3.039392e+003;4.733329e-002
3.041320e+003;4.805215e-002
3.043249e+003;4.821254e-002
3.045177e+003;4.841197e-002
3.047106e+003;4.883270e-002
3.049034e+003;4.922938e-002
3.050963e+003;4.973502e-002
3.052891e+003;5.022347e-002
3.054820e+003;5.069976e-002
3.056749e+003;5.101449e-002
3.058677e+003;5.158926e-002
3.060606e+003;5.221643e-002
3.062534e+003;5.225794e-002
3.064463e+003;5.252350e-002
3.066391e+003;5.320524e-002
3.068320e+003;5.338306e-002
3.070248e+003;5.399369e-002
3.072177e+003;5.489252e-002
3.074105e+003;5.528523e-002
3.076034e+003;5.588682e-002
3.077963e+003;5.661413e-002
3.079891e+003;5.713706e-002
3.081820e+003;5.760867e-002
3.083748e+003;5.784592e-002
3.085677e+003;5.861645e-002
3.087605e+003;5.930741e-002
3.089534e+003;5.912282e-002
3.091462e+003;5.905243e-002
3.093391e+003;6.004999e-002
3.095320e+003;6.103299e-002
3.097248e+003;6.153435e-002
3.099177e+003;6.192016e-002
3.101105e+003;6.192971e-002
3.103034e+003;6.226534e-002
3.104962e+003;6.318527e-002
3.106891e+003;6.397691e-002
3.108819e+003;6.425818e-002
3.110748e+003;6.476460e-002
3.112677e+003;6.572253e-002
3.114605e+003;6.618179e-002
3.116533e+003;6.657252e-002
3.118462e+003;6.741846e-002
3.120391e+003;6.849141e-002
3.122319e+003;6.877731e-002
3.124248e+003;6.843435e-002
3.126176e+003;6.929294e-002
3.128105e+003;7.053551e-002
3.130033e+003;7.131446e-002
3.131962e+003;7.244099e-002
3.133890e+003;7.319113e-002
3.135819e+003;7.331264e-002
3.137748e+003;7.365695e-002
3.139676e+003;7.434291e-002
3.141605e+003;7.482237e-002
3.143533e+003;7.514098e-002
3.145462e+003;7.546065e-002
3.147390e+003;7.648473e-002
3.149319e+003;7.749994e-002
3.151247e+003;7.853917e-002
3.153176e+003;7.936477e-002
3.155104e+003;7.998076e-002
3.157033e+003;8.019500e-002
3.158962e+003;8.069410e-002
3.160890e+003;8.159173e-002
3.162819e+003;8.208948e-002
3.164747e+003;8.262710e-002
3.166676e+003;8.307965e-002
3.168604e+003;8.357336e-002
3.170533e+003;8.478615e-002
3.172461e+003;8.615766e-002
3.174390e+003;8.729894e-002
3.176319e+003;8.781122e-002
3.178247e+003;8.835980e-002
3.180176e+003;8.893818e-002
3.182104e+003;8.930554e-002
3.184033e+003;8.977419e-002
3.185961e+003;9.058242e-002
3.187890e+003;9.158600e-002
3.189818e+003;9.261101e-002
3.191747e+003;9.315337e-002
3.193676e+003;9.384157e-002
3.195604e+003;9.494378e-002
3.197532e+003;9.566575e-002
3.199461e+003;9.657586e-002
3.201390e+003;9.753964e-002
3.203318e+003;9.825726e-002
3.205247e+003;9.910472e-002
3.207175e+003;9.983309e-002
3.209104e+003;1.008918e-001
3.211032e+003;1.021199e-001
3.212961e+003;1.029832e-001
3.214889e+003;1.039096e-001
3.216818e+003;1.050410e-001
3.218747e+003;1.064262e-001
3.220675e+003;1.073391e-001
3.222604e+003;1.078864e-001
3.224532e+003;1.083073e-001
3.226461e+003;1.089421e-001
3.228389e+003;1.097328e-001
3.230318e+003;1.107967e-001
3.232246e+003;1.117690e-001
3.234175e+003;1.129069e-001
3.236104e+003;1.140600e-001
3.238032e+003;1.148115e-001
3.239961e+003;1.156685e-001
3.241889e+003;1.170795e-001
3.243818e+003;1.181579e-001
3.245746e+003;1.187619e-001
3.247675e+003;1.202352e-001
3.249603e+003;1.215797e-001
3.251532e+003;1.223873e-001
3.253460e+003;1.232837e-001
3.255389e+003;1.240974e-001
3.257318e+003;1.246458e-001
3.259246e+003;1.254322e-001
3.261175e+003;1.265693e-001
3.263103e+003;1.275397e-001
3.265032e+003;1.289656e-001
3.266960e+003;1.303342e-001
3.268889e+003;1.307445e-001
3.270817e+003;1.314797e-001
3.272746e+003;1.326631e-001
3.274675e+003;1.334674e-001
3.276603e+003;1.338027e-001
3.278531e+003;1.338781e-001
3.280460e+003;1.344491e-001
3.282389e+003;1.354243e-001
3.284317e+003;1.356521e-001
3.286246e+003;1.357175e-001
3.288174e+003;1.367321e-001
3.290103e+003;1.376626e-001
3.292031e+003;1.376268e-001
3.293960e+003;1.373554e-001
3.295888e+003;1.373236e-001
3.297817e+003;1.374729e-001
3.299746e+003;1.376142e-001
3.301674e+003;1.375220e-001
3.303603e+003;1.372306e-001
3.305531e+003;1.373376e-001
3.307460e+003;1.376762e-001
3.309388e+003;1.379774e-001
3.311317e+003;1.382516e-001
3.313245e+003;1.384236e-001
3.315174e+003;1.386838e-001
3.317103e+003;1.389171e-001
3.319031e+003;1.391629e-001
3.320960e+003;1.392059e-001
3.322888e+003;1.395574e-001
3.324817e+003;1.403861e-001
3.326745e+003;1.412462e-001
3.328674e+003;1.413983e-001
3.330602e+003;1.415754e-001
3.332531e+003;1.417739e-001
3.334459e+003;1.419143e-001
3.336388e+003;1.416954e-001
3.338317e+003;1.413676e-001
3.340245e+003;1.413124e-001
3.342174e+003;1.408796e-001
3.344102e+003;1.399807e-001
3.346031e+003;1.398021e-001
3.347959e+003;1.401905e-001
3.349888e+003;1.401195e-001
3.351816e+003;1.390227e-001
3.353745e+003;1.379929e-001
3.355674e+003;1.366620e-001
3.357602e+003;1.354589e-001
3.359531e+003;1.350144e-001
3.361459e+003;1.343560e-001
3.363388e+003;1.336309e-001
3.365316e+003;1.332107e-001
3.367245e+003;1.323907e-001
3.369173e+003;1.316542e-001
3.371102e+003;1.312304e-001
3.373031e+003;1.307548e-001
3.374959e+003;1.298939e-001
3.376887e+003;1.287469e-001
3.378816e+003;1.285225e-001
3.380745e+003;1.277253e-001
3.382673e+003;1.267401e-001
3.384602e+003;1.261696e-001
3.386530e+003;1.252095e-001
3.388459e+003;1.238901e-001
3.390387e+003;1.232577e-001
3.392316e+003;1.233319e-001
3.394244e+003;1.231255e-001
3.396173e+003;1.222176e-001
3.398102e+003;1.210957e-001
3.400030e+003;1.206319e-001
3.401959e+003;1.201052e-001
3.403887e+003;1.194291e-001
3.405816e+003;1.185046e-001
3.407744e+003;1.172218e-001
3.409673e+003;1.158259e-001
3.411601e+003;1.141718e-001
3.413530e+003;1.133651e-001
3.415458e+003;1.133713e-001
3.417387e+003;1.122610e-001
3.419316e+003;1.111864e-001
3.421244e+003;1.101773e-001
3.423173e+003;1.085926e-001
3.425101e+003;1.074465e-001
3.427030e+003;1.067528e-001
3.428958e+003;1.055457e-001
3.430887e+003;1.039964e-001
3.432815e+003;1.031056e-001
3.434744e+003;1.027704e-001
3.436673e+003;1.020855e-001
3.438601e+003;1.013017e-001
3.440530e+003;1.002630e-001
3.442458e+003;9.889197e-002
3.444387e+003;9.711495e-002
3.446315e+003;9.595858e-002
3.448244e+003;9.600858e-002
3.450172e+003;9.495425e-002
3.452101e+003;9.375077e-002
3.454030e+003;9.319768e-002
3.455958e+003;9.235572e-002
3.457886e+003;9.114187e-002
3.459815e+003;8.981396e-002
3.461744e+003;8.801130e-002
3.463672e+003;8.678880e-002
3.465601e+003;8.650775e-002
3.467529e+003;8.595734e-002
3.469458e+003;8.454794e-002
3.471386e+003;8.331180e-002
3.473315e+003;8.214203e-002
3.475243e+003;8.123512e-002
3.477172e+003;8.062369e-002
3.479101e+003;7.977256e-002
3.481029e+003;7.841337e-002
3.482958e+003;7.674869e-002
3.484886e+003;7.552996e-002
3.486815e+003;7.471587e-002
3.488743e+003;7.428610e-002
3.490672e+003;7.387478e-002
3.492600e+003;7.264825e-002
3.494529e+003;7.129467e-002
3.496458e+003;7.041158e-002
3.498386e+003;6.905453e-002
3.500315e+003;6.780960e-002
3.502243e+003;6.672240e-002
3.504172e+003;6.547832e-002
3.506100e+003;6.465341e-002
3.508029e+003;6.369059e-002
3.509957e+003;6.291322e-002
3.511886e+003;6.268648e-002
3.513814e+003;6.228569e-002
3.515743e+003;6.112742e-002
3.517672e+003;5.993050e-002
3.519600e+003;5.822349e-002
3.521529e+003;5.684102e-002
3.523457e+003;5.618221e-002
3.525386e+003;5.569346e-002
3.527314e+003;5.489196e-002
3.529243e+003;5.411096e-002
3.531171e+003;5.303202e-002
3.533100e+003;5.220671e-002
3.535029e+003;5.107926e-002
3.536957e+003;4.959014e-002
3.538885e+003;4.864546e-002
3.540814e+003;4.760706e-002
3.542743e+003;4.657225e-002
3.544671e+003;4.592662e-002
3.546600e+003;4.552113e-002
3.548528e+003;4.484704e-002
3.550457e+003;4.367138e-002
3.552385e+003;4.221139e-002
3.554314e+003;4.171775e-002
3.556242e+003;4.130713e-002
3.558171e+003;4.062852e-002
3.560100e+003;3.987538e-002
3.562028e+003;3.810330e-002
3.563957e+003;3.645113e-002
3.565885e+003;3.546172e-002
3.567814e+003;3.482887e-002
3.569742e+003;3.461115e-002
3.571671e+003;3.390498e-002
3.573599e+003;3.258796e-002
3.575528e+003;3.207278e-002
3.577457e+003;3.139843e-002
3.579385e+003;3.057539e-002
3.581314e+003;3.059171e-002
3.583242e+003;2.960803e-002
3.585171e+003;2.770616e-002
3.587099e+003;2.569249e-002
3.589028e+003;2.490499e-002
3.590956e+003;2.503783e-002
3.592885e+003;2.439263e-002
3.594813e+003;2.324198e-002
3.596742e+003;2.266822e-002
3.598671e+003;2.225156e-002
3.600599e+003;2.135499e-002
3.602528e+003;2.047545e-002
3.604456e+003;1.927913e-002
3.606385e+003;1.776708e-002
3.608313e+003;1.626278e-002
3.610242e+003;1.547969e-002
3.612170e+003;1.432944e-002
3.614099e+003;1.423983e-002
3.616028e+003;1.373144e-002
3.617956e+003;1.171906e-002
3.619885e+003;1.084384e-002
3.621813e+003;1.129063e-002
3.623742e+003;1.138079e-002
3.625670e+003;1.006367e-002
3.627599e+003;6.227614e-003
3.629527e+003;5.716231e-003
3.631456e+003;7.699278e-003
3.633385e+003;7.373701e-003
3.635313e+003;7.090196e-003
3.637241e+003;7.248215e-003
3.639170e+003;6.442687e-003
3.641099e+003;4.452703e-003
3.643027e+003;3.039794e-003
3.644956e+003;1.754840e-003
3.646884e+003;-6.722992e-004
3.648813e+003;-3.047159e-003
3.650741e+003;-2.634334e-003
3.652670e+003;-1.118489e-003
3.654598e+003;-2.087390e-003
3.656527e+003;-2.346003e-003
3.658456e+003;-1.317133e-003
3.660384e+003;-2.260772e-003
3.662313e+003;-3.242621e-003
3.664241e+003;-3.447298e-003
3.666170e+003;-4.467959e-003
3.668098e+003;-6.937237e-003
3.670027e+003;-8.504462e-003
3.671955e+003;-7.937538e-003
3.673884e+003;-9.853200e-003
3.675813e+003;-1.048989e-002
3.677741e+003;-7.698999e-003
3.679669e+003;-6.452364e-003
3.681598e+003;-6.573429e-003
3.683527e+003;-7.305855e-003
3.685455e+003;-8.934015e-003
3.687384e+003;-1.229101e-002
3.689312e+003;-1.264623e-002
3.691241e+003;-1.073945e-002
3.693169e+003;-9.067435e-003
3.695098e+003;-8.375647e-003
3.697026e+003;-8.233788e-003
3.698955e+003;-9.008568e-003
3.700884e+003;-9.799752e-003
3.702812e+003;-9.547227e-003
3.704741e+003;-9.608906e-003
3.706669e+003;-1.031485e-002
3.708598e+003;-1.153146e-002
3.710526e+003;-1.291166e-002
3.712455e+003;-1.246700e-002
3.714383e+003;-1.083505e-002
3.716312e+003;-1.088314e-002
3.718240e+003;-1.163811e-002
3.720169e+003;-1.164663e-002
3.722098e+003;-1.135773e-002
3.724026e+003;-1.110841e-002
3.725955e+003;-1.112249e-002
3.727883e+003;-1.102026e-002
3.729812e+003;-1.212307e-002
3.731740e+003;-1.432182e-002
3.733669e+003;-1.573474e-002
3.735597e+003;-1.573305e-002
3.737526e+003;-1.398347e-002
3.739455e+003;-1.307646e-002
3.741383e+003;-1.433881e-002
3.743312e+003;-1.783432e-002
3.745240e+003;-1.636575e-002
3.747169e+003;-1.432673e-002
3.749097e+003;-1.646670e-002
3.751026e+003;-1.765266e-002
3.752954e+003;-1.545418e-002
3.754883e+003;-1.243345e-002
3.756812e+003;-1.271233e-002
3.758740e+003;-1.322906e-002
3.760668e+003;-1.269830e-002
3.762597e+003;-1.234737e-002
3.764526e+003;-1.315005e-002
3.766454e+003;-1.322424e-002
3.768383e+003;-1.294552e-002
3.770311e+003;-1.258054e-002
3.772240e+003;-1.174681e-002
3.774168e+003;-1.176261e-002
3.776097e+003;-1.258668e-002
3.778025e+003;-1.331972e-002
3.779954e+003;-1.364758e-002
3.781883e+003;-1.305077e-002
3.783811e+003;-1.288184e-002
3.785740e+003;-1.275583e-002
3.787668e+003;-1.279254e-002
3.789597e+003;-1.245518e-002
3.791525e+003;-1.274325e-002
3.793454e+003;-1.366553e-002
3.795382e+003;-1.425780e-002
3.797311e+003;-1.360593e-002
3.799240e+003;-1.519446e-002
3.801168e+003;-1.694177e-002
3.803097e+003;-1.519766e-002
3.805025e+003;-1.497390e-002
3.806954e+003;-1.534011e-002
3.808882e+003;-1.366000e-002
3.810811e+003;-1.281078e-002
3.812739e+003;-1.358194e-002
3.814668e+003;-1.660854e-002
3.816596e+003;-1.664432e-002
3.818525e+003;-1.551781e-002
3.820454e+003;-1.675094e-002
3.822382e+003;-1.499979e-002
3.824311e+003;-1.362154e-002
3.826239e+003;-1.391997e-002
3.828168e+003;-1.299611e-002
3.830096e+003;-1.319595e-002
3.832025e+003;-1.388502e-002
3.833953e+003;-1.425821e-002
3.835882e+003;-1.572087e-002
3.837811e+003;-1.637494e-002
3.839739e+003;-1.468394e-002
3.841667e+003;-1.373336e-002
3.843596e+003;-1.356123e-002
3.845525e+003;-1.337582e-002
3.847453e+003;-1.343419e-002
3.849382e+003;-1.438869e-002
3.851310e+003;-1.876705e-002
3.853239e+003;-2.160652e-002
3.855167e+003;-1.699259e-002
3.857096e+003;-1.305515e-002
3.859024e+003;-1.239381e-002
3.860953e+003;-1.343814e-002
3.862882e+003;-1.520646e-002
3.864810e+003;-1.439225e-002
3.866739e+003;-1.306810e-002
3.868667e+003;-1.545191e-002
3.870596e+003;-1.552842e-002
3.872524e+003;-1.434356e-002
3.874453e+003;-1.345562e-002
3.876381e+003;-1.229242e-002
3.878310e+003;-1.323401e-002
3.880239e+003;-1.296093e-002
3.882167e+003;-1.160860e-002
3.884096e+003;-1.273128e-002
3.886024e+003;-1.311070e-002
3.887953e+003;-1.218415e-002
3.889881e+003;-1.296717e-002
3.891810e+003;-1.283803e-002
3.893738e+003;-1.203893e-002
3.895667e+003;-1.174832e-002
3.897595e+003;-1.226733e-002
3.899524e+003;-1.340268e-002
3.901453e+003;-1.421005e-002
3.903381e+003;-1.445770e-002
3.905310e+003;-1.321714e-002
3.907238e+003;-1.187969e-002
3.909167e+003;-1.168817e-002
3.911095e+003;-1.199925e-002
3.913024e+003;-1.177519e-002
3.914952e+003;-1.151748e-002
3.916881e+003;-1.197685e-002
3.918810e+003;-1.201730e-002
3.920738e+003;-1.105356e-002
3.922667e+003;-1.092534e-002
3.924595e+003;-1.159760e-002
3.926524e+003;-1.181188e-002
3.928452e+003;-1.138155e-002
3.930381e+003;-1.096088e-002
3.932309e+003;-1.134831e-002
3.934238e+003;-1.133569e-002
3.936167e+003;-1.184819e-002
3.938095e+003;-1.212877e-002
3.940023e+003;-1.170666e-002
3.941952e+003;-1.164521e-002
3.943881e+003;-1.168314e-002
3.945809e+003;-1.186280e-002
3.947738e+003;-1.167195e-002
3.949666e+003;-1.089707e-002
3.951595e+003;-9.828097e-003
3.953523e+003;-9.766061e-003
3.955452e+003;-1.071805e-002
3.957380e+003;-1.100640e-002
3.959309e+003;-1.085525e-002
3.961238e+003;-1.019204e-002
3.963166e+003;-9.638720e-003
3.965095e+003;-9.751222e-003
3.967023e+003;-1.003795e-002
3.968952e+003;-1.002982e-002
3.970880e+003;-9.794245e-003
3.972809e+003;-9.250476e-003
3.974737e+003;-8.899477e-003
3.976666e+003;-9.382016e-003
3.978594e+003;-1.022443e-002
3.980523e+003;-1.032439e-002
3.982452e+003;-9.502396e-003
3.984380e+003;-9.572119e-003
3.986309e+003;-9.667075e-003
3.988237e+003;-9.512381e-003
3.990166e+003;-9.720508e-003
3.992094e+003;-1.011888e-002
3.994023e+003;-9.749084e-003
3.995951e+003;-9.231825e-003
3.997880e+003;-8.744021e-003
3.999809e+003;-8.614822e-003
4.001737e+003;0.000000e+000
