3.992094e+002;0.000000e+000
4.011380e+002;0.000000e+000
4.030665e+002;0.000000e+000
4.049951e+002;0.000000e+000
4.069236e+002;0.000000e+000
4.088522e+002;0.000000e+000
4.107807e+002;0.000000e+000
4.127093e+002;0.000000e+000
4.146378e+002;0.000000e+000
4.165664e+002;0.000000e+000
4.184949e+002;0.000000e+000
4.204235e+002;0.000000e+000
4.223520e+002;0.000000e+000
4.242806e+002;0.000000e+000
4.262091e+002;0.000000e+000
4.281377e+002;0.000000e+000
4.300662e+002;0.000000e+000
4.319948e+002;0.000000e+000
4.339233e+002;0.000000e+000
4.358519e+002;0.000000e+000
4.377804e+002;0.000000e+000
4.397090e+002;0.000000e+000
4.416375e+002;0.000000e+000
4.435660e+002;0.000000e+000
4.454946e+002;0.000000e+000
4.474232e+002;0.000000e+000
4.493517e+002;0.000000e+000
4.512802e+002;0.000000e+000
4.532088e+002;0.000000e+000
4.551373e+002;0.000000e+000
4.570659e+002;0.000000e+000
4.589944e+002;0.000000e+000
4.609230e+002;0.000000e+000
4.628515e+002;0.000000e+000
4.647801e+002;0.000000e+000
4.667086e+002;0.000000e+000
4.686372e+002;0.000000e+000
4.705657e+002;0.000000e+000
4.724943e+002;0.000000e+000
4.744228e+002;0.000000e+000
4.763513e+002;0.000000e+000
4.782799e+002;0.000000e+000
4.802085e+002;0.000000e+000
4.821370e+002;0.000000e+000
4.840656e+002;0.000000e+000
4.859941e+002;0.000000e+000
4.879226e+002;0.000000e+000
4.898512e+002;0.000000e+000
4.917798e+002;0.000000e+000
4.937083e+002;0.000000e+000
4.956368e+002;0.000000e+000
4.975654e+002;0.000000e+000
4.994939e+002;0.000000e+000
5.014225e+002;0.000000e+000
5.033510e+002;0.000000e+000
5.052796e+002;0.000000e+000
5.072081e+002;0.000000e+000
5.091367e+002;0.000000e+000
5.110652e+002;0.000000e+000
5.129938e+002;0.000000e+000
5.149223e+002;0.000000e+000
5.168509e+002;0.000000e+000
5.187794e+002;0.000000e+000
5.207079e+002;0.000000e+000
5.226365e+002;0.000000e+000
5.245651e+002;0.000000e+000
5.264936e+002;0.000000e+000
5.284222e+002;0.000000e+000
5.303507e+002;0.000000e+000
5.322792e+002;0.000000e+000
5.342078e+002;0.000000e+000
5.361364e+002;0.000000e+000
5.380649e+002;0.000000e+000
5.399935e+002;0.000000e+000
5.419220e+002;0.000000e+000
5.438505e+002;0.000000e+000
5.457791e+002;0.000000e+000
5.477076e+002;0.000000e+000
5.496362e+002;0.000000e+000
5.515648e+002;0.000000e+000
5.534933e+002;0.000000e+000
5.554218e+002;0.000000e+000
5.573504e+002;0.000000e+000
5.592789e+002;0.000000e+000
5.612075e+002;0.000000e+000
5.631360e+002;0.000000e+000
5.650646e+002;0.000000e+000
5.669931e+002;0.000000e+000
5.689217e+002;0.000000e+000
5.708502e+002;0.000000e+000
5.727787e+002;0.000000e+000
5.747073e+002;0.000000e+000
5.766359e+002;0.000000e+000
5.785644e+002;0.000000e+000
5.804930e+002;0.000000e+000
5.824215e+002;0.000000e+000
5.843500e+002;0.000000e+000
5.862786e+002;0.000000e+000
5.882072e+002;0.000000e+000
5.901357e+002;0.000000e+000
5.920643e+002;0.000000e+000
5.939928e+002;0.000000e+000
5.959213e+002;0.000000e+000
5.978499e+002;0.000000e+000
5.997784e+002;2.634622e-001
6.017070e+002;2.732553e-001
6.036355e+002;2.759481e-001
6.055641e+002;2.694329e-001
6.074926e+002;2.662971e-001
6.094211e+002;2.676013e-001
6.113497e+002;2.621874e-001
6.132783e+002;2.600513e-001
6.152068e+002;2.650698e-001
6.171354e+002;2.628176e-001
6.190639e+002;2.545871e-001
6.209924e+002;2.546453e-001
6.229210e+002;2.587839e-001
6.248495e+002;2.547812e-001
6.267781e+002;2.481271e-001
6.287067e+002;2.434150e-001
6.306352e+002;2.374639e-001
6.325637e+002;2.358226e-001
6.344923e+002;2.363739e-001
6.364208e+002;2.361576e-001
6.383494e+002;2.373007e-001
6.402780e+002;2.356701e-001
6.422065e+002;2.293984e-001
6.441350e+002;2.312554e-001
6.460636e+002;2.377810e-001
6.479921e+002;2.374918e-001
6.499207e+002;2.341979e-001
6.518492e+002;2.332575e-001
6.537778e+002;2.331603e-001
6.557063e+002;2.358873e-001
6.576349e+002;2.389311e-001
6.595634e+002;2.399733e-001
6.614919e+002;2.430715e-001
6.634205e+002;2.441636e-001
6.653491e+002;2.422266e-001
6.672776e+002;2.399071e-001
6.692062e+002;2.371137e-001
6.711347e+002;2.321330e-001
6.730632e+002;2.248908e-001
6.749918e+002;2.181510e-001
6.769203e+002;2.127241e-001
6.788489e+002;2.063756e-001
6.807775e+002;2.006780e-001
6.827060e+002;1.963614e-001
6.846345e+002;1.932318e-001
6.865631e+002;1.916884e-001
6.884916e+002;1.898663e-001
6.904202e+002;1.871102e-001
6.923488e+002;1.850584e-001
6.942773e+002;1.845538e-001
6.962058e+002;1.850475e-001
6.981344e+002;1.843628e-001
7.000629e+002;1.839409e-001
7.019915e+002;1.824002e-001
7.039200e+002;1.811834e-001
7.058486e+002;1.807840e-001
7.077771e+002;1.783433e-001
7.097057e+002;1.761099e-001
7.116342e+002;1.750867e-001
7.135627e+002;1.730730e-001
7.154913e+002;1.712010e-001
7.174199e+002;1.692550e-001
7.193484e+002;1.674095e-001
7.212770e+002;1.650657e-001
7.232055e+002;1.615507e-001
7.251340e+002;1.585582e-001
7.270626e+002;1.558405e-001
7.289911e+002;1.529572e-001
7.309197e+002;1.504701e-001
7.328483e+002;1.486886e-001
7.347768e+002;1.468434e-001
7.367053e+002;1.444750e-001
7.386339e+002;1.427624e-001
7.405624e+002;1.415853e-001
7.424910e+002;1.403896e-001
7.444196e+002;1.391598e-001
7.463481e+002;1.377282e-001
7.482766e+002;1.362180e-001
7.502052e+002;1.353690e-001
7.521337e+002;1.338951e-001
7.540623e+002;1.321719e-001
7.559908e+002;1.302322e-001
7.579194e+002;1.276059e-001
7.598479e+002;1.259935e-001
7.617765e+002;1.250715e-001
7.637050e+002;1.235953e-001
7.656335e+002;1.218637e-001
7.675621e+002;1.199102e-001
7.694907e+002;1.187987e-001
7.714192e+002;1.176379e-001
7.733478e+002;1.160136e-001
7.752763e+002;1.149227e-001
7.772048e+002;1.137567e-001
7.791334e+002;1.127629e-001
7.810620e+002;1.122067e-001
7.829905e+002;1.122504e-001
7.849191e+002;1.120836e-001
7.868476e+002;1.106665e-001
7.887761e+002;1.094074e-001
7.907047e+002;1.084309e-001
7.926332e+002;1.079289e-001
7.945618e+002;1.073917e-001
7.964903e+002;1.071325e-001
7.984189e+002;1.072083e-001
8.003474e+002;1.067221e-001
8.022759e+002;1.064742e-001
8.042045e+002;1.068059e-001
8.061331e+002;1.065299e-001
8.080616e+002;1.056587e-001
8.099902e+002;1.044826e-001
8.119187e+002;1.041319e-001
8.138472e+002;1.041520e-001
8.157758e+002;1.032168e-001
8.177043e+002;1.019781e-001
8.196329e+002;1.014955e-001
8.215615e+002;1.007243e-001
8.234900e+002;9.934372e-002
8.254185e+002;9.885677e-002
8.273471e+002;9.925393e-002
8.292756e+002;9.864081e-002
8.312042e+002;9.809742e-002
8.331328e+002;9.803911e-002
8.350613e+002;9.747768e-002
8.369898e+002;9.653282e-002
8.389184e+002;9.604830e-002
8.408469e+002;9.534823e-002
8.427755e+002;9.443884e-002
8.447040e+002;9.330951e-002
8.466326e+002;9.269357e-002
8.485611e+002;9.299696e-002
8.504897e+002;9.371524e-002
8.524182e+002;9.431338e-002
8.543467e+002;9.417638e-002
8.562753e+002;9.418408e-002
8.582039e+002;9.496444e-002
8.601324e+002;9.596730e-002
8.620610e+002;9.677659e-002
8.639895e+002;9.834028e-002
8.659180e+002;1.001881e-001
8.678466e+002;1.021050e-001
8.697751e+002;1.048999e-001
8.717037e+002;1.079868e-001
8.736323e+002;1.110987e-001
8.755608e+002;1.138141e-001
8.774893e+002;1.161298e-001
8.794179e+002;1.187827e-001
8.813464e+002;1.223521e-001
8.832750e+002;1.259993e-001
8.852036e+002;1.293430e-001
8.871321e+002;1.334907e-001
8.890606e+002;1.382135e-001
8.909892e+002;1.422802e-001
8.929177e+002;1.455060e-001
8.948463e+002;1.478467e-001
8.967748e+002;1.492060e-001
8.987034e+002;1.492584e-001
9.006319e+002;1.482920e-001
9.025605e+002;1.460857e-001
9.044890e+002;1.429282e-001
9.064175e+002;1.392884e-001
9.083461e+002;1.351978e-001
9.102747e+002;1.310247e-001
9.122032e+002;1.278877e-001
9.141318e+002;1.255182e-001
9.160603e+002;1.233497e-001
9.179888e+002;1.220550e-001
9.199174e+002;1.216089e-001
9.218459e+002;1.216597e-001
9.237745e+002;1.228347e-001
9.257031e+002;1.241189e-001
9.276316e+002;1.254955e-001
9.295601e+002;1.274997e-001
9.314887e+002;1.292843e-001
9.334172e+002;1.310892e-001
9.353458e+002;1.332150e-001
9.372744e+002;1.355316e-001
9.392029e+002;1.381256e-001
9.411314e+002;1.407841e-001
9.430600e+002;1.434386e-001
9.449885e+002;1.466469e-001
9.469171e+002;1.507702e-001
9.488456e+002;1.554370e-001
9.507742e+002;1.600581e-001
9.527027e+002;1.654525e-001
9.546313e+002;1.714800e-001
9.565598e+002;1.777960e-001
9.584883e+002;1.846814e-001
9.604169e+002;1.924854e-001
9.623455e+002;2.003136e-001
9.642740e+002;2.078009e-001
9.662026e+002;2.161434e-001
9.681311e+002;2.253851e-001
9.700596e+002;2.359585e-001
9.719882e+002;2.473859e-001
9.739167e+002;2.606884e-001
9.758453e+002;2.760807e-001
9.777739e+002;2.929868e-001
9.797024e+002;3.120086e-001
9.816309e+002;3.316801e-001
9.835595e+002;3.496087e-001
9.854880e+002;3.645748e-001
9.874166e+002;3.758004e-001
9.893452e+002;3.845228e-001
9.912737e+002;3.920432e-001
9.932022e+002;3.995717e-001
9.951307e+002;4.073242e-001
9.970593e+002;4.148281e-001
9.989879e+002;4.220515e-001
1.000916e+003;4.278017e-001
1.002845e+003;4.324455e-001
1.004773e+003;4.368278e-001
1.006702e+003;4.417498e-001
1.008631e+003;4.468416e-001
1.010559e+003;4.521452e-001
1.012488e+003;4.583962e-001
1.014416e+003;4.666503e-001
1.016345e+003;4.754073e-001
1.018273e+003;4.823644e-001
1.020202e+003;4.883636e-001
1.022130e+003;4.924740e-001
1.024059e+003;4.946083e-001
1.025988e+003;4.963811e-001
1.027916e+003;4.972812e-001
1.029845e+003;4.968202e-001
1.031773e+003;4.962429e-001
1.033702e+003;4.944309e-001
1.035630e+003;4.901347e-001
1.037559e+003;4.834597e-001
1.039487e+003;4.766703e-001
1.041416e+003;4.708821e-001
1.043344e+003;4.660393e-001
1.045273e+003;4.623987e-001
1.047202e+003;4.602667e-001
1.049130e+003;4.592737e-001
1.051059e+003;4.586028e-001
1.052987e+003;4.576186e-001
1.054916e+003;4.548797e-001
1.056844e+003;4.505346e-001
1.058773e+003;4.430692e-001
1.060701e+003;4.326286e-001
1.062630e+003;4.215190e-001
1.064558e+003;4.087175e-001
1.066487e+003;3.945157e-001
1.068416e+003;3.816422e-001
1.070344e+003;3.700737e-001
1.072273e+003;3.590614e-001
1.074201e+003;3.488496e-001
1.076130e+003;3.402820e-001
1.078058e+003;3.318834e-001
1.079987e+003;3.234843e-001
1.081915e+003;3.175074e-001
1.083844e+003;3.133342e-001
1.085773e+003;3.087468e-001
1.087701e+003;3.042269e-001
1.089630e+003;3.005299e-001
1.091558e+003;2.971354e-001
1.093487e+003;2.944889e-001
1.095415e+003;2.920437e-001
1.097344e+003;2.901772e-001
1.099272e+003;2.877293e-001
1.101201e+003;2.845768e-001
1.103129e+003;2.816255e-001
1.105058e+003;2.781448e-001
1.106987e+003;2.739991e-001
1.108915e+003;2.692994e-001
1.110844e+003;2.640339e-001
1.112772e+003;2.575119e-001
1.114701e+003;2.495084e-001
1.116629e+003;2.404674e-001
1.118558e+003;2.317486e-001
1.120486e+003;2.237895e-001
1.122415e+003;2.164957e-001
1.124344e+003;2.090833e-001
1.126272e+003;2.017144e-001
1.128201e+003;1.948065e-001
1.130129e+003;1.879383e-001
1.132058e+003;1.818207e-001
1.133986e+003;1.768267e-001
1.135915e+003;1.727999e-001
1.137843e+003;1.689216e-001
1.139772e+003;1.657094e-001
1.141700e+003;1.638952e-001
1.143629e+003;1.634602e-001
1.145557e+003;1.638928e-001
1.147486e+003;1.645611e-001
1.149415e+003;1.654053e-001
1.151343e+003;1.665393e-001
1.153272e+003;1.674365e-001
1.155200e+003;1.679012e-001
1.157129e+003;1.677034e-001
1.159057e+003;1.670376e-001
1.160986e+003;1.656193e-001
1.162914e+003;1.622655e-001
1.164843e+003;1.571335e-001
1.166771e+003;1.509348e-001
1.168700e+003;1.435900e-001
1.170629e+003;1.358772e-001
1.172557e+003;1.281995e-001
1.174486e+003;1.210368e-001
1.176414e+003;1.149460e-001
1.178343e+003;1.100742e-001
1.180271e+003;1.057729e-001
1.182200e+003;1.025679e-001
1.184128e+003;1.011504e-001
1.186057e+003;1.002252e-001
1.187986e+003;1.005206e-001
1.189914e+003;1.020146e-001
1.191843e+003;1.039533e-001
1.193771e+003;1.064588e-001
1.195700e+003;1.091495e-001
1.197628e+003;1.114123e-001
1.199557e+003;1.127036e-001
1.201485e+003;1.130766e-001
1.203414e+003;1.127099e-001
1.205343e+003;1.117643e-001
1.207271e+003;1.098741e-001
1.209200e+003;1.069586e-001
1.211128e+003;1.037274e-001
1.213057e+003;1.012318e-001
1.214985e+003;1.002661e-001
1.216914e+003;1.003123e-001
1.218842e+003;1.010609e-001
1.220771e+003;1.028514e-001
1.222699e+003;1.046489e-001
1.224628e+003;1.065859e-001
1.226557e+003;1.085471e-001
1.228485e+003;1.104272e-001
1.230414e+003;1.124842e-001
1.232342e+003;1.141460e-001
1.234271e+003;1.148554e-001
1.236199e+003;1.148241e-001
1.238128e+003;1.148513e-001
1.240056e+003;1.149717e-001
1.241985e+003;1.151170e-001
1.243913e+003;1.157862e-001
1.245842e+003;1.172121e-001
1.247771e+003;1.180757e-001
1.249699e+003;1.183665e-001
1.251628e+003;1.184067e-001
1.253556e+003;1.185096e-001
1.255485e+003;1.191217e-001
1.257413e+003;1.196560e-001
1.259342e+003;1.201079e-001
1.261270e+003;1.202008e-001
1.263199e+003;1.199506e-001
1.265127e+003;1.198865e-001
1.267056e+003;1.197494e-001
1.268985e+003;1.194769e-001
1.270913e+003;1.188980e-001
1.272842e+003;1.183310e-001
1.274770e+003;1.181760e-001
1.276699e+003;1.178582e-001
1.278627e+003;1.173215e-001
1.280556e+003;1.164734e-001
1.282484e+003;1.154124e-001
1.284413e+003;1.145940e-001
1.286342e+003;1.143141e-001
1.288270e+003;1.143588e-001
1.290199e+003;1.151600e-001
1.292127e+003;1.163947e-001
1.294056e+003;1.175437e-001
1.295984e+003;1.190400e-001
1.297913e+003;1.207195e-001
1.299841e+003;1.227097e-001
1.301770e+003;1.252215e-001
1.303698e+003;1.276985e-001
1.305627e+003;1.307491e-001
1.307556e+003;1.345109e-001
1.309484e+003;1.381115e-001
1.311413e+003;1.409149e-001
1.313341e+003;1.430315e-001
1.315270e+003;1.441390e-001
1.317198e+003;1.439194e-001
1.319127e+003;1.428625e-001
1.321055e+003;1.412522e-001
1.322984e+003;1.392741e-001
1.324912e+003;1.375256e-001
1.326841e+003;1.365156e-001
1.328770e+003;1.362457e-001
1.330698e+003;1.366400e-001
1.332627e+003;1.372959e-001
1.334555e+003;1.373764e-001
1.336484e+003;1.366087e-001
1.338412e+003;1.355259e-001
1.340341e+003;1.345085e-001
1.342269e+003;1.334508e-001
1.344198e+003;1.320083e-001
1.346126e+003;1.305332e-001
1.348055e+003;1.294124e-001
1.349984e+003;1.290643e-001
1.351912e+003;1.295475e-001
1.353841e+003;1.304810e-001
1.355769e+003;1.312448e-001
1.357698e+003;1.320968e-001
1.359626e+003;1.327876e-001
1.361555e+003;1.328782e-001
1.363483e+003;1.325527e-001
1.365412e+003;1.320687e-001
1.367341e+003;1.314400e-001
1.369269e+003;1.310369e-001
1.371198e+003;1.298795e-001
1.373126e+003;1.275121e-001
1.375055e+003;1.250214e-001
1.376983e+003;1.227317e-001
1.378912e+003;1.204587e-001
1.380840e+003;1.181781e-001
1.382769e+003;1.154184e-001
1.384698e+003;1.125324e-001
1.386626e+003;1.096503e-001
1.388555e+003;1.083614e-001
1.390483e+003;1.078870e-001
1.392412e+003;1.064141e-001
1.394340e+003;1.049141e-001
1.396269e+003;1.047125e-001
1.398197e+003;1.049946e-001
1.400126e+003;1.060853e-001
1.402054e+003;1.070881e-001
1.403983e+003;1.072949e-001
1.405911e+003;1.081439e-001
1.407840e+003;1.090623e-001
1.409769e+003;1.096759e-001
1.411697e+003;1.103088e-001
1.413626e+003;1.109883e-001
1.415554e+003;1.114544e-001
1.417483e+003;1.108296e-001
1.419411e+003;1.108133e-001
1.421340e+003;1.133189e-001
1.423268e+003;1.149050e-001
1.425197e+003;1.155960e-001
1.427125e+003;1.156510e-001
1.429054e+003;1.146208e-001
1.430983e+003;1.137839e-001
1.432911e+003;1.127908e-001
1.434840e+003;1.097498e-001
1.436768e+003;1.065796e-001
1.438697e+003;1.067406e-001
1.440625e+003;1.063015e-001
1.442554e+003;1.048926e-001
1.444482e+003;1.034902e-001
1.446411e+003;1.018299e-001
1.448340e+003;1.005562e-001
1.450268e+003;9.995992e-002
1.452197e+003;9.869787e-002
1.454125e+003;9.587746e-002
1.456054e+003;9.061769e-002
1.457982e+003;8.965418e-002
1.459911e+003;9.185488e-002
1.461839e+003;9.145939e-002
1.463768e+003;8.841036e-002
1.465697e+003;8.588005e-002
1.467625e+003;8.453155e-002
1.469554e+003;8.200462e-002
1.471482e+003;7.786646e-002
1.473411e+003;7.492422e-002
1.475339e+003;7.310452e-002
1.477268e+003;7.121303e-002
1.479196e+003;6.938658e-002
1.481125e+003;6.674157e-002
1.483053e+003;6.424893e-002
1.484982e+003;6.143903e-002
1.486911e+003;5.814329e-002
1.488839e+003;5.525934e-002
1.490768e+003;5.381697e-002
1.492696e+003;5.312124e-002
1.494625e+003;5.087787e-002
1.496553e+003;4.891428e-002
1.498482e+003;4.921253e-002
1.500410e+003;5.006325e-002
1.502339e+003;4.997410e-002
1.504267e+003;4.632058e-002
1.506196e+003;4.241772e-002
1.508125e+003;4.453117e-002
1.510053e+003;4.756177e-002
1.511982e+003;4.773904e-002
1.513910e+003;4.737604e-002
1.515839e+003;4.578904e-002
1.517767e+003;4.434831e-002
1.519696e+003;4.202782e-002
1.521624e+003;4.023009e-002
1.523553e+003;4.153188e-002
1.525481e+003;4.195417e-002
1.527410e+003;4.242791e-002
1.529339e+003;4.324350e-002
1.531267e+003;4.305152e-002
1.533196e+003;4.194975e-002
1.535124e+003;4.284295e-002
1.537053e+003;4.166815e-002
1.538981e+003;3.745482e-002
1.540910e+003;3.788180e-002
1.542838e+003;4.105106e-002
1.544767e+003;4.280610e-002
1.546695e+003;4.381822e-002
1.548624e+003;4.347859e-002
1.550553e+003;4.297960e-002
1.552481e+003;4.223228e-002
1.554410e+003;4.091936e-002
1.556338e+003;3.877334e-002
1.558267e+003;3.438640e-002
1.560195e+003;3.585159e-002
1.562124e+003;4.101923e-002
1.564052e+003;4.284742e-002
1.565981e+003;4.337148e-002
1.567910e+003;4.296420e-002
1.569838e+003;4.284815e-002
1.571767e+003;4.488404e-002
1.573695e+003;4.474176e-002
1.575624e+003;4.261979e-002
1.577552e+003;4.472222e-002
1.579481e+003;4.748533e-002
1.581409e+003;4.778960e-002
1.583338e+003;4.773283e-002
1.585266e+003;4.796355e-002
1.587195e+003;4.845901e-002
1.589124e+003;4.862486e-002
1.591052e+003;4.880589e-002
1.592981e+003;4.921914e-002
1.594909e+003;4.950287e-002
1.596838e+003;4.988589e-002
1.598766e+003;5.051377e-002
1.600695e+003;5.086427e-002
1.602623e+003;5.105280e-002
1.604552e+003;5.143216e-002
1.606480e+003;5.182667e-002
1.608409e+003;5.211158e-002
1.610338e+003;5.250885e-002
1.612266e+003;5.297860e-002
1.614195e+003;5.217921e-002
1.616123e+003;5.011617e-002
1.618052e+003;5.186584e-002
1.619980e+003;5.452166e-002
1.621909e+003;5.424639e-002
1.623837e+003;5.443914e-002
1.625766e+003;5.588022e-002
1.627694e+003;5.668284e-002
1.629623e+003;5.752601e-002
1.631552e+003;5.798547e-002
1.633480e+003;5.613044e-002
1.635409e+003;5.445052e-002
1.637337e+003;5.706424e-002
1.639266e+003;5.955949e-002
1.641194e+003;5.996557e-002
1.643123e+003;5.919245e-002
1.645051e+003;5.675631e-002
1.646980e+003;5.615216e-002
1.648909e+003;5.770133e-002
1.650837e+003;5.428927e-002
1.652766e+003;4.890174e-002
1.654694e+003;5.257306e-002
1.656623e+003;5.697243e-002
1.658551e+003;5.705215e-002
1.660480e+003;5.559230e-002
1.662408e+003;5.388099e-002
1.664337e+003;5.352888e-002
1.666266e+003;5.279507e-002
1.668194e+003;5.028722e-002
1.670123e+003;4.876241e-002
1.672051e+003;4.859517e-002
1.673980e+003;4.664536e-002
1.675908e+003;4.550207e-002
1.677837e+003;4.606162e-002
1.679765e+003;4.468615e-002
1.681694e+003;4.144679e-002
1.683622e+003;3.629602e-002
1.685551e+003;3.627319e-002
1.687479e+003;3.891697e-002
1.689408e+003;3.850457e-002
1.691337e+003;3.743546e-002
1.693265e+003;3.473766e-002
1.695194e+003;3.014519e-002
1.697122e+003;2.928929e-002
1.699051e+003;2.713518e-002
1.700979e+003;2.626298e-002
1.702908e+003;2.878200e-002
1.704836e+003;2.823705e-002
1.706765e+003;2.791712e-002
1.708693e+003;2.781421e-002
1.710622e+003;2.732057e-002
1.712551e+003;2.566482e-002
1.714479e+003;2.314450e-002
1.716408e+003;2.024536e-002
1.718336e+003;2.032417e-002
1.720265e+003;2.290902e-002
1.722193e+003;2.350356e-002
1.724122e+003;2.269604e-002
1.726050e+003;2.215165e-002
1.727979e+003;2.145538e-002
1.729908e+003;2.044248e-002
1.731836e+003;1.740445e-002
1.733765e+003;1.415119e-002
1.735693e+003;1.605383e-002
1.737622e+003;1.719067e-002
1.739550e+003;1.543083e-002
1.741479e+003;1.461665e-002
1.743407e+003;1.417450e-002
1.745336e+003;1.371882e-002
1.747265e+003;1.257714e-002
1.749193e+003;1.124428e-002
1.751122e+003;1.111329e-002
1.753050e+003;1.318021e-002
1.754979e+003;1.398188e-002
1.756907e+003;1.386881e-002
1.758836e+003;1.428704e-002
1.760764e+003;1.380737e-002
1.762693e+003;1.404943e-002
1.764621e+003;1.478788e-002
1.766550e+003;1.380696e-002
1.768479e+003;1.300011e-002
1.770407e+003;1.205445e-002
1.772336e+003;1.121640e-002
1.774264e+003;1.283067e-002
1.776193e+003;1.397432e-002
1.778121e+003;1.377457e-002
1.780050e+003;1.326270e-002
1.781978e+003;1.312525e-002
1.783907e+003;1.286377e-002
1.785835e+003;1.298792e-002
1.787764e+003;1.319578e-002
1.789693e+003;1.211049e-002
1.791621e+003;1.058950e-002
1.793550e+003;1.091088e-002
1.795478e+003;1.196749e-002
1.797407e+003;1.178816e-002
1.799335e+003;1.121912e-002
1.801264e+003;1.130573e-002
1.803192e+003;1.179994e-002
1.805121e+003;1.177356e-002
1.807049e+003;1.155028e-002
1.808978e+003;1.134022e-002
1.810907e+003;1.129621e-002
1.812835e+003;1.136403e-002
1.814764e+003;1.125299e-002
1.816692e+003;1.084089e-002
1.818621e+003;1.079747e-002
1.820549e+003;1.086447e-002
1.822478e+003;1.066308e-002
1.824406e+003;1.003617e-002
1.826335e+003;9.946694e-003
1.828264e+003;9.403995e-003
1.830192e+003;9.173712e-003
1.832121e+003;9.813650e-003
1.834049e+003;1.010928e-002
1.835978e+003;1.019292e-002
1.837906e+003;1.022254e-002
1.839835e+003;1.025941e-002
1.841763e+003;9.329444e-003
1.843692e+003;7.878875e-003
1.845620e+003;8.569117e-003
1.847549e+003;9.560793e-003
1.849478e+003;9.775558e-003
1.851406e+003;9.830460e-003
1.853335e+003;9.497457e-003
1.855263e+003;9.228572e-003
1.857192e+003;9.307101e-003
1.859120e+003;9.129111e-003
1.861049e+003;9.054572e-003
1.862977e+003;9.104816e-003
1.864906e+003;8.779367e-003
1.866834e+003;8.101756e-003
1.868763e+003;7.707709e-003
1.870692e+003;8.228839e-003
1.872620e+003;8.547827e-003
1.874549e+003;8.519475e-003
1.876477e+003;8.736532e-003
1.878406e+003;8.681091e-003
1.880334e+003;8.447204e-003
1.882263e+003;8.424501e-003
1.884191e+003;8.432372e-003
1.886120e+003;8.407813e-003
1.888048e+003;8.264061e-003
1.889977e+003;8.036911e-003
1.891906e+003;8.216076e-003
1.893834e+003;8.188827e-003
1.895763e+003;8.179642e-003
1.897691e+003;8.279596e-003
1.899620e+003;8.322623e-003
1.901548e+003;8.360554e-003
1.903477e+003;8.307053e-003
1.905405e+003;7.925002e-003
1.907334e+003;7.708216e-003
1.909262e+003;7.642890e-003
1.911191e+003;7.726935e-003
1.913120e+003;7.916262e-003
1.915048e+003;7.827863e-003
1.916977e+003;7.500606e-003
1.918905e+003;7.697693e-003
1.920834e+003;8.098346e-003
1.922762e+003;8.159385e-003
1.924691e+003;8.419197e-003
1.926619e+003;8.644822e-003
1.928548e+003;8.442372e-003
1.930477e+003;8.134570e-003
1.932405e+003;8.182310e-003
1.934334e+003;8.542183e-003
1.936262e+003;8.633364e-003
1.938191e+003;8.545596e-003
1.940119e+003;8.384943e-003
1.942048e+003;8.324143e-003
1.943976e+003;8.704855e-003
1.945905e+003;8.957012e-003
1.947833e+003;8.930832e-003
1.949762e+003;8.978220e-003
1.951691e+003;9.068681e-003
1.953619e+003;9.106609e-003
1.955548e+003;9.182713e-003
1.957476e+003;9.348741e-003
1.959405e+003;9.435046e-003
1.961333e+003;9.376368e-003
1.963262e+003;9.274605e-003
1.965190e+003;9.195404e-003
1.967119e+003;9.002542e-003
1.969047e+003;9.006567e-003
1.970976e+003;9.195777e-003
1.972905e+003;9.394379e-003
1.974833e+003;9.388048e-003
1.976762e+003;9.426749e-003
1.978690e+003;9.564010e-003
1.980619e+003;9.700569e-003
1.982547e+003;9.929437e-003
1.984476e+003;9.954084e-003
1.986404e+003;9.897301e-003
1.988333e+003;9.874082e-003
1.990261e+003;9.827545e-003
1.992190e+003;9.811345e-003
1.994119e+003;9.970120e-003
1.996047e+003;1.013587e-002
1.997976e+003;1.022942e-002
1.999904e+003;1.012119e-002
2.001833e+003;1.013567e-002
2.003761e+003;1.015422e-002
2.005690e+003;1.018756e-002
2.007618e+003;1.046757e-002
2.009547e+003;1.068774e-002
2.011476e+003;1.077292e-002
2.013404e+003;1.072095e-002
2.015333e+003;1.076544e-002
2.017261e+003;1.085169e-002
2.019190e+003;1.103284e-002
2.021118e+003;1.106400e-002
2.023047e+003;1.090992e-002
2.024975e+003;1.089576e-002
2.026904e+003;1.109670e-002
2.028833e+003;1.132012e-002
2.030761e+003;1.149669e-002
2.032690e+003;1.151616e-002
2.034618e+003;1.170915e-002
2.036547e+003;1.184135e-002
2.038475e+003;1.174091e-002
2.040404e+003;1.172120e-002
2.042332e+003;1.189144e-002
2.044261e+003;1.201609e-002
2.046189e+003;1.206920e-002
2.048118e+003;1.214422e-002
2.050047e+003;1.210940e-002
2.051975e+003;1.188946e-002
2.053904e+003;1.196364e-002
2.055832e+003;1.216866e-002
2.057761e+003;1.213772e-002
2.059689e+003;1.162733e-002
2.061618e+003;1.147223e-002
2.063546e+003;1.162321e-002
2.065475e+003;1.152187e-002
2.067404e+003;1.152514e-002
2.069332e+003;1.164377e-002
2.071260e+003;1.149520e-002
2.073189e+003;1.164805e-002
2.075118e+003;1.180972e-002
2.077046e+003;1.165483e-002
2.078975e+003;1.161504e-002
2.080903e+003;1.174646e-002
2.082832e+003;1.163111e-002
2.084760e+003;1.140988e-002
2.086689e+003;1.146325e-002
2.088617e+003;1.156124e-002
2.090546e+003;1.158397e-002
2.092475e+003;1.151425e-002
2.094403e+003;1.159796e-002
2.096332e+003;1.165871e-002
2.098260e+003;1.160531e-002
2.100189e+003;1.172151e-002
2.102117e+003;1.176559e-002
2.104046e+003;1.192488e-002
2.105974e+003;1.212974e-002
2.107903e+003;1.188040e-002
2.109832e+003;1.181305e-002
2.111760e+003;1.216078e-002
2.113688e+003;1.229008e-002
2.115617e+003;1.210712e-002
2.117546e+003;1.192706e-002
2.119474e+003;1.189968e-002
2.121403e+003;1.213260e-002
2.123331e+003;1.220934e-002
2.125260e+003;1.220096e-002
2.127188e+003;1.216481e-002
2.129117e+003;1.219115e-002
2.131045e+003;1.229659e-002
2.132974e+003;1.238540e-002
2.134903e+003;1.222754e-002
2.136831e+003;1.208375e-002
2.138760e+003;1.205697e-002
2.140688e+003;1.186246e-002
2.142617e+003;1.160272e-002
2.144545e+003;1.147366e-002
2.146474e+003;1.125751e-002
2.148402e+003;1.137049e-002
2.150331e+003;1.168788e-002
2.152260e+003;1.171688e-002
2.154188e+003;1.167835e-002
2.156117e+003;1.165139e-002
2.158045e+003;1.145077e-002
2.159974e+003;1.101802e-002
2.161902e+003;1.081786e-002
2.163831e+003;1.088386e-002
2.165759e+003;1.105438e-002
2.167688e+003;1.110632e-002
2.169616e+003;1.088876e-002
2.171545e+003;1.091071e-002
2.173474e+003;1.078491e-002
2.175402e+003;1.037671e-002
2.177331e+003;1.032479e-002
2.179259e+003;1.025870e-002
2.181188e+003;9.920048e-003
2.183116e+003;9.988395e-003
2.185045e+003;1.005855e-002
2.186973e+003;9.623392e-003
2.188902e+003;9.372542e-003
2.190831e+003;9.554459e-003
2.192759e+003;9.600797e-003
2.194688e+003;9.353954e-003
2.196616e+003;9.192562e-003
2.198545e+003;8.989958e-003
2.200473e+003;9.037014e-003
2.202402e+003;9.279784e-003
2.204330e+003;9.313262e-003
2.206259e+003;9.084650e-003
2.208188e+003;8.801954e-003
2.210116e+003;8.759487e-003
2.212044e+003;9.153171e-003
2.213973e+003;9.366650e-003
2.215902e+003;9.201259e-003
2.217830e+003;9.123900e-003
2.219759e+003;9.027778e-003
2.221687e+003;8.965130e-003
2.223616e+003;8.937631e-003
2.225544e+003;9.008327e-003
2.227473e+003;8.953494e-003
2.229401e+003;8.953393e-003
2.231330e+003;8.804726e-003
2.233259e+003;8.737681e-003
2.235187e+003;8.916796e-003
2.237116e+003;8.927856e-003
2.239044e+003;8.809427e-003
2.240973e+003;8.764187e-003
2.242901e+003;8.761076e-003
2.244830e+003;8.704754e-003
2.246758e+003;8.860284e-003
2.248687e+003;8.824913e-003
2.250615e+003;8.796780e-003
2.252544e+003;8.614944e-003
2.254473e+003;8.455954e-003
2.256401e+003;8.526606e-003
2.258330e+003;8.457238e-003
2.260258e+003;8.345051e-003
2.262187e+003;8.324312e-003
2.264115e+003;8.326609e-003
2.266044e+003;8.350319e-003
2.267972e+003;8.389266e-003
2.269901e+003;8.165125e-003
2.271830e+003;8.084810e-003
2.273758e+003;8.150978e-003
2.275687e+003;8.254774e-003
2.277615e+003;8.444433e-003
2.279544e+003;8.415041e-003
2.281472e+003;8.111884e-003
2.283401e+003;8.076404e-003
2.285329e+003;8.136055e-003
2.287258e+003;8.131025e-003
2.289187e+003;8.176806e-003
2.291115e+003;8.412440e-003
2.293043e+003;8.589833e-003
2.294972e+003;8.353799e-003
2.296901e+003;8.282129e-003
2.298829e+003;8.225800e-003
2.300758e+003;8.299656e-003
2.302686e+003;8.295097e-003
2.304615e+003;8.046801e-003
2.306543e+003;8.028170e-003
2.308472e+003;8.113706e-003
2.310400e+003;7.820879e-003
2.312329e+003;7.369050e-003
2.314258e+003;7.484829e-003
2.316186e+003;7.972685e-003
2.318115e+003;8.279292e-003
2.320043e+003;8.193891e-003
2.321972e+003;8.161444e-003
2.323900e+003;8.302561e-003
2.325829e+003;8.329344e-003
2.327757e+003;8.332890e-003
2.329686e+003;8.344983e-003
2.331615e+003;8.394232e-003
2.333543e+003;8.457406e-003
2.335472e+003;8.463454e-003
2.337400e+003;8.661351e-003
2.339329e+003;8.993882e-003
2.341257e+003;9.115339e-003
2.343186e+003;9.172933e-003
2.345114e+003;9.257984e-003
2.347043e+003;9.156216e-003
2.348971e+003;9.298672e-003
2.350900e+003;9.609401e-003
2.352829e+003;9.526583e-003
2.354757e+003;9.745263e-003
2.356686e+003;1.011111e-002
2.358614e+003;9.940625e-003
2.360543e+003;9.662758e-003
2.362471e+003;9.873506e-003
2.364400e+003;1.021728e-002
2.366328e+003;1.033019e-002
2.368257e+003;1.018030e-002
2.370186e+003;1.004193e-002
2.372114e+003;9.880895e-003
2.374042e+003;9.792705e-003
2.375971e+003;9.849610e-003
2.377900e+003;1.024635e-002
2.379828e+003;1.046706e-002
2.381757e+003;1.047622e-002
2.383685e+003;1.035034e-002
2.385614e+003;1.030946e-002
2.387542e+003;1.064060e-002
2.389471e+003;1.097642e-002
2.391399e+003;1.110826e-002
2.393328e+003;1.143250e-002
2.395257e+003;1.166334e-002
2.397185e+003;1.167508e-002
2.399114e+003;1.143757e-002
2.401042e+003;1.133556e-002
2.402971e+003;1.139569e-002
2.404899e+003;1.151738e-002
2.406828e+003;1.168209e-002
2.408756e+003;1.169959e-002
2.410685e+003;1.178670e-002
2.412614e+003;1.195260e-002
2.414542e+003;1.204716e-002
2.416471e+003;1.231585e-002
2.418399e+003;1.246828e-002
2.420328e+003;1.247862e-002
2.422256e+003;1.260153e-002
2.424185e+003;1.285575e-002
2.426113e+003;1.308892e-002
2.428042e+003;1.320538e-002
2.429970e+003;1.340695e-002
2.431899e+003;1.343528e-002
2.433828e+003;1.350921e-002
2.435756e+003;1.367711e-002
2.437685e+003;1.373541e-002
2.439613e+003;1.386603e-002
2.441542e+003;1.434752e-002
2.443470e+003;1.449717e-002
2.445399e+003;1.454215e-002
2.447327e+003;1.460301e-002
2.449256e+003;1.474390e-002
2.451185e+003;1.490144e-002
2.453113e+003;1.497884e-002
2.455042e+003;1.520430e-002
2.456970e+003;1.516206e-002
2.458899e+003;1.506696e-002
2.460827e+003;1.542544e-002
2.462756e+003;1.561410e-002
2.464684e+003;1.539345e-002
2.466613e+003;1.534501e-002
2.468542e+003;1.556595e-002
2.470470e+003;1.590622e-002
2.472398e+003;1.613264e-002
2.474327e+003;1.634600e-002
2.476256e+003;1.657362e-002
2.478184e+003;1.665954e-002
2.480113e+003;1.671839e-002
2.482041e+003;1.697493e-002
2.483970e+003;1.688026e-002
2.485898e+003;1.683641e-002
2.487827e+003;1.699867e-002
2.489755e+003;1.716992e-002
2.491684e+003;1.735196e-002
2.493613e+003;1.751666e-002
2.495541e+003;1.773664e-002
2.497470e+003;1.783508e-002
2.499398e+003;1.774675e-002
2.501327e+003;1.756164e-002
2.503255e+003;1.760715e-002
2.505184e+003;1.793318e-002
2.507112e+003;1.813917e-002
2.509041e+003;1.831826e-002
2.510969e+003;1.886250e-002
2.512898e+003;1.901465e-002
2.514827e+003;1.875451e-002
2.516755e+003;1.855196e-002
2.518684e+003;1.860681e-002
2.520612e+003;1.906003e-002
2.522541e+003;1.932662e-002
2.524469e+003;1.915387e-002
2.526398e+003;1.904463e-002
2.528326e+003;1.937440e-002
2.530255e+003;1.943569e-002
2.532184e+003;1.924411e-002
2.534112e+003;1.943219e-002
2.536041e+003;1.958236e-002
2.537969e+003;1.954315e-002
2.539898e+003;1.968864e-002
2.541826e+003;1.990869e-002
2.543755e+003;2.001710e-002
2.545683e+003;2.021152e-002
2.547612e+003;2.019614e-002
2.549541e+003;2.007633e-002
2.551469e+003;1.992093e-002
2.553397e+003;1.991063e-002
2.555326e+003;2.014321e-002
2.557255e+003;2.028230e-002
2.559183e+003;2.044967e-002
2.561112e+003;2.043793e-002
2.563040e+003;2.049809e-002
2.564969e+003;2.068098e-002
2.566897e+003;2.071611e-002
2.568826e+003;2.057813e-002
2.570754e+003;2.066162e-002
2.572683e+003;2.072344e-002
2.574612e+003;2.072612e-002
2.576540e+003;2.082021e-002
2.578469e+003;2.085414e-002
2.580397e+003;2.088581e-002
2.582326e+003;2.103185e-002
2.584254e+003;2.104361e-002
2.586183e+003;2.098038e-002
2.588111e+003;2.135816e-002
2.590040e+003;2.152710e-002
2.591969e+003;2.144117e-002
2.593897e+003;2.190106e-002
2.595826e+003;2.231577e-002
2.597754e+003;2.236670e-002
2.599683e+003;2.227531e-002
2.601611e+003;2.241160e-002
2.603540e+003;2.276737e-002
2.605468e+003;2.266130e-002
2.607397e+003;2.252455e-002
2.609325e+003;2.258126e-002
2.611254e+003;2.280456e-002
2.613183e+003;2.324492e-002
2.615111e+003;2.364136e-002
2.617040e+003;2.403732e-002
2.618968e+003;2.431928e-002
2.620897e+003;2.436446e-002
2.622825e+003;2.445299e-002
2.624754e+003;2.434777e-002
2.626682e+003;2.447897e-002
2.628611e+003;2.517857e-002
2.630540e+003;2.572434e-002
2.632468e+003;2.577472e-002
2.634396e+003;2.584191e-002
2.636325e+003;2.587121e-002
2.638254e+003;2.585183e-002
2.640182e+003;2.598974e-002
2.642111e+003;2.633356e-002
2.644039e+003;2.675249e-002
2.645968e+003;2.709399e-002
2.647896e+003;2.728433e-002
2.649825e+003;2.719804e-002
2.651753e+003;2.729269e-002
2.653682e+003;2.756894e-002
2.655611e+003;2.769454e-002
2.657539e+003;2.770973e-002
2.659468e+003;2.814537e-002
2.661396e+003;2.878909e-002
2.663325e+003;2.915306e-002
2.665253e+003;2.935051e-002
2.667182e+003;2.952826e-002
2.669110e+003;2.982964e-002
2.671039e+003;2.994901e-002
2.672968e+003;2.993985e-002
2.674896e+003;3.002208e-002
2.676825e+003;3.013464e-002
2.678753e+003;3.069813e-002
2.680682e+003;3.098428e-002
2.682610e+003;3.116918e-002
2.684539e+003;3.144598e-002
2.686467e+003;3.155400e-002
2.688396e+003;3.180099e-002
2.690324e+003;3.234509e-002
2.692253e+003;3.284065e-002
2.694182e+003;3.307972e-002
2.696110e+003;3.301934e-002
2.698039e+003;3.291471e-002
2.699967e+003;3.336222e-002
2.701896e+003;3.410994e-002
2.703824e+003;3.442048e-002
2.705753e+003;3.422042e-002
2.707681e+003;3.438687e-002
2.709610e+003;3.486406e-002
2.711539e+003;3.500550e-002
2.713467e+003;3.506114e-002
2.715396e+003;3.507781e-002
2.717324e+003;3.528548e-002
2.719253e+003;3.573555e-002
2.721181e+003;3.592724e-002
2.723110e+003;3.603933e-002
2.725038e+003;3.624833e-002
2.726967e+003;3.651434e-002
2.728896e+003;3.662233e-002
2.730824e+003;3.657723e-002
2.732752e+003;3.686897e-002
2.734681e+003;3.744669e-002
2.736610e+003;3.756467e-002
2.738538e+003;3.750037e-002
2.740467e+003;3.780119e-002
2.742395e+003;3.772279e-002
2.744324e+003;3.764275e-002
2.746252e+003;3.785592e-002
2.748181e+003;3.822587e-002
2.750109e+003;3.831938e-002
2.752038e+003;3.855881e-002
2.753967e+003;3.869422e-002
2.755895e+003;3.858738e-002
2.757824e+003;3.884555e-002
2.759752e+003;3.925559e-002
2.761681e+003;3.934703e-002
2.763609e+003;3.963846e-002
2.765538e+003;3.994160e-002
2.767466e+003;4.026099e-002
2.769395e+003;4.093760e-002
2.771323e+003;4.135472e-002
2.773252e+003;4.129488e-002
2.775181e+003;4.139168e-002
2.777109e+003;4.178293e-002
2.779038e+003;4.227588e-002
2.780966e+003;4.239517e-002
2.782895e+003;4.211156e-002
2.784823e+003;4.232581e-002
2.786752e+003;4.300400e-002
2.788680e+003;4.362243e-002
2.790609e+003;4.380686e-002
2.792538e+003;4.398340e-002
2.794466e+003;4.473412e-002
2.796395e+003;4.555196e-002
2.798323e+003;4.573908e-002
2.800252e+003;4.609611e-002
2.802180e+003;4.675819e-002
2.804109e+003;4.746818e-002
2.806037e+003;4.785178e-002
2.807966e+003;4.828423e-002
2.809895e+003;4.912879e-002
2.811823e+003;4.989623e-002
2.813751e+003;5.054187e-002
2.815680e+003;5.147230e-002
2.817609e+003;5.233961e-002
2.819537e+003;5.294454e-002
2.821466e+003;5.328000e-002
2.823394e+003;5.411775e-002
2.825323e+003;5.508954e-002
2.827251e+003;5.579137e-002
2.829180e+003;5.651788e-002
2.831108e+003;5.743384e-002
2.833037e+003;5.869488e-002
2.834966e+003;6.020997e-002
2.836894e+003;6.165707e-002
2.838823e+003;6.291514e-002
2.840751e+003;6.467552e-002
2.842680e+003;6.703980e-002
2.844608e+003;6.969893e-002
2.846537e+003;7.311341e-002
2.848465e+003;7.637584e-002
2.850394e+003;7.819279e-002
2.852323e+003;7.889728e-002
2.854251e+003;7.919869e-002
2.856180e+003;7.928757e-002
2.858108e+003;7.979609e-002
2.860037e+003;8.102412e-002
2.861965e+003;8.271272e-002
2.863894e+003;8.434972e-002
2.865822e+003;8.566121e-002
2.867751e+003;8.652125e-002
2.869679e+003;8.769228e-002
2.871608e+003;8.891428e-002
2.873536e+003;8.984244e-002
2.875465e+003;9.040314e-002
2.877394e+003;9.110836e-002
2.879322e+003;9.219595e-002
2.881251e+003;9.293872e-002
2.883179e+003;9.319152e-002
2.885108e+003;9.356533e-002
2.887036e+003;9.407555e-002
2.888965e+003;9.464134e-002
2.890893e+003;9.501033e-002
2.892822e+003;9.533487e-002
2.894750e+003;9.532488e-002
2.896679e+003;9.518521e-002
2.898608e+003;9.539743e-002
2.900536e+003;9.533714e-002
2.902465e+003;9.496927e-002
2.904393e+003;9.457418e-002
2.906322e+003;9.453201e-002
2.908250e+003;9.435541e-002
2.910179e+003;9.409897e-002
2.912107e+003;9.393390e-002
2.914036e+003;9.411049e-002
2.915965e+003;9.404379e-002
2.917893e+003;9.338490e-002
2.919822e+003;9.245131e-002
2.921750e+003;9.073699e-002
2.923679e+003;8.839034e-002
2.925607e+003;8.591668e-002
2.927536e+003;8.381378e-002
2.929464e+003;8.185925e-002
2.931393e+003;8.033192e-002
2.933322e+003;7.879052e-002
2.935250e+003;7.690454e-002
2.937178e+003;7.578312e-002
2.939107e+003;7.475947e-002
2.941036e+003;7.311357e-002
2.942964e+003;7.177730e-002
2.944893e+003;7.056591e-002
2.946821e+003;6.899828e-002
2.948750e+003;6.772358e-002
2.950678e+003;6.674439e-002
2.952607e+003;6.512941e-002
2.954535e+003;6.301592e-002
2.956464e+003;6.160678e-002
2.958393e+003;6.021720e-002
2.960321e+003;5.860746e-002
2.962250e+003;5.710418e-002
2.964178e+003;5.579906e-002
2.966107e+003;5.460112e-002
2.968035e+003;5.340652e-002
2.969964e+003;5.267991e-002
2.971892e+003;5.214734e-002
2.973821e+003;5.101941e-002
2.975750e+003;4.966692e-002
2.977678e+003;4.860073e-002
2.979607e+003;4.774781e-002
2.981535e+003;4.648348e-002
2.983464e+003;4.570301e-002
2.985392e+003;4.512884e-002
2.987321e+003;4.413699e-002
2.989249e+003;4.335794e-002
2.991178e+003;4.304669e-002
2.993106e+003;4.299141e-002
2.995035e+003;4.254714e-002
2.996964e+003;4.190980e-002
2.998892e+003;4.132925e-002
3.000821e+003;4.119724e-002
3.002749e+003;4.128064e-002
3.004678e+003;4.122416e-002
3.006606e+003;4.093563e-002
3.008535e+003;4.079767e-002
3.010463e+003;4.095956e-002
3.012392e+003;4.110482e-002
3.014321e+003;4.140954e-002
3.016249e+003;4.205677e-002
3.018177e+003;4.254725e-002
3.020106e+003;4.229202e-002
3.022035e+003;4.206911e-002
3.023963e+003;4.234400e-002
3.025892e+003;4.293175e-002
3.027820e+003;4.344146e-002
3.029749e+003;4.391653e-002
3.031677e+003;4.449273e-002
3.033606e+003;4.479344e-002
3.035534e+003;4.489396e-002
3.037463e+003;4.523929e-002
3.039392e+003;4.588960e-002
3.041320e+003;4.629415e-002
3.043249e+003;4.689843e-002
3.045177e+003;4.751409e-002
3.047106e+003;4.825412e-002
3.049034e+003;4.899620e-002
3.050963e+003;4.936163e-002
3.052891e+003;4.976155e-002
3.054820e+003;5.073857e-002
3.056749e+003;5.135895e-002
3.058677e+003;5.147961e-002
3.060606e+003;5.186599e-002
3.062534e+003;5.228623e-002
3.064463e+003;5.290453e-002
3.066391e+003;5.373488e-002
3.068320e+003;5.436226e-002
3.070248e+003;5.507138e-002
3.072177e+003;5.554229e-002
3.074105e+003;5.591621e-002
3.076034e+003;5.686504e-002
3.077963e+003;5.786098e-002
3.079891e+003;5.839379e-002
3.081820e+003;5.879688e-002
3.083748e+003;5.890479e-002
3.085677e+003;5.936784e-002
3.087605e+003;6.043844e-002
3.089534e+003;6.110083e-002
3.091462e+003;6.160419e-002
3.093391e+003;6.256615e-002
3.095320e+003;6.311721e-002
3.097248e+003;6.390857e-002
3.099177e+003;6.461512e-002
3.101105e+003;6.511332e-002
3.103034e+003;6.603754e-002
3.104962e+003;6.676374e-002
3.106891e+003;6.723154e-002
3.108819e+003;6.754807e-002
3.110748e+003;6.820130e-002
3.112677e+003;6.911338e-002
3.114605e+003;6.952655e-002
3.116533e+003;7.022361e-002
3.118462e+003;7.142013e-002
3.120391e+003;7.276820e-002
3.122319e+003;7.368734e-002
3.124248e+003;7.381044e-002
3.126176e+003;7.454715e-002
3.128105e+003;7.587497e-002
3.130033e+003;7.676885e-002
3.131962e+003;7.754862e-002
3.133890e+003;7.842794e-002
3.135819e+003;7.892716e-002
3.137748e+003;7.958686e-002
3.139676e+003;8.026475e-002
3.141605e+003;8.071421e-002
3.143533e+003;8.136777e-002
3.145462e+003;8.218616e-002
3.147390e+003;8.325216e-002
3.149319e+003;8.379380e-002
3.151247e+003;8.453489e-002
3.153176e+003;8.553664e-002
3.155104e+003;8.644204e-002
3.157033e+003;8.718977e-002
3.158962e+003;8.794825e-002
3.160890e+003;8.881503e-002
3.162819e+003;8.950733e-002
3.164747e+003;9.042893e-002
3.166676e+003;9.110035e-002
3.168604e+003;9.187122e-002
3.170533e+003;9.311507e-002
3.172461e+003;9.422433e-002
3.174390e+003;9.484422e-002
3.176319e+003;9.561322e-002
3.178247e+003;9.630396e-002
3.180176e+003;9.701540e-002
3.182104e+003;9.828804e-002
3.184033e+003;9.897794e-002
3.185961e+003;9.954798e-002
3.187890e+003;1.006154e-001
3.189818e+003;1.012995e-001
3.191747e+003;1.016547e-001
3.193676e+003;1.025286e-001
3.195604e+003;1.033315e-001
3.197532e+003;1.037164e-001
3.199461e+003;1.051221e-001
3.201390e+003;1.062109e-001
3.203318e+003;1.064187e-001
3.205247e+003;1.073802e-001
3.207175e+003;1.086802e-001
3.209104e+003;1.098680e-001
3.211032e+003;1.108856e-001
3.212961e+003;1.108079e-001
3.214889e+003;1.111497e-001
3.216818e+003;1.125241e-001
3.218747e+003;1.139779e-001
3.220675e+003;1.150254e-001
3.222604e+003;1.159414e-001
3.224532e+003;1.160889e-001
3.226461e+003;1.165380e-001
3.228389e+003;1.174787e-001
3.230318e+003;1.182713e-001
3.232246e+003;1.190443e-001
3.234175e+003;1.201883e-001
3.236104e+003;1.215301e-001
3.238032e+003;1.222386e-001
3.239961e+003;1.230111e-001
3.241889e+003;1.241099e-001
3.243818e+003;1.249922e-001
3.245746e+003;1.251826e-001
3.247675e+003;1.257746e-001
3.249603e+003;1.271709e-001
3.251532e+003;1.286261e-001
3.253460e+003;1.297962e-001
3.255389e+003;1.303437e-001
3.257318e+003;1.305017e-001
3.259246e+003;1.304989e-001
3.261175e+003;1.314133e-001
3.263103e+003;1.325917e-001
3.265032e+003;1.336148e-001
3.266960e+003;1.345475e-001
3.268889e+003;1.350314e-001
3.270817e+003;1.356540e-001
3.272746e+003;1.366653e-001
3.274675e+003;1.374425e-001
3.276603e+003;1.374816e-001
3.278531e+003;1.375707e-001
3.280460e+003;1.386036e-001
3.282389e+003;1.392002e-001
3.284317e+003;1.387782e-001
3.286246e+003;1.393543e-001
3.288174e+003;1.400553e-001
3.290103e+003;1.404923e-001
3.292031e+003;1.411174e-001
3.293960e+003;1.412477e-001
3.295888e+003;1.408793e-001
3.297817e+003;1.408347e-001
3.299746e+003;1.413980e-001
3.301674e+003;1.417128e-001
3.303603e+003;1.416396e-001
3.305531e+003;1.425717e-001
3.307460e+003;1.432625e-001
3.309388e+003;1.431883e-001
3.311317e+003;1.433266e-001
3.313245e+003;1.439462e-001
3.315174e+003;1.443797e-001
3.317103e+003;1.443399e-001
3.319031e+003;1.441518e-001
3.320960e+003;1.438131e-001
3.322888e+003;1.440456e-001
3.324817e+003;1.451230e-001
3.326745e+003;1.459577e-001
3.328674e+003;1.457795e-001
3.330602e+003;1.448182e-001
3.332531e+003;1.446437e-001
3.334459e+003;1.451839e-001
3.336388e+003;1.454471e-001
3.338317e+003;1.454878e-001
3.340245e+003;1.450959e-001
3.342174e+003;1.445660e-001
3.344102e+003;1.435135e-001
3.346031e+003;1.428740e-001
3.347959e+003;1.429590e-001
3.349888e+003;1.426723e-001
3.351816e+003;1.420148e-001
3.353745e+003;1.416688e-001
3.355674e+003;1.407527e-001
3.357602e+003;1.393392e-001
3.359531e+003;1.389803e-001
3.361459e+003;1.382848e-001
3.363388e+003;1.373689e-001
3.365316e+003;1.375223e-001
3.367245e+003;1.370163e-001
3.369173e+003;1.366166e-001
3.371102e+003;1.367708e-001
3.373031e+003;1.367293e-001
3.374959e+003;1.360865e-001
3.376887e+003;1.351687e-001
3.378816e+003;1.344355e-001
3.380745e+003;1.340378e-001
3.382673e+003;1.330898e-001
3.384602e+003;1.324274e-001
3.386530e+003;1.317928e-001
3.388459e+003;1.310828e-001
3.390387e+003;1.309210e-001
3.392316e+003;1.310663e-001
3.394244e+003;1.307525e-001
3.396173e+003;1.295379e-001
3.398102e+003;1.285605e-001
3.400030e+003;1.279492e-001
3.401959e+003;1.271934e-001
3.403887e+003;1.266060e-001
3.405816e+003;1.256781e-001
3.407744e+003;1.244722e-001
3.409673e+003;1.234403e-001
3.411601e+003;1.222358e-001
3.413530e+003;1.216914e-001
3.415458e+003;1.219692e-001
3.417387e+003;1.209678e-001
3.419316e+003;1.197053e-001
3.421244e+003;1.192444e-001
3.423173e+003;1.181638e-001
3.425101e+003;1.164745e-001
3.427030e+003;1.158770e-001
3.428958e+003;1.154784e-001
3.430887e+003;1.141597e-001
3.432815e+003;1.131731e-001
3.434744e+003;1.126130e-001
3.436673e+003;1.116593e-001
3.438601e+003;1.103816e-001
3.440530e+003;1.094249e-001
3.442458e+003;1.084543e-001
3.444387e+003;1.073349e-001
3.446315e+003;1.065187e-001
3.448244e+003;1.057237e-001
3.450172e+003;1.045595e-001
3.452101e+003;1.036455e-001
3.454030e+003;1.028793e-001
3.455958e+003;1.021189e-001
3.457886e+003;1.009904e-001
3.459815e+003;9.928117e-002
3.461744e+003;9.738840e-002
3.463672e+003;9.645396e-002
3.465601e+003;9.595288e-002
3.467529e+003;9.506217e-002
3.469458e+003;9.330459e-002
3.471386e+003;9.187691e-002
3.473315e+003;9.091803e-002
3.475243e+003;9.030054e-002
3.477172e+003;8.975818e-002
3.479101e+003;8.893570e-002
3.481029e+003;8.816378e-002
3.482958e+003;8.654547e-002
3.484886e+003;8.447270e-002
3.486815e+003;8.323880e-002
3.488743e+003;8.250140e-002
3.490672e+003;8.218399e-002
3.492600e+003;8.158118e-002
3.494529e+003;7.965715e-002
3.496458e+003;7.783681e-002
3.498386e+003;7.679254e-002
3.500315e+003;7.560212e-002
3.502243e+003;7.396752e-002
3.504172e+003;7.232457e-002
3.506100e+003;7.145486e-002
3.508029e+003;7.050978e-002
3.509957e+003;6.939533e-002
3.511886e+003;6.910677e-002
3.513814e+003;6.867771e-002
3.515743e+003;6.715690e-002
3.517672e+003;6.502999e-002
3.519600e+003;6.287489e-002
3.521529e+003;6.211779e-002
3.523457e+003;6.178651e-002
3.525386e+003;6.038600e-002
3.527314e+003;5.875322e-002
3.529243e+003;5.799933e-002
3.531171e+003;5.716231e-002
3.533100e+003;5.649830e-002
3.535029e+003;5.516234e-002
3.536957e+003;5.344223e-002
3.538885e+003;5.246185e-002
3.540814e+003;5.143623e-002
3.542743e+003;4.984906e-002
3.544671e+003;4.840560e-002
3.546600e+003;4.787531e-002
3.548528e+003;4.727034e-002
3.550457e+003;4.595288e-002
3.552385e+003;4.425779e-002
3.554314e+003;4.337024e-002
3.556242e+003;4.313726e-002
3.558171e+003;4.224283e-002
3.560100e+003;4.043282e-002
3.562028e+003;3.876341e-002
3.563957e+003;3.794620e-002
3.565885e+003;3.657795e-002
3.567814e+003;3.556485e-002
3.569742e+003;3.506872e-002
3.571671e+003;3.427717e-002
3.573599e+003;3.275732e-002
3.575528e+003;3.146543e-002
3.577457e+003;2.992111e-002
3.579385e+003;2.886610e-002
3.581314e+003;2.844894e-002
3.583242e+003;2.738705e-002
3.585171e+003;2.542730e-002
3.587099e+003;2.364325e-002
3.589028e+003;2.299792e-002
3.590956e+003;2.224483e-002
3.592885e+003;2.116946e-002
3.594813e+003;2.038820e-002
3.596742e+003;1.954745e-002
3.598671e+003;1.897598e-002
3.600599e+003;1.822520e-002
3.602528e+003;1.714758e-002
3.604456e+003;1.566254e-002
3.606385e+003;1.415355e-002
3.608313e+003;1.232645e-002
3.610242e+003;1.157968e-002
3.612170e+003;1.085247e-002
3.614099e+003;1.015415e-002
3.616028e+003;9.115508e-003
3.617956e+003;6.943244e-003
3.619885e+003;5.743191e-003
3.621813e+003;6.209397e-003
3.623742e+003;6.314343e-003
3.625670e+003;4.959316e-003
3.627599e+003;1.428170e-003
3.629527e+003;5.598289e-004
3.631456e+003;2.167229e-003
3.633385e+003;1.986848e-003
3.635313e+003;1.825108e-003
3.637241e+003;2.404455e-003
3.639170e+003;1.914757e-003
3.641099e+003;1.216521e-004
3.643027e+003;-1.418502e-003
3.644956e+003;-3.061373e-003
3.646884e+003;-5.542236e-003
3.648813e+003;-7.841096e-003
3.650741e+003;-6.864578e-003
3.652670e+003;-4.906468e-003
3.654598e+003;-5.896776e-003
3.656527e+003;-6.048647e-003
3.658456e+003;-4.890906e-003
3.660384e+003;-5.605468e-003
3.662313e+003;-6.895951e-003
3.664241e+003;-7.821669e-003
3.666170e+003;-8.925998e-003
3.668098e+003;-1.127215e-002
3.670027e+003;-1.297402e-002
3.671955e+003;-1.237313e-002
3.673884e+003;-1.408859e-002
3.675813e+003;-1.470066e-002
3.677741e+003;-1.209120e-002
3.679669e+003;-1.113379e-002
3.681598e+003;-1.117622e-002
3.683527e+003;-1.162702e-002
3.685455e+003;-1.270283e-002
3.687384e+003;-1.509376e-002
3.689312e+003;-1.558130e-002
3.691241e+003;-1.444059e-002
3.693169e+003;-1.332039e-002
3.695098e+003;-1.279383e-002
3.697026e+003;-1.274196e-002
3.698955e+003;-1.361852e-002
3.700884e+003;-1.454249e-002
3.702812e+003;-1.443071e-002
3.704741e+003;-1.424734e-002
3.706669e+003;-1.471223e-002
3.708598e+003;-1.579216e-002
3.710526e+003;-1.669792e-002
3.712455e+003;-1.647461e-002
3.714383e+003;-1.533992e-002
3.716312e+003;-1.486418e-002
3.718240e+003;-1.519577e-002
3.720169e+003;-1.532613e-002
3.722098e+003;-1.525861e-002
3.724026e+003;-1.553287e-002
3.725955e+003;-1.537820e-002
3.727883e+003;-1.462564e-002
3.729812e+003;-1.557529e-002
3.731740e+003;-1.798490e-002
3.733669e+003;-1.931689e-002
3.735597e+003;-1.931885e-002
3.737526e+003;-1.782274e-002
3.739455e+003;-1.732345e-002
3.741383e+003;-1.840286e-002
3.743312e+003;-2.194410e-002
3.745240e+003;-2.104926e-002
3.747169e+003;-1.915586e-002
3.749097e+003;-2.154735e-002
3.751026e+003;-2.226794e-002
3.752954e+003;-1.946962e-002
3.754883e+003;-1.641077e-002
3.756812e+003;-1.696700e-002
3.758740e+003;-1.756348e-002
3.760668e+003;-1.681683e-002
3.762597e+003;-1.592324e-002
3.764526e+003;-1.637637e-002
3.766454e+003;-1.652099e-002
3.768383e+003;-1.674000e-002
3.770311e+003;-1.618881e-002
3.772240e+003;-1.502646e-002
3.774168e+003;-1.529079e-002
3.776097e+003;-1.645174e-002
3.778025e+003;-1.726031e-002
3.779954e+003;-1.752071e-002
3.781883e+003;-1.726420e-002
3.783811e+003;-1.751256e-002
3.785740e+003;-1.709782e-002
3.787668e+003;-1.694989e-002
3.789597e+003;-1.669597e-002
3.791525e+003;-1.657674e-002
3.793454e+003;-1.694396e-002
3.795382e+003;-1.797520e-002
3.797311e+003;-1.799940e-002
3.799240e+003;-1.935606e-002
3.801168e+003;-2.052766e-002
3.803097e+003;-1.782586e-002
3.805025e+003;-1.747281e-002
3.806954e+003;-1.878501e-002
3.808882e+003;-1.806332e-002
3.810811e+003;-1.759479e-002
3.812739e+003;-1.766211e-002
3.814668e+003;-2.016529e-002
3.816596e+003;-2.096222e-002
3.818525e+003;-2.019259e-002
3.820454e+003;-2.073917e-002
3.822382e+003;-1.869730e-002
3.824311e+003;-1.726808e-002
3.826239e+003;-1.761919e-002
3.828168e+003;-1.766901e-002
3.830096e+003;-1.826618e-002
3.832025e+003;-1.823616e-002
3.833953e+003;-1.805312e-002
3.835882e+003;-1.966644e-002
3.837811e+003;-2.077578e-002
3.839739e+003;-1.937742e-002
3.841667e+003;-1.819784e-002
3.843596e+003;-1.794704e-002
3.845525e+003;-1.747685e-002
3.847453e+003;-1.694833e-002
3.849382e+003;-1.828464e-002
3.851310e+003;-2.303469e-002
3.853239e+003;-2.535003e-002
3.855167e+003;-2.063324e-002
3.857096e+003;-1.701728e-002
3.859024e+003;-1.654804e-002
3.860953e+003;-1.719611e-002
3.862882e+003;-1.831298e-002
3.864810e+003;-1.839969e-002
3.866739e+003;-1.792163e-002
3.868667e+003;-1.979898e-002
3.870596e+003;-1.939877e-002
3.872524e+003;-1.755839e-002
3.874453e+003;-1.656134e-002
3.876381e+003;-1.605734e-002
3.878310e+003;-1.721331e-002
3.880239e+003;-1.736557e-002
3.882167e+003;-1.678540e-002
3.884096e+003;-1.809733e-002
3.886024e+003;-1.811287e-002
3.887953e+003;-1.710750e-002
3.889881e+003;-1.795413e-002
3.891810e+003;-1.734115e-002
3.893738e+003;-1.567808e-002
3.895667e+003;-1.551586e-002
3.897595e+003;-1.672935e-002
3.899524e+003;-1.806484e-002
3.901453e+003;-1.907906e-002
3.903381e+003;-1.896324e-002
3.905310e+003;-1.686104e-002
3.907238e+003;-1.510733e-002
3.909167e+003;-1.516714e-002
3.911095e+003;-1.558437e-002
3.913024e+003;-1.554246e-002
3.914952e+003;-1.608390e-002
3.916881e+003;-1.679640e-002
3.918810e+003;-1.673733e-002
3.920738e+003;-1.544449e-002
3.922667e+003;-1.521123e-002
3.924595e+003;-1.674217e-002
3.926524e+003;-1.703025e-002
3.928452e+003;-1.585271e-002
3.930381e+003;-1.511668e-002
3.932309e+003;-1.538959e-002
3.934238e+003;-1.546538e-002
3.936167e+003;-1.573161e-002
3.938095e+003;-1.577702e-002
3.940023e+003;-1.539714e-002
3.941952e+003;-1.529303e-002
3.943881e+003;-1.569521e-002
3.945809e+003;-1.629953e-002
3.947738e+003;-1.617764e-002
3.949666e+003;-1.549562e-002
3.951595e+003;-1.506253e-002
3.953523e+003;-1.498894e-002
3.955452e+003;-1.569365e-002
3.957380e+003;-1.566194e-002
3.959309e+003;-1.501970e-002
3.961238e+003;-1.504806e-002
3.963166e+003;-1.501958e-002
3.965095e+003;-1.543640e-002
3.967023e+003;-1.620113e-002
3.968952e+003;-1.639485e-002
3.970880e+003;-1.577862e-002
3.972809e+003;-1.465537e-002
3.974737e+003;-1.440142e-002
3.976666e+003;-1.488945e-002
3.978594e+003;-1.557238e-002
3.980523e+003;-1.572353e-002
3.982452e+003;-1.491839e-002
3.984380e+003;-1.468349e-002
3.986309e+003;-1.516618e-002
3.988237e+003;-1.512084e-002
3.990166e+003;-1.526856e-002
3.992094e+003;-1.524360e-002
3.994023e+003;-1.536992e-002
3.995951e+003;-1.585622e-002
3.997880e+003;-1.585980e-002
3.999809e+003;-1.519865e-002
4.001737e+003;0.000000e+000
