3.992094e+002;0.000000e+000
4.011380e+002;0.000000e+000
4.030665e+002;0.000000e+000
4.049951e+002;0.000000e+000
4.069236e+002;0.000000e+000
4.088522e+002;0.000000e+000
4.107807e+002;0.000000e+000
4.127093e+002;0.000000e+000
4.146378e+002;0.000000e+000
4.165664e+002;0.000000e+000
4.184949e+002;0.000000e+000
4.204235e+002;0.000000e+000
4.223520e+002;0.000000e+000
4.242806e+002;0.000000e+000
4.262091e+002;0.000000e+000
4.281377e+002;0.000000e+000
4.300662e+002;0.000000e+000
4.319948e+002;0.000000e+000
4.339233e+002;0.000000e+000
4.358519e+002;0.000000e+000
4.377804e+002;0.000000e+000
4.397090e+002;0.000000e+000
4.416375e+002;0.000000e+000
4.435660e+002;0.000000e+000
4.454946e+002;0.000000e+000
4.474232e+002;0.000000e+000
4.493517e+002;0.000000e+000
4.512802e+002;0.000000e+000
4.532088e+002;0.000000e+000
4.551373e+002;0.000000e+000
4.570659e+002;0.000000e+000
4.589944e+002;0.000000e+000
4.609230e+002;0.000000e+000
4.628515e+002;0.000000e+000
4.647801e+002;0.000000e+000
4.667086e+002;0.000000e+000
4.686372e+002;0.000000e+000
4.705657e+002;0.000000e+000
4.724943e+002;0.000000e+000
4.744228e+002;0.000000e+000
4.763513e+002;0.000000e+000
4.782799e+002;0.000000e+000
4.802085e+002;0.000000e+000
4.821370e+002;0.000000e+000
4.840656e+002;0.000000e+000
4.859941e+002;0.000000e+000
4.879226e+002;0.000000e+000
4.898512e+002;0.000000e+000
4.917798e+002;0.000000e+000
4.937083e+002;0.000000e+000
4.956368e+002;0.000000e+000
4.975654e+002;0.000000e+000
4.994939e+002;0.000000e+000
5.014225e+002;0.000000e+000
5.033510e+002;0.000000e+000
5.052796e+002;0.000000e+000
5.072081e+002;0.000000e+000
5.091367e+002;0.000000e+000
5.110652e+002;0.000000e+000
5.129938e+002;0.000000e+000
5.149223e+002;0.000000e+000
5.168509e+002;0.000000e+000
5.187794e+002;0.000000e+000
5.207079e+002;0.000000e+000
5.226365e+002;0.000000e+000
5.245651e+002;0.000000e+000
5.264936e+002;0.000000e+000
5.284222e+002;0.000000e+000
5.303507e+002;0.000000e+000
5.322792e+002;0.000000e+000
5.342078e+002;0.000000e+000
5.361364e+002;0.000000e+000
5.380649e+002;0.000000e+000
5.399935e+002;0.000000e+000
5.419220e+002;0.000000e+000
5.438505e+002;0.000000e+000
5.457791e+002;0.000000e+000
5.477076e+002;0.000000e+000
5.496362e+002;0.000000e+000
5.515648e+002;0.000000e+000
5.534933e+002;0.000000e+000
5.554218e+002;0.000000e+000
5.573504e+002;0.000000e+000
5.592789e+002;0.000000e+000
5.612075e+002;0.000000e+000
5.631360e+002;0.000000e+000
5.650646e+002;0.000000e+000
5.669931e+002;0.000000e+000
5.689217e+002;0.000000e+000
5.708502e+002;0.000000e+000
5.727787e+002;0.000000e+000
5.747073e+002;0.000000e+000
5.766359e+002;0.000000e+000
5.785644e+002;0.000000e+000
5.804930e+002;0.000000e+000
5.824215e+002;0.000000e+000
5.843500e+002;0.000000e+000
5.862786e+002;0.000000e+000
5.882072e+002;0.000000e+000
5.901357e+002;0.000000e+000
5.920643e+002;0.000000e+000
5.939928e+002;0.000000e+000
5.959213e+002;0.000000e+000
5.978499e+002;0.000000e+000
5.997784e+002;2.943707e-001
6.017070e+002;2.934089e-001
6.036355e+002;2.967857e-001
6.055641e+002;2.999132e-001
6.074926e+002;2.994009e-001
6.094211e+002;2.972491e-001
6.113497e+002;2.971257e-001
6.132783e+002;2.963187e-001
6.152068e+002;2.922391e-001
6.171354e+002;2.898833e-001
6.190639e+002;2.897581e-001
6.209924e+002;2.888980e-001
6.229210e+002;2.847934e-001
6.248495e+002;2.807000e-001
6.267781e+002;2.767913e-001
6.287067e+002;2.700842e-001
6.306352e+002;2.652930e-001
6.325637e+002;2.618253e-001
6.344923e+002;2.575845e-001
6.364208e+002;2.531329e-001
6.383494e+002;2.503725e-001
6.402780e+002;2.516017e-001
6.422065e+002;2.506812e-001
6.441350e+002;2.491249e-001
6.460636e+002;2.511742e-001
6.479921e+002;2.532867e-001
6.499207e+002;2.573721e-001
6.518492e+002;2.592340e-001
6.537778e+002;2.580873e-001
6.557063e+002;2.569615e-001
6.576349e+002;2.584215e-001
6.595634e+002;2.636706e-001
6.614919e+002;2.670598e-001
6.634205e+002;2.667140e-001
6.653491e+002;2.643235e-001
6.672776e+002;2.615562e-001
6.692062e+002;2.573960e-001
6.711347e+002;2.529523e-001
6.730632e+002;2.476699e-001
6.749918e+002;2.399434e-001
6.769203e+002;2.318954e-001
6.788489e+002;2.243637e-001
6.807775e+002;2.188227e-001
6.827060e+002;2.154874e-001
6.846345e+002;2.136586e-001
6.865631e+002;2.117104e-001
6.884916e+002;2.096095e-001
6.904202e+002;2.080085e-001
6.923488e+002;2.071752e-001
6.942773e+002;2.070372e-001
6.962058e+002;2.062207e-001
6.981344e+002;2.049247e-001
7.000629e+002;2.041442e-001
7.019915e+002;2.021507e-001
7.039200e+002;2.002957e-001
7.058486e+002;1.995402e-001
7.077771e+002;1.979356e-001
7.097057e+002;1.956860e-001
7.116342e+002;1.933812e-001
7.135627e+002;1.911863e-001
7.154913e+002;1.890661e-001
7.174199e+002;1.858998e-001
7.193484e+002;1.822894e-001
7.212770e+002;1.792960e-001
7.232055e+002;1.758492e-001
7.251340e+002;1.717876e-001
7.270626e+002;1.677724e-001
7.289911e+002;1.649762e-001
7.309197e+002;1.624426e-001
7.328483e+002;1.600199e-001
7.347768e+002;1.581883e-001
7.367053e+002;1.555713e-001
7.386339e+002;1.525835e-001
7.405624e+002;1.508515e-001
7.424910e+002;1.500501e-001
7.444196e+002;1.486328e-001
7.463481e+002;1.470928e-001
7.482766e+002;1.460597e-001
7.502052e+002;1.457612e-001
7.521337e+002;1.448147e-001
7.540623e+002;1.426429e-001
7.559908e+002;1.395331e-001
7.579194e+002;1.369102e-001
7.598479e+002;1.353025e-001
7.617765e+002;1.337420e-001
7.637050e+002;1.325547e-001
7.656335e+002;1.313670e-001
7.675621e+002;1.300741e-001
7.694907e+002;1.291666e-001
7.714192e+002;1.276767e-001
7.733478e+002;1.262940e-001
7.752763e+002;1.256031e-001
7.772048e+002;1.249220e-001
7.791334e+002;1.237205e-001
7.810620e+002;1.234409e-001
7.829905e+002;1.231800e-001
7.849191e+002;1.219442e-001
7.868476e+002;1.209033e-001
7.887761e+002;1.198281e-001
7.907047e+002;1.186125e-001
7.926332e+002;1.178868e-001
7.945618e+002;1.170652e-001
7.964903e+002;1.166859e-001
7.984189e+002;1.167486e-001
8.003474e+002;1.165329e-001
8.022759e+002;1.169328e-001
8.042045e+002;1.180609e-001
8.061331e+002;1.186214e-001
8.080616e+002;1.175468e-001
8.099902e+002;1.158786e-001
8.119187e+002;1.153382e-001
8.138472e+002;1.155295e-001
8.157758e+002;1.154531e-001
8.177043e+002;1.149275e-001
8.196329e+002;1.138890e-001
8.215615e+002;1.126188e-001
8.234900e+002;1.113777e-001
8.254185e+002;1.109689e-001
8.273471e+002;1.114315e-001
8.292756e+002;1.110345e-001
8.312042e+002;1.106058e-001
8.331328e+002;1.102039e-001
8.350613e+002;1.087476e-001
8.369898e+002;1.078406e-001
8.389184e+002;1.076194e-001
8.408469e+002;1.077488e-001
8.427755e+002;1.080054e-001
8.447040e+002;1.080995e-001
8.466326e+002;1.076716e-001
8.485611e+002;1.072754e-001
8.504897e+002;1.075564e-001
8.524182e+002;1.082805e-001
8.543467e+002;1.086440e-001
8.562753e+002;1.091673e-001
8.582039e+002;1.106912e-001
8.601324e+002;1.128025e-001
8.620610e+002;1.148300e-001
8.639895e+002;1.169038e-001
8.659180e+002;1.190646e-001
8.678466e+002;1.220302e-001
8.697751e+002;1.257956e-001
8.717037e+002;1.293139e-001
8.736323e+002;1.328368e-001
8.755608e+002;1.360650e-001
8.774893e+002;1.390405e-001
8.794179e+002;1.420697e-001
8.813464e+002;1.446426e-001
8.832750e+002;1.472963e-001
8.852036e+002;1.503832e-001
8.871321e+002;1.537813e-001
8.890606e+002;1.577303e-001
8.909892e+002;1.612366e-001
8.929177e+002;1.637497e-001
8.948463e+002;1.655622e-001
8.967748e+002;1.667984e-001
8.987034e+002;1.668598e-001
9.006319e+002;1.656074e-001
9.025605e+002;1.632802e-001
9.044890e+002;1.605260e-001
9.064175e+002;1.577160e-001
9.083461e+002;1.548636e-001
9.102747e+002;1.516889e-001
9.122032e+002;1.489564e-001
9.141318e+002;1.468375e-001
9.160603e+002;1.457686e-001
9.179888e+002;1.453001e-001
9.199174e+002;1.453410e-001
9.218459e+002;1.459491e-001
9.237745e+002;1.470807e-001
9.257031e+002;1.487515e-001
9.276316e+002;1.505889e-001
9.295601e+002;1.525030e-001
9.314887e+002;1.546607e-001
9.334172e+002;1.569501e-001
9.353458e+002;1.593704e-001
9.372744e+002;1.620557e-001
9.392029e+002;1.647956e-001
9.411314e+002;1.672865e-001
9.430600e+002;1.702402e-001
9.449885e+002;1.739996e-001
9.469171e+002;1.781784e-001
9.488456e+002;1.824339e-001
9.507742e+002;1.870795e-001
9.527027e+002;1.927781e-001
9.546313e+002;1.992738e-001
9.565598e+002;2.055200e-001
9.584883e+002;2.117663e-001
9.604169e+002;2.191501e-001
9.623455e+002;2.275476e-001
9.642740e+002;2.358286e-001
9.662026e+002;2.442933e-001
9.681311e+002;2.541532e-001
9.700596e+002;2.658233e-001
9.719882e+002;2.791110e-001
9.739167e+002;2.941516e-001
9.758453e+002;3.108119e-001
9.777739e+002;3.299168e-001
9.797024e+002;3.504445e-001
9.816309e+002;3.689153e-001
9.835595e+002;3.833843e-001
9.854880e+002;3.935863e-001
9.874166e+002;4.009598e-001
9.893452e+002;4.072734e-001
9.912737e+002;4.137920e-001
9.932022e+002;4.210496e-001
9.951307e+002;4.293190e-001
9.970593e+002;4.376181e-001
9.989879e+002;4.447401e-001
1.000916e+003;4.502187e-001
1.002845e+003;4.545536e-001
1.004773e+003;4.570306e-001
1.006702e+003;4.588212e-001
1.008631e+003;4.624639e-001
1.010559e+003;4.670601e-001
1.012488e+003;4.720675e-001
1.014416e+003;4.784796e-001
1.016345e+003;4.854128e-001
1.018273e+003;4.921159e-001
1.020202e+003;4.983331e-001
1.022130e+003;5.038589e-001
1.024059e+003;5.090806e-001
1.025988e+003;5.129099e-001
1.027916e+003;5.153049e-001
1.029845e+003;5.164422e-001
1.031773e+003;5.148292e-001
1.033702e+003;5.097233e-001
1.035630e+003;5.027141e-001
1.037559e+003;4.956814e-001
1.039487e+003;4.883131e-001
1.041416e+003;4.826135e-001
1.043344e+003;4.792867e-001
1.045273e+003;4.792026e-001
1.047202e+003;4.805892e-001
1.049130e+003;4.806565e-001
1.051059e+003;4.801574e-001
1.052987e+003;4.786690e-001
1.054916e+003;4.746316e-001
1.056844e+003;4.670554e-001
1.058773e+003;4.556588e-001
1.060701e+003;4.407503e-001
1.062630e+003;4.230672e-001
1.064558e+003;4.049485e-001
1.066487e+003;3.882309e-001
1.068416e+003;3.733425e-001
1.070344e+003;3.612216e-001
1.072273e+003;3.508552e-001
1.074201e+003;3.410259e-001
1.076130e+003;3.327796e-001
1.078058e+003;3.252376e-001
1.079987e+003;3.180064e-001
1.081915e+003;3.128290e-001
1.083844e+003;3.095108e-001
1.085773e+003;3.065557e-001
1.087701e+003;3.035980e-001
1.089630e+003;3.025548e-001
1.091558e+003;3.026892e-001
1.093487e+003;3.025066e-001
1.095415e+003;3.014339e-001
1.097344e+003;3.007871e-001
1.099272e+003;3.005733e-001
1.101201e+003;2.994919e-001
1.103129e+003;2.975300e-001
1.105058e+003;2.945720e-001
1.106987e+003;2.910386e-001
1.108915e+003;2.860846e-001
1.110844e+003;2.795085e-001
1.112772e+003;2.703866e-001
1.114701e+003;2.596327e-001
1.116629e+003;2.495134e-001
1.118558e+003;2.393170e-001
1.120486e+003;2.293560e-001
1.122415e+003;2.202780e-001
1.124344e+003;2.122452e-001
1.126272e+003;2.047117e-001
1.128201e+003;1.972039e-001
1.130129e+003;1.898221e-001
1.132058e+003;1.833741e-001
1.133986e+003;1.787156e-001
1.135915e+003;1.748123e-001
1.137843e+003;1.714329e-001
1.139772e+003;1.695695e-001
1.141700e+003;1.692872e-001
1.143629e+003;1.704358e-001
1.145557e+003;1.717942e-001
1.147486e+003;1.727547e-001
1.149415e+003;1.740811e-001
1.151343e+003;1.754839e-001
1.153272e+003;1.763486e-001
1.155200e+003;1.769448e-001
1.157129e+003;1.764347e-001
1.159057e+003;1.746661e-001
1.160986e+003;1.722119e-001
1.162914e+003;1.677028e-001
1.164843e+003;1.612338e-001
1.166771e+003;1.538770e-001
1.168700e+003;1.460561e-001
1.170629e+003;1.377466e-001
1.172557e+003;1.296634e-001
1.174486e+003;1.230679e-001
1.176414e+003;1.177621e-001
1.178343e+003;1.133914e-001
1.180271e+003;1.098901e-001
1.182200e+003;1.072027e-001
1.184128e+003;1.058230e-001
1.186057e+003;1.053843e-001
1.187986e+003;1.060853e-001
1.189914e+003;1.079858e-001
1.191843e+003;1.108010e-001
1.193771e+003;1.137585e-001
1.195700e+003;1.164151e-001
1.197628e+003;1.188191e-001
1.199557e+003;1.204805e-001
1.201485e+003;1.210161e-001
1.203414e+003;1.207595e-001
1.205343e+003;1.197414e-001
1.207271e+003;1.177352e-001
1.209200e+003;1.142227e-001
1.211128e+003;1.100352e-001
1.213057e+003;1.068503e-001
1.214985e+003;1.051560e-001
1.216914e+003;1.050546e-001
1.218842e+003;1.062538e-001
1.220771e+003;1.081332e-001
1.222699e+003;1.101090e-001
1.224628e+003;1.124433e-001
1.226557e+003;1.149509e-001
1.228485e+003;1.171516e-001
1.230414e+003;1.191988e-001
1.232342e+003;1.210599e-001
1.234271e+003;1.223598e-001
1.236199e+003;1.228045e-001
1.238128e+003;1.231135e-001
1.240056e+003;1.234601e-001
1.241985e+003;1.236142e-001
1.243913e+003;1.244894e-001
1.245842e+003;1.260197e-001
1.247771e+003;1.266925e-001
1.249699e+003;1.270318e-001
1.251628e+003;1.272979e-001
1.253556e+003;1.271935e-001
1.255485e+003;1.271363e-001
1.257413e+003;1.273615e-001
1.259342e+003;1.277858e-001
1.261270e+003;1.278192e-001
1.263199e+003;1.280612e-001
1.265127e+003;1.285035e-001
1.267056e+003;1.286001e-001
1.268985e+003;1.288363e-001
1.270913e+003;1.291800e-001
1.272842e+003;1.292325e-001
1.274770e+003;1.293470e-001
1.276699e+003;1.295002e-001
1.278627e+003;1.292037e-001
1.280556e+003;1.282354e-001
1.282484e+003;1.268521e-001
1.284413e+003;1.256717e-001
1.286342e+003;1.251683e-001
1.288270e+003;1.253664e-001
1.290199e+003;1.262198e-001
1.292127e+003;1.272762e-001
1.294056e+003;1.283347e-001
1.295984e+003;1.298916e-001
1.297913e+003;1.321116e-001
1.299841e+003;1.349450e-001
1.301770e+003;1.383103e-001
1.303698e+003;1.417960e-001
1.305627e+003;1.456519e-001
1.307556e+003;1.500824e-001
1.309484e+003;1.546752e-001
1.311413e+003;1.585823e-001
1.313341e+003;1.611263e-001
1.315270e+003;1.620358e-001
1.317198e+003;1.609620e-001
1.319127e+003;1.587499e-001
1.321055e+003;1.559104e-001
1.322984e+003;1.530997e-001
1.324912e+003;1.510301e-001
1.326841e+003;1.497443e-001
1.328770e+003;1.492782e-001
1.330698e+003;1.498410e-001
1.332627e+003;1.509221e-001
1.334555e+003;1.513395e-001
1.336484e+003;1.507148e-001
1.338412e+003;1.493452e-001
1.340341e+003;1.476456e-001
1.342269e+003;1.459099e-001
1.344198e+003;1.438337e-001
1.346126e+003;1.416399e-001
1.348055e+003;1.401115e-001
1.349984e+003;1.398063e-001
1.351912e+003;1.404094e-001
1.353841e+003;1.414620e-001
1.355769e+003;1.424906e-001
1.357698e+003;1.435726e-001
1.359626e+003;1.443848e-001
1.361555e+003;1.443769e-001
1.363483e+003;1.439540e-001
1.365412e+003;1.434984e-001
1.367341e+003;1.426977e-001
1.369269e+003;1.418986e-001
1.371198e+003;1.405628e-001
1.373126e+003;1.379269e-001
1.375055e+003;1.348895e-001
1.376983e+003;1.321247e-001
1.378912e+003;1.293191e-001
1.380840e+003;1.265886e-001
1.382769e+003;1.236575e-001
1.384698e+003;1.207578e-001
1.386626e+003;1.179708e-001
1.388555e+003;1.166138e-001
1.390483e+003;1.160246e-001
1.392412e+003;1.150170e-001
1.394340e+003;1.142836e-001
1.396269e+003;1.148389e-001
1.398197e+003;1.156605e-001
1.400126e+003;1.167612e-001
1.402054e+003;1.177588e-001
1.403983e+003;1.182731e-001
1.405911e+003;1.196285e-001
1.407840e+003;1.211516e-001
1.409769e+003;1.220690e-001
1.411697e+003;1.229180e-001
1.413626e+003;1.241117e-001
1.415554e+003;1.249875e-001
1.417483e+003;1.249324e-001
1.419411e+003;1.256455e-001
1.421340e+003;1.282845e-001
1.423268e+003;1.298029e-001
1.425197e+003;1.304670e-001
1.427125e+003;1.306900e-001
1.429054e+003;1.296590e-001
1.430983e+003;1.285049e-001
1.432911e+003;1.270097e-001
1.434840e+003;1.234745e-001
1.436768e+003;1.201704e-001
1.438697e+003;1.200885e-001
1.440625e+003;1.194853e-001
1.442554e+003;1.180854e-001
1.444482e+003;1.166851e-001
1.446411e+003;1.149207e-001
1.448340e+003;1.138673e-001
1.450268e+003;1.136099e-001
1.452197e+003;1.126620e-001
1.454125e+003;1.100671e-001
1.456054e+003;1.051239e-001
1.457982e+003;1.038028e-001
1.459911e+003;1.055749e-001
1.461839e+003;1.057227e-001
1.463768e+003;1.031597e-001
1.465697e+003;1.006488e-001
1.467625e+003;9.916841e-002
1.469554e+003;9.647154e-002
1.471482e+003;9.281180e-002
1.473411e+003;9.035308e-002
1.475339e+003;8.847738e-002
1.477268e+003;8.616364e-002
1.479196e+003;8.412477e-002
1.481125e+003;8.152825e-002
1.483053e+003;7.882131e-002
1.484982e+003;7.578624e-002
1.486911e+003;7.223409e-002
1.488839e+003;6.885627e-002
1.490768e+003;6.697702e-002
1.492696e+003;6.627256e-002
1.494625e+003;6.416461e-002
1.496553e+003;6.204834e-002
1.498482e+003;6.207158e-002
1.500410e+003;6.271232e-002
1.502339e+003;6.252994e-002
1.504267e+003;5.917844e-002
1.506196e+003;5.558887e-002
1.508125e+003;5.721106e-002
1.510053e+003;5.979853e-002
1.511982e+003;5.994903e-002
1.513910e+003;5.944504e-002
1.515839e+003;5.814193e-002
1.517767e+003;5.716745e-002
1.519696e+003;5.524714e-002
1.521624e+003;5.389292e-002
1.523553e+003;5.526878e-002
1.525481e+003;5.574714e-002
1.527410e+003;5.645615e-002
1.529339e+003;5.734039e-002
1.531267e+003;5.714783e-002
1.533196e+003;5.647294e-002
1.535124e+003;5.747555e-002
1.537053e+003;5.633153e-002
1.538981e+003;5.292092e-002
1.540910e+003;5.366645e-002
1.542838e+003;5.644426e-002
1.544767e+003;5.787162e-002
1.546695e+003;5.884344e-002
1.548624e+003;5.864167e-002
1.550553e+003;5.810901e-002
1.552481e+003;5.716552e-002
1.554410e+003;5.561825e-002
1.556338e+003;5.359409e-002
1.558267e+003;4.982379e-002
1.560195e+003;5.128716e-002
1.562124e+003;5.594968e-002
1.564052e+003;5.748376e-002
1.565981e+003;5.794496e-002
1.567910e+003;5.769891e-002
1.569838e+003;5.758215e-002
1.571767e+003;5.935576e-002
1.573695e+003;5.942612e-002
1.575624e+003;5.755918e-002
1.577552e+003;5.945739e-002
1.579481e+003;6.198872e-002
1.581409e+003;6.222925e-002
1.583338e+003;6.193284e-002
1.585266e+003;6.172746e-002
1.587195e+003;6.206913e-002
1.589124e+003;6.256450e-002
1.591052e+003;6.274455e-002
1.592981e+003;6.283135e-002
1.594909e+003;6.322628e-002
1.596838e+003;6.363902e-002
1.598766e+003;6.411771e-002
1.600695e+003;6.457002e-002
1.602623e+003;6.477506e-002
1.604552e+003;6.503457e-002
1.606480e+003;6.522305e-002
1.608409e+003;6.546272e-002
1.610338e+003;6.613433e-002
1.612266e+003;6.670154e-002
1.614195e+003;6.583591e-002
1.616123e+003;6.402835e-002
1.618052e+003;6.554933e-002
1.619980e+003;6.781363e-002
1.621909e+003;6.783040e-002
1.623837e+003;6.809682e-002
1.625766e+003;6.919820e-002
1.627694e+003;6.999336e-002
1.629623e+003;7.097703e-002
1.631552e+003;7.140842e-002
1.633480e+003;6.974281e-002
1.635409e+003;6.820711e-002
1.637337e+003;7.053328e-002
1.639266e+003;7.282352e-002
1.641194e+003;7.328358e-002
1.643123e+003;7.269325e-002
1.645051e+003;7.065175e-002
1.646980e+003;7.011566e-002
1.648909e+003;7.137877e-002
1.650837e+003;6.820808e-002
1.652766e+003;6.341128e-002
1.654694e+003;6.677491e-002
1.656623e+003;7.060672e-002
1.658551e+003;7.041626e-002
1.660480e+003;6.903316e-002
1.662408e+003;6.745809e-002
1.664337e+003;6.709057e-002
1.666266e+003;6.630298e-002
1.668194e+003;6.392703e-002
1.670123e+003;6.261107e-002
1.672051e+003;6.233288e-002
1.673980e+003;6.043946e-002
1.675908e+003;5.918767e-002
1.677837e+003;5.950291e-002
1.679765e+003;5.840990e-002
1.681694e+003;5.558518e-002
1.683622e+003;5.096024e-002
1.685551e+003;5.092313e-002
1.687479e+003;5.317839e-002
1.689408e+003;5.273248e-002
1.691337e+003;5.195194e-002
1.693265e+003;4.938870e-002
1.695194e+003;4.480586e-002
1.697122e+003;4.376581e-002
1.699051e+003;4.186768e-002
1.700979e+003;4.114212e-002
1.702908e+003;4.334018e-002
1.704836e+003;4.269689e-002
1.706765e+003;4.225630e-002
1.708693e+003;4.206513e-002
1.710622e+003;4.180745e-002
1.712551e+003;4.058778e-002
1.714479e+003;3.826090e-002
1.716408e+003;3.565861e-002
1.718336e+003;3.588628e-002
1.720265e+003;3.825591e-002
1.722193e+003;3.882083e-002
1.724122e+003;3.818719e-002
1.726050e+003;3.782223e-002
1.727979e+003;3.739537e-002
1.729908e+003;3.658855e-002
1.731836e+003;3.391014e-002
1.733765e+003;3.079867e-002
1.735693e+003;3.218241e-002
1.737622e+003;3.292350e-002
1.739550e+003;3.103755e-002
1.741479e+003;2.994745e-002
1.743407e+003;2.889546e-002
1.745336e+003;2.791790e-002
1.747265e+003;2.662833e-002
1.749193e+003;2.505443e-002
1.751122e+003;2.455273e-002
1.753050e+003;2.620747e-002
1.754979e+003;2.669921e-002
1.756907e+003;2.663375e-002
1.758836e+003;2.718446e-002
1.760764e+003;2.673459e-002
1.762693e+003;2.677230e-002
1.764621e+003;2.724979e-002
1.766550e+003;2.632198e-002
1.768479e+003;2.558314e-002
1.770407e+003;2.485004e-002
1.772336e+003;2.403939e-002
1.774264e+003;2.527967e-002
1.776193e+003;2.637739e-002
1.778121e+003;2.625372e-002
1.780050e+003;2.577669e-002
1.781978e+003;2.559793e-002
1.783907e+003;2.522709e-002
1.785835e+003;2.516800e-002
1.787764e+003;2.527162e-002
1.789693e+003;2.440851e-002
1.791621e+003;2.330557e-002
1.793550e+003;2.364927e-002
1.795478e+003;2.458492e-002
1.797407e+003;2.437718e-002
1.799335e+003;2.379439e-002
1.801264e+003;2.371197e-002
1.803192e+003;2.393052e-002
1.805121e+003;2.385844e-002
1.807049e+003;2.344984e-002
1.808978e+003;2.300030e-002
1.810907e+003;2.305532e-002
1.812835e+003;2.307353e-002
1.814764e+003;2.287884e-002
1.816692e+003;2.280114e-002
1.818621e+003;2.302933e-002
1.820549e+003;2.289047e-002
1.822478e+003;2.241869e-002
1.824406e+003;2.170411e-002
1.826335e+003;2.166113e-002
1.828264e+003;2.119409e-002
1.830192e+003;2.086797e-002
1.832121e+003;2.147588e-002
1.834049e+003;2.186590e-002
1.835978e+003;2.185876e-002
1.837906e+003;2.172278e-002
1.839835e+003;2.161220e-002
1.841763e+003;2.069731e-002
1.843692e+003;1.936393e-002
1.845620e+003;2.005523e-002
1.847549e+003;2.108180e-002
1.849478e+003;2.125532e-002
1.851406e+003;2.122126e-002
1.853335e+003;2.093699e-002
1.855263e+003;2.060043e-002
1.857192e+003;2.058932e-002
1.859120e+003;2.056559e-002
1.861049e+003;2.037289e-002
1.862977e+003;2.025112e-002
1.864906e+003;2.012328e-002
1.866834e+003;1.975924e-002
1.868763e+003;1.939307e-002
1.870692e+003;2.006464e-002
1.872620e+003;2.051480e-002
1.874549e+003;2.018857e-002
1.876477e+003;2.014730e-002
1.878406e+003;2.016566e-002
1.880334e+003;2.018177e-002
1.882263e+003;2.018441e-002
1.884191e+003;1.992405e-002
1.886120e+003;1.972470e-002
1.888048e+003;1.955158e-002
1.889977e+003;1.958655e-002
1.891906e+003;2.000447e-002
1.893834e+003;1.993786e-002
1.895763e+003;1.988808e-002
1.897691e+003;2.000343e-002
1.899620e+003;1.993394e-002
1.901548e+003;1.989887e-002
1.903477e+003;1.986207e-002
1.905405e+003;1.963716e-002
1.907334e+003;1.948205e-002
1.909262e+003;1.943153e-002
1.911191e+003;1.953390e-002
1.913120e+003;1.968850e-002
1.915048e+003;1.964579e-002
1.916977e+003;1.945970e-002
1.918905e+003;1.968847e-002
1.920834e+003;1.992582e-002
1.922762e+003;1.999750e-002
1.924691e+003;2.019680e-002
1.926619e+003;2.020360e-002
1.928548e+003;2.004094e-002
1.930477e+003;1.997564e-002
1.932405e+003;1.993477e-002
1.934334e+003;1.999604e-002
1.936262e+003;2.035132e-002
1.938191e+003;2.058452e-002
1.940119e+003;2.041532e-002
1.942048e+003;2.024033e-002
1.943976e+003;2.051313e-002
1.945905e+003;2.071305e-002
1.947833e+003;2.056997e-002
1.949762e+003;2.047791e-002
1.951691e+003;2.043380e-002
1.953619e+003;2.042356e-002
1.955548e+003;2.059752e-002
1.957476e+003;2.086752e-002
1.959405e+003;2.094933e-002
1.961333e+003;2.085344e-002
1.963262e+003;2.096258e-002
1.965190e+003;2.102681e-002
1.967119e+003;2.078781e-002
1.969047e+003;2.080140e-002
1.970976e+003;2.111595e-002
1.972905e+003;2.124593e-002
1.974833e+003;2.102392e-002
1.976762e+003;2.104340e-002
1.978690e+003;2.135955e-002
1.980619e+003;2.161196e-002
1.982547e+003;2.156296e-002
1.984476e+003;2.151164e-002
1.986404e+003;2.154144e-002
1.988333e+003;2.147452e-002
1.990261e+003;2.120021e-002
1.992190e+003;2.123640e-002
1.994119e+003;2.155558e-002
1.996047e+003;2.186426e-002
1.997976e+003;2.201524e-002
1.999904e+003;2.186496e-002
2.001833e+003;2.170756e-002
2.003761e+003;2.186726e-002
2.005690e+003;2.211002e-002
2.007618e+003;2.212498e-002
2.009547e+003;2.216334e-002
2.011476e+003;2.225216e-002
2.013404e+003;2.215901e-002
2.015333e+003;2.230601e-002
2.017261e+003;2.255027e-002
2.019190e+003;2.280197e-002
2.021118e+003;2.285527e-002
2.023047e+003;2.284964e-002
2.024975e+003;2.300578e-002
2.026904e+003;2.327393e-002
2.028833e+003;2.336113e-002
2.030761e+003;2.349699e-002
2.032690e+003;2.364384e-002
2.034618e+003;2.369598e-002
2.036547e+003;2.358881e-002
2.038475e+003;2.356303e-002
2.040404e+003;2.375036e-002
2.042332e+003;2.394155e-002
2.044261e+003;2.397604e-002
2.046189e+003;2.395948e-002
2.048118e+003;2.387759e-002
2.050047e+003;2.386110e-002
2.051975e+003;2.383303e-002
2.053904e+003;2.379026e-002
2.055832e+003;2.372901e-002
2.057761e+003;2.367337e-002
2.059689e+003;2.350437e-002
2.061618e+003;2.326460e-002
2.063546e+003;2.319071e-002
2.065475e+003;2.336406e-002
2.067404e+003;2.351091e-002
2.069332e+003;2.339176e-002
2.071260e+003;2.321028e-002
2.073189e+003;2.343673e-002
2.075118e+003;2.351493e-002
2.077046e+003;2.335805e-002
2.078975e+003;2.347244e-002
2.080903e+003;2.361127e-002
2.082832e+003;2.363139e-002
2.084760e+003;2.356635e-002
2.086689e+003;2.345369e-002
2.088617e+003;2.350241e-002
2.090546e+003;2.340288e-002
2.092475e+003;2.321996e-002
2.094403e+003;2.334242e-002
2.096332e+003;2.325810e-002
2.098260e+003;2.330662e-002
2.100189e+003;2.361428e-002
2.102117e+003;2.378490e-002
2.104046e+003;2.398588e-002
2.105974e+003;2.418012e-002
2.107903e+003;2.417591e-002
2.109832e+003;2.395290e-002
2.111760e+003;2.412495e-002
2.113688e+003;2.444623e-002
2.115617e+003;2.452668e-002
2.117546e+003;2.449316e-002
2.119474e+003;2.444118e-002
2.121403e+003;2.449492e-002
2.123331e+003;2.459463e-002
2.125260e+003;2.471920e-002
2.127188e+003;2.473719e-002
2.129117e+003;2.476992e-002
2.131045e+003;2.495868e-002
2.132974e+003;2.494493e-002
2.134903e+003;2.472144e-002
2.136831e+003;2.466112e-002
2.138760e+003;2.463836e-002
2.140688e+003;2.437497e-002
2.142617e+003;2.396827e-002
2.144545e+003;2.387839e-002
2.146474e+003;2.385249e-002
2.148402e+003;2.382186e-002
2.150331e+003;2.400675e-002
2.152260e+003;2.419304e-002
2.154188e+003;2.424441e-002
2.156117e+003;2.409570e-002
2.158045e+003;2.381385e-002
2.159974e+003;2.359532e-002
2.161902e+003;2.355309e-002
2.163831e+003;2.352091e-002
2.165759e+003;2.358052e-002
2.167688e+003;2.350430e-002
2.169616e+003;2.307968e-002
2.171545e+003;2.290944e-002
2.173474e+003;2.274415e-002
2.175402e+003;2.228341e-002
2.177331e+003;2.231954e-002
2.179259e+003;2.229736e-002
2.181188e+003;2.181646e-002
2.183116e+003;2.164765e-002
2.185045e+003;2.185067e-002
2.186973e+003;2.184959e-002
2.188902e+003;2.165424e-002
2.190831e+003;2.155474e-002
2.192759e+003;2.132889e-002
2.194688e+003;2.101112e-002
2.196616e+003;2.088692e-002
2.198545e+003;2.086119e-002
2.200473e+003;2.082518e-002
2.202402e+003;2.075959e-002
2.204330e+003;2.067413e-002
2.206259e+003;2.054922e-002
2.208188e+003;2.033452e-002
2.210116e+003;2.040768e-002
2.212044e+003;2.079143e-002
2.213973e+003;2.087534e-002
2.215902e+003;2.067191e-002
2.217830e+003;2.050848e-002
2.219759e+003;2.041404e-002
2.221687e+003;2.036018e-002
2.223616e+003;2.030567e-002
2.225544e+003;2.040921e-002
2.227473e+003;2.036713e-002
2.229401e+003;2.026317e-002
2.231330e+003;2.010430e-002
2.233259e+003;2.011360e-002
2.235187e+003;2.023085e-002
2.237116e+003;2.017319e-002
2.239044e+003;2.024946e-002
2.240973e+003;2.035573e-002
2.242901e+003;2.026570e-002
2.244830e+003;2.015782e-002
2.246758e+003;2.017795e-002
2.248687e+003;2.031313e-002
2.250615e+003;2.019864e-002
2.252544e+003;1.991940e-002
2.254473e+003;2.011457e-002
2.256401e+003;2.006294e-002
2.258330e+003;1.953452e-002
2.260258e+003;1.930175e-002
2.262187e+003;1.934686e-002
2.264115e+003;1.931180e-002
2.266044e+003;1.925980e-002
2.267972e+003;1.912481e-002
2.269901e+003;1.910871e-002
2.271830e+003;1.912467e-002
2.273758e+003;1.893819e-002
2.275687e+003;1.902597e-002
2.277615e+003;1.932773e-002
2.279544e+003;1.909431e-002
2.281472e+003;1.863361e-002
2.283401e+003;1.863254e-002
2.285329e+003;1.876426e-002
2.287258e+003;1.877513e-002
2.289187e+003;1.861207e-002
2.291115e+003;1.873085e-002
2.293043e+003;1.904109e-002
2.294972e+003;1.893912e-002
2.296901e+003;1.871241e-002
2.298829e+003;1.849180e-002
2.300758e+003;1.845380e-002
2.302686e+003;1.876098e-002
2.304615e+003;1.884983e-002
2.306543e+003;1.860397e-002
2.308472e+003;1.836479e-002
2.310400e+003;1.825177e-002
2.312329e+003;1.804428e-002
2.314258e+003;1.805540e-002
2.316186e+003;1.846469e-002
2.318115e+003;1.859982e-002
2.320043e+003;1.858347e-002
2.321972e+003;1.876063e-002
2.323900e+003;1.887084e-002
2.325829e+003;1.890209e-002
2.327757e+003;1.887676e-002
2.329686e+003;1.877118e-002
2.331615e+003;1.865014e-002
2.333543e+003;1.874171e-002
2.335472e+003;1.887267e-002
2.337400e+003;1.898941e-002
2.339329e+003;1.911726e-002
2.341257e+003;1.954135e-002
2.343186e+003;1.993193e-002
2.345114e+003;1.961515e-002
2.347043e+003;1.935257e-002
2.348971e+003;1.954135e-002
2.350900e+003;1.986796e-002
2.352829e+003;1.999649e-002
2.354757e+003;2.012710e-002
2.356686e+003;2.037570e-002
2.358614e+003;2.047492e-002
2.360543e+003;2.038341e-002
2.362471e+003;2.047076e-002
2.364400e+003;2.054829e-002
2.366328e+003;2.063157e-002
2.368257e+003;2.062771e-002
2.370186e+003;2.074892e-002
2.372114e+003;2.085125e-002
2.374042e+003;2.078204e-002
2.375971e+003;2.079104e-002
2.377900e+003;2.099384e-002
2.379828e+003;2.126942e-002
2.381757e+003;2.140720e-002
2.383685e+003;2.152058e-002
2.385614e+003;2.164490e-002
2.387542e+003;2.174278e-002
2.389471e+003;2.206205e-002
2.391399e+003;2.224971e-002
2.393328e+003;2.240480e-002
2.395257e+003;2.258779e-002
2.397185e+003;2.264388e-002
2.399114e+003;2.283298e-002
2.401042e+003;2.282698e-002
2.402971e+003;2.263767e-002
2.404899e+003;2.275033e-002
2.406828e+003;2.279307e-002
2.408756e+003;2.298772e-002
2.410685e+003;2.339721e-002
2.412614e+003;2.361431e-002
2.414542e+003;2.359427e-002
2.416471e+003;2.380702e-002
2.418399e+003;2.391809e-002
2.420328e+003;2.416089e-002
2.422256e+003;2.430513e-002
2.424185e+003;2.419252e-002
2.426113e+003;2.430169e-002
2.428042e+003;2.467388e-002
2.429970e+003;2.520876e-002
2.431899e+003;2.527008e-002
2.433828e+003;2.521231e-002
2.435756e+003;2.543960e-002
2.437685e+003;2.562609e-002
2.439613e+003;2.582721e-002
2.441542e+003;2.622183e-002
2.443470e+003;2.643070e-002
2.445399e+003;2.648655e-002
2.447327e+003;2.665729e-002
2.449256e+003;2.669368e-002
2.451185e+003;2.648472e-002
2.453113e+003;2.657320e-002
2.455042e+003;2.681642e-002
2.456970e+003;2.687761e-002
2.458899e+003;2.708870e-002
2.460827e+003;2.743127e-002
2.462756e+003;2.740604e-002
2.464684e+003;2.717585e-002
2.466613e+003;2.725533e-002
2.468542e+003;2.766975e-002
2.470470e+003;2.814237e-002
2.472398e+003;2.840242e-002
2.474327e+003;2.855661e-002
2.476256e+003;2.868961e-002
2.478184e+003;2.871701e-002
2.480113e+003;2.893594e-002
2.482041e+003;2.918679e-002
2.483970e+003;2.913417e-002
2.485898e+003;2.940018e-002
2.487827e+003;2.977262e-002
2.489755e+003;3.004448e-002
2.491684e+003;2.997738e-002
2.493613e+003;2.984111e-002
2.495541e+003;2.991149e-002
2.497470e+003;3.002786e-002
2.499398e+003;3.012481e-002
2.501327e+003;3.031673e-002
2.503255e+003;3.058197e-002
2.505184e+003;3.075613e-002
2.507112e+003;3.107641e-002
2.509041e+003;3.152311e-002
2.510969e+003;3.171080e-002
2.512898e+003;3.150522e-002
2.514827e+003;3.137905e-002
2.516755e+003;3.150985e-002
2.518684e+003;3.171551e-002
2.520612e+003;3.213093e-002
2.522541e+003;3.241849e-002
2.524469e+003;3.230275e-002
2.526398e+003;3.231746e-002
2.528326e+003;3.278683e-002
2.530255e+003;3.296753e-002
2.532184e+003;3.253632e-002
2.534112e+003;3.252643e-002
2.536041e+003;3.298977e-002
2.537969e+003;3.311913e-002
2.539898e+003;3.299127e-002
2.541826e+003;3.305030e-002
2.543755e+003;3.337803e-002
2.545683e+003;3.357556e-002
2.547612e+003;3.331245e-002
2.549541e+003;3.320875e-002
2.551469e+003;3.324456e-002
2.553397e+003;3.322231e-002
2.555326e+003;3.343032e-002
2.557255e+003;3.341389e-002
2.559183e+003;3.354749e-002
2.561112e+003;3.366037e-002
2.563040e+003;3.382736e-002
2.564969e+003;3.417403e-002
2.566897e+003;3.424541e-002
2.568826e+003;3.408600e-002
2.570754e+003;3.422074e-002
2.572683e+003;3.440348e-002
2.574612e+003;3.424329e-002
2.576540e+003;3.422551e-002
2.578469e+003;3.439971e-002
2.580397e+003;3.459870e-002
2.582326e+003;3.487350e-002
2.584254e+003;3.480205e-002
2.586183e+003;3.454556e-002
2.588111e+003;3.492247e-002
2.590040e+003;3.524096e-002
2.591969e+003;3.537347e-002
2.593897e+003;3.565652e-002
2.595826e+003;3.592267e-002
2.597754e+003;3.606749e-002
2.599683e+003;3.602000e-002
2.601611e+003;3.605082e-002
2.603540e+003;3.639866e-002
2.605468e+003;3.663635e-002
2.607397e+003;3.650673e-002
2.609325e+003;3.666476e-002
2.611254e+003;3.718777e-002
2.613183e+003;3.762905e-002
2.615111e+003;3.785440e-002
2.617040e+003;3.796034e-002
2.618968e+003;3.816694e-002
2.620897e+003;3.837953e-002
2.622825e+003;3.859350e-002
2.624754e+003;3.852347e-002
2.626682e+003;3.862435e-002
2.628611e+003;3.930676e-002
2.630540e+003;3.986365e-002
2.632468e+003;4.000180e-002
2.634396e+003;4.001735e-002
2.636325e+003;3.985664e-002
2.638254e+003;3.998055e-002
2.640182e+003;4.030745e-002
2.642111e+003;4.083556e-002
2.644039e+003;4.118412e-002
2.645968e+003;4.147865e-002
2.647896e+003;4.165137e-002
2.649825e+003;4.169689e-002
2.651753e+003;4.190217e-002
2.653682e+003;4.211828e-002
2.655611e+003;4.225298e-002
2.657539e+003;4.250676e-002
2.659468e+003;4.274851e-002
2.661396e+003;4.296325e-002
2.663325e+003;4.323713e-002
2.665253e+003;4.363500e-002
2.667182e+003;4.380484e-002
2.669110e+003;4.399353e-002
2.671039e+003;4.433554e-002
2.672968e+003;4.464510e-002
2.674896e+003;4.421985e-002
2.676825e+003;4.413222e-002
2.678753e+003;4.503323e-002
2.680682e+003;4.557213e-002
2.682610e+003;4.589362e-002
2.684539e+003;4.603959e-002
2.686467e+003;4.609065e-002
2.688396e+003;4.641223e-002
2.690324e+003;4.671073e-002
2.692253e+003;4.698751e-002
2.694182e+003;4.720920e-002
2.696110e+003;4.755726e-002
2.698039e+003;4.777858e-002
2.699967e+003;4.803490e-002
2.701896e+003;4.847538e-002
2.703824e+003;4.877282e-002
2.705753e+003;4.870076e-002
2.707681e+003;4.885758e-002
2.709610e+003;4.938005e-002
2.711539e+003;4.958728e-002
2.713467e+003;4.952842e-002
2.715396e+003;4.986969e-002
2.717324e+003;5.059823e-002
2.719253e+003;5.091184e-002
2.721181e+003;5.079644e-002
2.723110e+003;5.083406e-002
2.725038e+003;5.096273e-002
2.726967e+003;5.129507e-002
2.728896e+003;5.175877e-002
2.730824e+003;5.146864e-002
2.732752e+003;5.115224e-002
2.734681e+003;5.144786e-002
2.736610e+003;5.177321e-002
2.738538e+003;5.186281e-002
2.740467e+003;5.214308e-002
2.742395e+003;5.220058e-002
2.744324e+003;5.208674e-002
2.746252e+003;5.226071e-002
2.748181e+003;5.272428e-002
2.750109e+003;5.299324e-002
2.752038e+003;5.313630e-002
2.753967e+003;5.329169e-002
2.755895e+003;5.338981e-002
2.757824e+003;5.354806e-002
2.759752e+003;5.371635e-002
2.761681e+003;5.380546e-002
2.763609e+003;5.420461e-002
2.765538e+003;5.466192e-002
2.767466e+003;5.500958e-002
2.769395e+003;5.535673e-002
2.771323e+003;5.578553e-002
2.773252e+003;5.616283e-002
2.775181e+003;5.638993e-002
2.777109e+003;5.639348e-002
2.779038e+003;5.629208e-002
2.780966e+003;5.635549e-002
2.782895e+003;5.654619e-002
2.784823e+003;5.704769e-002
2.786752e+003;5.785985e-002
2.788680e+003;5.846464e-002
2.790609e+003;5.861850e-002
2.792538e+003;5.859138e-002
2.794466e+003;5.925070e-002
2.796395e+003;6.011525e-002
2.798323e+003;6.038737e-002
2.800252e+003;6.068604e-002
2.802180e+003;6.118666e-002
2.804109e+003;6.170821e-002
2.806037e+003;6.194327e-002
2.807966e+003;6.257851e-002
2.809895e+003;6.350224e-002
2.811823e+003;6.405961e-002
2.813751e+003;6.448664e-002
2.815680e+003;6.531273e-002
2.817609e+003;6.584991e-002
2.819537e+003;6.629796e-002
2.821466e+003;6.704703e-002
2.823394e+003;6.778679e-002
2.825323e+003;6.849816e-002
2.827251e+003;6.896220e-002
2.829180e+003;6.960168e-002
2.831108e+003;7.084822e-002
2.833037e+003;7.218953e-002
2.834966e+003;7.356679e-002
2.836894e+003;7.507095e-002
2.838823e+003;7.647726e-002
2.840751e+003;7.800543e-002
2.842680e+003;8.022231e-002
2.844608e+003;8.301792e-002
2.846537e+003;8.650678e-002
2.848465e+003;9.024535e-002
2.850394e+003;9.299220e-002
2.852323e+003;9.373227e-002
2.854251e+003;9.370250e-002
2.856180e+003;9.380460e-002
2.858108e+003;9.397866e-002
2.860037e+003;9.471485e-002
2.861965e+003;9.601082e-002
2.863894e+003;9.696668e-002
2.865822e+003;9.763294e-002
2.867751e+003;9.839480e-002
2.869679e+003;9.934035e-002
2.871608e+003;1.002577e-001
2.873536e+003;1.011506e-001
2.875465e+003;1.015626e-001
2.877394e+003;1.018033e-001
2.879322e+003;1.024386e-001
2.881251e+003;1.033267e-001
2.883179e+003;1.041875e-001
2.885108e+003;1.049204e-001
2.887036e+003;1.055519e-001
2.888965e+003;1.063381e-001
2.890893e+003;1.066816e-001
2.892822e+003;1.071590e-001
2.894750e+003;1.076102e-001
2.896679e+003;1.074392e-001
2.898608e+003;1.073808e-001
2.900536e+003;1.078439e-001
2.902465e+003;1.078646e-001
2.904393e+003;1.071461e-001
2.906322e+003;1.065524e-001
2.908250e+003;1.059752e-001
2.910179e+003;1.055171e-001
2.912107e+003;1.056435e-001
2.914036e+003;1.062566e-001
2.915965e+003;1.066009e-001
2.917893e+003;1.061530e-001
2.919822e+003;1.051844e-001
2.921750e+003;1.039077e-001
2.923679e+003;1.018798e-001
2.925607e+003;9.950835e-002
2.927536e+003;9.718810e-002
2.929464e+003;9.457336e-002
2.931393e+003;9.250990e-002
2.933322e+003;9.102724e-002
2.935250e+003;8.915877e-002
2.937178e+003;8.742645e-002
2.939107e+003;8.592322e-002
2.941036e+003;8.455466e-002
2.942964e+003;8.336905e-002
2.944893e+003;8.236127e-002
2.946821e+003;8.087085e-002
2.948750e+003;7.936504e-002
2.950678e+003;7.803172e-002
2.952607e+003;7.643119e-002
2.954535e+003;7.430599e-002
2.956464e+003;7.286329e-002
2.958393e+003;7.195734e-002
2.960321e+003;7.067807e-002
2.962250e+003;6.893502e-002
2.964178e+003;6.764738e-002
2.966107e+003;6.668435e-002
2.968035e+003;6.563977e-002
2.969964e+003;6.468095e-002
2.971892e+003;6.398462e-002
2.973821e+003;6.322344e-002
2.975750e+003;6.197637e-002
2.977678e+003;6.077703e-002
2.979607e+003;5.994541e-002
2.981535e+003;5.898730e-002
2.983464e+003;5.809719e-002
2.985392e+003;5.748512e-002
2.987321e+003;5.692721e-002
2.989249e+003;5.662946e-002
2.991178e+003;5.618376e-002
2.993106e+003;5.543748e-002
2.995035e+003;5.482959e-002
2.996964e+003;5.472171e-002
2.998892e+003;5.458346e-002
3.000821e+003;5.415701e-002
3.002749e+003;5.416050e-002
3.004678e+003;5.409381e-002
3.006606e+003;5.371422e-002
3.008535e+003;5.403992e-002
3.010463e+003;5.432693e-002
3.012392e+003;5.426918e-002
3.014321e+003;5.472457e-002
3.016249e+003;5.534943e-002
3.018177e+003;5.588252e-002
3.020106e+003;5.573320e-002
3.022035e+003;5.560691e-002
3.023963e+003;5.595857e-002
3.025892e+003;5.630965e-002
3.027820e+003;5.685004e-002
3.029749e+003;5.727911e-002
3.031677e+003;5.788586e-002
3.033606e+003;5.863340e-002
3.035534e+003;5.878770e-002
3.037463e+003;5.851180e-002
3.039392e+003;5.879222e-002
3.041320e+003;5.955030e-002
3.043249e+003;6.013130e-002
3.045177e+003;6.049743e-002
3.047106e+003;6.108668e-002
3.049034e+003;6.127078e-002
3.050963e+003;6.140358e-002
3.052891e+003;6.208454e-002
3.054820e+003;6.313722e-002
3.056749e+003;6.350853e-002
3.058677e+003;6.357864e-002
3.060606e+003;6.400009e-002
3.062534e+003;6.433264e-002
3.064463e+003;6.482279e-002
3.066391e+003;6.554990e-002
3.068320e+003;6.596077e-002
3.070248e+003;6.668388e-002
3.072177e+003;6.723754e-002
3.074105e+003;6.741269e-002
3.076034e+003;6.804416e-002
3.077963e+003;6.900520e-002
3.079891e+003;6.966089e-002
3.081820e+003;6.993677e-002
3.083748e+003;7.005990e-002
3.085677e+003;7.087096e-002
3.087605e+003;7.181729e-002
3.089534e+003;7.186827e-002
3.091462e+003;7.211480e-002
3.093391e+003;7.289480e-002
3.095320e+003;7.353319e-002
3.097248e+003;7.405879e-002
3.099177e+003;7.454494e-002
3.101105e+003;7.505846e-002
3.103034e+003;7.537483e-002
3.104962e+003;7.596014e-002
3.106891e+003;7.645699e-002
3.108819e+003;7.711212e-002
3.110748e+003;7.836448e-002
3.112677e+003;7.918370e-002
3.114605e+003;7.948261e-002
3.116533e+003;7.966635e-002
3.118462e+003;8.042645e-002
3.120391e+003;8.163764e-002
3.122319e+003;8.188790e-002
3.124248e+003;8.157418e-002
3.126176e+003;8.197633e-002
3.128105e+003;8.299658e-002
3.130033e+003;8.416238e-002
3.131962e+003;8.510264e-002
3.133890e+003;8.575045e-002
3.135819e+003;8.606898e-002
3.137748e+003;8.645769e-002
3.139676e+003;8.717871e-002
3.141605e+003;8.805005e-002
3.143533e+003;8.868797e-002
3.145462e+003;8.947460e-002
3.147390e+003;9.084553e-002
3.149319e+003;9.162307e-002
3.151247e+003;9.216961e-002
3.153176e+003;9.277960e-002
3.155104e+003;9.337565e-002
3.157033e+003;9.428472e-002
3.158962e+003;9.479451e-002
3.160890e+003;9.531192e-002
3.162819e+003;9.623659e-002
3.164747e+003;9.703896e-002
3.166676e+003;9.742634e-002
3.168604e+003;9.820911e-002
3.170533e+003;9.953123e-002
3.172461e+003;1.006690e-001
3.174390e+003;1.012793e-001
3.176319e+003;1.019881e-001
3.178247e+003;1.026621e-001
3.180176e+003;1.031174e-001
3.182104e+003;1.043663e-001
3.184033e+003;1.054796e-001
3.185961e+003;1.061047e-001
3.187890e+003;1.068936e-001
3.189818e+003;1.076681e-001
3.191747e+003;1.080507e-001
3.193676e+003;1.085688e-001
3.195604e+003;1.098215e-001
3.197532e+003;1.108644e-001
3.199461e+003;1.114530e-001
3.201390e+003;1.121961e-001
3.203318e+003;1.131825e-001
3.205247e+003;1.145666e-001
3.207175e+003;1.156966e-001
3.209104e+003;1.167247e-001
3.211032e+003;1.177163e-001
3.212961e+003;1.184390e-001
3.214889e+003;1.193423e-001
3.216818e+003;1.205823e-001
3.218747e+003;1.219390e-001
3.220675e+003;1.229617e-001
3.222604e+003;1.237140e-001
3.224532e+003;1.241967e-001
3.226461e+003;1.250603e-001
3.228389e+003;1.261589e-001
3.230318e+003;1.268008e-001
3.232246e+003;1.277464e-001
3.234175e+003;1.288493e-001
3.236104e+003;1.296307e-001
3.238032e+003;1.303852e-001
3.239961e+003;1.317720e-001
3.241889e+003;1.332090e-001
3.243818e+003;1.339322e-001
3.245746e+003;1.349030e-001
3.247675e+003;1.362391e-001
3.249603e+003;1.377601e-001
3.251532e+003;1.392889e-001
3.253460e+003;1.404938e-001
3.255389e+003;1.411824e-001
3.257318e+003;1.416489e-001
3.259246e+003;1.421944e-001
3.261175e+003;1.434693e-001
3.263103e+003;1.445880e-001
3.265032e+003;1.452739e-001
3.266960e+003;1.464694e-001
3.268889e+003;1.476707e-001
3.270817e+003;1.486681e-001
3.272746e+003;1.493522e-001
3.274675e+003;1.496068e-001
3.276603e+003;1.497850e-001
3.278531e+003;1.503920e-001
3.280460e+003;1.517114e-001
3.282389e+003;1.526409e-001
3.284317e+003;1.525225e-001
3.286246e+003;1.524279e-001
3.288174e+003;1.526385e-001
3.290103e+003;1.532134e-001
3.292031e+003;1.540503e-001
3.293960e+003;1.543008e-001
3.295888e+003;1.538922e-001
3.297817e+003;1.538051e-001
3.299746e+003;1.544275e-001
3.301674e+003;1.545157e-001
3.303603e+003;1.543935e-001
3.305531e+003;1.548683e-001
3.307460e+003;1.554002e-001
3.309388e+003;1.560685e-001
3.311317e+003;1.565980e-001
3.313245e+003;1.567301e-001
3.315174e+003;1.569046e-001
3.317103e+003;1.569038e-001
3.319031e+003;1.569398e-001
3.320960e+003;1.571981e-001
3.322888e+003;1.576569e-001
3.324817e+003;1.586326e-001
3.326745e+003;1.595676e-001
3.328674e+003;1.596964e-001
3.330602e+003;1.594337e-001
3.332531e+003;1.594013e-001
3.334459e+003;1.594702e-001
3.336388e+003;1.594549e-001
3.338317e+003;1.590304e-001
3.340245e+003;1.582955e-001
3.342174e+003;1.580675e-001
3.344102e+003;1.573493e-001
3.346031e+003;1.570226e-001
3.347959e+003;1.571488e-001
3.349888e+003;1.568119e-001
3.351816e+003;1.561153e-001
3.353745e+003;1.554164e-001
3.355674e+003;1.543240e-001
3.357602e+003;1.531515e-001
3.359531e+003;1.520973e-001
3.361459e+003;1.509044e-001
3.363388e+003;1.503628e-001
3.365316e+003;1.503786e-001
3.367245e+003;1.496917e-001
3.369173e+003;1.491035e-001
3.371102e+003;1.492085e-001
3.373031e+003;1.487037e-001
3.374959e+003;1.473629e-001
3.376887e+003;1.458045e-001
3.378816e+003;1.451742e-001
3.380745e+003;1.445604e-001
3.382673e+003;1.433997e-001
3.384602e+003;1.424849e-001
3.386530e+003;1.421656e-001
3.388459e+003;1.417369e-001
3.390387e+003;1.412610e-001
3.392316e+003;1.407437e-001
3.394244e+003;1.400800e-001
3.396173e+003;1.391622e-001
3.398102e+003;1.379036e-001
3.400030e+003;1.373564e-001
3.401959e+003;1.368770e-001
3.403887e+003;1.362866e-001
3.405816e+003;1.353097e-001
3.407744e+003;1.343150e-001
3.409673e+003;1.330447e-001
3.411601e+003;1.310256e-001
3.413530e+003;1.301086e-001
3.415458e+003;1.299496e-001
3.417387e+003;1.291455e-001
3.419316e+003;1.280748e-001
3.421244e+003;1.269484e-001
3.423173e+003;1.258015e-001
3.425101e+003;1.247977e-001
3.427030e+003;1.239607e-001
3.428958e+003;1.226795e-001
3.430887e+003;1.211041e-001
3.432815e+003;1.203513e-001
3.434744e+003;1.200871e-001
3.436673e+003;1.195063e-001
3.438601e+003;1.183815e-001
3.440530e+003;1.168256e-001
3.442458e+003;1.152415e-001
3.444387e+003;1.137820e-001
3.446315e+003;1.125757e-001
3.448244e+003;1.118949e-001
3.450172e+003;1.116365e-001
3.452101e+003;1.109652e-001
3.454030e+003;1.094034e-001
3.455958e+003;1.078064e-001
3.457886e+003;1.068743e-001
3.459815e+003;1.060707e-001
3.461744e+003;1.044495e-001
3.463672e+003;1.026359e-001
3.465601e+003;1.017996e-001
3.467529e+003;1.011477e-001
3.469458e+003;1.000304e-001
3.471386e+003;9.886018e-002
3.473315e+003;9.728488e-002
3.475243e+003;9.611139e-002
3.477172e+003;9.517370e-002
3.479101e+003;9.404013e-002
3.481029e+003;9.306954e-002
3.482958e+003;9.183454e-002
3.484886e+003;9.037499e-002
3.486815e+003;8.920828e-002
3.488743e+003;8.850265e-002
3.490672e+003;8.781751e-002
3.492600e+003;8.668793e-002
3.494529e+003;8.524317e-002
3.496458e+003;8.430498e-002
3.498386e+003;8.300897e-002
3.500315e+003;8.136449e-002
3.502243e+003;8.025483e-002
3.504172e+003;7.931393e-002
3.506100e+003;7.820886e-002
3.508029e+003;7.674770e-002
3.509957e+003;7.581153e-002
3.511886e+003;7.555519e-002
3.513814e+003;7.441896e-002
3.515743e+003;7.252383e-002
3.517672e+003;7.135534e-002
3.519600e+003;7.060579e-002
3.521529e+003;6.976729e-002
3.523457e+003;6.847990e-002
3.525386e+003;6.718320e-002
3.527314e+003;6.578971e-002
3.529243e+003;6.504619e-002
3.531171e+003;6.521962e-002
3.533100e+003;6.484076e-002
3.535029e+003;6.342386e-002
3.536957e+003;6.158891e-002
3.538885e+003;6.042625e-002
3.540814e+003;5.933149e-002
3.542743e+003;5.789517e-002
3.544671e+003;5.702630e-002
3.546600e+003;5.652192e-002
3.548528e+003;5.594791e-002
3.550457e+003;5.484902e-002
3.552385e+003;5.349481e-002
3.554314e+003;5.305931e-002
3.556242e+003;5.265040e-002
3.558171e+003;5.136697e-002
3.560100e+003;4.955701e-002
3.562028e+003;4.800085e-002
3.563957e+003;4.742945e-002
3.565885e+003;4.655864e-002
3.567814e+003;4.551307e-002
3.569742e+003;4.486816e-002
3.571671e+003;4.452438e-002
3.573599e+003;4.378590e-002
3.575528e+003;4.312606e-002
3.577457e+003;4.203092e-002
3.579385e+003;4.102149e-002
3.581314e+003;4.061440e-002
3.583242e+003;3.940645e-002
3.585171e+003;3.731745e-002
3.587099e+003;3.615516e-002
3.589028e+003;3.631793e-002
3.590956e+003;3.591374e-002
3.592885e+003;3.511290e-002
3.594813e+003;3.419210e-002
3.596742e+003;3.305934e-002
3.598671e+003;3.257871e-002
3.600599e+003;3.190282e-002
3.602528e+003;3.109421e-002
3.604456e+003;2.998632e-002
3.606385e+003;2.867800e-002
3.608313e+003;2.681297e-002
3.610242e+003;2.580872e-002
3.612170e+003;2.524451e-002
3.614099e+003;2.489159e-002
3.616028e+003;2.412285e-002
3.617956e+003;2.216930e-002
3.619885e+003;2.133146e-002
3.621813e+003;2.145364e-002
3.623742e+003;2.089846e-002
3.625670e+003;1.964659e-002
3.627599e+003;1.686070e-002
3.629527e+003;1.608945e-002
3.631456e+003;1.785822e-002
3.633385e+003;1.773488e-002
3.635313e+003;1.725831e-002
3.637241e+003;1.677338e-002
3.639170e+003;1.568150e-002
3.641099e+003;1.399259e-002
3.643027e+003;1.299478e-002
3.644956e+003;1.180216e-002
3.646884e+003;8.981873e-003
3.648813e+003;6.628327e-003
3.650741e+003;6.862920e-003
3.652670e+003;8.279866e-003
3.654598e+003;7.256941e-003
3.656527e+003;6.981021e-003
3.658456e+003;7.719852e-003
3.660384e+003;7.029645e-003
3.662313e+003;6.357445e-003
3.664241e+003;5.717003e-003
3.666170e+003;4.603838e-003
3.668098e+003;2.865521e-003
3.670027e+003;1.614172e-003
3.671955e+003;1.666955e-003
3.673884e+003;-5.899152e-004
3.675813e+003;-1.711013e-003
3.677741e+003;3.851551e-004
3.679669e+003;1.280329e-003
3.681598e+003;1.352016e-003
3.683527e+003;1.109219e-003
3.685455e+003;-2.052831e-004
3.687384e+003;-3.048475e-003
3.689312e+003;-3.621616e-003
3.691241e+003;-2.750674e-003
3.693169e+003;-1.869963e-003
3.695098e+003;-1.216170e-003
3.697026e+003;-9.661403e-004
3.698955e+003;-1.700287e-003
3.700884e+003;-3.257157e-003
3.702812e+003;-3.282808e-003
3.704741e+003;-2.804733e-003
3.706669e+003;-3.104734e-003
3.708598e+003;-4.119373e-003
3.710526e+003;-5.240346e-003
3.712455e+003;-4.907745e-003
3.714383e+003;-3.752802e-003
3.716312e+003;-3.679740e-003
3.718240e+003;-4.041646e-003
3.720169e+003;-4.196529e-003
3.722098e+003;-4.166699e-003
3.724026e+003;-4.614724e-003
3.725955e+003;-4.956689e-003
3.727883e+003;-4.624297e-003
3.729812e+003;-5.405438e-003
3.731740e+003;-7.360588e-003
3.733669e+003;-8.526718e-003
3.735597e+003;-8.664811e-003
3.737526e+003;-6.842269e-003
3.739455e+003;-5.894520e-003
3.741383e+003;-6.774716e-003
3.743312e+003;-9.952240e-003
3.745240e+003;-9.334995e-003
3.747169e+003;-7.636592e-003
3.749097e+003;-9.396607e-003
3.751026e+003;-1.022767e-002
3.752954e+003;-8.225011e-003
3.754883e+003;-5.347709e-003
3.756812e+003;-5.672778e-003
3.758740e+003;-6.380832e-003
3.760668e+003;-5.987669e-003
3.762597e+003;-5.429326e-003
3.764526e+003;-6.074329e-003
3.766454e+003;-6.339821e-003
3.768383e+003;-6.803356e-003
3.770311e+003;-6.532338e-003
3.772240e+003;-5.540797e-003
3.774168e+003;-5.605991e-003
3.776097e+003;-6.409890e-003
3.778025e+003;-7.095622e-003
3.779954e+003;-6.954910e-003
3.781883e+003;-6.194813e-003
3.783811e+003;-6.430981e-003
3.785740e+003;-6.187692e-003
3.787668e+003;-6.328588e-003
3.789597e+003;-6.026296e-003
3.791525e+003;-5.700216e-003
3.793454e+003;-6.170151e-003
3.795382e+003;-7.049560e-003
3.797311e+003;-6.865882e-003
3.799240e+003;-8.379677e-003
3.801168e+003;-1.019621e-002
3.803097e+003;-8.148859e-003
3.805025e+003;-7.603416e-003
3.806954e+003;-8.156274e-003
3.808882e+003;-6.664312e-003
3.810811e+003;-6.027309e-003
3.812739e+003;-6.789754e-003
3.814668e+003;-9.124218e-003
3.816596e+003;-9.083465e-003
3.818525e+003;-7.982335e-003
3.820454e+003;-8.653248e-003
3.822382e+003;-7.021262e-003
3.824311e+003;-5.994565e-003
3.826239e+003;-6.868133e-003
3.828168e+003;-6.652565e-003
3.830096e+003;-6.622544e-003
3.832025e+003;-6.811772e-003
3.833953e+003;-7.513837e-003
3.835882e+003;-8.923725e-003
3.837811e+003;-9.097449e-003
3.839739e+003;-7.782096e-003
3.841667e+003;-7.404109e-003
3.843596e+003;-7.040823e-003
3.845525e+003;-6.026851e-003
3.847453e+003;-5.744100e-003
3.849382e+003;-7.290900e-003
3.851310e+003;-1.158553e-002
3.853239e+003;-1.402139e-002
3.855167e+003;-1.012682e-002
3.857096e+003;-6.436759e-003
3.859024e+003;-6.039955e-003
3.860953e+003;-6.692894e-003
3.862882e+003;-7.387268e-003
3.864810e+003;-6.857272e-003
3.866739e+003;-5.860361e-003
3.868667e+003;-7.348437e-003
3.870596e+003;-7.167460e-003
3.872524e+003;-5.886316e-003
3.874453e+003;-4.982567e-003
3.876381e+003;-4.196070e-003
3.878310e+003;-4.979651e-003
3.880239e+003;-5.299923e-003
3.882167e+003;-4.757638e-003
3.884096e+003;-5.904294e-003
3.886024e+003;-5.857059e-003
3.887953e+003;-4.710672e-003
3.889881e+003;-5.371436e-003
3.891810e+003;-4.955510e-003
3.893738e+003;-3.735063e-003
3.895667e+003;-3.365472e-003
3.897595e+003;-4.118914e-003
3.899524e+003;-5.111279e-003
3.901453e+003;-6.502439e-003
3.903381e+003;-6.687609e-003
3.905310e+003;-4.628821e-003
3.907238e+003;-3.189373e-003
3.909167e+003;-3.186972e-003
3.911095e+003;-3.472674e-003
3.913024e+003;-3.411334e-003
3.914952e+003;-3.607454e-003
3.916881e+003;-4.325573e-003
3.918810e+003;-4.057041e-003
3.920738e+003;-2.910790e-003
3.922667e+003;-2.923034e-003
3.924595e+003;-4.300345e-003
3.926524e+003;-4.854963e-003
3.928452e+003;-4.220779e-003
3.930381e+003;-3.967910e-003
3.932309e+003;-4.199417e-003
3.934238e+003;-4.329739e-003
3.936167e+003;-4.520001e-003
3.938095e+003;-3.811138e-003
3.940023e+003;-3.398546e-003
3.941952e+003;-3.899875e-003
3.943881e+003;-3.947027e-003
3.945809e+003;-3.565194e-003
3.947738e+003;-3.066209e-003
3.949666e+003;-1.924594e-003
3.951595e+003;-9.422700e-004
3.953523e+003;-1.491879e-003
3.955452e+003;-2.679451e-003
3.957380e+003;-2.872149e-003
3.959309e+003;-2.654094e-003
3.961238e+003;-2.650999e-003
3.963166e+003;-2.286119e-003
3.965095e+003;-2.056425e-003
3.967023e+003;-2.138499e-003
3.968952e+003;-1.843107e-003
3.970880e+003;-1.489205e-003
3.972809e+003;-2.202986e-003
3.974737e+003;-2.659133e-003
3.976666e+003;-2.586578e-003
3.978594e+003;-2.537729e-003
3.980523e+003;-2.180370e-003
3.982452e+003;-1.650645e-003
3.984380e+003;-1.336656e-003
3.986309e+003;-1.301970e-003
3.988237e+003;-1.350066e-003
3.990166e+003;-1.584954e-003
3.992094e+003;-1.477911e-003
3.994023e+003;-1.114788e-003
3.995951e+003;-1.601295e-003
3.997880e+003;-2.027008e-003
3.999809e+003;-2.092435e-003
4.001737e+003;0.000000e+000
