3.992094e+002;0.000000e+000
4.011380e+002;0.000000e+000
4.030665e+002;0.000000e+000
4.049951e+002;0.000000e+000
4.069236e+002;0.000000e+000
4.088522e+002;0.000000e+000
4.107807e+002;0.000000e+000
4.127093e+002;0.000000e+000
4.146378e+002;0.000000e+000
4.165664e+002;0.000000e+000
4.184949e+002;0.000000e+000
4.204235e+002;0.000000e+000
4.223520e+002;0.000000e+000
4.242806e+002;0.000000e+000
4.262091e+002;0.000000e+000
4.281377e+002;0.000000e+000
4.300662e+002;0.000000e+000
4.319948e+002;0.000000e+000
4.339233e+002;0.000000e+000
4.358519e+002;0.000000e+000
4.377804e+002;0.000000e+000
4.397090e+002;0.000000e+000
4.416375e+002;0.000000e+000
4.435660e+002;0.000000e+000
4.454946e+002;0.000000e+000
4.474232e+002;0.000000e+000
4.493517e+002;0.000000e+000
4.512802e+002;0.000000e+000
4.532088e+002;0.000000e+000
4.551373e+002;0.000000e+000
4.570659e+002;0.000000e+000
4.589944e+002;0.000000e+000
4.609230e+002;0.000000e+000
4.628515e+002;0.000000e+000
4.647801e+002;0.000000e+000
4.667086e+002;0.000000e+000
4.686372e+002;0.000000e+000
4.705657e+002;0.000000e+000
4.724943e+002;0.000000e+000
4.744228e+002;0.000000e+000
4.763513e+002;0.000000e+000
4.782799e+002;0.000000e+000
4.802085e+002;0.000000e+000
4.821370e+002;0.000000e+000
4.840656e+002;0.000000e+000
4.859941e+002;0.000000e+000
4.879226e+002;0.000000e+000
4.898512e+002;0.000000e+000
4.917798e+002;0.000000e+000
4.937083e+002;0.000000e+000
4.956368e+002;0.000000e+000
4.975654e+002;0.000000e+000
4.994939e+002;0.000000e+000
5.014225e+002;0.000000e+000
5.033510e+002;0.000000e+000
5.052796e+002;0.000000e+000
5.072081e+002;0.000000e+000
5.091367e+002;0.000000e+000
5.110652e+002;0.000000e+000
5.129938e+002;0.000000e+000
5.149223e+002;0.000000e+000
5.168509e+002;0.000000e+000
5.187794e+002;0.000000e+000
5.207079e+002;0.000000e+000
5.226365e+002;0.000000e+000
5.245651e+002;0.000000e+000
5.264936e+002;0.000000e+000
5.284222e+002;0.000000e+000
5.303507e+002;0.000000e+000
5.322792e+002;0.000000e+000
5.342078e+002;0.000000e+000
5.361364e+002;0.000000e+000
5.380649e+002;0.000000e+000
5.399935e+002;0.000000e+000
5.419220e+002;0.000000e+000
5.438505e+002;0.000000e+000
5.457791e+002;0.000000e+000
5.477076e+002;0.000000e+000
5.496362e+002;0.000000e+000
5.515648e+002;0.000000e+000
5.534933e+002;0.000000e+000
5.554218e+002;0.000000e+000
5.573504e+002;0.000000e+000
5.592789e+002;0.000000e+000
5.612075e+002;0.000000e+000
5.631360e+002;0.000000e+000
5.650646e+002;0.000000e+000
5.669931e+002;0.000000e+000
5.689217e+002;0.000000e+000
5.708502e+002;0.000000e+000
5.727787e+002;0.000000e+000
5.747073e+002;0.000000e+000
5.766359e+002;0.000000e+000
5.785644e+002;0.000000e+000
5.804930e+002;0.000000e+000
5.824215e+002;0.000000e+000
5.843500e+002;0.000000e+000
5.862786e+002;0.000000e+000
5.882072e+002;0.000000e+000
5.901357e+002;0.000000e+000
5.920643e+002;0.000000e+000
5.939928e+002;0.000000e+000
5.959213e+002;0.000000e+000
5.978499e+002;0.000000e+000
5.997784e+002;2.935800e-001
6.017070e+002;2.952686e-001
6.036355e+002;2.889934e-001
6.055641e+002;2.893266e-001
6.074926e+002;2.878693e-001
6.094211e+002;2.873514e-001
6.113497e+002;2.889840e-001
6.132783e+002;2.824868e-001
6.152068e+002;2.797285e-001
6.171354e+002;2.785952e-001
6.190639e+002;2.784490e-001
6.209924e+002;2.821684e-001
6.229210e+002;2.811642e-001
6.248495e+002;2.770636e-001
6.267781e+002;2.722114e-001
6.287067e+002;2.643822e-001
6.306352e+002;2.608735e-001
6.325637e+002;2.612438e-001
6.344923e+002;2.609497e-001
6.364208e+002;2.603675e-001
6.383494e+002;2.559168e-001
6.402780e+002;2.503981e-001
6.422065e+002;2.497755e-001
6.441350e+002;2.487236e-001
6.460636e+002;2.451115e-001
6.479921e+002;2.468687e-001
6.499207e+002;2.502118e-001
6.518492e+002;2.511675e-001
6.537778e+002;2.538017e-001
6.557063e+002;2.538907e-001
6.576349e+002;2.542810e-001
6.595634e+002;2.584041e-001
6.614919e+002;2.626241e-001
6.634205e+002;2.645837e-001
6.653491e+002;2.623150e-001
6.672776e+002;2.592649e-001
6.692062e+002;2.541000e-001
6.711347e+002;2.479044e-001
6.730632e+002;2.434658e-001
6.749918e+002;2.372456e-001
6.769203e+002;2.298372e-001
6.788489e+002;2.229940e-001
6.807775e+002;2.174573e-001
6.827060e+002;2.141355e-001
6.846345e+002;2.117695e-001
6.865631e+002;2.103103e-001
6.884916e+002;2.081675e-001
6.904202e+002;2.054806e-001
6.923488e+002;2.044436e-001
6.942773e+002;2.042504e-001
6.962058e+002;2.038201e-001
6.981344e+002;2.028296e-001
7.000629e+002;2.022810e-001
7.019915e+002;2.009429e-001
7.039200e+002;1.993355e-001
7.058486e+002;1.976886e-001
7.077771e+002;1.950499e-001
7.097057e+002;1.928556e-001
7.116342e+002;1.909814e-001
7.135627e+002;1.893658e-001
7.154913e+002;1.885593e-001
7.174199e+002;1.864228e-001
7.193484e+002;1.837603e-001
7.212770e+002;1.807988e-001
7.232055e+002;1.760707e-001
7.251340e+002;1.719345e-001
7.270626e+002;1.693649e-001
7.289911e+002;1.664249e-001
7.309197e+002;1.635803e-001
7.328483e+002;1.618178e-001
7.347768e+002;1.598778e-001
7.367053e+002;1.567861e-001
7.386339e+002;1.538913e-001
7.405624e+002;1.515086e-001
7.424910e+002;1.500029e-001
7.444196e+002;1.488626e-001
7.463481e+002;1.483077e-001
7.482766e+002;1.473325e-001
7.502052e+002;1.459600e-001
7.521337e+002;1.447456e-001
7.540623e+002;1.425866e-001
7.559908e+002;1.400644e-001
7.579194e+002;1.380811e-001
7.598479e+002;1.362506e-001
7.617765e+002;1.355702e-001
7.637050e+002;1.352355e-001
7.656335e+002;1.336092e-001
7.675621e+002;1.315714e-001
7.694907e+002;1.303671e-001
7.714192e+002;1.287332e-001
7.733478e+002;1.273890e-001
7.752763e+002;1.268570e-001
7.772048e+002;1.257528e-001
7.791334e+002;1.243113e-001
7.810620e+002;1.237078e-001
7.829905e+002;1.232626e-001
7.849191e+002;1.229796e-001
7.868476e+002;1.221464e-001
7.887761e+002;1.209862e-001
7.907047e+002;1.200579e-001
7.926332e+002;1.194118e-001
7.945618e+002;1.190206e-001
7.964903e+002;1.192560e-001
7.984189e+002;1.189796e-001
8.003474e+002;1.180882e-001
8.022759e+002;1.179281e-001
8.042045e+002;1.181922e-001
8.061331e+002;1.181942e-001
8.080616e+002;1.175033e-001
8.099902e+002;1.166087e-001
8.119187e+002;1.163476e-001
8.138472e+002;1.156716e-001
8.157758e+002;1.145706e-001
8.177043e+002;1.141201e-001
8.196329e+002;1.133973e-001
8.215615e+002;1.118592e-001
8.234900e+002;1.108120e-001
8.254185e+002;1.106596e-001
8.273471e+002;1.106964e-001
8.292756e+002;1.100776e-001
8.312042e+002;1.095935e-001
8.331328e+002;1.096790e-001
8.350613e+002;1.089209e-001
8.369898e+002;1.079091e-001
8.389184e+002;1.077931e-001
8.408469e+002;1.076004e-001
8.427755e+002;1.069293e-001
8.447040e+002;1.066877e-001
8.466326e+002;1.061222e-001
8.485611e+002;1.058976e-001
8.504897e+002;1.063480e-001
8.524182e+002;1.063509e-001
8.543467e+002;1.058970e-001
8.562753e+002;1.064571e-001
8.582039e+002;1.079351e-001
8.601324e+002;1.096733e-001
8.620610e+002;1.115582e-001
8.639895e+002;1.140432e-001
8.659180e+002;1.166365e-001
8.678466e+002;1.193112e-001
8.697751e+002;1.225404e-001
8.717037e+002;1.262246e-001
8.736323e+002;1.303042e-001
8.755608e+002;1.336850e-001
8.774893e+002;1.359810e-001
8.794179e+002;1.381323e-001
8.813464e+002;1.405843e-001
8.832750e+002;1.439692e-001
8.852036e+002;1.478718e-001
8.871321e+002;1.516417e-001
8.890606e+002;1.555934e-001
8.909892e+002;1.593794e-001
8.929177e+002;1.625561e-001
8.948463e+002;1.647987e-001
8.967748e+002;1.659628e-001
8.987034e+002;1.661789e-001
9.006319e+002;1.653017e-001
9.025605e+002;1.628858e-001
9.044890e+002;1.592672e-001
9.064175e+002;1.559345e-001
9.083461e+002;1.527831e-001
9.102747e+002;1.490002e-001
9.122032e+002;1.459171e-001
9.141318e+002;1.435495e-001
9.160603e+002;1.417708e-001
9.179888e+002;1.405666e-001
9.199174e+002;1.401192e-001
9.218459e+002;1.405081e-001
9.237745e+002;1.415082e-001
9.257031e+002;1.425934e-001
9.276316e+002;1.437906e-001
9.295601e+002;1.454549e-001
9.314887e+002;1.474878e-001
9.334172e+002;1.497629e-001
9.353458e+002;1.520637e-001
9.372744e+002;1.543733e-001
9.392029e+002;1.565400e-001
9.411314e+002;1.587329e-001
9.430600e+002;1.614950e-001
9.449885e+002;1.648259e-001
9.469171e+002;1.689384e-001
9.488456e+002;1.735010e-001
9.507742e+002;1.778294e-001
9.527027e+002;1.830635e-001
9.546313e+002;1.891673e-001
9.565598e+002;1.953842e-001
9.584883e+002;2.019306e-001
9.604169e+002;2.086392e-001
9.623455e+002;2.159638e-001
9.642740e+002;2.240566e-001
9.662026e+002;2.320195e-001
9.681311e+002;2.409242e-001
9.700596e+002;2.516613e-001
9.719882e+002;2.637989e-001
9.739167e+002;2.778245e-001
9.758453e+002;2.937795e-001
9.777739e+002;3.118521e-001
9.797024e+002;3.317697e-001
9.816309e+002;3.512312e-001
9.835595e+002;3.683358e-001
9.854880e+002;3.814183e-001
9.874166e+002;3.904704e-001
9.893452e+002;3.979444e-001
9.912737e+002;4.058461e-001
9.932022e+002;4.135645e-001
9.951307e+002;4.214017e-001
9.970593e+002;4.296890e-001
9.989879e+002;4.371136e-001
1.000916e+003;4.434468e-001
1.002845e+003;4.484401e-001
1.004773e+003;4.523036e-001
1.006702e+003;4.558672e-001
1.008631e+003;4.606218e-001
1.010559e+003;4.668050e-001
1.012488e+003;4.737605e-001
1.014416e+003;4.816477e-001
1.016345e+003;4.897795e-001
1.018273e+003;4.964378e-001
1.020202e+003;5.017057e-001
1.022130e+003;5.067034e-001
1.024059e+003;5.108219e-001
1.025988e+003;5.141937e-001
1.027916e+003;5.161939e-001
1.029845e+003;5.169605e-001
1.031773e+003;5.161161e-001
1.033702e+003;5.125260e-001
1.035630e+003;5.065910e-001
1.037559e+003;4.988860e-001
1.039487e+003;4.905570e-001
1.041416e+003;4.833421e-001
1.043344e+003;4.781688e-001
1.045273e+003;4.756221e-001
1.047202e+003;4.745985e-001
1.049130e+003;4.744278e-001
1.051059e+003;4.745235e-001
1.052987e+003;4.742672e-001
1.054916e+003;4.717270e-001
1.056844e+003;4.663995e-001
1.058773e+003;4.584271e-001
1.060701e+003;4.472140e-001
1.062630e+003;4.329789e-001
1.064558e+003;4.179054e-001
1.066487e+003;4.028924e-001
1.068416e+003;3.879149e-001
1.070344e+003;3.743080e-001
1.072273e+003;3.633685e-001
1.074201e+003;3.542152e-001
1.076130e+003;3.457684e-001
1.078058e+003;3.372276e-001
1.079987e+003;3.285933e-001
1.081915e+003;3.216028e-001
1.083844e+003;3.163808e-001
1.085773e+003;3.122247e-001
1.087701e+003;3.090329e-001
1.089630e+003;3.062404e-001
1.091558e+003;3.037563e-001
1.093487e+003;3.015443e-001
1.095415e+003;2.988612e-001
1.097344e+003;2.969729e-001
1.099272e+003;2.953011e-001
1.101201e+003;2.935886e-001
1.103129e+003;2.916569e-001
1.105058e+003;2.879288e-001
1.106987e+003;2.840686e-001
1.108915e+003;2.799278e-001
1.110844e+003;2.743608e-001
1.112772e+003;2.675015e-001
1.114701e+003;2.587753e-001
1.116629e+003;2.485252e-001
1.118558e+003;2.385468e-001
1.120486e+003;2.296298e-001
1.122415e+003;2.215237e-001
1.124344e+003;2.138009e-001
1.126272e+003;2.059770e-001
1.128201e+003;1.982820e-001
1.130129e+003;1.911806e-001
1.132058e+003;1.845865e-001
1.133986e+003;1.791711e-001
1.135915e+003;1.750480e-001
1.137843e+003;1.709017e-001
1.139772e+003;1.680583e-001
1.141700e+003;1.676939e-001
1.143629e+003;1.682978e-001
1.145557e+003;1.692132e-001
1.147486e+003;1.706409e-001
1.149415e+003;1.721405e-001
1.151343e+003;1.734615e-001
1.153272e+003;1.747225e-001
1.155200e+003;1.758143e-001
1.157129e+003;1.764333e-001
1.159057e+003;1.762322e-001
1.160986e+003;1.745656e-001
1.162914e+003;1.708937e-001
1.164843e+003;1.656111e-001
1.166771e+003;1.587164e-001
1.168700e+003;1.509370e-001
1.170629e+003;1.427367e-001
1.172557e+003;1.340874e-001
1.174486e+003;1.265107e-001
1.176414e+003;1.204953e-001
1.178343e+003;1.153175e-001
1.180271e+003;1.106989e-001
1.182200e+003;1.074654e-001
1.184128e+003;1.057733e-001
1.186057e+003;1.051264e-001
1.187986e+003;1.056536e-001
1.189914e+003;1.072207e-001
1.191843e+003;1.093900e-001
1.193771e+003;1.122330e-001
1.195700e+003;1.152647e-001
1.197628e+003;1.177286e-001
1.199557e+003;1.192081e-001
1.201485e+003;1.197084e-001
1.203414e+003;1.192656e-001
1.205343e+003;1.184061e-001
1.207271e+003;1.163433e-001
1.209200e+003;1.126245e-001
1.211128e+003;1.086047e-001
1.213057e+003;1.057031e-001
1.214985e+003;1.043248e-001
1.216914e+003;1.043962e-001
1.218842e+003;1.055679e-001
1.220771e+003;1.073958e-001
1.222699e+003;1.093291e-001
1.224628e+003;1.113630e-001
1.226557e+003;1.134971e-001
1.228485e+003;1.154582e-001
1.230414e+003;1.173975e-001
1.232342e+003;1.191456e-001
1.234271e+003;1.200779e-001
1.236199e+003;1.201966e-001
1.238128e+003;1.204918e-001
1.240056e+003;1.211719e-001
1.241985e+003;1.215919e-001
1.243913e+003;1.218636e-001
1.245842e+003;1.228751e-001
1.247771e+003;1.242072e-001
1.249699e+003;1.247711e-001
1.251628e+003;1.244876e-001
1.253556e+003;1.243376e-001
1.255485e+003;1.246541e-001
1.257413e+003;1.247854e-001
1.259342e+003;1.248915e-001
1.261270e+003;1.250954e-001
1.263199e+003;1.251362e-001
1.265127e+003;1.251394e-001
1.267056e+003;1.250649e-001
1.268985e+003;1.249636e-001
1.270913e+003;1.247809e-001
1.272842e+003;1.248697e-001
1.274770e+003;1.251411e-001
1.276699e+003;1.250302e-001
1.278627e+003;1.245817e-001
1.280556e+003;1.235019e-001
1.282484e+003;1.222784e-001
1.284413e+003;1.213186e-001
1.286342e+003;1.209702e-001
1.288270e+003;1.213394e-001
1.290199e+003;1.223193e-001
1.292127e+003;1.235822e-001
1.294056e+003;1.247284e-001
1.295984e+003;1.260734e-001
1.297913e+003;1.276696e-001
1.299841e+003;1.298860e-001
1.301770e+003;1.326990e-001
1.303698e+003;1.355647e-001
1.305627e+003;1.390367e-001
1.307556e+003;1.428141e-001
1.309484e+003;1.468329e-001
1.311413e+003;1.503032e-001
1.313341e+003;1.526835e-001
1.315270e+003;1.536434e-001
1.317198e+003;1.531821e-001
1.319127e+003;1.518799e-001
1.321055e+003;1.498896e-001
1.322984e+003;1.474854e-001
1.324912e+003;1.453776e-001
1.326841e+003;1.442301e-001
1.328770e+003;1.440352e-001
1.330698e+003;1.445932e-001
1.332627e+003;1.452170e-001
1.334555e+003;1.455624e-001
1.336484e+003;1.450255e-001
1.338412e+003;1.437897e-001
1.340341e+003;1.422719e-001
1.342269e+003;1.406680e-001
1.344198e+003;1.390189e-001
1.346126e+003;1.374035e-001
1.348055e+003;1.360699e-001
1.349984e+003;1.357841e-001
1.351912e+003;1.363195e-001
1.353841e+003;1.370740e-001
1.355769e+003;1.379838e-001
1.357698e+003;1.390690e-001
1.359626e+003;1.397501e-001
1.361555e+003;1.399398e-001
1.363483e+003;1.394005e-001
1.365412e+003;1.388141e-001
1.367341e+003;1.382228e-001
1.369269e+003;1.374602e-001
1.371198e+003;1.360175e-001
1.373126e+003;1.336344e-001
1.375055e+003;1.312961e-001
1.376983e+003;1.289200e-001
1.378912e+003;1.264097e-001
1.380840e+003;1.240812e-001
1.382769e+003;1.216632e-001
1.384698e+003;1.191853e-001
1.386626e+003;1.166597e-001
1.388555e+003;1.157566e-001
1.390483e+003;1.154058e-001
1.392412e+003;1.144929e-001
1.394340e+003;1.135544e-001
1.396269e+003;1.138612e-001
1.398197e+003;1.145258e-001
1.400126e+003;1.155688e-001
1.402054e+003;1.165943e-001
1.403983e+003;1.169544e-001
1.405911e+003;1.179825e-001
1.407840e+003;1.194116e-001
1.409769e+003;1.205111e-001
1.411697e+003;1.216523e-001
1.413626e+003;1.225853e-001
1.415554e+003;1.228690e-001
1.417483e+003;1.220237e-001
1.419411e+003;1.221299e-001
1.421340e+003;1.248061e-001
1.423268e+003;1.264912e-001
1.425197e+003;1.273648e-001
1.427125e+003;1.277247e-001
1.429054e+003;1.267722e-001
1.430983e+003;1.258794e-001
1.432911e+003;1.249095e-001
1.434840e+003;1.217599e-001
1.436768e+003;1.186288e-001
1.438697e+003;1.183583e-001
1.440625e+003;1.176577e-001
1.442554e+003;1.159909e-001
1.444482e+003;1.142286e-001
1.446411e+003;1.125831e-001
1.448340e+003;1.113537e-001
1.450268e+003;1.107765e-001
1.452197e+003;1.095277e-001
1.454125e+003;1.066920e-001
1.456054e+003;1.019017e-001
1.457982e+003;1.010146e-001
1.459911e+003;1.031255e-001
1.461839e+003;1.027521e-001
1.463768e+003;9.960265e-002
1.465697e+003;9.730843e-002
1.467625e+003;9.630661e-002
1.469554e+003;9.387060e-002
1.471482e+003;9.000587e-002
1.473411e+003;8.748873e-002
1.475339e+003;8.582538e-002
1.477268e+003;8.358064e-002
1.479196e+003;8.158562e-002
1.481125e+003;7.909055e-002
1.483053e+003;7.630537e-002
1.484982e+003;7.326376e-002
1.486911e+003;6.991684e-002
1.488839e+003;6.680328e-002
1.490768e+003;6.496734e-002
1.492696e+003;6.410070e-002
1.494625e+003;6.178308e-002
1.496553e+003;5.946863e-002
1.498482e+003;5.957101e-002
1.500410e+003;6.023251e-002
1.502339e+003;5.969299e-002
1.504267e+003;5.573185e-002
1.506196e+003;5.165650e-002
1.508125e+003;5.332525e-002
1.510053e+003;5.607083e-002
1.511982e+003;5.628525e-002
1.513910e+003;5.569098e-002
1.515839e+003;5.430458e-002
1.517767e+003;5.331682e-002
1.519696e+003;5.126983e-002
1.521624e+003;4.981929e-002
1.523553e+003;5.123560e-002
1.525481e+003;5.186293e-002
1.527410e+003;5.275530e-002
1.529339e+003;5.366281e-002
1.531267e+003;5.358221e-002
1.533196e+003;5.295210e-002
1.535124e+003;5.390812e-002
1.537053e+003;5.261928e-002
1.538981e+003;4.918259e-002
1.540910e+003;5.005035e-002
1.542838e+003;5.283784e-002
1.544767e+003;5.421444e-002
1.546695e+003;5.526423e-002
1.548624e+003;5.508853e-002
1.550553e+003;5.437364e-002
1.552481e+003;5.341154e-002
1.554410e+003;5.214431e-002
1.556338e+003;4.988879e-002
1.558267e+003;4.558821e-002
1.560195e+003;4.721651e-002
1.562124e+003;5.228986e-002
1.564052e+003;5.392590e-002
1.565981e+003;5.433981e-002
1.567910e+003;5.362120e-002
1.569838e+003;5.358056e-002
1.571767e+003;5.590095e-002
1.573695e+003;5.592737e-002
1.575624e+003;5.363882e-002
1.577552e+003;5.529456e-002
1.579481e+003;5.775394e-002
1.581409e+003;5.785368e-002
1.583338e+003;5.761087e-002
1.585266e+003;5.765180e-002
1.587195e+003;5.773101e-002
1.589124e+003;5.751262e-002
1.591052e+003;5.754708e-002
1.592981e+003;5.770841e-002
1.594909e+003;5.792118e-002
1.596838e+003;5.835995e-002
1.598766e+003;5.886981e-002
1.600695e+003;5.930931e-002
1.602623e+003;5.956858e-002
1.604552e+003;5.984112e-002
1.606480e+003;6.025283e-002
1.608409e+003;6.032687e-002
1.610338e+003;6.056877e-002
1.612266e+003;6.124014e-002
1.614195e+003;6.049975e-002
1.616123e+003;5.837382e-002
1.618052e+003;6.001940e-002
1.619980e+003;6.258053e-002
1.621909e+003;6.247397e-002
1.623837e+003;6.256412e-002
1.625766e+003;6.372987e-002
1.627694e+003;6.450074e-002
1.629623e+003;6.539738e-002
1.631552e+003;6.585661e-002
1.633480e+003;6.419165e-002
1.635409e+003;6.256706e-002
1.637337e+003;6.486180e-002
1.639266e+003;6.701792e-002
1.641194e+003;6.738641e-002
1.643123e+003;6.665039e-002
1.645051e+003;6.407090e-002
1.646980e+003;6.342255e-002
1.648909e+003;6.493871e-002
1.650837e+003;6.165620e-002
1.652766e+003;5.660734e-002
1.654694e+003;6.022698e-002
1.656623e+003;6.424297e-002
1.658551e+003;6.397429e-002
1.660480e+003;6.226347e-002
1.662408e+003;6.065605e-002
1.664337e+003;6.058279e-002
1.666266e+003;5.977572e-002
1.668194e+003;5.735734e-002
1.670123e+003;5.608335e-002
1.672051e+003;5.579197e-002
1.673980e+003;5.387417e-002
1.675908e+003;5.285977e-002
1.677837e+003;5.327161e-002
1.679765e+003;5.222035e-002
1.681694e+003;4.939664e-002
1.683622e+003;4.467062e-002
1.685551e+003;4.470786e-002
1.687479e+003;4.708251e-002
1.689408e+003;4.667838e-002
1.691337e+003;4.572064e-002
1.693265e+003;4.315208e-002
1.695194e+003;3.892190e-002
1.697122e+003;3.835944e-002
1.699051e+003;3.666905e-002
1.700979e+003;3.570534e-002
1.702908e+003;3.784688e-002
1.704836e+003;3.743986e-002
1.706765e+003;3.719437e-002
1.708693e+003;3.693419e-002
1.710622e+003;3.649978e-002
1.712551e+003;3.531981e-002
1.714479e+003;3.309485e-002
1.716408e+003;3.032064e-002
1.718336e+003;3.053359e-002
1.720265e+003;3.296621e-002
1.722193e+003;3.348131e-002
1.724122e+003;3.280992e-002
1.726050e+003;3.226314e-002
1.727979e+003;3.161554e-002
1.729908e+003;3.073476e-002
1.731836e+003;2.785526e-002
1.733765e+003;2.477511e-002
1.735693e+003;2.654157e-002
1.737622e+003;2.745810e-002
1.739550e+003;2.570978e-002
1.741479e+003;2.484990e-002
1.743407e+003;2.396939e-002
1.745336e+003;2.311319e-002
1.747265e+003;2.212069e-002
1.749193e+003;2.099659e-002
1.751122e+003;2.083783e-002
1.753050e+003;2.275658e-002
1.754979e+003;2.344110e-002
1.756907e+003;2.336078e-002
1.758836e+003;2.386173e-002
1.760764e+003;2.331714e-002
1.762693e+003;2.355274e-002
1.764621e+003;2.442039e-002
1.766550e+003;2.366886e-002
1.768479e+003;2.289176e-002
1.770407e+003;2.185879e-002
1.772336e+003;2.095809e-002
1.774264e+003;2.253300e-002
1.776193e+003;2.377927e-002
1.778121e+003;2.361533e-002
1.780050e+003;2.319119e-002
1.781978e+003;2.309051e-002
1.783907e+003;2.278647e-002
1.785835e+003;2.282652e-002
1.787764e+003;2.296809e-002
1.789693e+003;2.193448e-002
1.791621e+003;2.057354e-002
1.793550e+003;2.102267e-002
1.795478e+003;2.219667e-002
1.797407e+003;2.215549e-002
1.799335e+003;2.160025e-002
1.801264e+003;2.148459e-002
1.803192e+003;2.168436e-002
1.805121e+003;2.160325e-002
1.807049e+003;2.151637e-002
1.808978e+003;2.133139e-002
1.810907e+003;2.123615e-002
1.812835e+003;2.115777e-002
1.814764e+003;2.091512e-002
1.816692e+003;2.054252e-002
1.818621e+003;2.055742e-002
1.820549e+003;2.055631e-002
1.822478e+003;2.021596e-002
1.824406e+003;1.956222e-002
1.826335e+003;1.933213e-002
1.828264e+003;1.883426e-002
1.830192e+003;1.887070e-002
1.832121e+003;1.951203e-002
1.834049e+003;1.972456e-002
1.835978e+003;1.982797e-002
1.837906e+003;1.977769e-002
1.839835e+003;1.958582e-002
1.841763e+003;1.855452e-002
1.843692e+003;1.727517e-002
1.845620e+003;1.800387e-002
1.847549e+003;1.878582e-002
1.849478e+003;1.883713e-002
1.851406e+003;1.893012e-002
1.853335e+003;1.878769e-002
1.855263e+003;1.853107e-002
1.857192e+003;1.844177e-002
1.859120e+003;1.837294e-002
1.861049e+003;1.842058e-002
1.862977e+003;1.833848e-002
1.864906e+003;1.799323e-002
1.866834e+003;1.725976e-002
1.868763e+003;1.673344e-002
1.870692e+003;1.728741e-002
1.872620e+003;1.774934e-002
1.874549e+003;1.775590e-002
1.876477e+003;1.780087e-002
1.878406e+003;1.763548e-002
1.880334e+003;1.757265e-002
1.882263e+003;1.760619e-002
1.884191e+003;1.745408e-002
1.886120e+003;1.730048e-002
1.888048e+003;1.710116e-002
1.889977e+003;1.700966e-002
1.891906e+003;1.737641e-002
1.893834e+003;1.739593e-002
1.895763e+003;1.742339e-002
1.897691e+003;1.757355e-002
1.899620e+003;1.742245e-002
1.901548e+003;1.738024e-002
1.903477e+003;1.750096e-002
1.905405e+003;1.727183e-002
1.907334e+003;1.708393e-002
1.909262e+003;1.707917e-002
1.911191e+003;1.715207e-002
1.913120e+003;1.720429e-002
1.915048e+003;1.714169e-002
1.916977e+003;1.696380e-002
1.918905e+003;1.727428e-002
1.920834e+003;1.766195e-002
1.922762e+003;1.760046e-002
1.924691e+003;1.782452e-002
1.926619e+003;1.796021e-002
1.928548e+003;1.790528e-002
1.930477e+003;1.794581e-002
1.932405e+003;1.778827e-002
1.934334e+003;1.787434e-002
1.936262e+003;1.815375e-002
1.938191e+003;1.838190e-002
1.940119e+003;1.824217e-002
1.942048e+003;1.804922e-002
1.943976e+003;1.828633e-002
1.945905e+003;1.851195e-002
1.947833e+003;1.851842e-002
1.949762e+003;1.862154e-002
1.951691e+003;1.856777e-002
1.953619e+003;1.841750e-002
1.955548e+003;1.859695e-002
1.957476e+003;1.897214e-002
1.959405e+003;1.918281e-002
1.961333e+003;1.915857e-002
1.963262e+003;1.902212e-002
1.965190e+003;1.889049e-002
1.967119e+003;1.875430e-002
1.969047e+003;1.880399e-002
1.970976e+003;1.909199e-002
1.972905e+003;1.931301e-002
1.974833e+003;1.908191e-002
1.976762e+003;1.890375e-002
1.978690e+003;1.907599e-002
1.980619e+003;1.933819e-002
1.982547e+003;1.941736e-002
1.984476e+003;1.933147e-002
1.986404e+003;1.944834e-002
1.988333e+003;1.951910e-002
1.990261e+003;1.924533e-002
1.992190e+003;1.917831e-002
1.994119e+003;1.955882e-002
1.996047e+003;1.980966e-002
1.997976e+003;1.971198e-002
1.999904e+003;1.965391e-002
2.001833e+003;1.973871e-002
2.003761e+003;1.979426e-002
2.005690e+003;1.995985e-002
2.007618e+003;2.003264e-002
2.009547e+003;1.992138e-002
2.011476e+003;2.010874e-002
2.013404e+003;2.034400e-002
2.015333e+003;2.045196e-002
2.017261e+003;2.075403e-002
2.019190e+003;2.106990e-002
2.021118e+003;2.128125e-002
2.023047e+003;2.139933e-002
2.024975e+003;2.137236e-002
2.026904e+003;2.134824e-002
2.028833e+003;2.157375e-002
2.030761e+003;2.179434e-002
2.032690e+003;2.169896e-002
2.034618e+003;2.163644e-002
2.036547e+003;2.168513e-002
2.038475e+003;2.158169e-002
2.040404e+003;2.155833e-002
2.042332e+003;2.191308e-002
2.044261e+003;2.206770e-002
2.046189e+003;2.201702e-002
2.048118e+003;2.198132e-002
2.050047e+003;2.194497e-002
2.051975e+003;2.197787e-002
2.053904e+003;2.222279e-002
2.055832e+003;2.208827e-002
2.057761e+003;2.184587e-002
2.059689e+003;2.174163e-002
2.061618e+003;2.180033e-002
2.063546e+003;2.176629e-002
2.065475e+003;2.155279e-002
2.067404e+003;2.157577e-002
2.069332e+003;2.152414e-002
2.071260e+003;2.151296e-002
2.073189e+003;2.188754e-002
2.075118e+003;2.218928e-002
2.077046e+003;2.195428e-002
2.078975e+003;2.175002e-002
2.080903e+003;2.188855e-002
2.082832e+003;2.187472e-002
2.084760e+003;2.170906e-002
2.086689e+003;2.157389e-002
2.088617e+003;2.146909e-002
2.090546e+003;2.148124e-002
2.092475e+003;2.170126e-002
2.094403e+003;2.185782e-002
2.096332e+003;2.181559e-002
2.098260e+003;2.182391e-002
2.100189e+003;2.173637e-002
2.102117e+003;2.164330e-002
2.104046e+003;2.190089e-002
2.105974e+003;2.198230e-002
2.107903e+003;2.191117e-002
2.109832e+003;2.202284e-002
2.111760e+003;2.226150e-002
2.113688e+003;2.252898e-002
2.115617e+003;2.254336e-002
2.117546e+003;2.236234e-002
2.119474e+003;2.218792e-002
2.121403e+003;2.235013e-002
2.123331e+003;2.247996e-002
2.125260e+003;2.235571e-002
2.127188e+003;2.237930e-002
2.129117e+003;2.256706e-002
2.131045e+003;2.278500e-002
2.132974e+003;2.288041e-002
2.134903e+003;2.276381e-002
2.136831e+003;2.240714e-002
2.138760e+003;2.205930e-002
2.140688e+003;2.215395e-002
2.142617e+003;2.233245e-002
2.144545e+003;2.213715e-002
2.146474e+003;2.180500e-002
2.148402e+003;2.184297e-002
2.150331e+003;2.189573e-002
2.152260e+003;2.192640e-002
2.154188e+003;2.174013e-002
2.156117e+003;2.151494e-002
2.158045e+003;2.139857e-002
2.159974e+003;2.130766e-002
2.161902e+003;2.134096e-002
2.163831e+003;2.111188e-002
2.165759e+003;2.081649e-002
2.167688e+003;2.063834e-002
2.169616e+003;2.054391e-002
2.171545e+003;2.064366e-002
2.173474e+003;2.057448e-002
2.175402e+003;2.012165e-002
2.177331e+003;2.012967e-002
2.179259e+003;2.000593e-002
2.181188e+003;1.952004e-002
2.183116e+003;1.950119e-002
2.185045e+003;1.949571e-002
2.186973e+003;1.921717e-002
2.188902e+003;1.900554e-002
2.190831e+003;1.885994e-002
2.192759e+003;1.877087e-002
2.194688e+003;1.870466e-002
2.196616e+003;1.879572e-002
2.198545e+003;1.877319e-002
2.200473e+003;1.853996e-002
2.202402e+003;1.836230e-002
2.204330e+003;1.832237e-002
2.206259e+003;1.839282e-002
2.208188e+003;1.827047e-002
2.210116e+003;1.812414e-002
2.212044e+003;1.824949e-002
2.213973e+003;1.828861e-002
2.215902e+003;1.835929e-002
2.217830e+003;1.839562e-002
2.219759e+003;1.830506e-002
2.221687e+003;1.839797e-002
2.223616e+003;1.847164e-002
2.225544e+003;1.844253e-002
2.227473e+003;1.833606e-002
2.229401e+003;1.835500e-002
2.231330e+003;1.821946e-002
2.233259e+003;1.808807e-002
2.235187e+003;1.829307e-002
2.237116e+003;1.817949e-002
2.239044e+003;1.814245e-002
2.240973e+003;1.837059e-002
2.242901e+003;1.827624e-002
2.244830e+003;1.788618e-002
2.246758e+003;1.762399e-002
2.248687e+003;1.775707e-002
2.250615e+003;1.774996e-002
2.252544e+003;1.752035e-002
2.254473e+003;1.774810e-002
2.256401e+003;1.783484e-002
2.258330e+003;1.752159e-002
2.260258e+003;1.740331e-002
2.262187e+003;1.744039e-002
2.264115e+003;1.740838e-002
2.266044e+003;1.747195e-002
2.267972e+003;1.730069e-002
2.269901e+003;1.691540e-002
2.271830e+003;1.681196e-002
2.273758e+003;1.686056e-002
2.275687e+003;1.694809e-002
2.277615e+003;1.694544e-002
2.279544e+003;1.674804e-002
2.281472e+003;1.659324e-002
2.283401e+003;1.675985e-002
2.285329e+003;1.711515e-002
2.287258e+003;1.711818e-002
2.289187e+003;1.679319e-002
2.291115e+003;1.694847e-002
2.293043e+003;1.698999e-002
2.294972e+003;1.678354e-002
2.296901e+003;1.695977e-002
2.298829e+003;1.708269e-002
2.300758e+003;1.692036e-002
2.302686e+003;1.684519e-002
2.304615e+003;1.677242e-002
2.306543e+003;1.668506e-002
2.308472e+003;1.642635e-002
2.310400e+003;1.600718e-002
2.312329e+003;1.578364e-002
2.314258e+003;1.605961e-002
2.316186e+003;1.646293e-002
2.318115e+003;1.668798e-002
2.320043e+003;1.686586e-002
2.321972e+003;1.701115e-002
2.323900e+003;1.706239e-002
2.325829e+003;1.695099e-002
2.327757e+003;1.686121e-002
2.329686e+003;1.676243e-002
2.331615e+003;1.673020e-002
2.333543e+003;1.702793e-002
2.335472e+003;1.702582e-002
2.337400e+003;1.698327e-002
2.339329e+003;1.737265e-002
2.341257e+003;1.767006e-002
2.343186e+003;1.771054e-002
2.345114e+003;1.753967e-002
2.347043e+003;1.753318e-002
2.348971e+003;1.785715e-002
2.350900e+003;1.826677e-002
2.352829e+003;1.825391e-002
2.354757e+003;1.848910e-002
2.356686e+003;1.887101e-002
2.358614e+003;1.873285e-002
2.360543e+003;1.841169e-002
2.362471e+003;1.868816e-002
2.364400e+003;1.909188e-002
2.366328e+003;1.920037e-002
2.368257e+003;1.919570e-002
2.370186e+003;1.923996e-002
2.372114e+003;1.903393e-002
2.374042e+003;1.849394e-002
2.375971e+003;1.844782e-002
2.377900e+003;1.898491e-002
2.379828e+003;1.947051e-002
2.381757e+003;1.958703e-002
2.383685e+003;1.949907e-002
2.385614e+003;1.938961e-002
2.387542e+003;1.970241e-002
2.389471e+003;2.007866e-002
2.391399e+003;2.013061e-002
2.393328e+003;2.047701e-002
2.395257e+003;2.074690e-002
2.397185e+003;2.063608e-002
2.399114e+003;2.047836e-002
2.401042e+003;2.058386e-002
2.402971e+003;2.070426e-002
2.404899e+003;2.091171e-002
2.406828e+003;2.101453e-002
2.408756e+003;2.098236e-002
2.410685e+003;2.098696e-002
2.412614e+003;2.117043e-002
2.414542e+003;2.136174e-002
2.416471e+003;2.165298e-002
2.418399e+003;2.174849e-002
2.420328e+003;2.183224e-002
2.422256e+003;2.215716e-002
2.424185e+003;2.240295e-002
2.426113e+003;2.250128e-002
2.428042e+003;2.264573e-002
2.429970e+003;2.286522e-002
2.431899e+003;2.297689e-002
2.433828e+003;2.304453e-002
2.435756e+003;2.328064e-002
2.437685e+003;2.356334e-002
2.439613e+003;2.378123e-002
2.441542e+003;2.414856e-002
2.443470e+003;2.442404e-002
2.445399e+003;2.432692e-002
2.447327e+003;2.443378e-002
2.449256e+003;2.461946e-002
2.451185e+003;2.452934e-002
2.453113e+003;2.470022e-002
2.455042e+003;2.510312e-002
2.456970e+003;2.520097e-002
2.458899e+003;2.551978e-002
2.460827e+003;2.591074e-002
2.462756e+003;2.580524e-002
2.464684e+003;2.537489e-002
2.466613e+003;2.537994e-002
2.468542e+003;2.578614e-002
2.470470e+003;2.602840e-002
2.472398e+003;2.632877e-002
2.474327e+003;2.636493e-002
2.476256e+003;2.624017e-002
2.478184e+003;2.632493e-002
2.480113e+003;2.653885e-002
2.482041e+003;2.685879e-002
2.483970e+003;2.689925e-002
2.485898e+003;2.681617e-002
2.487827e+003;2.711945e-002
2.489755e+003;2.765771e-002
2.491684e+003;2.785099e-002
2.493613e+003;2.770849e-002
2.495541e+003;2.767484e-002
2.497470e+003;2.787247e-002
2.499398e+003;2.778980e-002
2.501327e+003;2.793698e-002
2.503255e+003;2.849830e-002
2.505184e+003;2.868802e-002
2.507112e+003;2.869340e-002
2.509041e+003;2.911352e-002
2.510969e+003;2.942982e-002
2.512898e+003;2.911189e-002
2.514827e+003;2.892577e-002
2.516755e+003;2.898347e-002
2.518684e+003;2.918084e-002
2.520612e+003;2.968533e-002
2.522541e+003;2.992558e-002
2.524469e+003;2.966103e-002
2.526398e+003;2.972695e-002
2.528326e+003;3.027250e-002
2.530255e+003;3.038204e-002
2.532184e+003;3.003255e-002
2.534112e+003;2.993975e-002
2.536041e+003;2.991195e-002
2.537969e+003;3.010897e-002
2.539898e+003;3.038790e-002
2.541826e+003;3.061912e-002
2.543755e+003;3.086323e-002
2.545683e+003;3.088707e-002
2.547612e+003;3.086196e-002
2.549541e+003;3.094286e-002
2.551469e+003;3.083972e-002
2.553397e+003;3.079128e-002
2.555326e+003;3.090603e-002
2.557255e+003;3.098246e-002
2.559183e+003;3.088533e-002
2.561112e+003;3.099837e-002
2.563040e+003;3.134532e-002
2.564969e+003;3.137282e-002
2.566897e+003;3.129134e-002
2.568826e+003;3.116352e-002
2.570754e+003;3.120656e-002
2.572683e+003;3.132574e-002
2.574612e+003;3.149877e-002
2.576540e+003;3.149942e-002
2.578469e+003;3.134575e-002
2.580397e+003;3.137606e-002
2.582326e+003;3.173747e-002
2.584254e+003;3.180042e-002
2.586183e+003;3.156508e-002
2.588111e+003;3.188489e-002
2.590040e+003;3.231578e-002
2.591969e+003;3.251807e-002
2.593897e+003;3.286592e-002
2.595826e+003;3.300954e-002
2.597754e+003;3.292403e-002
2.599683e+003;3.298562e-002
2.601611e+003;3.322653e-002
2.603540e+003;3.337961e-002
2.605468e+003;3.347834e-002
2.607397e+003;3.346048e-002
2.609325e+003;3.348529e-002
2.611254e+003;3.385114e-002
2.613183e+003;3.432336e-002
2.615111e+003;3.462690e-002
2.617040e+003;3.481598e-002
2.618968e+003;3.515465e-002
2.620897e+003;3.546172e-002
2.622825e+003;3.539176e-002
2.624754e+003;3.510453e-002
2.626682e+003;3.522831e-002
2.628611e+003;3.607008e-002
2.630540e+003;3.671455e-002
2.632468e+003;3.683082e-002
2.634396e+003;3.687821e-002
2.636325e+003;3.698420e-002
2.638254e+003;3.726632e-002
2.640182e+003;3.739927e-002
2.642111e+003;3.769948e-002
2.644039e+003;3.793882e-002
2.645968e+003;3.811625e-002
2.647896e+003;3.823000e-002
2.649825e+003;3.805769e-002
2.651753e+003;3.815286e-002
2.653682e+003;3.864134e-002
2.655611e+003;3.895376e-002
2.657539e+003;3.882648e-002
2.659468e+003;3.914643e-002
2.661396e+003;3.984782e-002
2.663325e+003;3.993241e-002
2.665253e+003;4.026684e-002
2.667182e+003;4.062354e-002
2.669110e+003;4.075457e-002
2.671039e+003;4.102801e-002
2.672968e+003;4.084615e-002
2.674896e+003;4.048188e-002
2.676825e+003;4.078234e-002
2.678753e+003;4.162555e-002
2.680682e+003;4.197271e-002
2.682610e+003;4.225400e-002
2.684539e+003;4.246956e-002
2.686467e+003;4.245484e-002
2.688396e+003;4.265594e-002
2.690324e+003;4.290934e-002
2.692253e+003;4.314366e-002
2.694182e+003;4.332678e-002
2.696110e+003;4.349731e-002
2.698039e+003;4.377776e-002
2.699967e+003;4.414110e-002
2.701896e+003;4.460346e-002
2.703824e+003;4.499894e-002
2.705753e+003;4.506576e-002
2.707681e+003;4.497579e-002
2.709610e+003;4.532075e-002
2.711539e+003;4.572447e-002
2.713467e+003;4.583834e-002
2.715396e+003;4.579582e-002
2.717324e+003;4.607378e-002
2.719253e+003;4.637164e-002
2.721181e+003;4.633393e-002
2.723110e+003;4.642407e-002
2.725038e+003;4.658744e-002
2.726967e+003;4.674505e-002
2.728896e+003;4.696170e-002
2.730824e+003;4.703706e-002
2.732752e+003;4.717115e-002
2.734681e+003;4.731005e-002
2.736610e+003;4.723273e-002
2.738538e+003;4.736415e-002
2.740467e+003;4.787413e-002
2.742395e+003;4.784779e-002
2.744324e+003;4.764652e-002
2.746252e+003;4.784749e-002
2.748181e+003;4.845416e-002
2.750109e+003;4.878621e-002
2.752038e+003;4.895096e-002
2.753967e+003;4.881394e-002
2.755895e+003;4.849850e-002
2.757824e+003;4.874324e-002
2.759752e+003;4.902250e-002
2.761681e+003;4.896894e-002
2.763609e+003;4.942608e-002
2.765538e+003;5.016860e-002
2.767466e+003;5.064246e-002
2.769395e+003;5.114330e-002
2.771323e+003;5.130860e-002
2.773252e+003;5.137495e-002
2.775181e+003;5.136085e-002
2.777109e+003;5.130323e-002
2.779038e+003;5.163113e-002
2.780966e+003;5.214028e-002
2.782895e+003;5.234865e-002
2.784823e+003;5.261131e-002
2.786752e+003;5.329244e-002
2.788680e+003;5.354923e-002
2.790609e+003;5.359095e-002
2.792538e+003;5.383561e-002
2.794466e+003;5.451911e-002
2.796395e+003;5.505358e-002
2.798323e+003;5.516670e-002
2.800252e+003;5.571267e-002
2.802180e+003;5.646909e-002
2.804109e+003;5.684173e-002
2.806037e+003;5.680457e-002
2.807966e+003;5.739197e-002
2.809895e+003;5.838110e-002
2.811823e+003;5.899842e-002
2.813751e+003;5.955862e-002
2.815680e+003;6.027548e-002
2.817609e+003;6.094384e-002
2.819537e+003;6.200075e-002
2.821466e+003;6.277135e-002
2.823394e+003;6.343836e-002
2.825323e+003;6.393291e-002
2.827251e+003;6.421807e-002
2.829180e+003;6.483933e-002
2.831108e+003;6.589421e-002
2.833037e+003;6.712023e-002
2.834966e+003;6.846993e-002
2.836894e+003;6.974129e-002
2.838823e+003;7.112290e-002
2.840751e+003;7.255536e-002
2.842680e+003;7.467891e-002
2.844608e+003;7.757956e-002
2.846537e+003;8.074278e-002
2.848465e+003;8.424395e-002
2.850394e+003;8.722161e-002
2.852323e+003;8.813260e-002
2.854251e+003;8.781490e-002
2.856180e+003;8.740310e-002
2.858108e+003;8.777568e-002
2.860037e+003;8.884194e-002
2.861965e+003;8.992949e-002
2.863894e+003;9.098320e-002
2.865822e+003;9.231748e-002
2.867751e+003;9.344397e-002
2.869679e+003;9.426607e-002
2.871608e+003;9.494452e-002
2.873536e+003;9.564523e-002
2.875465e+003;9.627501e-002
2.877394e+003;9.696792e-002
2.879322e+003;9.767426e-002
2.881251e+003;9.844937e-002
2.883179e+003;9.890811e-002
2.885108e+003;9.917249e-002
2.887036e+003;9.976201e-002
2.888965e+003;1.005640e-001
2.890893e+003;1.011183e-001
2.892822e+003;1.012837e-001
2.894750e+003;1.010157e-001
2.896679e+003;1.010367e-001
2.898608e+003;1.010839e-001
2.900536e+003;1.008305e-001
2.902465e+003;1.004345e-001
2.904393e+003;1.000556e-001
2.906322e+003;9.993322e-002
2.908250e+003;9.955761e-002
2.910179e+003;9.920413e-002
2.912107e+003;9.916616e-002
2.914036e+003;9.962674e-002
2.915965e+003;1.000488e-001
2.917893e+003;9.960020e-002
2.919822e+003;9.865820e-002
2.921750e+003;9.719386e-002
2.923679e+003;9.495021e-002
2.925607e+003;9.265358e-002
2.927536e+003;9.050079e-002
2.929464e+003;8.833925e-002
2.931393e+003;8.627178e-002
2.933322e+003;8.400813e-002
2.935250e+003;8.175541e-002
2.937178e+003;8.035593e-002
2.939107e+003;7.900850e-002
2.941036e+003;7.725745e-002
2.942964e+003;7.648003e-002
2.944893e+003;7.584735e-002
2.946821e+003;7.416985e-002
2.948750e+003;7.239655e-002
2.950678e+003;7.094586e-002
2.952607e+003;6.946725e-002
2.954535e+003;6.780216e-002
2.956464e+003;6.632891e-002
2.958393e+003;6.501564e-002
2.960321e+003;6.390903e-002
2.962250e+003;6.261406e-002
2.964178e+003;6.145842e-002
2.966107e+003;6.033909e-002
2.968035e+003;5.934175e-002
2.969964e+003;5.899500e-002
2.971892e+003;5.845907e-002
2.973821e+003;5.731718e-002
2.975750e+003;5.604003e-002
2.977678e+003;5.497498e-002
2.979607e+003;5.440286e-002
2.981535e+003;5.353472e-002
2.983464e+003;5.279062e-002
2.985392e+003;5.223107e-002
2.987321e+003;5.146972e-002
2.989249e+003;5.083004e-002
2.991178e+003;5.068442e-002
2.993106e+003;5.030731e-002
2.995035e+003;4.962821e-002
2.996964e+003;4.918148e-002
2.998892e+003;4.892603e-002
3.000821e+003;4.888139e-002
3.002749e+003;4.906382e-002
3.004678e+003;4.938287e-002
3.006606e+003;4.915728e-002
3.008535e+003;4.901660e-002
3.010463e+003;4.920983e-002
3.012392e+003;4.951642e-002
3.014321e+003;4.987225e-002
3.016249e+003;5.043446e-002
3.018177e+003;5.070583e-002
3.020106e+003;5.001269e-002
3.022035e+003;4.976701e-002
3.023963e+003;5.074899e-002
3.025892e+003;5.164284e-002
3.027820e+003;5.163459e-002
3.029749e+003;5.145849e-002
3.031677e+003;5.189433e-002
3.033606e+003;5.253734e-002
3.035534e+003;5.290572e-002
3.037463e+003;5.321745e-002
3.039392e+003;5.363912e-002
3.041320e+003;5.386367e-002
3.043249e+003;5.418655e-002
3.045177e+003;5.477598e-002
3.047106e+003;5.564672e-002
3.049034e+003;5.604987e-002
3.050963e+003;5.622019e-002
3.052891e+003;5.699313e-002
3.054820e+003;5.778195e-002
3.056749e+003;5.784455e-002
3.058677e+003;5.779686e-002
3.060606e+003;5.834471e-002
3.062534e+003;5.901770e-002
3.064463e+003;5.956432e-002
3.066391e+003;5.976035e-002
3.068320e+003;5.986847e-002
3.070248e+003;6.065266e-002
3.072177e+003;6.148919e-002
3.074105e+003;6.189142e-002
3.076034e+003;6.227215e-002
3.077963e+003;6.294459e-002
3.079891e+003;6.380432e-002
3.081820e+003;6.443360e-002
3.083748e+003;6.465561e-002
3.085677e+003;6.571466e-002
3.087605e+003;6.680425e-002
3.089534e+003;6.687315e-002
3.091462e+003;6.721886e-002
3.093391e+003;6.792907e-002
3.095320e+003;6.833572e-002
3.097248e+003;6.909085e-002
3.099177e+003;6.981301e-002
3.101105e+003;6.974297e-002
3.103034e+003;7.011246e-002
3.104962e+003;7.113691e-002
3.106891e+003;7.161491e-002
3.108819e+003;7.197670e-002
3.110748e+003;7.304601e-002
3.112677e+003;7.402842e-002
3.114605e+003;7.467852e-002
3.116533e+003;7.516899e-002
3.118462e+003;7.556912e-002
3.120391e+003;7.631718e-002
3.122319e+003;7.672872e-002
3.124248e+003;7.685344e-002
3.126176e+003;7.765107e-002
3.128105e+003;7.866314e-002
3.130033e+003;7.947858e-002
3.131962e+003;8.028743e-002
3.133890e+003;8.105538e-002
3.135819e+003;8.179533e-002
3.137748e+003;8.235506e-002
3.139676e+003;8.270763e-002
3.141605e+003;8.271817e-002
3.143533e+003;8.307239e-002
3.145462e+003;8.406385e-002
3.147390e+003;8.526878e-002
3.149319e+003;8.629522e-002
3.151247e+003;8.723392e-002
3.153176e+003;8.777958e-002
3.155104e+003;8.821911e-002
3.157033e+003;8.872605e-002
3.158962e+003;8.952280e-002
3.160890e+003;9.012321e-002
3.162819e+003;9.107595e-002
3.164747e+003;9.249497e-002
3.166676e+003;9.317403e-002
3.168604e+003;9.337294e-002
3.170533e+003;9.420387e-002
3.172461e+003;9.552144e-002
3.174390e+003;9.632207e-002
3.176319e+003;9.706005e-002
3.178247e+003;9.766978e-002
3.180176e+003;9.770048e-002
3.182104e+003;9.856003e-002
3.184033e+003;9.970865e-002
3.185961e+003;1.005443e-001
3.187890e+003;1.009190e-001
3.189818e+003;1.012615e-001
3.191747e+003;1.021902e-001
3.193676e+003;1.030385e-001
3.195604e+003;1.042817e-001
3.197532e+003;1.050991e-001
3.199461e+003;1.058659e-001
3.201390e+003;1.068522e-001
3.203318e+003;1.079062e-001
3.205247e+003;1.088130e-001
3.207175e+003;1.097729e-001
3.209104e+003;1.104966e-001
3.211032e+003;1.115061e-001
3.212961e+003;1.124325e-001
3.214889e+003;1.129623e-001
3.216818e+003;1.138611e-001
3.218747e+003;1.156310e-001
3.220675e+003;1.166862e-001
3.222604e+003;1.170268e-001
3.224532e+003;1.173046e-001
3.226461e+003;1.178931e-001
3.228389e+003;1.184826e-001
3.230318e+003;1.198247e-001
3.232246e+003;1.210921e-001
3.234175e+003;1.217796e-001
3.236104e+003;1.225880e-001
3.238032e+003;1.236235e-001
3.239961e+003;1.248295e-001
3.241889e+003;1.261600e-001
3.243818e+003;1.271936e-001
3.245746e+003;1.278697e-001
3.247675e+003;1.286196e-001
3.249603e+003;1.293283e-001
3.251532e+003;1.303721e-001
3.253460e+003;1.317498e-001
3.255389e+003;1.326354e-001
3.257318e+003;1.335160e-001
3.259246e+003;1.342540e-001
3.261175e+003;1.349236e-001
3.263103e+003;1.356832e-001
3.265032e+003;1.371631e-001
3.266960e+003;1.383952e-001
3.268889e+003;1.389599e-001
3.270817e+003;1.398168e-001
3.272746e+003;1.404090e-001
3.274675e+003;1.406852e-001
3.276603e+003;1.410372e-001
3.278531e+003;1.409884e-001
3.280460e+003;1.417245e-001
3.282389e+003;1.429984e-001
3.284317e+003;1.437369e-001
3.286246e+003;1.440608e-001
3.288174e+003;1.443173e-001
3.290103e+003;1.445235e-001
3.292031e+003;1.450914e-001
3.293960e+003;1.455178e-001
3.295888e+003;1.455250e-001
3.297817e+003;1.451750e-001
3.299746e+003;1.455173e-001
3.301674e+003;1.458054e-001
3.303603e+003;1.459090e-001
3.305531e+003;1.467524e-001
3.307460e+003;1.468390e-001
3.309388e+003;1.465727e-001
3.311317e+003;1.474346e-001
3.313245e+003;1.481740e-001
3.315174e+003;1.478983e-001
3.317103e+003;1.474377e-001
3.319031e+003;1.475171e-001
3.320960e+003;1.480962e-001
3.322888e+003;1.489869e-001
3.324817e+003;1.498908e-001
3.326745e+003;1.506569e-001
3.328674e+003;1.511495e-001
3.330602e+003;1.514239e-001
3.332531e+003;1.515945e-001
3.334459e+003;1.515244e-001
3.336388e+003;1.511584e-001
3.338317e+003;1.504157e-001
3.340245e+003;1.502852e-001
3.342174e+003;1.505641e-001
3.344102e+003;1.500850e-001
3.346031e+003;1.492963e-001
3.347959e+003;1.488801e-001
3.349888e+003;1.483358e-001
3.351816e+003;1.479255e-001
3.353745e+003;1.477515e-001
3.355674e+003;1.463333e-001
3.357602e+003;1.448096e-001
3.359531e+003;1.447560e-001
3.361459e+003;1.444344e-001
3.363388e+003;1.439215e-001
3.365316e+003;1.432417e-001
3.367245e+003;1.424295e-001
3.369173e+003;1.420733e-001
3.371102e+003;1.418549e-001
3.373031e+003;1.416784e-001
3.374959e+003;1.408560e-001
3.376887e+003;1.396493e-001
3.378816e+003;1.385311e-001
3.380745e+003;1.377222e-001
3.382673e+003;1.373668e-001
3.384602e+003;1.373157e-001
3.386530e+003;1.370361e-001
3.388459e+003;1.360347e-001
3.390387e+003;1.352540e-001
3.392316e+003;1.351375e-001
3.394244e+003;1.351848e-001
3.396173e+003;1.343027e-001
3.398102e+003;1.330264e-001
3.400030e+003;1.321474e-001
3.401959e+003;1.313914e-001
3.403887e+003;1.309660e-001
3.405816e+003;1.304778e-001
3.407744e+003;1.299791e-001
3.409673e+003;1.292844e-001
3.411601e+003;1.275626e-001
3.413530e+003;1.264991e-001
3.415458e+003;1.259792e-001
3.417387e+003;1.250057e-001
3.419316e+003;1.240169e-001
3.421244e+003;1.231774e-001
3.423173e+003;1.223339e-001
3.425101e+003;1.208235e-001
3.427030e+003;1.193848e-001
3.428958e+003;1.187187e-001
3.430887e+003;1.179214e-001
3.432815e+003;1.169877e-001
3.434744e+003;1.162203e-001
3.436673e+003;1.152947e-001
3.438601e+003;1.143154e-001
3.440530e+003;1.135700e-001
3.442458e+003;1.125580e-001
3.444387e+003;1.114890e-001
3.446315e+003;1.105795e-001
3.448244e+003;1.096066e-001
3.450172e+003;1.083921e-001
3.452101e+003;1.072878e-001
3.454030e+003;1.063942e-001
3.455958e+003;1.057166e-001
3.457886e+003;1.046124e-001
3.459815e+003;1.037500e-001
3.461744e+003;1.026654e-001
3.463672e+003;1.013856e-001
3.465601e+003;1.004161e-001
3.467529e+003;9.949827e-002
3.469458e+003;9.778950e-002
3.471386e+003;9.610167e-002
3.473315e+003;9.462111e-002
3.475243e+003;9.405017e-002
3.477172e+003;9.369255e-002
3.479101e+003;9.262479e-002
3.481029e+003;9.112348e-002
3.482958e+003;8.954695e-002
3.484886e+003;8.856135e-002
3.486815e+003;8.748103e-002
3.488743e+003;8.624284e-002
3.490672e+003;8.542235e-002
3.492600e+003;8.442586e-002
3.494529e+003;8.286218e-002
3.496458e+003;8.159905e-002
3.498386e+003;8.062620e-002
3.500315e+003;7.924796e-002
3.502243e+003;7.768035e-002
3.504172e+003;7.632678e-002
3.506100e+003;7.555681e-002
3.508029e+003;7.469521e-002
3.509957e+003;7.367969e-002
3.511886e+003;7.311341e-002
3.513814e+003;7.225241e-002
3.515743e+003;7.058416e-002
3.517672e+003;6.929030e-002
3.519600e+003;6.844544e-002
3.521529e+003;6.717480e-002
3.523457e+003;6.589818e-002
3.525386e+003;6.500817e-002
3.527314e+003;6.382528e-002
3.529243e+003;6.291775e-002
3.531171e+003;6.258015e-002
3.533100e+003;6.193089e-002
3.535029e+003;6.034655e-002
3.536957e+003;5.915281e-002
3.538885e+003;5.798002e-002
3.540814e+003;5.655170e-002
3.542743e+003;5.522329e-002
3.544671e+003;5.428533e-002
3.546600e+003;5.394098e-002
3.548528e+003;5.367563e-002
3.550457e+003;5.212601e-002
3.552385e+003;4.995086e-002
3.554314e+003;4.955010e-002
3.556242e+003;4.983048e-002
3.558171e+003;4.891509e-002
3.560100e+003;4.775394e-002
3.562028e+003;4.631166e-002
3.563957e+003;4.495253e-002
3.565885e+003;4.388163e-002
3.567814e+003;4.302251e-002
3.569742e+003;4.275476e-002
3.571671e+003;4.178841e-002
3.573599e+003;4.020908e-002
3.575528e+003;3.978387e-002
3.577457e+003;3.895665e-002
3.579385e+003;3.743022e-002
3.581314e+003;3.669133e-002
3.583242e+003;3.620958e-002
3.585171e+003;3.467284e-002
3.587099e+003;3.291506e-002
3.589028e+003;3.271420e-002
3.590956e+003;3.289190e-002
3.592885e+003;3.245322e-002
3.594813e+003;3.081005e-002
3.596742e+003;2.958462e-002
3.598671e+003;2.934764e-002
3.600599e+003;2.864597e-002
3.602528e+003;2.751172e-002
3.604456e+003;2.625791e-002
3.606385e+003;2.496170e-002
3.608313e+003;2.364822e-002
3.610242e+003;2.260957e-002
3.612170e+003;2.138750e-002
3.614099e+003;2.146899e-002
3.616028e+003;2.108354e-002
3.617956e+003;1.879540e-002
3.619885e+003;1.791705e-002
3.621813e+003;1.836866e-002
3.623742e+003;1.811091e-002
3.625670e+003;1.705842e-002
3.627599e+003;1.393004e-002
3.629527e+003;1.297666e-002
3.631456e+003;1.438081e-002
3.633385e+003;1.419727e-002
3.635313e+003;1.369065e-002
3.637241e+003;1.372122e-002
3.639170e+003;1.294337e-002
3.641099e+003;1.073022e-002
3.643027e+003;9.274841e-003
3.644956e+003;8.147804e-003
3.646884e+003;5.455447e-003
3.648813e+003;3.251991e-003
3.650741e+003;4.235066e-003
3.652670e+003;5.962794e-003
3.654598e+003;4.963136e-003
3.656527e+003;4.793752e-003
3.658456e+003;5.296201e-003
3.660384e+003;4.287734e-003
3.662313e+003;3.267949e-003
3.664241e+003;2.231203e-003
3.666170e+003;8.038131e-004
3.668098e+003;-1.305076e-003
3.670027e+003;-2.595636e-003
3.671955e+003;-2.115616e-003
3.673884e+003;-4.061801e-003
3.675813e+003;-4.989118e-003
3.677741e+003;-2.799893e-003
3.679669e+003;-1.888471e-003
3.681598e+003;-1.331205e-003
3.683527e+003;-1.580662e-003
3.685455e+003;-3.341634e-003
3.687384e+003;-6.093214e-003
3.689312e+003;-6.187496e-003
3.691241e+003;-5.116551e-003
3.693169e+003;-4.496883e-003
3.695098e+003;-3.878464e-003
3.697026e+003;-3.556715e-003
3.698955e+003;-3.927885e-003
3.700884e+003;-5.047714e-003
3.702812e+003;-5.120317e-003
3.704741e+003;-5.008378e-003
3.706669e+003;-5.463160e-003
3.708598e+003;-6.700692e-003
3.710526e+003;-7.885318e-003
3.712455e+003;-7.627086e-003
3.714383e+003;-6.261967e-003
3.716312e+003;-5.858792e-003
3.718240e+003;-6.240117e-003
3.720169e+003;-6.342106e-003
3.722098e+003;-5.977996e-003
3.724026e+003;-5.907726e-003
3.725955e+003;-5.853823e-003
3.727883e+003;-5.881674e-003
3.729812e+003;-7.541549e-003
3.731740e+003;-1.001593e-002
3.733669e+003;-1.086931e-002
3.735597e+003;-1.067919e-002
3.737526e+003;-9.652137e-003
3.739455e+003;-9.017298e-003
3.741383e+003;-9.683991e-003
3.743312e+003;-1.309106e-002
3.745240e+003;-1.207438e-002
3.747169e+003;-1.015977e-002
3.749097e+003;-1.246687e-002
3.751026e+003;-1.339670e-002
3.752954e+003;-1.089697e-002
3.754883e+003;-7.954422e-003
3.756812e+003;-8.286942e-003
3.758740e+003;-8.487307e-003
3.760668e+003;-7.898853e-003
3.762597e+003;-7.651438e-003
3.764526e+003;-8.550533e-003
3.766454e+003;-8.900905e-003
3.768383e+003;-8.979099e-003
3.770311e+003;-8.683389e-003
3.772240e+003;-7.421047e-003
3.774168e+003;-7.441861e-003
3.776097e+003;-8.465925e-003
3.778025e+003;-9.077786e-003
3.779954e+003;-9.012365e-003
3.781883e+003;-8.379352e-003
3.783811e+003;-8.623820e-003
3.785740e+003;-8.352960e-003
3.787668e+003;-7.963207e-003
3.789597e+003;-7.973877e-003
3.791525e+003;-8.343047e-003
3.793454e+003;-8.481978e-003
3.795382e+003;-8.958067e-003
3.797311e+003;-9.014864e-003
3.799240e+003;-1.080477e-002
3.801168e+003;-1.260226e-002
3.803097e+003;-1.029805e-002
3.805025e+003;-9.853330e-003
3.806954e+003;-1.097254e-002
3.808882e+003;-9.782258e-003
3.810811e+003;-8.671534e-003
3.812739e+003;-9.002467e-003
3.814668e+003;-1.198994e-002
3.816596e+003;-1.219653e-002
3.818525e+003;-1.083567e-002
3.820454e+003;-1.181620e-002
3.822382e+003;-1.028116e-002
3.824311e+003;-9.113868e-003
3.826239e+003;-1.006301e-002
3.828168e+003;-9.557534e-003
3.830096e+003;-8.927783e-003
3.832025e+003;-9.375141e-003
3.833953e+003;-9.639985e-003
3.835882e+003;-1.045874e-002
3.837811e+003;-1.107388e-002
3.839739e+003;-9.875323e-003
3.841667e+003;-9.593706e-003
3.843596e+003;-9.242172e-003
3.845525e+003;-8.278132e-003
3.847453e+003;-8.168630e-003
3.849382e+003;-9.610104e-003
3.851310e+003;-1.374046e-002
3.853239e+003;-1.598587e-002
3.855167e+003;-1.172652e-002
3.857096e+003;-8.630835e-003
3.859024e+003;-8.575808e-003
3.860953e+003;-9.463495e-003
3.862882e+003;-1.046935e-002
3.864810e+003;-9.934234e-003
3.866739e+003;-8.936514e-003
3.868667e+003;-1.048336e-002
3.870596e+003;-1.027288e-002
3.872524e+003;-9.288230e-003
3.874453e+003;-8.744833e-003
3.876381e+003;-8.006407e-003
3.878310e+003;-8.540429e-003
3.880239e+003;-8.050384e-003
3.882167e+003;-6.767474e-003
3.884096e+003;-8.272054e-003
3.886024e+003;-9.312424e-003
3.887953e+003;-8.250402e-003
3.889881e+003;-8.487728e-003
3.891810e+003;-8.202869e-003
3.893738e+003;-7.307452e-003
3.895667e+003;-7.010535e-003
3.897595e+003;-7.914764e-003
3.899524e+003;-8.779351e-003
3.901453e+003;-9.410744e-003
3.903381e+003;-9.714773e-003
3.905310e+003;-7.911608e-003
3.907238e+003;-5.915309e-003
3.909167e+003;-5.619271e-003
3.911095e+003;-6.386317e-003
3.913024e+003;-6.465520e-003
3.914952e+003;-6.728228e-003
3.916881e+003;-7.359220e-003
3.918810e+003;-7.279431e-003
3.920738e+003;-5.963518e-003
3.922667e+003;-5.679908e-003
3.924595e+003;-6.953150e-003
3.926524e+003;-6.967920e-003
3.928452e+003;-6.200758e-003
3.930381e+003;-6.197819e-003
3.932309e+003;-6.716059e-003
3.934238e+003;-6.880004e-003
3.936167e+003;-6.803421e-003
3.938095e+003;-6.848205e-003
3.940023e+003;-7.291715e-003
3.941952e+003;-7.128023e-003
3.943881e+003;-6.343903e-003
3.945809e+003;-5.917401e-003
3.947738e+003;-5.663719e-003
3.949666e+003;-4.953085e-003
3.951595e+003;-4.440443e-003
3.953523e+003;-4.875802e-003
3.955452e+003;-5.618453e-003
3.957380e+003;-5.735663e-003
3.959309e+003;-5.868533e-003
3.961238e+003;-5.599580e-003
3.963166e+003;-4.579021e-003
3.965095e+003;-4.685105e-003
3.967023e+003;-5.097165e-003
3.968952e+003;-5.230361e-003
3.970880e+003;-5.421375e-003
3.972809e+003;-5.127292e-003
3.974737e+003;-4.614331e-003
3.976666e+003;-4.477798e-003
3.978594e+003;-4.810367e-003
3.980523e+003;-5.199980e-003
3.982452e+003;-4.986498e-003
3.984380e+003;-5.129289e-003
3.986309e+003;-5.286273e-003
3.988237e+003;-4.408137e-003
3.990166e+003;-3.581264e-003
3.992094e+003;-3.770442e-003
3.994023e+003;-4.735188e-003
3.995951e+003;-5.357789e-003
3.997880e+003;-4.927402e-003
3.999809e+003;-4.596430e-003
4.001737e+003;0.000000e+000
