3.992094e+002;0.000000e+000
4.011380e+002;0.000000e+000
4.030665e+002;0.000000e+000
4.049951e+002;0.000000e+000
4.069236e+002;0.000000e+000
4.088522e+002;0.000000e+000
4.107807e+002;0.000000e+000
4.127093e+002;0.000000e+000
4.146378e+002;0.000000e+000
4.165664e+002;0.000000e+000
4.184949e+002;0.000000e+000
4.204235e+002;0.000000e+000
4.223520e+002;0.000000e+000
4.242806e+002;0.000000e+000
4.262091e+002;0.000000e+000
4.281377e+002;0.000000e+000
4.300662e+002;0.000000e+000
4.319948e+002;0.000000e+000
4.339233e+002;0.000000e+000
4.358519e+002;0.000000e+000
4.377804e+002;0.000000e+000
4.397090e+002;0.000000e+000
4.416375e+002;0.000000e+000
4.435660e+002;0.000000e+000
4.454946e+002;0.000000e+000
4.474232e+002;0.000000e+000
4.493517e+002;0.000000e+000
4.512802e+002;0.000000e+000
4.532088e+002;0.000000e+000
4.551373e+002;0.000000e+000
4.570659e+002;0.000000e+000
4.589944e+002;0.000000e+000
4.609230e+002;0.000000e+000
4.628515e+002;0.000000e+000
4.647801e+002;0.000000e+000
4.667086e+002;0.000000e+000
4.686372e+002;0.000000e+000
4.705657e+002;0.000000e+000
4.724943e+002;0.000000e+000
4.744228e+002;0.000000e+000
4.763513e+002;0.000000e+000
4.782799e+002;0.000000e+000
4.802085e+002;0.000000e+000
4.821370e+002;0.000000e+000
4.840656e+002;0.000000e+000
4.859941e+002;0.000000e+000
4.879226e+002;0.000000e+000
4.898512e+002;0.000000e+000
4.917798e+002;0.000000e+000
4.937083e+002;0.000000e+000
4.956368e+002;0.000000e+000
4.975654e+002;0.000000e+000
4.994939e+002;0.000000e+000
5.014225e+002;0.000000e+000
5.033510e+002;0.000000e+000
5.052796e+002;0.000000e+000
5.072081e+002;0.000000e+000
5.091367e+002;0.000000e+000
5.110652e+002;0.000000e+000
5.129938e+002;0.000000e+000
5.149223e+002;0.000000e+000
5.168509e+002;0.000000e+000
5.187794e+002;0.000000e+000
5.207079e+002;0.000000e+000
5.226365e+002;0.000000e+000
5.245651e+002;0.000000e+000
5.264936e+002;0.000000e+000
5.284222e+002;0.000000e+000
5.303507e+002;0.000000e+000
5.322792e+002;0.000000e+000
5.342078e+002;0.000000e+000
5.361364e+002;0.000000e+000
5.380649e+002;0.000000e+000
5.399935e+002;0.000000e+000
5.419220e+002;0.000000e+000
5.438505e+002;0.000000e+000
5.457791e+002;0.000000e+000
5.477076e+002;0.000000e+000
5.496362e+002;0.000000e+000
5.515648e+002;0.000000e+000
5.534933e+002;0.000000e+000
5.554218e+002;0.000000e+000
5.573504e+002;0.000000e+000
5.592789e+002;0.000000e+000
5.612075e+002;0.000000e+000
5.631360e+002;0.000000e+000
5.650646e+002;0.000000e+000
5.669931e+002;0.000000e+000
5.689217e+002;0.000000e+000
5.708502e+002;0.000000e+000
5.727787e+002;0.000000e+000
5.747073e+002;0.000000e+000
5.766359e+002;0.000000e+000
5.785644e+002;0.000000e+000
5.804930e+002;0.000000e+000
5.824215e+002;0.000000e+000
5.843500e+002;0.000000e+000
5.862786e+002;0.000000e+000
5.882072e+002;0.000000e+000
5.901357e+002;0.000000e+000
5.920643e+002;0.000000e+000
5.939928e+002;0.000000e+000
5.959213e+002;0.000000e+000
5.978499e+002;0.000000e+000
5.997784e+002;2.814088e-001
6.017070e+002;2.825313e-001
6.036355e+002;2.830899e-001
6.055641e+002;2.801341e-001
6.074926e+002;2.712786e-001
6.094211e+002;2.634841e-001
6.113497e+002;2.645408e-001
6.132783e+002;2.728895e-001
6.152068e+002;2.813900e-001
6.171354e+002;2.765254e-001
6.190639e+002;2.661712e-001
6.209924e+002;2.643348e-001
6.229210e+002;2.647735e-001
6.248495e+002;2.620946e-001
6.267781e+002;2.580661e-001
6.287067e+002;2.525294e-001
6.306352e+002;2.482724e-001
6.325637e+002;2.454631e-001
6.344923e+002;2.451164e-001
6.364208e+002;2.416252e-001
6.383494e+002;2.384873e-001
6.402780e+002;2.389592e-001
6.422065e+002;2.370824e-001
6.441350e+002;2.366304e-001
6.460636e+002;2.384855e-001
6.479921e+002;2.375132e-001
6.499207e+002;2.350305e-001
6.518492e+002;2.352019e-001
6.537778e+002;2.391212e-001
6.557063e+002;2.428560e-001
6.576349e+002;2.453654e-001
6.595634e+002;2.499334e-001
6.614919e+002;2.531742e-001
6.634205e+002;2.540365e-001
6.653491e+002;2.539491e-001
6.672776e+002;2.505919e-001
6.692062e+002;2.446953e-001
6.711347e+002;2.402236e-001
6.730632e+002;2.354180e-001
6.749918e+002;2.274261e-001
6.769203e+002;2.209751e-001
6.788489e+002;2.163679e-001
6.807775e+002;2.124083e-001
6.827060e+002;2.081920e-001
6.846345e+002;2.047223e-001
6.865631e+002;2.036318e-001
6.884916e+002;2.033023e-001
6.904202e+002;2.010516e-001
6.923488e+002;1.991765e-001
6.942773e+002;1.987652e-001
6.962058e+002;1.983932e-001
6.981344e+002;1.988043e-001
7.000629e+002;1.990551e-001
7.019915e+002;1.973924e-001
7.039200e+002;1.958813e-001
7.058486e+002;1.942972e-001
7.077771e+002;1.917620e-001
7.097057e+002;1.896753e-001
7.116342e+002;1.886052e-001
7.135627e+002;1.867211e-001
7.154913e+002;1.852863e-001
7.174199e+002;1.836218e-001
7.193484e+002;1.803393e-001
7.212770e+002;1.763345e-001
7.232055e+002;1.729878e-001
7.251340e+002;1.696861e-001
7.270626e+002;1.658080e-001
7.289911e+002;1.622467e-001
7.309197e+002;1.595349e-001
7.328483e+002;1.570444e-001
7.347768e+002;1.557027e-001
7.367053e+002;1.540985e-001
7.386339e+002;1.516239e-001
7.405624e+002;1.497129e-001
7.424910e+002;1.488464e-001
7.444196e+002;1.472628e-001
7.463481e+002;1.452755e-001
7.482766e+002;1.434853e-001
7.502052e+002;1.427357e-001
7.521337e+002;1.423628e-001
7.540623e+002;1.409218e-001
7.559908e+002;1.380265e-001
7.579194e+002;1.360623e-001
7.598479e+002;1.355889e-001
7.617765e+002;1.348942e-001
7.637050e+002;1.338973e-001
7.656335e+002;1.329362e-001
7.675621e+002;1.314836e-001
7.694907e+002;1.302320e-001
7.714192e+002;1.290716e-001
7.733478e+002;1.279415e-001
7.752763e+002;1.273370e-001
7.772048e+002;1.265344e-001
7.791334e+002;1.253676e-001
7.810620e+002;1.252832e-001
7.829905e+002;1.253639e-001
7.849191e+002;1.248660e-001
7.868476e+002;1.240237e-001
7.887761e+002;1.232208e-001
7.907047e+002;1.223114e-001
7.926332e+002;1.211983e-001
7.945618e+002;1.205047e-001
7.964903e+002;1.208381e-001
7.984189e+002;1.207693e-001
8.003474e+002;1.198951e-001
8.022759e+002;1.198383e-001
8.042045e+002;1.204820e-001
8.061331e+002;1.206283e-001
8.080616e+002;1.199178e-001
8.099902e+002;1.191468e-001
8.119187e+002;1.191151e-001
8.138472e+002;1.184365e-001
8.157758e+002;1.179266e-001
8.177043e+002;1.182385e-001
8.196329e+002;1.172222e-001
8.215615e+002;1.155789e-001
8.234900e+002;1.148560e-001
8.254185e+002;1.147861e-001
8.273471e+002;1.147742e-001
8.292756e+002;1.143601e-001
8.312042e+002;1.138368e-001
8.331328e+002;1.132612e-001
8.350613e+002;1.122745e-001
8.369898e+002;1.115843e-001
8.389184e+002;1.115137e-001
8.408469e+002;1.112419e-001
8.427755e+002;1.111197e-001
8.447040e+002;1.115054e-001
8.466326e+002;1.114052e-001
8.485611e+002;1.109874e-001
8.504897e+002;1.110762e-001
8.524182e+002;1.118144e-001
8.543467e+002;1.120858e-001
8.562753e+002;1.123578e-001
8.582039e+002;1.135168e-001
8.601324e+002;1.153077e-001
8.620610e+002;1.164683e-001
8.639895e+002;1.175050e-001
8.659180e+002;1.193185e-001
8.678466e+002;1.218035e-001
8.697751e+002;1.243116e-001
8.717037e+002;1.258082e-001
8.736323e+002;1.274333e-001
8.755608e+002;1.293865e-001
8.774893e+002;1.310632e-001
8.794179e+002;1.329176e-001
8.813464e+002;1.354978e-001
8.832750e+002;1.380643e-001
8.852036e+002;1.407163e-001
8.871321e+002;1.436164e-001
8.890606e+002;1.466838e-001
8.909892e+002;1.495910e-001
8.929177e+002;1.519649e-001
8.948463e+002;1.534144e-001
8.967748e+002;1.541984e-001
8.987034e+002;1.542178e-001
9.006319e+002;1.535012e-001
9.025605e+002;1.517860e-001
9.044890e+002;1.493783e-001
9.064175e+002;1.470511e-001
9.083461e+002;1.446352e-001
9.102747e+002;1.419241e-001
9.122032e+002;1.398546e-001
9.141318e+002;1.383890e-001
9.160603e+002;1.373918e-001
9.179888e+002;1.371617e-001
9.199174e+002;1.372840e-001
9.218459e+002;1.370765e-001
9.237745e+002;1.376597e-001
9.257031e+002;1.391368e-001
9.276316e+002;1.406905e-001
9.295601e+002;1.420281e-001
9.314887e+002;1.435063e-001
9.334172e+002;1.456381e-001
9.353458e+002;1.479933e-001
9.372744e+002;1.498359e-001
9.392029e+002;1.515610e-001
9.411314e+002;1.537785e-001
9.430600e+002;1.558659e-001
9.449885e+002;1.581269e-001
9.469171e+002;1.612414e-001
9.488456e+002;1.646538e-001
9.507742e+002;1.680581e-001
9.527027e+002;1.724549e-001
9.546313e+002;1.775065e-001
9.565598e+002;1.823424e-001
9.584883e+002;1.872652e-001
9.604169e+002;1.928580e-001
9.623455e+002;1.987887e-001
9.642740e+002;2.046258e-001
9.662026e+002;2.111969e-001
9.681311e+002;2.189591e-001
9.700596e+002;2.282148e-001
9.719882e+002;2.383829e-001
9.739167e+002;2.495498e-001
9.758453e+002;2.625538e-001
9.777739e+002;2.777879e-001
9.797024e+002;2.946518e-001
9.816309e+002;3.100772e-001
9.835595e+002;3.209974e-001
9.854880e+002;3.270198e-001
9.874166e+002;3.299205e-001
9.893452e+002;3.322707e-001
9.912737e+002;3.367931e-001
9.932022e+002;3.434374e-001
9.951307e+002;3.508328e-001
9.970593e+002;3.590431e-001
9.989879e+002;3.667171e-001
1.000916e+003;3.719828e-001
1.002845e+003;3.750032e-001
1.004773e+003;3.761752e-001
1.006702e+003;3.764277e-001
1.008631e+003;3.776726e-001
1.010559e+003;3.810010e-001
1.012488e+003;3.862293e-001
1.014416e+003;3.919021e-001
1.016345e+003;3.979800e-001
1.018273e+003;4.038099e-001
1.020202e+003;4.090171e-001
1.022130e+003;4.144033e-001
1.024059e+003;4.204339e-001
1.025988e+003;4.264005e-001
1.027916e+003;4.310727e-001
1.029845e+003;4.334185e-001
1.031773e+003;4.333752e-001
1.033702e+003;4.302670e-001
1.035630e+003;4.241385e-001
1.037559e+003;4.159831e-001
1.039487e+003;4.080324e-001
1.041416e+003;4.022298e-001
1.043344e+003;3.992290e-001
1.045273e+003;4.002905e-001
1.047202e+003;4.032395e-001
1.049130e+003;4.064671e-001
1.051059e+003;4.102261e-001
1.052987e+003;4.127254e-001
1.054916e+003;4.119863e-001
1.056844e+003;4.077641e-001
1.058773e+003;3.993573e-001
1.060701e+003;3.858170e-001
1.062630e+003;3.692294e-001
1.064558e+003;3.531460e-001
1.066487e+003;3.380265e-001
1.068416e+003;3.247301e-001
1.070344e+003;3.133936e-001
1.072273e+003;3.039408e-001
1.074201e+003;2.967143e-001
1.076130e+003;2.902505e-001
1.078058e+003;2.833797e-001
1.079987e+003;2.765825e-001
1.081915e+003;2.712519e-001
1.083844e+003;2.687018e-001
1.085773e+003;2.677704e-001
1.087701e+003;2.669103e-001
1.089630e+003;2.663526e-001
1.091558e+003;2.664032e-001
1.093487e+003;2.674581e-001
1.095415e+003;2.693309e-001
1.097344e+003;2.714688e-001
1.099272e+003;2.730654e-001
1.101201e+003;2.743212e-001
1.103129e+003;2.741815e-001
1.105058e+003;2.715303e-001
1.106987e+003;2.682217e-001
1.108915e+003;2.638617e-001
1.110844e+003;2.579662e-001
1.112772e+003;2.497522e-001
1.114701e+003;2.388552e-001
1.116629e+003;2.273615e-001
1.118558e+003;2.177315e-001
1.120486e+003;2.096441e-001
1.122415e+003;2.023718e-001
1.124344e+003;1.955266e-001
1.126272e+003;1.886261e-001
1.128201e+003;1.813006e-001
1.130129e+003;1.744000e-001
1.132058e+003;1.690497e-001
1.133986e+003;1.648573e-001
1.135915e+003;1.612707e-001
1.137843e+003;1.583583e-001
1.139772e+003;1.573265e-001
1.141700e+003;1.587697e-001
1.143629e+003;1.606549e-001
1.145557e+003;1.622623e-001
1.147486e+003;1.642981e-001
1.149415e+003;1.663848e-001
1.151343e+003;1.684004e-001
1.153272e+003;1.705070e-001
1.155200e+003;1.720142e-001
1.157129e+003;1.729645e-001
1.159057e+003;1.738906e-001
1.160986e+003;1.738338e-001
1.162914e+003;1.711435e-001
1.164843e+003;1.656850e-001
1.166771e+003;1.583620e-001
1.168700e+003;1.506445e-001
1.170629e+003;1.426355e-001
1.172557e+003;1.347656e-001
1.174486e+003;1.276683e-001
1.176414e+003;1.219458e-001
1.178343e+003;1.178032e-001
1.180271e+003;1.138364e-001
1.182200e+003;1.108293e-001
1.184128e+003;1.099013e-001
1.186057e+003;1.095737e-001
1.187986e+003;1.095071e-001
1.189914e+003;1.108282e-001
1.191843e+003;1.133318e-001
1.193771e+003;1.159097e-001
1.195700e+003;1.184512e-001
1.197628e+003;1.207711e-001
1.199557e+003;1.226668e-001
1.201485e+003;1.234317e-001
1.203414e+003;1.230165e-001
1.205343e+003;1.220029e-001
1.207271e+003;1.196963e-001
1.209200e+003;1.157898e-001
1.211128e+003;1.118942e-001
1.213057e+003;1.092617e-001
1.214985e+003;1.078931e-001
1.216914e+003;1.076906e-001
1.218842e+003;1.084943e-001
1.220771e+003;1.099386e-001
1.222699e+003;1.115556e-001
1.224628e+003;1.131056e-001
1.226557e+003;1.149110e-001
1.228485e+003;1.170127e-001
1.230414e+003;1.190393e-001
1.232342e+003;1.207915e-001
1.234271e+003;1.216912e-001
1.236199e+003;1.218001e-001
1.238128e+003;1.220795e-001
1.240056e+003;1.228465e-001
1.241985e+003;1.235850e-001
1.243913e+003;1.244849e-001
1.245842e+003;1.253985e-001
1.247771e+003;1.258428e-001
1.249699e+003;1.257217e-001
1.251628e+003;1.253391e-001
1.253556e+003;1.250409e-001
1.255485e+003;1.251305e-001
1.257413e+003;1.255945e-001
1.259342e+003;1.260715e-001
1.261270e+003;1.263327e-001
1.263199e+003;1.267511e-001
1.265127e+003;1.271364e-001
1.267056e+003;1.273601e-001
1.268985e+003;1.277233e-001
1.270913e+003;1.280779e-001
1.272842e+003;1.285329e-001
1.274770e+003;1.289660e-001
1.276699e+003;1.290962e-001
1.278627e+003;1.293153e-001
1.280556e+003;1.290885e-001
1.282484e+003;1.282339e-001
1.284413e+003;1.272916e-001
1.286342e+003;1.265957e-001
1.288270e+003;1.266656e-001
1.290199e+003;1.275151e-001
1.292127e+003;1.287572e-001
1.294056e+003;1.298294e-001
1.295984e+003;1.310510e-001
1.297913e+003;1.326087e-001
1.299841e+003;1.349522e-001
1.301770e+003;1.382366e-001
1.303698e+003;1.420547e-001
1.305627e+003;1.464946e-001
1.307556e+003;1.510004e-001
1.309484e+003;1.552246e-001
1.311413e+003;1.588467e-001
1.313341e+003;1.608817e-001
1.315270e+003;1.613331e-001
1.317198e+003;1.596437e-001
1.319127e+003;1.565322e-001
1.321055e+003;1.531098e-001
1.322984e+003;1.499210e-001
1.324912e+003;1.475667e-001
1.326841e+003;1.462870e-001
1.328770e+003;1.461955e-001
1.330698e+003;1.474212e-001
1.332627e+003;1.488772e-001
1.334555e+003;1.490479e-001
1.336484e+003;1.479897e-001
1.338412e+003;1.462781e-001
1.340341e+003;1.441042e-001
1.342269e+003;1.418569e-001
1.344198e+003;1.393549e-001
1.346126e+003;1.369368e-001
1.348055e+003;1.353467e-001
1.349984e+003;1.347099e-001
1.351912e+003;1.351746e-001
1.353841e+003;1.364140e-001
1.355769e+003;1.376167e-001
1.357698e+003;1.389316e-001
1.359626e+003;1.399284e-001
1.361555e+003;1.399751e-001
1.363483e+003;1.395168e-001
1.365412e+003;1.390072e-001
1.367341e+003;1.385565e-001
1.369269e+003;1.381485e-001
1.371198e+003;1.368763e-001
1.373126e+003;1.343351e-001
1.375055e+003;1.315614e-001
1.376983e+003;1.288722e-001
1.378912e+003;1.260485e-001
1.380840e+003;1.231327e-001
1.382769e+003;1.203481e-001
1.384698e+003;1.176837e-001
1.386626e+003;1.151548e-001
1.388555e+003;1.143185e-001
1.390483e+003;1.140078e-001
1.392412e+003;1.128679e-001
1.394340e+003;1.118918e-001
1.396269e+003;1.121634e-001
1.398197e+003;1.126662e-001
1.400126e+003;1.136649e-001
1.402054e+003;1.145803e-001
1.403983e+003;1.147384e-001
1.405911e+003;1.154609e-001
1.407840e+003;1.167387e-001
1.409769e+003;1.175551e-001
1.411697e+003;1.181509e-001
1.413626e+003;1.192424e-001
1.415554e+003;1.201463e-001
1.417483e+003;1.202510e-001
1.419411e+003;1.212248e-001
1.421340e+003;1.239210e-001
1.423268e+003;1.257869e-001
1.425197e+003;1.269903e-001
1.427125e+003;1.275515e-001
1.429054e+003;1.269472e-001
1.430983e+003;1.260598e-001
1.432911e+003;1.249208e-001
1.434840e+003;1.219724e-001
1.436768e+003;1.189467e-001
1.438697e+003;1.186384e-001
1.440625e+003;1.181190e-001
1.442554e+003;1.168528e-001
1.444482e+003;1.159567e-001
1.446411e+003;1.151411e-001
1.448340e+003;1.146077e-001
1.450268e+003;1.147329e-001
1.452197e+003;1.142029e-001
1.454125e+003;1.118886e-001
1.456054e+003;1.074849e-001
1.457982e+003;1.067114e-001
1.459911e+003;1.089525e-001
1.461839e+003;1.094550e-001
1.463768e+003;1.073499e-001
1.465697e+003;1.052302e-001
1.467625e+003;1.041779e-001
1.469554e+003;1.024052e-001
1.471482e+003;9.924319e-002
1.473411e+003;9.648854e-002
1.475339e+003;9.474238e-002
1.477268e+003;9.315732e-002
1.479196e+003;9.150439e-002
1.481125e+003;8.890724e-002
1.483053e+003;8.644447e-002
1.484982e+003;8.365876e-002
1.486911e+003;8.052009e-002
1.488839e+003;7.783226e-002
1.490768e+003;7.636541e-002
1.492696e+003;7.570170e-002
1.494625e+003;7.380149e-002
1.496553e+003;7.219329e-002
1.498482e+003;7.277709e-002
1.500410e+003;7.402280e-002
1.502339e+003;7.424108e-002
1.504267e+003;7.114898e-002
1.506196e+003;6.779701e-002
1.508125e+003;6.973616e-002
1.510053e+003;7.281408e-002
1.511982e+003;7.368032e-002
1.513910e+003;7.375174e-002
1.515839e+003;7.268029e-002
1.517767e+003;7.201014e-002
1.519696e+003;7.068419e-002
1.521624e+003;6.969912e-002
1.523553e+003;7.150095e-002
1.525481e+003;7.256965e-002
1.527410e+003;7.372151e-002
1.529339e+003;7.539636e-002
1.531267e+003;7.633255e-002
1.533196e+003;7.676838e-002
1.535124e+003;7.885853e-002
1.537053e+003;7.874444e-002
1.538981e+003;7.585070e-002
1.540910e+003;7.631374e-002
1.542838e+003;7.859544e-002
1.544767e+003;7.926068e-002
1.546695e+003;7.921348e-002
1.548624e+003;7.804187e-002
1.550553e+003;7.691688e-002
1.552481e+003;7.586341e-002
1.554410e+003;7.444763e-002
1.556338e+003;7.230423e-002
1.558267e+003;6.859167e-002
1.560195e+003;7.041247e-002
1.562124e+003;7.514728e-002
1.564052e+003;7.666516e-002
1.565981e+003;7.739492e-002
1.567910e+003;7.760064e-002
1.569838e+003;7.823222e-002
1.571767e+003;8.058882e-002
1.573695e+003;8.063853e-002
1.575624e+003;7.872998e-002
1.577552e+003;8.028165e-002
1.579481e+003;8.184073e-002
1.581409e+003;8.083509e-002
1.583338e+003;7.952351e-002
1.585266e+003;7.862426e-002
1.587195e+003;7.809890e-002
1.589124e+003;7.761949e-002
1.591052e+003;7.741135e-002
1.592981e+003;7.751048e-002
1.594909e+003;7.762999e-002
1.596838e+003;7.758036e-002
1.598766e+003;7.795281e-002
1.600695e+003;7.841448e-002
1.602623e+003;7.870774e-002
1.604552e+003;7.915463e-002
1.606480e+003;7.960059e-002
1.608409e+003;7.983758e-002
1.610338e+003;8.018679e-002
1.612266e+003;8.060813e-002
1.614195e+003;8.000160e-002
1.616123e+003;7.839301e-002
1.618052e+003;7.995033e-002
1.619980e+003;8.228101e-002
1.621909e+003;8.230648e-002
1.623837e+003;8.278407e-002
1.625766e+003;8.422585e-002
1.627694e+003;8.490595e-002
1.629623e+003;8.582829e-002
1.631552e+003;8.627101e-002
1.633480e+003;8.448848e-002
1.635409e+003;8.291391e-002
1.637337e+003;8.526555e-002
1.639266e+003;8.740347e-002
1.641194e+003;8.763599e-002
1.643123e+003;8.689070e-002
1.645051e+003;8.474934e-002
1.646980e+003;8.415506e-002
1.648909e+003;8.544078e-002
1.650837e+003;8.251213e-002
1.652766e+003;7.795479e-002
1.654694e+003;8.120028e-002
1.656623e+003;8.484492e-002
1.658551e+003;8.458876e-002
1.660480e+003;8.339354e-002
1.662408e+003;8.221430e-002
1.664337e+003;8.197793e-002
1.666266e+003;8.123028e-002
1.668194e+003;7.880077e-002
1.670123e+003;7.754589e-002
1.672051e+003;7.761727e-002
1.673980e+003;7.604440e-002
1.675908e+003;7.497355e-002
1.677837e+003;7.534965e-002
1.679765e+003;7.436375e-002
1.681694e+003;7.182050e-002
1.683622e+003;6.734721e-002
1.685551e+003;6.723220e-002
1.687479e+003;6.937589e-002
1.689408e+003;6.892488e-002
1.691337e+003;6.808380e-002
1.693265e+003;6.581297e-002
1.695194e+003;6.183495e-002
1.697122e+003;6.112021e-002
1.699051e+003;5.917631e-002
1.700979e+003;5.827150e-002
1.702908e+003;6.038410e-002
1.704836e+003;6.000274e-002
1.706765e+003;6.003991e-002
1.708693e+003;5.998307e-002
1.710622e+003;5.952210e-002
1.712551e+003;5.820042e-002
1.714479e+003;5.599691e-002
1.716408e+003;5.346265e-002
1.718336e+003;5.347011e-002
1.720265e+003;5.576990e-002
1.722193e+003;5.652660e-002
1.724122e+003;5.602985e-002
1.726050e+003;5.553047e-002
1.727979e+003;5.496348e-002
1.729908e+003;5.433684e-002
1.731836e+003;5.202059e-002
1.733765e+003;4.941810e-002
1.735693e+003;5.114635e-002
1.737622e+003;5.192991e-002
1.739550e+003;5.021074e-002
1.741479e+003;4.909469e-002
1.743407e+003;4.777358e-002
1.745336e+003;4.646618e-002
1.747265e+003;4.497854e-002
1.749193e+003;4.361668e-002
1.751122e+003;4.351632e-002
1.753050e+003;4.532163e-002
1.754979e+003;4.589310e-002
1.756907e+003;4.584523e-002
1.758836e+003;4.629393e-002
1.760764e+003;4.584652e-002
1.762693e+003;4.613093e-002
1.764621e+003;4.674394e-002
1.766550e+003;4.583485e-002
1.768479e+003;4.517752e-002
1.770407e+003;4.437744e-002
1.772336e+003;4.345124e-002
1.774264e+003;4.476288e-002
1.776193e+003;4.562059e-002
1.778121e+003;4.530309e-002
1.780050e+003;4.505837e-002
1.781978e+003;4.506473e-002
1.783907e+003;4.458690e-002
1.785835e+003;4.445430e-002
1.787764e+003;4.454835e-002
1.789693e+003;4.346091e-002
1.791621e+003;4.211375e-002
1.793550e+003;4.259505e-002
1.795478e+003;4.362126e-002
1.797407e+003;4.346937e-002
1.799335e+003;4.284497e-002
1.801264e+003;4.258065e-002
1.803192e+003;4.280207e-002
1.805121e+003;4.286490e-002
1.807049e+003;4.275878e-002
1.808978e+003;4.243120e-002
1.810907e+003;4.229761e-002
1.812835e+003;4.237147e-002
1.814764e+003;4.214811e-002
1.816692e+003;4.165356e-002
1.818621e+003;4.171260e-002
1.820549e+003;4.192366e-002
1.822478e+003;4.163182e-002
1.824406e+003;4.091175e-002
1.826335e+003;4.098887e-002
1.828264e+003;4.059196e-002
1.830192e+003;4.009885e-002
1.832121e+003;4.054754e-002
1.834049e+003;4.086420e-002
1.835978e+003;4.086504e-002
1.837906e+003;4.083148e-002
1.839835e+003;4.077532e-002
1.841763e+003;4.008148e-002
1.843692e+003;3.884174e-002
1.845620e+003;3.933654e-002
1.847549e+003;4.008006e-002
1.849478e+003;4.008257e-002
1.851406e+003;4.014529e-002
1.853335e+003;4.019025e-002
1.855263e+003;3.990226e-002
1.857192e+003;3.968333e-002
1.859120e+003;3.957835e-002
1.861049e+003;3.957599e-002
1.862977e+003;3.958361e-002
1.864906e+003;3.933952e-002
1.866834e+003;3.872479e-002
1.868763e+003;3.821075e-002
1.870692e+003;3.863428e-002
1.872620e+003;3.917308e-002
1.874549e+003;3.919640e-002
1.876477e+003;3.902121e-002
1.878406e+003;3.881536e-002
1.880334e+003;3.884641e-002
1.882263e+003;3.891280e-002
1.884191e+003;3.876518e-002
1.886120e+003;3.875080e-002
1.888048e+003;3.868513e-002
1.889977e+003;3.852097e-002
1.891906e+003;3.894016e-002
1.893834e+003;3.884094e-002
1.895763e+003;3.867318e-002
1.897691e+003;3.886497e-002
1.899620e+003;3.883366e-002
1.901548e+003;3.866763e-002
1.903477e+003;3.867332e-002
1.905405e+003;3.846474e-002
1.907334e+003;3.819939e-002
1.909262e+003;3.822034e-002
1.911191e+003;3.844281e-002
1.913120e+003;3.857623e-002
1.915048e+003;3.840823e-002
1.916977e+003;3.815489e-002
1.918905e+003;3.839177e-002
1.920834e+003;3.867644e-002
1.922762e+003;3.865543e-002
1.924691e+003;3.881073e-002
1.926619e+003;3.884511e-002
1.928548e+003;3.871697e-002
1.930477e+003;3.894350e-002
1.932405e+003;3.917566e-002
1.934334e+003;3.933328e-002
1.936262e+003;3.945014e-002
1.938191e+003;3.965952e-002
1.940119e+003;3.960666e-002
1.942048e+003;3.928199e-002
1.943976e+003;3.948769e-002
1.945905e+003;3.978565e-002
1.947833e+003;3.974029e-002
1.949762e+003;3.974549e-002
1.951691e+003;3.990477e-002
1.953619e+003;4.005888e-002
1.955548e+003;4.021962e-002
1.957476e+003;4.038333e-002
1.959405e+003;4.030410e-002
1.961333e+003;4.029534e-002
1.963262e+003;4.046810e-002
1.965190e+003;4.058690e-002
1.967119e+003;4.038431e-002
1.969047e+003;4.016136e-002
1.970976e+003;4.035690e-002
1.972905e+003;4.063452e-002
1.974833e+003;4.057246e-002
1.976762e+003;4.047326e-002
1.978690e+003;4.069776e-002
1.980619e+003;4.108075e-002
1.982547e+003;4.126992e-002
1.984476e+003;4.116809e-002
1.986404e+003;4.118904e-002
1.988333e+003;4.143465e-002
1.990261e+003;4.143429e-002
1.992190e+003;4.134670e-002
1.994119e+003;4.149247e-002
1.996047e+003;4.185678e-002
1.997976e+003;4.192811e-002
1.999904e+003;4.177622e-002
2.001833e+003;4.183857e-002
2.003761e+003;4.205783e-002
2.005690e+003;4.214117e-002
2.007618e+003;4.228384e-002
2.009547e+003;4.244702e-002
2.011476e+003;4.260634e-002
2.013404e+003;4.262579e-002
2.015333e+003;4.260283e-002
2.017261e+003;4.301106e-002
2.019190e+003;4.344670e-002
2.021118e+003;4.347878e-002
2.023047e+003;4.341799e-002
2.024975e+003;4.350698e-002
2.026904e+003;4.386070e-002
2.028833e+003;4.416259e-002
2.030761e+003;4.433499e-002
2.032690e+003;4.426178e-002
2.034618e+003;4.420503e-002
2.036547e+003;4.437935e-002
2.038475e+003;4.462802e-002
2.040404e+003;4.455833e-002
2.042332e+003;4.441943e-002
2.044261e+003;4.464157e-002
2.046189e+003;4.463834e-002
2.048118e+003;4.468590e-002
2.050047e+003;4.496572e-002
2.051975e+003;4.482022e-002
2.053904e+003;4.445643e-002
2.055832e+003;4.433389e-002
2.057761e+003;4.437414e-002
2.059689e+003;4.425562e-002
2.061618e+003;4.400958e-002
2.063546e+003;4.406481e-002
2.065475e+003;4.429495e-002
2.067404e+003;4.436346e-002
2.069332e+003;4.423676e-002
2.071260e+003;4.411685e-002
2.073189e+003;4.430849e-002
2.075118e+003;4.455000e-002
2.077046e+003;4.449633e-002
2.078975e+003;4.437040e-002
2.080903e+003;4.416043e-002
2.082832e+003;4.396687e-002
2.084760e+003;4.400606e-002
2.086689e+003;4.413944e-002
2.088617e+003;4.408201e-002
2.090546e+003;4.393937e-002
2.092475e+003;4.397427e-002
2.094403e+003;4.419450e-002
2.096332e+003;4.406308e-002
2.098260e+003;4.394824e-002
2.100189e+003;4.414887e-002
2.102117e+003;4.435425e-002
2.104046e+003;4.451791e-002
2.105974e+003;4.468234e-002
2.107903e+003;4.472369e-002
2.109832e+003;4.446322e-002
2.111760e+003;4.453707e-002
2.113688e+003;4.494514e-002
2.115617e+003;4.491758e-002
2.117546e+003;4.466118e-002
2.119474e+003;4.463133e-002
2.121403e+003;4.484858e-002
2.123331e+003;4.505624e-002
2.125260e+003;4.504856e-002
2.127188e+003;4.482639e-002
2.129117e+003;4.486232e-002
2.131045e+003;4.529309e-002
2.132974e+003;4.553235e-002
2.134903e+003;4.533343e-002
2.136831e+003;4.509833e-002
2.138760e+003;4.509715e-002
2.140688e+003;4.515432e-002
2.142617e+003;4.495918e-002
2.144545e+003;4.463790e-002
2.146474e+003;4.448348e-002
2.148402e+003;4.458826e-002
2.150331e+003;4.473827e-002
2.152260e+003;4.477985e-002
2.154188e+003;4.473206e-002
2.156117e+003;4.461491e-002
2.158045e+003;4.428384e-002
2.159974e+003;4.407695e-002
2.161902e+003;4.415133e-002
2.163831e+003;4.393992e-002
2.165759e+003;4.367189e-002
2.167688e+003;4.343721e-002
2.169616e+003;4.307322e-002
2.171545e+003;4.305006e-002
2.173474e+003;4.293527e-002
2.175402e+003;4.266329e-002
2.177331e+003;4.277476e-002
2.179259e+003;4.276328e-002
2.181188e+003;4.245732e-002
2.183116e+003;4.208707e-002
2.185045e+003;4.194844e-002
2.186973e+003;4.199497e-002
2.188902e+003;4.197581e-002
2.190831e+003;4.190571e-002
2.192759e+003;4.161760e-002
2.194688e+003;4.128749e-002
2.196616e+003;4.109481e-002
2.198545e+003;4.091874e-002
2.200473e+003;4.091889e-002
2.202402e+003;4.110475e-002
2.204330e+003;4.107109e-002
2.206259e+003;4.084913e-002
2.208188e+003;4.061022e-002
2.210116e+003;4.066473e-002
2.212044e+003;4.100635e-002
2.213973e+003;4.112482e-002
2.215902e+003;4.110821e-002
2.217830e+003;4.107812e-002
2.219759e+003;4.093170e-002
2.221687e+003;4.099320e-002
2.223616e+003;4.088976e-002
2.225544e+003;4.080105e-002
2.227473e+003;4.105722e-002
2.229401e+003;4.122879e-002
2.231330e+003;4.117968e-002
2.233259e+003;4.130272e-002
2.235187e+003;4.142069e-002
2.237116e+003;4.112511e-002
2.239044e+003;4.094408e-002
2.240973e+003;4.080160e-002
2.242901e+003;4.070628e-002
2.244830e+003;4.077885e-002
2.246758e+003;4.085252e-002
2.248687e+003;4.078402e-002
2.250615e+003;4.072702e-002
2.252544e+003;4.055933e-002
2.254473e+003;4.050738e-002
2.256401e+003;4.048479e-002
2.258330e+003;4.022456e-002
2.260258e+003;4.007799e-002
2.262187e+003;4.003882e-002
2.264115e+003;3.996608e-002
2.266044e+003;3.996877e-002
2.267972e+003;3.990917e-002
2.269901e+003;3.973383e-002
2.271830e+003;3.953404e-002
2.273758e+003;3.952863e-002
2.275687e+003;3.968583e-002
2.277615e+003;3.968322e-002
2.279544e+003;3.947684e-002
2.281472e+003;3.908476e-002
2.283401e+003;3.892552e-002
2.285329e+003;3.901106e-002
2.287258e+003;3.883351e-002
2.289187e+003;3.856120e-002
2.291115e+003;3.889127e-002
2.293043e+003;3.917914e-002
2.294972e+003;3.905506e-002
2.296901e+003;3.900218e-002
2.298829e+003;3.881877e-002
2.300758e+003;3.863710e-002
2.302686e+003;3.860798e-002
2.304615e+003;3.873711e-002
2.306543e+003;3.868600e-002
2.308472e+003;3.852608e-002
2.310400e+003;3.839662e-002
2.312329e+003;3.838637e-002
2.314258e+003;3.857945e-002
2.316186e+003;3.867010e-002
2.318115e+003;3.855149e-002
2.320043e+003;3.862457e-002
2.321972e+003;3.898975e-002
2.323900e+003;3.901399e-002
2.325829e+003;3.877602e-002
2.327757e+003;3.882225e-002
2.329686e+003;3.892904e-002
2.331615e+003;3.905833e-002
2.333543e+003;3.905952e-002
2.335472e+003;3.904078e-002
2.337400e+003;3.919988e-002
2.339329e+003;3.948914e-002
2.341257e+003;3.954605e-002
2.343186e+003;3.955342e-002
2.345114e+003;3.963864e-002
2.347043e+003;3.966561e-002
2.348971e+003;3.987607e-002
2.350900e+003;4.024037e-002
2.352829e+003;4.052059e-002
2.354757e+003;4.058188e-002
2.356686e+003;4.067735e-002
2.358614e+003;4.067593e-002
2.360543e+003;4.044046e-002
2.362471e+003;4.066058e-002
2.364400e+003;4.099418e-002
2.366328e+003;4.119505e-002
2.368257e+003;4.112238e-002
2.370186e+003;4.109310e-002
2.372114e+003;4.100795e-002
2.374042e+003;4.091208e-002
2.375971e+003;4.097201e-002
2.377900e+003;4.130917e-002
2.379828e+003;4.176929e-002
2.381757e+003;4.183149e-002
2.383685e+003;4.145904e-002
2.385614e+003;4.145857e-002
2.387542e+003;4.198705e-002
2.389471e+003;4.216673e-002
2.391399e+003;4.216217e-002
2.393328e+003;4.241680e-002
2.395257e+003;4.261380e-002
2.397185e+003;4.285287e-002
2.399114e+003;4.267762e-002
2.401042e+003;4.235971e-002
2.402971e+003;4.241936e-002
2.404899e+003;4.268844e-002
2.406828e+003;4.293187e-002
2.408756e+003;4.310403e-002
2.410685e+003;4.319413e-002
2.412614e+003;4.329980e-002
2.414542e+003;4.343296e-002
2.416471e+003;4.355694e-002
2.418399e+003;4.358276e-002
2.420328e+003;4.380946e-002
2.422256e+003;4.401802e-002
2.424185e+003;4.417649e-002
2.426113e+003;4.436141e-002
2.428042e+003;4.458121e-002
2.429970e+003;4.506385e-002
2.431899e+003;4.540575e-002
2.433828e+003;4.539170e-002
2.435756e+003;4.531118e-002
2.437685e+003;4.559395e-002
2.439613e+003;4.582689e-002
2.441542e+003;4.592526e-002
2.443470e+003;4.594621e-002
2.445399e+003;4.612090e-002
2.447327e+003;4.625313e-002
2.449256e+003;4.619648e-002
2.451185e+003;4.606814e-002
2.453113e+003;4.638465e-002
2.455042e+003;4.704625e-002
2.456970e+003;4.720214e-002
2.458899e+003;4.711401e-002
2.460827e+003;4.729143e-002
2.462756e+003;4.728781e-002
2.464684e+003;4.709625e-002
2.466613e+003;4.734645e-002
2.468542e+003;4.777754e-002
2.470470e+003;4.782873e-002
2.472398e+003;4.787967e-002
2.474327e+003;4.806584e-002
2.476256e+003;4.823287e-002
2.478184e+003;4.833511e-002
2.480113e+003;4.846508e-002
2.482041e+003;4.872104e-002
2.483970e+003;4.868171e-002
2.485898e+003;4.868545e-002
2.487827e+003;4.907206e-002
2.489755e+003;4.965685e-002
2.491684e+003;4.979689e-002
2.493613e+003;4.947227e-002
2.495541e+003;4.946507e-002
2.497470e+003;4.974777e-002
2.499398e+003;4.990741e-002
2.501327e+003;5.001882e-002
2.503255e+003;5.012862e-002
2.505184e+003;5.034158e-002
2.507112e+003;5.046066e-002
2.509041e+003;5.075056e-002
2.510969e+003;5.135223e-002
2.512898e+003;5.129313e-002
2.514827e+003;5.116164e-002
2.516755e+003;5.131259e-002
2.518684e+003;5.132069e-002
2.520612e+003;5.175702e-002
2.522541e+003;5.224348e-002
2.524469e+003;5.215586e-002
2.526398e+003;5.190613e-002
2.528326e+003;5.206448e-002
2.530255e+003;5.196655e-002
2.532184e+003;5.183507e-002
2.534112e+003;5.220196e-002
2.536041e+003;5.234058e-002
2.537969e+003;5.219819e-002
2.539898e+003;5.241624e-002
2.541826e+003;5.272634e-002
2.543755e+003;5.285254e-002
2.545683e+003;5.294644e-002
2.547612e+003;5.289480e-002
2.549541e+003;5.259841e-002
2.551469e+003;5.235366e-002
2.553397e+003;5.251382e-002
2.555326e+003;5.269821e-002
2.557255e+003;5.267958e-002
2.559183e+003;5.276266e-002
2.561112e+003;5.289427e-002
2.563040e+003;5.313952e-002
2.564969e+003;5.318356e-002
2.566897e+003;5.295494e-002
2.568826e+003;5.300480e-002
2.570754e+003;5.304217e-002
2.572683e+003;5.285213e-002
2.574612e+003;5.290808e-002
2.576540e+003;5.291969e-002
2.578469e+003;5.277251e-002
2.580397e+003;5.296827e-002
2.582326e+003;5.339561e-002
2.584254e+003;5.348203e-002
2.586183e+003;5.340034e-002
2.588111e+003;5.373473e-002
2.590040e+003;5.398694e-002
2.591969e+003;5.383666e-002
2.593897e+003;5.400814e-002
2.595826e+003;5.426768e-002
2.597754e+003;5.437154e-002
2.599683e+003;5.449169e-002
2.601611e+003;5.454338e-002
2.603540e+003;5.479429e-002
2.605468e+003;5.473077e-002
2.607397e+003;5.453936e-002
2.609325e+003;5.474836e-002
2.611254e+003;5.513122e-002
2.613183e+003;5.540243e-002
2.615111e+003;5.556210e-002
2.617040e+003;5.565572e-002
2.618968e+003;5.585641e-002
2.620897e+003;5.624014e-002
2.622825e+003;5.653004e-002
2.624754e+003;5.638808e-002
2.626682e+003;5.644385e-002
2.628611e+003;5.665667e-002
2.630540e+003;5.696472e-002
2.632468e+003;5.713993e-002
2.634396e+003;5.715838e-002
2.636325e+003;5.729094e-002
2.638254e+003;5.756622e-002
2.640182e+003;5.775284e-002
2.642111e+003;5.838091e-002
2.644039e+003;5.849080e-002
2.645968e+003;5.855862e-002
2.647896e+003;5.859806e-002
2.649825e+003;5.835332e-002
2.651753e+003;5.848545e-002
2.653682e+003;5.882625e-002
2.655611e+003;5.907874e-002
2.657539e+003;5.909263e-002
2.659468e+003;5.941297e-002
2.661396e+003;5.977613e-002
2.663325e+003;5.966915e-002
2.665253e+003;5.992270e-002
2.667182e+003;6.034313e-002
2.669110e+003;6.060725e-002
2.671039e+003;6.069423e-002
2.672968e+003;6.058264e-002
2.674896e+003;6.055906e-002
2.676825e+003;6.069080e-002
2.678753e+003;6.102426e-002
2.680682e+003;6.146766e-002
2.682610e+003;6.175076e-002
2.684539e+003;6.160808e-002
2.686467e+003;6.172853e-002
2.688396e+003;6.203125e-002
2.690324e+003;6.219548e-002
2.692253e+003;6.239852e-002
2.694182e+003;6.251124e-002
2.696110e+003;6.257885e-002
2.698039e+003;6.281592e-002
2.699967e+003;6.322030e-002
2.701896e+003;6.364220e-002
2.703824e+003;6.389544e-002
2.705753e+003;6.378379e-002
2.707681e+003;6.389525e-002
2.709610e+003;6.439624e-002
2.711539e+003;6.464580e-002
2.713467e+003;6.447222e-002
2.715396e+003;6.442145e-002
2.717324e+003;6.490866e-002
2.719253e+003;6.518365e-002
2.721181e+003;6.498777e-002
2.723110e+003;6.519166e-002
2.725038e+003;6.544827e-002
2.726967e+003;6.554756e-002
2.728896e+003;6.572129e-002
2.730824e+003;6.565322e-002
2.732752e+003;6.554971e-002
2.734681e+003;6.568128e-002
2.736610e+003;6.604093e-002
2.738538e+003;6.620564e-002
2.740467e+003;6.625338e-002
2.742395e+003;6.628904e-002
2.744324e+003;6.620653e-002
2.746252e+003;6.612626e-002
2.748181e+003;6.641203e-002
2.750109e+003;6.644493e-002
2.752038e+003;6.671526e-002
2.753967e+003;6.700134e-002
2.755895e+003;6.686797e-002
2.757824e+003;6.685746e-002
2.759752e+003;6.699739e-002
2.761681e+003;6.715496e-002
2.763609e+003;6.740518e-002
2.765538e+003;6.785446e-002
2.767466e+003;6.837361e-002
2.769395e+003;6.850286e-002
2.771323e+003;6.853091e-002
2.773252e+003;6.879944e-002
2.775181e+003;6.891949e-002
2.777109e+003;6.884094e-002
2.779038e+003;6.933942e-002
2.780966e+003;6.981476e-002
2.782895e+003;6.962891e-002
2.784823e+003;6.963661e-002
2.786752e+003;6.985164e-002
2.788680e+003;7.021130e-002
2.790609e+003;7.059737e-002
2.792538e+003;7.083374e-002
2.794466e+003;7.135097e-002
2.796395e+003;7.184829e-002
2.798323e+003;7.198984e-002
2.800252e+003;7.231236e-002
2.802180e+003;7.265115e-002
2.804109e+003;7.309636e-002
2.806037e+003;7.335583e-002
2.807966e+003;7.382262e-002
2.809895e+003;7.501817e-002
2.811823e+003;7.565031e-002
2.813751e+003;7.561095e-002
2.815680e+003;7.600486e-002
2.817609e+003;7.685016e-002
2.819537e+003;7.777803e-002
2.821466e+003;7.830261e-002
2.823394e+003;7.875024e-002
2.825323e+003;7.937225e-002
2.827251e+003;7.977475e-002
2.829180e+003;8.040333e-002
2.831108e+003;8.140562e-002
2.833037e+003;8.259849e-002
2.834966e+003;8.395562e-002
2.836894e+003;8.532709e-002
2.838823e+003;8.708420e-002
2.840751e+003;8.939806e-002
2.842680e+003;9.249625e-002
2.844608e+003;9.639959e-002
2.846537e+003;1.010288e-001
2.848465e+003;1.048190e-001
2.850394e+003;1.049355e-001
2.852323e+003;1.023018e-001
2.854251e+003;9.983698e-002
2.856180e+003;9.834306e-002
2.858108e+003;9.769563e-002
2.860037e+003;9.791123e-002
2.861965e+003;9.885868e-002
2.863894e+003;9.967767e-002
2.865822e+003;1.007034e-001
2.867751e+003;1.017855e-001
2.869679e+003;1.026686e-001
2.871608e+003;1.033267e-001
2.873536e+003;1.035524e-001
2.875465e+003;1.034761e-001
2.877394e+003;1.037266e-001
2.879322e+003;1.044686e-001
2.881251e+003;1.055771e-001
2.883179e+003;1.064634e-001
2.885108e+003;1.072525e-001
2.887036e+003;1.080878e-001
2.888965e+003;1.092203e-001
2.890893e+003;1.099585e-001
2.892822e+003;1.105665e-001
2.894750e+003;1.113484e-001
2.896679e+003;1.114846e-001
2.898608e+003;1.115365e-001
2.900536e+003;1.119756e-001
2.902465e+003;1.119186e-001
2.904393e+003;1.116268e-001
2.906322e+003;1.116316e-001
2.908250e+003;1.120711e-001
2.910179e+003;1.132767e-001
2.912107e+003;1.143947e-001
2.914036e+003;1.158587e-001
2.915965e+003;1.164061e-001
2.917893e+003;1.150152e-001
2.919822e+003;1.123506e-001
2.921750e+003;1.084512e-001
2.923679e+003;1.041414e-001
2.925607e+003;1.001909e-001
2.927536e+003;9.731535e-002
2.929464e+003;9.535806e-002
2.931393e+003;9.369909e-002
2.933322e+003;9.161558e-002
2.935250e+003;8.994918e-002
2.937178e+003;8.882719e-002
2.939107e+003;8.765623e-002
2.941036e+003;8.642195e-002
2.942964e+003;8.539642e-002
2.944893e+003;8.481406e-002
2.946821e+003;8.408983e-002
2.948750e+003;8.289927e-002
2.950678e+003;8.165535e-002
2.952607e+003;8.060593e-002
2.954535e+003;7.939842e-002
2.956464e+003;7.838932e-002
2.958393e+003;7.718403e-002
2.960321e+003;7.585639e-002
2.962250e+003;7.518959e-002
2.964178e+003;7.480733e-002
2.966107e+003;7.359862e-002
2.968035e+003;7.254384e-002
2.969964e+003;7.215248e-002
2.971892e+003;7.173653e-002
2.973821e+003;7.117895e-002
2.975750e+003;7.027810e-002
2.977678e+003;6.956178e-002
2.979607e+003;6.898116e-002
2.981535e+003;6.782916e-002
2.983464e+003;6.706571e-002
2.985392e+003;6.669111e-002
2.987321e+003;6.650764e-002
2.989249e+003;6.633220e-002
2.991178e+003;6.615679e-002
2.993106e+003;6.589618e-002
2.995035e+003;6.552536e-002
2.996964e+003;6.529054e-002
2.998892e+003;6.519744e-002
3.000821e+003;6.519455e-002
3.002749e+003;6.543040e-002
3.004678e+003;6.570032e-002
3.006606e+003;6.536637e-002
3.008535e+003;6.499012e-002
3.010463e+003;6.479064e-002
3.012392e+003;6.498265e-002
3.014321e+003;6.556054e-002
3.016249e+003;6.603017e-002
3.018177e+003;6.667160e-002
3.020106e+003;6.657835e-002
3.022035e+003;6.616802e-002
3.023963e+003;6.644551e-002
3.025892e+003;6.699302e-002
3.027820e+003;6.722748e-002
3.029749e+003;6.743935e-002
3.031677e+003;6.786038e-002
3.033606e+003;6.809895e-002
3.035534e+003;6.804280e-002
3.037463e+003;6.815062e-002
3.039392e+003;6.844863e-002
3.041320e+003;6.884241e-002
3.043249e+003;6.970364e-002
3.045177e+003;7.014576e-002
3.047106e+003;7.022688e-002
3.049034e+003;7.020149e-002
3.050963e+003;7.032738e-002
3.052891e+003;7.072966e-002
3.054820e+003;7.137839e-002
3.056749e+003;7.187648e-002
3.058677e+003;7.180705e-002
3.060606e+003;7.183058e-002
3.062534e+003;7.210276e-002
3.064463e+003;7.249799e-002
3.066391e+003;7.275934e-002
3.068320e+003;7.284440e-002
3.070248e+003;7.318929e-002
3.072177e+003;7.375543e-002
3.074105e+003;7.428578e-002
3.076034e+003;7.481907e-002
3.077963e+003;7.512081e-002
3.079891e+003;7.532159e-002
3.081820e+003;7.584554e-002
3.083748e+003;7.622026e-002
3.085677e+003;7.663049e-002
3.087605e+003;7.716781e-002
3.089534e+003;7.730658e-002
3.091462e+003;7.733125e-002
3.093391e+003;7.785751e-002
3.095320e+003;7.830483e-002
3.097248e+003;7.867354e-002
3.099177e+003;7.878969e-002
3.101105e+003;7.875870e-002
3.103034e+003;7.927556e-002
3.104962e+003;8.029154e-002
3.106891e+003;8.093600e-002
3.108819e+003;8.128809e-002
3.110748e+003;8.157606e-002
3.112677e+003;8.199906e-002
3.114605e+003;8.228870e-002
3.116533e+003;8.224168e-002
3.118462e+003;8.266109e-002
3.120391e+003;8.362016e-002
3.122319e+003;8.389971e-002
3.124248e+003;8.378030e-002
3.126176e+003;8.412594e-002
3.128105e+003;8.488090e-002
3.130033e+003;8.537549e-002
3.131962e+003;8.612780e-002
3.133890e+003;8.691656e-002
3.135819e+003;8.741587e-002
3.137748e+003;8.778144e-002
3.139676e+003;8.786240e-002
3.141605e+003;8.820851e-002
3.143533e+003;8.858183e-002
3.145462e+003;8.863749e-002
3.147390e+003;8.938047e-002
3.149319e+003;9.028026e-002
3.151247e+003;9.109377e-002
3.153176e+003;9.202182e-002
3.155104e+003;9.281504e-002
3.157033e+003;9.342430e-002
3.158962e+003;9.359994e-002
3.160890e+003;9.367701e-002
3.162819e+003;9.429917e-002
3.164747e+003;9.507809e-002
3.166676e+003;9.576637e-002
3.168604e+003;9.637171e-002
3.170533e+003;9.734561e-002
3.172461e+003;9.827625e-002
3.174390e+003;9.899854e-002
3.176319e+003;9.952002e-002
3.178247e+003;9.976614e-002
3.180176e+003;1.001418e-001
3.182104e+003;1.010468e-001
3.184033e+003;1.019845e-001
3.185961e+003;1.024186e-001
3.187890e+003;1.026363e-001
3.189818e+003;1.034876e-001
3.191747e+003;1.041093e-001
3.193676e+003;1.048850e-001
3.195604e+003;1.059537e-001
3.197532e+003;1.063776e-001
3.199461e+003;1.072024e-001
3.201390e+003;1.081535e-001
3.203318e+003;1.089970e-001
3.205247e+003;1.097775e-001
3.207175e+003;1.105845e-001
3.209104e+003;1.114256e-001
3.211032e+003;1.123215e-001
3.212961e+003;1.126081e-001
3.214889e+003;1.132848e-001
3.216818e+003;1.144234e-001
3.218747e+003;1.157105e-001
3.220675e+003;1.168710e-001
3.222604e+003;1.175929e-001
3.224532e+003;1.180336e-001
3.226461e+003;1.185658e-001
3.228389e+003;1.192293e-001
3.230318e+003;1.206902e-001
3.232246e+003;1.217757e-001
3.234175e+003;1.227160e-001
3.236104e+003;1.237951e-001
3.238032e+003;1.247364e-001
3.239961e+003;1.257857e-001
3.241889e+003;1.271577e-001
3.243818e+003;1.281207e-001
3.245746e+003;1.288965e-001
3.247675e+003;1.297176e-001
3.249603e+003;1.304121e-001
3.251532e+003;1.317766e-001
3.253460e+003;1.331981e-001
3.255389e+003;1.338096e-001
3.257318e+003;1.344494e-001
3.259246e+003;1.352274e-001
3.261175e+003;1.363875e-001
3.263103e+003;1.376180e-001
3.265032e+003;1.387876e-001
3.266960e+003;1.398499e-001
3.268889e+003;1.408331e-001
3.270817e+003;1.421778e-001
3.272746e+003;1.434369e-001
3.274675e+003;1.439611e-001
3.276603e+003;1.441062e-001
3.278531e+003;1.443400e-001
3.280460e+003;1.449669e-001
3.282389e+003;1.457743e-001
3.284317e+003;1.463074e-001
3.286246e+003;1.463743e-001
3.288174e+003;1.463104e-001
3.290103e+003;1.470860e-001
3.292031e+003;1.476059e-001
3.293960e+003;1.474814e-001
3.295888e+003;1.476808e-001
3.297817e+003;1.479186e-001
3.299746e+003;1.478324e-001
3.301674e+003;1.474760e-001
3.303603e+003;1.472156e-001
3.305531e+003;1.482165e-001
3.307460e+003;1.492567e-001
3.309388e+003;1.491452e-001
3.311317e+003;1.489524e-001
3.313245e+003;1.494222e-001
3.315174e+003;1.495474e-001
3.317103e+003;1.493149e-001
3.319031e+003;1.499708e-001
3.320960e+003;1.503218e-001
3.322888e+003;1.504028e-001
3.324817e+003;1.512625e-001
3.326745e+003;1.524263e-001
3.328674e+003;1.532096e-001
3.330602e+003;1.535413e-001
3.332531e+003;1.535697e-001
3.334459e+003;1.533232e-001
3.336388e+003;1.537018e-001
3.338317e+003;1.539285e-001
3.340245e+003;1.540229e-001
3.342174e+003;1.538638e-001
3.344102e+003;1.526859e-001
3.346031e+003;1.514788e-001
3.347959e+003;1.511639e-001
3.349888e+003;1.511565e-001
3.351816e+003;1.505376e-001
3.353745e+003;1.499905e-001
3.355674e+003;1.490367e-001
3.357602e+003;1.472182e-001
3.359531e+003;1.461779e-001
3.361459e+003;1.458058e-001
3.363388e+003;1.455141e-001
3.365316e+003;1.450891e-001
3.367245e+003;1.439773e-001
3.369173e+003;1.427238e-001
3.371102e+003;1.421241e-001
3.373031e+003;1.421373e-001
3.374959e+003;1.418988e-001
3.376887e+003;1.408033e-001
3.378816e+003;1.398123e-001
3.380745e+003;1.387564e-001
3.382673e+003;1.379541e-001
3.384602e+003;1.376938e-001
3.386530e+003;1.372999e-001
3.388459e+003;1.363651e-001
3.390387e+003;1.354728e-001
3.392316e+003;1.353362e-001
3.394244e+003;1.350405e-001
3.396173e+003;1.342417e-001
3.398102e+003;1.332466e-001
3.400030e+003;1.325042e-001
3.401959e+003;1.319980e-001
3.403887e+003;1.318895e-001
3.405816e+003;1.306833e-001
3.407744e+003;1.289339e-001
3.409673e+003;1.280726e-001
3.411601e+003;1.264271e-001
3.413530e+003;1.249461e-001
3.415458e+003;1.250098e-001
3.417387e+003;1.245878e-001
3.419316e+003;1.232746e-001
3.421244e+003;1.223466e-001
3.423173e+003;1.208018e-001
3.425101e+003;1.196782e-001
3.427030e+003;1.195362e-001
3.428958e+003;1.185515e-001
3.430887e+003;1.168521e-001
3.432815e+003;1.161897e-001
3.434744e+003;1.154936e-001
3.436673e+003;1.148801e-001
3.438601e+003;1.144178e-001
3.440530e+003;1.126527e-001
3.442458e+003;1.111586e-001
3.444387e+003;1.105490e-001
3.446315e+003;1.097315e-001
3.448244e+003;1.088247e-001
3.450172e+003;1.080154e-001
3.452101e+003;1.071178e-001
3.454030e+003;1.058969e-001
3.455958e+003;1.049700e-001
3.457886e+003;1.039823e-001
3.459815e+003;1.027071e-001
3.461744e+003;1.013015e-001
3.463672e+003;1.003605e-001
3.465601e+003;1.003008e-001
3.467529e+003;1.000703e-001
3.469458e+003;9.896849e-002
3.471386e+003;9.760585e-002
3.473315e+003;9.606228e-002
3.475243e+003;9.514722e-002
3.477172e+003;9.444431e-002
3.479101e+003;9.341078e-002
3.481029e+003;9.222713e-002
3.482958e+003;9.075132e-002
3.484886e+003;8.973533e-002
3.486815e+003;8.856915e-002
3.488743e+003;8.760709e-002
3.490672e+003;8.783194e-002
3.492600e+003;8.788780e-002
3.494529e+003;8.647390e-002
3.496458e+003;8.504803e-002
3.498386e+003;8.381711e-002
3.500315e+003;8.285677e-002
3.502243e+003;8.202283e-002
3.504172e+003;8.116417e-002
3.506100e+003;8.059775e-002
3.508029e+003;7.942921e-002
3.509957e+003;7.852294e-002
3.511886e+003;7.836678e-002
3.513814e+003;7.783681e-002
3.515743e+003;7.620332e-002
3.517672e+003;7.462312e-002
3.519600e+003;7.429573e-002
3.521529e+003;7.399695e-002
3.523457e+003;7.269498e-002
3.525386e+003;7.162156e-002
3.527314e+003;7.087061e-002
3.529243e+003;7.030576e-002
3.531171e+003;7.004117e-002
3.533100e+003;6.970795e-002
3.535029e+003;6.872579e-002
3.536957e+003;6.700485e-002
3.538885e+003;6.565280e-002
3.540814e+003;6.517241e-002
3.542743e+003;6.466234e-002
3.544671e+003;6.465095e-002
3.546600e+003;6.450405e-002
3.548528e+003;6.399752e-002
3.550457e+003;6.266102e-002
3.552385e+003;6.111403e-002
3.554314e+003;6.079628e-002
3.556242e+003;6.051305e-002
3.558171e+003;5.993069e-002
3.560100e+003;5.920407e-002
3.562028e+003;5.829260e-002
3.563957e+003;5.753460e-002
3.565885e+003;5.649668e-002
3.567814e+003;5.557332e-002
3.569742e+003;5.500484e-002
3.571671e+003;5.481455e-002
3.573599e+003;5.446212e-002
3.575528e+003;5.391217e-002
3.577457e+003;5.302595e-002
3.579385e+003;5.234267e-002
3.581314e+003;5.179591e-002
3.583242e+003;5.114486e-002
3.585171e+003;4.997109e-002
3.587099e+003;4.881980e-002
3.589028e+003;4.891391e-002
3.590956e+003;4.854219e-002
3.592885e+003;4.802139e-002
3.594813e+003;4.731755e-002
3.596742e+003;4.642997e-002
3.598671e+003;4.634111e-002
3.600599e+003;4.607359e-002
3.602528e+003;4.511369e-002
3.604456e+003;4.391287e-002
3.606385e+003;4.272500e-002
3.608313e+003;4.211780e-002
3.610242e+003;4.213679e-002
3.612170e+003;4.133763e-002
3.614099e+003;4.122544e-002
3.616028e+003;4.094641e-002
3.617956e+003;3.937601e-002
3.619885e+003;3.847561e-002
3.621813e+003;3.861135e-002
3.623742e+003;3.869516e-002
3.625670e+003;3.762374e-002
3.627599e+003;3.444096e-002
3.629527e+003;3.403038e-002
3.631456e+003;3.592875e-002
3.633385e+003;3.564854e-002
3.635313e+003;3.543170e-002
3.637241e+003;3.572512e-002
3.639170e+003;3.487899e-002
3.641099e+003;3.311580e-002
3.643027e+003;3.193995e-002
3.644956e+003;3.092724e-002
3.646884e+003;2.911398e-002
3.648813e+003;2.742968e-002
3.650741e+003;2.785614e-002
3.652670e+003;2.915047e-002
3.654598e+003;2.820830e-002
3.656527e+003;2.778892e-002
3.658456e+003;2.862080e-002
3.660384e+003;2.787360e-002
3.662313e+003;2.652941e-002
3.664241e+003;2.581164e-002
3.666170e+003;2.483520e-002
3.668098e+003;2.278437e-002
3.670027e+003;2.144159e-002
3.671955e+003;2.148678e-002
3.673884e+003;1.915767e-002
3.675813e+003;1.807630e-002
3.677741e+003;2.007054e-002
3.679669e+003;2.108517e-002
3.681598e+003;2.153528e-002
3.683527e+003;2.089339e-002
3.685455e+003;1.951259e-002
3.687384e+003;1.728889e-002
3.689312e+003;1.689356e-002
3.691241e+003;1.762227e-002
3.693169e+003;1.879786e-002
3.695098e+003;1.965512e-002
3.697026e+003;1.961088e-002
3.698955e+003;1.875569e-002
3.700884e+003;1.772338e-002
3.702812e+003;1.743363e-002
3.704741e+003;1.772563e-002
3.706669e+003;1.750410e-002
3.708598e+003;1.625505e-002
3.710526e+003;1.474774e-002
3.712455e+003;1.484445e-002
3.714383e+003;1.604867e-002
3.716312e+003;1.645845e-002
3.718240e+003;1.635784e-002
3.720169e+003;1.599267e-002
3.722098e+003;1.548577e-002
3.724026e+003;1.510071e-002
3.725955e+003;1.562764e-002
3.727883e+003;1.639569e-002
3.729812e+003;1.496197e-002
3.731740e+003;1.265430e-002
3.733669e+003;1.169108e-002
3.735597e+003;1.207148e-002
3.737526e+003;1.330520e-002
3.739455e+003;1.398958e-002
3.741383e+003;1.317556e-002
3.743312e+003;9.776032e-003
3.745240e+003;1.074163e-002
3.747169e+003;1.226524e-002
3.749097e+003;1.003566e-002
3.751026e+003;9.217200e-003
3.752954e+003;1.174445e-002
3.754883e+003;1.482056e-002
3.756812e+003;1.456559e-002
3.758740e+003;1.371469e-002
3.760668e+003;1.412049e-002
3.762597e+003;1.472077e-002
3.764526e+003;1.385071e-002
3.766454e+003;1.375408e-002
3.768383e+003;1.365642e-002
3.770311e+003;1.377789e-002
3.772240e+003;1.490713e-002
3.774168e+003;1.486739e-002
3.776097e+003;1.424250e-002
3.778025e+003;1.399341e-002
3.779954e+003;1.346799e-002
3.781883e+003;1.388608e-002
3.783811e+003;1.369160e-002
3.785740e+003;1.368750e-002
3.787668e+003;1.413041e-002
3.789597e+003;1.437259e-002
3.791525e+003;1.418987e-002
3.793454e+003;1.415229e-002
3.795382e+003;1.368435e-002
3.797311e+003;1.358168e-002
3.799240e+003;1.217728e-002
3.801168e+003;1.104191e-002
3.803097e+003;1.291463e-002
3.805025e+003;1.298270e-002
3.806954e+003;1.196636e-002
3.808882e+003;1.268947e-002
3.810811e+003;1.350371e-002
3.812739e+003;1.329905e-002
3.814668e+003;1.108232e-002
3.816596e+003;1.151912e-002
3.818525e+003;1.240405e-002
3.820454e+003;1.118271e-002
3.822382e+003;1.277839e-002
3.824311e+003;1.353464e-002
3.826239e+003;1.311972e-002
3.828168e+003;1.409557e-002
3.830096e+003;1.381907e-002
3.832025e+003;1.350542e-002
3.833953e+003;1.385331e-002
3.835882e+003;1.236269e-002
3.837811e+003;1.117713e-002
3.839739e+003;1.247190e-002
3.841667e+003;1.349150e-002
3.843596e+003;1.388074e-002
3.845525e+003;1.429437e-002
3.847453e+003;1.384332e-002
3.849382e+003;1.260859e-002
3.851310e+003;9.162849e-003
3.853239e+003;7.324331e-003
3.855167e+003;1.152095e-002
3.857096e+003;1.514809e-002
3.859024e+003;1.541528e-002
3.860953e+003;1.435557e-002
3.862882e+003;1.304699e-002
3.864810e+003;1.330264e-002
3.866739e+003;1.453414e-002
3.868667e+003;1.305354e-002
3.870596e+003;1.311665e-002
3.872524e+003;1.405464e-002
3.874453e+003;1.481771e-002
3.876381e+003;1.588491e-002
3.878310e+003;1.556245e-002
3.880239e+003;1.554050e-002
3.882167e+003;1.563749e-002
3.884096e+003;1.461970e-002
3.886024e+003;1.486280e-002
3.887953e+003;1.580340e-002
3.889881e+003;1.501156e-002
3.891810e+003;1.537951e-002
3.893738e+003;1.672156e-002
3.895667e+003;1.714731e-002
3.897595e+003;1.586910e-002
3.899524e+003;1.408212e-002
3.901453e+003;1.369461e-002
3.903381e+003;1.458341e-002
3.905310e+003;1.612453e-002
3.907238e+003;1.657819e-002
3.909167e+003;1.634889e-002
3.911095e+003;1.640976e-002
3.913024e+003;1.670441e-002
3.914952e+003;1.602808e-002
3.916881e+003;1.519092e-002
3.918810e+003;1.554432e-002
3.920738e+003;1.681516e-002
3.922667e+003;1.724221e-002
3.924595e+003;1.646220e-002
3.926524e+003;1.638533e-002
3.928452e+003;1.690617e-002
3.930381e+003;1.680366e-002
3.932309e+003;1.634497e-002
3.934238e+003;1.618364e-002
3.936167e+003;1.606212e-002
3.938095e+003;1.649813e-002
3.940023e+003;1.703185e-002
3.941952e+003;1.753377e-002
3.943881e+003;1.776439e-002
3.945809e+003;1.765094e-002
3.947738e+003;1.791370e-002
3.949666e+003;1.872566e-002
3.951595e+003;1.931575e-002
3.953523e+003;1.834346e-002
3.955452e+003;1.674866e-002
3.957380e+003;1.732682e-002
3.959309e+003;1.806417e-002
3.961238e+003;1.784365e-002
3.963166e+003;1.807861e-002
3.965095e+003;1.883277e-002
3.967023e+003;1.920276e-002
3.968952e+003;1.868999e-002
3.970880e+003;1.778337e-002
3.972809e+003;1.814428e-002
3.974737e+003;1.883765e-002
3.976666e+003;1.848540e-002
3.978594e+003;1.783895e-002
3.980523e+003;1.790970e-002
3.982452e+003;1.874897e-002
3.984380e+003;1.855334e-002
3.986309e+003;1.799509e-002
3.988237e+003;1.809916e-002
3.990166e+003;1.849107e-002
3.992094e+003;1.851797e-002
3.994023e+003;1.839707e-002
3.995951e+003;1.825765e-002
3.997880e+003;1.886402e-002
3.999809e+003;1.929586e-002
4.001737e+003;0.000000e+000
