3.992094e+002;0.000000e+000
4.011380e+002;0.000000e+000
4.030665e+002;0.000000e+000
4.049951e+002;0.000000e+000
4.069236e+002;0.000000e+000
4.088522e+002;0.000000e+000
4.107807e+002;0.000000e+000
4.127093e+002;0.000000e+000
4.146378e+002;0.000000e+000
4.165664e+002;0.000000e+000
4.184949e+002;0.000000e+000
4.204235e+002;0.000000e+000
4.223520e+002;0.000000e+000
4.242806e+002;0.000000e+000
4.262091e+002;0.000000e+000
4.281377e+002;0.000000e+000
4.300662e+002;0.000000e+000
4.319948e+002;0.000000e+000
4.339233e+002;0.000000e+000
4.358519e+002;0.000000e+000
4.377804e+002;0.000000e+000
4.397090e+002;0.000000e+000
4.416375e+002;0.000000e+000
4.435660e+002;0.000000e+000
4.454946e+002;0.000000e+000
4.474232e+002;0.000000e+000
4.493517e+002;0.000000e+000
4.512802e+002;0.000000e+000
4.532088e+002;0.000000e+000
4.551373e+002;0.000000e+000
4.570659e+002;0.000000e+000
4.589944e+002;0.000000e+000
4.609230e+002;0.000000e+000
4.628515e+002;0.000000e+000
4.647801e+002;0.000000e+000
4.667086e+002;0.000000e+000
4.686372e+002;0.000000e+000
4.705657e+002;0.000000e+000
4.724943e+002;0.000000e+000
4.744228e+002;0.000000e+000
4.763513e+002;0.000000e+000
4.782799e+002;0.000000e+000
4.802085e+002;0.000000e+000
4.821370e+002;0.000000e+000
4.840656e+002;0.000000e+000
4.859941e+002;0.000000e+000
4.879226e+002;0.000000e+000
4.898512e+002;0.000000e+000
4.917798e+002;0.000000e+000
4.937083e+002;0.000000e+000
4.956368e+002;0.000000e+000
4.975654e+002;0.000000e+000
4.994939e+002;0.000000e+000
5.014225e+002;0.000000e+000
5.033510e+002;0.000000e+000
5.052796e+002;0.000000e+000
5.072081e+002;0.000000e+000
5.091367e+002;0.000000e+000
5.110652e+002;0.000000e+000
5.129938e+002;0.000000e+000
5.149223e+002;0.000000e+000
5.168509e+002;0.000000e+000
5.187794e+002;0.000000e+000
5.207079e+002;0.000000e+000
5.226365e+002;0.000000e+000
5.245651e+002;0.000000e+000
5.264936e+002;0.000000e+000
5.284222e+002;0.000000e+000
5.303507e+002;0.000000e+000
5.322792e+002;0.000000e+000
5.342078e+002;0.000000e+000
5.361364e+002;0.000000e+000
5.380649e+002;0.000000e+000
5.399935e+002;0.000000e+000
5.419220e+002;0.000000e+000
5.438505e+002;0.000000e+000
5.457791e+002;0.000000e+000
5.477076e+002;0.000000e+000
5.496362e+002;0.000000e+000
5.515648e+002;0.000000e+000
5.534933e+002;0.000000e+000
5.554218e+002;0.000000e+000
5.573504e+002;0.000000e+000
5.592789e+002;0.000000e+000
5.612075e+002;0.000000e+000
5.631360e+002;0.000000e+000
5.650646e+002;0.000000e+000
5.669931e+002;0.000000e+000
5.689217e+002;0.000000e+000
5.708502e+002;0.000000e+000
5.727787e+002;0.000000e+000
5.747073e+002;0.000000e+000
5.766359e+002;0.000000e+000
5.785644e+002;0.000000e+000
5.804930e+002;0.000000e+000
5.824215e+002;0.000000e+000
5.843500e+002;0.000000e+000
5.862786e+002;0.000000e+000
5.882072e+002;0.000000e+000
5.901357e+002;0.000000e+000
5.920643e+002;0.000000e+000
5.939928e+002;0.000000e+000
5.959213e+002;0.000000e+000
5.978499e+002;0.000000e+000
5.997784e+002;2.597451e-001
6.017070e+002;2.588720e-001
6.036355e+002;2.597438e-001
6.055641e+002;2.663355e-001
6.074926e+002;2.676591e-001
6.094211e+002;2.703083e-001
6.113497e+002;2.710524e-001
6.132783e+002;2.683710e-001
6.152068e+002;2.737494e-001
6.171354e+002;2.730841e-001
6.190639e+002;2.665741e-001
6.209924e+002;2.673511e-001
6.229210e+002;2.672810e-001
6.248495e+002;2.656491e-001
6.267781e+002;2.623375e-001
6.287067e+002;2.530847e-001
6.306352e+002;2.465424e-001
6.325637e+002;2.442656e-001
6.344923e+002;2.429330e-001
6.364208e+002;2.439627e-001
6.383494e+002;2.420903e-001
6.402780e+002;2.387309e-001
6.422065e+002;2.373613e-001
6.441350e+002;2.362541e-001
6.460636e+002;2.395107e-001
6.479921e+002;2.403321e-001
6.499207e+002;2.355064e-001
6.518492e+002;2.324222e-001
6.537778e+002;2.363898e-001
6.557063e+002;2.407950e-001
6.576349e+002;2.425446e-001
6.595634e+002;2.438643e-001
6.614919e+002;2.462108e-001
6.634205e+002;2.452736e-001
6.653491e+002;2.443098e-001
6.672776e+002;2.431668e-001
6.692062e+002;2.374424e-001
6.711347e+002;2.327299e-001
6.730632e+002;2.287732e-001
6.749918e+002;2.210580e-001
6.769203e+002;2.126880e-001
6.788489e+002;2.060409e-001
6.807775e+002;2.017172e-001
6.827060e+002;1.988656e-001
6.846345e+002;1.944113e-001
6.865631e+002;1.914275e-001
6.884916e+002;1.902159e-001
6.904202e+002;1.885141e-001
6.923488e+002;1.870105e-001
6.942773e+002;1.865754e-001
6.962058e+002;1.867352e-001
6.981344e+002;1.867055e-001
7.000629e+002;1.848940e-001
7.019915e+002;1.822974e-001
7.039200e+002;1.802154e-001
7.058486e+002;1.785100e-001
7.077771e+002;1.773639e-001
7.097057e+002;1.766898e-001
7.116342e+002;1.755038e-001
7.135627e+002;1.739692e-001
7.154913e+002;1.727689e-001
7.174199e+002;1.710930e-001
7.193484e+002;1.684497e-001
7.212770e+002;1.653409e-001
7.232055e+002;1.620453e-001
7.251340e+002;1.599404e-001
7.270626e+002;1.576032e-001
7.289911e+002;1.545330e-001
7.309197e+002;1.518440e-001
7.328483e+002;1.497428e-001
7.347768e+002;1.479573e-001
7.367053e+002;1.463686e-001
7.386339e+002;1.440911e-001
7.405624e+002;1.421020e-001
7.424910e+002;1.404416e-001
7.444196e+002;1.386286e-001
7.463481e+002;1.379032e-001
7.482766e+002;1.372171e-001
7.502052e+002;1.364144e-001
7.521337e+002;1.353671e-001
7.540623e+002;1.324958e-001
7.559908e+002;1.289109e-001
7.579194e+002;1.264790e-001
7.598479e+002;1.255595e-001
7.617765e+002;1.258685e-001
7.637050e+002;1.254804e-001
7.656335e+002;1.228547e-001
7.675621e+002;1.199937e-001
7.694907e+002;1.189805e-001
7.714192e+002;1.182510e-001
7.733478e+002;1.161799e-001
7.752763e+002;1.150022e-001
7.772048e+002;1.142155e-001
7.791334e+002;1.128267e-001
7.810620e+002;1.120106e-001
7.829905e+002;1.113129e-001
7.849191e+002;1.106594e-001
7.868476e+002;1.100434e-001
7.887761e+002;1.090882e-001
7.907047e+002;1.081995e-001
7.926332e+002;1.072052e-001
7.945618e+002;1.061147e-001
7.964903e+002;1.054628e-001
7.984189e+002;1.048356e-001
8.003474e+002;1.047258e-001
8.022759e+002;1.049483e-001
8.042045e+002;1.048196e-001
8.061331e+002;1.041089e-001
8.080616e+002;1.031930e-001
8.099902e+002;1.024144e-001
8.119187e+002;1.016537e-001
8.138472e+002;1.011258e-001
8.157758e+002;1.007261e-001
8.177043e+002;1.000091e-001
8.196329e+002;9.886983e-002
8.215615e+002;9.737261e-002
8.234900e+002;9.640224e-002
8.254185e+002;9.613020e-002
8.273471e+002;9.599722e-002
8.292756e+002;9.489357e-002
8.312042e+002;9.416461e-002
8.331328e+002;9.428731e-002
8.350613e+002;9.401342e-002
8.369898e+002;9.339435e-002
8.389184e+002;9.280638e-002
8.408469e+002;9.151629e-002
8.427755e+002;9.014980e-002
8.447040e+002;8.920319e-002
8.466326e+002;8.883329e-002
8.485611e+002;8.834489e-002
8.504897e+002;8.795052e-002
8.524182e+002;8.754430e-002
8.543467e+002;8.720561e-002
8.562753e+002;8.752063e-002
8.582039e+002;8.858857e-002
8.601324e+002;8.986237e-002
8.620610e+002;9.064606e-002
8.639895e+002;9.174252e-002
8.659180e+002;9.413337e-002
8.678466e+002;9.682176e-002
8.697751e+002;9.971032e-002
8.717037e+002;1.034046e-001
8.736323e+002;1.071201e-001
8.755608e+002;1.104886e-001
8.774893e+002;1.132600e-001
8.794179e+002;1.160488e-001
8.813464e+002;1.195085e-001
8.832750e+002;1.240764e-001
8.852036e+002;1.289316e-001
8.871321e+002;1.338419e-001
8.890606e+002;1.389938e-001
8.909892e+002;1.436345e-001
8.929177e+002;1.473935e-001
8.948463e+002;1.502435e-001
8.967748e+002;1.519159e-001
8.987034e+002;1.522755e-001
9.006319e+002;1.511860e-001
9.025605e+002;1.490733e-001
9.044890e+002;1.460194e-001
9.064175e+002;1.421855e-001
9.083461e+002;1.376251e-001
9.102747e+002;1.333313e-001
9.122032e+002;1.298703e-001
9.141318e+002;1.267034e-001
9.160603e+002;1.235589e-001
9.179888e+002;1.215855e-001
9.199174e+002;1.205522e-001
9.218459e+002;1.201702e-001
9.237745e+002;1.206019e-001
9.257031e+002;1.213836e-001
9.276316e+002;1.226151e-001
9.295601e+002;1.240125e-001
9.314887e+002;1.256428e-001
9.334172e+002;1.275314e-001
9.353458e+002;1.294338e-001
9.372744e+002;1.312638e-001
9.392029e+002;1.331729e-001
9.411314e+002;1.355560e-001
9.430600e+002;1.382282e-001
9.449885e+002;1.412173e-001
9.469171e+002;1.446898e-001
9.488456e+002;1.486342e-001
9.507742e+002;1.530742e-001
9.527027e+002;1.586634e-001
9.546313e+002;1.647491e-001
9.565598e+002;1.709386e-001
9.584883e+002;1.775468e-001
9.604169e+002;1.852096e-001
9.623455e+002;1.935248e-001
9.642740e+002;2.021089e-001
9.662026e+002;2.111545e-001
9.681311e+002;2.208150e-001
9.700596e+002;2.320714e-001
9.719882e+002;2.449299e-001
9.739167e+002;2.600195e-001
9.758453e+002;2.774925e-001
9.777739e+002;2.976065e-001
9.797024e+002;3.204551e-001
9.816309e+002;3.447950e-001
9.835595e+002;3.681912e-001
9.854880e+002;3.898063e-001
9.874166e+002;4.079510e-001
9.893452e+002;4.214529e-001
9.912737e+002;4.318907e-001
9.932022e+002;4.408929e-001
9.951307e+002;4.493337e-001
9.970593e+002;4.571169e-001
9.989879e+002;4.631431e-001
1.000916e+003;4.679420e-001
1.002845e+003;4.733892e-001
1.004773e+003;4.787677e-001
1.006702e+003;4.846923e-001
1.008631e+003;4.924070e-001
1.010559e+003;5.014918e-001
1.012488e+003;5.108086e-001
1.014416e+003;5.199112e-001
1.016345e+003;5.280572e-001
1.018273e+003;5.349127e-001
1.020202e+003;5.397874e-001
1.022130e+003;5.422805e-001
1.024059e+003;5.420575e-001
1.025988e+003;5.407993e-001
1.027916e+003;5.392600e-001
1.029845e+003;5.375673e-001
1.031773e+003;5.338132e-001
1.033702e+003;5.297042e-001
1.035630e+003;5.246809e-001
1.037559e+003;5.176568e-001
1.039487e+003;5.106048e-001
1.041416e+003;5.042627e-001
1.043344e+003;4.981999e-001
1.045273e+003;4.932781e-001
1.047202e+003;4.897067e-001
1.049130e+003;4.864719e-001
1.051059e+003;4.840922e-001
1.052987e+003;4.825108e-001
1.054916e+003;4.787988e-001
1.056844e+003;4.729741e-001
1.058773e+003;4.653112e-001
1.060701e+003;4.563869e-001
1.062630e+003;4.460893e-001
1.064558e+003;4.335947e-001
1.066487e+003;4.204922e-001
1.068416e+003;4.075736e-001
1.070344e+003;3.959973e-001
1.072273e+003;3.852367e-001
1.074201e+003;3.757764e-001
1.076130e+003;3.667489e-001
1.078058e+003;3.565413e-001
1.079987e+003;3.471307e-001
1.081915e+003;3.397205e-001
1.083844e+003;3.333254e-001
1.085773e+003;3.271804e-001
1.087701e+003;3.208642e-001
1.089630e+003;3.153314e-001
1.091558e+003;3.109074e-001
1.093487e+003;3.076282e-001
1.095415e+003;3.026734e-001
1.097344e+003;2.974218e-001
1.099272e+003;2.930835e-001
1.101201e+003;2.886351e-001
1.103129e+003;2.839755e-001
1.105058e+003;2.790309e-001
1.106987e+003;2.746437e-001
1.108915e+003;2.707079e-001
1.110844e+003;2.662309e-001
1.112772e+003;2.599947e-001
1.114701e+003;2.527417e-001
1.116629e+003;2.454212e-001
1.118558e+003;2.381231e-001
1.120486e+003;2.304163e-001
1.122415e+003;2.228491e-001
1.124344e+003;2.158552e-001
1.126272e+003;2.087802e-001
1.128201e+003;2.016629e-001
1.130129e+003;1.949910e-001
1.132058e+003;1.886252e-001
1.133986e+003;1.832156e-001
1.135915e+003;1.785909e-001
1.137843e+003;1.739109e-001
1.139772e+003;1.703208e-001
1.141700e+003;1.685043e-001
1.143629e+003;1.676479e-001
1.145557e+003;1.673997e-001
1.147486e+003;1.677195e-001
1.149415e+003;1.686562e-001
1.151343e+003;1.698227e-001
1.153272e+003;1.709531e-001
1.155200e+003;1.718946e-001
1.157129e+003;1.720427e-001
1.159057e+003;1.710589e-001
1.160986e+003;1.685430e-001
1.162914e+003;1.650072e-001
1.164843e+003;1.603575e-001
1.166771e+003;1.540425e-001
1.168700e+003;1.468397e-001
1.170629e+003;1.391684e-001
1.172557e+003;1.309026e-001
1.174486e+003;1.231741e-001
1.176414e+003;1.166365e-001
1.178343e+003;1.110567e-001
1.180271e+003;1.058743e-001
1.182200e+003;1.020049e-001
1.184128e+003;1.000062e-001
1.186057e+003;9.877099e-002
1.187986e+003;9.844983e-002
1.189914e+003;9.979903e-002
1.191843e+003;1.022225e-001
1.193771e+003;1.047889e-001
1.195700e+003;1.072742e-001
1.197628e+003;1.096914e-001
1.199557e+003;1.113205e-001
1.201485e+003;1.115833e-001
1.203414e+003;1.109238e-001
1.205343e+003;1.099932e-001
1.207271e+003;1.084246e-001
1.209200e+003;1.057163e-001
1.211128e+003;1.030612e-001
1.213057e+003;1.011163e-001
1.214985e+003;9.995274e-002
1.216914e+003;1.000760e-001
1.218842e+003;1.011408e-001
1.220771e+003;1.031160e-001
1.222699e+003;1.052996e-001
1.224628e+003;1.073915e-001
1.226557e+003;1.092988e-001
1.228485e+003;1.111955e-001
1.230414e+003;1.132994e-001
1.232342e+003;1.149966e-001
1.234271e+003;1.157310e-001
1.236199e+003;1.157003e-001
1.238128e+003;1.156701e-001
1.240056e+003;1.159821e-001
1.241985e+003;1.162733e-001
1.243913e+003;1.164872e-001
1.245842e+003;1.171834e-001
1.247771e+003;1.179657e-001
1.249699e+003;1.188147e-001
1.251628e+003;1.193554e-001
1.253556e+003;1.198337e-001
1.255485e+003;1.204545e-001
1.257413e+003;1.208411e-001
1.259342e+003;1.210297e-001
1.261270e+003;1.207575e-001
1.263199e+003;1.206019e-001
1.265127e+003;1.204151e-001
1.267056e+003;1.197730e-001
1.268985e+003;1.190966e-001
1.270913e+003;1.184385e-001
1.272842e+003;1.177184e-001
1.274770e+003;1.170051e-001
1.276699e+003;1.162814e-001
1.278627e+003;1.156203e-001
1.280556e+003;1.149329e-001
1.282484e+003;1.139841e-001
1.284413e+003;1.131660e-001
1.286342e+003;1.128850e-001
1.288270e+003;1.133447e-001
1.290199e+003;1.147006e-001
1.292127e+003;1.162897e-001
1.294056e+003;1.176799e-001
1.295984e+003;1.191048e-001
1.297913e+003;1.206291e-001
1.299841e+003;1.226347e-001
1.301770e+003;1.250841e-001
1.303698e+003;1.274391e-001
1.305627e+003;1.298627e-001
1.307556e+003;1.326429e-001
1.309484e+003;1.354799e-001
1.311413e+003;1.379131e-001
1.313341e+003;1.400997e-001
1.315270e+003;1.415987e-001
1.317198e+003;1.419041e-001
1.319127e+003;1.415544e-001
1.321055e+003;1.407625e-001
1.322984e+003;1.395693e-001
1.324912e+003;1.382007e-001
1.326841e+003;1.369965e-001
1.328770e+003;1.364649e-001
1.330698e+003;1.369548e-001
1.332627e+003;1.375448e-001
1.334555e+003;1.373606e-001
1.336484e+003;1.367002e-001
1.338412e+003;1.360751e-001
1.340341e+003;1.355358e-001
1.342269e+003;1.349267e-001
1.344198e+003;1.339983e-001
1.346126e+003;1.330235e-001
1.348055e+003;1.322455e-001
1.349984e+003;1.318545e-001
1.351912e+003;1.320956e-001
1.353841e+003;1.326205e-001
1.355769e+003;1.331283e-001
1.357698e+003;1.339752e-001
1.359626e+003;1.347898e-001
1.361555e+003;1.348721e-001
1.363483e+003;1.346407e-001
1.365412e+003;1.344617e-001
1.367341e+003;1.339541e-001
1.369269e+003;1.337431e-001
1.371198e+003;1.328538e-001
1.373126e+003;1.304224e-001
1.375055e+003;1.281223e-001
1.376983e+003;1.262712e-001
1.378912e+003;1.240779e-001
1.380840e+003;1.217044e-001
1.382769e+003;1.191574e-001
1.384698e+003;1.165097e-001
1.386626e+003;1.138152e-001
1.388555e+003;1.127111e-001
1.390483e+003;1.121234e-001
1.392412e+003;1.104687e-001
1.394340e+003;1.088220e-001
1.396269e+003;1.086210e-001
1.398197e+003;1.087963e-001
1.400126e+003;1.096970e-001
1.402054e+003;1.106711e-001
1.403983e+003;1.106199e-001
1.405911e+003;1.112614e-001
1.407840e+003;1.124709e-001
1.409769e+003;1.131574e-001
1.411697e+003;1.133562e-001
1.413626e+003;1.136306e-001
1.415554e+003;1.136619e-001
1.417483e+003;1.126696e-001
1.419411e+003;1.121723e-001
1.421340e+003;1.141085e-001
1.423268e+003;1.155112e-001
1.425197e+003;1.161837e-001
1.427125e+003;1.162833e-001
1.429054e+003;1.155679e-001
1.430983e+003;1.148901e-001
1.432911e+003;1.139096e-001
1.434840e+003;1.107760e-001
1.436768e+003;1.077296e-001
1.438697e+003;1.079675e-001
1.440625e+003;1.071950e-001
1.442554e+003;1.055229e-001
1.444482e+003;1.040831e-001
1.446411e+003;1.022708e-001
1.448340e+003;1.007927e-001
1.450268e+003;9.995541e-002
1.452197e+003;9.844467e-002
1.454125e+003;9.528527e-002
1.456054e+003;9.005997e-002
1.457982e+003;8.911812e-002
1.459911e+003;9.109230e-002
1.461839e+003;9.052300e-002
1.463768e+003;8.720144e-002
1.465697e+003;8.463690e-002
1.467625e+003;8.320621e-002
1.469554e+003;8.037123e-002
1.471482e+003;7.582092e-002
1.473411e+003;7.261460e-002
1.475339e+003;7.077380e-002
1.477268e+003;6.859648e-002
1.479196e+003;6.645543e-002
1.481125e+003;6.369024e-002
1.483053e+003;6.080970e-002
1.484982e+003;5.755934e-002
1.486911e+003;5.403575e-002
1.488839e+003;5.070170e-002
1.490768e+003;4.875774e-002
1.492696e+003;4.799885e-002
1.494625e+003;4.560499e-002
1.496553e+003;4.317920e-002
1.498482e+003;4.313597e-002
1.500410e+003;4.348735e-002
1.502339e+003;4.273048e-002
1.504267e+003;3.857905e-002
1.506196e+003;3.423931e-002
1.508125e+003;3.595992e-002
1.510053e+003;3.876953e-002
1.511982e+003;3.884207e-002
1.513910e+003;3.833121e-002
1.515839e+003;3.684903e-002
1.517767e+003;3.565728e-002
1.519696e+003;3.326352e-002
1.521624e+003;3.158129e-002
1.523553e+003;3.307887e-002
1.525481e+003;3.345755e-002
1.527410e+003;3.405948e-002
1.529339e+003;3.503520e-002
1.531267e+003;3.468177e-002
1.533196e+003;3.346775e-002
1.535124e+003;3.415213e-002
1.537053e+003;3.254046e-002
1.538981e+003;2.818804e-002
1.540910e+003;2.868692e-002
1.542838e+003;3.185811e-002
1.544767e+003;3.348328e-002
1.546695e+003;3.463555e-002
1.548624e+003;3.458133e-002
1.550553e+003;3.431454e-002
1.552481e+003;3.355258e-002
1.554410e+003;3.200001e-002
1.556338e+003;2.954184e-002
1.558267e+003;2.533189e-002
1.560195e+003;2.725364e-002
1.562124e+003;3.251553e-002
1.564052e+003;3.426610e-002
1.565981e+003;3.480349e-002
1.567910e+003;3.420515e-002
1.569838e+003;3.373273e-002
1.571767e+003;3.556287e-002
1.573695e+003;3.527064e-002
1.575624e+003;3.287192e-002
1.577552e+003;3.481742e-002
1.579481e+003;3.735114e-002
1.581409e+003;3.776902e-002
1.583338e+003;3.819212e-002
1.585266e+003;3.871465e-002
1.587195e+003;3.910814e-002
1.589124e+003;3.931191e-002
1.591052e+003;3.971709e-002
1.592981e+003;4.006810e-002
1.594909e+003;4.051949e-002
1.596838e+003;4.107401e-002
1.598766e+003;4.161410e-002
1.600695e+003;4.200632e-002
1.602623e+003;4.245359e-002
1.604552e+003;4.303407e-002
1.606480e+003;4.339477e-002
1.608409e+003;4.377673e-002
1.610338e+003;4.441315e-002
1.612266e+003;4.490222e-002
1.614195e+003;4.395525e-002
1.616123e+003;4.189761e-002
1.618052e+003;4.386070e-002
1.619980e+003;4.654322e-002
1.621909e+003;4.626780e-002
1.623837e+003;4.643897e-002
1.625766e+003;4.775564e-002
1.627694e+003;4.867749e-002
1.629623e+003;4.968234e-002
1.631552e+003;5.009694e-002
1.633480e+003;4.839978e-002
1.635409e+003;4.667864e-002
1.637337e+003;4.908327e-002
1.639266e+003;5.158605e-002
1.641194e+003;5.216423e-002
1.643123e+003;5.151635e-002
1.645051e+003;4.886496e-002
1.646980e+003;4.807128e-002
1.648909e+003;4.984278e-002
1.650837e+003;4.622597e-002
1.652766e+003;4.063714e-002
1.654694e+003;4.464095e-002
1.656623e+003;4.893683e-002
1.658551e+003;4.848839e-002
1.660480e+003;4.679871e-002
1.662408e+003;4.518972e-002
1.664337e+003;4.503544e-002
1.666266e+003;4.413545e-002
1.668194e+003;4.121072e-002
1.670123e+003;3.966855e-002
1.672051e+003;3.950493e-002
1.673980e+003;3.740472e-002
1.675908e+003;3.614069e-002
1.677837e+003;3.668372e-002
1.679765e+003;3.550696e-002
1.681694e+003;3.232834e-002
1.683622e+003;2.694209e-002
1.685551e+003;2.670591e-002
1.687479e+003;2.925527e-002
1.689408e+003;2.901567e-002
1.691337e+003;2.824900e-002
1.693265e+003;2.543858e-002
1.695194e+003;2.063681e-002
1.697122e+003;1.973940e-002
1.699051e+003;1.749999e-002
1.700979e+003;1.644840e-002
1.702908e+003;1.909116e-002
1.704836e+003;1.854352e-002
1.706765e+003;1.811782e-002
1.708693e+003;1.804794e-002
1.710622e+003;1.772911e-002
1.712551e+003;1.633437e-002
1.714479e+003;1.380145e-002
1.716408e+003;1.078260e-002
1.718336e+003;1.094835e-002
1.720265e+003;1.374601e-002
1.722193e+003;1.435478e-002
1.724122e+003;1.348269e-002
1.726050e+003;1.289691e-002
1.727979e+003;1.224083e-002
1.729908e+003;1.128744e-002
1.731836e+003;8.345726e-003
1.733765e+003;5.111230e-003
1.735693e+003;6.935400e-003
1.737622e+003;7.977713e-003
1.739550e+003;6.224724e-003
1.741479e+003;5.478062e-003
1.743407e+003;4.775259e-003
1.745336e+003;4.076434e-003
1.747265e+003;2.895840e-003
1.749193e+003;1.438941e-003
1.751122e+003;1.258197e-003
1.753050e+003;3.385878e-003
1.754979e+003;4.076401e-003
1.756907e+003;4.148216e-003
1.758836e+003;4.665090e-003
1.760764e+003;3.959822e-003
1.762693e+003;4.134133e-003
1.764621e+003;4.957104e-003
1.766550e+003;4.138014e-003
1.768479e+003;3.315691e-003
1.770407e+003;2.182447e-003
1.772336e+003;1.271789e-003
1.774264e+003;3.080436e-003
1.776193e+003;4.408585e-003
1.778121e+003;4.297806e-003
1.780050e+003;3.861660e-003
1.781978e+003;3.864535e-003
1.783907e+003;3.518170e-003
1.785835e+003;3.511489e-003
1.787764e+003;3.774083e-003
1.789693e+003;2.739563e-003
1.791621e+003;1.292326e-003
1.793550e+003;1.671245e-003
1.795478e+003;2.860084e-003
1.797407e+003;2.873525e-003
1.799335e+003;2.307777e-003
1.801264e+003;2.144253e-003
1.803192e+003;2.490391e-003
1.805121e+003;2.662479e-003
1.807049e+003;2.684450e-003
1.808978e+003;2.534214e-003
1.810907e+003;2.455734e-003
1.812835e+003;2.356480e-003
1.814764e+003;2.062980e-003
1.816692e+003;1.725698e-003
1.818621e+003;1.861245e-003
1.820549e+003;1.904107e-003
1.822478e+003;1.595781e-003
1.824406e+003;1.127357e-003
1.826335e+003;1.201976e-003
1.828264e+003;5.738629e-004
1.830192e+003;1.803197e-004
1.832121e+003;8.015226e-004
1.834049e+003;1.237595e-003
1.835978e+003;1.467664e-003
1.837906e+003;1.382828e-003
1.839835e+003;1.189616e-003
1.841763e+003;2.826590e-004
1.843692e+003;-9.825049e-004
1.845620e+003;-3.841849e-004
1.847549e+003;4.755681e-004
1.849478e+003;7.409788e-004
1.851406e+003;8.937157e-004
1.853335e+003;7.857220e-004
1.855263e+003;5.166349e-004
1.857192e+003;3.133954e-004
1.859120e+003;1.558574e-004
1.861049e+003;1.934796e-004
1.862977e+003;2.725135e-004
1.864906e+003;-3.018406e-005
1.866834e+003;-7.772251e-004
1.868763e+003;-1.253968e-003
1.870692e+003;-6.214479e-004
1.872620e+003;-2.002160e-004
1.874549e+003;-3.570713e-004
1.876477e+003;-3.403851e-004
1.878406e+003;-2.718791e-004
1.880334e+003;-3.613751e-004
1.882263e+003;-4.182814e-004
1.884191e+003;-4.268548e-004
1.886120e+003;-5.660243e-004
1.888048e+003;-8.425429e-004
1.889977e+003;-9.964887e-004
1.891906e+003;-6.488428e-004
1.893834e+003;-6.705127e-004
1.895763e+003;-7.187780e-004
1.897691e+003;-7.143454e-004
1.899620e+003;-8.515378e-004
1.901548e+003;-7.545021e-004
1.903477e+003;-6.145659e-004
1.905405e+003;-9.477914e-004
1.907334e+003;-1.129131e-003
1.909262e+003;-9.756947e-004
1.911191e+003;-8.425429e-004
1.913120e+003;-9.313263e-004
1.915048e+003;-1.081770e-003
1.916977e+003;-1.465561e-003
1.918905e+003;-1.133890e-003
1.920834e+003;-6.412002e-004
1.922762e+003;-7.990539e-004
1.924691e+003;-7.977310e-004
1.926619e+003;-6.045734e-004
1.928548e+003;-5.584133e-004
1.930477e+003;-6.884433e-004
1.932405e+003;-7.836415e-004
1.934334e+003;-6.160217e-004
1.936262e+003;-2.811507e-004
1.938191e+003;-1.781583e-004
1.940119e+003;-5.774405e-004
1.942048e+003;-6.714721e-004
1.943976e+003;-3.483972e-004
1.945905e+003;-2.180666e-004
1.947833e+003;-2.498913e-004
1.949762e+003;-2.492621e-004
1.951691e+003;-3.147256e-004
1.953619e+003;-3.403189e-004
1.955548e+003;-2.171393e-004
1.957476e+003;-1.537392e-005
1.959405e+003;-3.578461e-006
1.961333e+003;-9.524992e-005
1.963262e+003;-1.753762e-004
1.965190e+003;-2.263459e-004
1.967119e+003;-1.241355e-004
1.969047e+003;1.354399e-004
1.970976e+003;3.737681e-005
1.972905e+003;-9.634310e-005
1.974833e+003;-1.544019e-005
1.976762e+003;1.663361e-005
1.978690e+003;1.035231e-004
1.980619e+003;3.264267e-004
1.982547e+003;3.643290e-004
1.984476e+003;3.378667e-004
1.986404e+003;3.882062e-004
1.988333e+003;2.864388e-004
1.990261e+003;1.020317e-004
1.992190e+003;1.121069e-004
1.994119e+003;3.121354e-004
1.996047e+003;3.806781e-004
1.997976e+003;3.021550e-004
1.999904e+003;2.389953e-004
2.001833e+003;3.015913e-004
2.003761e+003;4.038597e-004
2.005690e+003;4.351353e-004
2.007618e+003;4.387837e-004
2.009547e+003;5.190234e-004
2.011476e+003;8.441474e-004
2.013404e+003;8.201456e-004
2.015333e+003;7.539897e-004
2.017261e+003;8.913251e-004
2.019190e+003;8.926864e-004
2.021118e+003;8.760192e-004
2.023047e+003;9.922712e-004
2.024975e+003;1.002467e-003
2.026904e+003;1.104834e-003
2.028833e+003;1.346865e-003
2.030761e+003;1.545102e-003
2.032690e+003;1.507728e-003
2.034618e+003;1.500180e-003
2.036547e+003;1.725033e-003
2.038475e+003;1.768747e-003
2.040404e+003;1.532134e-003
2.042332e+003;1.516273e-003
2.044261e+003;1.682787e-003
2.046189e+003;1.784949e-003
2.048118e+003;1.904074e-003
2.050047e+003;1.981256e-003
2.051975e+003;1.981156e-003
2.053904e+003;1.889032e-003
2.055832e+003;1.750615e-003
2.057761e+003;1.720476e-003
2.059689e+003;1.429499e-003
2.061618e+003;1.097559e-003
2.063546e+003;1.180180e-003
2.065475e+003;1.342510e-003
2.067404e+003;1.357301e-003
2.069332e+003;1.200813e-003
2.071260e+003;1.138054e-003
2.073189e+003;1.446653e-003
2.075118e+003;1.685482e-003
2.077046e+003;1.623684e-003
2.078975e+003;1.539150e-003
2.080903e+003;1.545999e-003
2.082832e+003;1.504503e-003
2.084760e+003;1.373189e-003
2.086689e+003;1.293589e-003
2.088617e+003;1.240785e-003
2.090546e+003;1.162737e-003
2.092475e+003;1.197058e-003
2.094403e+003;1.255406e-003
2.096332e+003;1.073311e-003
2.098260e+003;9.168250e-004
2.100189e+003;1.049927e-003
2.102117e+003;1.142572e-003
2.104046e+003;1.329715e-003
2.105974e+003;1.646300e-003
2.107903e+003;1.762991e-003
2.109832e+003;1.647098e-003
2.111760e+003;1.680459e-003
2.113688e+003;1.820550e-003
2.115617e+003;1.779326e-003
2.117546e+003;1.658140e-003
2.119474e+003;1.390872e-003
2.121403e+003;1.314759e-003
2.123331e+003;1.275710e-003
2.125260e+003;1.304390e-003
2.127188e+003;1.508991e-003
2.129117e+003;1.788775e-003
2.131045e+003;1.932462e-003
2.132974e+003;1.666190e-003
2.134903e+003;1.445589e-003
2.136831e+003;1.355606e-003
2.138760e+003;1.425444e-003
2.140688e+003;1.540679e-003
2.142617e+003;1.487746e-003
2.144545e+003;1.161010e-003
2.146474e+003;7.663703e-004
2.148402e+003;8.424211e-004
2.150331e+003;1.065206e-003
2.152260e+003;1.239024e-003
2.154188e+003;1.188586e-003
2.156117e+003;1.078127e-003
2.158045e+003;9.563065e-004
2.159974e+003;8.908602e-004
2.161902e+003;8.653618e-004
2.163831e+003;6.204472e-004
2.165759e+003;5.582696e-004
2.167688e+003;5.497101e-004
2.169616e+003;3.585257e-004
2.171545e+003;3.411495e-004
2.173474e+003;1.105492e-004
2.175402e+003;-2.966471e-004
2.177331e+003;-3.350547e-004
2.179259e+003;-3.802454e-004
2.181188e+003;-6.134740e-004
2.183116e+003;-4.766035e-004
2.185045e+003;-4.284768e-004
2.186973e+003;-8.120515e-004
2.188902e+003;-1.017216e-003
2.190831e+003;-1.143209e-003
2.192759e+003;-1.335995e-003
2.194688e+003;-1.346202e-003
2.196616e+003;-1.369323e-003
2.198545e+003;-1.712763e-003
2.200473e+003;-1.778336e-003
2.202402e+003;-1.474180e-003
2.204330e+003;-1.371900e-003
2.206259e+003;-1.557552e-003
2.208188e+003;-1.820473e-003
2.210116e+003;-1.797376e-003
2.212044e+003;-1.451592e-003
2.213973e+003;-1.436170e-003
2.215902e+003;-1.501026e-003
2.217830e+003;-1.411401e-003
2.219759e+003;-1.571583e-003
2.221687e+003;-1.846407e-003
2.223616e+003;-1.860627e-003
2.225544e+003;-1.838917e-003
2.227473e+003;-1.884711e-003
2.229401e+003;-1.912488e-003
2.231330e+003;-2.010287e-003
2.233259e+003;-1.911234e-003
2.235187e+003;-1.865279e-003
2.237116e+003;-2.062856e-003
2.239044e+003;-2.203414e-003
2.240973e+003;-2.220919e-003
2.242901e+003;-2.233380e-003
2.244830e+003;-2.128541e-003
2.246758e+003;-2.155544e-003
2.248687e+003;-2.216634e-003
2.250615e+003;-2.063285e-003
2.252544e+003;-2.126662e-003
2.254473e+003;-2.385647e-003
2.256401e+003;-2.647969e-003
2.258330e+003;-2.842129e-003
2.260258e+003;-2.675500e-003
2.262187e+003;-2.599127e-003
2.264115e+003;-2.698287e-003
2.266044e+003;-2.608909e-003
2.267972e+003;-2.784618e-003
2.269901e+003;-3.200326e-003
2.271830e+003;-3.020869e-003
2.273758e+003;-2.862603e-003
2.275687e+003;-2.823925e-003
2.277615e+003;-2.641777e-003
2.279544e+003;-2.730819e-003
2.281472e+003;-3.020672e-003
2.283401e+003;-3.106018e-003
2.285329e+003;-2.974406e-003
2.287258e+003;-2.958511e-003
2.289187e+003;-3.134671e-003
2.291115e+003;-3.086377e-003
2.293043e+003;-2.837751e-003
2.294972e+003;-2.817341e-003
2.296901e+003;-2.744846e-003
2.298829e+003;-2.819185e-003
2.300758e+003;-2.939127e-003
2.302686e+003;-2.925502e-003
2.304615e+003;-2.871195e-003
2.306543e+003;-3.023634e-003
2.308472e+003;-3.232755e-003
2.310400e+003;-3.494401e-003
2.312329e+003;-3.676914e-003
2.314258e+003;-3.545640e-003
2.316186e+003;-3.296718e-003
2.318115e+003;-3.034327e-003
2.320043e+003;-2.886500e-003
2.321972e+003;-2.864085e-003
2.323900e+003;-2.775399e-003
2.325829e+003;-2.740796e-003
2.327757e+003;-2.654094e-003
2.329686e+003;-2.905327e-003
2.331615e+003;-3.252487e-003
2.333543e+003;-3.137006e-003
2.335472e+003;-2.864183e-003
2.337400e+003;-2.599094e-003
2.339329e+003;-2.490160e-003
2.341257e+003;-2.272770e-003
2.343186e+003;-2.183568e-003
2.345114e+003;-2.304972e-003
2.347043e+003;-2.325274e-003
2.348971e+003;-2.267892e-003
2.350900e+003;-2.075387e-003
2.352829e+003;-1.946398e-003
2.354757e+003;-1.689857e-003
2.356686e+003;-1.596442e-003
2.358614e+003;-1.590566e-003
2.360543e+003;-1.644473e-003
2.362471e+003;-1.561051e-003
2.364400e+003;-1.433264e-003
2.366328e+003;-1.252514e-003
2.368257e+003;-1.279869e-003
2.370186e+003;-1.478209e-003
2.372114e+003;-1.745897e-003
2.374042e+003;-1.868446e-003
2.375971e+003;-1.524073e-003
2.377900e+003;-1.058931e-003
2.379828e+003;-9.791328e-004
2.381757e+003;-9.737111e-004
2.383685e+003;-9.004773e-004
2.385614e+003;-8.691964e-004
2.387542e+003;-8.620206e-004
2.389471e+003;-5.617886e-004
2.391399e+003;-3.965990e-004
2.393328e+003;-2.339958e-004
2.395257e+003;-1.255267e-004
2.397185e+003;-7.123235e-005
2.399114e+003;5.252063e-005
2.401042e+003;5.702742e-005
2.402971e+003;4.065737e-005
2.404899e+003;1.060291e-006
2.406828e+003;-3.773803e-005
2.408756e+003;1.529405e-004
2.410685e+003;4.070104e-004
2.412614e+003;5.963913e-004
2.414542e+003;7.400494e-004
2.416471e+003;8.843527e-004
2.418399e+003;9.692574e-004
2.420328e+003;1.060091e-003
2.422256e+003;1.263415e-003
2.424185e+003;1.493797e-003
2.426113e+003;1.699785e-003
2.428042e+003;1.757435e-003
2.429970e+003;1.874289e-003
2.431899e+003;2.172324e-003
2.433828e+003;2.382799e-003
2.435756e+003;2.479394e-003
2.437685e+003;2.626009e-003
2.439613e+003;2.708688e-003
2.441542e+003;2.798286e-003
2.443470e+003;2.854614e-003
2.445399e+003;2.982473e-003
2.447327e+003;3.189369e-003
2.449256e+003;3.437708e-003
2.451185e+003;3.355758e-003
2.453113e+003;3.422646e-003
2.455042e+003;3.921036e-003
2.456970e+003;3.997441e-003
2.458899e+003;4.045230e-003
2.460827e+003;4.603805e-003
2.462756e+003;4.619778e-003
2.464684e+003;4.087739e-003
2.466613e+003;3.988245e-003
2.468542e+003;4.374143e-003
2.470470e+003;4.793048e-003
2.472398e+003;4.977615e-003
2.474327e+003;5.250018e-003
2.476256e+003;5.514907e-003
2.478184e+003;5.591156e-003
2.480113e+003;5.700653e-003
2.482041e+003;5.815316e-003
2.483970e+003;5.650601e-003
2.485898e+003;5.538096e-003
2.487827e+003;5.661980e-003
2.489755e+003;5.887286e-003
2.491684e+003;6.089489e-003
2.493613e+003;6.371298e-003
2.495541e+003;6.616754e-003
2.497470e+003;6.755586e-003
2.499398e+003;6.686366e-003
2.501327e+003;6.641246e-003
2.503255e+003;6.728899e-003
2.505184e+003;6.773860e-003
2.507112e+003;6.965735e-003
2.509041e+003;7.443165e-003
2.510969e+003;7.854617e-003
2.512898e+003;7.580880e-003
2.514827e+003;7.347954e-003
2.516755e+003;7.296026e-003
2.518684e+003;7.300777e-003
2.520612e+003;7.750883e-003
2.522541e+003;8.232960e-003
2.524469e+003;8.272335e-003
2.526398e+003;8.128392e-003
2.528326e+003;8.333567e-003
2.530255e+003;8.472543e-003
2.532184e+003;8.325325e-003
2.534112e+003;8.486092e-003
2.536041e+003;8.804422e-003
2.537969e+003;8.917607e-003
2.539898e+003;8.976325e-003
2.541826e+003;9.039788e-003
2.543755e+003;9.163965e-003
2.545683e+003;9.475241e-003
2.547612e+003;9.664791e-003
2.549541e+003;9.703957e-003
2.551469e+003;9.518523e-003
2.553397e+003;9.429188e-003
2.555326e+003;9.643955e-003
2.557255e+003;9.720798e-003
2.559183e+003;9.905640e-003
2.561112e+003;1.019269e-002
2.563040e+003;1.016796e-002
2.564969e+003;1.021202e-002
2.566897e+003;1.038550e-002
2.568826e+003;1.021884e-002
2.570754e+003;1.010559e-002
2.572683e+003;1.023431e-002
2.574612e+003;1.049669e-002
2.576540e+003;1.044146e-002
2.578469e+003;1.040498e-002
2.580397e+003;1.069045e-002
2.582326e+003;1.105741e-002
2.584254e+003;1.114218e-002
2.586183e+003;1.102774e-002
2.588111e+003;1.114450e-002
2.590040e+003;1.125639e-002
2.591969e+003;1.147788e-002
2.593897e+003;1.201224e-002
2.595826e+003;1.229196e-002
2.597754e+003;1.221432e-002
2.599683e+003;1.220628e-002
2.601611e+003;1.235468e-002
2.603540e+003;1.240657e-002
2.605468e+003;1.258263e-002
2.607397e+003;1.267310e-002
2.609325e+003;1.278542e-002
2.611254e+003;1.326697e-002
2.613183e+003;1.362236e-002
2.615111e+003;1.379430e-002
2.617040e+003;1.413295e-002
2.618968e+003;1.451690e-002
2.620897e+003;1.479138e-002
2.622825e+003;1.478432e-002
2.624754e+003;1.473705e-002
2.626682e+003;1.505845e-002
2.628611e+003;1.568809e-002
2.630540e+003;1.628022e-002
2.632468e+003;1.654357e-002
2.634396e+003;1.654443e-002
2.636325e+003;1.652095e-002
2.638254e+003;1.675995e-002
2.640182e+003;1.690131e-002
2.642111e+003;1.738745e-002
2.644039e+003;1.790396e-002
2.645968e+003;1.815226e-002
2.647896e+003;1.817665e-002
2.649825e+003;1.813392e-002
2.651753e+003;1.829075e-002
2.653682e+003;1.872081e-002
2.655611e+003;1.923331e-002
2.657539e+003;1.956336e-002
2.659468e+003;1.994840e-002
2.661396e+003;2.025977e-002
2.663325e+003;2.035330e-002
2.665253e+003;2.068119e-002
2.667182e+003;2.103881e-002
2.669110e+003;2.126681e-002
2.671039e+003;2.141033e-002
2.672968e+003;2.171411e-002
2.674896e+003;2.184576e-002
2.676825e+003;2.186053e-002
2.678753e+003;2.232240e-002
2.680682e+003;2.281779e-002
2.682610e+003;2.301413e-002
2.684539e+003;2.304620e-002
2.686467e+003;2.322520e-002
2.688396e+003;2.364787e-002
2.690324e+003;2.415059e-002
2.692253e+003;2.447686e-002
2.694182e+003;2.480096e-002
2.696110e+003;2.501947e-002
2.698039e+003;2.499090e-002
2.699967e+003;2.519033e-002
2.701896e+003;2.578548e-002
2.703824e+003;2.635908e-002
2.705753e+003;2.659180e-002
2.707681e+003;2.659800e-002
2.709610e+003;2.676877e-002
2.711539e+003;2.708274e-002
2.713467e+003;2.717977e-002
2.715396e+003;2.739044e-002
2.717324e+003;2.808142e-002
2.719253e+003;2.848913e-002
2.721181e+003;2.846585e-002
2.723110e+003;2.849862e-002
2.725038e+003;2.874115e-002
2.726967e+003;2.891454e-002
2.728896e+003;2.927210e-002
2.730824e+003;2.949280e-002
2.732752e+003;2.962711e-002
2.734681e+003;2.988774e-002
2.736610e+003;3.029488e-002
2.738538e+003;3.044817e-002
2.740467e+003;3.042635e-002
2.742395e+003;3.030021e-002
2.744324e+003;3.036544e-002
2.746252e+003;3.075493e-002
2.748181e+003;3.131420e-002
2.750109e+003;3.146953e-002
2.752038e+003;3.169929e-002
2.753967e+003;3.193275e-002
2.755895e+003;3.188564e-002
2.757824e+003;3.221521e-002
2.759752e+003;3.251825e-002
2.761681e+003;3.257796e-002
2.763609e+003;3.300557e-002
2.765538e+003;3.354882e-002
2.767466e+003;3.420648e-002
2.769395e+003;3.495117e-002
2.771323e+003;3.531197e-002
2.773252e+003;3.537084e-002
2.775181e+003;3.548517e-002
2.777109e+003;3.582802e-002
2.779038e+003;3.617659e-002
2.780966e+003;3.629620e-002
2.782895e+003;3.630064e-002
2.784823e+003;3.668675e-002
2.786752e+003;3.752699e-002
2.788680e+003;3.824165e-002
2.790609e+003;3.866003e-002
2.792538e+003;3.873388e-002
2.794466e+003;3.926701e-002
2.796395e+003;3.972435e-002
2.798323e+003;3.992122e-002
2.800252e+003;4.082194e-002
2.802180e+003;4.170382e-002
2.804109e+003;4.238597e-002
2.806037e+003;4.278693e-002
2.807966e+003;4.293497e-002
2.809895e+003;4.372385e-002
2.811823e+003;4.503555e-002
2.813751e+003;4.578415e-002
2.815680e+003;4.631048e-002
2.817609e+003;4.707602e-002
2.819537e+003;4.823979e-002
2.821466e+003;4.895325e-002
2.823394e+003;4.929448e-002
2.825323e+003;5.002262e-002
2.827251e+003;5.101106e-002
2.829180e+003;5.185639e-002
2.831108e+003;5.290707e-002
2.833037e+003;5.412124e-002
2.834966e+003;5.551763e-002
2.836894e+003;5.716034e-002
2.838823e+003;5.872109e-002
2.840751e+003;6.050565e-002
2.842680e+003;6.283227e-002
2.844608e+003;6.560721e-002
2.846537e+003;6.863909e-002
2.848465e+003;7.173228e-002
2.850394e+003;7.403082e-002
2.852323e+003;7.512522e-002
2.854251e+003;7.599960e-002
2.856180e+003;7.718918e-002
2.858108e+003;7.821870e-002
2.860037e+003;7.962396e-002
2.861965e+003;8.135830e-002
2.863894e+003;8.296136e-002
2.865822e+003;8.446429e-002
2.867751e+003;8.552853e-002
2.869679e+003;8.679911e-002
2.871608e+003;8.816678e-002
2.873536e+003;8.918089e-002
2.875465e+003;8.971491e-002
2.877394e+003;9.056638e-002
2.879322e+003;9.163248e-002
2.881251e+003;9.259982e-002
2.883179e+003;9.315018e-002
2.885108e+003;9.353923e-002
2.887036e+003;9.421284e-002
2.888965e+003;9.519961e-002
2.890893e+003;9.570746e-002
2.892822e+003;9.586932e-002
2.894750e+003;9.565960e-002
2.896679e+003;9.537493e-002
2.898608e+003;9.512626e-002
2.900536e+003;9.472384e-002
2.902465e+003;9.453909e-002
2.904393e+003;9.463524e-002
2.906322e+003;9.445099e-002
2.908250e+003;9.398553e-002
2.910179e+003;9.334669e-002
2.912107e+003;9.274965e-002
2.914036e+003;9.271342e-002
2.915965e+003;9.288463e-002
2.917893e+003;9.243971e-002
2.919822e+003;9.169116e-002
2.921750e+003;9.041739e-002
2.923679e+003;8.878223e-002
2.925607e+003;8.694542e-002
2.927536e+003;8.494858e-002
2.929464e+003;8.281390e-002
2.931393e+003;8.111660e-002
2.933322e+003;7.969684e-002
2.935250e+003;7.785909e-002
2.937178e+003;7.630008e-002
2.939107e+003;7.541579e-002
2.941036e+003;7.396206e-002
2.942964e+003;7.224936e-002
2.944893e+003;7.078004e-002
2.946821e+003;6.925730e-002
2.948750e+003;6.765187e-002
2.950678e+003;6.572395e-002
2.952607e+003;6.369262e-002
2.954535e+003;6.199487e-002
2.956464e+003;6.029474e-002
2.958393e+003;5.888825e-002
2.960321e+003;5.778259e-002
2.962250e+003;5.606989e-002
2.964178e+003;5.416872e-002
2.966107e+003;5.260398e-002
2.968035e+003;5.170479e-002
2.969964e+003;5.122438e-002
2.971892e+003;5.049210e-002
2.973821e+003;4.914797e-002
2.975750e+003;4.769540e-002
2.977678e+003;4.631874e-002
2.979607e+003;4.511825e-002
2.981535e+003;4.397721e-002
2.983464e+003;4.287455e-002
2.985392e+003;4.215965e-002
2.987321e+003;4.158704e-002
2.989249e+003;4.096917e-002
2.991178e+003;4.040449e-002
2.993106e+003;3.975703e-002
2.995035e+003;3.921094e-002
2.996964e+003;3.876058e-002
2.998892e+003;3.829890e-002
3.000821e+003;3.784612e-002
3.002749e+003;3.785317e-002
3.004678e+003;3.797068e-002
3.006606e+003;3.748335e-002
3.008535e+003;3.747078e-002
3.010463e+003;3.779323e-002
3.012392e+003;3.819125e-002
3.014321e+003;3.902643e-002
3.016249e+003;3.909523e-002
3.018177e+003;3.880971e-002
3.020106e+003;3.882899e-002
3.022035e+003;3.914900e-002
3.023963e+003;3.974073e-002
3.025892e+003;4.032152e-002
3.027820e+003;4.090112e-002
3.029749e+003;4.141424e-002
3.031677e+003;4.198059e-002
3.033606e+003;4.224166e-002
3.035534e+003;4.227588e-002
3.037463e+003;4.266852e-002
3.039392e+003;4.336094e-002
3.041320e+003;4.396694e-002
3.043249e+003;4.469647e-002
3.045177e+003;4.521715e-002
3.047106e+003;4.551928e-002
3.049034e+003;4.628951e-002
3.050963e+003;4.732272e-002
3.052891e+003;4.816679e-002
3.054820e+003;4.870506e-002
3.056749e+003;4.890834e-002
3.058677e+003;4.927021e-002
3.060606e+003;5.008560e-002
3.062534e+003;5.105679e-002
3.064463e+003;5.191684e-002
3.066391e+003;5.261072e-002
3.068320e+003;5.290909e-002
3.070248e+003;5.378937e-002
3.072177e+003;5.477027e-002
3.074105e+003;5.517626e-002
3.076034e+003;5.577156e-002
3.077963e+003;5.690930e-002
3.079891e+003;5.801429e-002
3.081820e+003;5.865912e-002
3.083748e+003;5.914119e-002
3.085677e+003;6.037664e-002
3.087605e+003;6.149572e-002
3.089534e+003;6.188351e-002
3.091462e+003;6.226301e-002
3.093391e+003;6.319539e-002
3.095320e+003;6.409474e-002
3.097248e+003;6.494772e-002
3.099177e+003;6.569577e-002
3.101105e+003;6.582569e-002
3.103034e+003;6.667500e-002
3.104962e+003;6.826302e-002
3.106891e+003;6.901234e-002
3.108819e+003;6.916008e-002
3.110748e+003;6.985908e-002
3.112677e+003;7.078468e-002
3.114605e+003;7.148388e-002
3.116533e+003;7.235009e-002
3.118462e+003;7.343901e-002
3.120391e+003;7.486434e-002
3.122319e+003;7.586408e-002
3.124248e+003;7.551466e-002
3.126176e+003;7.570904e-002
3.128105e+003;7.719290e-002
3.130033e+003;7.846430e-002
3.131962e+003;7.950087e-002
3.133890e+003;8.069649e-002
3.135819e+003;8.128418e-002
3.137748e+003;8.198301e-002
3.139676e+003;8.280552e-002
3.141605e+003;8.338479e-002
3.143533e+003;8.402501e-002
3.145462e+003;8.479050e-002
3.147390e+003;8.604696e-002
3.149319e+003;8.731595e-002
3.151247e+003;8.822495e-002
3.153176e+003;8.916853e-002
3.155104e+003;9.006666e-002
3.157033e+003;9.083725e-002
3.158962e+003;9.155155e-002
3.160890e+003;9.271478e-002
3.162819e+003;9.417658e-002
3.164747e+003;9.513938e-002
3.166676e+003;9.575658e-002
3.168604e+003;9.655442e-002
3.170533e+003;9.759685e-002
3.172461e+003;9.863217e-002
3.174390e+003;9.943715e-002
3.176319e+003;1.000828e-001
3.178247e+003;1.008742e-001
3.180176e+003;1.016632e-001
3.182104e+003;1.022723e-001
3.184033e+003;1.030243e-001
3.185961e+003;1.039349e-001
3.187890e+003;1.046463e-001
3.189818e+003;1.054188e-001
3.191747e+003;1.062426e-001
3.193676e+003;1.072506e-001
3.195604e+003;1.085556e-001
3.197532e+003;1.094487e-001
3.199461e+003;1.100670e-001
3.201390e+003;1.110394e-001
3.203318e+003;1.123286e-001
3.205247e+003;1.135180e-001
3.207175e+003;1.143778e-001
3.209104e+003;1.153374e-001
3.211032e+003;1.162946e-001
3.212961e+003;1.166811e-001
3.214889e+003;1.171116e-001
3.216818e+003;1.178936e-001
3.218747e+003;1.194335e-001
3.220675e+003;1.207679e-001
3.222604e+003;1.211835e-001
3.224532e+003;1.212177e-001
3.226461e+003;1.215553e-001
3.228389e+003;1.223757e-001
3.230318e+003;1.239642e-001
3.232246e+003;1.248773e-001
3.234175e+003;1.257008e-001
3.236104e+003;1.271078e-001
3.238032e+003;1.279481e-001
3.239961e+003;1.284925e-001
3.241889e+003;1.295321e-001
3.243818e+003;1.305308e-001
3.245746e+003;1.310799e-001
3.247675e+003;1.319146e-001
3.249603e+003;1.328652e-001
3.251532e+003;1.337502e-001
3.253460e+003;1.344357e-001
3.255389e+003;1.350893e-001
3.257318e+003;1.358051e-001
3.259246e+003;1.364687e-001
3.261175e+003;1.370292e-001
3.263103e+003;1.375963e-001
3.265032e+003;1.383511e-001
3.266960e+003;1.395699e-001
3.268889e+003;1.403061e-001
3.270817e+003;1.405668e-001
3.272746e+003;1.408389e-001
3.274675e+003;1.412505e-001
3.276603e+003;1.415619e-001
3.278531e+003;1.419336e-001
3.280460e+003;1.424039e-001
3.282389e+003;1.427767e-001
3.284317e+003;1.431208e-001
3.286246e+003;1.434078e-001
3.288174e+003;1.434929e-001
3.290103e+003;1.442205e-001
3.292031e+003;1.453132e-001
3.293960e+003;1.461226e-001
3.295888e+003;1.461829e-001
3.297817e+003;1.457528e-001
3.299746e+003;1.454818e-001
3.301674e+003;1.456628e-001
3.303603e+003;1.459956e-001
3.305531e+003;1.468856e-001
3.307460e+003;1.475056e-001
3.309388e+003;1.477739e-001
3.311317e+003;1.486536e-001
3.313245e+003;1.492274e-001
3.315174e+003;1.490010e-001
3.317103e+003;1.484431e-001
3.319031e+003;1.480516e-001
3.320960e+003;1.479019e-001
3.322888e+003;1.483695e-001
3.324817e+003;1.497694e-001
3.326745e+003;1.503228e-001
3.328674e+003;1.497056e-001
3.330602e+003;1.491762e-001
3.332531e+003;1.495283e-001
3.334459e+003;1.499020e-001
3.336388e+003;1.496644e-001
3.338317e+003;1.492019e-001
3.340245e+003;1.488883e-001
3.342174e+003;1.489646e-001
3.344102e+003;1.485110e-001
3.346031e+003;1.474585e-001
3.347959e+003;1.469336e-001
3.349888e+003;1.472270e-001
3.351816e+003;1.467505e-001
3.353745e+003;1.457871e-001
3.355674e+003;1.445458e-001
3.357602e+003;1.438406e-001
3.359531e+003;1.441633e-001
3.361459e+003;1.440623e-001
3.363388e+003;1.438400e-001
3.365316e+003;1.433858e-001
3.367245e+003;1.428761e-001
3.369173e+003;1.428711e-001
3.371102e+003;1.426908e-001
3.373031e+003;1.421911e-001
3.374959e+003;1.413538e-001
3.376887e+003;1.401722e-001
3.378816e+003;1.398625e-001
3.380745e+003;1.402372e-001
3.382673e+003;1.398896e-001
3.384602e+003;1.386114e-001
3.386530e+003;1.374727e-001
3.388459e+003;1.368891e-001
3.390387e+003;1.362329e-001
3.392316e+003;1.360731e-001
3.394244e+003;1.361421e-001
3.396173e+003;1.353064e-001
3.398102e+003;1.339875e-001
3.400030e+003;1.331940e-001
3.401959e+003;1.328519e-001
3.403887e+003;1.325313e-001
3.405816e+003;1.318249e-001
3.407744e+003;1.309039e-001
3.409673e+003;1.299138e-001
3.411601e+003;1.285847e-001
3.413530e+003;1.277852e-001
3.415458e+003;1.275011e-001
3.417387e+003;1.266212e-001
3.419316e+003;1.254693e-001
3.421244e+003;1.243524e-001
3.423173e+003;1.233173e-001
3.425101e+003;1.228209e-001
3.427030e+003;1.221866e-001
3.428958e+003;1.209464e-001
3.430887e+003;1.199032e-001
3.432815e+003;1.191753e-001
3.434744e+003;1.186456e-001
3.436673e+003;1.175267e-001
3.438601e+003;1.161912e-001
3.440530e+003;1.158589e-001
3.442458e+003;1.146867e-001
3.444387e+003;1.125629e-001
3.446315e+003;1.110601e-001
3.448244e+003;1.105990e-001
3.450172e+003;1.102305e-001
3.452101e+003;1.090676e-001
3.454030e+003;1.078717e-001
3.455958e+003;1.071183e-001
3.457886e+003;1.061992e-001
3.459815e+003;1.047694e-001
3.461744e+003;1.034046e-001
3.463672e+003;1.022196e-001
3.465601e+003;1.012109e-001
3.467529e+003;1.003488e-001
3.469458e+003;9.878027e-002
3.471386e+003;9.706415e-002
3.473315e+003;9.563506e-002
3.475243e+003;9.462997e-002
3.477172e+003;9.399668e-002
3.479101e+003;9.325756e-002
3.481029e+003;9.130972e-002
3.482958e+003;8.895376e-002
3.484886e+003;8.752643e-002
3.486815e+003;8.655915e-002
3.488743e+003;8.597463e-002
3.490672e+003;8.568268e-002
3.492600e+003;8.441322e-002
3.494529e+003;8.232006e-002
3.496458e+003;8.055850e-002
3.498386e+003;7.891933e-002
3.500315e+003;7.803152e-002
3.502243e+003;7.697531e-002
3.504172e+003;7.515772e-002
3.506100e+003;7.415252e-002
3.508029e+003;7.286639e-002
3.509957e+003;7.127760e-002
3.511886e+003;7.047272e-002
3.513814e+003;7.024974e-002
3.515743e+003;6.887786e-002
3.517672e+003;6.696163e-002
3.519600e+003;6.490351e-002
3.521529e+003;6.327112e-002
3.523457e+003;6.222405e-002
3.525386e+003;6.107010e-002
3.527314e+003;5.946172e-002
3.529243e+003;5.813371e-002
3.531171e+003;5.761321e-002
3.533100e+003;5.730622e-002
3.535029e+003;5.577174e-002
3.536957e+003;5.379706e-002
3.538885e+003;5.240308e-002
3.540814e+003;5.106826e-002
3.542743e+003;4.948055e-002
3.544671e+003;4.828145e-002
3.546600e+003;4.761372e-002
3.548528e+003;4.610959e-002
3.550457e+003;4.378568e-002
3.552385e+003;4.235631e-002
3.554314e+003;4.191352e-002
3.556242e+003;4.123761e-002
3.558171e+003;3.995403e-002
3.560100e+003;3.832539e-002
3.562028e+003;3.642464e-002
3.563957e+003;3.500198e-002
3.565885e+003;3.325354e-002
3.567814e+003;3.153683e-002
3.569742e+003;3.069930e-002
3.571671e+003;2.992150e-002
3.573599e+003;2.862427e-002
3.575528e+003;2.743794e-002
3.577457e+003;2.584754e-002
3.579385e+003;2.477230e-002
3.581314e+003;2.433327e-002
3.583242e+003;2.301864e-002
3.585171e+003;2.056785e-002
3.587099e+003;1.831094e-002
3.589028e+003;1.769453e-002
3.590956e+003;1.709568e-002
3.592885e+003;1.582618e-002
3.594813e+003;1.435197e-002
3.596742e+003;1.313448e-002
3.598671e+003;1.192314e-002
3.600599e+003;1.097499e-002
3.602528e+003;1.039432e-002
3.604456e+003;9.217200e-003
3.606385e+003;6.843531e-003
3.608313e+003;4.722365e-003
3.610242e+003;3.976273e-003
3.612170e+003;3.210865e-003
3.614099e+003;2.309509e-003
3.616028e+003;8.158633e-004
3.617956e+003;-1.427914e-003
3.619885e+003;-2.212315e-003
3.621813e+003;-1.872471e-003
3.623742e+003;-2.309190e-003
3.625670e+003;-3.750273e-003
3.627599e+003;-7.285915e-003
3.629527e+003;-8.445779e-003
3.631456e+003;-6.905376e-003
3.633385e+003;-7.570367e-003
3.635313e+003;-8.499004e-003
3.637241e+003;-8.493902e-003
3.639170e+003;-9.084925e-003
3.641099e+003;-1.054769e-002
3.643027e+003;-1.159476e-002
3.644956e+003;-1.313247e-002
3.646884e+003;-1.590168e-002
3.648813e+003;-1.830757e-002
3.650741e+003;-1.791623e-002
3.652670e+003;-1.626424e-002
3.654598e+003;-1.711292e-002
3.656527e+003;-1.734122e-002
3.658456e+003;-1.668019e-002
3.660384e+003;-1.727728e-002
3.662313e+003;-1.772892e-002
3.664241e+003;-1.829700e-002
3.666170e+003;-1.990540e-002
3.668098e+003;-2.257918e-002
3.670027e+003;-2.404664e-002
3.671955e+003;-2.283615e-002
3.673884e+003;-2.457352e-002
3.675813e+003;-2.572915e-002
3.677741e+003;-2.306809e-002
3.679669e+003;-2.170210e-002
3.681598e+003;-2.170153e-002
3.683527e+003;-2.225308e-002
3.685455e+003;-2.317142e-002
3.687384e+003;-2.600970e-002
3.689312e+003;-2.669287e-002
3.691241e+003;-2.552231e-002
3.693169e+003;-2.452896e-002
3.695098e+003;-2.414143e-002
3.697026e+003;-2.356001e-002
3.698955e+003;-2.393038e-002
3.700884e+003;-2.530227e-002
3.702812e+003;-2.552440e-002
3.704741e+003;-2.528133e-002
3.706669e+003;-2.565310e-002
3.708598e+003;-2.691112e-002
3.710526e+003;-2.853562e-002
3.712455e+003;-2.838675e-002
3.714383e+003;-2.656632e-002
3.716312e+003;-2.615174e-002
3.718240e+003;-2.664476e-002
3.720169e+003;-2.669910e-002
3.722098e+003;-2.656485e-002
3.724026e+003;-2.679397e-002
3.725955e+003;-2.705578e-002
3.727883e+003;-2.678438e-002
3.729812e+003;-2.766447e-002
3.731740e+003;-2.993958e-002
3.733669e+003;-3.111706e-002
3.735597e+003;-3.077044e-002
3.737526e+003;-2.863241e-002
3.739455e+003;-2.782654e-002
3.741383e+003;-2.937662e-002
3.743312e+003;-3.323234e-002
3.745240e+003;-3.255072e-002
3.747169e+003;-3.073978e-002
3.749097e+003;-3.272053e-002
3.751026e+003;-3.355811e-002
3.752954e+003;-3.106719e-002
3.754883e+003;-2.797249e-002
3.756812e+003;-2.816658e-002
3.758740e+003;-2.881762e-002
3.760668e+003;-2.898593e-002
3.762597e+003;-2.843073e-002
3.764526e+003;-2.875929e-002
3.766454e+003;-2.887560e-002
3.768383e+003;-2.911813e-002
3.770311e+003;-2.883641e-002
3.772240e+003;-2.803524e-002
3.774168e+003;-2.833790e-002
3.776097e+003;-2.856683e-002
3.778025e+003;-2.889445e-002
3.779954e+003;-2.954192e-002
3.781883e+003;-2.918372e-002
3.783811e+003;-2.919593e-002
3.785740e+003;-2.913852e-002
3.787668e+003;-2.880817e-002
3.789597e+003;-2.832548e-002
3.791525e+003;-2.842245e-002
3.793454e+003;-2.892340e-002
3.795382e+003;-2.980787e-002
3.797311e+003;-2.953357e-002
3.799240e+003;-3.063281e-002
3.801168e+003;-3.222606e-002
3.803097e+003;-3.063339e-002
3.805025e+003;-3.056592e-002
3.806954e+003;-3.146662e-002
3.808882e+003;-3.001927e-002
3.810811e+003;-2.908215e-002
3.812739e+003;-2.976892e-002
3.814668e+003;-3.280371e-002
3.816596e+003;-3.295739e-002
3.818525e+003;-3.177448e-002
3.820454e+003;-3.256984e-002
3.822382e+003;-3.087917e-002
3.824311e+003;-2.981149e-002
3.826239e+003;-3.031923e-002
3.828168e+003;-3.005925e-002
3.830096e+003;-3.014896e-002
3.832025e+003;-3.040811e-002
3.833953e+003;-3.070496e-002
3.835882e+003;-3.229118e-002
3.837811e+003;-3.308861e-002
3.839739e+003;-3.170232e-002
3.841667e+003;-3.086794e-002
3.843596e+003;-3.026821e-002
3.845525e+003;-2.996791e-002
3.847453e+003;-2.978885e-002
3.849382e+003;-3.059970e-002
3.851310e+003;-3.543496e-002
3.853239e+003;-3.863403e-002
3.855167e+003;-3.434648e-002
3.857096e+003;-2.954276e-002
3.859024e+003;-2.832213e-002
3.860953e+003;-2.977273e-002
3.862882e+003;-3.148786e-002
3.864810e+003;-3.070820e-002
3.866739e+003;-2.963948e-002
3.868667e+003;-3.200305e-002
3.870596e+003;-3.202583e-002
3.872524e+003;-3.019808e-002
3.874453e+003;-2.905907e-002
3.876381e+003;-2.819608e-002
3.878310e+003;-2.880953e-002
3.880239e+003;-2.901481e-002
3.882167e+003;-2.897824e-002
3.884096e+003;-3.021431e-002
3.886024e+003;-2.990386e-002
3.887953e+003;-2.873821e-002
3.889881e+003;-2.988991e-002
3.891810e+003;-2.998346e-002
3.893738e+003;-2.910471e-002
3.895667e+003;-2.911742e-002
3.897595e+003;-3.013264e-002
3.899524e+003;-3.064439e-002
3.901453e+003;-3.101055e-002
3.903381e+003;-3.119990e-002
3.905310e+003;-2.968754e-002
3.907238e+003;-2.797789e-002
3.909167e+003;-2.789900e-002
3.911095e+003;-2.874019e-002
3.913024e+003;-2.908603e-002
3.914952e+003;-2.949493e-002
3.916881e+003;-2.970664e-002
3.918810e+003;-2.926426e-002
3.920738e+003;-2.818878e-002
3.922667e+003;-2.851238e-002
3.924595e+003;-2.973337e-002
3.926524e+003;-2.926900e-002
3.928452e+003;-2.854080e-002
3.930381e+003;-2.828711e-002
3.932309e+003;-2.861752e-002
3.934238e+003;-2.912216e-002
3.936167e+003;-2.951896e-002
3.938095e+003;-2.937297e-002
3.940023e+003;-2.909083e-002
3.941952e+003;-2.921569e-002
3.943881e+003;-2.895921e-002
3.945809e+003;-2.890316e-002
3.947738e+003;-2.858734e-002
3.949666e+003;-2.771446e-002
3.951595e+003;-2.745584e-002
3.953523e+003;-2.817745e-002
3.955452e+003;-2.895440e-002
3.957380e+003;-2.873390e-002
3.959309e+003;-2.868489e-002
3.961238e+003;-2.883970e-002
3.963166e+003;-2.823585e-002
3.965095e+003;-2.818167e-002
3.967023e+003;-2.845804e-002
3.968952e+003;-2.890350e-002
3.970880e+003;-2.900452e-002
3.972809e+003;-2.840873e-002
3.974737e+003;-2.758976e-002
3.976666e+003;-2.724403e-002
3.978594e+003;-2.780444e-002
3.980523e+003;-2.808792e-002
3.982452e+003;-2.791075e-002
3.984380e+003;-2.768045e-002
3.986309e+003;-2.775791e-002
3.988237e+003;-2.797031e-002
3.990166e+003;-2.804390e-002
3.992094e+003;-2.805602e-002
3.994023e+003;-2.839659e-002
3.995951e+003;-2.885684e-002
3.997880e+003;-2.875840e-002
3.999809e+003;-2.863920e-002
4.001737e+003;0.000000e+000
