3.992094e+002;0.000000e+000
4.011380e+002;0.000000e+000
4.030665e+002;0.000000e+000
4.049951e+002;0.000000e+000
4.069236e+002;0.000000e+000
4.088522e+002;0.000000e+000
4.107807e+002;0.000000e+000
4.127093e+002;0.000000e+000
4.146378e+002;0.000000e+000
4.165664e+002;0.000000e+000
4.184949e+002;0.000000e+000
4.204235e+002;0.000000e+000
4.223520e+002;0.000000e+000
4.242806e+002;0.000000e+000
4.262091e+002;0.000000e+000
4.281377e+002;0.000000e+000
4.300662e+002;0.000000e+000
4.319948e+002;0.000000e+000
4.339233e+002;0.000000e+000
4.358519e+002;0.000000e+000
4.377804e+002;0.000000e+000
4.397090e+002;0.000000e+000
4.416375e+002;0.000000e+000
4.435660e+002;0.000000e+000
4.454946e+002;0.000000e+000
4.474232e+002;0.000000e+000
4.493517e+002;0.000000e+000
4.512802e+002;0.000000e+000
4.532088e+002;0.000000e+000
4.551373e+002;0.000000e+000
4.570659e+002;0.000000e+000
4.589944e+002;0.000000e+000
4.609230e+002;0.000000e+000
4.628515e+002;0.000000e+000
4.647801e+002;0.000000e+000
4.667086e+002;0.000000e+000
4.686372e+002;0.000000e+000
4.705657e+002;0.000000e+000
4.724943e+002;0.000000e+000
4.744228e+002;0.000000e+000
4.763513e+002;0.000000e+000
4.782799e+002;0.000000e+000
4.802085e+002;0.000000e+000
4.821370e+002;0.000000e+000
4.840656e+002;0.000000e+000
4.859941e+002;0.000000e+000
4.879226e+002;0.000000e+000
4.898512e+002;0.000000e+000
4.917798e+002;0.000000e+000
4.937083e+002;0.000000e+000
4.956368e+002;0.000000e+000
4.975654e+002;0.000000e+000
4.994939e+002;0.000000e+000
5.014225e+002;0.000000e+000
5.033510e+002;0.000000e+000
5.052796e+002;0.000000e+000
5.072081e+002;0.000000e+000
5.091367e+002;0.000000e+000
5.110652e+002;0.000000e+000
5.129938e+002;0.000000e+000
5.149223e+002;0.000000e+000
5.168509e+002;0.000000e+000
5.187794e+002;0.000000e+000
5.207079e+002;0.000000e+000
5.226365e+002;0.000000e+000
5.245651e+002;0.000000e+000
5.264936e+002;0.000000e+000
5.284222e+002;0.000000e+000
5.303507e+002;0.000000e+000
5.322792e+002;0.000000e+000
5.342078e+002;0.000000e+000
5.361364e+002;0.000000e+000
5.380649e+002;0.000000e+000
5.399935e+002;0.000000e+000
5.419220e+002;0.000000e+000
5.438505e+002;0.000000e+000
5.457791e+002;0.000000e+000
5.477076e+002;0.000000e+000
5.496362e+002;0.000000e+000
5.515648e+002;0.000000e+000
5.534933e+002;0.000000e+000
5.554218e+002;0.000000e+000
5.573504e+002;0.000000e+000
5.592789e+002;0.000000e+000
5.612075e+002;0.000000e+000
5.631360e+002;0.000000e+000
5.650646e+002;0.000000e+000
5.669931e+002;0.000000e+000
5.689217e+002;0.000000e+000
5.708502e+002;0.000000e+000
5.727787e+002;0.000000e+000
5.747073e+002;0.000000e+000
5.766359e+002;0.000000e+000
5.785644e+002;0.000000e+000
5.804930e+002;0.000000e+000
5.824215e+002;0.000000e+000
5.843500e+002;0.000000e+000
5.862786e+002;0.000000e+000
5.882072e+002;0.000000e+000
5.901357e+002;0.000000e+000
5.920643e+002;0.000000e+000
5.939928e+002;0.000000e+000
5.959213e+002;0.000000e+000
5.978499e+002;0.000000e+000
5.997784e+002;3.069636e-001
6.017070e+002;3.065787e-001
6.036355e+002;3.075348e-001
6.055641e+002;3.048384e-001
6.074926e+002;3.052855e-001
6.094211e+002;3.060222e-001
6.113497e+002;3.032385e-001
6.132783e+002;3.043442e-001
6.152068e+002;3.097502e-001
6.171354e+002;3.115272e-001
6.190639e+002;3.041156e-001
6.209924e+002;2.967793e-001
6.229210e+002;2.925652e-001
6.248495e+002;2.892628e-001
6.267781e+002;2.849892e-001
6.287067e+002;2.790510e-001
6.306352e+002;2.711959e-001
6.325637e+002;2.713071e-001
6.344923e+002;2.742641e-001
6.364208e+002;2.732553e-001
6.383494e+002;2.714871e-001
6.402780e+002;2.663465e-001
6.422065e+002;2.614729e-001
6.441350e+002;2.599721e-001
6.460636e+002;2.611429e-001
6.479921e+002;2.645501e-001
6.499207e+002;2.665331e-001
6.518492e+002;2.668059e-001
6.537778e+002;2.679365e-001
6.557063e+002;2.710381e-001
6.576349e+002;2.732931e-001
6.595634e+002;2.769273e-001
6.614919e+002;2.823591e-001
6.634205e+002;2.813589e-001
6.653491e+002;2.776430e-001
6.672776e+002;2.740465e-001
6.692062e+002;2.714738e-001
6.711347e+002;2.675264e-001
6.730632e+002;2.598498e-001
6.749918e+002;2.504860e-001
6.769203e+002;2.431194e-001
6.788489e+002;2.374750e-001
6.807775e+002;2.310365e-001
6.827060e+002;2.270707e-001
6.846345e+002;2.224233e-001
6.865631e+002;2.193265e-001
6.884916e+002;2.183718e-001
6.904202e+002;2.168046e-001
6.923488e+002;2.155283e-001
6.942773e+002;2.146663e-001
6.962058e+002;2.140559e-001
6.981344e+002;2.129801e-001
7.000629e+002;2.113274e-001
7.019915e+002;2.085213e-001
7.039200e+002;2.064501e-001
7.058486e+002;2.058059e-001
7.077771e+002;2.038693e-001
7.097057e+002;2.010597e-001
7.116342e+002;1.998322e-001
7.135627e+002;1.977404e-001
7.154913e+002;1.945855e-001
7.174199e+002;1.913593e-001
7.193484e+002;1.881465e-001
7.212770e+002;1.838365e-001
7.232055e+002;1.791783e-001
7.251340e+002;1.755952e-001
7.270626e+002;1.721666e-001
7.289911e+002;1.687077e-001
7.309197e+002;1.658979e-001
7.328483e+002;1.631659e-001
7.347768e+002;1.607232e-001
7.367053e+002;1.584521e-001
7.386339e+002;1.554994e-001
7.405624e+002;1.525600e-001
7.424910e+002;1.512534e-001
7.444196e+002;1.503779e-001
7.463481e+002;1.488497e-001
7.482766e+002;1.479384e-001
7.502052e+002;1.474529e-001
7.521337e+002;1.451140e-001
7.540623e+002;1.419965e-001
7.559908e+002;1.394411e-001
7.579194e+002;1.368051e-001
7.598479e+002;1.344920e-001
7.617765e+002;1.338448e-001
7.637050e+002;1.333564e-001
7.656335e+002;1.319326e-001
7.675621e+002;1.307511e-001
7.694907e+002;1.291352e-001
7.714192e+002;1.270054e-001
7.733478e+002;1.255712e-001
7.752763e+002;1.249849e-001
7.772048e+002;1.236204e-001
7.791334e+002;1.225564e-001
7.810620e+002;1.224595e-001
7.829905e+002;1.219545e-001
7.849191e+002;1.210019e-001
7.868476e+002;1.206772e-001
7.887761e+002;1.202239e-001
7.907047e+002;1.189850e-001
7.926332e+002;1.179653e-001
7.945618e+002;1.169460e-001
7.964903e+002;1.169111e-001
7.984189e+002;1.175235e-001
8.003474e+002;1.173600e-001
8.022759e+002;1.173001e-001
8.042045e+002;1.170620e-001
8.061331e+002;1.170050e-001
8.080616e+002;1.167155e-001
8.099902e+002;1.153965e-001
8.119187e+002;1.151045e-001
8.138472e+002;1.151053e-001
8.157758e+002;1.145189e-001
8.177043e+002;1.139412e-001
8.196329e+002;1.135140e-001
8.215615e+002;1.124902e-001
8.234900e+002;1.108725e-001
8.254185e+002;1.101290e-001
8.273471e+002;1.102976e-001
8.292756e+002;1.097342e-001
8.312042e+002;1.089069e-001
8.331328e+002;1.084995e-001
8.350613e+002;1.078781e-001
8.369898e+002;1.074909e-001
8.389184e+002;1.074533e-001
8.408469e+002;1.074058e-001
8.427755e+002;1.072671e-001
8.447040e+002;1.069981e-001
8.466326e+002;1.066346e-001
8.485611e+002;1.067316e-001
8.504897e+002;1.072836e-001
8.524182e+002;1.076286e-001
8.543467e+002;1.077826e-001
8.562753e+002;1.082281e-001
8.582039e+002;1.099569e-001
8.601324e+002;1.124737e-001
8.620610e+002;1.147347e-001
8.639895e+002;1.168224e-001
8.659180e+002;1.194952e-001
8.678466e+002;1.230994e-001
8.697751e+002;1.272356e-001
8.717037e+002;1.313860e-001
8.736323e+002;1.351489e-001
8.755608e+002;1.381999e-001
8.774893e+002;1.408569e-001
8.794179e+002;1.428062e-001
8.813464e+002;1.448893e-001
8.832750e+002;1.478293e-001
8.852036e+002;1.509965e-001
8.871321e+002;1.544025e-001
8.890606e+002;1.582019e-001
8.909892e+002;1.614726e-001
8.929177e+002;1.642855e-001
8.948463e+002;1.662917e-001
8.967748e+002;1.676539e-001
8.987034e+002;1.680447e-001
9.006319e+002;1.675855e-001
9.025605e+002;1.660375e-001
9.044890e+002;1.628753e-001
9.064175e+002;1.596029e-001
9.083461e+002;1.564638e-001
9.102747e+002;1.530736e-001
9.122032e+002;1.505286e-001
9.141318e+002;1.483209e-001
9.160603e+002;1.467944e-001
9.179888e+002;1.462750e-001
9.199174e+002;1.463647e-001
9.218459e+002;1.469589e-001
9.237745e+002;1.477566e-001
9.257031e+002;1.489749e-001
9.276316e+002;1.507945e-001
9.295601e+002;1.531101e-001
9.314887e+002;1.553672e-001
9.334172e+002;1.576109e-001
9.353458e+002;1.600709e-001
9.372744e+002;1.627555e-001
9.392029e+002;1.653176e-001
9.411314e+002;1.678993e-001
9.430600e+002;1.708385e-001
9.449885e+002;1.742806e-001
9.469171e+002;1.783152e-001
9.488456e+002;1.828896e-001
9.507742e+002;1.879774e-001
9.527027e+002;1.935712e-001
9.546313e+002;1.996662e-001
9.565598e+002;2.059804e-001
9.584883e+002;2.126132e-001
9.604169e+002;2.200037e-001
9.623455e+002;2.280971e-001
9.642740e+002;2.365322e-001
9.662026e+002;2.451343e-001
9.681311e+002;2.547708e-001
9.700596e+002;2.667614e-001
9.719882e+002;2.805382e-001
9.739167e+002;2.957988e-001
9.758453e+002;3.133301e-001
9.777739e+002;3.331338e-001
9.797024e+002;3.545900e-001
9.816309e+002;3.758855e-001
9.835595e+002;3.938155e-001
9.854880e+002;4.071646e-001
9.874166e+002;4.168501e-001
9.893452e+002;4.252395e-001
9.912737e+002;4.335405e-001
9.932022e+002;4.430667e-001
9.951307e+002;4.540312e-001
9.970593e+002;4.643610e-001
9.989879e+002;4.734892e-001
1.000916e+003;4.808375e-001
1.002845e+003;4.861378e-001
1.004773e+003;4.895507e-001
1.006702e+003;4.923153e-001
1.008631e+003;4.961703e-001
1.010559e+003;5.004731e-001
1.012488e+003;5.060319e-001
1.014416e+003;5.143232e-001
1.016345e+003;5.239890e-001
1.018273e+003;5.322689e-001
1.020202e+003;5.396939e-001
1.022130e+003;5.469829e-001
1.024059e+003;5.529436e-001
1.025988e+003;5.580991e-001
1.027916e+003;5.620568e-001
1.029845e+003;5.637143e-001
1.031773e+003;5.634103e-001
1.033702e+003;5.606647e-001
1.035630e+003;5.548697e-001
1.037559e+003;5.471405e-001
1.039487e+003;5.381894e-001
1.041416e+003;5.311396e-001
1.043344e+003;5.266666e-001
1.045273e+003;5.229256e-001
1.047202e+003;5.213363e-001
1.049130e+003;5.228387e-001
1.051059e+003;5.239039e-001
1.052987e+003;5.233861e-001
1.054916e+003;5.200930e-001
1.056844e+003;5.128272e-001
1.058773e+003;5.015525e-001
1.060701e+003;4.869084e-001
1.062630e+003;4.688041e-001
1.064558e+003;4.487893e-001
1.066487e+003;4.290652e-001
1.068416e+003;4.112265e-001
1.070344e+003;3.959648e-001
1.072273e+003;3.826790e-001
1.074201e+003;3.720740e-001
1.076130e+003;3.633641e-001
1.078058e+003;3.544810e-001
1.079987e+003;3.456399e-001
1.081915e+003;3.387212e-001
1.083844e+003;3.337279e-001
1.085773e+003;3.299729e-001
1.087701e+003;3.271286e-001
1.089630e+003;3.250204e-001
1.091558e+003;3.231066e-001
1.093487e+003;3.224904e-001
1.095415e+003;3.222453e-001
1.097344e+003;3.216894e-001
1.099272e+003;3.210572e-001
1.101201e+003;3.198997e-001
1.103129e+003;3.182636e-001
1.105058e+003;3.153751e-001
1.106987e+003;3.112783e-001
1.108915e+003;3.060137e-001
1.110844e+003;2.997133e-001
1.112772e+003;2.921839e-001
1.114701e+003;2.825965e-001
1.116629e+003;2.710608e-001
1.118558e+003;2.593667e-001
1.120486e+003;2.480902e-001
1.122415e+003;2.381414e-001
1.124344e+003;2.290957e-001
1.126272e+003;2.197712e-001
1.128201e+003;2.103456e-001
1.130129e+003;2.012806e-001
1.132058e+003;1.936145e-001
1.133986e+003;1.876740e-001
1.135915e+003;1.825728e-001
1.137843e+003;1.781422e-001
1.139772e+003;1.754965e-001
1.141700e+003;1.746916e-001
1.143629e+003;1.746293e-001
1.145557e+003;1.754223e-001
1.147486e+003;1.767902e-001
1.149415e+003;1.779524e-001
1.151343e+003;1.787430e-001
1.153272e+003;1.796539e-001
1.155200e+003;1.802570e-001
1.157129e+003;1.803377e-001
1.159057e+003;1.797155e-001
1.160986e+003;1.779256e-001
1.162914e+003;1.742159e-001
1.164843e+003;1.688631e-001
1.166771e+003;1.619417e-001
1.168700e+003;1.536342e-001
1.170629e+003;1.446830e-001
1.172557e+003;1.359077e-001
1.174486e+003;1.280048e-001
1.176414e+003;1.211300e-001
1.178343e+003;1.154381e-001
1.180271e+003;1.107854e-001
1.182200e+003;1.075572e-001
1.184128e+003;1.057617e-001
1.186057e+003;1.048492e-001
1.187986e+003;1.049821e-001
1.189914e+003;1.064337e-001
1.191843e+003;1.089815e-001
1.193771e+003;1.120013e-001
1.195700e+003;1.153802e-001
1.197628e+003;1.186746e-001
1.199557e+003;1.206357e-001
1.201485e+003;1.212609e-001
1.203414e+003;1.212704e-001
1.205343e+003;1.206248e-001
1.207271e+003;1.184936e-001
1.209200e+003;1.143586e-001
1.211128e+003;1.097421e-001
1.213057e+003;1.055943e-001
1.214985e+003;1.028308e-001
1.216914e+003;1.020656e-001
1.218842e+003;1.030538e-001
1.220771e+003;1.050385e-001
1.222699e+003;1.071667e-001
1.224628e+003;1.093927e-001
1.226557e+003;1.117567e-001
1.228485e+003;1.141292e-001
1.230414e+003;1.167299e-001
1.232342e+003;1.190854e-001
1.234271e+003;1.205109e-001
1.236199e+003;1.209824e-001
1.238128e+003;1.210688e-001
1.240056e+003;1.214503e-001
1.241985e+003;1.219765e-001
1.243913e+003;1.227487e-001
1.245842e+003;1.242362e-001
1.247771e+003;1.254887e-001
1.249699e+003;1.258723e-001
1.251628e+003;1.259322e-001
1.253556e+003;1.259766e-001
1.255485e+003;1.259236e-001
1.257413e+003;1.259673e-001
1.259342e+003;1.261906e-001
1.261270e+003;1.261733e-001
1.263199e+003;1.265603e-001
1.265127e+003;1.270563e-001
1.267056e+003;1.274882e-001
1.268985e+003;1.278227e-001
1.270913e+003;1.280071e-001
1.272842e+003;1.283988e-001
1.274770e+003;1.289814e-001
1.276699e+003;1.289917e-001
1.278627e+003;1.285622e-001
1.280556e+003;1.277576e-001
1.282484e+003;1.263099e-001
1.284413e+003;1.249236e-001
1.286342e+003;1.244015e-001
1.288270e+003;1.245847e-001
1.290199e+003;1.255135e-001
1.292127e+003;1.268122e-001
1.294056e+003;1.282052e-001
1.295984e+003;1.298871e-001
1.297913e+003;1.318385e-001
1.299841e+003;1.346325e-001
1.301770e+003;1.380771e-001
1.303698e+003;1.417805e-001
1.305627e+003;1.464833e-001
1.307556e+003;1.517615e-001
1.309484e+003;1.570515e-001
1.311413e+003;1.618239e-001
1.313341e+003;1.650292e-001
1.315270e+003;1.663004e-001
1.317198e+003;1.657183e-001
1.319127e+003;1.633508e-001
1.321055e+003;1.601718e-001
1.322984e+003;1.570827e-001
1.324912e+003;1.545263e-001
1.326841e+003;1.528047e-001
1.328770e+003;1.522266e-001
1.330698e+003;1.525993e-001
1.332627e+003;1.536145e-001
1.334555e+003;1.546047e-001
1.336484e+003;1.547307e-001
1.338412e+003;1.538014e-001
1.340341e+003;1.519011e-001
1.342269e+003;1.497748e-001
1.344198e+003;1.475041e-001
1.346126e+003;1.453606e-001
1.348055e+003;1.438541e-001
1.349984e+003;1.429489e-001
1.351912e+003;1.428963e-001
1.353841e+003;1.438701e-001
1.355769e+003;1.451270e-001
1.357698e+003;1.465382e-001
1.359626e+003;1.477232e-001
1.361555e+003;1.480570e-001
1.363483e+003;1.473004e-001
1.365412e+003;1.461107e-001
1.367341e+003;1.453233e-001
1.369269e+003;1.449399e-001
1.371198e+003;1.439137e-001
1.373126e+003;1.414292e-001
1.375055e+003;1.383537e-001
1.376983e+003;1.351922e-001
1.378912e+003;1.319574e-001
1.380840e+003;1.288947e-001
1.382769e+003;1.258998e-001
1.384698e+003;1.231639e-001
1.386626e+003;1.203925e-001
1.388555e+003;1.187999e-001
1.390483e+003;1.178740e-001
1.392412e+003;1.166281e-001
1.394340e+003;1.156157e-001
1.396269e+003;1.157721e-001
1.398197e+003;1.162851e-001
1.400126e+003;1.170824e-001
1.402054e+003;1.180600e-001
1.403983e+003;1.185869e-001
1.405911e+003;1.195292e-001
1.407840e+003;1.208995e-001
1.409769e+003;1.219627e-001
1.411697e+003;1.227481e-001
1.413626e+003;1.237541e-001
1.415554e+003;1.248301e-001
1.417483e+003;1.250747e-001
1.419411e+003;1.259094e-001
1.421340e+003;1.285724e-001
1.423268e+003;1.303829e-001
1.425197e+003;1.314959e-001
1.427125e+003;1.321153e-001
1.429054e+003;1.313054e-001
1.430983e+003;1.300244e-001
1.432911e+003;1.285924e-001
1.434840e+003;1.253973e-001
1.436768e+003;1.218947e-001
1.438697e+003;1.208872e-001
1.440625e+003;1.198609e-001
1.442554e+003;1.182754e-001
1.444482e+003;1.168117e-001
1.446411e+003;1.154890e-001
1.448340e+003;1.144160e-001
1.450268e+003;1.135633e-001
1.452197e+003;1.122138e-001
1.454125e+003;1.097497e-001
1.456054e+003;1.053875e-001
1.457982e+003;1.040588e-001
1.459911e+003;1.049537e-001
1.461839e+003;1.042348e-001
1.463768e+003;1.014387e-001
1.465697e+003;9.875481e-002
1.467625e+003;9.699807e-002
1.469554e+003;9.462119e-002
1.471482e+003;9.149277e-002
1.473411e+003;8.942407e-002
1.475339e+003;8.789007e-002
1.477268e+003;8.604491e-002
1.479196e+003;8.441004e-002
1.481125e+003;8.223340e-002
1.483053e+003;7.963120e-002
1.484982e+003;7.644782e-002
1.486911e+003;7.297491e-002
1.488839e+003;6.976164e-002
1.490768e+003;6.776521e-002
1.492696e+003;6.663096e-002
1.494625e+003;6.418988e-002
1.496553e+003;6.194095e-002
1.498482e+003;6.167220e-002
1.500410e+003;6.189314e-002
1.502339e+003;6.136896e-002
1.504267e+003;5.814837e-002
1.506196e+003;5.460202e-002
1.508125e+003;5.559629e-002
1.510053e+003;5.747313e-002
1.511982e+003;5.750055e-002
1.513910e+003;5.717432e-002
1.515839e+003;5.593860e-002
1.517767e+003;5.508616e-002
1.519696e+003;5.343938e-002
1.521624e+003;5.193540e-002
1.523553e+003;5.306163e-002
1.525481e+003;5.368302e-002
1.527410e+003;5.398195e-002
1.529339e+003;5.437233e-002
1.531267e+003;5.408668e-002
1.533196e+003;5.343930e-002
1.535124e+003;5.420536e-002
1.537053e+003;5.317685e-002
1.538981e+003;5.005559e-002
1.540910e+003;5.031408e-002
1.542838e+003;5.234405e-002
1.544767e+003;5.350526e-002
1.546695e+003;5.446637e-002
1.548624e+003;5.429411e-002
1.550553e+003;5.375415e-002
1.552481e+003;5.302487e-002
1.554410e+003;5.190265e-002
1.556338e+003;5.026677e-002
1.558267e+003;4.712310e-002
1.560195e+003;4.820851e-002
1.562124e+003;5.190807e-002
1.564052e+003;5.319940e-002
1.565981e+003;5.348990e-002
1.567910e+003;5.313577e-002
1.569838e+003;5.313240e-002
1.571767e+003;5.463449e-002
1.573695e+003;5.447016e-002
1.575624e+003;5.297733e-002
1.577552e+003;5.452880e-002
1.579481e+003;5.653438e-002
1.581409e+003;5.714197e-002
1.583338e+003;5.713241e-002
1.585266e+003;5.700235e-002
1.587195e+003;5.739738e-002
1.589124e+003;5.783070e-002
1.591052e+003;5.800342e-002
1.592981e+003;5.825217e-002
1.594909e+003;5.873930e-002
1.596838e+003;5.906481e-002
1.598766e+003;5.934178e-002
1.600695e+003;5.970618e-002
1.602623e+003;6.009755e-002
1.604552e+003;6.055304e-002
1.606480e+003;6.097545e-002
1.608409e+003;6.134187e-002
1.610338e+003;6.189803e-002
1.612266e+003;6.246501e-002
1.614195e+003;6.208144e-002
1.616123e+003;6.074666e-002
1.618052e+003;6.205182e-002
1.619980e+003;6.400251e-002
1.621909e+003;6.390665e-002
1.623837e+003;6.398048e-002
1.625766e+003;6.515963e-002
1.627694e+003;6.593632e-002
1.629623e+003;6.645929e-002
1.631552e+003;6.670417e-002
1.633480e+003;6.522435e-002
1.635409e+003;6.380121e-002
1.637337e+003;6.568355e-002
1.639266e+003;6.760757e-002
1.641194e+003;6.785782e-002
1.643123e+003;6.728759e-002
1.645051e+003;6.522019e-002
1.646980e+003;6.428419e-002
1.648909e+003;6.530934e-002
1.650837e+003;6.281243e-002
1.652766e+003;5.875113e-002
1.654694e+003;6.128440e-002
1.656623e+003;6.439766e-002
1.658551e+003;6.427758e-002
1.660480e+003;6.283399e-002
1.662408e+003;6.146175e-002
1.664337e+003;6.140449e-002
1.666266e+003;6.076480e-002
1.668194e+003;5.868946e-002
1.670123e+003;5.732055e-002
1.672051e+003;5.697333e-002
1.673980e+003;5.538681e-002
1.675908e+003;5.436369e-002
1.677837e+003;5.453380e-002
1.679765e+003;5.357618e-002
1.681694e+003;5.133008e-002
1.683622e+003;4.742316e-002
1.685551e+003;4.713836e-002
1.687479e+003;4.864468e-002
1.689408e+003;4.815127e-002
1.691337e+003;4.753878e-002
1.693265e+003;4.542378e-002
1.695194e+003;4.169736e-002
1.697122e+003;4.087709e-002
1.699051e+003;3.927822e-002
1.700979e+003;3.854588e-002
1.702908e+003;4.031388e-002
1.704836e+003;3.976455e-002
1.706765e+003;3.932562e-002
1.708693e+003;3.899594e-002
1.710622e+003;3.859426e-002
1.712551e+003;3.752327e-002
1.714479e+003;3.568606e-002
1.716408e+003;3.336472e-002
1.718336e+003;3.303114e-002
1.720265e+003;3.467137e-002
1.722193e+003;3.509221e-002
1.724122e+003;3.434036e-002
1.726050e+003;3.381708e-002
1.727979e+003;3.318962e-002
1.729908e+003;3.220490e-002
1.731836e+003;2.977890e-002
1.733765e+003;2.722446e-002
1.735693e+003;2.844495e-002
1.737622e+003;2.901219e-002
1.739550e+003;2.764761e-002
1.741479e+003;2.702092e-002
1.743407e+003;2.646746e-002
1.745336e+003;2.608529e-002
1.747265e+003;2.536143e-002
1.749193e+003;2.432454e-002
1.751122e+003;2.414961e-002
1.753050e+003;2.574652e-002
1.754979e+003;2.652128e-002
1.756907e+003;2.667050e-002
1.758836e+003;2.705192e-002
1.760764e+003;2.657788e-002
1.762693e+003;2.666726e-002
1.764621e+003;2.732258e-002
1.766550e+003;2.673970e-002
1.768479e+003;2.624474e-002
1.770407e+003;2.568799e-002
1.772336e+003;2.492356e-002
1.774264e+003;2.595133e-002
1.776193e+003;2.691364e-002
1.778121e+003;2.685396e-002
1.780050e+003;2.643380e-002
1.781978e+003;2.618231e-002
1.783907e+003;2.586076e-002
1.785835e+003;2.589059e-002
1.787764e+003;2.602875e-002
1.789693e+003;2.517253e-002
1.791621e+003;2.407164e-002
1.793550e+003;2.446358e-002
1.795478e+003;2.531405e-002
1.797407e+003;2.517077e-002
1.799335e+003;2.475175e-002
1.801264e+003;2.471288e-002
1.803192e+003;2.486061e-002
1.805121e+003;2.493440e-002
1.807049e+003;2.486331e-002
1.808978e+003;2.438496e-002
1.810907e+003;2.410656e-002
1.812835e+003;2.418457e-002
1.814764e+003;2.415073e-002
1.816692e+003;2.375848e-002
1.818621e+003;2.372243e-002
1.820549e+003;2.377615e-002
1.822478e+003;2.353952e-002
1.824406e+003;2.300634e-002
1.826335e+003;2.279021e-002
1.828264e+003;2.232495e-002
1.830192e+003;2.217272e-002
1.832121e+003;2.273046e-002
1.834049e+003;2.287332e-002
1.835978e+003;2.267303e-002
1.837906e+003;2.247818e-002
1.839835e+003;2.247999e-002
1.841763e+003;2.189984e-002
1.843692e+003;2.080304e-002
1.845620e+003;2.119600e-002
1.847549e+003;2.185559e-002
1.849478e+003;2.213600e-002
1.851406e+003;2.218321e-002
1.853335e+003;2.184468e-002
1.855263e+003;2.140243e-002
1.857192e+003;2.136119e-002
1.859120e+003;2.139731e-002
1.861049e+003;2.130268e-002
1.862977e+003;2.122648e-002
1.864906e+003;2.087757e-002
1.866834e+003;2.025564e-002
1.868763e+003;1.991753e-002
1.870692e+003;2.056270e-002
1.872620e+003;2.110044e-002
1.874549e+003;2.099822e-002
1.876477e+003;2.094012e-002
1.878406e+003;2.091060e-002
1.880334e+003;2.083307e-002
1.882263e+003;2.079956e-002
1.884191e+003;2.068553e-002
1.886120e+003;2.051351e-002
1.888048e+003;2.035716e-002
1.889977e+003;2.039543e-002
1.891906e+003;2.080773e-002
1.893834e+003;2.072146e-002
1.895763e+003;2.062792e-002
1.897691e+003;2.072998e-002
1.899620e+003;2.066611e-002
1.901548e+003;2.080498e-002
1.903477e+003;2.087847e-002
1.905405e+003;2.046318e-002
1.907334e+003;2.022950e-002
1.909262e+003;2.028299e-002
1.911191e+003;2.050233e-002
1.913120e+003;2.048010e-002
1.915048e+003;2.046791e-002
1.916977e+003;2.042929e-002
1.918905e+003;2.053985e-002
1.920834e+003;2.081937e-002
1.922762e+003;2.086401e-002
1.924691e+003;2.108054e-002
1.926619e+003;2.122126e-002
1.928548e+003;2.105088e-002
1.930477e+003;2.103703e-002
1.932405e+003;2.120905e-002
1.934334e+003;2.142642e-002
1.936262e+003;2.149197e-002
1.938191e+003;2.166625e-002
1.940119e+003;2.180190e-002
1.942048e+003;2.164316e-002
1.943976e+003;2.177183e-002
1.945905e+003;2.224260e-002
1.947833e+003;2.235735e-002
1.949762e+003;2.218506e-002
1.951691e+003;2.213115e-002
1.953619e+003;2.223161e-002
1.955548e+003;2.245787e-002
1.957476e+003;2.275309e-002
1.959405e+003;2.292697e-002
1.961333e+003;2.292788e-002
1.963262e+003;2.300990e-002
1.965190e+003;2.313842e-002
1.967119e+003;2.309862e-002
1.969047e+003;2.306483e-002
1.970976e+003;2.310837e-002
1.972905e+003;2.325243e-002
1.974833e+003;2.322160e-002
1.976762e+003;2.308129e-002
1.978690e+003;2.338190e-002
1.980619e+003;2.376184e-002
1.982547e+003;2.378546e-002
1.984476e+003;2.369356e-002
1.986404e+003;2.373808e-002
1.988333e+003;2.370931e-002
1.990261e+003;2.356303e-002
1.992190e+003;2.357016e-002
1.994119e+003;2.384923e-002
1.996047e+003;2.425327e-002
1.997976e+003;2.438359e-002
1.999904e+003;2.429094e-002
2.001833e+003;2.433025e-002
2.003761e+003;2.449678e-002
2.005690e+003;2.454312e-002
2.007618e+003;2.451231e-002
2.009547e+003;2.455048e-002
2.011476e+003;2.479493e-002
2.013404e+003;2.481135e-002
2.015333e+003;2.499020e-002
2.017261e+003;2.537180e-002
2.019190e+003;2.559090e-002
2.021118e+003;2.567772e-002
2.023047e+003;2.566384e-002
2.024975e+003;2.572462e-002
2.026904e+003;2.600075e-002
2.028833e+003;2.625115e-002
2.030761e+003;2.635789e-002
2.032690e+003;2.630349e-002
2.034618e+003;2.619026e-002
2.036547e+003;2.634627e-002
2.038475e+003;2.661677e-002
2.040404e+003;2.658810e-002
2.042332e+003;2.657457e-002
2.044261e+003;2.680324e-002
2.046189e+003;2.709424e-002
2.048118e+003;2.708009e-002
2.050047e+003;2.686157e-002
2.051975e+003;2.677956e-002
2.053904e+003;2.677300e-002
2.055832e+003;2.679327e-002
2.057761e+003;2.699518e-002
2.059689e+003;2.697748e-002
2.061618e+003;2.684353e-002
2.063546e+003;2.684871e-002
2.065475e+003;2.680320e-002
2.067404e+003;2.681959e-002
2.069332e+003;2.675739e-002
2.071260e+003;2.673745e-002
2.073189e+003;2.694625e-002
2.075118e+003;2.710916e-002
2.077046e+003;2.708098e-002
2.078975e+003;2.701274e-002
2.080903e+003;2.689277e-002
2.082832e+003;2.681522e-002
2.084760e+003;2.686404e-002
2.086689e+003;2.692143e-002
2.088617e+003;2.685036e-002
2.090546e+003;2.683383e-002
2.092475e+003;2.700435e-002
2.094403e+003;2.708352e-002
2.096332e+003;2.692805e-002
2.098260e+003;2.698457e-002
2.100189e+003;2.708242e-002
2.102117e+003;2.707939e-002
2.104046e+003;2.726359e-002
2.105974e+003;2.753152e-002
2.107903e+003;2.776567e-002
2.109832e+003;2.774791e-002
2.111760e+003;2.780838e-002
2.113688e+003;2.810758e-002
2.115617e+003;2.818497e-002
2.117546e+003;2.806994e-002
2.119474e+003;2.783191e-002
2.121403e+003;2.784579e-002
2.123331e+003;2.815856e-002
2.125260e+003;2.815983e-002
2.127188e+003;2.807980e-002
2.129117e+003;2.828599e-002
2.131045e+003;2.851280e-002
2.132974e+003;2.833175e-002
2.134903e+003;2.803099e-002
2.136831e+003;2.790808e-002
2.138760e+003;2.781753e-002
2.140688e+003;2.791840e-002
2.142617e+003;2.804519e-002
2.144545e+003;2.782177e-002
2.146474e+003;2.751436e-002
2.148402e+003;2.760842e-002
2.150331e+003;2.773120e-002
2.152260e+003;2.769408e-002
2.154188e+003;2.751927e-002
2.156117e+003;2.743124e-002
2.158045e+003;2.739107e-002
2.159974e+003;2.721649e-002
2.161902e+003;2.708115e-002
2.163831e+003;2.683739e-002
2.165759e+003;2.680775e-002
2.167688e+003;2.658729e-002
2.169616e+003;2.620138e-002
2.171545e+003;2.623345e-002
2.173474e+003;2.609015e-002
2.175402e+003;2.580802e-002
2.177331e+003;2.564654e-002
2.179259e+003;2.542618e-002
2.181188e+003;2.509645e-002
2.183116e+003;2.491240e-002
2.185045e+003;2.503874e-002
2.186973e+003;2.503962e-002
2.188902e+003;2.467949e-002
2.190831e+003;2.463064e-002
2.192759e+003;2.440427e-002
2.194688e+003;2.398196e-002
2.196616e+003;2.389898e-002
2.198545e+003;2.394222e-002
2.200473e+003;2.376026e-002
2.202402e+003;2.367957e-002
2.204330e+003;2.374882e-002
2.206259e+003;2.359724e-002
2.208188e+003;2.342848e-002
2.210116e+003;2.349436e-002
2.212044e+003;2.374171e-002
2.213973e+003;2.372940e-002
2.215902e+003;2.354054e-002
2.217830e+003;2.350958e-002
2.219759e+003;2.356457e-002
2.221687e+003;2.362351e-002
2.223616e+003;2.346583e-002
2.225544e+003;2.321776e-002
2.227473e+003;2.313210e-002
2.229401e+003;2.333641e-002
2.231330e+003;2.323146e-002
2.233259e+003;2.329540e-002
2.235187e+003;2.364612e-002
2.237116e+003;2.359469e-002
2.239044e+003;2.337392e-002
2.240973e+003;2.329641e-002
2.242901e+003;2.334207e-002
2.244830e+003;2.326638e-002
2.246758e+003;2.315705e-002
2.248687e+003;2.323600e-002
2.250615e+003;2.311522e-002
2.252544e+003;2.283868e-002
2.254473e+003;2.296840e-002
2.256401e+003;2.295712e-002
2.258330e+003;2.260189e-002
2.260258e+003;2.244014e-002
2.262187e+003;2.254594e-002
2.264115e+003;2.257495e-002
2.266044e+003;2.257031e-002
2.267972e+003;2.252857e-002
2.269901e+003;2.230622e-002
2.271830e+003;2.216222e-002
2.273758e+003;2.200638e-002
2.275687e+003;2.198373e-002
2.277615e+003;2.224671e-002
2.279544e+003;2.215856e-002
2.281472e+003;2.174703e-002
2.283401e+003;2.169951e-002
2.285329e+003;2.188911e-002
2.287258e+003;2.190476e-002
2.289187e+003;2.155659e-002
2.291115e+003;2.156965e-002
2.293043e+003;2.200900e-002
2.294972e+003;2.203950e-002
2.296901e+003;2.180886e-002
2.298829e+003;2.156199e-002
2.300758e+003;2.155318e-002
2.302686e+003;2.169864e-002
2.304615e+003;2.166263e-002
2.306543e+003;2.155157e-002
2.308472e+003;2.151105e-002
2.310400e+003;2.126329e-002
2.312329e+003;2.097079e-002
2.314258e+003;2.112110e-002
2.316186e+003;2.159141e-002
2.318115e+003;2.191075e-002
2.320043e+003;2.198056e-002
2.321972e+003;2.193581e-002
2.323900e+003;2.192371e-002
2.325829e+003;2.183350e-002
2.327757e+003;2.186033e-002
2.329686e+003;2.180959e-002
2.331615e+003;2.178144e-002
2.333543e+003;2.198997e-002
2.335472e+003;2.213492e-002
2.337400e+003;2.242786e-002
2.339329e+003;2.251670e-002
2.341257e+003;2.256601e-002
2.343186e+003;2.270868e-002
2.345114e+003;2.274460e-002
2.347043e+003;2.294702e-002
2.348971e+003;2.305064e-002
2.350900e+003;2.302699e-002
2.352829e+003;2.307416e-002
2.354757e+003;2.346201e-002
2.356686e+003;2.383702e-002
2.358614e+003;2.384395e-002
2.360543e+003;2.383208e-002
2.362471e+003;2.412179e-002
2.364400e+003;2.404982e-002
2.366328e+003;2.406894e-002
2.368257e+003;2.439291e-002
2.370186e+003;2.454894e-002
2.372114e+003;2.457187e-002
2.374042e+003;2.440462e-002
2.375971e+003;2.437448e-002
2.377900e+003;2.458141e-002
2.379828e+003;2.479553e-002
2.381757e+003;2.502333e-002
2.383685e+003;2.500357e-002
2.385614e+003;2.476592e-002
2.387542e+003;2.483822e-002
2.389471e+003;2.530169e-002
2.391399e+003;2.547498e-002
2.393328e+003;2.557941e-002
2.395257e+003;2.589924e-002
2.397185e+003;2.616253e-002
2.399114e+003;2.630128e-002
2.401042e+003;2.626030e-002
2.402971e+003;2.631413e-002
2.404899e+003;2.654977e-002
2.406828e+003;2.681106e-002
2.408756e+003;2.688526e-002
2.410685e+003;2.677596e-002
2.412614e+003;2.686467e-002
2.414542e+003;2.720231e-002
2.416471e+003;2.767134e-002
2.418399e+003;2.780368e-002
2.420328e+003;2.776370e-002
2.422256e+003;2.791780e-002
2.424185e+003;2.821513e-002
2.426113e+003;2.863977e-002
2.428042e+003;2.895719e-002
2.429970e+003;2.915440e-002
2.431899e+003;2.906222e-002
2.433828e+003;2.903752e-002
2.435756e+003;2.930861e-002
2.437685e+003;2.948237e-002
2.439613e+003;2.943620e-002
2.441542e+003;2.974845e-002
2.443470e+003;3.024159e-002
2.445399e+003;3.027030e-002
2.447327e+003;3.041363e-002
2.449256e+003;3.082674e-002
2.451185e+003;3.098823e-002
2.453113e+003;3.105026e-002
2.455042e+003;3.115323e-002
2.456970e+003;3.105467e-002
2.458899e+003;3.118281e-002
2.460827e+003;3.156658e-002
2.462756e+003;3.163004e-002
2.464684e+003;3.151448e-002
2.466613e+003;3.161889e-002
2.468542e+003;3.191042e-002
2.470470e+003;3.213581e-002
2.472398e+003;3.210570e-002
2.474327e+003;3.222756e-002
2.476256e+003;3.267915e-002
2.478184e+003;3.294076e-002
2.480113e+003;3.282203e-002
2.482041e+003;3.308545e-002
2.483970e+003;3.327979e-002
2.485898e+003;3.336208e-002
2.487827e+003;3.385870e-002
2.489755e+003;3.428324e-002
2.491684e+003;3.432193e-002
2.493613e+003;3.427470e-002
2.495541e+003;3.423519e-002
2.497470e+003;3.428539e-002
2.499398e+003;3.433308e-002
2.501327e+003;3.464829e-002
2.503255e+003;3.510116e-002
2.505184e+003;3.526690e-002
2.507112e+003;3.531402e-002
2.509041e+003;3.564189e-002
2.510969e+003;3.600971e-002
2.512898e+003;3.594042e-002
2.514827e+003;3.610932e-002
2.516755e+003;3.616557e-002
2.518684e+003;3.627369e-002
2.520612e+003;3.663895e-002
2.522541e+003;3.686353e-002
2.524469e+003;3.676655e-002
2.526398e+003;3.659879e-002
2.528326e+003;3.675519e-002
2.530255e+003;3.681906e-002
2.532184e+003;3.679068e-002
2.534112e+003;3.713388e-002
2.536041e+003;3.751565e-002
2.537969e+003;3.754754e-002
2.539898e+003;3.754668e-002
2.541826e+003;3.793788e-002
2.543755e+003;3.820188e-002
2.545683e+003;3.821798e-002
2.547612e+003;3.789026e-002
2.549541e+003;3.759187e-002
2.551469e+003;3.769562e-002
2.553397e+003;3.796204e-002
2.555326e+003;3.833679e-002
2.557255e+003;3.823738e-002
2.559183e+003;3.792320e-002
2.561112e+003;3.781999e-002
2.563040e+003;3.805364e-002
2.564969e+003;3.812063e-002
2.566897e+003;3.798305e-002
2.568826e+003;3.808030e-002
2.570754e+003;3.825797e-002
2.572683e+003;3.842713e-002
2.574612e+003;3.849863e-002
2.576540e+003;3.860672e-002
2.578469e+003;3.865543e-002
2.580397e+003;3.872284e-002
2.582326e+003;3.909940e-002
2.584254e+003;3.903335e-002
2.586183e+003;3.884022e-002
2.588111e+003;3.927397e-002
2.590040e+003;3.964082e-002
2.591969e+003;3.972512e-002
2.593897e+003;3.988929e-002
2.595826e+003;3.988599e-002
2.597754e+003;3.982981e-002
2.599683e+003;3.998283e-002
2.601611e+003;4.020181e-002
2.603540e+003;4.041486e-002
2.605468e+003;4.042799e-002
2.607397e+003;4.039755e-002
2.609325e+003;4.043562e-002
2.611254e+003;4.080389e-002
2.613183e+003;4.139445e-002
2.615111e+003;4.157698e-002
2.617040e+003;4.162727e-002
2.618968e+003;4.208758e-002
2.620897e+003;4.243708e-002
2.622825e+003;4.230097e-002
2.624754e+003;4.201088e-002
2.626682e+003;4.221646e-002
2.628611e+003;4.296757e-002
2.630540e+003;4.334076e-002
2.632468e+003;4.341707e-002
2.634396e+003;4.366937e-002
2.636325e+003;4.377234e-002
2.638254e+003;4.389486e-002
2.640182e+003;4.400130e-002
2.642111e+003;4.418390e-002
2.644039e+003;4.479135e-002
2.645968e+003;4.529276e-002
2.647896e+003;4.526588e-002
2.649825e+003;4.509465e-002
2.651753e+003;4.511278e-002
2.653682e+003;4.509605e-002
2.655611e+003;4.527345e-002
2.657539e+003;4.579044e-002
2.659468e+003;4.631638e-002
2.661396e+003;4.651596e-002
2.663325e+003;4.645976e-002
2.665253e+003;4.671221e-002
2.667182e+003;4.707114e-002
2.669110e+003;4.726557e-002
2.671039e+003;4.759860e-002
2.672968e+003;4.769976e-002
2.674896e+003;4.762902e-002
2.676825e+003;4.776567e-002
2.678753e+003;4.813991e-002
2.680682e+003;4.829767e-002
2.682610e+003;4.847294e-002
2.684539e+003;4.857031e-002
2.686467e+003;4.864746e-002
2.688396e+003;4.902135e-002
2.690324e+003;4.927960e-002
2.692253e+003;4.944609e-002
2.694182e+003;4.980952e-002
2.696110e+003;5.025724e-002
2.698039e+003;5.051317e-002
2.699967e+003;5.090092e-002
2.701896e+003;5.149602e-002
2.703824e+003;5.221560e-002
2.705753e+003;5.213146e-002
2.707681e+003;5.178736e-002
2.709610e+003;5.202608e-002
2.711539e+003;5.213822e-002
2.713467e+003;5.200752e-002
2.715396e+003;5.213422e-002
2.717324e+003;5.258498e-002
2.719253e+003;5.286246e-002
2.721181e+003;5.284446e-002
2.723110e+003;5.300720e-002
2.725038e+003;5.316314e-002
2.726967e+003;5.333327e-002
2.728896e+003;5.337965e-002
2.730824e+003;5.332608e-002
2.732752e+003;5.342537e-002
2.734681e+003;5.388167e-002
2.736610e+003;5.419290e-002
2.738538e+003;5.399489e-002
2.740467e+003;5.392815e-002
2.742395e+003;5.394852e-002
2.744324e+003;5.402945e-002
2.746252e+003;5.427455e-002
2.748181e+003;5.454352e-002
2.750109e+003;5.467774e-002
2.752038e+003;5.506366e-002
2.753967e+003;5.504076e-002
2.755895e+003;5.467924e-002
2.757824e+003;5.492760e-002
2.759752e+003;5.546191e-002
2.761681e+003;5.570303e-002
2.763609e+003;5.599464e-002
2.765538e+003;5.641506e-002
2.767466e+003;5.684630e-002
2.769395e+003;5.706424e-002
2.771323e+003;5.705876e-002
2.773252e+003;5.719980e-002
2.775181e+003;5.746602e-002
2.777109e+003;5.747018e-002
2.779038e+003;5.755351e-002
2.780966e+003;5.812215e-002
2.782895e+003;5.832466e-002
2.784823e+003;5.841294e-002
2.786752e+003;5.904731e-002
2.788680e+003;5.929780e-002
2.790609e+003;5.933760e-002
2.792538e+003;5.967060e-002
2.794466e+003;6.030133e-002
2.796395e+003;6.083558e-002
2.798323e+003;6.081717e-002
2.800252e+003;6.110606e-002
2.802180e+003;6.177192e-002
2.804109e+003;6.236976e-002
2.806037e+003;6.269440e-002
2.807966e+003;6.306549e-002
2.809895e+003;6.378210e-002
2.811823e+003;6.454645e-002
2.813751e+003;6.515363e-002
2.815680e+003;6.576782e-002
2.817609e+003;6.640995e-002
2.819537e+003;6.714707e-002
2.821466e+003;6.766690e-002
2.823394e+003;6.816458e-002
2.825323e+003;6.884947e-002
2.827251e+003;6.965007e-002
2.829180e+003;7.020402e-002
2.831108e+003;7.071932e-002
2.833037e+003;7.173528e-002
2.834966e+003;7.304492e-002
2.836894e+003;7.399023e-002
2.838823e+003;7.490300e-002
2.840751e+003;7.602274e-002
2.842680e+003;7.753706e-002
2.844608e+003;7.959602e-002
2.846537e+003;8.136929e-002
2.848465e+003;8.343915e-002
2.850394e+003;8.545317e-002
2.852323e+003;8.661921e-002
2.854251e+003;8.737656e-002
2.856180e+003;8.814811e-002
2.858108e+003;8.957142e-002
2.860037e+003;9.141207e-002
2.861965e+003;9.301831e-002
2.863894e+003;9.456348e-002
2.865822e+003;9.608997e-002
2.867751e+003;9.704179e-002
2.869679e+003;9.812006e-002
2.871608e+003;9.927559e-002
2.873536e+003;9.981946e-002
2.875465e+003;1.000900e-001
2.877394e+003;1.008894e-001
2.879322e+003;1.019780e-001
2.881251e+003;1.031592e-001
2.883179e+003;1.039105e-001
2.885108e+003;1.042270e-001
2.887036e+003;1.045811e-001
2.888965e+003;1.054803e-001
2.890893e+003;1.064154e-001
2.892822e+003;1.067478e-001
2.894750e+003;1.067644e-001
2.896679e+003;1.065032e-001
2.898608e+003;1.064211e-001
2.900536e+003;1.066234e-001
2.902465e+003;1.062309e-001
2.904393e+003;1.053942e-001
2.906322e+003;1.046244e-001
2.908250e+003;1.038620e-001
2.910179e+003;1.027740e-001
2.912107e+003;1.009867e-001
2.914036e+003;9.998119e-002
2.915965e+003;9.917212e-002
2.917893e+003;9.759726e-002
2.919822e+003;9.598362e-002
2.921750e+003;9.431729e-002
2.923679e+003;9.228634e-002
2.925607e+003;9.046737e-002
2.927536e+003;8.872117e-002
2.929464e+003;8.712008e-002
2.931393e+003;8.554713e-002
2.933322e+003;8.406398e-002
2.935250e+003;8.269428e-002
2.937178e+003;8.181325e-002
2.939107e+003;8.134491e-002
2.941036e+003;8.021071e-002
2.942964e+003;7.868296e-002
2.944893e+003;7.770836e-002
2.946821e+003;7.670852e-002
2.948750e+003;7.520662e-002
2.950678e+003;7.394725e-002
2.952607e+003;7.257959e-002
2.954535e+003;7.083250e-002
2.956464e+003;6.937990e-002
2.958393e+003;6.806826e-002
2.960321e+003;6.666917e-002
2.962250e+003;6.503084e-002
2.964178e+003;6.387222e-002
2.966107e+003;6.353668e-002
2.968035e+003;6.315807e-002
2.969964e+003;6.295903e-002
2.971892e+003;6.244573e-002
2.973821e+003;6.136850e-002
2.975750e+003;6.046094e-002
2.977678e+003;5.942452e-002
2.979607e+003;5.811049e-002
2.981535e+003;5.695527e-002
2.983464e+003;5.680737e-002
2.985392e+003;5.676224e-002
2.987321e+003;5.633078e-002
2.989249e+003;5.567158e-002
2.991178e+003;5.524455e-002
2.993106e+003;5.514138e-002
2.995035e+003;5.481590e-002
2.996964e+003;5.448793e-002
2.998892e+003;5.412717e-002
3.000821e+003;5.377781e-002
3.002749e+003;5.398443e-002
3.004678e+003;5.435235e-002
3.006606e+003;5.432212e-002
3.008535e+003;5.433797e-002
3.010463e+003;5.444387e-002
3.012392e+003;5.473468e-002
3.014321e+003;5.534401e-002
3.016249e+003;5.561655e-002
3.018177e+003;5.572409e-002
3.020106e+003;5.584212e-002
3.022035e+003;5.628940e-002
3.023963e+003;5.684691e-002
3.025892e+003;5.704217e-002
3.027820e+003;5.706114e-002
3.029749e+003;5.741633e-002
3.031677e+003;5.808837e-002
3.033606e+003;5.854793e-002
3.035534e+003;5.854611e-002
3.037463e+003;5.899083e-002
3.039392e+003;5.962243e-002
3.041320e+003;6.010665e-002
3.043249e+003;6.062691e-002
3.045177e+003;6.084412e-002
3.047106e+003;6.137739e-002
3.049034e+003;6.175485e-002
3.050963e+003;6.201119e-002
3.052891e+003;6.275026e-002
3.054820e+003;6.338387e-002
3.056749e+003;6.385905e-002
3.058677e+003;6.429249e-002
3.060606e+003;6.493263e-002
3.062534e+003;6.563950e-002
3.064463e+003;6.581971e-002
3.066391e+003;6.575695e-002
3.068320e+003;6.615949e-002
3.070248e+003;6.716401e-002
3.072177e+003;6.808496e-002
3.074105e+003;6.853347e-002
3.076034e+003;6.903557e-002
3.077963e+003;7.004588e-002
3.079891e+003;7.085457e-002
3.081820e+003;7.133262e-002
3.083748e+003;7.170577e-002
3.085677e+003;7.235987e-002
3.087605e+003;7.302344e-002
3.089534e+003;7.334999e-002
3.091462e+003;7.385392e-002
3.093391e+003;7.467286e-002
3.095320e+003;7.496154e-002
3.097248e+003;7.527368e-002
3.099177e+003;7.589076e-002
3.101105e+003;7.638063e-002
3.103034e+003;7.698674e-002
3.104962e+003;7.802117e-002
3.106891e+003;7.858773e-002
3.108819e+003;7.892890e-002
3.110748e+003;7.978634e-002
3.112677e+003;8.078197e-002
3.114605e+003;8.156294e-002
3.116533e+003;8.187542e-002
3.118462e+003;8.229358e-002
3.120391e+003;8.338230e-002
3.122319e+003;8.417847e-002
3.124248e+003;8.448965e-002
3.126176e+003;8.534491e-002
3.128105e+003;8.633782e-002
3.130033e+003;8.738981e-002
3.131962e+003;8.835379e-002
3.133890e+003;8.896027e-002
3.135819e+003;8.934559e-002
3.137748e+003;8.998158e-002
3.139676e+003;9.080902e-002
3.141605e+003;9.131172e-002
3.143533e+003;9.181247e-002
3.145462e+003;9.250510e-002
3.147390e+003;9.349777e-002
3.149319e+003;9.443690e-002
3.151247e+003;9.541427e-002
3.153176e+003;9.624746e-002
3.155104e+003;9.699422e-002
3.157033e+003;9.781722e-002
3.158962e+003;9.846304e-002
3.160890e+003;9.963320e-002
3.162819e+003;1.007128e-001
3.164747e+003;1.014749e-001
3.166676e+003;1.021796e-001
3.168604e+003;1.029176e-001
3.170533e+003;1.036123e-001
3.172461e+003;1.046843e-001
3.174390e+003;1.060486e-001
3.176319e+003;1.070674e-001
3.178247e+003;1.073912e-001
3.180176e+003;1.075707e-001
3.182104e+003;1.087077e-001
3.184033e+003;1.100256e-001
3.185961e+003;1.108930e-001
3.187890e+003;1.117416e-001
3.189818e+003;1.128116e-001
3.191747e+003;1.135200e-001
3.193676e+003;1.145629e-001
3.195604e+003;1.160099e-001
3.197532e+003;1.167861e-001
3.199461e+003;1.177460e-001
3.201390e+003;1.190731e-001
3.203318e+003;1.202390e-001
3.205247e+003;1.212301e-001
3.207175e+003;1.223344e-001
3.209104e+003;1.235558e-001
3.211032e+003;1.246964e-001
3.212961e+003;1.254642e-001
3.214889e+003;1.264093e-001
3.216818e+003;1.282345e-001
3.218747e+003;1.299822e-001
3.220675e+003;1.309766e-001
3.222604e+003;1.314255e-001
3.224532e+003;1.318111e-001
3.226461e+003;1.330320e-001
3.228389e+003;1.342580e-001
3.230318e+003;1.354568e-001
3.232246e+003;1.365821e-001
3.234175e+003;1.376952e-001
3.236104e+003;1.389671e-001
3.238032e+003;1.396722e-001
3.239961e+003;1.414921e-001
3.241889e+003;1.437978e-001
3.243818e+003;1.452296e-001
3.245746e+003;1.459494e-001
3.247675e+003;1.465526e-001
3.249603e+003;1.477629e-001
3.251532e+003;1.491517e-001
3.253460e+003;1.505567e-001
3.255389e+003;1.518721e-001
3.257318e+003;1.531767e-001
3.259246e+003;1.538885e-001
3.261175e+003;1.548913e-001
3.263103e+003;1.560058e-001
3.265032e+003;1.569702e-001
3.266960e+003;1.587955e-001
3.268889e+003;1.598697e-001
3.270817e+003;1.601359e-001
3.272746e+003;1.610473e-001
3.274675e+003;1.618215e-001
3.276603e+003;1.621940e-001
3.278531e+003;1.627829e-001
3.280460e+003;1.637286e-001
3.282389e+003;1.641575e-001
3.284317e+003;1.641225e-001
3.286246e+003;1.637667e-001
3.288174e+003;1.638083e-001
3.290103e+003;1.652183e-001
3.292031e+003;1.661239e-001
3.293960e+003;1.659838e-001
3.295888e+003;1.661799e-001
3.297817e+003;1.660171e-001
3.299746e+003;1.658406e-001
3.301674e+003;1.662509e-001
3.303603e+003;1.666176e-001
3.305531e+003;1.673346e-001
3.307460e+003;1.682082e-001
3.309388e+003;1.686478e-001
3.311317e+003;1.691804e-001
3.313245e+003;1.696676e-001
3.315174e+003;1.696099e-001
3.317103e+003;1.696099e-001
3.319031e+003;1.699767e-001
3.320960e+003;1.696637e-001
3.322888e+003;1.699098e-001
3.324817e+003;1.714225e-001
3.326745e+003;1.724737e-001
3.328674e+003;1.725762e-001
3.330602e+003;1.721446e-001
3.332531e+003;1.720010e-001
3.334459e+003;1.720648e-001
3.336388e+003;1.715509e-001
3.338317e+003;1.709893e-001
3.340245e+003;1.709212e-001
3.342174e+003;1.704821e-001
3.344102e+003;1.696599e-001
3.346031e+003;1.694100e-001
3.347959e+003;1.689931e-001
3.349888e+003;1.674969e-001
3.351816e+003;1.664513e-001
3.353745e+003;1.658822e-001
3.355674e+003;1.647254e-001
3.357602e+003;1.632183e-001
3.359531e+003;1.618037e-001
3.361459e+003;1.606374e-001
3.363388e+003;1.601437e-001
3.365316e+003;1.596125e-001
3.367245e+003;1.586211e-001
3.369173e+003;1.578211e-001
3.371102e+003;1.569069e-001
3.373031e+003;1.563123e-001
3.374959e+003;1.556315e-001
3.376887e+003;1.546775e-001
3.378816e+003;1.542386e-001
3.380745e+003;1.534931e-001
3.382673e+003;1.522630e-001
3.384602e+003;1.508389e-001
3.386530e+003;1.492887e-001
3.388459e+003;1.479788e-001
3.390387e+003;1.477995e-001
3.392316e+003;1.479077e-001
3.394244e+003;1.476366e-001
3.396173e+003;1.464777e-001
3.398102e+003;1.449939e-001
3.400030e+003;1.443591e-001
3.401959e+003;1.436541e-001
3.403887e+003;1.423547e-001
3.405816e+003;1.401670e-001
3.407744e+003;1.384640e-001
3.409673e+003;1.380963e-001
3.411601e+003;1.368651e-001
3.413530e+003;1.357111e-001
3.415458e+003;1.350464e-001
3.417387e+003;1.340218e-001
3.419316e+003;1.327198e-001
3.421244e+003;1.311020e-001
3.423173e+003;1.297929e-001
3.425101e+003;1.284676e-001
3.427030e+003;1.270891e-001
3.428958e+003;1.257011e-001
3.430887e+003;1.242224e-001
3.432815e+003;1.231497e-001
3.434744e+003;1.224663e-001
3.436673e+003;1.212585e-001
3.438601e+003;1.194489e-001
3.440530e+003;1.184648e-001
3.442458e+003;1.177122e-001
3.444387e+003;1.162790e-001
3.446315e+003;1.148510e-001
3.448244e+003;1.139299e-001
3.450172e+003;1.129283e-001
3.452101e+003;1.116535e-001
3.454030e+003;1.104740e-001
3.455958e+003;1.098089e-001
3.457886e+003;1.083846e-001
3.459815e+003;1.066461e-001
3.461744e+003;1.050193e-001
3.463672e+003;1.035015e-001
3.465601e+003;1.028338e-001
3.467529e+003;1.017757e-001
3.469458e+003;1.004291e-001
3.471386e+003;9.930766e-002
3.473315e+003;9.752247e-002
3.475243e+003;9.612036e-002
3.477172e+003;9.522956e-002
3.479101e+003;9.408074e-002
3.481029e+003;9.296720e-002
3.482958e+003;9.122207e-002
3.484886e+003;8.928967e-002
3.486815e+003;8.822491e-002
3.488743e+003;8.731599e-002
3.490672e+003;8.644681e-002
3.492600e+003;8.579094e-002
3.494529e+003;8.441499e-002
3.496458e+003;8.255004e-002
3.498386e+003;8.071058e-002
3.500315e+003;7.885861e-002
3.502243e+003;7.759260e-002
3.504172e+003;7.672869e-002
3.506100e+003;7.623140e-002
3.508029e+003;7.503463e-002
3.509957e+003;7.314686e-002
3.511886e+003;7.185204e-002
3.513814e+003;7.099003e-002
3.515743e+003;6.975297e-002
3.517672e+003;6.830497e-002
3.519600e+003;6.706335e-002
3.521529e+003;6.574400e-002
3.523457e+003;6.413604e-002
3.525386e+003;6.314936e-002
3.527314e+003;6.237997e-002
3.529243e+003;6.122889e-002
3.531171e+003;5.997740e-002
3.533100e+003;5.942262e-002
3.535029e+003;5.831928e-002
3.536957e+003;5.663531e-002
3.538885e+003;5.541075e-002
3.540814e+003;5.417289e-002
3.542743e+003;5.307137e-002
3.544671e+003;5.211554e-002
3.546600e+003;5.135872e-002
3.548528e+003;5.075659e-002
3.550457e+003;4.925169e-002
3.552385e+003;4.716133e-002
3.554314e+003;4.636840e-002
3.556242e+003;4.589587e-002
3.558171e+003;4.468299e-002
3.560100e+003;4.338086e-002
3.562028e+003;4.200684e-002
3.563957e+003;4.078937e-002
3.565885e+003;3.965040e-002
3.567814e+003;3.881435e-002
3.569742e+003;3.843278e-002
3.571671e+003;3.785762e-002
3.573599e+003;3.670511e-002
3.575528e+003;3.601648e-002
3.577457e+003;3.527488e-002
3.579385e+003;3.448920e-002
3.581314e+003;3.412905e-002
3.583242e+003;3.305380e-002
3.585171e+003;3.098125e-002
3.587099e+003;2.937784e-002
3.589028e+003;2.926604e-002
3.590956e+003;2.897872e-002
3.592885e+003;2.814640e-002
3.594813e+003;2.708401e-002
3.596742e+003;2.634831e-002
3.598671e+003;2.612607e-002
3.600599e+003;2.548495e-002
3.602528e+003;2.428281e-002
3.604456e+003;2.317872e-002
3.606385e+003;2.255558e-002
3.608313e+003;2.126583e-002
3.610242e+003;2.039404e-002
3.612170e+003;1.986325e-002
3.614099e+003;1.906308e-002
3.616028e+003;1.810068e-002
3.617956e+003;1.681578e-002
3.619885e+003;1.602536e-002
3.621813e+003;1.573083e-002
3.623742e+003;1.526995e-002
3.625670e+003;1.447651e-002
3.627599e+003;1.216443e-002
3.629527e+003;1.129308e-002
3.631456e+003;1.207434e-002
3.633385e+003;1.158091e-002
3.635313e+003;1.158921e-002
3.637241e+003;1.166249e-002
3.639170e+003;1.062937e-002
3.641099e+003;9.039382e-003
3.643027e+003;8.282264e-003
3.644956e+003;7.307213e-003
3.646884e+003;5.031880e-003
3.648813e+003;3.159263e-003
3.650741e+003;3.475983e-003
3.652670e+003;4.579091e-003
3.654598e+003;3.397700e-003
3.656527e+003;3.027248e-003
3.658456e+003;3.610540e-003
3.660384e+003;2.790115e-003
3.662313e+003;1.732684e-003
3.664241e+003;6.796136e-004
3.666170e+003;-3.851118e-004
3.668098e+003;-2.058965e-003
3.670027e+003;-3.261005e-003
3.671955e+003;-3.270476e-003
3.673884e+003;-5.174508e-003
3.675813e+003;-5.746617e-003
3.677741e+003;-3.615505e-003
3.679669e+003;-3.001028e-003
3.681598e+003;-3.524179e-003
3.683527e+003;-4.081397e-003
3.685455e+003;-5.050858e-003
3.687384e+003;-7.579224e-003
3.689312e+003;-8.342787e-003
3.691241e+003;-6.953084e-003
3.693169e+003;-5.943222e-003
3.695098e+003;-6.156561e-003
3.697026e+003;-6.365094e-003
3.698955e+003;-6.427324e-003
3.700884e+003;-7.216247e-003
3.702812e+003;-7.007862e-003
3.704741e+003;-6.448479e-003
3.706669e+003;-7.182843e-003
3.708598e+003;-8.878473e-003
3.710526e+003;-9.924714e-003
3.712455e+003;-9.290857e-003
3.714383e+003;-8.098096e-003
3.716312e+003;-8.371909e-003
3.718240e+003;-8.931191e-003
3.720169e+003;-8.930509e-003
3.722098e+003;-9.335807e-003
3.724026e+003;-9.661242e-003
3.725955e+003;-9.282879e-003
3.727883e+003;-9.250671e-003
3.729812e+003;-1.075102e-002
3.731740e+003;-1.235536e-002
3.733669e+003;-1.284054e-002
3.735597e+003;-1.240524e-002
3.737526e+003;-1.139921e-002
3.739455e+003;-1.163450e-002
3.741383e+003;-1.298460e-002
3.743312e+003;-1.531878e-002
3.745240e+003;-1.376957e-002
3.747169e+003;-1.204434e-002
3.749097e+003;-1.401712e-002
3.751026e+003;-1.532153e-002
3.752954e+003;-1.386516e-002
3.754883e+003;-1.145482e-002
3.756812e+003;-1.156746e-002
3.758740e+003;-1.196824e-002
3.760668e+003;-1.142855e-002
3.762597e+003;-1.084662e-002
3.764526e+003;-1.145653e-002
3.766454e+003;-1.160927e-002
3.768383e+003;-1.174739e-002
3.770311e+003;-1.168621e-002
3.772240e+003;-1.089600e-002
3.774168e+003;-1.089616e-002
3.776097e+003;-1.134372e-002
3.778025e+003;-1.168705e-002
3.779954e+003;-1.211259e-002
3.781883e+003;-1.202897e-002
3.783811e+003;-1.209771e-002
3.785740e+003;-1.154097e-002
3.787668e+003;-1.139308e-002
3.789597e+003;-1.140550e-002
3.791525e+003;-1.122950e-002
3.793454e+003;-1.118178e-002
3.795382e+003;-1.138837e-002
3.797311e+003;-1.155585e-002
3.799240e+003;-1.328941e-002
3.801168e+003;-1.475758e-002
3.803097e+003;-1.302881e-002
3.805025e+003;-1.274714e-002
3.806954e+003;-1.367657e-002
3.808882e+003;-1.270486e-002
3.810811e+003;-1.176703e-002
3.812739e+003;-1.198259e-002
3.814668e+003;-1.416477e-002
3.816596e+003;-1.414248e-002
3.818525e+003;-1.333373e-002
3.820454e+003;-1.420191e-002
3.822382e+003;-1.315211e-002
3.824311e+003;-1.268871e-002
3.826239e+003;-1.302987e-002
3.828168e+003;-1.236341e-002
3.830096e+003;-1.226095e-002
3.832025e+003;-1.251600e-002
3.833953e+003;-1.252591e-002
3.835882e+003;-1.356993e-002
3.837811e+003;-1.453817e-002
3.839739e+003;-1.344434e-002
3.841667e+003;-1.237056e-002
3.843596e+003;-1.202591e-002
3.845525e+003;-1.203290e-002
3.847453e+003;-1.188649e-002
3.849382e+003;-1.252742e-002
3.851310e+003;-1.550023e-002
3.853239e+003;-1.682250e-002
3.855167e+003;-1.357166e-002
3.857096e+003;-1.136806e-002
3.859024e+003;-1.125721e-002
3.860953e+003;-1.173091e-002
3.862882e+003;-1.256229e-002
3.864810e+003;-1.219224e-002
3.866739e+003;-1.134076e-002
3.868667e+003;-1.302077e-002
3.870596e+003;-1.293285e-002
3.872524e+003;-1.139485e-002
3.874453e+003;-1.063758e-002
3.876381e+003;-9.987051e-003
3.878310e+003;-1.067107e-002
3.880239e+003;-1.102969e-002
3.882167e+003;-1.044739e-002
3.884096e+003;-1.101922e-002
3.886024e+003;-1.091141e-002
3.887953e+003;-9.967978e-003
3.889881e+003;-1.099774e-002
3.891810e+003;-1.071947e-002
3.893738e+003;-9.401244e-003
3.895667e+003;-9.288392e-003
3.897595e+003;-1.011134e-002
3.899524e+003;-1.086204e-002
3.901453e+003;-1.163605e-002
3.903381e+003;-1.188469e-002
3.905310e+003;-1.032967e-002
3.907238e+003;-8.981792e-003
3.909167e+003;-8.823477e-003
3.911095e+003;-8.965369e-003
3.913024e+003;-8.980786e-003
3.914952e+003;-9.490889e-003
3.916881e+003;-1.019647e-002
3.918810e+003;-9.915160e-003
3.920738e+003;-8.963780e-003
3.922667e+003;-9.016941e-003
3.924595e+003;-9.673654e-003
3.926524e+003;-9.286316e-003
3.928452e+003;-8.607059e-003
3.930381e+003;-8.663057e-003
3.932309e+003;-9.108839e-003
3.934238e+003;-9.419012e-003
3.936167e+003;-9.819674e-003
3.938095e+003;-9.217682e-003
3.940023e+003;-8.512097e-003
3.941952e+003;-8.848541e-003
3.943881e+003;-9.288846e-003
3.945809e+003;-9.313268e-003
3.947738e+003;-8.659029e-003
3.949666e+003;-7.611914e-003
3.951595e+003;-6.744409e-003
3.953523e+003;-7.015035e-003
3.955452e+003;-7.598434e-003
3.957380e+003;-7.651698e-003
3.959309e+003;-7.567014e-003
3.961238e+003;-7.714656e-003
3.963166e+003;-7.416845e-003
3.965095e+003;-7.868039e-003
3.967023e+003;-8.684363e-003
3.968952e+003;-8.578082e-003
3.970880e+003;-7.925956e-003
3.972809e+003;-7.268157e-003
3.974737e+003;-7.489086e-003
3.976666e+003;-7.970428e-003
3.978594e+003;-8.395375e-003
3.980523e+003;-7.968998e-003
3.982452e+003;-7.086658e-003
3.984380e+003;-6.969453e-003
3.986309e+003;-7.154032e-003
3.988237e+003;-6.785122e-003
3.990166e+003;-6.577149e-003
3.992094e+003;-6.827428e-003
3.994023e+003;-6.931987e-003
3.995951e+003;-7.284286e-003
3.997880e+003;-7.048908e-003
3.999809e+003;-6.704477e-003
4.001737e+003;0.000000e+000
