3.992094e+002;0.000000e+000
4.011380e+002;0.000000e+000
4.030665e+002;0.000000e+000
4.049951e+002;0.000000e+000
4.069236e+002;0.000000e+000
4.088522e+002;0.000000e+000
4.107807e+002;0.000000e+000
4.127093e+002;0.000000e+000
4.146378e+002;0.000000e+000
4.165664e+002;0.000000e+000
4.184949e+002;0.000000e+000
4.204235e+002;0.000000e+000
4.223520e+002;0.000000e+000
4.242806e+002;0.000000e+000
4.262091e+002;0.000000e+000
4.281377e+002;0.000000e+000
4.300662e+002;0.000000e+000
4.319948e+002;0.000000e+000
4.339233e+002;0.000000e+000
4.358519e+002;0.000000e+000
4.377804e+002;0.000000e+000
4.397090e+002;0.000000e+000
4.416375e+002;0.000000e+000
4.435660e+002;0.000000e+000
4.454946e+002;0.000000e+000
4.474232e+002;0.000000e+000
4.493517e+002;0.000000e+000
4.512802e+002;0.000000e+000
4.532088e+002;0.000000e+000
4.551373e+002;0.000000e+000
4.570659e+002;0.000000e+000
4.589944e+002;0.000000e+000
4.609230e+002;0.000000e+000
4.628515e+002;0.000000e+000
4.647801e+002;0.000000e+000
4.667086e+002;0.000000e+000
4.686372e+002;0.000000e+000
4.705657e+002;0.000000e+000
4.724943e+002;0.000000e+000
4.744228e+002;0.000000e+000
4.763513e+002;0.000000e+000
4.782799e+002;0.000000e+000
4.802085e+002;0.000000e+000
4.821370e+002;0.000000e+000
4.840656e+002;0.000000e+000
4.859941e+002;0.000000e+000
4.879226e+002;0.000000e+000
4.898512e+002;0.000000e+000
4.917798e+002;0.000000e+000
4.937083e+002;0.000000e+000
4.956368e+002;0.000000e+000
4.975654e+002;0.000000e+000
4.994939e+002;0.000000e+000
5.014225e+002;0.000000e+000
5.033510e+002;0.000000e+000
5.052796e+002;0.000000e+000
5.072081e+002;0.000000e+000
5.091367e+002;0.000000e+000
5.110652e+002;0.000000e+000
5.129938e+002;0.000000e+000
5.149223e+002;0.000000e+000
5.168509e+002;0.000000e+000
5.187794e+002;0.000000e+000
5.207079e+002;0.000000e+000
5.226365e+002;0.000000e+000
5.245651e+002;0.000000e+000
5.264936e+002;0.000000e+000
5.284222e+002;0.000000e+000
5.303507e+002;0.000000e+000
5.322792e+002;0.000000e+000
5.342078e+002;0.000000e+000
5.361364e+002;0.000000e+000
5.380649e+002;0.000000e+000
5.399935e+002;0.000000e+000
5.419220e+002;0.000000e+000
5.438505e+002;0.000000e+000
5.457791e+002;0.000000e+000
5.477076e+002;0.000000e+000
5.496362e+002;0.000000e+000
5.515648e+002;0.000000e+000
5.534933e+002;0.000000e+000
5.554218e+002;0.000000e+000
5.573504e+002;0.000000e+000
5.592789e+002;0.000000e+000
5.612075e+002;0.000000e+000
5.631360e+002;0.000000e+000
5.650646e+002;0.000000e+000
5.669931e+002;0.000000e+000
5.689217e+002;0.000000e+000
5.708502e+002;0.000000e+000
5.727787e+002;0.000000e+000
5.747073e+002;0.000000e+000
5.766359e+002;0.000000e+000
5.785644e+002;0.000000e+000
5.804930e+002;0.000000e+000
5.824215e+002;0.000000e+000
5.843500e+002;0.000000e+000
5.862786e+002;0.000000e+000
5.882072e+002;0.000000e+000
5.901357e+002;0.000000e+000
5.920643e+002;0.000000e+000
5.939928e+002;0.000000e+000
5.959213e+002;0.000000e+000
5.978499e+002;0.000000e+000
5.997784e+002;2.539435e-001
6.017070e+002;2.544964e-001
6.036355e+002;2.509011e-001
6.055641e+002;2.469794e-001
6.074926e+002;2.488268e-001
6.094211e+002;2.535743e-001
6.113497e+002;2.540228e-001
6.132783e+002;2.495624e-001
6.152068e+002;2.472573e-001
6.171354e+002;2.488373e-001
6.190639e+002;2.480689e-001
6.209924e+002;2.454883e-001
6.229210e+002;2.409721e-001
6.248495e+002;2.399808e-001
6.267781e+002;2.407582e-001
6.287067e+002;2.375501e-001
6.306352e+002;2.339465e-001
6.325637e+002;2.305291e-001
6.344923e+002;2.284339e-001
6.364208e+002;2.285732e-001
6.383494e+002;2.258960e-001
6.402780e+002;2.233124e-001
6.422065e+002;2.232747e-001
6.441350e+002;2.252318e-001
6.460636e+002;2.245759e-001
6.479921e+002;2.218493e-001
6.499207e+002;2.218407e-001
6.518492e+002;2.219495e-001
6.537778e+002;2.219271e-001
6.557063e+002;2.238359e-001
6.576349e+002;2.254635e-001
6.595634e+002;2.256632e-001
6.614919e+002;2.282783e-001
6.634205e+002;2.295398e-001
6.653491e+002;2.287648e-001
6.672776e+002;2.263583e-001
6.692062e+002;2.208694e-001
6.711347e+002;2.161009e-001
6.730632e+002;2.134564e-001
6.749918e+002;2.077300e-001
6.769203e+002;2.009591e-001
6.788489e+002;1.971919e-001
6.807775e+002;1.930022e-001
6.827060e+002;1.873915e-001
6.846345e+002;1.836745e-001
6.865631e+002;1.824391e-001
6.884916e+002;1.800849e-001
6.904202e+002;1.767982e-001
6.923488e+002;1.758368e-001
6.942773e+002;1.757259e-001
6.962058e+002;1.749409e-001
6.981344e+002;1.744581e-001
7.000629e+002;1.740807e-001
7.019915e+002;1.714965e-001
7.039200e+002;1.698250e-001
7.058486e+002;1.699385e-001
7.077771e+002;1.682112e-001
7.097057e+002;1.664269e-001
7.116342e+002;1.650494e-001
7.135627e+002;1.630880e-001
7.154913e+002;1.617254e-001
7.174199e+002;1.589693e-001
7.193484e+002;1.561319e-001
7.212770e+002;1.539705e-001
7.232055e+002;1.510126e-001
7.251340e+002;1.476007e-001
7.270626e+002;1.446382e-001
7.289911e+002;1.424030e-001
7.309197e+002;1.402690e-001
7.328483e+002;1.386465e-001
7.347768e+002;1.371865e-001
7.367053e+002;1.349715e-001
7.386339e+002;1.325674e-001
7.405624e+002;1.310571e-001
7.424910e+002;1.304929e-001
7.444196e+002;1.303386e-001
7.463481e+002;1.290632e-001
7.482766e+002;1.268165e-001
7.502052e+002;1.260784e-001
7.521337e+002;1.251624e-001
7.540623e+002;1.230004e-001
7.559908e+002;1.194282e-001
7.579194e+002;1.162144e-001
7.598479e+002;1.153556e-001
7.617765e+002;1.153018e-001
7.637050e+002;1.139591e-001
7.656335e+002;1.125290e-001
7.675621e+002;1.115110e-001
7.694907e+002;1.104126e-001
7.714192e+002;1.085749e-001
7.733478e+002;1.064136e-001
7.752763e+002;1.049805e-001
7.772048e+002;1.045788e-001
7.791334e+002;1.040785e-001
7.810620e+002;1.037711e-001
7.829905e+002;1.031525e-001
7.849191e+002;1.020326e-001
7.868476e+002;1.005642e-001
7.887761e+002;1.001872e-001
7.907047e+002;9.971982e-002
7.926332e+002;9.862643e-002
7.945618e+002;9.777248e-002
7.964903e+002;9.734275e-002
7.984189e+002;9.737431e-002
8.003474e+002;9.667251e-002
8.022759e+002;9.595229e-002
8.042045e+002;9.652273e-002
8.061331e+002;9.640505e-002
8.080616e+002;9.542575e-002
8.099902e+002;9.429666e-002
8.119187e+002;9.390470e-002
8.138472e+002;9.347624e-002
8.157758e+002;9.254996e-002
8.177043e+002;9.231052e-002
8.196329e+002;9.164058e-002
8.215615e+002;8.985564e-002
8.234900e+002;8.877894e-002
8.254185e+002;8.834319e-002
8.273471e+002;8.806624e-002
8.292756e+002;8.784521e-002
8.312042e+002;8.768871e-002
8.331328e+002;8.669239e-002
8.350613e+002;8.511055e-002
8.369898e+002;8.384729e-002
8.389184e+002;8.278612e-002
8.408469e+002;8.217090e-002
8.427755e+002;8.155707e-002
8.447040e+002;8.079406e-002
8.466326e+002;7.996077e-002
8.485611e+002;7.948340e-002
8.504897e+002;7.983412e-002
8.524182e+002;7.956506e-002
8.543467e+002;7.929262e-002
8.562753e+002;7.952721e-002
8.582039e+002;8.037426e-002
8.601324e+002;8.179725e-002
8.620610e+002;8.249046e-002
8.639895e+002;8.395723e-002
8.659180e+002;8.586773e-002
8.678466e+002;8.751123e-002
8.697751e+002;8.992366e-002
8.717037e+002;9.288533e-002
8.736323e+002;9.625144e-002
8.755608e+002;9.934022e-002
8.774893e+002;1.019062e-001
8.794179e+002;1.043621e-001
8.813464e+002;1.073470e-001
8.832750e+002;1.109497e-001
8.852036e+002;1.146716e-001
8.871321e+002;1.187575e-001
8.890606e+002;1.234550e-001
8.909892e+002;1.272692e-001
8.929177e+002;1.301522e-001
8.948463e+002;1.322876e-001
8.967748e+002;1.335345e-001
8.987034e+002;1.338526e-001
9.006319e+002;1.332069e-001
9.025605e+002;1.314966e-001
9.044890e+002;1.281303e-001
9.064175e+002;1.240346e-001
9.083461e+002;1.201769e-001
9.102747e+002;1.161575e-001
9.122032e+002;1.127204e-001
9.141318e+002;1.099933e-001
9.160603e+002;1.079119e-001
9.179888e+002;1.064514e-001
9.199174e+002;1.059127e-001
9.218459e+002;1.055370e-001
9.237745e+002;1.055303e-001
9.257031e+002;1.063186e-001
9.276316e+002;1.074223e-001
9.295601e+002;1.086458e-001
9.314887e+002;1.102388e-001
9.334172e+002;1.120345e-001
9.353458e+002;1.137637e-001
9.372744e+002;1.154730e-001
9.392029e+002;1.171553e-001
9.411314e+002;1.189515e-001
9.430600e+002;1.210193e-001
9.449885e+002;1.237137e-001
9.469171e+002;1.270324e-001
9.488456e+002;1.308149e-001
9.507742e+002;1.344364e-001
9.527027e+002;1.389100e-001
9.546313e+002;1.440362e-001
9.565598e+002;1.497492e-001
9.584883e+002;1.558613e-001
9.604169e+002;1.620523e-001
9.623455e+002;1.685972e-001
9.642740e+002;1.752951e-001
9.662026e+002;1.829670e-001
9.681311e+002;1.911941e-001
9.700596e+002;2.005154e-001
9.719882e+002;2.115940e-001
9.739167e+002;2.244001e-001
9.758453e+002;2.389476e-001
9.777739e+002;2.560512e-001
9.797024e+002;2.762938e-001
9.816309e+002;2.979968e-001
9.835595e+002;3.177239e-001
9.854880e+002;3.340857e-001
9.874166e+002;3.475607e-001
9.893452e+002;3.585849e-001
9.912737e+002;3.681059e-001
9.932022e+002;3.761583e-001
9.951307e+002;3.828442e-001
9.970593e+002;3.893999e-001
9.989879e+002;3.950519e-001
1.000916e+003;3.999587e-001
1.002845e+003;4.050081e-001
1.004773e+003;4.090384e-001
1.006702e+003;4.129818e-001
1.008631e+003;4.194120e-001
1.010559e+003;4.270002e-001
1.012488e+003;4.344458e-001
1.014416e+003;4.416765e-001
1.016345e+003;4.479861e-001
1.018273e+003;4.530180e-001
1.020202e+003;4.561077e-001
1.022130e+003;4.576442e-001
1.024059e+003;4.588797e-001
1.025988e+003;4.603515e-001
1.027916e+003;4.610301e-001
1.029845e+003;4.603167e-001
1.031773e+003;4.585520e-001
1.033702e+003;4.553784e-001
1.035630e+003;4.503764e-001
1.037559e+003;4.436952e-001
1.039487e+003;4.359639e-001
1.041416e+003;4.291103e-001
1.043344e+003;4.251193e-001
1.045273e+003;4.230487e-001
1.047202e+003;4.214648e-001
1.049130e+003;4.203664e-001
1.051059e+003;4.194674e-001
1.052987e+003;4.184487e-001
1.054916e+003;4.161815e-001
1.056844e+003;4.124861e-001
1.058773e+003;4.061180e-001
1.060701e+003;3.965343e-001
1.062630e+003;3.855587e-001
1.064558e+003;3.740323e-001
1.066487e+003;3.613689e-001
1.068416e+003;3.494995e-001
1.070344e+003;3.399791e-001
1.072273e+003;3.310148e-001
1.074201e+003;3.227353e-001
1.076130e+003;3.148760e-001
1.078058e+003;3.064540e-001
1.079987e+003;2.981766e-001
1.081915e+003;2.918598e-001
1.083844e+003;2.875249e-001
1.085773e+003;2.835753e-001
1.087701e+003;2.798264e-001
1.089630e+003;2.757421e-001
1.091558e+003;2.721789e-001
1.093487e+003;2.698681e-001
1.095415e+003;2.671714e-001
1.097344e+003;2.647338e-001
1.099272e+003;2.628518e-001
1.101201e+003;2.598355e-001
1.103129e+003;2.561882e-001
1.105058e+003;2.527481e-001
1.106987e+003;2.496277e-001
1.108915e+003;2.461908e-001
1.110844e+003;2.418633e-001
1.112772e+003;2.361362e-001
1.114701e+003;2.288740e-001
1.116629e+003;2.209513e-001
1.118558e+003;2.139729e-001
1.120486e+003;2.073613e-001
1.122415e+003;2.006316e-001
1.124344e+003;1.937425e-001
1.126272e+003;1.874365e-001
1.128201e+003;1.816837e-001
1.130129e+003;1.754876e-001
1.132058e+003;1.691992e-001
1.133986e+003;1.640034e-001
1.135915e+003;1.594862e-001
1.137843e+003;1.556369e-001
1.139772e+003;1.528337e-001
1.141700e+003;1.514597e-001
1.143629e+003;1.507232e-001
1.145557e+003;1.508685e-001
1.147486e+003;1.520007e-001
1.149415e+003;1.534784e-001
1.151343e+003;1.544916e-001
1.153272e+003;1.552458e-001
1.155200e+003;1.562392e-001
1.157129e+003;1.566123e-001
1.159057e+003;1.563445e-001
1.160986e+003;1.548162e-001
1.162914e+003;1.513926e-001
1.164843e+003;1.470618e-001
1.166771e+003;1.410717e-001
1.168700e+003;1.339467e-001
1.170629e+003;1.269098e-001
1.172557e+003;1.195085e-001
1.174486e+003;1.126240e-001
1.176414e+003;1.070772e-001
1.178343e+003;1.025078e-001
1.180271e+003;9.833841e-002
1.182200e+003;9.505104e-002
1.184128e+003;9.335902e-002
1.186057e+003;9.266794e-002
1.187986e+003;9.285755e-002
1.189914e+003;9.428303e-002
1.191843e+003;9.665106e-002
1.193771e+003;9.912311e-002
1.195700e+003;1.016603e-001
1.197628e+003;1.038677e-001
1.199557e+003;1.053096e-001
1.201485e+003;1.059096e-001
1.203414e+003;1.053843e-001
1.205343e+003;1.041608e-001
1.207271e+003;1.022621e-001
1.209200e+003;9.943315e-002
1.211128e+003;9.662718e-002
1.213057e+003;9.443349e-002
1.214985e+003;9.332012e-002
1.216914e+003;9.368889e-002
1.218842e+003;9.511228e-002
1.220771e+003;9.687199e-002
1.222699e+003;9.835158e-002
1.224628e+003;1.001512e-001
1.226557e+003;1.020117e-001
1.228485e+003;1.036925e-001
1.230414e+003;1.053851e-001
1.232342e+003;1.066762e-001
1.234271e+003;1.072748e-001
1.236199e+003;1.074032e-001
1.238128e+003;1.074962e-001
1.240056e+003;1.076333e-001
1.241985e+003;1.076890e-001
1.243913e+003;1.079271e-001
1.245842e+003;1.089115e-001
1.247771e+003;1.099058e-001
1.249699e+003;1.106272e-001
1.251628e+003;1.108708e-001
1.253556e+003;1.109734e-001
1.255485e+003;1.111906e-001
1.257413e+003;1.117460e-001
1.259342e+003;1.124092e-001
1.261270e+003;1.125450e-001
1.263199e+003;1.123828e-001
1.265127e+003;1.119508e-001
1.267056e+003;1.113850e-001
1.268985e+003;1.108680e-001
1.270913e+003;1.102063e-001
1.272842e+003;1.095149e-001
1.274770e+003;1.090179e-001
1.276699e+003;1.083570e-001
1.278627e+003;1.075784e-001
1.280556e+003;1.066903e-001
1.282484e+003;1.056876e-001
1.284413e+003;1.047603e-001
1.286342e+003;1.043357e-001
1.288270e+003;1.047500e-001
1.290199e+003;1.057415e-001
1.292127e+003;1.067212e-001
1.294056e+003;1.077237e-001
1.295984e+003;1.087390e-001
1.297913e+003;1.100399e-001
1.299841e+003;1.120021e-001
1.301770e+003;1.140412e-001
1.303698e+003;1.159080e-001
1.305627e+003;1.183129e-001
1.307556e+003;1.212611e-001
1.309484e+003;1.242388e-001
1.311413e+003;1.269270e-001
1.313341e+003;1.288470e-001
1.315270e+003;1.298322e-001
1.317198e+003;1.301145e-001
1.319127e+003;1.293681e-001
1.321055e+003;1.278661e-001
1.322984e+003;1.264856e-001
1.324912e+003;1.253939e-001
1.326841e+003;1.244604e-001
1.328770e+003;1.238262e-001
1.330698e+003;1.239214e-001
1.332627e+003;1.244188e-001
1.334555e+003;1.244922e-001
1.336484e+003;1.240482e-001
1.338412e+003;1.230882e-001
1.340341e+003;1.220459e-001
1.342269e+003;1.212321e-001
1.344198e+003;1.201283e-001
1.346126e+003;1.189542e-001
1.348055e+003;1.180194e-001
1.349984e+003;1.175666e-001
1.351912e+003;1.176827e-001
1.353841e+003;1.184305e-001
1.355769e+003;1.193354e-001
1.357698e+003;1.200729e-001
1.359626e+003;1.205318e-001
1.361555e+003;1.207571e-001
1.363483e+003;1.205107e-001
1.365412e+003;1.200846e-001
1.367341e+003;1.193437e-001
1.369269e+003;1.188639e-001
1.371198e+003;1.180275e-001
1.373126e+003;1.161195e-001
1.375055e+003;1.141369e-001
1.376983e+003;1.120807e-001
1.378912e+003;1.097299e-001
1.380840e+003;1.074682e-001
1.382769e+003;1.052556e-001
1.384698e+003;1.029498e-001
1.386626e+003;1.001137e-001
1.388555e+003;9.890133e-002
1.390483e+003;9.849592e-002
1.392412e+003;9.698445e-002
1.394340e+003;9.545580e-002
1.396269e+003;9.549295e-002
1.398197e+003;9.580966e-002
1.400126e+003;9.656283e-002
1.402054e+003;9.748361e-002
1.403983e+003;9.758042e-002
1.405911e+003;9.832910e-002
1.407840e+003;9.941857e-002
1.409769e+003;1.001478e-001
1.411697e+003;1.005659e-001
1.413626e+003;1.007671e-001
1.415554e+003;1.007868e-001
1.417483e+003;9.993552e-002
1.419411e+003;9.950694e-002
1.421340e+003;1.016222e-001
1.423268e+003;1.031779e-001
1.425197e+003;1.038386e-001
1.427125e+003;1.037932e-001
1.429054e+003;1.028850e-001
1.430983e+003;1.021415e-001
1.432911e+003;1.011741e-001
1.434840e+003;9.812080e-002
1.436768e+003;9.515279e-002
1.438697e+003;9.548572e-002
1.440625e+003;9.515692e-002
1.442554e+003;9.341304e-002
1.444482e+003;9.172226e-002
1.446411e+003;9.032012e-002
1.448340e+003;8.919697e-002
1.450268e+003;8.864433e-002
1.452197e+003;8.731587e-002
1.454125e+003;8.420220e-002
1.456054e+003;7.877944e-002
1.457982e+003;7.776619e-002
1.459911e+003;8.002881e-002
1.461839e+003;7.978865e-002
1.463768e+003;7.660839e-002
1.465697e+003;7.405451e-002
1.467625e+003;7.290263e-002
1.469554e+003;7.017134e-002
1.471482e+003;6.579450e-002
1.473411e+003;6.300209e-002
1.475339e+003;6.174908e-002
1.477268e+003;6.033761e-002
1.479196e+003;5.862567e-002
1.481125e+003;5.611683e-002
1.483053e+003;5.384270e-002
1.484982e+003;5.091333e-002
1.486911e+003;4.753117e-002
1.488839e+003;4.480806e-002
1.490768e+003;4.327597e-002
1.492696e+003;4.276774e-002
1.494625e+003;4.077826e-002
1.496553e+003;3.856935e-002
1.498482e+003;3.885145e-002
1.500410e+003;3.980910e-002
1.502339e+003;3.967106e-002
1.504267e+003;3.578280e-002
1.506196e+003;3.158119e-002
1.508125e+003;3.334791e-002
1.510053e+003;3.618235e-002
1.511982e+003;3.644320e-002
1.513910e+003;3.594013e-002
1.515839e+003;3.430729e-002
1.517767e+003;3.293797e-002
1.519696e+003;3.045223e-002
1.521624e+003;2.868147e-002
1.523553e+003;3.030326e-002
1.525481e+003;3.079138e-002
1.527410e+003;3.122212e-002
1.529339e+003;3.193096e-002
1.531267e+003;3.160820e-002
1.533196e+003;3.055904e-002
1.535124e+003;3.141442e-002
1.537053e+003;2.982950e-002
1.538981e+003;2.505734e-002
1.540910e+003;2.534549e-002
1.542838e+003;2.875779e-002
1.544767e+003;3.066894e-002
1.546695e+003;3.195903e-002
1.548624e+003;3.202287e-002
1.550553e+003;3.162274e-002
1.552481e+003;3.071420e-002
1.554410e+003;2.924527e-002
1.556338e+003;2.679344e-002
1.558267e+003;2.228285e-002
1.560195e+003;2.436579e-002
1.562124e+003;3.001501e-002
1.564052e+003;3.166614e-002
1.565981e+003;3.187565e-002
1.567910e+003;3.126886e-002
1.569838e+003;3.100239e-002
1.571767e+003;3.276533e-002
1.573695e+003;3.228919e-002
1.575624e+003;2.993201e-002
1.577552e+003;3.212215e-002
1.579481e+003;3.506315e-002
1.581409e+003;3.564419e-002
1.583338e+003;3.575211e-002
1.585266e+003;3.582137e-002
1.587195e+003;3.623807e-002
1.589124e+003;3.670507e-002
1.591052e+003;3.718261e-002
1.592981e+003;3.739093e-002
1.594909e+003;3.768965e-002
1.596838e+003;3.815742e-002
1.598766e+003;3.860480e-002
1.600695e+003;3.903636e-002
1.602623e+003;3.920989e-002
1.604552e+003;3.938885e-002
1.606480e+003;3.983525e-002
1.608409e+003;4.012501e-002
1.610338e+003;4.043559e-002
1.612266e+003;4.104353e-002
1.614195e+003;4.032625e-002
1.616123e+003;3.815742e-002
1.618052e+003;3.993129e-002
1.619980e+003;4.252883e-002
1.621909e+003;4.212507e-002
1.623837e+003;4.218506e-002
1.625766e+003;4.357470e-002
1.627694e+003;4.452012e-002
1.629623e+003;4.548419e-002
1.631552e+003;4.570610e-002
1.633480e+003;4.370172e-002
1.635409e+003;4.190706e-002
1.637337e+003;4.447724e-002
1.639266e+003;4.709322e-002
1.641194e+003;4.765968e-002
1.643123e+003;4.687470e-002
1.645051e+003;4.425206e-002
1.646980e+003;4.348812e-002
1.648909e+003;4.502309e-002
1.650837e+003;4.154417e-002
1.652766e+003;3.616391e-002
1.654694e+003;4.005902e-002
1.656623e+003;4.443451e-002
1.658551e+003;4.432654e-002
1.660480e+003;4.272737e-002
1.662408e+003;4.113061e-002
1.664337e+003;4.091925e-002
1.666266e+003;4.022569e-002
1.668194e+003;3.763939e-002
1.670123e+003;3.607948e-002
1.672051e+003;3.593761e-002
1.673980e+003;3.390742e-002
1.675908e+003;3.263700e-002
1.677837e+003;3.320554e-002
1.679765e+003;3.194801e-002
1.681694e+003;2.872271e-002
1.683622e+003;2.357597e-002
1.685551e+003;2.384031e-002
1.687479e+003;2.669703e-002
1.689408e+003;2.641725e-002
1.691337e+003;2.559902e-002
1.693265e+003;2.294755e-002
1.695194e+003;1.831785e-002
1.697122e+003;1.770761e-002
1.699051e+003;1.562798e-002
1.700979e+003;1.474037e-002
1.702908e+003;1.750434e-002
1.704836e+003;1.711836e-002
1.706765e+003;1.687609e-002
1.708693e+003;1.675806e-002
1.710622e+003;1.648867e-002
1.712551e+003;1.506634e-002
1.714479e+003;1.248537e-002
1.716408e+003;9.598765e-003
1.718336e+003;9.872354e-003
1.720265e+003;1.262104e-002
1.722193e+003;1.332765e-002
1.724122e+003;1.267484e-002
1.726050e+003;1.214596e-002
1.727979e+003;1.138066e-002
1.729908e+003;1.039589e-002
1.731836e+003;7.245891e-003
1.733765e+003;3.706673e-003
1.735693e+003;5.523900e-003
1.737622e+003;6.718939e-003
1.739550e+003;5.156828e-003
1.741479e+003;4.520697e-003
1.743407e+003;4.030916e-003
1.745336e+003;3.677200e-003
1.747265e+003;2.803355e-003
1.749193e+003;1.366275e-003
1.751122e+003;8.693126e-004
1.753050e+003;2.816928e-003
1.754979e+003;3.674727e-003
1.756907e+003;3.697784e-003
1.758836e+003;4.222988e-003
1.760764e+003;3.700357e-003
1.762693e+003;3.939726e-003
1.764621e+003;4.766951e-003
1.766550e+003;4.005767e-003
1.768479e+003;3.342436e-003
1.770407e+003;2.391761e-003
1.772336e+003;1.403737e-003
1.774264e+003;3.012400e-003
1.776193e+003;4.314036e-003
1.778121e+003;4.213787e-003
1.780050e+003;3.727660e-003
1.781978e+003;3.668645e-003
1.783907e+003;3.500433e-003
1.785835e+003;3.412627e-003
1.787764e+003;3.520307e-003
1.789693e+003;2.579510e-003
1.791621e+003;1.106495e-003
1.793550e+003;1.404834e-003
1.795478e+003;2.599009e-003
1.797407e+003;2.659446e-003
1.799335e+003;2.157206e-003
1.801264e+003;2.050995e-003
1.803192e+003;2.350183e-003
1.805121e+003;2.257914e-003
1.807049e+003;2.054490e-003
1.808978e+003;1.869298e-003
1.810907e+003;1.841745e-003
1.812835e+003;1.995369e-003
1.814764e+003;1.950768e-003
1.816692e+003;1.645368e-003
1.818621e+003;1.730489e-003
1.820549e+003;1.839816e-003
1.822478e+003;1.552218e-003
1.824406e+003;7.784194e-004
1.826335e+003;7.506041e-004
1.828264e+003;3.304721e-004
1.830192e+003;-6.275134e-005
1.832121e+003;6.349144e-004
1.834049e+003;1.058862e-003
1.835978e+003;1.085966e-003
1.837906e+003;1.012330e-003
1.839835e+003;9.482704e-004
1.841763e+003;2.039548e-004
1.843692e+003;-1.127743e-003
1.845620e+003;-4.883530e-004
1.847549e+003;5.002807e-004
1.849478e+003;4.725828e-004
1.851406e+003;4.167611e-004
1.853335e+003;2.568648e-004
1.855263e+003;1.218510e-004
1.857192e+003;-2.070828e-005
1.859120e+003;-1.399025e-004
1.861049e+003;-1.805430e-004
1.862977e+003;-2.650577e-004
1.864906e+003;-4.748493e-004
1.866834e+003;-1.191653e-003
1.868763e+003;-1.600536e-003
1.870692e+003;-7.599597e-004
1.872620e+003;-2.506529e-004
1.874549e+003;-5.489490e-004
1.876477e+003;-6.395460e-004
1.878406e+003;-7.623081e-004
1.880334e+003;-7.859567e-004
1.882263e+003;-6.862268e-004
1.884191e+003;-8.952530e-004
1.886120e+003;-1.141160e-003
1.888048e+003;-1.223208e-003
1.889977e+003;-1.283867e-003
1.891906e+003;-1.041346e-003
1.893834e+003;-1.164292e-003
1.895763e+003;-1.118423e-003
1.897691e+003;-9.248128e-004
1.899620e+003;-9.099671e-004
1.901548e+003;-8.392359e-004
1.903477e+003;-8.897310e-004
1.905405e+003;-1.261930e-003
1.907334e+003;-1.604695e-003
1.909262e+003;-1.811663e-003
1.911191e+003;-1.613113e-003
1.913120e+003;-1.442907e-003
1.915048e+003;-1.535332e-003
1.916977e+003;-1.990630e-003
1.918905e+003;-1.841029e-003
1.920834e+003;-1.417940e-003
1.922762e+003;-1.369786e-003
1.924691e+003;-1.091388e-003
1.926619e+003;-9.050073e-004
1.928548e+003;-1.091124e-003
1.930477e+003;-1.156890e-003
1.932405e+003;-1.238902e-003
1.934334e+003;-1.292886e-003
1.936262e+003;-1.141722e-003
1.938191e+003;-9.640575e-004
1.940119e+003;-1.140730e-003
1.942048e+003;-1.424810e-003
1.943976e+003;-1.231501e-003
1.945905e+003;-9.233911e-004
1.947833e+003;-7.422967e-004
1.949762e+003;-6.098674e-004
1.951691e+003;-6.274366e-004
1.953619e+003;-8.128783e-004
1.955548e+003;-7.722639e-004
1.957476e+003;-4.882537e-004
1.959405e+003;-5.695981e-004
1.961333e+003;-7.488460e-004
1.963262e+003;-6.581395e-004
1.965190e+003;-4.740219e-004
1.967119e+003;-6.256169e-004
1.969047e+003;-7.656157e-004
1.970976e+003;-6.022573e-004
1.972905e+003;-2.945280e-004
1.974833e+003;-4.363217e-004
1.976762e+003;-6.545333e-004
1.978690e+003;-5.025182e-004
1.980619e+003;-3.544889e-004
1.982547e+003;-3.398554e-004
1.984476e+003;-2.269751e-004
1.986404e+003;-1.261561e-004
1.988333e+003;-1.592793e-004
1.990261e+003;-4.400952e-004
1.992190e+003;-4.663100e-004
1.994119e+003;-1.678246e-004
1.996047e+003;-1.371864e-004
1.997976e+003;-2.071377e-004
1.999904e+003;-1.822983e-004
2.001833e+003;-7.825555e-005
2.003761e+003;-3.899701e-005
2.005690e+003;-6.738941e-005
2.007618e+003;5.967851e-005
2.009547e+003;2.072034e-004
2.011476e+003;2.843500e-004
2.013404e+003;9.831983e-005
2.015333e+003;-1.371728e-005
2.017261e+003;1.437593e-004
2.019190e+003;4.819368e-004
2.021118e+003;6.842929e-004
2.023047e+003;7.758967e-004
2.024975e+003;6.172286e-004
2.026904e+003;5.553501e-004
2.028833e+003;7.445965e-004
2.030761e+003;8.338560e-004
2.032690e+003;7.951160e-004
2.034618e+003;8.157637e-004
2.036547e+003;1.051223e-003
2.038475e+003;1.119650e-003
2.040404e+003;1.108621e-003
2.042332e+003;1.312100e-003
2.044261e+003;1.395825e-003
2.046189e+003;1.401044e-003
2.048118e+003;1.480963e-003
2.050047e+003;1.516473e-003
2.051975e+003;1.386551e-003
2.053904e+003;1.258131e-003
2.055832e+003;1.019205e-003
2.057761e+003;8.710059e-004
2.059689e+003;8.173903e-004
2.061618e+003;9.522220e-004
2.063546e+003;1.004360e-003
2.065475e+003;9.064323e-004
2.067404e+003;9.668664e-004
2.069332e+003;1.074606e-003
2.071260e+003;1.000939e-003
2.073189e+003;1.136027e-003
2.075118e+003;1.220416e-003
2.077046e+003;1.030199e-003
2.078975e+003;1.092776e-003
2.080903e+003;1.152671e-003
2.082832e+003;1.048864e-003
2.084760e+003;1.016183e-003
2.086689e+003;9.620182e-004
2.088617e+003;7.513675e-004
2.090546e+003;5.391271e-004
2.092475e+003;5.236677e-004
2.094403e+003;8.554019e-004
2.096332e+003;9.804155e-004
2.098260e+003;1.037107e-003
2.100189e+003;1.025980e-003
2.102117e+003;1.002666e-003
2.104046e+003;1.100881e-003
2.105974e+003;1.142871e-003
2.107903e+003;1.038236e-003
2.109832e+003;1.089255e-003
2.111760e+003;1.456494e-003
2.113688e+003;1.697523e-003
2.115617e+003;1.560132e-003
2.117546e+003;1.211013e-003
2.119474e+003;8.719023e-004
2.121403e+003;9.951605e-004
2.123331e+003;1.224736e-003
2.125260e+003;1.296347e-003
2.127188e+003;1.421953e-003
2.129117e+003;1.444659e-003
2.131045e+003;1.439506e-003
2.132974e+003;1.464340e-003
2.134903e+003;1.294818e-003
2.136831e+003;1.108222e-003
2.138760e+003;1.063811e-003
2.140688e+003;1.069823e-003
2.142617e+003;9.421937e-004
2.144545e+003;7.316191e-004
2.146474e+003;6.113555e-004
2.148402e+003;6.205799e-004
2.150331e+003;7.427710e-004
2.152260e+003;9.534839e-004
2.154188e+003;1.053548e-003
2.156117e+003;9.034108e-004
2.158045e+003;6.024632e-004
2.159974e+003;5.523642e-004
2.161902e+003;7.319842e-004
2.163831e+003;5.543216e-004
2.165759e+003;4.520509e-004
2.167688e+003;3.711604e-004
2.169616e+003;-1.626851e-005
2.171545e+003;-2.732036e-004
2.173474e+003;-3.056202e-004
2.175402e+003;-2.937664e-004
2.177331e+003;-2.071046e-004
2.179259e+003;-2.840977e-004
2.181188e+003;-5.485850e-004
2.183116e+003;-5.043715e-004
2.185045e+003;-5.998418e-004
2.186973e+003;-9.955300e-004
2.188902e+003;-1.212106e-003
2.190831e+003;-1.228462e-003
2.192759e+003;-1.375202e-003
2.194688e+003;-1.517469e-003
2.196616e+003;-1.496568e-003
2.198545e+003;-1.543223e-003
2.200473e+003;-1.525625e-003
2.202402e+003;-1.482270e-003
2.204330e+003;-1.564518e-003
2.206259e+003;-1.776851e-003
2.208188e+003;-1.837234e-003
2.210116e+003;-1.539558e-003
2.212044e+003;-1.267844e-003
2.213973e+003;-1.334178e-003
2.215902e+003;-1.320701e-003
2.217830e+003;-1.303622e-003
2.219759e+003;-1.493794e-003
2.221687e+003;-1.487917e-003
2.223616e+003;-1.553128e-003
2.225544e+003;-1.629619e-003
2.227473e+003;-1.465462e-003
2.229401e+003;-1.462358e-003
2.231330e+003;-1.668106e-003
2.233259e+003;-1.661241e-003
2.235187e+003;-1.458461e-003
2.237116e+003;-1.552963e-003
2.239044e+003;-1.635758e-003
2.240973e+003;-1.620607e-003
2.242901e+003;-1.738967e-003
2.244830e+003;-1.937624e-003
2.246758e+003;-2.004318e-003
2.248687e+003;-1.954381e-003
2.250615e+003;-1.930994e-003
2.252544e+003;-1.945046e-003
2.254473e+003;-1.918920e-003
2.256401e+003;-1.995808e-003
2.258330e+003;-2.301280e-003
2.260258e+003;-2.324681e-003
2.262187e+003;-2.160292e-003
2.264115e+003;-2.261398e-003
2.266044e+003;-2.277978e-003
2.267972e+003;-2.252070e-003
2.269901e+003;-2.441070e-003
2.271830e+003;-2.390853e-003
2.273758e+003;-2.329130e-003
2.275687e+003;-2.199689e-003
2.277615e+003;-1.935018e-003
2.279544e+003;-2.137872e-003
2.281472e+003;-2.533249e-003
2.283401e+003;-2.496617e-003
2.285329e+003;-2.324219e-003
2.287258e+003;-2.407033e-003
2.289187e+003;-2.736450e-003
2.291115e+003;-2.725518e-003
2.293043e+003;-2.419323e-003
2.294972e+003;-2.241225e-003
2.296901e+003;-2.259849e-003
2.298829e+003;-2.477608e-003
2.300758e+003;-2.526562e-003
2.302686e+003;-2.360009e-003
2.304615e+003;-2.257113e-003
2.306543e+003;-2.246994e-003
2.308472e+003;-2.357867e-003
2.310400e+003;-2.738919e-003
2.312329e+003;-2.927181e-003
2.314258e+003;-2.753702e-003
2.316186e+003;-2.355494e-003
2.318115e+003;-2.235357e-003
2.320043e+003;-2.228171e-003
2.321972e+003;-1.865576e-003
2.323900e+003;-1.904405e-003
2.325829e+003;-2.302599e-003
2.327757e+003;-2.352825e-003
2.329686e+003;-2.414183e-003
2.331615e+003;-2.347618e-003
2.333543e+003;-2.105724e-003
2.335472e+003;-1.925716e-003
2.337400e+003;-1.875539e-003
2.339329e+003;-1.924792e-003
2.341257e+003;-1.699858e-003
2.343186e+003;-1.339463e-003
2.345114e+003;-1.235796e-003
2.347043e+003;-1.247823e-003
2.348971e+003;-1.134947e-003
2.350900e+003;-9.348640e-004
2.352829e+003;-9.111573e-004
2.354757e+003;-9.471632e-004
2.356686e+003;-9.285820e-004
2.358614e+003;-1.044189e-003
2.360543e+003;-1.155601e-003
2.362471e+003;-9.415757e-004
2.364400e+003;-5.882938e-004
2.366328e+003;-3.288965e-004
2.368257e+003;-3.454506e-004
2.370186e+003;-4.647544e-004
2.372114e+003;-7.085564e-004
2.374042e+003;-9.989350e-004
2.375971e+003;-7.878750e-004
2.377900e+003;-4.026900e-004
2.379828e+003;-7.289482e-007
2.381757e+003;1.619894e-004
2.383685e+003;-2.218420e-004
2.385614e+003;-5.026837e-004
2.387542e+003;-1.468915e-004
2.389471e+003;4.090003e-004
2.391399e+003;6.426129e-004
2.393328e+003;7.391864e-004
2.395257e+003;7.159869e-004
2.397185e+003;7.694904e-004
2.399114e+003;7.199032e-004
2.401042e+003;6.047194e-004
2.402971e+003;6.275812e-004
2.404899e+003;7.807429e-004
2.406828e+003;9.433559e-004
2.408756e+003;1.019272e-003
2.410685e+003;1.250787e-003
2.412614e+003;1.511119e-003
2.414542e+003;1.671412e-003
2.416471e+003;1.826606e-003
2.418399e+003;1.733549e-003
2.420328e+003;1.817688e-003
2.422256e+003;1.983619e-003
2.424185e+003;2.191672e-003
2.426113e+003;2.300882e-003
2.428042e+003;2.216649e-003
2.429970e+003;2.628610e-003
2.431899e+003;3.045366e-003
2.433828e+003;2.998221e-003
2.435756e+003;2.848011e-003
2.437685e+003;3.209464e-003
2.439613e+003;3.642749e-003
2.441542e+003;3.654711e-003
2.443470e+003;3.753762e-003
2.445399e+003;3.992793e-003
2.447327e+003;4.080046e-003
2.449256e+003;4.263139e-003
2.451185e+003;4.349544e-003
2.453113e+003;4.360722e-003
2.455042e+003;4.502250e-003
2.456970e+003;4.599853e-003
2.458899e+003;4.733453e-003
2.460827e+003;4.778509e-003
2.462756e+003;4.715297e-003
2.464684e+003;4.611406e-003
2.466613e+003;4.841427e-003
2.468542e+003;5.193880e-003
2.470470e+003;5.390527e-003
2.472398e+003;5.611563e-003
2.474327e+003;5.734798e-003
2.476256e+003;5.627339e-003
2.478184e+003;5.747489e-003
2.480113e+003;5.985335e-003
2.482041e+003;6.411749e-003
2.483970e+003;6.474771e-003
2.485898e+003;6.468482e-003
2.487827e+003;6.884363e-003
2.489755e+003;7.276281e-003
2.491684e+003;7.276618e-003
2.493613e+003;7.146815e-003
2.495541e+003;7.077331e-003
2.497470e+003;6.892981e-003
2.499398e+003;6.935097e-003
2.501327e+003;7.170125e-003
2.503255e+003;7.264287e-003
2.505184e+003;7.345090e-003
2.507112e+003;7.699885e-003
2.509041e+003;8.304588e-003
2.510969e+003;8.528667e-003
2.512898e+003;8.217257e-003
2.514827e+003;8.110297e-003
2.516755e+003;8.128527e-003
2.518684e+003;8.134671e-003
2.520612e+003;8.658478e-003
2.522541e+003;9.043036e-003
2.524469e+003;8.975345e-003
2.526398e+003;8.820923e-003
2.528326e+003;8.890822e-003
2.530255e+003;9.001764e-003
2.532184e+003;9.000174e-003
2.534112e+003;9.152054e-003
2.536041e+003;9.313262e-003
2.537969e+003;9.406129e-003
2.539898e+003;9.447134e-003
2.541826e+003;9.645446e-003
2.543755e+003;9.926692e-003
2.545683e+003;1.011288e-002
2.547612e+003;1.001545e-002
2.549541e+003;1.003800e-002
2.551469e+003;1.017654e-002
2.553397e+003;1.031231e-002
2.555326e+003;1.051468e-002
2.557255e+003;1.043308e-002
2.559183e+003;1.026766e-002
2.561112e+003;1.020758e-002
2.563040e+003;1.037532e-002
2.564969e+003;1.070519e-002
2.566897e+003;1.089640e-002
2.568826e+003;1.070676e-002
2.570754e+003;1.060475e-002
2.572683e+003;1.088281e-002
2.574612e+003;1.112036e-002
2.576540e+003;1.111832e-002
2.578469e+003;1.111156e-002
2.580397e+003;1.117431e-002
2.582326e+003;1.150180e-002
2.584254e+003;1.157179e-002
2.586183e+003;1.162791e-002
2.588111e+003;1.176726e-002
2.590040e+003;1.170296e-002
2.591969e+003;1.195700e-002
2.593897e+003;1.236122e-002
2.595826e+003;1.255323e-002
2.597754e+003;1.272891e-002
2.599683e+003;1.267733e-002
2.601611e+003;1.248943e-002
2.603540e+003;1.253502e-002
2.605468e+003;1.269309e-002
2.607397e+003;1.285548e-002
2.609325e+003;1.305030e-002
2.611254e+003;1.333260e-002
2.613183e+003;1.372556e-002
2.615111e+003;1.415044e-002
2.617040e+003;1.421743e-002
2.618968e+003;1.438420e-002
2.620897e+003;1.482902e-002
2.622825e+003;1.503784e-002
2.624754e+003;1.490566e-002
2.626682e+003;1.505807e-002
2.628611e+003;1.572255e-002
2.630540e+003;1.608003e-002
2.632468e+003;1.613326e-002
2.634396e+003;1.629853e-002
2.636325e+003;1.635925e-002
2.638254e+003;1.649380e-002
2.640182e+003;1.670100e-002
2.642111e+003;1.694609e-002
2.644039e+003;1.726676e-002
2.645968e+003;1.763469e-002
2.647896e+003;1.780001e-002
2.649825e+003;1.786181e-002
2.651753e+003;1.812089e-002
2.653682e+003;1.846524e-002
2.655611e+003;1.843119e-002
2.657539e+003;1.837923e-002
2.659468e+003;1.865782e-002
2.661396e+003;1.896141e-002
2.663325e+003;1.929004e-002
2.665253e+003;1.967900e-002
2.667182e+003;1.996547e-002
2.669110e+003;2.006686e-002
2.671039e+003;2.018187e-002
2.672968e+003;2.031771e-002
2.674896e+003;2.039938e-002
2.676825e+003;2.045919e-002
2.678753e+003;2.079098e-002
2.680682e+003;2.130909e-002
2.682610e+003;2.192333e-002
2.684539e+003;2.216762e-002
2.686467e+003;2.215183e-002
2.688396e+003;2.240323e-002
2.690324e+003;2.255872e-002
2.692253e+003;2.278563e-002
2.694182e+003;2.299153e-002
2.696110e+003;2.302863e-002
2.698039e+003;2.307332e-002
2.699967e+003;2.329973e-002
2.701896e+003;2.372957e-002
2.703824e+003;2.420786e-002
2.705753e+003;2.441703e-002
2.707681e+003;2.456149e-002
2.709610e+003;2.476981e-002
2.711539e+003;2.471123e-002
2.713467e+003;2.487773e-002
2.715396e+003;2.545857e-002
2.717324e+003;2.579951e-002
2.719253e+003;2.583358e-002
2.721181e+003;2.591338e-002
2.723110e+003;2.620775e-002
2.725038e+003;2.642704e-002
2.726967e+003;2.656908e-002
2.728896e+003;2.666003e-002
2.730824e+003;2.664129e-002
2.732752e+003;2.682999e-002
2.734681e+003;2.703362e-002
2.736610e+003;2.718238e-002
2.738538e+003;2.724468e-002
2.740467e+003;2.747515e-002
2.742395e+003;2.742774e-002
2.744324e+003;2.742252e-002
2.746252e+003;2.767159e-002
2.748181e+003;2.801777e-002
2.750109e+003;2.814318e-002
2.752038e+003;2.837303e-002
2.753967e+003;2.825264e-002
2.755895e+003;2.816853e-002
2.757824e+003;2.860007e-002
2.759752e+003;2.893544e-002
2.761681e+003;2.913311e-002
2.763609e+003;2.976623e-002
2.765538e+003;3.034093e-002
2.767466e+003;3.071531e-002
2.769395e+003;3.097019e-002
2.771323e+003;3.110435e-002
2.773252e+003;3.127838e-002
2.775181e+003;3.141339e-002
2.777109e+003;3.157103e-002
2.779038e+003;3.191652e-002
2.780966e+003;3.235305e-002
2.782895e+003;3.254378e-002
2.784823e+003;3.269790e-002
2.786752e+003;3.292017e-002
2.788680e+003;3.316151e-002
2.790609e+003;3.352505e-002
2.792538e+003;3.399100e-002
2.794466e+003;3.446459e-002
2.796395e+003;3.502278e-002
2.798323e+003;3.549016e-002
2.800252e+003;3.606687e-002
2.802180e+003;3.656660e-002
2.804109e+003;3.709310e-002
2.806037e+003;3.736348e-002
2.807966e+003;3.769862e-002
2.809895e+003;3.842637e-002
2.811823e+003;3.917402e-002
2.813751e+003;3.986209e-002
2.815680e+003;4.073070e-002
2.817609e+003;4.137641e-002
2.819537e+003;4.187144e-002
2.821466e+003;4.233034e-002
2.823394e+003;4.309638e-002
2.825323e+003;4.408260e-002
2.827251e+003;4.484436e-002
2.829180e+003;4.573787e-002
2.831108e+003;4.664396e-002
2.833037e+003;4.733407e-002
2.834966e+003;4.857979e-002
2.836894e+003;5.020215e-002
2.838823e+003;5.134891e-002
2.840751e+003;5.270771e-002
2.842680e+003;5.483094e-002
2.844608e+003;5.740971e-002
2.846537e+003;6.040519e-002
2.848465e+003;6.302768e-002
2.850394e+003;6.471867e-002
2.852323e+003;6.538648e-002
2.854251e+003;6.556108e-002
2.856180e+003;6.586776e-002
2.858108e+003;6.701471e-002
2.860037e+003;6.841372e-002
2.861965e+003;6.980705e-002
2.863894e+003;7.123630e-002
2.865822e+003;7.290166e-002
2.867751e+003;7.412619e-002
2.869679e+003;7.522876e-002
2.871608e+003;7.617342e-002
2.873536e+003;7.666887e-002
2.875465e+003;7.680887e-002
2.877394e+003;7.751139e-002
2.879322e+003;7.876386e-002
2.881251e+003;8.001064e-002
2.883179e+003;8.047104e-002
2.885108e+003;8.056688e-002
2.887036e+003;8.093871e-002
2.888965e+003;8.128594e-002
2.890893e+003;8.156230e-002
2.892822e+003;8.216069e-002
2.894750e+003;8.242055e-002
2.896679e+003;8.186805e-002
2.898608e+003;8.151453e-002
2.900536e+003;8.184657e-002
2.902465e+003;8.168618e-002
2.904393e+003;8.121035e-002
2.906322e+003;8.075316e-002
2.908250e+003;8.025957e-002
2.910179e+003;8.022653e-002
2.912107e+003;7.981966e-002
2.914036e+003;7.981703e-002
2.915965e+003;7.988960e-002
2.917893e+003;7.917169e-002
2.919822e+003;7.819133e-002
2.921750e+003;7.645288e-002
2.923679e+003;7.404877e-002
2.925607e+003;7.189032e-002
2.927536e+003;7.019853e-002
2.929464e+003;6.880262e-002
2.931393e+003;6.770782e-002
2.933322e+003;6.633741e-002
2.935250e+003;6.477287e-002
2.937178e+003;6.382785e-002
2.939107e+003;6.280103e-002
2.941036e+003;6.121660e-002
2.942964e+003;5.974408e-002
2.944893e+003;5.847283e-002
2.946821e+003;5.705351e-002
2.948750e+003;5.567726e-002
2.950678e+003;5.442213e-002
2.952607e+003;5.305400e-002
2.954535e+003;5.135007e-002
2.956464e+003;4.991793e-002
2.958393e+003;4.860555e-002
2.960321e+003;4.728943e-002
2.962250e+003;4.601156e-002
2.964178e+003;4.486464e-002
2.966107e+003;4.382566e-002
2.968035e+003;4.282679e-002
2.969964e+003;4.195114e-002
2.971892e+003;4.132812e-002
2.973821e+003;4.045806e-002
2.975750e+003;3.914125e-002
2.977678e+003;3.795546e-002
2.979607e+003;3.683074e-002
2.981535e+003;3.586048e-002
2.983464e+003;3.526234e-002
2.985392e+003;3.484618e-002
2.987321e+003;3.440595e-002
2.989249e+003;3.364705e-002
2.991178e+003;3.308677e-002
2.993106e+003;3.286874e-002
2.995035e+003;3.233234e-002
2.996964e+003;3.194384e-002
2.998892e+003;3.182894e-002
3.000821e+003;3.160153e-002
3.002749e+003;3.135180e-002
3.004678e+003;3.137232e-002
3.006606e+003;3.153572e-002
3.008535e+003;3.149065e-002
3.010463e+003;3.136285e-002
3.012392e+003;3.167024e-002
3.014321e+003;3.257028e-002
3.016249e+003;3.325196e-002
3.018177e+003;3.359721e-002
3.020106e+003;3.348890e-002
3.022035e+003;3.302617e-002
3.023963e+003;3.311834e-002
3.025892e+003;3.402171e-002
3.027820e+003;3.484004e-002
3.029749e+003;3.510489e-002
3.031677e+003;3.528681e-002
3.033606e+003;3.552946e-002
3.035534e+003;3.576808e-002
3.037463e+003;3.609147e-002
3.039392e+003;3.661112e-002
3.041320e+003;3.717015e-002
3.043249e+003;3.783018e-002
3.045177e+003;3.867709e-002
3.047106e+003;3.928718e-002
3.049034e+003;3.964848e-002
3.050963e+003;3.995075e-002
3.052891e+003;4.039653e-002
3.054820e+003;4.120343e-002
3.056749e+003;4.174562e-002
3.058677e+003;4.176812e-002
3.060606e+003;4.211810e-002
3.062534e+003;4.256128e-002
3.064463e+003;4.318941e-002
3.066391e+003;4.392163e-002
3.068320e+003;4.424869e-002
3.070248e+003;4.489851e-002
3.072177e+003;4.573533e-002
3.074105e+003;4.651888e-002
3.076034e+003;4.717858e-002
3.077963e+003;4.779296e-002
3.079891e+003;4.865954e-002
3.081820e+003;4.937136e-002
3.083748e+003;4.976705e-002
3.085677e+003;5.075279e-002
3.087605e+003;5.162045e-002
3.089534e+003;5.178927e-002
3.091462e+003;5.184590e-002
3.093391e+003;5.243459e-002
3.095320e+003;5.303782e-002
3.097248e+003;5.363222e-002
3.099177e+003;5.417075e-002
3.101105e+003;5.472885e-002
3.103034e+003;5.554165e-002
3.104962e+003;5.650811e-002
3.106891e+003;5.728191e-002
3.108819e+003;5.762187e-002
3.110748e+003;5.834634e-002
3.112677e+003;5.959682e-002
3.114605e+003;5.996701e-002
3.116533e+003;6.036548e-002
3.118462e+003;6.142449e-002
3.120391e+003;6.238862e-002
3.122319e+003;6.262118e-002
3.124248e+003;6.255826e-002
3.126176e+003;6.356464e-002
3.128105e+003;6.500266e-002
3.130033e+003;6.618642e-002
3.131962e+003;6.686492e-002
3.133890e+003;6.759100e-002
3.135819e+003;6.836481e-002
3.137748e+003;6.882331e-002
3.139676e+003;6.954047e-002
3.141605e+003;7.016978e-002
3.143533e+003;7.048231e-002
3.145462e+003;7.106034e-002
3.147390e+003;7.238368e-002
3.149319e+003;7.355223e-002
3.151247e+003;7.450584e-002
3.153176e+003;7.534910e-002
3.155104e+003;7.620580e-002
3.157033e+003;7.685431e-002
3.158962e+003;7.731926e-002
3.160890e+003;7.793584e-002
3.162819e+003;7.875855e-002
3.164747e+003;7.941433e-002
3.166676e+003;7.980509e-002
3.168604e+003;8.087197e-002
3.170533e+003;8.245753e-002
3.172461e+003;8.354754e-002
3.174390e+003;8.417465e-002
3.176319e+003;8.493665e-002
3.178247e+003;8.587407e-002
3.180176e+003;8.640861e-002
3.182104e+003;8.709108e-002
3.184033e+003;8.751045e-002
3.185961e+003;8.795701e-002
3.187890e+003;8.880052e-002
3.189818e+003;8.966685e-002
3.191747e+003;9.016101e-002
3.193676e+003;9.077394e-002
3.195604e+003;9.227048e-002
3.197532e+003;9.319670e-002
3.199461e+003;9.371126e-002
3.201390e+003;9.416506e-002
3.203318e+003;9.502208e-002
3.205247e+003;9.613144e-002
3.207175e+003;9.702633e-002
3.209104e+003;9.773239e-002
3.211032e+003;9.862676e-002
3.212961e+003;9.949052e-002
3.214889e+003;1.003906e-001
3.216818e+003;1.015644e-001
3.218747e+003;1.026515e-001
3.220675e+003;1.036243e-001
3.222604e+003;1.044866e-001
3.224532e+003;1.045707e-001
3.226461e+003;1.043867e-001
3.228389e+003;1.051162e-001
3.230318e+003;1.063628e-001
3.232246e+003;1.072710e-001
3.234175e+003;1.081311e-001
3.236104e+003;1.089558e-001
3.238032e+003;1.100122e-001
3.239961e+003;1.110174e-001
3.241889e+003;1.121214e-001
3.243818e+003;1.131330e-001
3.245746e+003;1.137689e-001
3.247675e+003;1.147273e-001
3.249603e+003;1.154038e-001
3.251532e+003;1.161495e-001
3.253460e+003;1.173433e-001
3.255389e+003;1.179351e-001
3.257318e+003;1.182630e-001
3.259246e+003;1.186451e-001
3.261175e+003;1.192996e-001
3.263103e+003;1.201514e-001
3.265032e+003;1.211244e-001
3.266960e+003;1.219451e-001
3.268889e+003;1.225600e-001
3.270817e+003;1.238359e-001
3.272746e+003;1.249229e-001
3.274675e+003;1.251586e-001
3.276603e+003;1.251241e-001
3.278531e+003;1.254738e-001
3.280460e+003;1.261754e-001
3.282389e+003;1.263930e-001
3.284317e+003;1.264745e-001
3.286246e+003;1.266977e-001
3.288174e+003;1.273637e-001
3.290103e+003;1.280617e-001
3.292031e+003;1.285712e-001
3.293960e+003;1.294748e-001
3.295888e+003;1.300631e-001
3.297817e+003;1.298392e-001
3.299746e+003;1.294093e-001
3.301674e+003;1.290878e-001
3.303603e+003;1.291878e-001
3.305531e+003;1.299280e-001
3.307460e+003;1.306286e-001
3.309388e+003;1.308782e-001
3.311317e+003;1.317384e-001
3.313245e+003;1.325554e-001
3.315174e+003;1.327057e-001
3.317103e+003;1.324408e-001
3.319031e+003;1.323770e-001
3.320960e+003;1.325396e-001
3.322888e+003;1.326303e-001
3.324817e+003;1.334990e-001
3.326745e+003;1.342788e-001
3.328674e+003;1.342948e-001
3.330602e+003;1.342818e-001
3.332531e+003;1.347296e-001
3.334459e+003;1.346200e-001
3.336388e+003;1.338367e-001
3.338317e+003;1.335241e-001
3.340245e+003;1.334307e-001
3.342174e+003;1.329526e-001
3.344102e+003;1.320791e-001
3.346031e+003;1.318643e-001
3.347959e+003;1.321196e-001
3.349888e+003;1.317527e-001
3.351816e+003;1.312487e-001
3.353745e+003;1.309967e-001
3.355674e+003;1.306145e-001
3.357602e+003;1.294399e-001
3.359531e+003;1.286371e-001
3.361459e+003;1.282216e-001
3.363388e+003;1.282902e-001
3.365316e+003;1.282734e-001
3.367245e+003;1.276137e-001
3.369173e+003;1.272509e-001
3.371102e+003;1.267827e-001
3.373031e+003;1.264350e-001
3.374959e+003;1.260051e-001
3.376887e+003;1.249412e-001
3.378816e+003;1.242027e-001
3.380745e+003;1.240878e-001
3.382673e+003;1.231481e-001
3.384602e+003;1.220545e-001
3.386530e+003;1.217067e-001
3.388459e+003;1.214249e-001
3.390387e+003;1.213326e-001
3.392316e+003;1.214686e-001
3.394244e+003;1.209365e-001
3.396173e+003;1.196458e-001
3.398102e+003;1.192090e-001
3.400030e+003;1.189992e-001
3.401959e+003;1.180538e-001
3.403887e+003;1.175475e-001
3.405816e+003;1.174437e-001
3.407744e+003;1.166585e-001
3.409673e+003;1.155682e-001
3.411601e+003;1.144365e-001
3.413530e+003;1.140544e-001
3.415458e+003;1.139016e-001
3.417387e+003;1.128047e-001
3.419316e+003;1.120588e-001
3.421244e+003;1.108345e-001
3.423173e+003;1.093149e-001
3.425101e+003;1.086146e-001
3.427030e+003;1.078932e-001
3.428958e+003;1.071508e-001
3.430887e+003;1.061041e-001
3.432815e+003;1.052688e-001
3.434744e+003;1.047374e-001
3.436673e+003;1.041460e-001
3.438601e+003;1.033723e-001
3.440530e+003;1.022806e-001
3.442458e+003;1.013373e-001
3.444387e+003;1.002188e-001
3.446315e+003;9.893370e-002
3.448244e+003;9.790991e-002
3.450172e+003;9.726303e-002
3.452101e+003;9.692720e-002
3.454030e+003;9.600036e-002
3.455958e+003;9.420490e-002
3.457886e+003;9.256775e-002
3.459815e+003;9.190471e-002
3.461744e+003;9.083688e-002
3.463672e+003;9.002806e-002
3.465601e+003;8.961325e-002
3.467529e+003;8.855075e-002
3.469458e+003;8.720512e-002
3.471386e+003;8.634352e-002
3.473315e+003;8.483984e-002
3.475243e+003;8.372995e-002
3.477172e+003;8.280757e-002
3.479101e+003;8.141904e-002
3.481029e+003;8.031423e-002
3.482958e+003;7.899524e-002
3.484886e+003;7.757746e-002
3.486815e+003;7.655547e-002
3.488743e+003;7.576142e-002
3.490672e+003;7.528707e-002
3.492600e+003;7.476392e-002
3.494529e+003;7.373273e-002
3.496458e+003;7.225069e-002
3.498386e+003;7.074837e-002
3.500315e+003;6.950299e-002
3.502243e+003;6.802490e-002
3.504172e+003;6.637443e-002
3.506100e+003;6.527922e-002
3.508029e+003;6.407240e-002
3.509957e+003;6.298960e-002
3.511886e+003;6.274294e-002
3.513814e+003;6.228776e-002
3.515743e+003;6.107101e-002
3.517672e+003;5.979693e-002
3.519600e+003;5.868392e-002
3.521529e+003;5.747744e-002
3.523457e+003;5.580222e-002
3.525386e+003;5.436068e-002
3.527314e+003;5.315966e-002
3.529243e+003;5.225275e-002
3.531171e+003;5.151251e-002
3.533100e+003;5.068282e-002
3.535029e+003;4.968505e-002
3.536957e+003;4.852618e-002
3.538885e+003;4.756588e-002
3.540814e+003;4.606512e-002
3.542743e+003;4.448164e-002
3.544671e+003;4.383134e-002
3.546600e+003;4.328476e-002
3.548528e+003;4.180927e-002
3.550457e+003;3.975729e-002
3.552385e+003;3.802160e-002
3.554314e+003;3.758736e-002
3.556242e+003;3.718145e-002
3.558171e+003;3.615182e-002
3.560100e+003;3.528300e-002
3.562028e+003;3.388055e-002
3.563957e+003;3.232685e-002
3.565885e+003;3.060405e-002
3.567814e+003;2.907469e-002
3.569742e+003;2.856949e-002
3.571671e+003;2.831156e-002
3.573599e+003;2.744373e-002
3.575528e+003;2.639876e-002
3.577457e+003;2.521466e-002
3.579385e+003;2.398367e-002
3.581314e+003;2.297123e-002
3.583242e+003;2.191535e-002
3.585171e+003;2.020853e-002
3.587099e+003;1.852841e-002
3.589028e+003;1.810756e-002
3.590956e+003;1.754546e-002
3.592885e+003;1.635856e-002
3.594813e+003;1.513032e-002
3.596742e+003;1.430533e-002
3.598671e+003;1.387838e-002
3.600599e+003;1.320770e-002
3.602528e+003;1.158676e-002
3.604456e+003;9.819851e-003
3.606385e+003;8.649284e-003
3.608313e+003;7.185250e-003
3.610242e+003;6.253564e-003
3.612170e+003;5.256859e-003
3.614099e+003;4.484941e-003
3.616028e+003;3.440146e-003
3.617956e+003;1.496856e-003
3.619885e+003;1.029136e-003
3.621813e+003;1.610214e-003
3.623742e+003;1.354542e-003
3.625670e+003;1.135321e-004
3.627599e+003;-3.426654e-003
3.629527e+003;-4.234593e-003
3.631456e+003;-2.337171e-003
3.633385e+003;-2.357604e-003
3.635313e+003;-2.395500e-003
3.637241e+003;-2.582395e-003
3.639170e+003;-3.538508e-003
3.641099e+003;-5.018859e-003
3.643027e+003;-6.416649e-003
3.644956e+003;-8.060955e-003
3.646884e+003;-1.098611e-002
3.648813e+003;-1.345536e-002
3.650741e+003;-1.247128e-002
3.652670e+003;-1.046052e-002
3.654598e+003;-1.180573e-002
3.656527e+003;-1.216405e-002
3.658456e+003;-1.038512e-002
3.660384e+003;-1.042827e-002
3.662313e+003;-1.151426e-002
3.664241e+003;-1.215052e-002
3.666170e+003;-1.358576e-002
3.668098e+003;-1.649212e-002
3.670027e+003;-1.811252e-002
3.671955e+003;-1.711457e-002
3.673884e+003;-1.830792e-002
3.675813e+003;-1.869228e-002
3.677741e+003;-1.621176e-002
3.679669e+003;-1.517152e-002
3.681598e+003;-1.545025e-002
3.683527e+003;-1.638780e-002
3.685455e+003;-1.758130e-002
3.687384e+003;-2.040663e-002
3.689312e+003;-2.083576e-002
3.691241e+003;-1.925112e-002
3.693169e+003;-1.774679e-002
3.695098e+003;-1.746078e-002
3.697026e+003;-1.770608e-002
3.698955e+003;-1.799552e-002
3.700884e+003;-1.855255e-002
3.702812e+003;-1.827914e-002
3.704741e+003;-1.817668e-002
3.706669e+003;-1.899230e-002
3.708598e+003;-2.030783e-002
3.710526e+003;-2.174377e-002
3.712455e+003;-2.131592e-002
3.714383e+003;-1.978888e-002
3.716312e+003;-1.953823e-002
3.718240e+003;-1.998857e-002
3.720169e+003;-2.032320e-002
3.722098e+003;-2.010892e-002
3.724026e+003;-2.008257e-002
3.725955e+003;-1.991186e-002
3.727883e+003;-1.926732e-002
3.729812e+003;-2.043334e-002
3.731740e+003;-2.267124e-002
3.733669e+003;-2.416825e-002
3.735597e+003;-2.427787e-002
3.737526e+003;-2.265344e-002
3.739455e+003;-2.177875e-002
3.741383e+003;-2.250641e-002
3.743312e+003;-2.603214e-002
3.745240e+003;-2.528245e-002
3.747169e+003;-2.369256e-002
3.749097e+003;-2.598258e-002
3.751026e+003;-2.704180e-002
3.752954e+003;-2.467132e-002
3.754883e+003;-2.121151e-002
3.756812e+003;-2.140765e-002
3.758740e+003;-2.185771e-002
3.760668e+003;-2.102249e-002
3.762597e+003;-2.050841e-002
3.764526e+003;-2.141935e-002
3.766454e+003;-2.188670e-002
3.768383e+003;-2.194873e-002
3.770311e+003;-2.127140e-002
3.772240e+003;-2.034681e-002
3.774168e+003;-2.042746e-002
3.776097e+003;-2.111545e-002
3.778025e+003;-2.167698e-002
3.779954e+003;-2.188355e-002
3.781883e+003;-2.184851e-002
3.783811e+003;-2.196092e-002
3.785740e+003;-2.152906e-002
3.787668e+003;-2.105153e-002
3.789597e+003;-2.071573e-002
3.791525e+003;-2.049751e-002
3.793454e+003;-2.071308e-002
3.795382e+003;-2.146823e-002
3.797311e+003;-2.147678e-002
3.799240e+003;-2.342033e-002
3.801168e+003;-2.528542e-002
3.803097e+003;-2.308365e-002
3.805025e+003;-2.267504e-002
3.806954e+003;-2.357212e-002
3.808882e+003;-2.237596e-002
3.810811e+003;-2.140928e-002
3.812739e+003;-2.186956e-002
3.814668e+003;-2.500049e-002
3.816596e+003;-2.517644e-002
3.818525e+003;-2.347778e-002
3.820454e+003;-2.421197e-002
3.822382e+003;-2.299787e-002
3.824311e+003;-2.208734e-002
3.826239e+003;-2.233523e-002
3.828168e+003;-2.199431e-002
3.830096e+003;-2.245359e-002
3.832025e+003;-2.273278e-002
3.833953e+003;-2.301411e-002
3.835882e+003;-2.466178e-002
3.837811e+003;-2.531140e-002
3.839739e+003;-2.382303e-002
3.841667e+003;-2.298266e-002
3.843596e+003;-2.250855e-002
3.845525e+003;-2.189738e-002
3.847453e+003;-2.151837e-002
3.849382e+003;-2.278667e-002
3.851310e+003;-2.757949e-002
3.853239e+003;-3.017926e-002
3.855167e+003;-2.520420e-002
3.857096e+003;-2.154000e-002
3.859024e+003;-2.161734e-002
3.860953e+003;-2.235648e-002
3.862882e+003;-2.308393e-002
3.864810e+003;-2.236573e-002
3.866739e+003;-2.214698e-002
3.868667e+003;-2.471734e-002
3.870596e+003;-2.395132e-002
3.872524e+003;-2.170550e-002
3.874453e+003;-2.057794e-002
3.876381e+003;-1.960320e-002
3.878310e+003;-2.048338e-002
3.880239e+003;-2.120864e-002
3.882167e+003;-2.085149e-002
3.884096e+003;-2.235223e-002
3.886024e+003;-2.279626e-002
3.887953e+003;-2.142376e-002
3.889881e+003;-2.214768e-002
3.891810e+003;-2.181080e-002
3.893738e+003;-2.045749e-002
3.895667e+003;-2.044501e-002
3.897595e+003;-2.143994e-002
3.899524e+003;-2.263284e-002
3.901453e+003;-2.336614e-002
3.903381e+003;-2.327024e-002
3.905310e+003;-2.141203e-002
3.907238e+003;-1.937000e-002
3.909167e+003;-1.951891e-002
3.911095e+003;-2.029825e-002
3.913024e+003;-2.013062e-002
3.914952e+003;-2.026454e-002
3.916881e+003;-2.076223e-002
3.918810e+003;-2.036775e-002
3.920738e+003;-1.964136e-002
3.922667e+003;-2.018848e-002
3.924595e+003;-2.141370e-002
3.926524e+003;-2.148526e-002
3.928452e+003;-2.068256e-002
3.930381e+003;-2.042035e-002
3.932309e+003;-2.086339e-002
3.934238e+003;-2.113439e-002
3.936167e+003;-2.085445e-002
3.938095e+003;-2.001667e-002
3.940023e+003;-1.980284e-002
3.941952e+003;-2.050535e-002
3.943881e+003;-2.082398e-002
3.945809e+003;-2.093542e-002
3.947738e+003;-2.057962e-002
3.949666e+003;-1.975434e-002
3.951595e+003;-1.933137e-002
3.953523e+003;-1.924364e-002
3.955452e+003;-1.977435e-002
3.957380e+003;-1.955325e-002
3.959309e+003;-1.983216e-002
3.961238e+003;-2.042414e-002
3.963166e+003;-1.939129e-002
3.965095e+003;-1.883613e-002
3.967023e+003;-1.963284e-002
3.968952e+003;-2.003581e-002
3.970880e+003;-1.966286e-002
3.972809e+003;-1.924250e-002
3.974737e+003;-1.937063e-002
3.976666e+003;-1.957153e-002
3.978594e+003;-1.973962e-002
3.980523e+003;-1.959899e-002
3.982452e+003;-1.859595e-002
3.984380e+003;-1.857627e-002
3.986309e+003;-1.924066e-002
3.988237e+003;-1.947405e-002
3.990166e+003;-1.953561e-002
3.992094e+003;-1.983345e-002
3.994023e+003;-1.975811e-002
3.995951e+003;-1.965175e-002
3.997880e+003;-1.952560e-002
3.999809e+003;-1.960691e-002
4.001737e+003;0.000000e+000
