3.992094e+002;0.000000e+000
4.011380e+002;0.000000e+000
4.030665e+002;0.000000e+000
4.049951e+002;0.000000e+000
4.069236e+002;0.000000e+000
4.088522e+002;0.000000e+000
4.107807e+002;0.000000e+000
4.127093e+002;0.000000e+000
4.146378e+002;0.000000e+000
4.165664e+002;0.000000e+000
4.184949e+002;0.000000e+000
4.204235e+002;0.000000e+000
4.223520e+002;0.000000e+000
4.242806e+002;0.000000e+000
4.262091e+002;0.000000e+000
4.281377e+002;0.000000e+000
4.300662e+002;0.000000e+000
4.319948e+002;0.000000e+000
4.339233e+002;0.000000e+000
4.358519e+002;0.000000e+000
4.377804e+002;0.000000e+000
4.397090e+002;0.000000e+000
4.416375e+002;0.000000e+000
4.435660e+002;0.000000e+000
4.454946e+002;0.000000e+000
4.474232e+002;0.000000e+000
4.493517e+002;0.000000e+000
4.512802e+002;0.000000e+000
4.532088e+002;0.000000e+000
4.551373e+002;0.000000e+000
4.570659e+002;0.000000e+000
4.589944e+002;0.000000e+000
4.609230e+002;0.000000e+000
4.628515e+002;0.000000e+000
4.647801e+002;0.000000e+000
4.667086e+002;0.000000e+000
4.686372e+002;0.000000e+000
4.705657e+002;0.000000e+000
4.724943e+002;0.000000e+000
4.744228e+002;0.000000e+000
4.763513e+002;0.000000e+000
4.782799e+002;0.000000e+000
4.802085e+002;0.000000e+000
4.821370e+002;0.000000e+000
4.840656e+002;0.000000e+000
4.859941e+002;0.000000e+000
4.879226e+002;0.000000e+000
4.898512e+002;0.000000e+000
4.917798e+002;0.000000e+000
4.937083e+002;0.000000e+000
4.956368e+002;0.000000e+000
4.975654e+002;0.000000e+000
4.994939e+002;0.000000e+000
5.014225e+002;0.000000e+000
5.033510e+002;0.000000e+000
5.052796e+002;0.000000e+000
5.072081e+002;0.000000e+000
5.091367e+002;0.000000e+000
5.110652e+002;0.000000e+000
5.129938e+002;0.000000e+000
5.149223e+002;0.000000e+000
5.168509e+002;0.000000e+000
5.187794e+002;0.000000e+000
5.207079e+002;0.000000e+000
5.226365e+002;0.000000e+000
5.245651e+002;0.000000e+000
5.264936e+002;0.000000e+000
5.284222e+002;0.000000e+000
5.303507e+002;0.000000e+000
5.322792e+002;0.000000e+000
5.342078e+002;0.000000e+000
5.361364e+002;0.000000e+000
5.380649e+002;0.000000e+000
5.399935e+002;0.000000e+000
5.419220e+002;0.000000e+000
5.438505e+002;0.000000e+000
5.457791e+002;0.000000e+000
5.477076e+002;0.000000e+000
5.496362e+002;0.000000e+000
5.515648e+002;0.000000e+000
5.534933e+002;0.000000e+000
5.554218e+002;0.000000e+000
5.573504e+002;0.000000e+000
5.592789e+002;0.000000e+000
5.612075e+002;0.000000e+000
5.631360e+002;0.000000e+000
5.650646e+002;0.000000e+000
5.669931e+002;0.000000e+000
5.689217e+002;0.000000e+000
5.708502e+002;0.000000e+000
5.727787e+002;0.000000e+000
5.747073e+002;0.000000e+000
5.766359e+002;0.000000e+000
5.785644e+002;0.000000e+000
5.804930e+002;0.000000e+000
5.824215e+002;0.000000e+000
5.843500e+002;0.000000e+000
5.862786e+002;0.000000e+000
5.882072e+002;0.000000e+000
5.901357e+002;0.000000e+000
5.920643e+002;0.000000e+000
5.939928e+002;0.000000e+000
5.959213e+002;0.000000e+000
5.978499e+002;0.000000e+000
5.997784e+002;1.973981e-001
6.017070e+002;2.025447e-001
6.036355e+002;2.046607e-001
6.055641e+002;1.990740e-001
6.074926e+002;1.945357e-001
6.094211e+002;1.953036e-001
6.113497e+002;1.993875e-001
6.132783e+002;1.992141e-001
6.152068e+002;1.990593e-001
6.171354e+002;1.972103e-001
6.190639e+002;1.931963e-001
6.209924e+002;1.927629e-001
6.229210e+002;1.931283e-001
6.248495e+002;1.932061e-001
6.267781e+002;1.910954e-001
6.287067e+002;1.848245e-001
6.306352e+002;1.821671e-001
6.325637e+002;1.832959e-001
6.344923e+002;1.845448e-001
6.364208e+002;1.848826e-001
6.383494e+002;1.818126e-001
6.402780e+002;1.801585e-001
6.422065e+002;1.844788e-001
6.441350e+002;1.850756e-001
6.460636e+002;1.840309e-001
6.479921e+002;1.833933e-001
6.499207e+002;1.820195e-001
6.518492e+002;1.816314e-001
6.537778e+002;1.818601e-001
6.557063e+002;1.810605e-001
6.576349e+002;1.811377e-001
6.595634e+002;1.825731e-001
6.614919e+002;1.850892e-001
6.634205e+002;1.842429e-001
6.653491e+002;1.831580e-001
6.672776e+002;1.842354e-001
6.692062e+002;1.811309e-001
6.711347e+002;1.759054e-001
6.730632e+002;1.738678e-001
6.749918e+002;1.702601e-001
6.769203e+002;1.665007e-001
6.788489e+002;1.615009e-001
6.807775e+002;1.580466e-001
6.827060e+002;1.559708e-001
6.846345e+002;1.530753e-001
6.865631e+002;1.512097e-001
6.884916e+002;1.501724e-001
6.904202e+002;1.497854e-001
6.923488e+002;1.494695e-001
6.942773e+002;1.492155e-001
6.962058e+002;1.492379e-001
6.981344e+002;1.486231e-001
7.000629e+002;1.476189e-001
7.019915e+002;1.458349e-001
7.039200e+002;1.445718e-001
7.058486e+002;1.443256e-001
7.077771e+002;1.433705e-001
7.097057e+002;1.421000e-001
7.116342e+002;1.404421e-001
7.135627e+002;1.390417e-001
7.154913e+002;1.388701e-001
7.174199e+002;1.375851e-001
7.193484e+002;1.361729e-001
7.212770e+002;1.347535e-001
7.232055e+002;1.323825e-001
7.251340e+002;1.301131e-001
7.270626e+002;1.279136e-001
7.289911e+002;1.264734e-001
7.309197e+002;1.253351e-001
7.328483e+002;1.240533e-001
7.347768e+002;1.234785e-001
7.367053e+002;1.229515e-001
7.386339e+002;1.214068e-001
7.405624e+002;1.196432e-001
7.424910e+002;1.190138e-001
7.444196e+002;1.186646e-001
7.463481e+002;1.173506e-001
7.482766e+002;1.161233e-001
7.502052e+002;1.163069e-001
7.521337e+002;1.155903e-001
7.540623e+002;1.140069e-001
7.559908e+002;1.118949e-001
7.579194e+002;1.101452e-001
7.598479e+002;1.089745e-001
7.617765e+002;1.080949e-001
7.637050e+002;1.073731e-001
7.656335e+002;1.067409e-001
7.675621e+002;1.055044e-001
7.694907e+002;1.043519e-001
7.714192e+002;1.031852e-001
7.733478e+002;1.023102e-001
7.752763e+002;1.020076e-001
7.772048e+002;1.016879e-001
7.791334e+002;1.006730e-001
7.810620e+002;9.995408e-002
7.829905e+002;9.981708e-002
7.849191e+002;1.000319e-001
7.868476e+002;9.934127e-002
7.887761e+002;9.790152e-002
7.907047e+002;9.692583e-002
7.926332e+002;9.610928e-002
7.945618e+002;9.530190e-002
7.964903e+002;9.519185e-002
7.984189e+002;9.544031e-002
8.003474e+002;9.511814e-002
8.022759e+002;9.492939e-002
8.042045e+002;9.540895e-002
8.061331e+002;9.549889e-002
8.080616e+002;9.482922e-002
8.099902e+002;9.398200e-002
8.119187e+002;9.389931e-002
8.138472e+002;9.425277e-002
8.157758e+002;9.457254e-002
8.177043e+002;9.424121e-002
8.196329e+002;9.336760e-002
8.215615e+002;9.207477e-002
8.234900e+002;9.104453e-002
8.254185e+002;9.084120e-002
8.273471e+002;9.064055e-002
8.292756e+002;8.967443e-002
8.312042e+002;8.968265e-002
8.331328e+002;9.035883e-002
8.350613e+002;9.022928e-002
8.369898e+002;8.962001e-002
8.389184e+002;8.894079e-002
8.408469e+002;8.807891e-002
8.427755e+002;8.761646e-002
8.447040e+002;8.753315e-002
8.466326e+002;8.717718e-002
8.485611e+002;8.689859e-002
8.504897e+002;8.669619e-002
8.524182e+002;8.613197e-002
8.543467e+002;8.515480e-002
8.562753e+002;8.492662e-002
8.582039e+002;8.600383e-002
8.601324e+002;8.721841e-002
8.620610e+002;8.779337e-002
8.639895e+002;8.915758e-002
8.659180e+002;9.105437e-002
8.678466e+002;9.239536e-002
8.697751e+002;9.450474e-002
8.717037e+002;9.732290e-002
8.736323e+002;1.000754e-001
8.755608e+002;1.021640e-001
8.774893e+002;1.034310e-001
8.794179e+002;1.050320e-001
8.813464e+002;1.070934e-001
8.832750e+002;1.095109e-001
8.852036e+002;1.119598e-001
8.871321e+002;1.146004e-001
8.890606e+002;1.177354e-001
8.909892e+002;1.202906e-001
8.929177e+002;1.225219e-001
8.948463e+002;1.243789e-001
8.967748e+002;1.254042e-001
8.987034e+002;1.255137e-001
9.006319e+002;1.249316e-001
9.025605e+002;1.236192e-001
9.044890e+002;1.214252e-001
9.064175e+002;1.190271e-001
9.083461e+002;1.166749e-001
9.102747e+002;1.138888e-001
9.122032e+002;1.115676e-001
9.141318e+002;1.098970e-001
9.160603e+002;1.085462e-001
9.179888e+002;1.077049e-001
9.199174e+002;1.073535e-001
9.218459e+002;1.074764e-001
9.237745e+002;1.081853e-001
9.257031e+002;1.092843e-001
9.276316e+002;1.104494e-001
9.295601e+002;1.114845e-001
9.314887e+002;1.125411e-001
9.334172e+002;1.139204e-001
9.353458e+002;1.156820e-001
9.372744e+002;1.174388e-001
9.392029e+002;1.192706e-001
9.411314e+002;1.209265e-001
9.430600e+002;1.225334e-001
9.449885e+002;1.249036e-001
9.469171e+002;1.281779e-001
9.488456e+002;1.314125e-001
9.507742e+002;1.344783e-001
9.527027e+002;1.383803e-001
9.546313e+002;1.423692e-001
9.565598e+002;1.463129e-001
9.584883e+002;1.507011e-001
9.604169e+002;1.558137e-001
9.623455e+002;1.612722e-001
9.642740e+002;1.664470e-001
9.662026e+002;1.716519e-001
9.681311e+002;1.776306e-001
9.700596e+002;1.847291e-001
9.719882e+002;1.924299e-001
9.739167e+002;2.009434e-001
9.758453e+002;2.102173e-001
9.777739e+002;2.206123e-001
9.797024e+002;2.322617e-001
9.816309e+002;2.441138e-001
9.835595e+002;2.547074e-001
9.854880e+002;2.634676e-001
9.874166e+002;2.707659e-001
9.893452e+002;2.764779e-001
9.912737e+002;2.810866e-001
9.932022e+002;2.851101e-001
9.951307e+002;2.890711e-001
9.970593e+002;2.925937e-001
9.989879e+002;2.954683e-001
1.000916e+003;2.980635e-001
1.002845e+003;3.000919e-001
1.004773e+003;3.020777e-001
1.006702e+003;3.045151e-001
1.008631e+003;3.068044e-001
1.010559e+003;3.095412e-001
1.012488e+003;3.132499e-001
1.014416e+003;3.176662e-001
1.016345e+003;3.213913e-001
1.018273e+003;3.234330e-001
1.020202e+003;3.256783e-001
1.022130e+003;3.278123e-001
1.024059e+003;3.285093e-001
1.025988e+003;3.289564e-001
1.027916e+003;3.292758e-001
1.029845e+003;3.288880e-001
1.031773e+003;3.282182e-001
1.033702e+003;3.269485e-001
1.035630e+003;3.250509e-001
1.037559e+003;3.224458e-001
1.039487e+003;3.188652e-001
1.041416e+003;3.155478e-001
1.043344e+003;3.131871e-001
1.045273e+003;3.117122e-001
1.047202e+003;3.104132e-001
1.049130e+003;3.095166e-001
1.051059e+003;3.091930e-001
1.052987e+003;3.086124e-001
1.054916e+003;3.069681e-001
1.056844e+003;3.041554e-001
1.058773e+003;3.005773e-001
1.060701e+003;2.953767e-001
1.062630e+003;2.894483e-001
1.064558e+003;2.831510e-001
1.066487e+003;2.760373e-001
1.068416e+003;2.691621e-001
1.070344e+003;2.629123e-001
1.072273e+003;2.564585e-001
1.074201e+003;2.507302e-001
1.076130e+003;2.454327e-001
1.078058e+003;2.398928e-001
1.079987e+003;2.353105e-001
1.081915e+003;2.316409e-001
1.083844e+003;2.280819e-001
1.085773e+003;2.248525e-001
1.087701e+003;2.221046e-001
1.089630e+003;2.197467e-001
1.091558e+003;2.174809e-001
1.093487e+003;2.153133e-001
1.095415e+003;2.135545e-001
1.097344e+003;2.120532e-001
1.099272e+003;2.095762e-001
1.101201e+003;2.068620e-001
1.103129e+003;2.049279e-001
1.105058e+003;2.030430e-001
1.106987e+003;2.012374e-001
1.108915e+003;1.985824e-001
1.110844e+003;1.949964e-001
1.112772e+003;1.908270e-001
1.114701e+003;1.866916e-001
1.116629e+003;1.820031e-001
1.118558e+003;1.765460e-001
1.120486e+003;1.714088e-001
1.122415e+003;1.667799e-001
1.124344e+003;1.621897e-001
1.126272e+003;1.574024e-001
1.128201e+003;1.526787e-001
1.130129e+003;1.483248e-001
1.132058e+003;1.447863e-001
1.133986e+003;1.412714e-001
1.135915e+003;1.376189e-001
1.137843e+003;1.343691e-001
1.139772e+003;1.322818e-001
1.141700e+003;1.313325e-001
1.143629e+003;1.312680e-001
1.145557e+003;1.314813e-001
1.147486e+003;1.315563e-001
1.149415e+003;1.317850e-001
1.151343e+003;1.323927e-001
1.153272e+003;1.332540e-001
1.155200e+003;1.339847e-001
1.157129e+003;1.340378e-001
1.159057e+003;1.335798e-001
1.160986e+003;1.327036e-001
1.162914e+003;1.302895e-001
1.164843e+003;1.268628e-001
1.166771e+003;1.228650e-001
1.168700e+003;1.183511e-001
1.170629e+003;1.136802e-001
1.172557e+003;1.087345e-001
1.174486e+003;1.036671e-001
1.176414e+003;9.940691e-002
1.178343e+003;9.599081e-002
1.180271e+003;9.249751e-002
1.182200e+003;8.989778e-002
1.184128e+003;8.880239e-002
1.186057e+003;8.804490e-002
1.187986e+003;8.806925e-002
1.189914e+003;8.900374e-002
1.191843e+003;9.037846e-002
1.193771e+003;9.215895e-002
1.195700e+003;9.404449e-002
1.197628e+003;9.564828e-002
1.199557e+003;9.650046e-002
1.201485e+003;9.670447e-002
1.203414e+003;9.636489e-002
1.205343e+003;9.564564e-002
1.207271e+003;9.411621e-002
1.209200e+003;9.185594e-002
1.211128e+003;8.980568e-002
1.213057e+003;8.827347e-002
1.214985e+003;8.747998e-002
1.216914e+003;8.756594e-002
1.218842e+003;8.828646e-002
1.220771e+003;8.953844e-002
1.222699e+003;9.070338e-002
1.224628e+003;9.215535e-002
1.226557e+003;9.355254e-002
1.228485e+003;9.494032e-002
1.230414e+003;9.652612e-002
1.232342e+003;9.777908e-002
1.234271e+003;9.832810e-002
1.236199e+003;9.843894e-002
1.238128e+003;9.873585e-002
1.240056e+003;9.897136e-002
1.241985e+003;9.894306e-002
1.243913e+003;9.925356e-002
1.245842e+003;1.000086e-001
1.247771e+003;1.004026e-001
1.249699e+003;1.007975e-001
1.251628e+003;1.011203e-001
1.253556e+003;1.011029e-001
1.255485e+003;1.010733e-001
1.257413e+003;1.012305e-001
1.259342e+003;1.015600e-001
1.261270e+003;1.016978e-001
1.263199e+003;1.015102e-001
1.265127e+003;1.013229e-001
1.267056e+003;1.011625e-001
1.268985e+003;1.011174e-001
1.270913e+003;1.007859e-001
1.272842e+003;1.001738e-001
1.274770e+003;9.983001e-002
1.276699e+003;9.952302e-002
1.278627e+003;9.910847e-002
1.280556e+003;9.845964e-002
1.282484e+003;9.777480e-002
1.284413e+003;9.728807e-002
1.286342e+003;9.681708e-002
1.288270e+003;9.668120e-002
1.290199e+003;9.750497e-002
1.292127e+003;9.856103e-002
1.294056e+003;9.918869e-002
1.295984e+003;1.001167e-001
1.297913e+003;1.012913e-001
1.299841e+003;1.026804e-001
1.301770e+003;1.042760e-001
1.303698e+003;1.057751e-001
1.305627e+003;1.075628e-001
1.307556e+003;1.097441e-001
1.309484e+003;1.117959e-001
1.311413e+003;1.133731e-001
1.313341e+003;1.144911e-001
1.315270e+003;1.152287e-001
1.317198e+003;1.154165e-001
1.319127e+003;1.148386e-001
1.321055e+003;1.138407e-001
1.322984e+003;1.127578e-001
1.324912e+003;1.116594e-001
1.326841e+003;1.106359e-001
1.328770e+003;1.100345e-001
1.330698e+003;1.101351e-001
1.332627e+003;1.105892e-001
1.334555e+003;1.104921e-001
1.336484e+003;1.097950e-001
1.338412e+003;1.089368e-001
1.340341e+003;1.081791e-001
1.342269e+003;1.075331e-001
1.344198e+003;1.066882e-001
1.346126e+003;1.060533e-001
1.348055e+003;1.053364e-001
1.349984e+003;1.048153e-001
1.351912e+003;1.049028e-001
1.353841e+003;1.052228e-001
1.355769e+003;1.057150e-001
1.357698e+003;1.061361e-001
1.359626e+003;1.064044e-001
1.361555e+003;1.065763e-001
1.363483e+003;1.065520e-001
1.365412e+003;1.063265e-001
1.367341e+003;1.057264e-001
1.369269e+003;1.052934e-001
1.371198e+003;1.045021e-001
1.373126e+003;1.028301e-001
1.375055e+003;1.013083e-001
1.376983e+003;1.000554e-001
1.378912e+003;9.826432e-002
1.380840e+003;9.664965e-002
1.382769e+003;9.502543e-002
1.384698e+003;9.309959e-002
1.386626e+003;9.096563e-002
1.388555e+003;9.020147e-002
1.390483e+003;8.979408e-002
1.392412e+003;8.848570e-002
1.394340e+003;8.729274e-002
1.396269e+003;8.752991e-002
1.398197e+003;8.785380e-002
1.400126e+003;8.841784e-002
1.402054e+003;8.911202e-002
1.403983e+003;8.922830e-002
1.405911e+003;8.995378e-002
1.407840e+003;9.080853e-002
1.409769e+003;9.130891e-002
1.411697e+003;9.162254e-002
1.413626e+003;9.186749e-002
1.415554e+003;9.184555e-002
1.417483e+003;9.099096e-002
1.419411e+003;9.068354e-002
1.421340e+003;9.271334e-002
1.423268e+003;9.406514e-002
1.425197e+003;9.445078e-002
1.427125e+003;9.438979e-002
1.429054e+003;9.354934e-002
1.430983e+003;9.304803e-002
1.432911e+003;9.256890e-002
1.434840e+003;9.019107e-002
1.436768e+003;8.767139e-002
1.438697e+003;8.788057e-002
1.440625e+003;8.771660e-002
1.442554e+003;8.678904e-002
1.444482e+003;8.552498e-002
1.446411e+003;8.407772e-002
1.448340e+003;8.313198e-002
1.450268e+003;8.258226e-002
1.452197e+003;8.132086e-002
1.454125e+003;7.853615e-002
1.456054e+003;7.414266e-002
1.457982e+003;7.404571e-002
1.459911e+003;7.634298e-002
1.461839e+003;7.632879e-002
1.463768e+003;7.401361e-002
1.465697e+003;7.233350e-002
1.467625e+003;7.155424e-002
1.469554e+003;6.949124e-002
1.471482e+003;6.613406e-002
1.473411e+003;6.412797e-002
1.475339e+003;6.301630e-002
1.477268e+003;6.139919e-002
1.479196e+003;6.002020e-002
1.481125e+003;5.798218e-002
1.483053e+003;5.585727e-002
1.484982e+003;5.346790e-002
1.486911e+003;5.069146e-002
1.488839e+003;4.821688e-002
1.490768e+003;4.680955e-002
1.492696e+003;4.607912e-002
1.494625e+003;4.401080e-002
1.496553e+003;4.196556e-002
1.498482e+003;4.205188e-002
1.500410e+003;4.264004e-002
1.502339e+003;4.229023e-002
1.504267e+003;3.876562e-002
1.506196e+003;3.488728e-002
1.508125e+003;3.633954e-002
1.510053e+003;3.861813e-002
1.511982e+003;3.870201e-002
1.513910e+003;3.850960e-002
1.515839e+003;3.717466e-002
1.517767e+003;3.617710e-002
1.519696e+003;3.435657e-002
1.521624e+003;3.309446e-002
1.523553e+003;3.472057e-002
1.525481e+003;3.527686e-002
1.527410e+003;3.578100e-002
1.529339e+003;3.653121e-002
1.531267e+003;3.650079e-002
1.533196e+003;3.586469e-002
1.535124e+003;3.676197e-002
1.537053e+003;3.541628e-002
1.538981e+003;3.149892e-002
1.540910e+003;3.196277e-002
1.542838e+003;3.485138e-002
1.544767e+003;3.636944e-002
1.546695e+003;3.748184e-002
1.548624e+003;3.742910e-002
1.550553e+003;3.679417e-002
1.552481e+003;3.600276e-002
1.554410e+003;3.482306e-002
1.556338e+003;3.282875e-002
1.558267e+003;2.905938e-002
1.560195e+003;3.098588e-002
1.562124e+003;3.574808e-002
1.564052e+003;3.704737e-002
1.565981e+003;3.738620e-002
1.567910e+003;3.694509e-002
1.569838e+003;3.661108e-002
1.571767e+003;3.823908e-002
1.573695e+003;3.808985e-002
1.575624e+003;3.606601e-002
1.577552e+003;3.775478e-002
1.579481e+003;4.005266e-002
1.581409e+003;4.018476e-002
1.583338e+003;3.990731e-002
1.585266e+003;3.969730e-002
1.587195e+003;3.994952e-002
1.589124e+003;3.998741e-002
1.591052e+003;3.993960e-002
1.592981e+003;4.018258e-002
1.594909e+003;4.053048e-002
1.596838e+003;4.074645e-002
1.598766e+003;4.089096e-002
1.600695e+003;4.117884e-002
1.602623e+003;4.144540e-002
1.604552e+003;4.164488e-002
1.606480e+003;4.185017e-002
1.608409e+003;4.205874e-002
1.610338e+003;4.237114e-002
1.612266e+003;4.273180e-002
1.614195e+003;4.190085e-002
1.616123e+003;4.003083e-002
1.618052e+003;4.147366e-002
1.619980e+003;4.364683e-002
1.621909e+003;4.325141e-002
1.623837e+003;4.318329e-002
1.625766e+003;4.405076e-002
1.627694e+003;4.450884e-002
1.629623e+003;4.532928e-002
1.631552e+003;4.558931e-002
1.633480e+003;4.382177e-002
1.635409e+003;4.215490e-002
1.637337e+003;4.422348e-002
1.639266e+003;4.628125e-002
1.641194e+003;4.659567e-002
1.643123e+003;4.584468e-002
1.645051e+003;4.344637e-002
1.646980e+003;4.269016e-002
1.648909e+003;4.404152e-002
1.650837e+003;4.096454e-002
1.652766e+003;3.632826e-002
1.654694e+003;3.983562e-002
1.656623e+003;4.359774e-002
1.658551e+003;4.338181e-002
1.660480e+003;4.204717e-002
1.662408e+003;4.071512e-002
1.664337e+003;4.090895e-002
1.666266e+003;4.041239e-002
1.668194e+003;3.809455e-002
1.670123e+003;3.689805e-002
1.672051e+003;3.701905e-002
1.673980e+003;3.543289e-002
1.675908e+003;3.456569e-002
1.677837e+003;3.536617e-002
1.679765e+003;3.453075e-002
1.681694e+003;3.203910e-002
1.683622e+003;2.783060e-002
1.685551e+003;2.837770e-002
1.687479e+003;3.100324e-002
1.689408e+003;3.068060e-002
1.691337e+003;3.016700e-002
1.693265e+003;2.825250e-002
1.695194e+003;2.431953e-002
1.697122e+003;2.367810e-002
1.699051e+003;2.205790e-002
1.700979e+003;2.159486e-002
1.702908e+003;2.416733e-002
1.704836e+003;2.398711e-002
1.706765e+003;2.402426e-002
1.708693e+003;2.414358e-002
1.710622e+003;2.401739e-002
1.712551e+003;2.281091e-002
1.714479e+003;2.072921e-002
1.716408e+003;1.835677e-002
1.718336e+003;1.854204e-002
1.720265e+003;2.087604e-002
1.722193e+003;2.159392e-002
1.724122e+003;2.117958e-002
1.726050e+003;2.093337e-002
1.727979e+003;2.036799e-002
1.729908e+003;1.946067e-002
1.731836e+003;1.693176e-002
1.733765e+003;1.401672e-002
1.735693e+003;1.552316e-002
1.737622e+003;1.653510e-002
1.739550e+003;1.495120e-002
1.741479e+003;1.404211e-002
1.743407e+003;1.345323e-002
1.745336e+003;1.315063e-002
1.747265e+003;1.241997e-002
1.749193e+003;1.123402e-002
1.751122e+003;1.100969e-002
1.753050e+003;1.291316e-002
1.754979e+003;1.368001e-002
1.756907e+003;1.374635e-002
1.758836e+003;1.431060e-002
1.760764e+003;1.380959e-002
1.762693e+003;1.389262e-002
1.764621e+003;1.466678e-002
1.766550e+003;1.416752e-002
1.768479e+003;1.385858e-002
1.770407e+003;1.301691e-002
1.772336e+003;1.194773e-002
1.774264e+003;1.335980e-002
1.776193e+003;1.449960e-002
1.778121e+003;1.457570e-002
1.780050e+003;1.438218e-002
1.781978e+003;1.434512e-002
1.783907e+003;1.404581e-002
1.785835e+003;1.393607e-002
1.787764e+003;1.411388e-002
1.789693e+003;1.329034e-002
1.791621e+003;1.212766e-002
1.793550e+003;1.267439e-002
1.795478e+003;1.384052e-002
1.797407e+003;1.376332e-002
1.799335e+003;1.332334e-002
1.801264e+003;1.320705e-002
1.803192e+003;1.316241e-002
1.805121e+003;1.308308e-002
1.807049e+003;1.309582e-002
1.808978e+003;1.288767e-002
1.810907e+003;1.287101e-002
1.812835e+003;1.300656e-002
1.814764e+003;1.296556e-002
1.816692e+003;1.260801e-002
1.818621e+003;1.254757e-002
1.820549e+003;1.253468e-002
1.822478e+003;1.229472e-002
1.824406e+003;1.181162e-002
1.826335e+003;1.181469e-002
1.828264e+003;1.136331e-002
1.830192e+003;1.114150e-002
1.832121e+003;1.180352e-002
1.834049e+003;1.209203e-002
1.835978e+003;1.222512e-002
1.837906e+003;1.218839e-002
1.839835e+003;1.191551e-002
1.841763e+003;1.102036e-002
1.843692e+003;9.914217e-003
1.845620e+003;1.065765e-002
1.847549e+003;1.158060e-002
1.849478e+003;1.173237e-002
1.851406e+003;1.166933e-002
1.853335e+003;1.126931e-002
1.855263e+003;1.095281e-002
1.857192e+003;1.115813e-002
1.859120e+003;1.112233e-002
1.861049e+003;1.096116e-002
1.862977e+003;1.102832e-002
1.864906e+003;1.100378e-002
1.866834e+003;1.045891e-002
1.868763e+003;9.842661e-003
1.870692e+003;1.024466e-002
1.872620e+003;1.073039e-002
1.874549e+003;1.063843e-002
1.876477e+003;1.045806e-002
1.878406e+003;1.046886e-002
1.880334e+003;1.058081e-002
1.882263e+003;1.041275e-002
1.884191e+003;1.014659e-002
1.886120e+003;9.950830e-003
1.888048e+003;9.772236e-003
1.889977e+003;9.731133e-003
1.891906e+003;1.005095e-002
1.893834e+003;1.003651e-002
1.895763e+003;9.919234e-003
1.897691e+003;9.957915e-003
1.899620e+003;9.866082e-003
1.901548e+003;9.717952e-003
1.903477e+003;9.830426e-003
1.905405e+003;9.665062e-003
1.907334e+003;9.458479e-003
1.909262e+003;9.541994e-003
1.911191e+003;9.634232e-003
1.913120e+003;9.643176e-003
1.915048e+003;9.408363e-003
1.916977e+003;9.102752e-003
1.918905e+003;9.407618e-003
1.920834e+003;9.705685e-003
1.922762e+003;9.655948e-003
1.924691e+003;9.839950e-003
1.926619e+003;9.878217e-003
1.928548e+003;9.707888e-003
1.930477e+003;9.721170e-003
1.932405e+003;9.755157e-003
1.934334e+003;9.723644e-003
1.936262e+003;9.806160e-003
1.938191e+003;9.872861e-003
1.940119e+003;9.652357e-003
1.942048e+003;9.583555e-003
1.943976e+003;9.845949e-003
1.945905e+003;9.964255e-003
1.947833e+003;1.003708e-002
1.949762e+003;1.009297e-002
1.951691e+003;9.930828e-003
1.953619e+003;9.827918e-003
1.955548e+003;9.919980e-003
1.957476e+003;1.005628e-002
1.959405e+003;1.004190e-002
1.961333e+003;1.000070e-002
1.963262e+003;1.027638e-002
1.965190e+003;1.039589e-002
1.967119e+003;9.961373e-003
1.969047e+003;9.769118e-003
1.970976e+003;9.859337e-003
1.972905e+003;1.007089e-002
1.974833e+003;1.013106e-002
1.976762e+003;1.008320e-002
1.978690e+003;1.028438e-002
1.980619e+003;1.062644e-002
1.982547e+003;1.064804e-002
1.984476e+003;1.037827e-002
1.986404e+003;1.029941e-002
1.988333e+003;1.025270e-002
1.990261e+003;9.887403e-003
1.992190e+003;9.809142e-003
1.994119e+003;1.023000e-002
1.996047e+003;1.047194e-002
1.997976e+003;1.039307e-002
1.999904e+003;1.020965e-002
2.001833e+003;1.022162e-002
2.003761e+003;1.030596e-002
2.005690e+003;1.041425e-002
2.007618e+003;1.056706e-002
2.009547e+003;1.055976e-002
2.011476e+003;1.064393e-002
2.013404e+003;1.062346e-002
2.015333e+003;1.055942e-002
2.017261e+003;1.060753e-002
2.019190e+003;1.083698e-002
2.021118e+003;1.099967e-002
2.023047e+003;1.086209e-002
2.024975e+003;1.078450e-002
2.026904e+003;1.097860e-002
2.028833e+003;1.114093e-002
2.030761e+003;1.118488e-002
2.032690e+003;1.111679e-002
2.034618e+003;1.106557e-002
2.036547e+003;1.121372e-002
2.038475e+003;1.125278e-002
2.040404e+003;1.099328e-002
2.042332e+003;1.097499e-002
2.044261e+003;1.129359e-002
2.046189e+003;1.148019e-002
2.048118e+003;1.144549e-002
2.050047e+003;1.137209e-002
2.051975e+003;1.134165e-002
2.053904e+003;1.147992e-002
2.055832e+003;1.136732e-002
2.057761e+003;1.115221e-002
2.059689e+003;1.085339e-002
2.061618e+003;1.074500e-002
2.063546e+003;1.088301e-002
2.065475e+003;1.082421e-002
2.067404e+003;1.082523e-002
2.069332e+003;1.085675e-002
2.071260e+003;1.084153e-002
2.073189e+003;1.105697e-002
2.075118e+003;1.110809e-002
2.077046e+003;1.091641e-002
2.078975e+003;1.106703e-002
2.080903e+003;1.129567e-002
2.082832e+003;1.126173e-002
2.084760e+003;1.123918e-002
2.086689e+003;1.120396e-002
2.088617e+003;1.101353e-002
2.090546e+003;1.085329e-002
2.092475e+003;1.093422e-002
2.094403e+003;1.118781e-002
2.096332e+003;1.119709e-002
2.098260e+003;1.108691e-002
2.100189e+003;1.101911e-002
2.102117e+003;1.099674e-002
2.104046e+003;1.120651e-002
2.105974e+003;1.139171e-002
2.107903e+003;1.144770e-002
2.109832e+003;1.143325e-002
2.111760e+003;1.153970e-002
2.113688e+003;1.165040e-002
2.115617e+003;1.161069e-002
2.117546e+003;1.151912e-002
2.119474e+003;1.150921e-002
2.121403e+003;1.156917e-002
2.123331e+003;1.148530e-002
2.125260e+003;1.147897e-002
2.127188e+003;1.159670e-002
2.129117e+003;1.157288e-002
2.131045e+003;1.156859e-002
2.132974e+003;1.170503e-002
2.134903e+003;1.178006e-002
2.136831e+003;1.186607e-002
2.138760e+003;1.156556e-002
2.140688e+003;1.127281e-002
2.142617e+003;1.122732e-002
2.144545e+003;1.114395e-002
2.146474e+003;1.103386e-002
2.148402e+003;1.104109e-002
2.150331e+003;1.104456e-002
2.152260e+003;1.094271e-002
2.154188e+003;1.085101e-002
2.156117e+003;1.110744e-002
2.158045e+003;1.121698e-002
2.159974e+003;1.101459e-002
2.161902e+003;1.100286e-002
2.163831e+003;1.090017e-002
2.165759e+003;1.080875e-002
2.167688e+003;1.070102e-002
2.169616e+003;1.051132e-002
2.171545e+003;1.063069e-002
2.173474e+003;1.058743e-002
2.175402e+003;1.034054e-002
2.177331e+003;1.036086e-002
2.179259e+003;1.017857e-002
2.181188e+003;9.862896e-003
2.183116e+003;9.818056e-003
2.185045e+003;9.837103e-003
2.186973e+003;9.733606e-003
2.188902e+003;9.619157e-003
2.190831e+003;9.616854e-003
2.192759e+003;9.506025e-003
2.194688e+003;9.427630e-003
2.196616e+003;9.617396e-003
2.198545e+003;9.604387e-003
2.200473e+003;9.447507e-003
2.202402e+003;9.453095e-003
2.204330e+003;9.451265e-003
2.206259e+003;9.164913e-003
2.208188e+003;9.063470e-003
2.210116e+003;9.152460e-003
2.212044e+003;9.337027e-003
2.213973e+003;9.447676e-003
2.215902e+003;9.452722e-003
2.217830e+003;9.352464e-003
2.219759e+003;9.247865e-003
2.221687e+003;9.152967e-003
2.223616e+003;9.200514e-003
2.225544e+003;9.288923e-003
2.227473e+003;9.173441e-003
2.229401e+003;9.056535e-003
2.231330e+003;8.817305e-003
2.233259e+003;8.797592e-003
2.235187e+003;9.038401e-003
2.237116e+003;9.085394e-003
2.239044e+003;9.072774e-003
2.240973e+003;9.153847e-003
2.242901e+003;9.161664e-003
2.244830e+003;9.111076e-003
2.246758e+003;9.145455e-003
2.248687e+003;9.062489e-003
2.250615e+003;8.842666e-003
2.252544e+003;8.828734e-003
2.254473e+003;8.993712e-003
2.256401e+003;8.972977e-003
2.258330e+003;8.730447e-003
2.260258e+003;8.631539e-003
2.262187e+003;8.599093e-003
2.264115e+003;8.510690e-003
2.266044e+003;8.494268e-003
2.267972e+003;8.448622e-003
2.269901e+003;8.370552e-003
2.271830e+003;8.425346e-003
2.273758e+003;8.453589e-003
2.275687e+003;8.569555e-003
2.277615e+003;8.625557e-003
2.279544e+003;8.481294e-003
2.281472e+003;8.228131e-003
2.283401e+003;8.171742e-003
2.285329e+003;8.343631e-003
2.287258e+003;8.353697e-003
2.289187e+003;8.271220e-003
2.291115e+003;8.601627e-003
2.293043e+003;8.742956e-003
2.294972e+003;8.415177e-003
2.296901e+003;8.151012e-003
2.298829e+003;8.197032e-003
2.300758e+003;8.322657e-003
2.302686e+003;8.170189e-003
2.304615e+003;8.141930e-003
2.306543e+003;8.245319e-003
2.308472e+003;8.139972e-003
2.310400e+003;7.877560e-003
2.312329e+003;7.583206e-003
2.314258e+003;7.688620e-003
2.316186e+003;8.105267e-003
2.318115e+003;8.540527e-003
2.320043e+003;8.639685e-003
2.321972e+003;8.605278e-003
2.323900e+003;8.535121e-003
2.325829e+003;8.352988e-003
2.327757e+003;8.307323e-003
2.329686e+003;8.315496e-003
2.331615e+003;8.253930e-003
2.333543e+003;8.435750e-003
2.335472e+003;8.436460e-003
2.337400e+003;8.515690e-003
2.339329e+003;8.570367e-003
2.341257e+003;8.598147e-003
2.343186e+003;8.908510e-003
2.345114e+003;9.022873e-003
2.347043e+003;8.914395e-003
2.348971e+003;8.966482e-003
2.350900e+003;9.222209e-003
2.352829e+003;9.331204e-003
2.354757e+003;9.480355e-003
2.356686e+003;9.719137e-003
2.358614e+003;9.655948e-003
2.360543e+003;9.344712e-003
2.362471e+003;9.404605e-003
2.364400e+003;9.829172e-003
2.366328e+003;1.003020e-002
2.368257e+003;9.729811e-003
2.370186e+003;9.595140e-003
2.372114e+003;9.609875e-003
2.374042e+003;9.425091e-003
2.375971e+003;9.403589e-003
2.377900e+003;9.655914e-003
2.379828e+003;9.994124e-003
2.381757e+003;1.024805e-002
2.383685e+003;1.006743e-002
2.385614e+003;9.928217e-003
2.387542e+003;1.033796e-002
2.389471e+003;1.078953e-002
2.391399e+003;1.072007e-002
2.393328e+003;1.079469e-002
2.395257e+003;1.123398e-002
2.397185e+003;1.122891e-002
2.399114e+003;1.103460e-002
2.401042e+003;1.095960e-002
2.402971e+003;1.083674e-002
2.404899e+003;1.086650e-002
2.406828e+003;1.109663e-002
2.408756e+003;1.095060e-002
2.410685e+003;1.096565e-002
2.412614e+003;1.132865e-002
2.414542e+003;1.146512e-002
2.416471e+003;1.160099e-002
2.418399e+003;1.160000e-002
2.420328e+003;1.167988e-002
2.422256e+003;1.171644e-002
2.424185e+003;1.183062e-002
2.426113e+003;1.194518e-002
2.428042e+003;1.204089e-002
2.429970e+003;1.229479e-002
2.431899e+003;1.238038e-002
2.433828e+003;1.258976e-002
2.435756e+003;1.294006e-002
2.437685e+003;1.297553e-002
2.439613e+003;1.294679e-002
2.441542e+003;1.334927e-002
2.443470e+003;1.370330e-002
2.445399e+003;1.358999e-002
2.447327e+003;1.347452e-002
2.449256e+003;1.351772e-002
2.451185e+003;1.351201e-002
2.453113e+003;1.358373e-002
2.455042e+003;1.371239e-002
2.456970e+003;1.374984e-002
2.458899e+003;1.388954e-002
2.460827e+003;1.409773e-002
2.462756e+003;1.404170e-002
2.464684e+003;1.372019e-002
2.466613e+003;1.373671e-002
2.468542e+003;1.410608e-002
2.470470e+003;1.432618e-002
2.472398e+003;1.445671e-002
2.474327e+003;1.463580e-002
2.476256e+003;1.460397e-002
2.478184e+003;1.460150e-002
2.480113e+003;1.477990e-002
2.482041e+003;1.511121e-002
2.483970e+003;1.521727e-002
2.485898e+003;1.536197e-002
2.487827e+003;1.559539e-002
2.489755e+003;1.565299e-002
2.491684e+003;1.566151e-002
2.493613e+003;1.555225e-002
2.495541e+003;1.568177e-002
2.497470e+003;1.606889e-002
2.499398e+003;1.594114e-002
2.501327e+003;1.560607e-002
2.503255e+003;1.598500e-002
2.505184e+003;1.636978e-002
2.507112e+003;1.632075e-002
2.509041e+003;1.656735e-002
2.510969e+003;1.694268e-002
2.512898e+003;1.686624e-002
2.514827e+003;1.683135e-002
2.516755e+003;1.692511e-002
2.518684e+003;1.691581e-002
2.520612e+003;1.717971e-002
2.522541e+003;1.748827e-002
2.524469e+003;1.743277e-002
2.526398e+003;1.731858e-002
2.528326e+003;1.750169e-002
2.530255e+003;1.747840e-002
2.532184e+003;1.708489e-002
2.534112e+003;1.722097e-002
2.536041e+003;1.755219e-002
2.537969e+003;1.750455e-002
2.539898e+003;1.751435e-002
2.541826e+003;1.770405e-002
2.543755e+003;1.796467e-002
2.545683e+003;1.796664e-002
2.547612e+003;1.786761e-002
2.549541e+003;1.777633e-002
2.551469e+003;1.783798e-002
2.553397e+003;1.789954e-002
2.555326e+003;1.806614e-002
2.557255e+003;1.808003e-002
2.559183e+003;1.827454e-002
2.561112e+003;1.860370e-002
2.563040e+003;1.854328e-002
2.564969e+003;1.837491e-002
2.566897e+003;1.833347e-002
2.568826e+003;1.829994e-002
2.570754e+003;1.829072e-002
2.572683e+003;1.829994e-002
2.574612e+003;1.835908e-002
2.576540e+003;1.846801e-002
2.578469e+003;1.855258e-002
2.580397e+003;1.852361e-002
2.582326e+003;1.846676e-002
2.584254e+003;1.844647e-002
2.586183e+003;1.868252e-002
2.588111e+003;1.901385e-002
2.590040e+003;1.891313e-002
2.591969e+003;1.884502e-002
2.593897e+003;1.922901e-002
2.595826e+003;1.950385e-002
2.597754e+003;1.945894e-002
2.599683e+003;1.947412e-002
2.601611e+003;1.934360e-002
2.603540e+003;1.927009e-002
2.605468e+003;1.950409e-002
2.607397e+003;1.979926e-002
2.609325e+003;1.998671e-002
2.611254e+003;2.011443e-002
2.613183e+003;2.030386e-002
2.615111e+003;2.034789e-002
2.617040e+003;2.052355e-002
2.618968e+003;2.095416e-002
2.620897e+003;2.118111e-002
2.622825e+003;2.132402e-002
2.624754e+003;2.120905e-002
2.626682e+003;2.130380e-002
2.628611e+003;2.178778e-002
2.630540e+003;2.210535e-002
2.632468e+003;2.208593e-002
2.634396e+003;2.225700e-002
2.636325e+003;2.246251e-002
2.638254e+003;2.268609e-002
2.640182e+003;2.296445e-002
2.642111e+003;2.327932e-002
2.644039e+003;2.351269e-002
2.645968e+003;2.347925e-002
2.647896e+003;2.339351e-002
2.649825e+003;2.340064e-002
2.651753e+003;2.347135e-002
2.653682e+003;2.369801e-002
2.655611e+003;2.399320e-002
2.657539e+003;2.424763e-002
2.659468e+003;2.451669e-002
2.661396e+003;2.457682e-002
2.663325e+003;2.467160e-002
2.665253e+003;2.498044e-002
2.667182e+003;2.509515e-002
2.669110e+003;2.535592e-002
2.671039e+003;2.579117e-002
2.672968e+003;2.574441e-002
2.674896e+003;2.558911e-002
2.676825e+003;2.581192e-002
2.678753e+003;2.621800e-002
2.680682e+003;2.651268e-002
2.682610e+003;2.681078e-002
2.684539e+003;2.686471e-002
2.686467e+003;2.685939e-002
2.688396e+003;2.704998e-002
2.690324e+003;2.736118e-002
2.692253e+003;2.772672e-002
2.694182e+003;2.781696e-002
2.696110e+003;2.816931e-002
2.698039e+003;2.829621e-002
2.699967e+003;2.841431e-002
2.701896e+003;2.888547e-002
2.703824e+003;2.919048e-002
2.705753e+003;2.908291e-002
2.707681e+003;2.891440e-002
2.709610e+003;2.928656e-002
2.711539e+003;2.961651e-002
2.713467e+003;2.966727e-002
2.715396e+003;2.967355e-002
2.717324e+003;2.990634e-002
2.719253e+003;3.009988e-002
2.721181e+003;2.998643e-002
2.723110e+003;3.009505e-002
2.725038e+003;3.037458e-002
2.726967e+003;3.050632e-002
2.728896e+003;3.073401e-002
2.730824e+003;3.091948e-002
2.732752e+003;3.107378e-002
2.734681e+003;3.114938e-002
2.736610e+003;3.128393e-002
2.738538e+003;3.155144e-002
2.740467e+003;3.168329e-002
2.742395e+003;3.155963e-002
2.744324e+003;3.153280e-002
2.746252e+003;3.153618e-002
2.748181e+003;3.199591e-002
2.750109e+003;3.234941e-002
2.752038e+003;3.265822e-002
2.753967e+003;3.273603e-002
2.755895e+003;3.248432e-002
2.757824e+003;3.264664e-002
2.759752e+003;3.290495e-002
2.761681e+003;3.300228e-002
2.763609e+003;3.342484e-002
2.765538e+003;3.384269e-002
2.767466e+003;3.423207e-002
2.769395e+003;3.471738e-002
2.771323e+003;3.481925e-002
2.773252e+003;3.481936e-002
2.775181e+003;3.490567e-002
2.777109e+003;3.507648e-002
2.779038e+003;3.537875e-002
2.780966e+003;3.575581e-002
2.782895e+003;3.586020e-002
2.784823e+003;3.586948e-002
2.786752e+003;3.632293e-002
2.788680e+003;3.682505e-002
2.790609e+003;3.724047e-002
2.792538e+003;3.727065e-002
2.794466e+003;3.733669e-002
2.796395e+003;3.769410e-002
2.798323e+003;3.784608e-002
2.800252e+003;3.830783e-002
2.802180e+003;3.890218e-002
2.804109e+003;3.927256e-002
2.806037e+003;3.941186e-002
2.807966e+003;3.972602e-002
2.809895e+003;4.060607e-002
2.811823e+003;4.150898e-002
2.813751e+003;4.214541e-002
2.815680e+003;4.275173e-002
2.817609e+003;4.300718e-002
2.819537e+003;4.354294e-002
2.821466e+003;4.403386e-002
2.823394e+003;4.462416e-002
2.825323e+003;4.539247e-002
2.827251e+003;4.554320e-002
2.829180e+003;4.552830e-002
2.831108e+003;4.646467e-002
2.833037e+003;4.790372e-002
2.834966e+003;4.889752e-002
2.836894e+003;4.969802e-002
2.838823e+003;5.060884e-002
2.840751e+003;5.162978e-002
2.842680e+003;5.342589e-002
2.844608e+003;5.559513e-002
2.846537e+003;5.798214e-002
2.848465e+003;6.034671e-002
2.850394e+003;6.171715e-002
2.852323e+003;6.225815e-002
2.854251e+003;6.242171e-002
2.856180e+003;6.235648e-002
2.858108e+003;6.277043e-002
2.860037e+003;6.385379e-002
2.861965e+003;6.511378e-002
2.863894e+003;6.606778e-002
2.865822e+003;6.692618e-002
2.867751e+003;6.744469e-002
2.869679e+003;6.806466e-002
2.871608e+003;6.878146e-002
2.873536e+003;6.931175e-002
2.875465e+003;6.987835e-002
2.877394e+003;7.048718e-002
2.879322e+003;7.097204e-002
2.881251e+003;7.167068e-002
2.883179e+003;7.237041e-002
2.885108e+003;7.267594e-002
2.887036e+003;7.274967e-002
2.888965e+003;7.328467e-002
2.890893e+003;7.372496e-002
2.892822e+003;7.401887e-002
2.894750e+003;7.404485e-002
2.896679e+003;7.381700e-002
2.898608e+003;7.377926e-002
2.900536e+003;7.381936e-002
2.902465e+003;7.358539e-002
2.904393e+003;7.329581e-002
2.906322e+003;7.307076e-002
2.908250e+003;7.268620e-002
2.910179e+003;7.236551e-002
2.912107e+003;7.231029e-002
2.914036e+003;7.252470e-002
2.915965e+003;7.264221e-002
2.917893e+003;7.231601e-002
2.919822e+003;7.167181e-002
2.921750e+003;7.042288e-002
2.923679e+003;6.862260e-002
2.925607e+003;6.730597e-002
2.927536e+003;6.595951e-002
2.929464e+003;6.448360e-002
2.931393e+003;6.334537e-002
2.933322e+003;6.219885e-002
2.935250e+003;6.089912e-002
2.937178e+003;5.985128e-002
2.939107e+003;5.933814e-002
2.941036e+003;5.827059e-002
2.942964e+003;5.709738e-002
2.944893e+003;5.608670e-002
2.946821e+003;5.475170e-002
2.948750e+003;5.354488e-002
2.950678e+003;5.265051e-002
2.952607e+003;5.127295e-002
2.954535e+003;4.978243e-002
2.956464e+003;4.899309e-002
2.958393e+003;4.850239e-002
2.960321e+003;4.759919e-002
2.962250e+003;4.628306e-002
2.964178e+003;4.535179e-002
2.966107e+003;4.429859e-002
2.968035e+003;4.325485e-002
2.969964e+003;4.291672e-002
2.971892e+003;4.270935e-002
2.973821e+003;4.214661e-002
2.975750e+003;4.128617e-002
2.977678e+003;4.055361e-002
2.979607e+003;3.997676e-002
2.981535e+003;3.906417e-002
2.983464e+003;3.869147e-002
2.985392e+003;3.844686e-002
2.987321e+003;3.757956e-002
2.989249e+003;3.680510e-002
2.991178e+003;3.669216e-002
2.993106e+003;3.668805e-002
2.995035e+003;3.642655e-002
2.996964e+003;3.601633e-002
2.998892e+003;3.568588e-002
3.000821e+003;3.546873e-002
3.002749e+003;3.544644e-002
3.004678e+003;3.552026e-002
3.006606e+003;3.528376e-002
3.008535e+003;3.502439e-002
3.010463e+003;3.514962e-002
3.012392e+003;3.550167e-002
3.014321e+003;3.600589e-002
3.016249e+003;3.627715e-002
3.018177e+003;3.655308e-002
3.020106e+003;3.664489e-002
3.022035e+003;3.660459e-002
3.023963e+003;3.655708e-002
3.025892e+003;3.682540e-002
3.027820e+003;3.755661e-002
3.029749e+003;3.796352e-002
3.031677e+003;3.842713e-002
3.033606e+003;3.907015e-002
3.035534e+003;3.925304e-002
3.037463e+003;3.938254e-002
3.039392e+003;3.952812e-002
3.041320e+003;3.957058e-002
3.043249e+003;4.025466e-002
3.045177e+003;4.089646e-002
3.047106e+003;4.138472e-002
3.049034e+003;4.165859e-002
3.050963e+003;4.195030e-002
3.052891e+003;4.237709e-002
3.054820e+003;4.276862e-002
3.056749e+003;4.322956e-002
3.058677e+003;4.308972e-002
3.060606e+003;4.354331e-002
3.062534e+003;4.441902e-002
3.064463e+003;4.504801e-002
3.066391e+003;4.529217e-002
3.068320e+003;4.528368e-002
3.070248e+003;4.623669e-002
3.072177e+003;4.713241e-002
3.074105e+003;4.727776e-002
3.076034e+003;4.784560e-002
3.077963e+003;4.884523e-002
3.079891e+003;4.953191e-002
3.081820e+003;4.992745e-002
3.083748e+003;4.971180e-002
3.085677e+003;4.994596e-002
3.087605e+003;5.083827e-002
3.089534e+003;5.135790e-002
3.091462e+003;5.144697e-002
3.093391e+003;5.197435e-002
3.095320e+003;5.254396e-002
3.097248e+003;5.325247e-002
3.099177e+003;5.414808e-002
3.101105e+003;5.444057e-002
3.103034e+003;5.453365e-002
3.104962e+003;5.523442e-002
3.106891e+003;5.582129e-002
3.108819e+003;5.590988e-002
3.110748e+003;5.651321e-002
3.112677e+003;5.736671e-002
3.114605e+003;5.791346e-002
3.116533e+003;5.825733e-002
3.118462e+003;5.879742e-002
3.120391e+003;5.991095e-002
3.122319e+003;6.055235e-002
3.124248e+003;6.057144e-002
3.126176e+003;6.105682e-002
3.128105e+003;6.175874e-002
3.130033e+003;6.235633e-002
3.131962e+003;6.313427e-002
3.133890e+003;6.391352e-002
3.135819e+003;6.425561e-002
3.137748e+003;6.475259e-002
3.139676e+003;6.533221e-002
3.141605e+003;6.568398e-002
3.143533e+003;6.579859e-002
3.145462e+003;6.613950e-002
3.147390e+003;6.697578e-002
3.149319e+003;6.754118e-002
3.151247e+003;6.831319e-002
3.153176e+003;6.895307e-002
3.155104e+003;6.922000e-002
3.157033e+003;6.973768e-002
3.158962e+003;7.017963e-002
3.160890e+003;7.063943e-002
3.162819e+003;7.140268e-002
3.164747e+003;7.241010e-002
3.166676e+003;7.301223e-002
3.168604e+003;7.332449e-002
3.170533e+003;7.408469e-002
3.172461e+003;7.505696e-002
3.174390e+003;7.548884e-002
3.176319e+003;7.580411e-002
3.178247e+003;7.641215e-002
3.180176e+003;7.723679e-002
3.182104e+003;7.827234e-002
3.184033e+003;7.846513e-002
3.185961e+003;7.827317e-002
3.187890e+003;7.857971e-002
3.189818e+003;7.928148e-002
3.191747e+003;7.958105e-002
3.193676e+003;7.995650e-002
3.195604e+003;8.089991e-002
3.197532e+003;8.100743e-002
3.199461e+003;8.154631e-002
3.201390e+003;8.294985e-002
3.203318e+003;8.389942e-002
3.205247e+003;8.423711e-002
3.207175e+003;8.415140e-002
3.209104e+003;8.438940e-002
3.211032e+003;8.528684e-002
3.212961e+003;8.627271e-002
3.214889e+003;8.678212e-002
3.216818e+003;8.674219e-002
3.218747e+003;8.770561e-002
3.220675e+003;8.870231e-002
3.222604e+003;8.885699e-002
3.224532e+003;8.860442e-002
3.226461e+003;8.882792e-002
3.228389e+003;8.969679e-002
3.230318e+003;9.099672e-002
3.232246e+003;9.179307e-002
3.234175e+003;9.203660e-002
3.236104e+003;9.249112e-002
3.238032e+003;9.272992e-002
3.239961e+003;9.307574e-002
3.241889e+003;9.387270e-002
3.243818e+003;9.450181e-002
3.245746e+003;9.488594e-002
3.247675e+003;9.526636e-002
3.249603e+003;9.616356e-002
3.251532e+003;9.718914e-002
3.253460e+003;9.796691e-002
3.255389e+003;9.863225e-002
3.257318e+003;9.874237e-002
3.259246e+003;9.827558e-002
3.261175e+003;9.824637e-002
3.263103e+003;9.820595e-002
3.265032e+003;9.872295e-002
3.266960e+003;9.968510e-002
3.268889e+003;9.995746e-002
3.270817e+003;1.005438e-001
3.272746e+003;1.009787e-001
3.274675e+003;1.009794e-001
3.276603e+003;1.010410e-001
3.278531e+003;1.011747e-001
3.280460e+003;1.019659e-001
3.282389e+003;1.021017e-001
3.284317e+003;1.019672e-001
3.286246e+003;1.022023e-001
3.288174e+003;1.024815e-001
3.290103e+003;1.028258e-001
3.292031e+003;1.028545e-001
3.293960e+003;1.030860e-001
3.295888e+003;1.033708e-001
3.297817e+003;1.032028e-001
3.299746e+003;1.031293e-001
3.301674e+003;1.035152e-001
3.303603e+003;1.037803e-001
3.305531e+003;1.044441e-001
3.307460e+003;1.052002e-001
3.309388e+003;1.048171e-001
3.311317e+003;1.040338e-001
3.313245e+003;1.042068e-001
3.315174e+003;1.046246e-001
3.317103e+003;1.046195e-001
3.319031e+003;1.046931e-001
3.320960e+003;1.044656e-001
3.322888e+003;1.044685e-001
3.324817e+003;1.056148e-001
3.326745e+003;1.061533e-001
3.328674e+003;1.055381e-001
3.330602e+003;1.050599e-001
3.332531e+003;1.051255e-001
3.334459e+003;1.050926e-001
3.336388e+003;1.045079e-001
3.338317e+003;1.046321e-001
3.340245e+003;1.050456e-001
3.342174e+003;1.049250e-001
3.344102e+003;1.040715e-001
3.346031e+003;1.030913e-001
3.347959e+003;1.025974e-001
3.349888e+003;1.026764e-001
3.351816e+003;1.028085e-001
3.353745e+003;1.025913e-001
3.355674e+003;1.015303e-001
3.357602e+003;1.002787e-001
3.359531e+003;1.003825e-001
3.361459e+003;1.006427e-001
3.363388e+003;1.003818e-001
3.365316e+003;1.003720e-001
3.367245e+003;1.000584e-001
3.369173e+003;9.969160e-002
3.371102e+003;9.957190e-002
3.373031e+003;9.886572e-002
3.374959e+003;9.828655e-002
3.376887e+003;9.788932e-002
3.378816e+003;9.748258e-002
3.380745e+003;9.681443e-002
3.382673e+003;9.656730e-002
3.384602e+003;9.648772e-002
3.386530e+003;9.565955e-002
3.388459e+003;9.491319e-002
3.390387e+003;9.516071e-002
3.392316e+003;9.521739e-002
3.394244e+003;9.490107e-002
3.396173e+003;9.448682e-002
3.398102e+003;9.340811e-002
3.400030e+003;9.291742e-002
3.401959e+003;9.287076e-002
3.403887e+003;9.272770e-002
3.405816e+003;9.144647e-002
3.407744e+003;9.059667e-002
3.409673e+003;9.039462e-002
3.411601e+003;8.937518e-002
3.413530e+003;8.877844e-002
3.415458e+003;8.919660e-002
3.417387e+003;8.887963e-002
3.419316e+003;8.823973e-002
3.421244e+003;8.741866e-002
3.423173e+003;8.627497e-002
3.425101e+003;8.518197e-002
3.427030e+003;8.514779e-002
3.428958e+003;8.533128e-002
3.430887e+003;8.401275e-002
3.432815e+003;8.309454e-002
3.434744e+003;8.319855e-002
3.436673e+003;8.258045e-002
3.438601e+003;8.173141e-002
3.440530e+003;8.140501e-002
3.442458e+003;8.051351e-002
3.444387e+003;7.902723e-002
3.446315e+003;7.823560e-002
3.448244e+003;7.801316e-002
3.450172e+003;7.781363e-002
3.452101e+003;7.757200e-002
3.454030e+003;7.697099e-002
3.455958e+003;7.614365e-002
3.457886e+003;7.511663e-002
3.459815e+003;7.439847e-002
3.461744e+003;7.358579e-002
3.463672e+003;7.255555e-002
3.465601e+003;7.192089e-002
3.467529e+003;7.131974e-002
3.469458e+003;7.043523e-002
3.471386e+003;6.970550e-002
3.473315e+003;6.851566e-002
3.475243e+003;6.761408e-002
3.477172e+003;6.703129e-002
3.479101e+003;6.597651e-002
3.481029e+003;6.492609e-002
3.482958e+003;6.404068e-002
3.484886e+003;6.340288e-002
3.486815e+003;6.354750e-002
3.488743e+003;6.341232e-002
3.490672e+003;6.269356e-002
3.492600e+003;6.181524e-002
3.494529e+003;6.091315e-002
3.496458e+003;6.004828e-002
3.498386e+003;5.883308e-002
3.500315e+003;5.752295e-002
3.502243e+003;5.644000e-002
3.504172e+003;5.545430e-002
3.506100e+003;5.533238e-002
3.508029e+003;5.478820e-002
3.509957e+003;5.377958e-002
3.511886e+003;5.328438e-002
3.513814e+003;5.294503e-002
3.515743e+003;5.165919e-002
3.517672e+003;5.011263e-002
3.519600e+003;4.917554e-002
3.521529e+003;4.902343e-002
3.523457e+003;4.847186e-002
3.525386e+003;4.698212e-002
3.527314e+003;4.569679e-002
3.529243e+003;4.525826e-002
3.531171e+003;4.494253e-002
3.533100e+003;4.451054e-002
3.535029e+003;4.349009e-002
3.536957e+003;4.249108e-002
3.538885e+003;4.164601e-002
3.540814e+003;4.071854e-002
3.542743e+003;3.918675e-002
3.544671e+003;3.856370e-002
3.546600e+003;3.881340e-002
3.548528e+003;3.848878e-002
3.550457e+003;3.708480e-002
3.552385e+003;3.543012e-002
3.554314e+003;3.506549e-002
3.556242e+003;3.500274e-002
3.558171e+003;3.388524e-002
3.560100e+003;3.256171e-002
3.562028e+003;3.119007e-002
3.563957e+003;3.026472e-002
3.565885e+003;2.922199e-002
3.567814e+003;2.825484e-002
3.569742e+003;2.775699e-002
3.571671e+003;2.731051e-002
3.573599e+003;2.643901e-002
3.575528e+003;2.605137e-002
3.577457e+003;2.504183e-002
3.579385e+003;2.420376e-002
3.581314e+003;2.429349e-002
3.583242e+003;2.301976e-002
3.585171e+003;2.107686e-002
3.587099e+003;1.985423e-002
3.589028e+003;1.966177e-002
3.590956e+003;1.922531e-002
3.592885e+003;1.853592e-002
3.594813e+003;1.789972e-002
3.596742e+003;1.713008e-002
3.598671e+003;1.675048e-002
3.600599e+003;1.597235e-002
3.602528e+003;1.485580e-002
3.604456e+003;1.379471e-002
3.606385e+003;1.231848e-002
3.608313e+003;1.082676e-002
3.610242e+003;1.033396e-002
3.612170e+003;9.698400e-003
3.614099e+003;9.467622e-003
3.616028e+003;8.818759e-003
3.617956e+003;6.787457e-003
3.619885e+003;6.135593e-003
3.621813e+003;6.860361e-003
3.623742e+003;6.636368e-003
3.625670e+003;5.047669e-003
3.627599e+003;2.044037e-003
3.629527e+003;2.055988e-003
3.631456e+003;3.985536e-003
3.633385e+003;3.565906e-003
3.635313e+003;3.428590e-003
3.637241e+003;4.139318e-003
3.639170e+003;3.451234e-003
3.641099e+003;1.731553e-003
3.643027e+003;7.155554e-004
3.644956e+003;-3.864029e-004
3.646884e+003;-2.889956e-003
3.648813e+003;-5.215957e-003
3.650741e+003;-4.190163e-003
3.652670e+003;-2.347618e-003
3.654598e+003;-3.536438e-003
3.656527e+003;-3.607783e-003
3.658456e+003;-2.118617e-003
3.660384e+003;-2.692722e-003
3.662313e+003;-3.721135e-003
3.664241e+003;-3.926703e-003
3.666170e+003;-4.616330e-003
3.668098e+003;-6.808477e-003
3.670027e+003;-8.697419e-003
3.671955e+003;-7.941995e-003
3.673884e+003;-9.368234e-003
3.675813e+003;-1.021285e-002
3.677741e+003;-7.918180e-003
3.679669e+003;-6.811772e-003
3.681598e+003;-6.859784e-003
3.683527e+003;-7.135356e-003
3.685455e+003;-7.664558e-003
3.687384e+003;-1.027000e-002
3.689312e+003;-1.114535e-002
3.691241e+003;-9.846949e-003
3.693169e+003;-8.567004e-003
3.695098e+003;-7.823491e-003
3.697026e+003;-7.832863e-003
3.698955e+003;-8.520155e-003
3.700884e+003;-9.323904e-003
3.702812e+003;-9.189655e-003
3.704741e+003;-8.909605e-003
3.706669e+003;-9.448484e-003
3.708598e+003;-1.041957e-002
3.710526e+003;-1.112849e-002
3.712455e+003;-1.071966e-002
3.714383e+003;-9.545541e-003
3.716312e+003;-9.286121e-003
3.718240e+003;-9.681820e-003
3.720169e+003;-9.688333e-003
3.722098e+003;-9.678320e-003
3.724026e+003;-1.003724e-002
3.725955e+003;-1.003400e-002
3.727883e+003;-9.587158e-003
3.729812e+003;-1.044299e-002
3.731740e+003;-1.269228e-002
3.733669e+003;-1.376575e-002
3.735597e+003;-1.318364e-002
3.737526e+003;-1.158208e-002
3.739455e+003;-1.166221e-002
3.741383e+003;-1.300788e-002
3.743312e+003;-1.616069e-002
3.745240e+003;-1.517408e-002
3.747169e+003;-1.298563e-002
3.749097e+003;-1.483332e-002
3.751026e+003;-1.591899e-002
3.752954e+003;-1.378090e-002
3.754883e+003;-1.052618e-002
3.756812e+003;-1.047346e-002
3.758740e+003;-1.140899e-002
3.760668e+003;-1.140773e-002
3.762597e+003;-1.066613e-002
3.764526e+003;-1.091652e-002
3.766454e+003;-1.099587e-002
3.768383e+003;-1.110492e-002
3.770311e+003;-1.078586e-002
3.772240e+003;-9.743576e-003
3.774168e+003;-9.993981e-003
3.776097e+003;-1.108163e-002
3.778025e+003;-1.152439e-002
3.779954e+003;-1.155504e-002
3.781883e+003;-1.121862e-002
3.783811e+003;-1.151481e-002
3.785740e+003;-1.131451e-002
3.787668e+003;-1.119738e-002
3.789597e+003;-1.122285e-002
3.791525e+003;-1.181130e-002
3.793454e+003;-1.207882e-002
3.795382e+003;-1.183771e-002
3.797311e+003;-1.172949e-002
3.799240e+003;-1.359517e-002
3.801168e+003;-1.525339e-002
3.803097e+003;-1.302917e-002
3.805025e+003;-1.212526e-002
3.806954e+003;-1.299920e-002
3.808882e+003;-1.223054e-002
3.810811e+003;-1.146566e-002
3.812739e+003;-1.176974e-002
3.814668e+003;-1.390572e-002
3.816596e+003;-1.388005e-002
3.818525e+003;-1.325959e-002
3.820454e+003;-1.450923e-002
3.822382e+003;-1.280840e-002
3.824311e+003;-1.131380e-002
3.826239e+003;-1.181027e-002
3.828168e+003;-1.148057e-002
3.830096e+003;-1.158843e-002
3.832025e+003;-1.212046e-002
3.833953e+003;-1.271516e-002
3.835882e+003;-1.431939e-002
3.837811e+003;-1.465892e-002
3.839739e+003;-1.286119e-002
3.841667e+003;-1.195213e-002
3.843596e+003;-1.211159e-002
3.845525e+003;-1.150474e-002
3.847453e+003;-1.065753e-002
3.849382e+003;-1.204054e-002
3.851310e+003;-1.664547e-002
3.853239e+003;-1.909165e-002
3.855167e+003;-1.531257e-002
3.857096e+003;-1.194400e-002
3.859024e+003;-1.140453e-002
3.860953e+003;-1.179267e-002
3.862882e+003;-1.292436e-002
3.864810e+003;-1.282574e-002
3.866739e+003;-1.214862e-002
3.868667e+003;-1.429287e-002
3.870596e+003;-1.415309e-002
3.872524e+003;-1.223473e-002
3.874453e+003;-1.144281e-002
3.876381e+003;-1.074759e-002
3.878310e+003;-1.106154e-002
3.880239e+003;-1.107582e-002
3.882167e+003;-1.044681e-002
3.884096e+003;-1.153358e-002
3.886024e+003;-1.175706e-002
3.887953e+003;-1.114703e-002
3.889881e+003;-1.254349e-002
3.891810e+003;-1.251027e-002
3.893738e+003;-1.022489e-002
3.895667e+003;-9.479996e-003
3.897595e+003;-1.121765e-002
3.899524e+003;-1.258623e-002
3.901453e+003;-1.295713e-002
3.903381e+003;-1.323954e-002
3.905310e+003;-1.166569e-002
3.907238e+003;-9.720637e-003
3.909167e+003;-9.683991e-003
3.911095e+003;-1.017686e-002
3.913024e+003;-1.021803e-002
3.914952e+003;-1.048983e-002
3.916881e+003;-1.116402e-002
3.918810e+003;-1.083757e-002
3.920738e+003;-9.924972e-003
3.922667e+003;-1.020252e-002
3.924595e+003;-1.115675e-002
3.926524e+003;-1.049555e-002
3.928452e+003;-9.415251e-003
3.930381e+003;-9.508264e-003
3.932309e+003;-1.040938e-002
3.934238e+003;-1.070809e-002
3.936167e+003;-1.120884e-002
3.938095e+003;-1.136354e-002
3.940023e+003;-1.082688e-002
3.941952e+003;-1.109933e-002
3.943881e+003;-1.108935e-002
3.945809e+003;-1.067735e-002
3.947738e+003;-1.042070e-002
3.949666e+003;-9.547583e-003
3.951595e+003;-9.042838e-003
3.953523e+003;-9.456718e-003
3.955452e+003;-1.049468e-002
3.957380e+003;-1.026298e-002
3.959309e+003;-9.102511e-003
3.961238e+003;-9.094724e-003
3.963166e+003;-8.950504e-003
3.965095e+003;-9.184691e-003
3.967023e+003;-1.030750e-002
3.968952e+003;-1.056463e-002
3.970880e+003;-9.720864e-003
3.972809e+003;-9.601905e-003
3.974737e+003;-9.518864e-003
3.976666e+003;-8.913273e-003
3.978594e+003;-9.556724e-003
3.980523e+003;-1.026460e-002
3.982452e+003;-9.320823e-003
3.984380e+003;-8.778734e-003
3.986309e+003;-9.664354e-003
3.988237e+003;-1.016012e-002
3.990166e+003;-9.554164e-003
3.992094e+003;-9.281030e-003
3.994023e+003;-9.560937e-003
3.995951e+003;-9.846949e-003
3.997880e+003;-9.708455e-003
3.999809e+003;-9.562104e-003
4.001737e+003;0.000000e+000
