3.992094e+002;0.000000e+000
4.011380e+002;0.000000e+000
4.030665e+002;0.000000e+000
4.049951e+002;0.000000e+000
4.069236e+002;0.000000e+000
4.088522e+002;0.000000e+000
4.107807e+002;0.000000e+000
4.127093e+002;0.000000e+000
4.146378e+002;0.000000e+000
4.165664e+002;0.000000e+000
4.184949e+002;0.000000e+000
4.204235e+002;0.000000e+000
4.223520e+002;0.000000e+000
4.242806e+002;0.000000e+000
4.262091e+002;0.000000e+000
4.281377e+002;0.000000e+000
4.300662e+002;0.000000e+000
4.319948e+002;0.000000e+000
4.339233e+002;0.000000e+000
4.358519e+002;0.000000e+000
4.377804e+002;0.000000e+000
4.397090e+002;0.000000e+000
4.416375e+002;0.000000e+000
4.435660e+002;0.000000e+000
4.454946e+002;0.000000e+000
4.474232e+002;0.000000e+000
4.493517e+002;0.000000e+000
4.512802e+002;0.000000e+000
4.532088e+002;0.000000e+000
4.551373e+002;0.000000e+000
4.570659e+002;0.000000e+000
4.589944e+002;0.000000e+000
4.609230e+002;0.000000e+000
4.628515e+002;0.000000e+000
4.647801e+002;0.000000e+000
4.667086e+002;0.000000e+000
4.686372e+002;0.000000e+000
4.705657e+002;0.000000e+000
4.724943e+002;0.000000e+000
4.744228e+002;0.000000e+000
4.763513e+002;0.000000e+000
4.782799e+002;0.000000e+000
4.802085e+002;0.000000e+000
4.821370e+002;0.000000e+000
4.840656e+002;0.000000e+000
4.859941e+002;0.000000e+000
4.879226e+002;0.000000e+000
4.898512e+002;0.000000e+000
4.917798e+002;0.000000e+000
4.937083e+002;0.000000e+000
4.956368e+002;0.000000e+000
4.975654e+002;0.000000e+000
4.994939e+002;0.000000e+000
5.014225e+002;0.000000e+000
5.033510e+002;0.000000e+000
5.052796e+002;0.000000e+000
5.072081e+002;0.000000e+000
5.091367e+002;0.000000e+000
5.110652e+002;0.000000e+000
5.129938e+002;0.000000e+000
5.149223e+002;0.000000e+000
5.168509e+002;0.000000e+000
5.187794e+002;0.000000e+000
5.207079e+002;0.000000e+000
5.226365e+002;0.000000e+000
5.245651e+002;0.000000e+000
5.264936e+002;0.000000e+000
5.284222e+002;0.000000e+000
5.303507e+002;0.000000e+000
5.322792e+002;0.000000e+000
5.342078e+002;0.000000e+000
5.361364e+002;0.000000e+000
5.380649e+002;0.000000e+000
5.399935e+002;0.000000e+000
5.419220e+002;0.000000e+000
5.438505e+002;0.000000e+000
5.457791e+002;0.000000e+000
5.477076e+002;0.000000e+000
5.496362e+002;0.000000e+000
5.515648e+002;0.000000e+000
5.534933e+002;0.000000e+000
5.554218e+002;0.000000e+000
5.573504e+002;0.000000e+000
5.592789e+002;0.000000e+000
5.612075e+002;0.000000e+000
5.631360e+002;0.000000e+000
5.650646e+002;0.000000e+000
5.669931e+002;0.000000e+000
5.689217e+002;0.000000e+000
5.708502e+002;0.000000e+000
5.727787e+002;0.000000e+000
5.747073e+002;0.000000e+000
5.766359e+002;0.000000e+000
5.785644e+002;0.000000e+000
5.804930e+002;0.000000e+000
5.824215e+002;0.000000e+000
5.843500e+002;0.000000e+000
5.862786e+002;0.000000e+000
5.882072e+002;0.000000e+000
5.901357e+002;0.000000e+000
5.920643e+002;0.000000e+000
5.939928e+002;0.000000e+000
5.959213e+002;0.000000e+000
5.978499e+002;0.000000e+000
5.997784e+002;2.649918e-001
6.017070e+002;2.685392e-001
6.036355e+002;2.776155e-001
6.055641e+002;2.783616e-001
6.074926e+002;2.720857e-001
6.094211e+002;2.652411e-001
6.113497e+002;2.620683e-001
6.132783e+002;2.659846e-001
6.152068e+002;2.754903e-001
6.171354e+002;2.762322e-001
6.190639e+002;2.668303e-001
6.209924e+002;2.632247e-001
6.229210e+002;2.604854e-001
6.248495e+002;2.573216e-001
6.267781e+002;2.540114e-001
6.287067e+002;2.455374e-001
6.306352e+002;2.406469e-001
6.325637e+002;2.405757e-001
6.344923e+002;2.420859e-001
6.364208e+002;2.439138e-001
6.383494e+002;2.422839e-001
6.402780e+002;2.381298e-001
6.422065e+002;2.346250e-001
6.441350e+002;2.337190e-001
6.460636e+002;2.336100e-001
6.479921e+002;2.316937e-001
6.499207e+002;2.322706e-001
6.518492e+002;2.343911e-001
6.537778e+002;2.349488e-001
6.557063e+002;2.394543e-001
6.576349e+002;2.430989e-001
6.595634e+002;2.439842e-001
6.614919e+002;2.473204e-001
6.634205e+002;2.492486e-001
6.653491e+002;2.465414e-001
6.672776e+002;2.427606e-001
6.692062e+002;2.385360e-001
6.711347e+002;2.354864e-001
6.730632e+002;2.305858e-001
6.749918e+002;2.230397e-001
6.769203e+002;2.160512e-001
6.788489e+002;2.116728e-001
6.807775e+002;2.072086e-001
6.827060e+002;2.015470e-001
6.846345e+002;1.975447e-001
6.865631e+002;1.954058e-001
6.884916e+002;1.941324e-001
6.904202e+002;1.927160e-001
6.923488e+002;1.916588e-001
6.942773e+002;1.917335e-001
6.962058e+002;1.923368e-001
6.981344e+002;1.924103e-001
7.000629e+002;1.916983e-001
7.019915e+002;1.901131e-001
7.039200e+002;1.873129e-001
7.058486e+002;1.856673e-001
7.077771e+002;1.842712e-001
7.097057e+002;1.826141e-001
7.116342e+002;1.815298e-001
7.135627e+002;1.801815e-001
7.154913e+002;1.785987e-001
7.174199e+002;1.764690e-001
7.193484e+002;1.735164e-001
7.212770e+002;1.699748e-001
7.232055e+002;1.663781e-001
7.251340e+002;1.638511e-001
7.270626e+002;1.609616e-001
7.289911e+002;1.576950e-001
7.309197e+002;1.557745e-001
7.328483e+002;1.540798e-001
7.347768e+002;1.524548e-001
7.367053e+002;1.504688e-001
7.386339e+002;1.478890e-001
7.405624e+002;1.457100e-001
7.424910e+002;1.447223e-001
7.444196e+002;1.436595e-001
7.463481e+002;1.421337e-001
7.482766e+002;1.410417e-001
7.502052e+002;1.412272e-001
7.521337e+002;1.403520e-001
7.540623e+002;1.377438e-001
7.559908e+002;1.350372e-001
7.579194e+002;1.333798e-001
7.598479e+002;1.324593e-001
7.617765e+002;1.315618e-001
7.637050e+002;1.302724e-001
7.656335e+002;1.288277e-001
7.675621e+002;1.272812e-001
7.694907e+002;1.264510e-001
7.714192e+002;1.259114e-001
7.733478e+002;1.248437e-001
7.752763e+002;1.241031e-001
7.772048e+002;1.236194e-001
7.791334e+002;1.225184e-001
7.810620e+002;1.214826e-001
7.829905e+002;1.211076e-001
7.849191e+002;1.205371e-001
7.868476e+002;1.194211e-001
7.887761e+002;1.190716e-001
7.907047e+002;1.188492e-001
7.926332e+002;1.179343e-001
7.945618e+002;1.166684e-001
7.964903e+002;1.165293e-001
7.984189e+002;1.171126e-001
8.003474e+002;1.165637e-001
8.022759e+002;1.165606e-001
8.042045e+002;1.178005e-001
8.061331e+002;1.185355e-001
8.080616e+002;1.178030e-001
8.099902e+002;1.164477e-001
8.119187e+002;1.157601e-001
8.138472e+002;1.153409e-001
8.157758e+002;1.152658e-001
8.177043e+002;1.152862e-001
8.196329e+002;1.147659e-001
8.215615e+002;1.139654e-001
8.234900e+002;1.127388e-001
8.254185e+002;1.124524e-001
8.273471e+002;1.129373e-001
8.292756e+002;1.123594e-001
8.312042e+002;1.120290e-001
8.331328e+002;1.124847e-001
8.350613e+002;1.117839e-001
8.369898e+002;1.106461e-001
8.389184e+002;1.103722e-001
8.408469e+002;1.101671e-001
8.427755e+002;1.100161e-001
8.447040e+002;1.100333e-001
8.466326e+002;1.099364e-001
8.485611e+002;1.098357e-001
8.504897e+002;1.104567e-001
8.524182e+002;1.112468e-001
8.543467e+002;1.112173e-001
8.562753e+002;1.118592e-001
8.582039e+002;1.138383e-001
8.601324e+002;1.157623e-001
8.620610e+002;1.173541e-001
8.639895e+002;1.195604e-001
8.659180e+002;1.219477e-001
8.678466e+002;1.248307e-001
8.697751e+002;1.284565e-001
8.717037e+002;1.323455e-001
8.736323e+002;1.359242e-001
8.755608e+002;1.388439e-001
8.774893e+002;1.410647e-001
8.794179e+002;1.431968e-001
8.813464e+002;1.456236e-001
8.832750e+002;1.486835e-001
8.852036e+002;1.516931e-001
8.871321e+002;1.549068e-001
8.890606e+002;1.589369e-001
8.909892e+002;1.624670e-001
8.929177e+002;1.653507e-001
8.948463e+002;1.671666e-001
8.967748e+002;1.677305e-001
8.987034e+002;1.670737e-001
9.006319e+002;1.661547e-001
9.025605e+002;1.647892e-001
9.044890e+002;1.622963e-001
9.064175e+002;1.590924e-001
9.083461e+002;1.558581e-001
9.102747e+002;1.528719e-001
9.122032e+002;1.504890e-001
9.141318e+002;1.487230e-001
9.160603e+002;1.472696e-001
9.179888e+002;1.465373e-001
9.199174e+002;1.462589e-001
9.218459e+002;1.467220e-001
9.237745e+002;1.477972e-001
9.257031e+002;1.494683e-001
9.276316e+002;1.512373e-001
9.295601e+002;1.529663e-001
9.314887e+002;1.547158e-001
9.334172e+002;1.569659e-001
9.353458e+002;1.589320e-001
9.372744e+002;1.607141e-001
9.392029e+002;1.632115e-001
9.411314e+002;1.654638e-001
9.430600e+002;1.676658e-001
9.449885e+002;1.710521e-001
9.469171e+002;1.749379e-001
9.488456e+002;1.786266e-001
9.507742e+002;1.827305e-001
9.527027e+002;1.880157e-001
9.546313e+002;1.936072e-001
9.565598e+002;1.987895e-001
9.584883e+002;2.045093e-001
9.604169e+002;2.108103e-001
9.623455e+002;2.176889e-001
9.642740e+002;2.247735e-001
9.662026e+002;2.318158e-001
9.681311e+002;2.395165e-001
9.700596e+002;2.488237e-001
9.719882e+002;2.597732e-001
9.739167e+002;2.725582e-001
9.758453e+002;2.866414e-001
9.777739e+002;3.026009e-001
9.797024e+002;3.203323e-001
9.816309e+002;3.369680e-001
9.835595e+002;3.500387e-001
9.854880e+002;3.597568e-001
9.874166e+002;3.664511e-001
9.893452e+002;3.710977e-001
9.912737e+002;3.759763e-001
9.932022e+002;3.820024e-001
9.951307e+002;3.883019e-001
9.970593e+002;3.952850e-001
9.989879e+002;4.022625e-001
1.000916e+003;4.081405e-001
1.002845e+003;4.123871e-001
1.004773e+003;4.150394e-001
1.006702e+003;4.177206e-001
1.008631e+003;4.211224e-001
1.010559e+003;4.249684e-001
1.012488e+003;4.295418e-001
1.014416e+003;4.359401e-001
1.016345e+003;4.434114e-001
1.018273e+003;4.496403e-001
1.020202e+003;4.543123e-001
1.022130e+003;4.586774e-001
1.024059e+003;4.624529e-001
1.025988e+003;4.654516e-001
1.027916e+003;4.674447e-001
1.029845e+003;4.680489e-001
1.031773e+003;4.673896e-001
1.033702e+003;4.636588e-001
1.035630e+003;4.568079e-001
1.037559e+003;4.487206e-001
1.039487e+003;4.415760e-001
1.041416e+003;4.364850e-001
1.043344e+003;4.334505e-001
1.045273e+003;4.321303e-001
1.047202e+003;4.322873e-001
1.049130e+003;4.338909e-001
1.051059e+003;4.350252e-001
1.052987e+003;4.343854e-001
1.054916e+003;4.316981e-001
1.056844e+003;4.262581e-001
1.058773e+003;4.179220e-001
1.060701e+003;4.070666e-001
1.062630e+003;3.932798e-001
1.064558e+003;3.784727e-001
1.066487e+003;3.637914e-001
1.068416e+003;3.505980e-001
1.070344e+003;3.398420e-001
1.072273e+003;3.307131e-001
1.074201e+003;3.226741e-001
1.076130e+003;3.143520e-001
1.078058e+003;3.066091e-001
1.079987e+003;3.000002e-001
1.081915e+003;2.948501e-001
1.083844e+003;2.910217e-001
1.085773e+003;2.878461e-001
1.087701e+003;2.851872e-001
1.089630e+003;2.827598e-001
1.091558e+003;2.812564e-001
1.093487e+003;2.803353e-001
1.095415e+003;2.786671e-001
1.097344e+003;2.777046e-001
1.099272e+003;2.767716e-001
1.101201e+003;2.752691e-001
1.103129e+003;2.731296e-001
1.105058e+003;2.705405e-001
1.106987e+003;2.674890e-001
1.108915e+003;2.627403e-001
1.110844e+003;2.569657e-001
1.112772e+003;2.497847e-001
1.114701e+003;2.406956e-001
1.116629e+003;2.310626e-001
1.118558e+003;2.225852e-001
1.120486e+003;2.149548e-001
1.122415e+003;2.074801e-001
1.124344e+003;1.999963e-001
1.126272e+003;1.928369e-001
1.128201e+003;1.858004e-001
1.130129e+003;1.791827e-001
1.132058e+003;1.739434e-001
1.133986e+003;1.697432e-001
1.135915e+003;1.660631e-001
1.137843e+003;1.626683e-001
1.139772e+003;1.607829e-001
1.141700e+003;1.606741e-001
1.143629e+003;1.612905e-001
1.145557e+003;1.622169e-001
1.147486e+003;1.636561e-001
1.149415e+003;1.655480e-001
1.151343e+003;1.671510e-001
1.153272e+003;1.683848e-001
1.155200e+003;1.693022e-001
1.157129e+003;1.696531e-001
1.159057e+003;1.692187e-001
1.160986e+003;1.674586e-001
1.162914e+003;1.642171e-001
1.164843e+003;1.594433e-001
1.166771e+003;1.529922e-001
1.168700e+003;1.456580e-001
1.170629e+003;1.379727e-001
1.172557e+003;1.303305e-001
1.174486e+003;1.237529e-001
1.176414e+003;1.186990e-001
1.178343e+003;1.146554e-001
1.180271e+003;1.107032e-001
1.182200e+003;1.075086e-001
1.184128e+003;1.062145e-001
1.186057e+003;1.059060e-001
1.187986e+003;1.065247e-001
1.189914e+003;1.081340e-001
1.191843e+003;1.104512e-001
1.193771e+003;1.129804e-001
1.195700e+003;1.154508e-001
1.197628e+003;1.175980e-001
1.199557e+003;1.190399e-001
1.201485e+003;1.196830e-001
1.203414e+003;1.194364e-001
1.205343e+003;1.184600e-001
1.207271e+003;1.167393e-001
1.209200e+003;1.132395e-001
1.211128e+003;1.095261e-001
1.213057e+003;1.073596e-001
1.214985e+003;1.065749e-001
1.216914e+003;1.067633e-001
1.218842e+003;1.077539e-001
1.220771e+003;1.093453e-001
1.222699e+003;1.111442e-001
1.224628e+003;1.132774e-001
1.226557e+003;1.151372e-001
1.228485e+003;1.168810e-001
1.230414e+003;1.187276e-001
1.232342e+003;1.203462e-001
1.234271e+003;1.214573e-001
1.236199e+003;1.217670e-001
1.238128e+003;1.218400e-001
1.240056e+003;1.222196e-001
1.241985e+003;1.225726e-001
1.243913e+003;1.231562e-001
1.245842e+003;1.244235e-001
1.247771e+003;1.254978e-001
1.249699e+003;1.258593e-001
1.251628e+003;1.257819e-001
1.253556e+003;1.259270e-001
1.255485e+003;1.262885e-001
1.257413e+003;1.266066e-001
1.259342e+003;1.268430e-001
1.261270e+003;1.265291e-001
1.263199e+003;1.262646e-001
1.265127e+003;1.263448e-001
1.267056e+003;1.266307e-001
1.268985e+003;1.268808e-001
1.270913e+003;1.268495e-001
1.272842e+003;1.267844e-001
1.274770e+003;1.269301e-001
1.276699e+003;1.267524e-001
1.278627e+003;1.266602e-001
1.280556e+003;1.263133e-001
1.282484e+003;1.254806e-001
1.284413e+003;1.245529e-001
1.286342e+003;1.240183e-001
1.288270e+003;1.242346e-001
1.290199e+003;1.252349e-001
1.292127e+003;1.266160e-001
1.294056e+003;1.279884e-001
1.295984e+003;1.293977e-001
1.297913e+003;1.308800e-001
1.299841e+003;1.330459e-001
1.301770e+003;1.357916e-001
1.303698e+003;1.385232e-001
1.305627e+003;1.417202e-001
1.307556e+003;1.455469e-001
1.309484e+003;1.492175e-001
1.311413e+003;1.524214e-001
1.313341e+003;1.546694e-001
1.315270e+003;1.553613e-001
1.317198e+003;1.548742e-001
1.319127e+003;1.532251e-001
1.321055e+003;1.507277e-001
1.322984e+003;1.484541e-001
1.324912e+003;1.465862e-001
1.326841e+003;1.452246e-001
1.328770e+003;1.449734e-001
1.330698e+003;1.455347e-001
1.332627e+003;1.462680e-001
1.334555e+003;1.465087e-001
1.336484e+003;1.459012e-001
1.338412e+003;1.445525e-001
1.340341e+003;1.429918e-001
1.342269e+003;1.414929e-001
1.344198e+003;1.399914e-001
1.346126e+003;1.386123e-001
1.348055e+003;1.371988e-001
1.349984e+003;1.367185e-001
1.351912e+003;1.373964e-001
1.353841e+003;1.383699e-001
1.355769e+003;1.391741e-001
1.357698e+003;1.403050e-001
1.359626e+003;1.410519e-001
1.361555e+003;1.409068e-001
1.363483e+003;1.405372e-001
1.365412e+003;1.402785e-001
1.367341e+003;1.398132e-001
1.369269e+003;1.392903e-001
1.371198e+003;1.381441e-001
1.373126e+003;1.358066e-001
1.375055e+003;1.332961e-001
1.376983e+003;1.311257e-001
1.378912e+003;1.289033e-001
1.380840e+003;1.266681e-001
1.382769e+003;1.243386e-001
1.384698e+003;1.219519e-001
1.386626e+003;1.196322e-001
1.388555e+003;1.189542e-001
1.390483e+003;1.186957e-001
1.392412e+003;1.176172e-001
1.394340e+003;1.168987e-001
1.396269e+003;1.173310e-001
1.398197e+003;1.178810e-001
1.400126e+003;1.190810e-001
1.402054e+003;1.200178e-001
1.403983e+003;1.200949e-001
1.405911e+003;1.210445e-001
1.407840e+003;1.223507e-001
1.409769e+003;1.232350e-001
1.411697e+003;1.239777e-001
1.413626e+003;1.247856e-001
1.415554e+003;1.253541e-001
1.417483e+003;1.248272e-001
1.419411e+003;1.249429e-001
1.421340e+003;1.274734e-001
1.423268e+003;1.293252e-001
1.425197e+003;1.303379e-001
1.427125e+003;1.305254e-001
1.429054e+003;1.294104e-001
1.430983e+003;1.282984e-001
1.432911e+003;1.271966e-001
1.434840e+003;1.240493e-001
1.436768e+003;1.208660e-001
1.438697e+003;1.207358e-001
1.440625e+003;1.202391e-001
1.442554e+003;1.191641e-001
1.444482e+003;1.176978e-001
1.446411e+003;1.157901e-001
1.448340e+003;1.147706e-001
1.450268e+003;1.145327e-001
1.452197e+003;1.133241e-001
1.454125e+003;1.104642e-001
1.456054e+003;1.053979e-001
1.457982e+003;1.044685e-001
1.459911e+003;1.068292e-001
1.461839e+003;1.068219e-001
1.463768e+003;1.039117e-001
1.465697e+003;1.015089e-001
1.467625e+003;1.002913e-001
1.469554e+003;9.802288e-002
1.471482e+003;9.457501e-002
1.473411e+003;9.224753e-002
1.475339e+003;9.070012e-002
1.477268e+003;8.876259e-002
1.479196e+003;8.700363e-002
1.481125e+003;8.452301e-002
1.483053e+003;8.199510e-002
1.484982e+003;7.904460e-002
1.486911e+003;7.558749e-002
1.488839e+003;7.252254e-002
1.490768e+003;7.075352e-002
1.492696e+003;7.005098e-002
1.494625e+003;6.791504e-002
1.496553e+003;6.570102e-002
1.498482e+003;6.572045e-002
1.500410e+003;6.641705e-002
1.502339e+003;6.608498e-002
1.504267e+003;6.223556e-002
1.506196e+003;5.817788e-002
1.508125e+003;5.994130e-002
1.510053e+003;6.276660e-002
1.511982e+003;6.308614e-002
1.513910e+003;6.269551e-002
1.515839e+003;6.127238e-002
1.517767e+003;6.024484e-002
1.519696e+003;5.837973e-002
1.521624e+003;5.715312e-002
1.523553e+003;5.874271e-002
1.525481e+003;5.936135e-002
1.527410e+003;6.018424e-002
1.529339e+003;6.117525e-002
1.531267e+003;6.112032e-002
1.533196e+003;6.048254e-002
1.535124e+003;6.170256e-002
1.537053e+003;6.075093e-002
1.538981e+003;5.705011e-002
1.540910e+003;5.780530e-002
1.542838e+003;6.082567e-002
1.544767e+003;6.201707e-002
1.546695e+003;6.264663e-002
1.548624e+003;6.243066e-002
1.550553e+003;6.189700e-002
1.552481e+003;6.095452e-002
1.554410e+003;5.933855e-002
1.556338e+003;5.684996e-002
1.558267e+003;5.264618e-002
1.560195e+003;5.450679e-002
1.562124e+003;5.980401e-002
1.564052e+003;6.134992e-002
1.565981e+003;6.163263e-002
1.567910e+003;6.110461e-002
1.569838e+003;6.090389e-002
1.571767e+003;6.283043e-002
1.573695e+003;6.269746e-002
1.575624e+003;6.061765e-002
1.577552e+003;6.249991e-002
1.579481e+003;6.474882e-002
1.581409e+003;6.461481e-002
1.583338e+003;6.405258e-002
1.585266e+003;6.367823e-002
1.587195e+003;6.375309e-002
1.589124e+003;6.393390e-002
1.591052e+003;6.396665e-002
1.592981e+003;6.379166e-002
1.594909e+003;6.403438e-002
1.596838e+003;6.448099e-002
1.598766e+003;6.490589e-002
1.600695e+003;6.511236e-002
1.602623e+003;6.526983e-002
1.604552e+003;6.570853e-002
1.606480e+003;6.609536e-002
1.608409e+003;6.615609e-002
1.610338e+003;6.640435e-002
1.612266e+003;6.690693e-002
1.614195e+003;6.619715e-002
1.616123e+003;6.437522e-002
1.618052e+003;6.613074e-002
1.619980e+003;6.841469e-002
1.621909e+003;6.801842e-002
1.623837e+003;6.818854e-002
1.625766e+003;6.951737e-002
1.627694e+003;7.033681e-002
1.629623e+003;7.122240e-002
1.631552e+003;7.154850e-002
1.633480e+003;6.963455e-002
1.635409e+003;6.789416e-002
1.637337e+003;7.037382e-002
1.639266e+003;7.274861e-002
1.641194e+003;7.296409e-002
1.643123e+003;7.205038e-002
1.645051e+003;6.943766e-002
1.646980e+003;6.868038e-002
1.648909e+003;7.034858e-002
1.650837e+003;6.710422e-002
1.652766e+003;6.206210e-002
1.654694e+003;6.584343e-002
1.656623e+003;6.981246e-002
1.658551e+003;6.959499e-002
1.660480e+003;6.814923e-002
1.662408e+003;6.666851e-002
1.664337e+003;6.667829e-002
1.666266e+003;6.600370e-002
1.668194e+003;6.331275e-002
1.670123e+003;6.182449e-002
1.672051e+003;6.188707e-002
1.673980e+003;6.014714e-002
1.675908e+003;5.904852e-002
1.677837e+003;5.958925e-002
1.679765e+003;5.839679e-002
1.681694e+003;5.539471e-002
1.683622e+003;5.057265e-002
1.685551e+003;5.088476e-002
1.687479e+003;5.353547e-002
1.689408e+003;5.312181e-002
1.691337e+003;5.254239e-002
1.693265e+003;5.017381e-002
1.695194e+003;4.555689e-002
1.697122e+003;4.481298e-002
1.699051e+003;4.293121e-002
1.700979e+003;4.216107e-002
1.702908e+003;4.481824e-002
1.704836e+003;4.461363e-002
1.706765e+003;4.452727e-002
1.708693e+003;4.448175e-002
1.710622e+003;4.403888e-002
1.712551e+003;4.270383e-002
1.714479e+003;4.051706e-002
1.716408e+003;3.764438e-002
1.718336e+003;3.761261e-002
1.720265e+003;4.025048e-002
1.722193e+003;4.101232e-002
1.724122e+003;4.028807e-002
1.726050e+003;3.980631e-002
1.727979e+003;3.900954e-002
1.729908e+003;3.807267e-002
1.731836e+003;3.554144e-002
1.733765e+003;3.264389e-002
1.735693e+003;3.441592e-002
1.737622e+003;3.528286e-002
1.739550e+003;3.345959e-002
1.741479e+003;3.269255e-002
1.743407e+003;3.215697e-002
1.745336e+003;3.152290e-002
1.747265e+003;3.071627e-002
1.749193e+003;2.979103e-002
1.751122e+003;2.966607e-002
1.753050e+003;3.164073e-002
1.754979e+003;3.232556e-002
1.756907e+003;3.246315e-002
1.758836e+003;3.322095e-002
1.760764e+003;3.281699e-002
1.762693e+003;3.298258e-002
1.764621e+003;3.357262e-002
1.766550e+003;3.263714e-002
1.768479e+003;3.196167e-002
1.770407e+003;3.108154e-002
1.772336e+003;3.010549e-002
1.774264e+003;3.166240e-002
1.776193e+003;3.304225e-002
1.778121e+003;3.293744e-002
1.780050e+003;3.252260e-002
1.781978e+003;3.257028e-002
1.783907e+003;3.217885e-002
1.785835e+003;3.202976e-002
1.787764e+003;3.220286e-002
1.789693e+003;3.115465e-002
1.791621e+003;2.978319e-002
1.793550e+003;3.044423e-002
1.795478e+003;3.171501e-002
1.797407e+003;3.144281e-002
1.799335e+003;3.085683e-002
1.801264e+003;3.085416e-002
1.803192e+003;3.111215e-002
1.805121e+003;3.100093e-002
1.807049e+003;3.080732e-002
1.808978e+003;3.059267e-002
1.810907e+003;3.059462e-002
1.812835e+003;3.069294e-002
1.814764e+003;3.054190e-002
1.816692e+003;3.013656e-002
1.818621e+003;3.023964e-002
1.820549e+003;3.022688e-002
1.822478e+003;2.995487e-002
1.824406e+003;2.933778e-002
1.826335e+003;2.933853e-002
1.828264e+003;2.898301e-002
1.830192e+003;2.860881e-002
1.832121e+003;2.900376e-002
1.834049e+003;2.924204e-002
1.835978e+003;2.934700e-002
1.837906e+003;2.937604e-002
1.839835e+003;2.944064e-002
1.841763e+003;2.861864e-002
1.843692e+003;2.736612e-002
1.845620e+003;2.802971e-002
1.847549e+003;2.874062e-002
1.849478e+003;2.888157e-002
1.851406e+003;2.895283e-002
1.853335e+003;2.864363e-002
1.855263e+003;2.837483e-002
1.857192e+003;2.841074e-002
1.859120e+003;2.831672e-002
1.861049e+003;2.816503e-002
1.862977e+003;2.814010e-002
1.864906e+003;2.785243e-002
1.866834e+003;2.718580e-002
1.868763e+003;2.690641e-002
1.870692e+003;2.761068e-002
1.872620e+003;2.809613e-002
1.874549e+003;2.798942e-002
1.876477e+003;2.803392e-002
1.878406e+003;2.797494e-002
1.880334e+003;2.783844e-002
1.882263e+003;2.765072e-002
1.884191e+003;2.740110e-002
1.886120e+003;2.738042e-002
1.888048e+003;2.723857e-002
1.889977e+003;2.702166e-002
1.891906e+003;2.728394e-002
1.893834e+003;2.723176e-002
1.895763e+003;2.738754e-002
1.897691e+003;2.744627e-002
1.899620e+003;2.724432e-002
1.901548e+003;2.715479e-002
1.903477e+003;2.714636e-002
1.905405e+003;2.698795e-002
1.907334e+003;2.675344e-002
1.909262e+003;2.670457e-002
1.911191e+003;2.705626e-002
1.913120e+003;2.721388e-002
1.915048e+003;2.694434e-002
1.916977e+003;2.656478e-002
1.918905e+003;2.693648e-002
1.920834e+003;2.742898e-002
1.922762e+003;2.742577e-002
1.924691e+003;2.758081e-002
1.926619e+003;2.770839e-002
1.928548e+003;2.763282e-002
1.930477e+003;2.761329e-002
1.932405e+003;2.747190e-002
1.934334e+003;2.754840e-002
1.936262e+003;2.795380e-002
1.938191e+003;2.814014e-002
1.940119e+003;2.790589e-002
1.942048e+003;2.759984e-002
1.943976e+003;2.779143e-002
1.945905e+003;2.806898e-002
1.947833e+003;2.810238e-002
1.949762e+003;2.816764e-002
1.951691e+003;2.828610e-002
1.953619e+003;2.842071e-002
1.955548e+003;2.854373e-002
1.957476e+003;2.873184e-002
1.959405e+003;2.872232e-002
1.961333e+003;2.864278e-002
1.963262e+003;2.859706e-002
1.965190e+003;2.855388e-002
1.967119e+003;2.842659e-002
1.969047e+003;2.838163e-002
1.970976e+003;2.862654e-002
1.972905e+003;2.887562e-002
1.974833e+003;2.892442e-002
1.976762e+003;2.900472e-002
1.978690e+003;2.910657e-002
1.980619e+003;2.916592e-002
1.982547e+003;2.919254e-002
1.984476e+003;2.919707e-002
1.986404e+003;2.925076e-002
1.988333e+003;2.906459e-002
1.990261e+003;2.891893e-002
1.992190e+003;2.917347e-002
1.994119e+003;2.936285e-002
1.996047e+003;2.943397e-002
1.997976e+003;2.954741e-002
1.999904e+003;2.949180e-002
2.001833e+003;2.954865e-002
2.003761e+003;2.962101e-002
2.005690e+003;2.967408e-002
2.007618e+003;2.980044e-002
2.009547e+003;2.992015e-002
2.011476e+003;3.006650e-002
2.013404e+003;3.006177e-002
2.015333e+003;2.999598e-002
2.017261e+003;3.023587e-002
2.019190e+003;3.056750e-002
2.021118e+003;3.071253e-002
2.023047e+003;3.065905e-002
2.024975e+003;3.074721e-002
2.026904e+003;3.101734e-002
2.028833e+003;3.121414e-002
2.030761e+003;3.131327e-002
2.032690e+003;3.122457e-002
2.034618e+003;3.115380e-002
2.036547e+003;3.136356e-002
2.038475e+003;3.138842e-002
2.040404e+003;3.120147e-002
2.042332e+003;3.128781e-002
2.044261e+003;3.152129e-002
2.046189e+003;3.162933e-002
2.048118e+003;3.153747e-002
2.050047e+003;3.154459e-002
2.051975e+003;3.148399e-002
2.053904e+003;3.154124e-002
2.055832e+003;3.159177e-002
2.057761e+003;3.151213e-002
2.059689e+003;3.136278e-002
2.061618e+003;3.137602e-002
2.063546e+003;3.143974e-002
2.065475e+003;3.139180e-002
2.067404e+003;3.127389e-002
2.069332e+003;3.112019e-002
2.071260e+003;3.102837e-002
2.073189e+003;3.129351e-002
2.075118e+003;3.153358e-002
2.077046e+003;3.141186e-002
2.078975e+003;3.141613e-002
2.080903e+003;3.150675e-002
2.082832e+003;3.144056e-002
2.084760e+003;3.139896e-002
2.086689e+003;3.133987e-002
2.088617e+003;3.131808e-002
2.090546e+003;3.127503e-002
2.092475e+003;3.136253e-002
2.094403e+003;3.159487e-002
2.096332e+003;3.142510e-002
2.098260e+003;3.118537e-002
2.100189e+003;3.132598e-002
2.102117e+003;3.136174e-002
2.104046e+003;3.145841e-002
2.105974e+003;3.163125e-002
2.107903e+003;3.149115e-002
2.109832e+003;3.139358e-002
2.111760e+003;3.172521e-002
2.113688e+003;3.221482e-002
2.115617e+003;3.232760e-002
2.117546e+003;3.219737e-002
2.119474e+003;3.194066e-002
2.121403e+003;3.202244e-002
2.123331e+003;3.237243e-002
2.125260e+003;3.242077e-002
2.127188e+003;3.221010e-002
2.129117e+003;3.218755e-002
2.131045e+003;3.241177e-002
2.132974e+003;3.251036e-002
2.134903e+003;3.259632e-002
2.136831e+003;3.253853e-002
2.138760e+003;3.223791e-002
2.140688e+003;3.217977e-002
2.142617e+003;3.215580e-002
2.144545e+003;3.184121e-002
2.146474e+003;3.159370e-002
2.148402e+003;3.170253e-002
2.150331e+003;3.196167e-002
2.152260e+003;3.200457e-002
2.154188e+003;3.181443e-002
2.156117e+003;3.169993e-002
2.158045e+003;3.158379e-002
2.159974e+003;3.154178e-002
2.161902e+003;3.164130e-002
2.163831e+003;3.146668e-002
2.165759e+003;3.135056e-002
2.167688e+003;3.114134e-002
2.169616e+003;3.083247e-002
2.171545e+003;3.085488e-002
2.173474e+003;3.074642e-002
2.175402e+003;3.042660e-002
2.177331e+003;3.018451e-002
2.179259e+003;2.992455e-002
2.181188e+003;2.966610e-002
2.183116e+003;2.953652e-002
2.185045e+003;2.952826e-002
2.186973e+003;2.951854e-002
2.188902e+003;2.940738e-002
2.190831e+003;2.924867e-002
2.192759e+003;2.924743e-002
2.194688e+003;2.928259e-002
2.196616e+003;2.917230e-002
2.198545e+003;2.887315e-002
2.200473e+003;2.880243e-002
2.202402e+003;2.897245e-002
2.204330e+003;2.913665e-002
2.206259e+003;2.891327e-002
2.208188e+003;2.857098e-002
2.210116e+003;2.854624e-002
2.212044e+003;2.882290e-002
2.213973e+003;2.898680e-002
2.215902e+003;2.884967e-002
2.217830e+003;2.864576e-002
2.219759e+003;2.877907e-002
2.221687e+003;2.886507e-002
2.223616e+003;2.869028e-002
2.225544e+003;2.882435e-002
2.227473e+003;2.884078e-002
2.229401e+003;2.884857e-002
2.231330e+003;2.844930e-002
2.233259e+003;2.821608e-002
2.235187e+003;2.863737e-002
2.237116e+003;2.873457e-002
2.239044e+003;2.858686e-002
2.240973e+003;2.849809e-002
2.242901e+003;2.856103e-002
2.244830e+003;2.841371e-002
2.246758e+003;2.819663e-002
2.248687e+003;2.818267e-002
2.250615e+003;2.818016e-002
2.252544e+003;2.823468e-002
2.254473e+003;2.828963e-002
2.256401e+003;2.802940e-002
2.258330e+003;2.770330e-002
2.260258e+003;2.762883e-002
2.262187e+003;2.771647e-002
2.264115e+003;2.776712e-002
2.266044e+003;2.782043e-002
2.267972e+003;2.787222e-002
2.269901e+003;2.777129e-002
2.271830e+003;2.761382e-002
2.273758e+003;2.750303e-002
2.275687e+003;2.754737e-002
2.277615e+003;2.764525e-002
2.279544e+003;2.746322e-002
2.281472e+003;2.702360e-002
2.283401e+003;2.709240e-002
2.285329e+003;2.735956e-002
2.287258e+003;2.725519e-002
2.289187e+003;2.705379e-002
2.291115e+003;2.713642e-002
2.293043e+003;2.726606e-002
2.294972e+003;2.732036e-002
2.296901e+003;2.726796e-002
2.298829e+003;2.710827e-002
2.300758e+003;2.711839e-002
2.302686e+003;2.704836e-002
2.304615e+003;2.701983e-002
2.306543e+003;2.709656e-002
2.308472e+003;2.722309e-002
2.310400e+003;2.695242e-002
2.312329e+003;2.658412e-002
2.314258e+003;2.655622e-002
2.316186e+003;2.690796e-002
2.318115e+003;2.709434e-002
2.320043e+003;2.704885e-002
2.321972e+003;2.719631e-002
2.323900e+003;2.726087e-002
2.325829e+003;2.722531e-002
2.327757e+003;2.735529e-002
2.329686e+003;2.733250e-002
2.331615e+003;2.737622e-002
2.333543e+003;2.756845e-002
2.335472e+003;2.760725e-002
2.337400e+003;2.787614e-002
2.339329e+003;2.804420e-002
2.341257e+003;2.797066e-002
2.343186e+003;2.818256e-002
2.345114e+003;2.853021e-002
2.347043e+003;2.863875e-002
2.348971e+003;2.856177e-002
2.350900e+003;2.846313e-002
2.352829e+003;2.839015e-002
2.354757e+003;2.861999e-002
2.356686e+003;2.892425e-002
2.358614e+003;2.891642e-002
2.360543e+003;2.863025e-002
2.362471e+003;2.879599e-002
2.364400e+003;2.894652e-002
2.366328e+003;2.906565e-002
2.368257e+003;2.914137e-002
2.370186e+003;2.927735e-002
2.372114e+003;2.911812e-002
2.374042e+003;2.892435e-002
2.375971e+003;2.893682e-002
2.377900e+003;2.933495e-002
2.379828e+003;2.975299e-002
2.381757e+003;2.988629e-002
2.383685e+003;2.972933e-002
2.385614e+003;2.959923e-002
2.387542e+003;2.994773e-002
2.389471e+003;3.040649e-002
2.391399e+003;3.009423e-002
2.393328e+003;2.975729e-002
2.395257e+003;3.002435e-002
2.397185e+003;3.030945e-002
2.399114e+003;3.049832e-002
2.401042e+003;3.049733e-002
2.402971e+003;3.042934e-002
2.404899e+003;3.053327e-002
2.406828e+003;3.084275e-002
2.408756e+003;3.099392e-002
2.410685e+003;3.084033e-002
2.412614e+003;3.088422e-002
2.414542e+003;3.111283e-002
2.416471e+003;3.140844e-002
2.418399e+003;3.143348e-002
2.420328e+003;3.160232e-002
2.422256e+003;3.180299e-002
2.424185e+003;3.191659e-002
2.426113e+003;3.221450e-002
2.428042e+003;3.238964e-002
2.429970e+003;3.247204e-002
2.431899e+003;3.283887e-002
2.433828e+003;3.309192e-002
2.435756e+003;3.315182e-002
2.437685e+003;3.313662e-002
2.439613e+003;3.315679e-002
2.441542e+003;3.350236e-002
2.443470e+003;3.375594e-002
2.445399e+003;3.376830e-002
2.447327e+003;3.387854e-002
2.449256e+003;3.402168e-002
2.451185e+003;3.411822e-002
2.453113e+003;3.445563e-002
2.455042e+003;3.478281e-002
2.456970e+003;3.477678e-002
2.458899e+003;3.482543e-002
2.460827e+003;3.515206e-002
2.462756e+003;3.499218e-002
2.464684e+003;3.463907e-002
2.466613e+003;3.473191e-002
2.468542e+003;3.498273e-002
2.470470e+003;3.521803e-002
2.472398e+003;3.520793e-002
2.474327e+003;3.524484e-002
2.476256e+003;3.548944e-002
2.478184e+003;3.573872e-002
2.480113e+003;3.588340e-002
2.482041e+003;3.607757e-002
2.483970e+003;3.617396e-002
2.485898e+003;3.632362e-002
2.487827e+003;3.675829e-002
2.489755e+003;3.704305e-002
2.491684e+003;3.710955e-002
2.493613e+003;3.693207e-002
2.495541e+003;3.711075e-002
2.497470e+003;3.746638e-002
2.499398e+003;3.741610e-002
2.501327e+003;3.730939e-002
2.503255e+003;3.766461e-002
2.505184e+003;3.794717e-002
2.507112e+003;3.779920e-002
2.509041e+003;3.795524e-002
2.510969e+003;3.840708e-002
2.512898e+003;3.841765e-002
2.514827e+003;3.840549e-002
2.516755e+003;3.837157e-002
2.518684e+003;3.843090e-002
2.520612e+003;3.887979e-002
2.522541e+003;3.915510e-002
2.524469e+003;3.896332e-002
2.526398e+003;3.894172e-002
2.528326e+003;3.922345e-002
2.530255e+003;3.926817e-002
2.532184e+003;3.923687e-002
2.534112e+003;3.933469e-002
2.536041e+003;3.942583e-002
2.537969e+003;3.932189e-002
2.539898e+003;3.930255e-002
2.541826e+003;3.966910e-002
2.543755e+003;3.981346e-002
2.545683e+003;3.974414e-002
2.547612e+003;3.974963e-002
2.549541e+003;3.996361e-002
2.551469e+003;4.008460e-002
2.553397e+003;4.007523e-002
2.555326e+003;4.017375e-002
2.557255e+003;4.000746e-002
2.559183e+003;3.986928e-002
2.561112e+003;3.998876e-002
2.563040e+003;4.003242e-002
2.564969e+003;4.018745e-002
2.566897e+003;4.015213e-002
2.568826e+003;4.002777e-002
2.570754e+003;4.012458e-002
2.572683e+003;4.001179e-002
2.574612e+003;3.990891e-002
2.576540e+003;4.026146e-002
2.578469e+003;4.027200e-002
2.580397e+003;4.021718e-002
2.582326e+003;4.064686e-002
2.584254e+003;4.071246e-002
2.586183e+003;4.049320e-002
2.588111e+003;4.076596e-002
2.590040e+003;4.103661e-002
2.591969e+003;4.128687e-002
2.593897e+003;4.140896e-002
2.595826e+003;4.132703e-002
2.597754e+003;4.136023e-002
2.599683e+003;4.155025e-002
2.601611e+003;4.163339e-002
2.603540e+003;4.157610e-002
2.605468e+003;4.178166e-002
2.607397e+003;4.206067e-002
2.609325e+003;4.200731e-002
2.611254e+003;4.216067e-002
2.613183e+003;4.247833e-002
2.615111e+003;4.256475e-002
2.617040e+003;4.290864e-002
2.618968e+003;4.328728e-002
2.620897e+003;4.345318e-002
2.622825e+003;4.363694e-002
2.624754e+003;4.354328e-002
2.626682e+003;4.358214e-002
2.628611e+003;4.412239e-002
2.630540e+003;4.480134e-002
2.632468e+003;4.493570e-002
2.634396e+003;4.507499e-002
2.636325e+003;4.509344e-002
2.638254e+003;4.526908e-002
2.640182e+003;4.538077e-002
2.642111e+003;4.563455e-002
2.644039e+003;4.588673e-002
2.645968e+003;4.606283e-002
2.647896e+003;4.612724e-002
2.649825e+003;4.621786e-002
2.651753e+003;4.650505e-002
2.653682e+003;4.661061e-002
2.655611e+003;4.686853e-002
2.657539e+003;4.721341e-002
2.659468e+003;4.760244e-002
2.661396e+003;4.778523e-002
2.663325e+003;4.778827e-002
2.665253e+003;4.795904e-002
2.667182e+003;4.801244e-002
2.669110e+003;4.816719e-002
2.671039e+003;4.872656e-002
2.672968e+003;4.892644e-002
2.674896e+003;4.880534e-002
2.676825e+003;4.913929e-002
2.678753e+003;4.979276e-002
2.680682e+003;4.987162e-002
2.682610e+003;4.976344e-002
2.684539e+003;4.975230e-002
2.686467e+003;4.993756e-002
2.688396e+003;5.022518e-002
2.690324e+003;5.069109e-002
2.692253e+003;5.116484e-002
2.694182e+003;5.130551e-002
2.696110e+003;5.144809e-002
2.698039e+003;5.165814e-002
2.699967e+003;5.211876e-002
2.701896e+003;5.272761e-002
2.703824e+003;5.282040e-002
2.705753e+003;5.266925e-002
2.707681e+003;5.285198e-002
2.709610e+003;5.319464e-002
2.711539e+003;5.324326e-002
2.713467e+003;5.318921e-002
2.715396e+003;5.335923e-002
2.717324e+003;5.357820e-002
2.719253e+003;5.363829e-002
2.721181e+003;5.365141e-002
2.723110e+003;5.387252e-002
2.725038e+003;5.406780e-002
2.726967e+003;5.411073e-002
2.728896e+003;5.435884e-002
2.730824e+003;5.437199e-002
2.732752e+003;5.439103e-002
2.734681e+003;5.470375e-002
2.736610e+003;5.515060e-002
2.738538e+003;5.515451e-002
2.740467e+003;5.516347e-002
2.742395e+003;5.520399e-002
2.744324e+003;5.532768e-002
2.746252e+003;5.565143e-002
2.748181e+003;5.612109e-002
2.750109e+003;5.614586e-002
2.752038e+003;5.624459e-002
2.753967e+003;5.624493e-002
2.755895e+003;5.597587e-002
2.757824e+003;5.626258e-002
2.759752e+003;5.629902e-002
2.761681e+003;5.619877e-002
2.763609e+003;5.687807e-002
2.765538e+003;5.741209e-002
2.767466e+003;5.771466e-002
2.769395e+003;5.816216e-002
2.771323e+003;5.842040e-002
2.773252e+003;5.836457e-002
2.775181e+003;5.818519e-002
2.777109e+003;5.822762e-002
2.779038e+003;5.881555e-002
2.780966e+003;5.919735e-002
2.782895e+003;5.905088e-002
2.784823e+003;5.926218e-002
2.786752e+003;5.994054e-002
2.788680e+003;6.051278e-002
2.790609e+003;6.064984e-002
2.792538e+003;6.070433e-002
2.794466e+003;6.129508e-002
2.796395e+003;6.183381e-002
2.798323e+003;6.207918e-002
2.800252e+003;6.289040e-002
2.802180e+003;6.382539e-002
2.804109e+003;6.442241e-002
2.806037e+003;6.472994e-002
2.807966e+003;6.506378e-002
2.809895e+003;6.565434e-002
2.811823e+003;6.619653e-002
2.813751e+003;6.662312e-002
2.815680e+003;6.721243e-002
2.817609e+003;6.776176e-002
2.819537e+003;6.841294e-002
2.821466e+003;6.901658e-002
2.823394e+003;6.985013e-002
2.825323e+003;7.048289e-002
2.827251e+003;7.107224e-002
2.829180e+003;7.188231e-002
2.831108e+003;7.267817e-002
2.833037e+003;7.361338e-002
2.834966e+003;7.489748e-002
2.836894e+003;7.622591e-002
2.838823e+003;7.768764e-002
2.840751e+003;7.945412e-002
2.842680e+003;8.193047e-002
2.844608e+003;8.537452e-002
2.846537e+003;8.934771e-002
2.848465e+003;9.305923e-002
2.850394e+003;9.491756e-002
2.852323e+003;9.457526e-002
2.854251e+003;9.371993e-002
2.856180e+003;9.283724e-002
2.858108e+003;9.244582e-002
2.860037e+003;9.308239e-002
2.861965e+003;9.431325e-002
2.863894e+003;9.511922e-002
2.865822e+003;9.589577e-002
2.867751e+003;9.670384e-002
2.869679e+003;9.746395e-002
2.871608e+003;9.802300e-002
2.873536e+003;9.835216e-002
2.875465e+003;9.857658e-002
2.877394e+003;9.924431e-002
2.879322e+003;9.993664e-002
2.881251e+003;1.006783e-001
2.883179e+003;1.015765e-001
2.885108e+003;1.022604e-001
2.887036e+003;1.027419e-001
2.888965e+003;1.033750e-001
2.890893e+003;1.037842e-001
2.892822e+003;1.042356e-001
2.894750e+003;1.042540e-001
2.896679e+003;1.040711e-001
2.898608e+003;1.041792e-001
2.900536e+003;1.041563e-001
2.902465e+003;1.038269e-001
2.904393e+003;1.036262e-001
2.906322e+003;1.035914e-001
2.908250e+003;1.032228e-001
2.910179e+003;1.031618e-001
2.912107e+003;1.038630e-001
2.914036e+003;1.054416e-001
2.915965e+003;1.067159e-001
2.917893e+003;1.065433e-001
2.919822e+003;1.052823e-001
2.921750e+003;1.031206e-001
2.923679e+003;1.003416e-001
2.925607e+003;9.739110e-002
2.927536e+003;9.456586e-002
2.929464e+003;9.216719e-002
2.931393e+003;8.998362e-002
2.933322e+003;8.809409e-002
2.935250e+003;8.620773e-002
2.937178e+003;8.474845e-002
2.939107e+003;8.356436e-002
2.941036e+003;8.191559e-002
2.942964e+003;8.062616e-002
2.944893e+003;7.954126e-002
2.946821e+003;7.838873e-002
2.948750e+003;7.718237e-002
2.950678e+003;7.574943e-002
2.952607e+003;7.412328e-002
2.954535e+003;7.254392e-002
2.956464e+003;7.156268e-002
2.958393e+003;7.053387e-002
2.960321e+003;6.924845e-002
2.962250e+003;6.790099e-002
2.964178e+003;6.690473e-002
2.966107e+003;6.613873e-002
2.968035e+003;6.525720e-002
2.969964e+003;6.452984e-002
2.971892e+003;6.356744e-002
2.973821e+003;6.275213e-002
2.975750e+003;6.167262e-002
2.977678e+003;6.060062e-002
2.979607e+003;5.995785e-002
2.981535e+003;5.903824e-002
2.983464e+003;5.839539e-002
2.985392e+003;5.778698e-002
2.987321e+003;5.698890e-002
2.989249e+003;5.642442e-002
2.991178e+003;5.635967e-002
2.993106e+003;5.633632e-002
2.995035e+003;5.576187e-002
2.996964e+003;5.525000e-002
2.998892e+003;5.510523e-002
3.000821e+003;5.469897e-002
3.002749e+003;5.450506e-002
3.004678e+003;5.475009e-002
3.006606e+003;5.452974e-002
3.008535e+003;5.452674e-002
3.010463e+003;5.470645e-002
3.012392e+003;5.496024e-002
3.014321e+003;5.552923e-002
3.016249e+003;5.565113e-002
3.018177e+003;5.574831e-002
3.020106e+003;5.607370e-002
3.022035e+003;5.624297e-002
3.023963e+003;5.626579e-002
3.025892e+003;5.657408e-002
3.027820e+003;5.709383e-002
3.029749e+003;5.732871e-002
3.031677e+003;5.757095e-002
3.033606e+003;5.812511e-002
3.035534e+003;5.854888e-002
3.037463e+003;5.864914e-002
3.039392e+003;5.897219e-002
3.041320e+003;5.957827e-002
3.043249e+003;5.980557e-002
3.045177e+003;6.023170e-002
3.047106e+003;6.110476e-002
3.049034e+003;6.155230e-002
3.050963e+003;6.178189e-002
3.052891e+003;6.198600e-002
3.054820e+003;6.236429e-002
3.056749e+003;6.304833e-002
3.058677e+003;6.339058e-002
3.060606e+003;6.369005e-002
3.062534e+003;6.413043e-002
3.064463e+003;6.432688e-002
3.066391e+003;6.427524e-002
3.068320e+003;6.437445e-002
3.070248e+003;6.540798e-002
3.072177e+003;6.651501e-002
3.074105e+003;6.685688e-002
3.076034e+003;6.713098e-002
3.077963e+003;6.782072e-002
3.079891e+003;6.849463e-002
3.081820e+003;6.889223e-002
3.083748e+003;6.883053e-002
3.085677e+003;6.948669e-002
3.087605e+003;7.036922e-002
3.089534e+003;7.049836e-002
3.091462e+003;7.063815e-002
3.093391e+003;7.124227e-002
3.095320e+003;7.148501e-002
3.097248e+003;7.203306e-002
3.099177e+003;7.281208e-002
3.101105e+003;7.311059e-002
3.103034e+003;7.362233e-002
3.104962e+003;7.473456e-002
3.106891e+003;7.545387e-002
3.108819e+003;7.547753e-002
3.110748e+003;7.585718e-002
3.112677e+003;7.674877e-002
3.114605e+003;7.731406e-002
3.116533e+003;7.757651e-002
3.118462e+003;7.810552e-002
3.120391e+003;7.918751e-002
3.122319e+003;7.956816e-002
3.124248e+003;7.932957e-002
3.126176e+003;7.976735e-002
3.128105e+003;8.083892e-002
3.130033e+003;8.183133e-002
3.131962e+003;8.218343e-002
3.133890e+003;8.257043e-002
3.135819e+003;8.298554e-002
3.137748e+003;8.389512e-002
3.139676e+003;8.479255e-002
3.141605e+003;8.486244e-002
3.143533e+003;8.500761e-002
3.145462e+003;8.531567e-002
3.147390e+003;8.616041e-002
3.149319e+003;8.718900e-002
3.151247e+003;8.805367e-002
3.153176e+003;8.893237e-002
3.155104e+003;8.931722e-002
3.157033e+003;8.969699e-002
3.158962e+003;9.012472e-002
3.160890e+003;9.050292e-002
3.162819e+003;9.136242e-002
3.164747e+003;9.221283e-002
3.166676e+003;9.251437e-002
3.168604e+003;9.310521e-002
3.170533e+003;9.418757e-002
3.172461e+003;9.520786e-002
3.174390e+003;9.591585e-002
3.176319e+003;9.645019e-002
3.178247e+003;9.699658e-002
3.180176e+003;9.779588e-002
3.182104e+003;9.846862e-002
3.184033e+003;9.888989e-002
3.185961e+003;9.934564e-002
3.187890e+003;9.977227e-002
3.189818e+003;1.006738e-001
3.191747e+003;1.013488e-001
3.193676e+003;1.018944e-001
3.195604e+003;1.028456e-001
3.197532e+003;1.033542e-001
3.199461e+003;1.040983e-001
3.201390e+003;1.050176e-001
3.203318e+003;1.058321e-001
3.205247e+003;1.065992e-001
3.207175e+003;1.074744e-001
3.209104e+003;1.086847e-001
3.211032e+003;1.096056e-001
3.212961e+003;1.101095e-001
3.214889e+003;1.104509e-001
3.216818e+003;1.111251e-001
3.218747e+003;1.122025e-001
3.220675e+003;1.129504e-001
3.222604e+003;1.133410e-001
3.224532e+003;1.135407e-001
3.226461e+003;1.138821e-001
3.228389e+003;1.147054e-001
3.230318e+003;1.161128e-001
3.232246e+003;1.171016e-001
3.234175e+003;1.177620e-001
3.236104e+003;1.187168e-001
3.238032e+003;1.195270e-001
3.239961e+003;1.202249e-001
3.241889e+003;1.214461e-001
3.243818e+003;1.226532e-001
3.245746e+003;1.230560e-001
3.247675e+003;1.234619e-001
3.249603e+003;1.239519e-001
3.251532e+003;1.249504e-001
3.253460e+003;1.262914e-001
3.255389e+003;1.273459e-001
3.257318e+003;1.280290e-001
3.259246e+003;1.280842e-001
3.261175e+003;1.291425e-001
3.263103e+003;1.303874e-001
3.265032e+003;1.313283e-001
3.266960e+003;1.324794e-001
3.268889e+003;1.335406e-001
3.270817e+003;1.344256e-001
3.272746e+003;1.348643e-001
3.274675e+003;1.353078e-001
3.276603e+003;1.358048e-001
3.278531e+003;1.361445e-001
3.280460e+003;1.368085e-001
3.282389e+003;1.378250e-001
3.284317e+003;1.379869e-001
3.286246e+003;1.380830e-001
3.288174e+003;1.381774e-001
3.290103e+003;1.380115e-001
3.292031e+003;1.383510e-001
3.293960e+003;1.389599e-001
3.295888e+003;1.387534e-001
3.297817e+003;1.383268e-001
3.299746e+003;1.386857e-001
3.301674e+003;1.388653e-001
3.303603e+003;1.386580e-001
3.305531e+003;1.394740e-001
3.307460e+003;1.400137e-001
3.309388e+003;1.402290e-001
3.311317e+003;1.409557e-001
3.313245e+003;1.412964e-001
3.315174e+003;1.410573e-001
3.317103e+003;1.410502e-001
3.319031e+003;1.415825e-001
3.320960e+003;1.421561e-001
3.322888e+003;1.423069e-001
3.324817e+003;1.429561e-001
3.326745e+003;1.437545e-001
3.328674e+003;1.439018e-001
3.330602e+003;1.438889e-001
3.332531e+003;1.436633e-001
3.334459e+003;1.435828e-001
3.336388e+003;1.437806e-001
3.338317e+003;1.438757e-001
3.340245e+003;1.437164e-001
3.342174e+003;1.433165e-001
3.344102e+003;1.425988e-001
3.346031e+003;1.418156e-001
3.347959e+003;1.413118e-001
3.349888e+003;1.410841e-001
3.351816e+003;1.407912e-001
3.353745e+003;1.404145e-001
3.355674e+003;1.391118e-001
3.357602e+003;1.379122e-001
3.359531e+003;1.375280e-001
3.361459e+003;1.370157e-001
3.363388e+003;1.362111e-001
3.365316e+003;1.358726e-001
3.367245e+003;1.356033e-001
3.369173e+003;1.349393e-001
3.371102e+003;1.345549e-001
3.373031e+003;1.342075e-001
3.374959e+003;1.329948e-001
3.376887e+003;1.317654e-001
3.378816e+003;1.315627e-001
3.380745e+003;1.315004e-001
3.382673e+003;1.307421e-001
3.384602e+003;1.300534e-001
3.386530e+003;1.298165e-001
3.388459e+003;1.292310e-001
3.390387e+003;1.285918e-001
3.392316e+003;1.284349e-001
3.394244e+003;1.280622e-001
3.396173e+003;1.274249e-001
3.398102e+003;1.268482e-001
3.400030e+003;1.263219e-001
3.401959e+003;1.255679e-001
3.403887e+003;1.249652e-001
3.405816e+003;1.241114e-001
3.407744e+003;1.231767e-001
3.409673e+003;1.222677e-001
3.411601e+003;1.206918e-001
3.413530e+003;1.199879e-001
3.415458e+003;1.198875e-001
3.417387e+003;1.191132e-001
3.419316e+003;1.187530e-001
3.421244e+003;1.183323e-001
3.423173e+003;1.168534e-001
3.425101e+003;1.154539e-001
3.427030e+003;1.149812e-001
3.428958e+003;1.143826e-001
3.430887e+003;1.130237e-001
3.432815e+003;1.122006e-001
3.434744e+003;1.114756e-001
3.436673e+003;1.105210e-001
3.438601e+003;1.097366e-001
3.440530e+003;1.089195e-001
3.442458e+003;1.081113e-001
3.444387e+003;1.065648e-001
3.446315e+003;1.051922e-001
3.448244e+003;1.052509e-001
3.450172e+003;1.046678e-001
3.452101e+003;1.032005e-001
3.454030e+003;1.022565e-001
3.455958e+003;1.013854e-001
3.457886e+003;1.000417e-001
3.459815e+003;9.914893e-002
3.461744e+003;9.810996e-002
3.463672e+003;9.719402e-002
3.465601e+003;9.666269e-002
3.467529e+003;9.602252e-002
3.469458e+003;9.502831e-002
3.471386e+003;9.384428e-002
3.473315e+003;9.257251e-002
3.475243e+003;9.189811e-002
3.477172e+003;9.097981e-002
3.479101e+003;8.942008e-002
3.481029e+003;8.808500e-002
3.482958e+003;8.721396e-002
3.484886e+003;8.637243e-002
3.486815e+003;8.564628e-002
3.488743e+003;8.485717e-002
3.490672e+003;8.383468e-002
3.492600e+003;8.271713e-002
3.494529e+003;8.132389e-002
3.496458e+003;8.062612e-002
3.498386e+003;7.999642e-002
3.500315e+003;7.900986e-002
3.502243e+003;7.787523e-002
3.504172e+003;7.675059e-002
3.506100e+003;7.608432e-002
3.508029e+003;7.480938e-002
3.509957e+003;7.342332e-002
3.511886e+003;7.304770e-002
3.513814e+003;7.256084e-002
3.515743e+003;7.119745e-002
3.517672e+003;6.972453e-002
3.519600e+003;6.845041e-002
3.521529e+003;6.730776e-002
3.523457e+003;6.647717e-002
3.525386e+003;6.601369e-002
3.527314e+003;6.502996e-002
3.529243e+003;6.411214e-002
3.531171e+003;6.400543e-002
3.533100e+003;6.402290e-002
3.535029e+003;6.304809e-002
3.536957e+003;6.148160e-002
3.538885e+003;6.028583e-002
3.540814e+003;5.938558e-002
3.542743e+003;5.830507e-002
3.544671e+003;5.749692e-002
3.546600e+003;5.707743e-002
3.548528e+003;5.648867e-002
3.550457e+003;5.512013e-002
3.552385e+003;5.354615e-002
3.554314e+003;5.269308e-002
3.556242e+003;5.217708e-002
3.558171e+003;5.188268e-002
3.560100e+003;5.138479e-002
3.562028e+003;5.006415e-002
3.563957e+003;4.884482e-002
3.565885e+003;4.755434e-002
3.567814e+003;4.657996e-002
3.569742e+003;4.622689e-002
3.571671e+003;4.573179e-002
3.573599e+003;4.445565e-002
3.575528e+003;4.364511e-002
3.577457e+003;4.268592e-002
3.579385e+003;4.174624e-002
3.581314e+003;4.140228e-002
3.583242e+003;4.073383e-002
3.585171e+003;3.939252e-002
3.587099e+003;3.785285e-002
3.589028e+003;3.717062e-002
3.590956e+003;3.678804e-002
3.592885e+003;3.637931e-002
3.594813e+003;3.589536e-002
3.596742e+003;3.540557e-002
3.598671e+003;3.524322e-002
3.600599e+003;3.474875e-002
3.602528e+003;3.335825e-002
3.604456e+003;3.155322e-002
3.606385e+003;3.017936e-002
3.608313e+003;2.895984e-002
3.610242e+003;2.826541e-002
3.612170e+003;2.724990e-002
3.614099e+003;2.706211e-002
3.616028e+003;2.630444e-002
3.617956e+003;2.422598e-002
3.619885e+003;2.387360e-002
3.621813e+003;2.472414e-002
3.623742e+003;2.462237e-002
3.625670e+003;2.296819e-002
3.627599e+003;1.943538e-002
3.629527e+003;1.864672e-002
3.631456e+003;2.017955e-002
3.633385e+003;2.029247e-002
3.635313e+003;2.017288e-002
3.637241e+003;1.951369e-002
3.639170e+003;1.814494e-002
3.641099e+003;1.720994e-002
3.643027e+003;1.652660e-002
3.644956e+003;1.522897e-002
3.646884e+003;1.272083e-002
3.648813e+003;1.036154e-002
3.650741e+003;1.104256e-002
3.652670e+003;1.283575e-002
3.654598e+003;1.139603e-002
3.656527e+003;1.096786e-002
3.658456e+003;1.186140e-002
3.660384e+003;1.122721e-002
3.662313e+003;1.069259e-002
3.664241e+003;1.008005e-002
3.666170e+003;8.625422e-003
3.668098e+003;6.609958e-003
3.670027e+003;5.355571e-003
3.671955e+003;5.638819e-003
3.673884e+003;3.681677e-003
3.675813e+003;2.741897e-003
3.677741e+003;4.872689e-003
3.679669e+003;5.914256e-003
3.681598e+003;6.421569e-003
3.683527e+003;6.180257e-003
3.685455e+003;4.836536e-003
3.687384e+003;1.734314e-003
3.689312e+003;1.161542e-003
3.691241e+003;2.818828e-003
3.693169e+003;4.237308e-003
3.695098e+003;4.500877e-003
3.697026e+003;4.463014e-003
3.698955e+003;4.303596e-003
3.700884e+003;3.108602e-003
3.702812e+003;2.665746e-003
3.704741e+003;2.640777e-003
3.706669e+003;2.370105e-003
3.708598e+003;1.540480e-003
3.710526e+003;2.479134e-004
3.712455e+003;3.730838e-004
3.714383e+003;2.063446e-003
3.716312e+003;2.387296e-003
3.718240e+003;1.863741e-003
3.720169e+003;1.953397e-003
3.722098e+003;1.732485e-003
3.724026e+003;1.397953e-003
3.725955e+003;1.782054e-003
3.727883e+003;2.331994e-003
3.729812e+003;1.217060e-003
3.731740e+003;-1.137954e-003
3.733669e+003;-2.438994e-003
3.735597e+003;-2.471381e-003
3.737526e+003;-1.187589e-003
3.739455e+003;-5.005656e-004
3.741383e+003;-1.773188e-003
3.743312e+003;-5.060192e-003
3.745240e+003;-3.544851e-003
3.747169e+003;-1.893552e-003
3.749097e+003;-4.420535e-003
3.751026e+003;-5.081184e-003
3.752954e+003;-2.716661e-003
3.754883e+003;-1.456659e-004
3.756812e+003;-4.103037e-004
3.758740e+003;-2.802898e-004
3.760668e+003;3.639311e-004
3.762597e+003;6.678660e-004
3.764526e+003;-1.458647e-004
3.766454e+003;-4.438686e-004
3.768383e+003;-7.185795e-004
3.770311e+003;-1.785888e-005
3.772240e+003;7.690257e-004
3.774168e+003;5.438712e-004
3.776097e+003;3.351475e-004
3.778025e+003;-2.776739e-004
3.779954e+003;-6.163857e-004
3.781883e+003;-7.414765e-005
3.783811e+003;-3.635933e-004
3.785740e+003;-1.061816e-004
3.787668e+003;8.284300e-005
3.789597e+003;2.816312e-004
3.791525e+003;1.941426e-004
3.793454e+003;-2.623092e-004
3.795382e+003;-7.951513e-004
3.797311e+003;-4.390691e-004
3.799240e+003;-2.201436e-003
3.801168e+003;-4.277346e-003
3.803097e+003;-2.037826e-003
3.805025e+003;-1.710683e-003
3.806954e+003;-2.872248e-003
3.808882e+003;-1.521597e-003
3.810811e+003;-3.172088e-004
3.812739e+003;-7.205973e-004
3.814668e+003;-3.618495e-003
3.816596e+003;-3.615505e-003
3.818525e+003;-2.571756e-003
3.820454e+003;-3.656643e-003
3.822382e+003;-1.876232e-003
3.824311e+003;-2.108801e-004
3.826239e+003;-5.741976e-004
3.828168e+003;-5.802200e-004
3.830096e+003;-9.396250e-004
3.832025e+003;-7.275770e-004
3.833953e+003;-1.031364e-003
3.835882e+003;-3.399861e-003
3.837811e+003;-4.574890e-003
3.839739e+003;-2.888936e-003
3.841667e+003;-1.443237e-003
3.843596e+003;-4.854074e-004
3.845525e+003;3.187670e-004
3.847453e+003;2.426089e-004
3.849382e+003;-1.094594e-003
3.851310e+003;-5.113375e-003
3.853239e+003;-7.999543e-003
3.855167e+003;-4.297162e-003
3.857096e+003;-1.521911e-004
3.859024e+003;5.991452e-004
3.860953e+003;-5.375652e-004
3.862882e+003;-1.914533e-003
3.864810e+003;-1.508389e-003
3.866739e+003;-6.336567e-004
3.868667e+003;-2.651822e-003
3.870596e+003;-2.046796e-003
3.872524e+003;2.456258e-004
3.874453e+003;8.197140e-004
3.876381e+003;7.845270e-004
3.878310e+003;1.370309e-004
3.880239e+003;1.395830e-004
3.882167e+003;8.462389e-004
3.884096e+003;-4.717381e-004
3.886024e+003;-8.235935e-004
3.887953e+003;2.995688e-004
3.889881e+003;-4.186455e-004
3.891810e+003;1.629175e-004
3.893738e+003;1.446952e-003
3.895667e+003;1.630834e-003
3.897595e+003;9.129070e-004
3.899524e+003;-1.979308e-004
3.901453e+003;-1.466750e-003
3.903381e+003;-2.114858e-003
3.905310e+003;-5.093359e-004
3.907238e+003;1.127556e-003
3.909167e+003;1.369832e-003
3.911095e+003;1.593386e-003
3.913024e+003;1.424546e-003
3.914952e+003;7.854564e-004
3.916881e+003;4.359313e-004
3.918810e+003;5.212792e-004
3.920738e+003;1.476874e-003
3.922667e+003;1.819086e-003
3.924595e+003;6.149058e-004
3.926524e+003;8.236312e-004
3.928452e+003;1.792635e-003
3.930381e+003;1.718613e-003
3.932309e+003;1.041059e-003
3.934238e+003;9.024811e-004
3.936167e+003;9.285462e-004
3.938095e+003;1.260025e-003
3.940023e+003;1.803581e-003
3.941952e+003;1.393665e-003
3.943881e+003;8.915575e-004
3.945809e+003;9.467761e-004
3.947738e+003;1.687710e-003
3.949666e+003;2.126239e-003
3.951595e+003;2.236964e-003
3.953523e+003;1.966378e-003
3.955452e+003;1.814627e-003
3.957380e+003;2.256382e-003
3.959309e+003;2.796551e-003
3.961238e+003;2.462265e-003
3.963166e+003;2.338724e-003
3.965095e+003;2.000762e-003
3.967023e+003;1.307879e-003
3.968952e+003;1.232711e-003
3.970880e+003;1.499848e-003
3.972809e+003;1.936456e-003
3.974737e+003;2.473528e-003
3.976666e+003;2.832736e-003
3.978594e+003;2.292254e-003
3.980523e+003;1.631765e-003
3.982452e+003;1.659803e-003
3.984380e+003;1.795496e-003
3.986309e+003;1.794198e-003
3.988237e+003;1.976563e-003
3.990166e+003;2.233534e-003
3.992094e+003;2.331694e-003
3.994023e+003;1.912460e-003
3.995951e+003;1.213073e-003
3.997880e+003;1.776997e-003
3.999809e+003;2.586043e-003
4.001737e+003;0.000000e+000
