3.992094e+002;0.000000e+000
4.011380e+002;0.000000e+000
4.030665e+002;0.000000e+000
4.049951e+002;0.000000e+000
4.069236e+002;0.000000e+000
4.088522e+002;0.000000e+000
4.107807e+002;0.000000e+000
4.127093e+002;0.000000e+000
4.146378e+002;0.000000e+000
4.165664e+002;0.000000e+000
4.184949e+002;0.000000e+000
4.204235e+002;0.000000e+000
4.223520e+002;0.000000e+000
4.242806e+002;0.000000e+000
4.262091e+002;0.000000e+000
4.281377e+002;0.000000e+000
4.300662e+002;0.000000e+000
4.319948e+002;0.000000e+000
4.339233e+002;0.000000e+000
4.358519e+002;0.000000e+000
4.377804e+002;0.000000e+000
4.397090e+002;0.000000e+000
4.416375e+002;0.000000e+000
4.435660e+002;0.000000e+000
4.454946e+002;0.000000e+000
4.474232e+002;0.000000e+000
4.493517e+002;0.000000e+000
4.512802e+002;0.000000e+000
4.532088e+002;0.000000e+000
4.551373e+002;0.000000e+000
4.570659e+002;0.000000e+000
4.589944e+002;0.000000e+000
4.609230e+002;0.000000e+000
4.628515e+002;0.000000e+000
4.647801e+002;0.000000e+000
4.667086e+002;0.000000e+000
4.686372e+002;0.000000e+000
4.705657e+002;0.000000e+000
4.724943e+002;0.000000e+000
4.744228e+002;0.000000e+000
4.763513e+002;0.000000e+000
4.782799e+002;0.000000e+000
4.802085e+002;0.000000e+000
4.821370e+002;0.000000e+000
4.840656e+002;0.000000e+000
4.859941e+002;0.000000e+000
4.879226e+002;0.000000e+000
4.898512e+002;0.000000e+000
4.917798e+002;0.000000e+000
4.937083e+002;0.000000e+000
4.956368e+002;0.000000e+000
4.975654e+002;0.000000e+000
4.994939e+002;0.000000e+000
5.014225e+002;0.000000e+000
5.033510e+002;0.000000e+000
5.052796e+002;0.000000e+000
5.072081e+002;0.000000e+000
5.091367e+002;0.000000e+000
5.110652e+002;0.000000e+000
5.129938e+002;0.000000e+000
5.149223e+002;0.000000e+000
5.168509e+002;0.000000e+000
5.187794e+002;0.000000e+000
5.207079e+002;0.000000e+000
5.226365e+002;0.000000e+000
5.245651e+002;0.000000e+000
5.264936e+002;0.000000e+000
5.284222e+002;0.000000e+000
5.303507e+002;0.000000e+000
5.322792e+002;0.000000e+000
5.342078e+002;0.000000e+000
5.361364e+002;0.000000e+000
5.380649e+002;0.000000e+000
5.399935e+002;0.000000e+000
5.419220e+002;0.000000e+000
5.438505e+002;0.000000e+000
5.457791e+002;0.000000e+000
5.477076e+002;0.000000e+000
5.496362e+002;0.000000e+000
5.515648e+002;0.000000e+000
5.534933e+002;0.000000e+000
5.554218e+002;0.000000e+000
5.573504e+002;0.000000e+000
5.592789e+002;0.000000e+000
5.612075e+002;0.000000e+000
5.631360e+002;0.000000e+000
5.650646e+002;0.000000e+000
5.669931e+002;0.000000e+000
5.689217e+002;0.000000e+000
5.708502e+002;0.000000e+000
5.727787e+002;0.000000e+000
5.747073e+002;0.000000e+000
5.766359e+002;0.000000e+000
5.785644e+002;0.000000e+000
5.804930e+002;0.000000e+000
5.824215e+002;0.000000e+000
5.843500e+002;0.000000e+000
5.862786e+002;0.000000e+000
5.882072e+002;0.000000e+000
5.901357e+002;0.000000e+000
5.920643e+002;0.000000e+000
5.939928e+002;0.000000e+000
5.959213e+002;0.000000e+000
5.978499e+002;0.000000e+000
5.997784e+002;2.293069e-001
6.017070e+002;2.266545e-001
6.036355e+002;2.285710e-001
6.055641e+002;2.323811e-001
6.074926e+002;2.309270e-001
6.094211e+002;2.284222e-001
6.113497e+002;2.262110e-001
6.132783e+002;2.258396e-001
6.152068e+002;2.271404e-001
6.171354e+002;2.302237e-001
6.190639e+002;2.343532e-001
6.209924e+002;2.300616e-001
6.229210e+002;2.263907e-001
6.248495e+002;2.260141e-001
6.267781e+002;2.246611e-001
6.287067e+002;2.215050e-001
6.306352e+002;2.179511e-001
6.325637e+002;2.159812e-001
6.344923e+002;2.159463e-001
6.364208e+002;2.208190e-001
6.383494e+002;2.241695e-001
6.402780e+002;2.210673e-001
6.422065e+002;2.158531e-001
6.441350e+002;2.117515e-001
6.460636e+002;2.134034e-001
6.479921e+002;2.139422e-001
6.499207e+002;2.155937e-001
6.518492e+002;2.155610e-001
6.537778e+002;2.167892e-001
6.557063e+002;2.204403e-001
6.576349e+002;2.171943e-001
6.595634e+002;2.144168e-001
6.614919e+002;2.160413e-001
6.634205e+002;2.147625e-001
6.653491e+002;2.110556e-001
6.672776e+002;2.087862e-001
6.692062e+002;2.089466e-001
6.711347e+002;2.089559e-001
6.730632e+002;2.072741e-001
6.749918e+002;2.068726e-001
6.769203e+002;2.038725e-001
6.788489e+002;1.994566e-001
6.807775e+002;1.949708e-001
6.827060e+002;1.913383e-001
6.846345e+002;1.887938e-001
6.865631e+002;1.871336e-001
6.884916e+002;1.859641e-001
6.904202e+002;1.852711e-001
6.923488e+002;1.843736e-001
6.942773e+002;1.834794e-001
6.962058e+002;1.836618e-001
6.981344e+002;1.838407e-001
7.000629e+002;1.817705e-001
7.019915e+002;1.798984e-001
7.039200e+002;1.795708e-001
7.058486e+002;1.798600e-001
7.077771e+002;1.785717e-001
7.097057e+002;1.771053e-001
7.116342e+002;1.768004e-001
7.135627e+002;1.771190e-001
7.154913e+002;1.763082e-001
7.174199e+002;1.729556e-001
7.193484e+002;1.696560e-001
7.212770e+002;1.683334e-001
7.232055e+002;1.679764e-001
7.251340e+002;1.672548e-001
7.270626e+002;1.655011e-001
7.289911e+002;1.641786e-001
7.309197e+002;1.631995e-001
7.328483e+002;1.626598e-001
7.347768e+002;1.616037e-001
7.367053e+002;1.586040e-001
7.386339e+002;1.571187e-001
7.405624e+002;1.558982e-001
7.424910e+002;1.543227e-001
7.444196e+002;1.537290e-001
7.463481e+002;1.528340e-001
7.482766e+002;1.504256e-001
7.502052e+002;1.477722e-001
7.521337e+002;1.468799e-001
7.540623e+002;1.483853e-001
7.559908e+002;1.486885e-001
7.579194e+002;1.459368e-001
7.598479e+002;1.432306e-001
7.617765e+002;1.423843e-001
7.637050e+002;1.419982e-001
7.656335e+002;1.409955e-001
7.675621e+002;1.387948e-001
7.694907e+002;1.368393e-001
7.714192e+002;1.367860e-001
7.733478e+002;1.365726e-001
7.752763e+002;1.354954e-001
7.772048e+002;1.343168e-001
7.791334e+002;1.332448e-001
7.810620e+002;1.327946e-001
7.829905e+002;1.325445e-001
7.849191e+002;1.325321e-001
7.868476e+002;1.314705e-001
7.887761e+002;1.306836e-001
7.907047e+002;1.308677e-001
7.926332e+002;1.299584e-001
7.945618e+002;1.287353e-001
7.964903e+002;1.277455e-001
7.984189e+002;1.272778e-001
8.003474e+002;1.271253e-001
8.022759e+002;1.271399e-001
8.042045e+002;1.271411e-001
8.061331e+002;1.272622e-001
8.080616e+002;1.270840e-001
8.099902e+002;1.259298e-001
8.119187e+002;1.254684e-001
8.138472e+002;1.263683e-001
8.157758e+002;1.266626e-001
8.177043e+002;1.269663e-001
8.196329e+002;1.268486e-001
8.215615e+002;1.262523e-001
8.234900e+002;1.260991e-001
8.254185e+002;1.268582e-001
8.273471e+002;1.278124e-001
8.292756e+002;1.275689e-001
8.312042e+002;1.274830e-001
8.331328e+002;1.273639e-001
8.350613e+002;1.275245e-001
8.369898e+002;1.270802e-001
8.389184e+002;1.259018e-001
8.408469e+002;1.258678e-001
8.427755e+002;1.259398e-001
8.447040e+002;1.252602e-001
8.466326e+002;1.245056e-001
8.485611e+002;1.239820e-001
8.504897e+002;1.230147e-001
8.524182e+002;1.221758e-001
8.543467e+002;1.212021e-001
8.562753e+002;1.208026e-001
8.582039e+002;1.207806e-001
8.601324e+002;1.206192e-001
8.620610e+002;1.206886e-001
8.639895e+002;1.212088e-001
8.659180e+002;1.217974e-001
8.678466e+002;1.226330e-001
8.697751e+002;1.240311e-001
8.717037e+002;1.258869e-001
8.736323e+002;1.283676e-001
8.755608e+002;1.304103e-001
8.774893e+002;1.312454e-001
8.794179e+002;1.320142e-001
8.813464e+002;1.338266e-001
8.832750e+002;1.365718e-001
8.852036e+002;1.392962e-001
8.871321e+002;1.417281e-001
8.890606e+002;1.442436e-001
8.909892e+002;1.465096e-001
8.929177e+002;1.488629e-001
8.948463e+002;1.507595e-001
8.967748e+002;1.521082e-001
8.987034e+002;1.527217e-001
9.006319e+002;1.520880e-001
9.025605e+002;1.515552e-001
9.044890e+002;1.504982e-001
9.064175e+002;1.484953e-001
9.083461e+002;1.459679e-001
9.102747e+002;1.435666e-001
9.122032e+002;1.417672e-001
9.141318e+002;1.403448e-001
9.160603e+002;1.395319e-001
9.179888e+002;1.390438e-001
9.199174e+002;1.388775e-001
9.218459e+002;1.389548e-001
9.237745e+002;1.390854e-001
9.257031e+002;1.398163e-001
9.276316e+002;1.406845e-001
9.295601e+002;1.409597e-001
9.314887e+002;1.414686e-001
9.334172e+002;1.425063e-001
9.353458e+002;1.432660e-001
9.372744e+002;1.442971e-001
9.392029e+002;1.457907e-001
9.411314e+002;1.475751e-001
9.430600e+002;1.498656e-001
9.449885e+002;1.522382e-001
9.469171e+002;1.552134e-001
9.488456e+002;1.585084e-001
9.507742e+002;1.621137e-001
9.527027e+002;1.664509e-001
9.546313e+002;1.712457e-001
9.565598e+002;1.765745e-001
9.584883e+002;1.818716e-001
9.604169e+002;1.868120e-001
9.623455e+002;1.920797e-001
9.642740e+002;1.979482e-001
9.662026e+002;2.037299e-001
9.681311e+002;2.091345e-001
9.700596e+002;2.150066e-001
9.719882e+002;2.216204e-001
9.739167e+002;2.286367e-001
9.758453e+002;2.360996e-001
9.777739e+002;2.440648e-001
9.797024e+002;2.525267e-001
9.816309e+002;2.613129e-001
9.835595e+002;2.703513e-001
9.854880e+002;2.787896e-001
9.874166e+002;2.865960e-001
9.893452e+002;2.923969e-001
9.912737e+002;2.963716e-001
9.932022e+002;3.006472e-001
9.951307e+002;3.045348e-001
9.970593e+002;3.073270e-001
9.989879e+002;3.104123e-001
1.000916e+003;3.139224e-001
1.002845e+003;3.171119e-001
1.004773e+003;3.204467e-001
1.006702e+003;3.240614e-001
1.008631e+003;3.276525e-001
1.010559e+003;3.318803e-001
1.012488e+003;3.367867e-001
1.014416e+003;3.422782e-001
1.016345e+003;3.471965e-001
1.018273e+003;3.511917e-001
1.020202e+003;3.551398e-001
1.022130e+003;3.589674e-001
1.024059e+003;3.612164e-001
1.025988e+003;3.619252e-001
1.027916e+003;3.630535e-001
1.029845e+003;3.644071e-001
1.031773e+003;3.640364e-001
1.033702e+003;3.632381e-001
1.035630e+003;3.620555e-001
1.037559e+003;3.599706e-001
1.039487e+003;3.585166e-001
1.041416e+003;3.568972e-001
1.043344e+003;3.545274e-001
1.045273e+003;3.525586e-001
1.047202e+003;3.511955e-001
1.049130e+003;3.489546e-001
1.051059e+003;3.451842e-001
1.052987e+003;3.423377e-001
1.054916e+003;3.395618e-001
1.056844e+003;3.356400e-001
1.058773e+003;3.321583e-001
1.060701e+003;3.281479e-001
1.062630e+003;3.226915e-001
1.064558e+003;3.166719e-001
1.066487e+003;3.107616e-001
1.068416e+003;3.056047e-001
1.070344e+003;3.009907e-001
1.072273e+003;2.961748e-001
1.074201e+003;2.914513e-001
1.076130e+003;2.871244e-001
1.078058e+003;2.837117e-001
1.079987e+003;2.797214e-001
1.081915e+003;2.758729e-001
1.083844e+003;2.733183e-001
1.085773e+003;2.710564e-001
1.087701e+003;2.684404e-001
1.089630e+003;2.655791e-001
1.091558e+003;2.630933e-001
1.093487e+003;2.604937e-001
1.095415e+003;2.587364e-001
1.097344e+003;2.572962e-001
1.099272e+003;2.546788e-001
1.101201e+003;2.517954e-001
1.103129e+003;2.493210e-001
1.105058e+003;2.469032e-001
1.106987e+003;2.442312e-001
1.108915e+003;2.420172e-001
1.110844e+003;2.390758e-001
1.112772e+003;2.359960e-001
1.114701e+003;2.330759e-001
1.116629e+003;2.294253e-001
1.118558e+003;2.251650e-001
1.120486e+003;2.208309e-001
1.122415e+003;2.162395e-001
1.124344e+003;2.117753e-001
1.126272e+003;2.073445e-001
1.128201e+003;2.024917e-001
1.130129e+003;1.973325e-001
1.132058e+003;1.921061e-001
1.133986e+003;1.876392e-001
1.135915e+003;1.830713e-001
1.137843e+003;1.787795e-001
1.139772e+003;1.753337e-001
1.141700e+003;1.725880e-001
1.143629e+003;1.710825e-001
1.145557e+003;1.704935e-001
1.147486e+003;1.701514e-001
1.149415e+003;1.694998e-001
1.151343e+003;1.681874e-001
1.153272e+003;1.671007e-001
1.155200e+003;1.662748e-001
1.157129e+003;1.646712e-001
1.159057e+003;1.632574e-001
1.160986e+003;1.613214e-001
1.162914e+003;1.584132e-001
1.164843e+003;1.553980e-001
1.166771e+003;1.517262e-001
1.168700e+003;1.475946e-001
1.170629e+003;1.437595e-001
1.172557e+003;1.398316e-001
1.174486e+003;1.361351e-001
1.176414e+003;1.327871e-001
1.178343e+003;1.297605e-001
1.180271e+003;1.275510e-001
1.182200e+003;1.261058e-001
1.184128e+003;1.252782e-001
1.186057e+003;1.249964e-001
1.187986e+003;1.248274e-001
1.189914e+003;1.253887e-001
1.191843e+003;1.267951e-001
1.193771e+003;1.276113e-001
1.195700e+003;1.282844e-001
1.197628e+003;1.292875e-001
1.199557e+003;1.298548e-001
1.201485e+003;1.302013e-001
1.203414e+003;1.308433e-001
1.205343e+003;1.311148e-001
1.207271e+003;1.309152e-001
1.209200e+003;1.302557e-001
1.211128e+003;1.298613e-001
1.213057e+003;1.300112e-001
1.214985e+003;1.303875e-001
1.216914e+003;1.313991e-001
1.218842e+003;1.325961e-001
1.220771e+003;1.340180e-001
1.222699e+003;1.355844e-001
1.224628e+003;1.368812e-001
1.226557e+003;1.379388e-001
1.228485e+003;1.388827e-001
1.230414e+003;1.394018e-001
1.232342e+003;1.399136e-001
1.234271e+003;1.403411e-001
1.236199e+003;1.398704e-001
1.238128e+003;1.390305e-001
1.240056e+003;1.383555e-001
1.241985e+003;1.377853e-001
1.243913e+003;1.376148e-001
1.245842e+003;1.375356e-001
1.247771e+003;1.369033e-001
1.249699e+003;1.361630e-001
1.251628e+003;1.360738e-001
1.253556e+003;1.362195e-001
1.255485e+003;1.362303e-001
1.257413e+003;1.361854e-001
1.259342e+003;1.363112e-001
1.261270e+003;1.362420e-001
1.263199e+003;1.358385e-001
1.265127e+003;1.354306e-001
1.267056e+003;1.350158e-001
1.268985e+003;1.346159e-001
1.270913e+003;1.338282e-001
1.272842e+003;1.329475e-001
1.274770e+003;1.323907e-001
1.276699e+003;1.317125e-001
1.278627e+003;1.310903e-001
1.280556e+003;1.302171e-001
1.282484e+003;1.291222e-001
1.284413e+003;1.283686e-001
1.286342e+003;1.281247e-001
1.288270e+003;1.281867e-001
1.290199e+003;1.284202e-001
1.292127e+003;1.289100e-001
1.294056e+003;1.297309e-001
1.295984e+003;1.309467e-001
1.297913e+003;1.320216e-001
1.299841e+003;1.334255e-001
1.301770e+003;1.347790e-001
1.303698e+003;1.361459e-001
1.305627e+003;1.382445e-001
1.307556e+003;1.404696e-001
1.309484e+003;1.424550e-001
1.311413e+003;1.444110e-001
1.313341e+003;1.462693e-001
1.315270e+003;1.477052e-001
1.317198e+003;1.491308e-001
1.319127e+003;1.506393e-001
1.321055e+003;1.514799e-001
1.322984e+003;1.520952e-001
1.324912e+003;1.523679e-001
1.326841e+003;1.523794e-001
1.328770e+003;1.522864e-001
1.330698e+003;1.524535e-001
1.332627e+003;1.524580e-001
1.334555e+003;1.519326e-001
1.336484e+003;1.512494e-001
1.338412e+003;1.505854e-001
1.340341e+003;1.497180e-001
1.342269e+003;1.486723e-001
1.344198e+003;1.478112e-001
1.346126e+003;1.469339e-001
1.348055e+003;1.461504e-001
1.349984e+003;1.459960e-001
1.351912e+003;1.457613e-001
1.353841e+003;1.453462e-001
1.355769e+003;1.455916e-001
1.357698e+003;1.460785e-001
1.359626e+003;1.465775e-001
1.361555e+003;1.470656e-001
1.363483e+003;1.473029e-001
1.365412e+003;1.473541e-001
1.367341e+003;1.472554e-001
1.369269e+003;1.471180e-001
1.371198e+003;1.468966e-001
1.373126e+003;1.464191e-001
1.375055e+003;1.456480e-001
1.376983e+003;1.448695e-001
1.378912e+003;1.441544e-001
1.380840e+003;1.431554e-001
1.382769e+003;1.419107e-001
1.384698e+003;1.408909e-001
1.386626e+003;1.398864e-001
1.388555e+003;1.391118e-001
1.390483e+003;1.387583e-001
1.392412e+003;1.385631e-001
1.394340e+003;1.387653e-001
1.396269e+003;1.391789e-001
1.398197e+003;1.398869e-001
1.400126e+003;1.407400e-001
1.402054e+003;1.416497e-001
1.403983e+003;1.429707e-001
1.405911e+003;1.444340e-001
1.407840e+003;1.457806e-001
1.409769e+003;1.470361e-001
1.411697e+003;1.482363e-001
1.413626e+003;1.494049e-001
1.415554e+003;1.508281e-001
1.417483e+003;1.519173e-001
1.419411e+003;1.524685e-001
1.421340e+003;1.526362e-001
1.423268e+003;1.518117e-001
1.425197e+003;1.501615e-001
1.427125e+003;1.482390e-001
1.429054e+003;1.460392e-001
1.430983e+003;1.433064e-001
1.432911e+003;1.404885e-001
1.434840e+003;1.385389e-001
1.436768e+003;1.370116e-001
1.438697e+003;1.360767e-001
1.440625e+003;1.358600e-001
1.442554e+003;1.360140e-001
1.444482e+003;1.366346e-001
1.446411e+003;1.372571e-001
1.448340e+003;1.373964e-001
1.450268e+003;1.378805e-001
1.452197e+003;1.385004e-001
1.454125e+003;1.388506e-001
1.456054e+003;1.389795e-001
1.457982e+003;1.387497e-001
1.459911e+003;1.381159e-001
1.461839e+003;1.371125e-001
1.463768e+003;1.353438e-001
1.465697e+003;1.328848e-001
1.467625e+003;1.298129e-001
1.469554e+003;1.264565e-001
1.471482e+003;1.226126e-001
1.473411e+003;1.183931e-001
1.475339e+003;1.145567e-001
1.477268e+003;1.103028e-001
1.479196e+003;1.063934e-001
1.481125e+003;1.034918e-001
1.483053e+003;1.009276e-001
1.484982e+003;9.864423e-002
1.486911e+003;9.725051e-002
1.488839e+003;9.661832e-002
1.490768e+003;9.618180e-002
1.492696e+003;9.591085e-002
1.494625e+003;9.658898e-002
1.496553e+003;9.787292e-002
1.498482e+003;9.932639e-002
1.500410e+003;1.008410e-001
1.502339e+003;1.017434e-001
1.504267e+003;1.018293e-001
1.506196e+003;1.015065e-001
1.508125e+003;1.010394e-001
1.510053e+003;1.000011e-001
1.511982e+003;9.798098e-002
1.513910e+003;9.534683e-002
1.515839e+003;9.222053e-002
1.517767e+003;8.900199e-002
1.519696e+003;8.601219e-002
1.521624e+003;8.320854e-002
1.523553e+003;8.078041e-002
1.525481e+003;7.884046e-002
1.527410e+003;7.781798e-002
1.529339e+003;7.713895e-002
1.531267e+003;7.663543e-002
1.533196e+003;7.655828e-002
1.535124e+003;7.690711e-002
1.537053e+003;7.713860e-002
1.538981e+003;7.731454e-002
1.540910e+003;7.827365e-002
1.542838e+003;7.959451e-002
1.544767e+003;8.085009e-002
1.546695e+003;8.206090e-002
1.548624e+003;8.321311e-002
1.550553e+003;8.447419e-002
1.552481e+003;8.542917e-002
1.554410e+003;8.633059e-002
1.556338e+003;8.742474e-002
1.558267e+003;8.806028e-002
1.560195e+003;8.919119e-002
1.562124e+003;9.088320e-002
1.564052e+003;9.259367e-002
1.565981e+003;9.424668e-002
1.567910e+003;9.553568e-002
1.569838e+003;9.675658e-002
1.571767e+003;9.847252e-002
1.573695e+003;1.003554e-001
1.575624e+003;1.021110e-001
1.577552e+003;1.045572e-001
1.579481e+003;1.073713e-001
1.581409e+003;1.098864e-001
1.583338e+003;1.126465e-001
1.585266e+003;1.156347e-001
1.587195e+003;1.182427e-001
1.589124e+003;1.205311e-001
1.591052e+003;1.229467e-001
1.592981e+003;1.249284e-001
1.594909e+003;1.260063e-001
1.596838e+003;1.263685e-001
1.598766e+003;1.261476e-001
1.600695e+003;1.255929e-001
1.602623e+003;1.247454e-001
1.604552e+003;1.236827e-001
1.606480e+003;1.224209e-001
1.608409e+003;1.210606e-001
1.610338e+003;1.197169e-001
1.612266e+003;1.184833e-001
1.614195e+003;1.168385e-001
1.616123e+003;1.149176e-001
1.618052e+003;1.137791e-001
1.619980e+003;1.126821e-001
1.621909e+003;1.108471e-001
1.623837e+003;1.090427e-001
1.625766e+003;1.077245e-001
1.627694e+003;1.063193e-001
1.629623e+003;1.052733e-001
1.631552e+003;1.045186e-001
1.633480e+003;1.032157e-001
1.635409e+003;1.019015e-001
1.637337e+003;1.011127e-001
1.639266e+003;1.001487e-001
1.641194e+003;9.927122e-002
1.643123e+003;9.855458e-002
1.645051e+003;9.740379e-002
1.646980e+003;9.623849e-002
1.648909e+003;9.564498e-002
1.650837e+003;9.491026e-002
1.652766e+003;9.334550e-002
1.654694e+003;9.218710e-002
1.656623e+003;9.157512e-002
1.658551e+003;9.032509e-002
1.660480e+003;8.887431e-002
1.662408e+003;8.740573e-002
1.664337e+003;8.598904e-002
1.666266e+003;8.461525e-002
1.668194e+003;8.295318e-002
1.670123e+003;8.131798e-002
1.672051e+003;7.992890e-002
1.673980e+003;7.820830e-002
1.675908e+003;7.658397e-002
1.677837e+003;7.503467e-002
1.679765e+003;7.303230e-002
1.681694e+003;7.112513e-002
1.683622e+003;6.941158e-002
1.685551e+003;6.807729e-002
1.687479e+003;6.685355e-002
1.689408e+003;6.545470e-002
1.691337e+003;6.401119e-002
1.693265e+003;6.285034e-002
1.695194e+003;6.174365e-002
1.697122e+003;6.087717e-002
1.699051e+003;5.979249e-002
1.700979e+003;5.862267e-002
1.702908e+003;5.792546e-002
1.704836e+003;5.712939e-002
1.706765e+003;5.675960e-002
1.708693e+003;5.654366e-002
1.710622e+003;5.571256e-002
1.712551e+003;5.463701e-002
1.714479e+003;5.421985e-002
1.716408e+003;5.383943e-002
1.718336e+003;5.343162e-002
1.720265e+003;5.335234e-002
1.722193e+003;5.331975e-002
1.724122e+003;5.303550e-002
1.726050e+003;5.300196e-002
1.727979e+003;5.271123e-002
1.729908e+003;5.209541e-002
1.731836e+003;5.167266e-002
1.733765e+003;5.138024e-002
1.735693e+003;5.125551e-002
1.737622e+003;5.106935e-002
1.739550e+003;5.081551e-002
1.741479e+003;5.052564e-002
1.743407e+003;4.978102e-002
1.745336e+003;4.885606e-002
1.747265e+003;4.813895e-002
1.749193e+003;4.751361e-002
1.751122e+003;4.679981e-002
1.753050e+003;4.593288e-002
1.754979e+003;4.530309e-002
1.756907e+003;4.514616e-002
1.758836e+003;4.493202e-002
1.760764e+003;4.443011e-002
1.762693e+003;4.383889e-002
1.764621e+003;4.302141e-002
1.766550e+003;4.238476e-002
1.768479e+003;4.187009e-002
1.770407e+003;4.133468e-002
1.772336e+003;4.086759e-002
1.774264e+003;4.072291e-002
1.776193e+003;4.081659e-002
1.778121e+003;4.057246e-002
1.780050e+003;4.003239e-002
1.781978e+003;3.963722e-002
1.783907e+003;3.950508e-002
1.785835e+003;3.924478e-002
1.787764e+003;3.917145e-002
1.789693e+003;3.900098e-002
1.791621e+003;3.857141e-002
1.793550e+003;3.817276e-002
1.795478e+003;3.790747e-002
1.797407e+003;3.786546e-002
1.799335e+003;3.790361e-002
1.801264e+003;3.780903e-002
1.803192e+003;3.772200e-002
1.805121e+003;3.775033e-002
1.807049e+003;3.780046e-002
1.808978e+003;3.772890e-002
1.810907e+003;3.728881e-002
1.812835e+003;3.697842e-002
1.814764e+003;3.692413e-002
1.816692e+003;3.675523e-002
1.818621e+003;3.663924e-002
1.820549e+003;3.673673e-002
1.822478e+003;3.664140e-002
1.824406e+003;3.640821e-002
1.826335e+003;3.641059e-002
1.828264e+003;3.635918e-002
1.830192e+003;3.631980e-002
1.832121e+003;3.618365e-002
1.834049e+003;3.605953e-002
1.835978e+003;3.598199e-002
1.837906e+003;3.583418e-002
1.839835e+003;3.567408e-002
1.841763e+003;3.529321e-002
1.843692e+003;3.499570e-002
1.845620e+003;3.502996e-002
1.847549e+003;3.504124e-002
1.849478e+003;3.524286e-002
1.851406e+003;3.534345e-002
1.853335e+003;3.507716e-002
1.855263e+003;3.506182e-002
1.857192e+003;3.510525e-002
1.859120e+003;3.494377e-002
1.861049e+003;3.517402e-002
1.862977e+003;3.546517e-002
1.864906e+003;3.536416e-002
1.866834e+003;3.531057e-002
1.868763e+003;3.542570e-002
1.870692e+003;3.539453e-002
1.872620e+003;3.525188e-002
1.874549e+003;3.503880e-002
1.876477e+003;3.495390e-002
1.878406e+003;3.510845e-002
1.880334e+003;3.532509e-002
1.882263e+003;3.525084e-002
1.884191e+003;3.499293e-002
1.886120e+003;3.524620e-002
1.888048e+003;3.556826e-002
1.889977e+003;3.535668e-002
1.891906e+003;3.496391e-002
1.893834e+003;3.480643e-002
1.895763e+003;3.499365e-002
1.897691e+003;3.495591e-002
1.899620e+003;3.478009e-002
1.901548e+003;3.508305e-002
1.903477e+003;3.538360e-002
1.905405e+003;3.529436e-002
1.907334e+003;3.531635e-002
1.909262e+003;3.550091e-002
1.911191e+003;3.540575e-002
1.913120e+003;3.538130e-002
1.915048e+003;3.544785e-002
1.916977e+003;3.539618e-002
1.918905e+003;3.550487e-002
1.920834e+003;3.580831e-002
1.922762e+003;3.575265e-002
1.924691e+003;3.576186e-002
1.926619e+003;3.592573e-002
1.928548e+003;3.592418e-002
1.930477e+003;3.600337e-002
1.932405e+003;3.604535e-002
1.934334e+003;3.610500e-002
1.936262e+003;3.593412e-002
1.938191e+003;3.565767e-002
1.940119e+003;3.565174e-002
1.942048e+003;3.568196e-002
1.943976e+003;3.591871e-002
1.945905e+003;3.627027e-002
1.947833e+003;3.636184e-002
1.949762e+003;3.642846e-002
1.951691e+003;3.645610e-002
1.953619e+003;3.653773e-002
1.955548e+003;3.649729e-002
1.957476e+003;3.650868e-002
1.959405e+003;3.679579e-002
1.961333e+003;3.678253e-002
1.963262e+003;3.677376e-002
1.965190e+003;3.689542e-002
1.967119e+003;3.664143e-002
1.969047e+003;3.626134e-002
1.970976e+003;3.628317e-002
1.972905e+003;3.639621e-002
1.974833e+003;3.647711e-002
1.976762e+003;3.680874e-002
1.978690e+003;3.683979e-002
1.980619e+003;3.673705e-002
1.982547e+003;3.693744e-002
1.984476e+003;3.708512e-002
1.986404e+003;3.708401e-002
1.988333e+003;3.693329e-002
1.990261e+003;3.712735e-002
1.992190e+003;3.738197e-002
1.994119e+003;3.747974e-002
1.996047e+003;3.739891e-002
1.997976e+003;3.724683e-002
1.999904e+003;3.731394e-002
2.001833e+003;3.732640e-002
2.003761e+003;3.720766e-002
2.005690e+003;3.718622e-002
2.007618e+003;3.753353e-002
2.009547e+003;3.781543e-002
2.011476e+003;3.801773e-002
2.013404e+003;3.810345e-002
2.015333e+003;3.812425e-002
2.017261e+003;3.824939e-002
2.019190e+003;3.845302e-002
2.021118e+003;3.826311e-002
2.023047e+003;3.804659e-002
2.024975e+003;3.842568e-002
2.026904e+003;3.883525e-002
2.028833e+003;3.888443e-002
2.030761e+003;3.862725e-002
2.032690e+003;3.861114e-002
2.034618e+003;3.879482e-002
2.036547e+003;3.899159e-002
2.038475e+003;3.913889e-002
2.040404e+003;3.918552e-002
2.042332e+003;3.928685e-002
2.044261e+003;3.930629e-002
2.046189e+003;3.917304e-002
2.048118e+003;3.930324e-002
2.050047e+003;3.951963e-002
2.051975e+003;3.947815e-002
2.053904e+003;3.938334e-002
2.055832e+003;3.962583e-002
2.057761e+003;3.968522e-002
2.059689e+003;3.934097e-002
2.061618e+003;3.917167e-002
2.063546e+003;3.922693e-002
2.065475e+003;3.913222e-002
2.067404e+003;3.918682e-002
2.069332e+003;3.967287e-002
2.071260e+003;3.976985e-002
2.073189e+003;3.941215e-002
2.075118e+003;3.933799e-002
2.077046e+003;3.957218e-002
2.078975e+003;3.966547e-002
2.080903e+003;3.967262e-002
2.082832e+003;3.952507e-002
2.084760e+003;3.929769e-002
2.086689e+003;3.941461e-002
2.088617e+003;3.953389e-002
2.090546e+003;3.935283e-002
2.092475e+003;3.889555e-002
2.094403e+003;3.869237e-002
2.096332e+003;3.883728e-002
2.098260e+003;3.900287e-002
2.100189e+003;3.908019e-002
2.102117e+003;3.925849e-002
2.104046e+003;3.926813e-002
2.105974e+003;3.913559e-002
2.107903e+003;3.915028e-002
2.109832e+003;3.929574e-002
2.111760e+003;3.947927e-002
2.113688e+003;3.931097e-002
2.115617e+003;3.894719e-002
2.117546e+003;3.860157e-002
2.119474e+003;3.864619e-002
2.121403e+003;3.876692e-002
2.123331e+003;3.887022e-002
2.125260e+003;3.896666e-002
2.127188e+003;3.903933e-002
2.129117e+003;3.909977e-002
2.131045e+003;3.916822e-002
2.132974e+003;3.937797e-002
2.134903e+003;3.942525e-002
2.136831e+003;3.925022e-002
2.138760e+003;3.940402e-002
2.140688e+003;3.938000e-002
2.142617e+003;3.904938e-002
2.144545e+003;3.877410e-002
2.146474e+003;3.864880e-002
2.148402e+003;3.867350e-002
2.150331e+003;3.866829e-002
2.152260e+003;3.843806e-002
2.154188e+003;3.828645e-002
2.156117e+003;3.831750e-002
2.158045e+003;3.836763e-002
2.159974e+003;3.825942e-002
2.161902e+003;3.814863e-002
2.163831e+003;3.821809e-002
2.165759e+003;3.827425e-002
2.167688e+003;3.808789e-002
2.169616e+003;3.782168e-002
2.171545e+003;3.759715e-002
2.173474e+003;3.757095e-002
2.175402e+003;3.785400e-002
2.177331e+003;3.790234e-002
2.179259e+003;3.772774e-002
2.181188e+003;3.764600e-002
2.183116e+003;3.740480e-002
2.185045e+003;3.720564e-002
2.186973e+003;3.711490e-002
2.188902e+003;3.731135e-002
2.190831e+003;3.756514e-002
2.192759e+003;3.728112e-002
2.194688e+003;3.680287e-002
2.196616e+003;3.639913e-002
2.198545e+003;3.618196e-002
2.200473e+003;3.641888e-002
2.202402e+003;3.666570e-002
2.204330e+003;3.667832e-002
2.206259e+003;3.645571e-002
2.208188e+003;3.631202e-002
2.210116e+003;3.648432e-002
2.212044e+003;3.659865e-002
2.213973e+003;3.668008e-002
2.215902e+003;3.681379e-002
2.217830e+003;3.669299e-002
2.219759e+003;3.660124e-002
2.221687e+003;3.658051e-002
2.223616e+003;3.639733e-002
2.225544e+003;3.631418e-002
2.227473e+003;3.660625e-002
2.229401e+003;3.683936e-002
2.231330e+003;3.655528e-002
2.233259e+003;3.624080e-002
2.235187e+003;3.632592e-002
2.237116e+003;3.646338e-002
2.239044e+003;3.649592e-002
2.240973e+003;3.663257e-002
2.242901e+003;3.657150e-002
2.244830e+003;3.630446e-002
2.246758e+003;3.629314e-002
2.248687e+003;3.646904e-002
2.250615e+003;3.652926e-002
2.252544e+003;3.651881e-002
2.254473e+003;3.661133e-002
2.256401e+003;3.670445e-002
2.258330e+003;3.650789e-002
2.260258e+003;3.631011e-002
2.262187e+003;3.633824e-002
2.264115e+003;3.645397e-002
2.266044e+003;3.654252e-002
2.267972e+003;3.613964e-002
2.269901e+003;3.568584e-002
2.271830e+003;3.570476e-002
2.273758e+003;3.591223e-002
2.275687e+003;3.623875e-002
2.277615e+003;3.637132e-002
2.279544e+003;3.616878e-002
2.281472e+003;3.623782e-002
2.283401e+003;3.640793e-002
2.285329e+003;3.631793e-002
2.287258e+003;3.608023e-002
2.289187e+003;3.606731e-002
2.291115e+003;3.632282e-002
2.293043e+003;3.650846e-002
2.294972e+003;3.657345e-002
2.296901e+003;3.632643e-002
2.298829e+003;3.624347e-002
2.300758e+003;3.630060e-002
2.302686e+003;3.634545e-002
2.304615e+003;3.632319e-002
2.306543e+003;3.624833e-002
2.308472e+003;3.625467e-002
2.310400e+003;3.619096e-002
2.312329e+003;3.601586e-002
2.314258e+003;3.616820e-002
2.316186e+003;3.611177e-002
2.318115e+003;3.586350e-002
2.320043e+003;3.545849e-002
2.321972e+003;3.491835e-002
2.323900e+003;3.485680e-002
2.325829e+003;3.505482e-002
2.327757e+003;3.483821e-002
2.329686e+003;3.445800e-002
2.331615e+003;3.447249e-002
2.333543e+003;3.468719e-002
2.335472e+003;3.466038e-002
2.337400e+003;3.482205e-002
2.339329e+003;3.519230e-002
2.341257e+003;3.532480e-002
2.343186e+003;3.550102e-002
2.345114e+003;3.610079e-002
2.347043e+003;3.679677e-002
2.348971e+003;3.701486e-002
2.350900e+003;3.664742e-002
2.352829e+003;3.609197e-002
2.354757e+003;3.562868e-002
2.356686e+003;3.495127e-002
2.358614e+003;3.466322e-002
2.360543e+003;3.479728e-002
2.362471e+003;3.466624e-002
2.364400e+003;3.478209e-002
2.366328e+003;3.542455e-002
2.368257e+003;3.590169e-002
2.370186e+003;3.632798e-002
2.372114e+003;3.698629e-002
2.374042e+003;3.742044e-002
2.375971e+003;3.783813e-002
2.377900e+003;3.845106e-002
2.379828e+003;3.881460e-002
2.381757e+003;3.899398e-002
2.383685e+003;3.933803e-002
2.385614e+003;3.959777e-002
2.387542e+003;3.983115e-002
2.389471e+003;3.985675e-002
2.391399e+003;3.972831e-002
2.393328e+003;3.978833e-002
2.395257e+003;3.964724e-002
2.397185e+003;3.954539e-002
2.399114e+003;3.994959e-002
2.401042e+003;4.018491e-002
2.402971e+003;3.999886e-002
2.404899e+003;4.013021e-002
2.406828e+003;4.016215e-002
2.408756e+003;4.011855e-002
2.410685e+003;4.040097e-002
2.412614e+003;4.068608e-002
2.414542e+003;4.081597e-002
2.416471e+003;4.116594e-002
2.418399e+003;4.156542e-002
2.420328e+003;4.151489e-002
2.422256e+003;4.132779e-002
2.424185e+003;4.154402e-002
2.426113e+003;4.200903e-002
2.428042e+003;4.213139e-002
2.429970e+003;4.224531e-002
2.431899e+003;4.233728e-002
2.433828e+003;4.235510e-002
2.435756e+003;4.236558e-002
2.437685e+003;4.254385e-002
2.439613e+003;4.266563e-002
2.441542e+003;4.300151e-002
2.443470e+003;4.318955e-002
2.445399e+003;4.321506e-002
2.447327e+003;4.327388e-002
2.449256e+003;4.334128e-002
2.451185e+003;4.326810e-002
2.453113e+003;4.347918e-002
2.455042e+003;4.381115e-002
2.456970e+003;4.382848e-002
2.458899e+003;4.366959e-002
2.460827e+003;4.372319e-002
2.462756e+003;4.388812e-002
2.464684e+003;4.415492e-002
2.466613e+003;4.421207e-002
2.468542e+003;4.409279e-002
2.470470e+003;4.433792e-002
2.472398e+003;4.471392e-002
2.474327e+003;4.493952e-002
2.476256e+003;4.498601e-002
2.478184e+003;4.505381e-002
2.480113e+003;4.503253e-002
2.482041e+003;4.517340e-002
2.483970e+003;4.568158e-002
2.485898e+003;4.576927e-002
2.487827e+003;4.544334e-002
2.489755e+003;4.540174e-002
2.491684e+003;4.575322e-002
2.493613e+003;4.599468e-002
2.495541e+003;4.603009e-002
2.497470e+003;4.622604e-002
2.499398e+003;4.642160e-002
2.501327e+003;4.666816e-002
2.503255e+003;4.695472e-002
2.505184e+003;4.708949e-002
2.507112e+003;4.724798e-002
2.509041e+003;4.728785e-002
2.510969e+003;4.717167e-002
2.512898e+003;4.748600e-002
2.514827e+003;4.748544e-002
2.516755e+003;4.710427e-002
2.518684e+003;4.699327e-002
2.520612e+003;4.748836e-002
2.522541e+003;4.786802e-002
2.524469e+003;4.784261e-002
2.526398e+003;4.805925e-002
2.528326e+003;4.817275e-002
2.530255e+003;4.825494e-002
2.532184e+003;4.860433e-002
2.534112e+003;4.881809e-002
2.536041e+003;4.867356e-002
2.537969e+003;4.888784e-002
2.539898e+003;4.898708e-002
2.541826e+003;4.909443e-002
2.543755e+003;4.901916e-002
2.545683e+003;4.907210e-002
2.547612e+003;4.951096e-002
2.549541e+003;4.969263e-002
2.551469e+003;4.933089e-002
2.553397e+003;4.916560e-002
2.555326e+003;4.954944e-002
2.557255e+003;4.994481e-002
2.559183e+003;5.015733e-002
2.561112e+003;5.026345e-002
2.563040e+003;5.039851e-002
2.564969e+003;5.057924e-002
2.566897e+003;5.081898e-002
2.568826e+003;5.088900e-002
2.570754e+003;5.087053e-002
2.572683e+003;5.097526e-002
2.574612e+003;5.132878e-002
2.576540e+003;5.146708e-002
2.578469e+003;5.125838e-002
2.580397e+003;5.134243e-002
2.582326e+003;5.170450e-002
2.584254e+003;5.185154e-002
2.586183e+003;5.190370e-002
2.588111e+003;5.204730e-002
2.590040e+003;5.200281e-002
2.591969e+003;5.188439e-002
2.593897e+003;5.184818e-002
2.595826e+003;5.200326e-002
2.597754e+003;5.265160e-002
2.599683e+003;5.299009e-002
2.601611e+003;5.292799e-002
2.603540e+003;5.284918e-002
2.605468e+003;5.295333e-002
2.607397e+003;5.302973e-002
2.609325e+003;5.333383e-002
2.611254e+003;5.404971e-002
2.613183e+003;5.460759e-002
2.615111e+003;5.469157e-002
2.617040e+003;5.477775e-002
2.618968e+003;5.485309e-002
2.620897e+003;5.513754e-002
2.622825e+003;5.550671e-002
2.624754e+003;5.552463e-002
2.626682e+003;5.552591e-002
2.628611e+003;5.571075e-002
2.630540e+003;5.603170e-002
2.632468e+003;5.625289e-002
2.634396e+003;5.641366e-002
2.636325e+003;5.643226e-002
2.638254e+003;5.634666e-002
2.640182e+003;5.668552e-002
2.642111e+003;5.709292e-002
2.644039e+003;5.745490e-002
2.645968e+003;5.802751e-002
2.647896e+003;5.830348e-002
2.649825e+003;5.823399e-002
2.651753e+003;5.822842e-002
2.653682e+003;5.857527e-002
2.655611e+003;5.919762e-002
2.657539e+003;5.939144e-002
2.659468e+003;5.929051e-002
2.661396e+003;5.955946e-002
2.663325e+003;5.987695e-002
2.665253e+003;6.003340e-002
2.667182e+003;6.036091e-002
2.669110e+003;6.085635e-002
2.671039e+003;6.116918e-002
2.672968e+003;6.118788e-002
2.674896e+003;6.138659e-002
2.676825e+003;6.186819e-002
2.678753e+003;6.218420e-002
2.680682e+003;6.230474e-002
2.682610e+003;6.252340e-002
2.684539e+003;6.274666e-002
2.686467e+003;6.255823e-002
2.688396e+003;6.234650e-002
2.690324e+003;6.286041e-002
2.692253e+003;6.357481e-002
2.694182e+003;6.391294e-002
2.696110e+003;6.413012e-002
2.698039e+003;6.431009e-002
2.699967e+003;6.432761e-002
2.701896e+003;6.441246e-002
2.703824e+003;6.462485e-002
2.705753e+003;6.490704e-002
2.707681e+003;6.512240e-002
2.709610e+003;6.524888e-002
2.711539e+003;6.549750e-002
2.713467e+003;6.595001e-002
2.715396e+003;6.624269e-002
2.717324e+003;6.645852e-002
2.719253e+003;6.638632e-002
2.721181e+003;6.627816e-002
2.723110e+003;6.683987e-002
2.725038e+003;6.758675e-002
2.726967e+003;6.806222e-002
2.728896e+003;6.793566e-002
2.730824e+003;6.793442e-002
2.732752e+003;6.846321e-002
2.734681e+003;6.841919e-002
2.736610e+003;6.828713e-002
2.738538e+003;6.835426e-002
2.740467e+003;6.857991e-002
2.742395e+003;6.888842e-002
2.744324e+003;6.907348e-002
2.746252e+003;6.925524e-002
2.748181e+003;6.920438e-002
2.750109e+003;6.923651e-002
2.752038e+003;6.957901e-002
2.753967e+003;6.960794e-002
2.755895e+003;6.953153e-002
2.757824e+003;6.989738e-002
2.759752e+003;7.014789e-002
2.761681e+003;7.017508e-002
2.763609e+003;7.058833e-002
2.765538e+003;7.101527e-002
2.767466e+003;7.102826e-002
2.769395e+003;7.086304e-002
2.771323e+003;7.082716e-002
2.773252e+003;7.118094e-002
2.775181e+003;7.181424e-002
2.777109e+003;7.223605e-002
2.779038e+003;7.249067e-002
2.780966e+003;7.256432e-002
2.782895e+003;7.281215e-002
2.784823e+003;7.322063e-002
2.786752e+003;7.336180e-002
2.788680e+003;7.377800e-002
2.790609e+003;7.436973e-002
2.792538e+003;7.480155e-002
2.794466e+003;7.489343e-002
2.796395e+003;7.535395e-002
2.798323e+003;7.597210e-002
2.800252e+003;7.624099e-002
2.802180e+003;7.667183e-002
2.804109e+003;7.719931e-002
2.806037e+003;7.776801e-002
2.807966e+003;7.811088e-002
2.809895e+003;7.834467e-002
2.811823e+003;7.909671e-002
2.813751e+003;7.968740e-002
2.815680e+003;8.039053e-002
2.817609e+003;8.122425e-002
2.819537e+003;8.132649e-002
2.821466e+003;8.146740e-002
2.823394e+003;8.233523e-002
2.825323e+003;8.346140e-002
2.827251e+003;8.454596e-002
2.829180e+003;8.520757e-002
2.831108e+003;8.564567e-002
2.833037e+003;8.646978e-002
2.834966e+003;8.785247e-002
2.836894e+003;8.957639e-002
2.838823e+003;9.085068e-002
2.840751e+003;9.206187e-002
2.842680e+003;9.319004e-002
2.844608e+003;9.432264e-002
2.846537e+003;9.550063e-002
2.848465e+003;9.694928e-002
2.850394e+003;9.902468e-002
2.852323e+003;1.008710e-001
2.854251e+003;1.022207e-001
2.856180e+003;1.033002e-001
2.858108e+003;1.044047e-001
2.860037e+003;1.055643e-001
2.861965e+003;1.064494e-001
2.863894e+003;1.071447e-001
2.865822e+003;1.083741e-001
2.867751e+003;1.094912e-001
2.869679e+003;1.100419e-001
2.871608e+003;1.104631e-001
2.873536e+003;1.110993e-001
2.875465e+003;1.119877e-001
2.877394e+003;1.124738e-001
2.879322e+003;1.125557e-001
2.881251e+003;1.129448e-001
2.883179e+003;1.131757e-001
2.885108e+003;1.137674e-001
2.887036e+003;1.145114e-001
2.888965e+003;1.148453e-001
2.890893e+003;1.153130e-001
2.892822e+003;1.157276e-001
2.894750e+003;1.160766e-001
2.896679e+003;1.161372e-001
2.898608e+003;1.158227e-001
2.900536e+003;1.158287e-001
2.902465e+003;1.166082e-001
2.904393e+003;1.170358e-001
2.906322e+003;1.165636e-001
2.908250e+003;1.163342e-001
2.910179e+003;1.164346e-001
2.912107e+003;1.160699e-001
2.914036e+003;1.158512e-001
2.915965e+003;1.159438e-001
2.917893e+003;1.159473e-001
2.919822e+003;1.157872e-001
2.921750e+003;1.159307e-001
2.923679e+003;1.163380e-001
2.925607e+003;1.167566e-001
2.927536e+003;1.167814e-001
2.929464e+003;1.165084e-001
2.931393e+003;1.161284e-001
2.933322e+003;1.157381e-001
2.935250e+003;1.156220e-001
2.937178e+003;1.147293e-001
2.939107e+003;1.136585e-001
2.941036e+003;1.129174e-001
2.942964e+003;1.117397e-001
2.944893e+003;1.107021e-001
2.946821e+003;1.094078e-001
2.948750e+003;1.078355e-001
2.950678e+003;1.064785e-001
2.952607e+003;1.049768e-001
2.954535e+003;1.037846e-001
2.956464e+003;1.025849e-001
2.958393e+003;1.011520e-001
2.960321e+003;1.001221e-001
2.962250e+003;9.920280e-002
2.964178e+003;9.854207e-002
2.966107e+003;9.759253e-002
2.968035e+003;9.607542e-002
2.969964e+003;9.497470e-002
2.971892e+003;9.428196e-002
2.973821e+003;9.326577e-002
2.975750e+003;9.217887e-002
2.977678e+003;9.124877e-002
2.979607e+003;9.022447e-002
2.981535e+003;8.907480e-002
2.983464e+003;8.825406e-002
2.985392e+003;8.751556e-002
2.987321e+003;8.666763e-002
2.989249e+003;8.623197e-002
2.991178e+003;8.571574e-002
2.993106e+003;8.505730e-002
2.995035e+003;8.449701e-002
2.996964e+003;8.426704e-002
2.998892e+003;8.425321e-002
3.000821e+003;8.399783e-002
3.002749e+003;8.358417e-002
3.004678e+003;8.334295e-002
3.006606e+003;8.328098e-002
3.008535e+003;8.332790e-002
3.010463e+003;8.311464e-002
3.012392e+003;8.312599e-002
3.014321e+003;8.336435e-002
3.016249e+003;8.334107e-002
3.018177e+003;8.300299e-002
3.020106e+003;8.317450e-002
3.022035e+003;8.353513e-002
3.023963e+003;8.355902e-002
3.025892e+003;8.372320e-002
3.027820e+003;8.416974e-002
3.029749e+003;8.468329e-002
3.031677e+003;8.480673e-002
3.033606e+003;8.466517e-002
3.035534e+003;8.518871e-002
3.037463e+003;8.579691e-002
3.039392e+003;8.595128e-002
3.041320e+003;8.607597e-002
3.043249e+003;8.636887e-002
3.045177e+003;8.671387e-002
3.047106e+003;8.715887e-002
3.049034e+003;8.785997e-002
3.050963e+003;8.835448e-002
3.052891e+003;8.889639e-002
3.054820e+003;8.930904e-002
3.056749e+003;8.953884e-002
3.058677e+003;8.998851e-002
3.060606e+003;9.067909e-002
3.062534e+003;9.138934e-002
3.064463e+003;9.210902e-002
3.066391e+003;9.241134e-002
3.068320e+003;9.281599e-002
3.070248e+003;9.373593e-002
3.072177e+003;9.433232e-002
3.074105e+003;9.482270e-002
3.076034e+003;9.532426e-002
3.077963e+003;9.576505e-002
3.079891e+003;9.655918e-002
3.081820e+003;9.736560e-002
3.083748e+003;9.773463e-002
3.085677e+003;9.799228e-002
3.087605e+003;9.884637e-002
3.089534e+003;9.945519e-002
3.091462e+003;9.984969e-002
3.093391e+003;1.005461e-001
3.095320e+003;1.010699e-001
3.097248e+003;1.015297e-001
3.099177e+003;1.015928e-001
3.101105e+003;1.017024e-001
3.103034e+003;1.028299e-001
3.104962e+003;1.041351e-001
3.106891e+003;1.046143e-001
3.108819e+003;1.044766e-001
3.110748e+003;1.049421e-001
3.112677e+003;1.060409e-001
3.114605e+003;1.066948e-001
3.116533e+003;1.068359e-001
3.118462e+003;1.074889e-001
3.120391e+003;1.083312e-001
3.122319e+003;1.090276e-001
3.124248e+003;1.094765e-001
3.126176e+003;1.098785e-001
3.128105e+003;1.103081e-001
3.130033e+003;1.107964e-001
3.131962e+003;1.114918e-001
3.133890e+003;1.120624e-001
3.135819e+003;1.125736e-001
3.137748e+003;1.134096e-001
3.139676e+003;1.137808e-001
3.141605e+003;1.143839e-001
3.143533e+003;1.154592e-001
3.145462e+003;1.158945e-001
3.147390e+003;1.160180e-001
3.149319e+003;1.167384e-001
3.151247e+003;1.173455e-001
3.153176e+003;1.178618e-001
3.155104e+003;1.184494e-001
3.157033e+003;1.188539e-001
3.158962e+003;1.198863e-001
3.160890e+003;1.207893e-001
3.162819e+003;1.208707e-001
3.164747e+003;1.209100e-001
3.166676e+003;1.212742e-001
3.168604e+003;1.221049e-001
3.170533e+003;1.230360e-001
3.172461e+003;1.235913e-001
3.174390e+003;1.240737e-001
3.176319e+003;1.243246e-001
3.178247e+003;1.247759e-001
3.180176e+003;1.259513e-001
3.182104e+003;1.269525e-001
3.184033e+003;1.271788e-001
3.185961e+003;1.276076e-001
3.187890e+003;1.286540e-001
3.189818e+003;1.294297e-001
3.191747e+003;1.295885e-001
3.193676e+003;1.300197e-001
3.195604e+003;1.306011e-001
3.197532e+003;1.307932e-001
3.199461e+003;1.314440e-001
3.201390e+003;1.321509e-001
3.203318e+003;1.324465e-001
3.205247e+003;1.328115e-001
3.207175e+003;1.337051e-001
3.209104e+003;1.344764e-001
3.211032e+003;1.349012e-001
3.212961e+003;1.348913e-001
3.214889e+003;1.352338e-001
3.216818e+003;1.359844e-001
3.218747e+003;1.362666e-001
3.220675e+003;1.364629e-001
3.222604e+003;1.371819e-001
3.224532e+003;1.377414e-001
3.226461e+003;1.379136e-001
3.228389e+003;1.388522e-001
3.230318e+003;1.396625e-001
3.232246e+003;1.395539e-001
3.234175e+003;1.396262e-001
3.236104e+003;1.407530e-001
3.238032e+003;1.415884e-001
3.239961e+003;1.412758e-001
3.241889e+003;1.412929e-001
3.243818e+003;1.420562e-001
3.245746e+003;1.425894e-001
3.247675e+003;1.429142e-001
3.249603e+003;1.431645e-001
3.251532e+003;1.437037e-001
3.253460e+003;1.445094e-001
3.255389e+003;1.448238e-001
3.257318e+003;1.444395e-001
3.259246e+003;1.446394e-001
3.261175e+003;1.452154e-001
3.263103e+003;1.456090e-001
3.265032e+003;1.462946e-001
3.266960e+003;1.472289e-001
3.268889e+003;1.474776e-001
3.270817e+003;1.472339e-001
3.272746e+003;1.468321e-001
3.274675e+003;1.467394e-001
3.276603e+003;1.475559e-001
3.278531e+003;1.479511e-001
3.280460e+003;1.477351e-001
3.282389e+003;1.477140e-001
3.284317e+003;1.480919e-001
3.286246e+003;1.487032e-001
3.288174e+003;1.490999e-001
3.290103e+003;1.489744e-001
3.292031e+003;1.485909e-001
3.293960e+003;1.488324e-001
3.295888e+003;1.490112e-001
3.297817e+003;1.492075e-001
3.299746e+003;1.492489e-001
3.301674e+003;1.489101e-001
3.303603e+003;1.489410e-001
3.305531e+003;1.488964e-001
3.307460e+003;1.484175e-001
3.309388e+003;1.488366e-001
3.311317e+003;1.494041e-001
3.313245e+003;1.497926e-001
3.315174e+003;1.499567e-001
3.317103e+003;1.497498e-001
3.319031e+003;1.499711e-001
3.320960e+003;1.501590e-001
3.322888e+003;1.494740e-001
3.324817e+003;1.489824e-001
3.326745e+003;1.492065e-001
3.328674e+003;1.490990e-001
3.330602e+003;1.486841e-001
3.332531e+003;1.487670e-001
3.334459e+003;1.485767e-001
3.336388e+003;1.478255e-001
3.338317e+003;1.479778e-001
3.340245e+003;1.483481e-001
3.342174e+003;1.483338e-001
3.344102e+003;1.483576e-001
3.346031e+003;1.484328e-001
3.347959e+003;1.477740e-001
3.349888e+003;1.467392e-001
3.351816e+003;1.466572e-001
3.353745e+003;1.467518e-001
3.355674e+003;1.462435e-001
3.357602e+003;1.456169e-001
3.359531e+003;1.453164e-001
3.361459e+003;1.452404e-001
3.363388e+003;1.448897e-001
3.365316e+003;1.447552e-001
3.367245e+003;1.447038e-001
3.369173e+003;1.446272e-001
3.371102e+003;1.441756e-001
3.373031e+003;1.436790e-001
3.374959e+003;1.434149e-001
3.376887e+003;1.430009e-001
3.378816e+003;1.426365e-001
3.380745e+003;1.421201e-001
3.382673e+003;1.416471e-001
3.384602e+003;1.412442e-001
3.386530e+003;1.410774e-001
3.388459e+003;1.411306e-001
3.390387e+003;1.409409e-001
3.392316e+003;1.402427e-001
3.394244e+003;1.394838e-001
3.396173e+003;1.393918e-001
3.398102e+003;1.390796e-001
3.400030e+003;1.384083e-001
3.401959e+003;1.380813e-001
3.403887e+003;1.373684e-001
3.405816e+003;1.362076e-001
3.407744e+003;1.356089e-001
3.409673e+003;1.355092e-001
3.411601e+003;1.355635e-001
3.413530e+003;1.353847e-001
3.415458e+003;1.348711e-001
3.417387e+003;1.342240e-001
3.419316e+003;1.333964e-001
3.421244e+003;1.325502e-001
3.423173e+003;1.317984e-001
3.425101e+003;1.313217e-001
3.427030e+003;1.311550e-001
3.428958e+003;1.305298e-001
3.430887e+003;1.295117e-001
3.432815e+003;1.287129e-001
3.434744e+003;1.281239e-001
3.436673e+003;1.276540e-001
3.438601e+003;1.269872e-001
3.440530e+003;1.266177e-001
3.442458e+003;1.262463e-001
3.444387e+003;1.254667e-001
3.446315e+003;1.246703e-001
3.448244e+003;1.244909e-001
3.450172e+003;1.239492e-001
3.452101e+003;1.225671e-001
3.454030e+003;1.215986e-001
3.455958e+003;1.214148e-001
3.457886e+003;1.211128e-001
3.459815e+003;1.206010e-001
3.461744e+003;1.198818e-001
3.463672e+003;1.191195e-001
3.465601e+003;1.181438e-001
3.467529e+003;1.173336e-001
3.469458e+003;1.168143e-001
3.471386e+003;1.157397e-001
3.473315e+003;1.145709e-001
3.475243e+003;1.142031e-001
3.477172e+003;1.136411e-001
3.479101e+003;1.124223e-001
3.481029e+003;1.113353e-001
3.482958e+003;1.112390e-001
3.484886e+003;1.110582e-001
3.486815e+003;1.101234e-001
3.488743e+003;1.092130e-001
3.490672e+003;1.083673e-001
3.492600e+003;1.074018e-001
3.494529e+003;1.069055e-001
3.496458e+003;1.062285e-001
3.498386e+003;1.049403e-001
3.500315e+003;1.040175e-001
3.502243e+003;1.035869e-001
3.504172e+003;1.030022e-001
3.506100e+003;1.019148e-001
3.508029e+003;1.008273e-001
3.509957e+003;9.999341e-002
3.511886e+003;9.925976e-002
3.513814e+003;9.825502e-002
3.515743e+003;9.747523e-002
3.517672e+003;9.686479e-002
3.519600e+003;9.589569e-002
3.521529e+003;9.491035e-002
3.523457e+003;9.418876e-002
3.525386e+003;9.351248e-002
3.527314e+003;9.295370e-002
3.529243e+003;9.236261e-002
3.531171e+003;9.128838e-002
3.533100e+003;9.006596e-002
3.535029e+003;8.951246e-002
3.536957e+003;8.863246e-002
3.538885e+003;8.750337e-002
3.540814e+003;8.665638e-002
3.542743e+003;8.594789e-002
3.544671e+003;8.476178e-002
3.546600e+003;8.365828e-002
3.548528e+003;8.309112e-002
3.550457e+003;8.230764e-002
3.552385e+003;8.154008e-002
3.554314e+003;8.058383e-002
3.556242e+003;7.942591e-002
3.558171e+003;7.855347e-002
3.560100e+003;7.803327e-002
3.562028e+003;7.677969e-002
3.563957e+003;7.566758e-002
3.565885e+003;7.476892e-002
3.567814e+003;7.388742e-002
3.569742e+003;7.289547e-002
3.571671e+003;7.144006e-002
3.573599e+003;7.054767e-002
3.575528e+003;6.980728e-002
3.577457e+003;6.913576e-002
3.579385e+003;6.827294e-002
3.581314e+003;6.713907e-002
3.583242e+003;6.635555e-002
3.585171e+003;6.537050e-002
3.587099e+003;6.400874e-002
3.589028e+003;6.331091e-002
3.590956e+003;6.297267e-002
3.592885e+003;6.199896e-002
3.594813e+003;6.089348e-002
3.596742e+003;5.965486e-002
3.598671e+003;5.850259e-002
3.600599e+003;5.776896e-002
3.602528e+003;5.692196e-002
3.604456e+003;5.591260e-002
3.606385e+003;5.487068e-002
3.608313e+003;5.397778e-002
3.610242e+003;5.316457e-002
3.612170e+003;5.279226e-002
3.614099e+003;5.184978e-002
3.616028e+003;5.034519e-002
3.617956e+003;4.944201e-002
3.619885e+003;4.903786e-002
3.621813e+003;4.818811e-002
3.623742e+003;4.705371e-002
3.625670e+003;4.615624e-002
3.627599e+003;4.534888e-002
3.629527e+003;4.401619e-002
3.631456e+003;4.290377e-002
3.633385e+003;4.236726e-002
3.635313e+003;4.177914e-002
3.637241e+003;4.117764e-002
3.639170e+003;4.070137e-002
3.641099e+003;4.031657e-002
3.643027e+003;3.971604e-002
3.644956e+003;3.877761e-002
3.646884e+003;3.767870e-002
3.648813e+003;3.682129e-002
3.650741e+003;3.641228e-002
3.652670e+003;3.596864e-002
3.654598e+003;3.580683e-002
3.656527e+003;3.525964e-002
3.658456e+003;3.443131e-002
3.660384e+003;3.410586e-002
3.662313e+003;3.394467e-002
3.664241e+003;3.335213e-002
3.666170e+003;3.280388e-002
3.668098e+003;3.245365e-002
3.670027e+003;3.144779e-002
3.671955e+003;3.092919e-002
3.673884e+003;3.096029e-002
3.675813e+003;3.067594e-002
3.677741e+003;3.063352e-002
3.679669e+003;3.077452e-002
3.681598e+003;3.020032e-002
3.683527e+003;2.977279e-002
3.685455e+003;2.977368e-002
3.687384e+003;2.962885e-002
3.689312e+003;2.941794e-002
3.691241e+003;2.925969e-002
3.693169e+003;2.933846e-002
3.695098e+003;2.911231e-002
3.697026e+003;2.902293e-002
3.698955e+003;2.876830e-002
3.700884e+003;2.835312e-002
3.702812e+003;2.854178e-002
3.704741e+003;2.825335e-002
3.706669e+003;2.754787e-002
3.708598e+003;2.743921e-002
3.710526e+003;2.717053e-002
3.712455e+003;2.690514e-002
3.714383e+003;2.726436e-002
3.716312e+003;2.718605e-002
3.718240e+003;2.691730e-002
3.720169e+003;2.703912e-002
3.722098e+003;2.724048e-002
3.724026e+003;2.667275e-002
3.725955e+003;2.669322e-002
3.727883e+003;2.717575e-002
3.729812e+003;2.698062e-002
3.731740e+003;2.631666e-002
3.733669e+003;2.611428e-002
3.735597e+003;2.576069e-002
3.737526e+003;2.580109e-002
3.739455e+003;2.635099e-002
3.741383e+003;2.639482e-002
3.743312e+003;2.585236e-002
3.745240e+003;2.562921e-002
3.747169e+003;2.596610e-002
3.749097e+003;2.563892e-002
3.751026e+003;2.538644e-002
3.752954e+003;2.581505e-002
3.754883e+003;2.610295e-002
3.756812e+003;2.611358e-002
3.758740e+003;2.656816e-002
3.760668e+003;2.697540e-002
3.762597e+003;2.659239e-002
3.764526e+003;2.596350e-002
3.766454e+003;2.567150e-002
3.768383e+003;2.573165e-002
3.770311e+003;2.638190e-002
3.772240e+003;2.657003e-002
3.774168e+003;2.627660e-002
3.776097e+003;2.623873e-002
3.778025e+003;2.660402e-002
3.779954e+003;2.724895e-002
3.781883e+003;2.745799e-002
3.783811e+003;2.667311e-002
3.785740e+003;2.581533e-002
3.787668e+003;2.581185e-002
3.789597e+003;2.624827e-002
3.791525e+003;2.664559e-002
3.793454e+003;2.662618e-002
3.795382e+003;2.606562e-002
3.797311e+003;2.565944e-002
3.799240e+003;2.567885e-002
3.801168e+003;2.573256e-002
3.803097e+003;2.600022e-002
3.805025e+003;2.635359e-002
3.806954e+003;2.595569e-002
3.808882e+003;2.562735e-002
3.810811e+003;2.614335e-002
3.812739e+003;2.686629e-002
3.814668e+003;2.675172e-002
3.816596e+003;2.631839e-002
3.818525e+003;2.639824e-002
3.820454e+003;2.630371e-002
3.822382e+003;2.597454e-002
3.824311e+003;2.607168e-002
3.826239e+003;2.651191e-002
3.828168e+003;2.666891e-002
3.830096e+003;2.644841e-002
3.832025e+003;2.614244e-002
3.833953e+003;2.582053e-002
3.835882e+003;2.602685e-002
3.837811e+003;2.596730e-002
3.839739e+003;2.593392e-002
3.841667e+003;2.654047e-002
3.843596e+003;2.693010e-002
3.845525e+003;2.691818e-002
3.847453e+003;2.708076e-002
3.849382e+003;2.707318e-002
3.851310e+003;2.679168e-002
3.853239e+003;2.681283e-002
3.855167e+003;2.673995e-002
3.857096e+003;2.652322e-002
3.859024e+003;2.659035e-002
3.860953e+003;2.670873e-002
3.862882e+003;2.652223e-002
3.864810e+003;2.688392e-002
3.866739e+003;2.700121e-002
3.868667e+003;2.663939e-002
3.870596e+003;2.675263e-002
3.872524e+003;2.700463e-002
3.874453e+003;2.710577e-002
3.876381e+003;2.706870e-002
3.878310e+003;2.720619e-002
3.880239e+003;2.731235e-002
3.882167e+003;2.735646e-002
3.884096e+003;2.749361e-002
3.886024e+003;2.757526e-002
3.887953e+003;2.780789e-002
3.889881e+003;2.773848e-002
3.891810e+003;2.781735e-002
3.893738e+003;2.837200e-002
3.895667e+003;2.785148e-002
3.897595e+003;2.722485e-002
3.899524e+003;2.720883e-002
3.901453e+003;2.699740e-002
3.903381e+003;2.743766e-002
3.905310e+003;2.813194e-002
3.907238e+003;2.821863e-002
3.909167e+003;2.791366e-002
3.911095e+003;2.794712e-002
3.913024e+003;2.822708e-002
3.914952e+003;2.870664e-002
3.916881e+003;2.930223e-002
3.918810e+003;2.940298e-002
3.920738e+003;2.912124e-002
3.922667e+003;2.895754e-002
3.924595e+003;2.857636e-002
3.926524e+003;2.810659e-002
3.928452e+003;2.819607e-002
3.930381e+003;2.866643e-002
3.932309e+003;2.892977e-002
3.934238e+003;2.870076e-002
3.936167e+003;2.888480e-002
3.938095e+003;2.918116e-002
3.940023e+003;2.901435e-002
3.941952e+003;2.886259e-002
3.943881e+003;2.926948e-002
3.945809e+003;2.954039e-002
3.947738e+003;2.926168e-002
3.949666e+003;2.904567e-002
3.951595e+003;2.918339e-002
3.953523e+003;2.927745e-002
3.955452e+003;2.904634e-002
3.957380e+003;2.907199e-002
3.959309e+003;2.926955e-002
3.961238e+003;2.910480e-002
3.963166e+003;2.886999e-002
3.965095e+003;2.925736e-002
3.967023e+003;2.957032e-002
3.968952e+003;2.941099e-002
3.970880e+003;2.938433e-002
3.972809e+003;2.984175e-002
3.974737e+003;3.020564e-002
3.976666e+003;3.018326e-002
3.978594e+003;3.004501e-002
3.980523e+003;2.972936e-002
3.982452e+003;3.005105e-002
3.984380e+003;3.010037e-002
3.986309e+003;2.981956e-002
3.988237e+003;2.990294e-002
3.990166e+003;3.009135e-002
3.992094e+003;3.012715e-002
3.994023e+003;2.940681e-002
3.995951e+003;2.924488e-002
3.997880e+003;2.958317e-002
3.999809e+003;3.000901e-002
4.001737e+003;0.000000e+000
