3.992094e+002;0.000000e+000
4.011380e+002;0.000000e+000
4.030665e+002;0.000000e+000
4.049951e+002;0.000000e+000
4.069236e+002;0.000000e+000
4.088522e+002;0.000000e+000
4.107807e+002;0.000000e+000
4.127093e+002;0.000000e+000
4.146378e+002;0.000000e+000
4.165664e+002;0.000000e+000
4.184949e+002;0.000000e+000
4.204235e+002;0.000000e+000
4.223520e+002;0.000000e+000
4.242806e+002;0.000000e+000
4.262091e+002;0.000000e+000
4.281377e+002;0.000000e+000
4.300662e+002;0.000000e+000
4.319948e+002;0.000000e+000
4.339233e+002;0.000000e+000
4.358519e+002;0.000000e+000
4.377804e+002;0.000000e+000
4.397090e+002;0.000000e+000
4.416375e+002;0.000000e+000
4.435660e+002;0.000000e+000
4.454946e+002;0.000000e+000
4.474232e+002;0.000000e+000
4.493517e+002;0.000000e+000
4.512802e+002;0.000000e+000
4.532088e+002;0.000000e+000
4.551373e+002;0.000000e+000
4.570659e+002;0.000000e+000
4.589944e+002;0.000000e+000
4.609230e+002;0.000000e+000
4.628515e+002;0.000000e+000
4.647801e+002;0.000000e+000
4.667086e+002;0.000000e+000
4.686372e+002;0.000000e+000
4.705657e+002;0.000000e+000
4.724943e+002;0.000000e+000
4.744228e+002;0.000000e+000
4.763513e+002;0.000000e+000
4.782799e+002;0.000000e+000
4.802085e+002;0.000000e+000
4.821370e+002;0.000000e+000
4.840656e+002;0.000000e+000
4.859941e+002;0.000000e+000
4.879226e+002;0.000000e+000
4.898512e+002;0.000000e+000
4.917798e+002;0.000000e+000
4.937083e+002;0.000000e+000
4.956368e+002;0.000000e+000
4.975654e+002;0.000000e+000
4.994939e+002;0.000000e+000
5.014225e+002;0.000000e+000
5.033510e+002;0.000000e+000
5.052796e+002;0.000000e+000
5.072081e+002;0.000000e+000
5.091367e+002;0.000000e+000
5.110652e+002;0.000000e+000
5.129938e+002;0.000000e+000
5.149223e+002;0.000000e+000
5.168509e+002;0.000000e+000
5.187794e+002;0.000000e+000
5.207079e+002;0.000000e+000
5.226365e+002;0.000000e+000
5.245651e+002;0.000000e+000
5.264936e+002;0.000000e+000
5.284222e+002;0.000000e+000
5.303507e+002;0.000000e+000
5.322792e+002;0.000000e+000
5.342078e+002;0.000000e+000
5.361364e+002;0.000000e+000
5.380649e+002;0.000000e+000
5.399935e+002;0.000000e+000
5.419220e+002;0.000000e+000
5.438505e+002;0.000000e+000
5.457791e+002;0.000000e+000
5.477076e+002;0.000000e+000
5.496362e+002;0.000000e+000
5.515648e+002;0.000000e+000
5.534933e+002;0.000000e+000
5.554218e+002;0.000000e+000
5.573504e+002;0.000000e+000
5.592789e+002;0.000000e+000
5.612075e+002;0.000000e+000
5.631360e+002;0.000000e+000
5.650646e+002;0.000000e+000
5.669931e+002;0.000000e+000
5.689217e+002;0.000000e+000
5.708502e+002;0.000000e+000
5.727787e+002;0.000000e+000
5.747073e+002;0.000000e+000
5.766359e+002;0.000000e+000
5.785644e+002;0.000000e+000
5.804930e+002;0.000000e+000
5.824215e+002;0.000000e+000
5.843500e+002;0.000000e+000
5.862786e+002;0.000000e+000
5.882072e+002;0.000000e+000
5.901357e+002;0.000000e+000
5.920643e+002;0.000000e+000
5.939928e+002;0.000000e+000
5.959213e+002;0.000000e+000
5.978499e+002;0.000000e+000
5.997784e+002;2.063366e-001
6.017070e+002;2.015427e-001
6.036355e+002;2.093498e-001
6.055641e+002;2.181254e-001
6.074926e+002;2.200896e-001
6.094211e+002;2.192258e-001
6.113497e+002;2.228387e-001
6.132783e+002;2.258398e-001
6.152068e+002;2.268723e-001
6.171354e+002;2.240790e-001
6.190639e+002;2.221681e-001
6.209924e+002;2.163198e-001
6.229210e+002;2.117180e-001
6.248495e+002;2.104813e-001
6.267781e+002;2.084038e-001
6.287067e+002;2.085812e-001
6.306352e+002;2.045809e-001
6.325637e+002;1.983902e-001
6.344923e+002;1.928503e-001
6.364208e+002;1.922842e-001
6.383494e+002;1.964188e-001
6.402780e+002;1.980232e-001
6.422065e+002;1.901566e-001
6.441350e+002;1.869100e-001
6.460636e+002;1.869333e-001
6.479921e+002;1.828299e-001
6.499207e+002;1.816768e-001
6.518492e+002;1.886736e-001
6.537778e+002;1.930621e-001
6.557063e+002;1.949966e-001
6.576349e+002;1.960823e-001
6.595634e+002;1.965443e-001
6.614919e+002;1.976055e-001
6.634205e+002;1.957183e-001
6.653491e+002;1.939959e-001
6.672776e+002;1.930109e-001
6.692062e+002;1.924232e-001
6.711347e+002;1.905457e-001
6.730632e+002;1.869648e-001
6.749918e+002;1.837212e-001
6.769203e+002;1.794561e-001
6.788489e+002;1.744566e-001
6.807775e+002;1.725712e-001
6.827060e+002;1.695015e-001
6.846345e+002;1.676479e-001
6.865631e+002;1.683170e-001
6.884916e+002;1.683520e-001
6.904202e+002;1.667023e-001
6.923488e+002;1.648551e-001
6.942773e+002;1.634856e-001
6.962058e+002;1.615879e-001
6.981344e+002;1.590349e-001
7.000629e+002;1.582444e-001
7.019915e+002;1.589598e-001
7.039200e+002;1.591733e-001
7.058486e+002;1.582312e-001
7.077771e+002;1.564277e-001
7.097057e+002;1.549037e-001
7.116342e+002;1.521706e-001
7.135627e+002;1.482606e-001
7.154913e+002;1.474439e-001
7.174199e+002;1.473163e-001
7.193484e+002;1.435218e-001
7.212770e+002;1.388170e-001
7.232055e+002;1.357217e-001
7.251340e+002;1.344020e-001
7.270626e+002;1.326449e-001
7.289911e+002;1.288133e-001
7.309197e+002;1.252855e-001
7.328483e+002;1.234046e-001
7.347768e+002;1.219318e-001
7.367053e+002;1.196804e-001
7.386339e+002;1.179510e-001
7.405624e+002;1.171492e-001
7.424910e+002;1.160143e-001
7.444196e+002;1.149204e-001
7.463481e+002;1.133594e-001
7.482766e+002;1.126125e-001
7.502052e+002;1.129338e-001
7.521337e+002;1.118064e-001
7.540623e+002;1.106513e-001
7.559908e+002;1.095185e-001
7.579194e+002;1.078195e-001
7.598479e+002;1.068225e-001
7.617765e+002;1.048428e-001
7.637050e+002;1.027628e-001
7.656335e+002;1.026140e-001
7.675621e+002;1.023382e-001
7.694907e+002;1.003845e-001
7.714192e+002;9.876575e-002
7.733478e+002;9.802341e-002
7.752763e+002;9.772778e-002
7.772048e+002;9.803750e-002
7.791334e+002;9.818406e-002
7.810620e+002;9.773828e-002
7.829905e+002;9.680048e-002
7.849191e+002;9.575166e-002
7.868476e+002;9.494292e-002
7.887761e+002;9.373354e-002
7.907047e+002;9.302274e-002
7.926332e+002;9.284356e-002
7.945618e+002;9.254536e-002
7.964903e+002;9.302233e-002
7.984189e+002;9.273820e-002
8.003474e+002;9.116790e-002
8.022759e+002;9.065982e-002
8.042045e+002;9.132673e-002
8.061331e+002;9.116574e-002
8.080616e+002;9.085734e-002
8.099902e+002;9.011118e-002
8.119187e+002;8.925886e-002
8.138472e+002;8.934201e-002
8.157758e+002;8.945452e-002
8.177043e+002;8.929317e-002
8.196329e+002;8.899410e-002
8.215615e+002;8.936618e-002
8.234900e+002;9.002659e-002
8.254185e+002;8.972714e-002
8.273471e+002;8.902298e-002
8.292756e+002;8.853307e-002
8.312042e+002;8.881503e-002
8.331328e+002;8.922415e-002
8.350613e+002;8.890106e-002
8.369898e+002;8.846170e-002
8.389184e+002;8.817247e-002
8.408469e+002;8.842636e-002
8.427755e+002;8.812720e-002
8.447040e+002;8.741660e-002
8.466326e+002;8.817258e-002
8.485611e+002;8.893046e-002
8.504897e+002;8.832841e-002
8.524182e+002;8.821233e-002
8.543467e+002;8.888126e-002
8.562753e+002;8.962584e-002
8.582039e+002;9.016305e-002
8.601324e+002;9.088973e-002
8.620610e+002;9.161550e-002
8.639895e+002;9.230372e-002
8.659180e+002;9.317842e-002
8.678466e+002;9.506097e-002
8.697751e+002;9.720687e-002
8.717037e+002;9.963037e-002
8.736323e+002;1.027012e-001
8.755608e+002;1.053423e-001
8.774893e+002;1.075461e-001
8.794179e+002;1.101939e-001
8.813464e+002;1.128336e-001
8.832750e+002;1.150455e-001
8.852036e+002;1.173658e-001
8.871321e+002;1.206642e-001
8.890606e+002;1.244181e-001
8.909892e+002;1.273207e-001
8.929177e+002;1.286262e-001
8.948463e+002;1.292443e-001
8.967748e+002;1.301389e-001
8.987034e+002;1.312177e-001
9.006319e+002;1.317683e-001
9.025605e+002;1.311024e-001
9.044890e+002;1.298795e-001
9.064175e+002;1.286638e-001
9.083461e+002;1.272816e-001
9.102747e+002;1.256000e-001
9.122032e+002;1.240712e-001
9.141318e+002;1.233967e-001
9.160603e+002;1.225253e-001
9.179888e+002;1.215574e-001
9.199174e+002;1.215782e-001
9.218459e+002;1.229537e-001
9.237745e+002;1.243674e-001
9.257031e+002;1.253904e-001
9.276316e+002;1.268066e-001
9.295601e+002;1.288672e-001
9.314887e+002;1.309811e-001
9.334172e+002;1.327000e-001
9.353458e+002;1.345967e-001
9.372744e+002;1.366460e-001
9.392029e+002;1.382985e-001
9.411314e+002;1.401441e-001
9.430600e+002;1.427258e-001
9.449885e+002;1.456006e-001
9.469171e+002;1.484800e-001
9.488456e+002;1.515169e-001
9.507742e+002;1.548812e-001
9.527027e+002;1.593702e-001
9.546313e+002;1.640112e-001
9.565598e+002;1.683279e-001
9.584883e+002;1.732609e-001
9.604169e+002;1.783497e-001
9.623455e+002;1.838463e-001
9.642740e+002;1.896896e-001
9.662026e+002;1.962585e-001
9.681311e+002;2.032660e-001
9.700596e+002;2.110027e-001
9.719882e+002;2.202688e-001
9.739167e+002;2.307967e-001
9.758453e+002;2.420034e-001
9.777739e+002;2.546645e-001
9.797024e+002;2.674177e-001
9.816309e+002;2.787812e-001
9.835595e+002;2.871425e-001
9.854880e+002;2.917193e-001
9.874166e+002;2.941489e-001
9.893452e+002;2.963584e-001
9.912737e+002;2.996224e-001
9.932022e+002;3.048230e-001
9.951307e+002;3.107235e-001
9.970593e+002;3.151765e-001
9.989879e+002;3.182451e-001
1.000916e+003;3.205588e-001
1.002845e+003;3.225192e-001
1.004773e+003;3.237749e-001
1.006702e+003;3.244988e-001
1.008631e+003;3.254573e-001
1.010559e+003;3.277717e-001
1.012488e+003;3.305846e-001
1.014416e+003;3.333357e-001
1.016345e+003;3.364570e-001
1.018273e+003;3.410676e-001
1.020202e+003;3.457341e-001
1.022130e+003;3.499967e-001
1.024059e+003;3.542699e-001
1.025988e+003;3.573666e-001
1.027916e+003;3.598174e-001
1.029845e+003;3.619563e-001
1.031773e+003;3.610508e-001
1.033702e+003;3.581798e-001
1.035630e+003;3.540615e-001
1.037559e+003;3.479677e-001
1.039487e+003;3.417470e-001
1.041416e+003;3.378538e-001
1.043344e+003;3.372456e-001
1.045273e+003;3.380294e-001
1.047202e+003;3.399609e-001
1.049130e+003;3.429837e-001
1.051059e+003;3.453395e-001
1.052987e+003;3.455506e-001
1.054916e+003;3.434110e-001
1.056844e+003;3.381348e-001
1.058773e+003;3.288186e-001
1.060701e+003;3.160573e-001
1.062630e+003;3.008307e-001
1.064558e+003;2.846598e-001
1.066487e+003;2.689456e-001
1.068416e+003;2.548555e-001
1.070344e+003;2.435495e-001
1.072273e+003;2.346927e-001
1.074201e+003;2.275380e-001
1.076130e+003;2.226215e-001
1.078058e+003;2.181832e-001
1.079987e+003;2.131906e-001
1.081915e+003;2.094596e-001
1.083844e+003;2.077995e-001
1.085773e+003;2.071651e-001
1.087701e+003;2.074014e-001
1.089630e+003;2.080487e-001
1.091558e+003;2.088103e-001
1.093487e+003;2.110135e-001
1.095415e+003;2.141269e-001
1.097344e+003;2.158467e-001
1.099272e+003;2.179681e-001
1.101201e+003;2.198903e-001
1.103129e+003;2.200667e-001
1.105058e+003;2.195185e-001
1.106987e+003;2.171763e-001
1.108915e+003;2.129843e-001
1.110844e+003;2.078632e-001
1.112772e+003;2.015858e-001
1.114701e+003;1.932630e-001
1.116629e+003;1.846225e-001
1.118558e+003;1.756605e-001
1.120486e+003;1.668622e-001
1.122415e+003;1.591200e-001
1.124344e+003;1.515303e-001
1.126272e+003;1.439651e-001
1.128201e+003;1.368692e-001
1.130129e+003;1.306989e-001
1.132058e+003;1.265621e-001
1.133986e+003;1.234231e-001
1.135915e+003;1.206459e-001
1.137843e+003;1.189142e-001
1.139772e+003;1.182234e-001
1.141700e+003;1.185395e-001
1.143629e+003;1.195739e-001
1.145557e+003;1.203969e-001
1.147486e+003;1.206611e-001
1.149415e+003;1.208623e-001
1.151343e+003;1.216315e-001
1.153272e+003;1.220851e-001
1.155200e+003;1.216560e-001
1.157129e+003;1.214173e-001
1.159057e+003;1.207213e-001
1.160986e+003;1.188734e-001
1.162914e+003;1.157808e-001
1.164843e+003;1.106995e-001
1.166771e+003;1.053055e-001
1.168700e+003;9.989135e-002
1.170629e+003;9.322984e-002
1.172557e+003;8.701525e-002
1.174486e+003;8.250304e-002
1.176414e+003;7.863725e-002
1.178343e+003;7.512081e-002
1.180271e+003;7.235514e-002
1.182200e+003;7.043200e-002
1.184128e+003;6.956170e-002
1.186057e+003;6.993871e-002
1.187986e+003;7.090177e-002
1.189914e+003;7.215761e-002
1.191843e+003;7.361083e-002
1.193771e+003;7.538670e-002
1.195700e+003;7.753702e-002
1.197628e+003;7.911551e-002
1.199557e+003;8.077922e-002
1.201485e+003;8.238238e-002
1.203414e+003;8.242131e-002
1.205343e+003;8.179065e-002
1.207271e+003;8.036051e-002
1.209200e+003;7.756019e-002
1.211128e+003;7.378755e-002
1.213057e+003;7.042576e-002
1.214985e+003;6.856575e-002
1.216914e+003;6.776560e-002
1.218842e+003;6.770007e-002
1.220771e+003;6.837272e-002
1.222699e+003;7.002956e-002
1.224628e+003;7.211743e-002
1.226557e+003;7.407490e-002
1.228485e+003;7.593772e-002
1.230414e+003;7.781089e-002
1.232342e+003;7.951520e-002
1.234271e+003;8.085492e-002
1.236199e+003;8.157550e-002
1.238128e+003;8.181573e-002
1.240056e+003;8.232951e-002
1.241985e+003;8.246858e-002
1.243913e+003;8.298627e-002
1.245842e+003;8.463091e-002
1.247771e+003;8.583914e-002
1.249699e+003;8.601837e-002
1.251628e+003;8.588748e-002
1.253556e+003;8.585966e-002
1.255485e+003;8.573952e-002
1.257413e+003;8.606155e-002
1.259342e+003;8.673624e-002
1.261270e+003;8.728946e-002
1.263199e+003;8.772674e-002
1.265127e+003;8.799596e-002
1.267056e+003;8.817076e-002
1.268985e+003;8.913525e-002
1.270913e+003;9.033974e-002
1.272842e+003;9.139105e-002
1.274770e+003;9.237630e-002
1.276699e+003;9.301950e-002
1.278627e+003;9.314369e-002
1.280556e+003;9.221766e-002
1.282484e+003;9.107624e-002
1.284413e+003;9.032391e-002
1.286342e+003;9.025147e-002
1.288270e+003;9.049406e-002
1.290199e+003;9.065680e-002
1.292127e+003;9.108506e-002
1.294056e+003;9.158600e-002
1.295984e+003;9.262865e-002
1.297913e+003;9.416658e-002
1.299841e+003;9.625383e-002
1.301770e+003;9.953144e-002
1.303698e+003;1.032823e-001
1.305627e+003;1.073173e-001
1.307556e+003;1.113918e-001
1.309484e+003;1.154842e-001
1.311413e+003;1.192784e-001
1.313341e+003;1.217073e-001
1.315270e+003;1.224186e-001
1.317198e+003;1.214985e-001
1.319127e+003;1.191552e-001
1.321055e+003;1.162222e-001
1.322984e+003;1.135668e-001
1.324912e+003;1.114378e-001
1.326841e+003;1.101226e-001
1.328770e+003;1.095010e-001
1.330698e+003;1.100135e-001
1.332627e+003;1.113816e-001
1.334555e+003;1.122638e-001
1.336484e+003;1.124103e-001
1.338412e+003;1.115778e-001
1.340341e+003;1.100345e-001
1.342269e+003;1.079041e-001
1.344198e+003;1.053280e-001
1.346126e+003;1.031249e-001
1.348055e+003;1.015677e-001
1.349984e+003;1.007808e-001
1.351912e+003;1.010366e-001
1.353841e+003;1.020446e-001
1.355769e+003;1.029114e-001
1.357698e+003;1.036010e-001
1.359626e+003;1.041780e-001
1.361555e+003;1.041860e-001
1.363483e+003;1.035440e-001
1.365412e+003;1.028186e-001
1.367341e+003;1.023942e-001
1.369269e+003;1.016439e-001
1.371198e+003;1.002444e-001
1.373126e+003;9.842273e-002
1.375055e+003;9.619073e-002
1.376983e+003;9.333412e-002
1.378912e+003;9.058483e-002
1.380840e+003;8.831225e-002
1.382769e+003;8.637008e-002
1.384698e+003;8.438091e-002
1.386626e+003;8.264698e-002
1.388555e+003;8.124594e-002
1.390483e+003;8.030063e-002
1.392412e+003;7.965198e-002
1.394340e+003;7.938004e-002
1.396269e+003;7.980581e-002
1.398197e+003;8.018030e-002
1.400126e+003;8.064228e-002
1.402054e+003;8.090690e-002
1.403983e+003;8.120591e-002
1.405911e+003;8.167198e-002
1.407840e+003;8.215364e-002
1.409769e+003;8.274074e-002
1.411697e+003;8.332088e-002
1.413626e+003;8.382226e-002
1.415554e+003;8.457064e-002
1.417483e+003;8.534685e-002
1.419411e+003;8.638176e-002
1.421340e+003;8.822653e-002
1.423268e+003;8.960820e-002
1.425197e+003;9.006646e-002
1.427125e+003;9.039608e-002
1.429054e+003;9.013426e-002
1.430983e+003;8.937538e-002
1.432911e+003;8.791530e-002
1.434840e+003;8.583713e-002
1.436768e+003;8.382844e-002
1.438697e+003;8.241519e-002
1.440625e+003;8.126248e-002
1.442554e+003;8.047526e-002
1.444482e+003;7.993811e-002
1.446411e+003;7.948618e-002
1.448340e+003;7.895537e-002
1.450268e+003;7.860667e-002
1.452197e+003;7.783674e-002
1.454125e+003;7.665203e-002
1.456054e+003;7.490701e-002
1.457982e+003;7.350462e-002
1.459911e+003;7.266627e-002
1.461839e+003;7.155963e-002
1.463768e+003;6.982775e-002
1.465697e+003;6.770890e-002
1.467625e+003;6.599460e-002
1.469554e+003;6.463584e-002
1.471482e+003;6.309507e-002
1.473411e+003;6.170955e-002
1.475339e+003;6.038478e-002
1.477268e+003;5.867675e-002
1.479196e+003;5.747071e-002
1.481125e+003;5.648404e-002
1.483053e+003;5.490895e-002
1.484982e+003;5.255701e-002
1.486911e+003;4.995804e-002
1.488839e+003;4.754118e-002
1.490768e+003;4.565118e-002
1.492696e+003;4.417389e-002
1.494625e+003;4.273143e-002
1.496553e+003;4.199348e-002
1.498482e+003;4.157556e-002
1.500410e+003;4.096644e-002
1.502339e+003;4.061753e-002
1.504267e+003;3.995980e-002
1.506196e+003;3.931275e-002
1.508125e+003;3.943541e-002
1.510053e+003;3.945108e-002
1.511982e+003;3.920184e-002
1.513910e+003;3.909991e-002
1.515839e+003;3.908284e-002
1.517767e+003;3.897742e-002
1.519696e+003;3.843709e-002
1.521624e+003;3.802294e-002
1.523553e+003;3.840661e-002
1.525481e+003;3.868267e-002
1.527410e+003;3.904009e-002
1.529339e+003;3.932178e-002
1.531267e+003;3.952358e-002
1.533196e+003;3.974955e-002
1.535124e+003;3.984295e-002
1.537053e+003;3.956666e-002
1.538981e+003;3.887091e-002
1.540910e+003;3.882844e-002
1.542838e+003;3.959759e-002
1.544767e+003;4.018785e-002
1.546695e+003;4.077721e-002
1.548624e+003;4.135133e-002
1.550553e+003;4.199173e-002
1.552481e+003;4.236931e-002
1.554410e+003;4.255477e-002
1.556338e+003;4.310326e-002
1.558267e+003;4.296665e-002
1.560195e+003;4.333308e-002
1.562124e+003;4.485013e-002
1.564052e+003;4.626842e-002
1.565981e+003;4.709042e-002
1.567910e+003;4.745938e-002
1.569838e+003;4.780950e-002
1.571767e+003;4.873579e-002
1.573695e+003;4.983085e-002
1.575624e+003;5.039687e-002
1.577552e+003;5.125607e-002
1.579481e+003;5.215892e-002
1.581409e+003;5.256198e-002
1.583338e+003;5.274602e-002
1.585266e+003;5.322168e-002
1.587195e+003;5.355699e-002
1.589124e+003;5.385110e-002
1.591052e+003;5.453913e-002
1.592981e+003;5.547810e-002
1.594909e+003;5.627880e-002
1.596838e+003;5.684951e-002
1.598766e+003;5.754829e-002
1.600695e+003;5.810102e-002
1.602623e+003;5.866041e-002
1.604552e+003;5.909248e-002
1.606480e+003;5.961795e-002
1.608409e+003;6.025466e-002
1.610338e+003;6.082689e-002
1.612266e+003;6.124678e-002
1.614195e+003;6.112410e-002
1.616123e+003;6.069861e-002
1.618052e+003;6.099246e-002
1.619980e+003;6.141510e-002
1.621909e+003;6.139842e-002
1.623837e+003;6.110026e-002
1.625766e+003;6.069728e-002
1.627694e+003;6.043040e-002
1.629623e+003;6.049088e-002
1.631552e+003;6.031206e-002
1.633480e+003;5.954030e-002
1.635409e+003;5.862335e-002
1.637337e+003;5.838728e-002
1.639266e+003;5.841365e-002
1.641194e+003;5.804292e-002
1.643123e+003;5.733926e-002
1.645051e+003;5.615235e-002
1.646980e+003;5.534382e-002
1.648909e+003;5.507352e-002
1.650837e+003;5.420442e-002
1.652766e+003;5.263581e-002
1.654694e+003;5.221071e-002
1.656623e+003;5.208487e-002
1.658551e+003;5.139889e-002
1.660480e+003;5.046129e-002
1.662408e+003;4.942203e-002
1.664337e+003;4.863586e-002
1.666266e+003;4.799741e-002
1.668194e+003;4.712605e-002
1.670123e+003;4.612919e-002
1.672051e+003;4.534921e-002
1.673980e+003;4.445885e-002
1.675908e+003;4.361742e-002
1.677837e+003;4.309686e-002
1.679765e+003;4.215851e-002
1.681694e+003;4.107121e-002
1.683622e+003;3.977621e-002
1.685551e+003;3.920521e-002
1.687479e+003;3.884279e-002
1.689408e+003;3.821013e-002
1.691337e+003;3.799295e-002
1.693265e+003;3.710974e-002
1.695194e+003;3.574354e-002
1.697122e+003;3.546442e-002
1.699051e+003;3.532455e-002
1.700979e+003;3.497882e-002
1.702908e+003;3.505374e-002
1.704836e+003;3.517452e-002
1.706765e+003;3.497490e-002
1.708693e+003;3.436378e-002
1.710622e+003;3.406683e-002
1.712551e+003;3.390229e-002
1.714479e+003;3.328620e-002
1.716408e+003;3.244176e-002
1.718336e+003;3.208141e-002
1.720265e+003;3.222987e-002
1.722193e+003;3.207641e-002
1.724122e+003;3.179532e-002
1.726050e+003;3.155051e-002
1.727979e+003;3.123743e-002
1.729908e+003;3.085993e-002
1.731836e+003;3.022319e-002
1.733765e+003;2.960466e-002
1.735693e+003;2.950798e-002
1.737622e+003;2.933686e-002
1.739550e+003;2.894490e-002
1.741479e+003;2.849210e-002
1.743407e+003;2.792437e-002
1.745336e+003;2.731746e-002
1.747265e+003;2.644088e-002
1.749193e+003;2.558802e-002
1.751122e+003;2.494289e-002
1.753050e+003;2.450372e-002
1.754979e+003;2.394278e-002
1.756907e+003;2.298933e-002
1.758836e+003;2.213405e-002
1.760764e+003;2.183611e-002
1.762693e+003;2.170087e-002
1.764621e+003;2.118814e-002
1.766550e+003;2.056371e-002
1.768479e+003;2.011992e-002
1.770407e+003;1.976264e-002
1.772336e+003;1.920667e-002
1.774264e+003;1.914358e-002
1.776193e+003;1.926372e-002
1.778121e+003;1.904109e-002
1.780050e+003;1.893414e-002
1.781978e+003;1.873026e-002
1.783907e+003;1.818305e-002
1.785835e+003;1.759874e-002
1.787764e+003;1.735413e-002
1.789693e+003;1.726314e-002
1.791621e+003;1.699137e-002
1.793550e+003;1.675906e-002
1.795478e+003;1.685060e-002
1.797407e+003;1.661672e-002
1.799335e+003;1.643626e-002
1.801264e+003;1.637772e-002
1.803192e+003;1.632811e-002
1.805121e+003;1.627383e-002
1.807049e+003;1.608006e-002
1.808978e+003;1.585144e-002
1.810907e+003;1.578793e-002
1.812835e+003;1.571578e-002
1.814764e+003;1.561369e-002
1.816692e+003;1.538864e-002
1.818621e+003;1.546421e-002
1.820549e+003;1.559274e-002
1.822478e+003;1.515238e-002
1.824406e+003;1.488375e-002
1.826335e+003;1.512566e-002
1.828264e+003;1.518158e-002
1.830192e+003;1.491283e-002
1.832121e+003;1.459403e-002
1.834049e+003;1.438557e-002
1.835978e+003;1.437279e-002
1.837906e+003;1.442773e-002
1.839835e+003;1.411799e-002
1.841763e+003;1.380792e-002
1.843692e+003;1.362315e-002
1.845620e+003;1.337815e-002
1.847549e+003;1.328549e-002
1.849478e+003;1.317963e-002
1.851406e+003;1.299205e-002
1.853335e+003;1.286756e-002
1.855263e+003;1.294156e-002
1.857192e+003;1.288958e-002
1.859120e+003;1.261033e-002
1.861049e+003;1.240473e-002
1.862977e+003;1.251650e-002
1.864906e+003;1.259730e-002
1.866834e+003;1.253969e-002
1.868763e+003;1.237694e-002
1.870692e+003;1.222908e-002
1.872620e+003;1.213131e-002
1.874549e+003;1.207717e-002
1.876477e+003;1.223098e-002
1.878406e+003;1.220846e-002
1.880334e+003;1.196285e-002
1.882263e+003;1.186086e-002
1.884191e+003;1.175170e-002
1.886120e+003;1.153000e-002
1.888048e+003;1.153092e-002
1.889977e+003;1.183920e-002
1.891906e+003;1.180570e-002
1.893834e+003;1.157060e-002
1.895763e+003;1.183586e-002
1.897691e+003;1.202856e-002
1.899620e+003;1.187342e-002
1.901548e+003;1.180216e-002
1.903477e+003;1.177216e-002
1.905405e+003;1.173291e-002
1.907334e+003;1.189944e-002
1.909262e+003;1.214426e-002
1.911191e+003;1.235863e-002
1.913120e+003;1.252312e-002
1.915048e+003;1.248117e-002
1.916977e+003;1.238843e-002
1.918905e+003;1.259174e-002
1.920834e+003;1.272741e-002
1.922762e+003;1.273731e-002
1.924691e+003;1.297911e-002
1.926619e+003;1.331924e-002
1.928548e+003;1.342582e-002
1.930477e+003;1.344960e-002
1.932405e+003;1.360059e-002
1.934334e+003;1.363344e-002
1.936262e+003;1.339725e-002
1.938191e+003;1.359016e-002
1.940119e+003;1.399471e-002
1.942048e+003;1.411340e-002
1.943976e+003;1.421401e-002
1.945905e+003;1.432749e-002
1.947833e+003;1.471597e-002
1.949762e+003;1.496018e-002
1.951691e+003;1.494026e-002
1.953619e+003;1.469348e-002
1.955548e+003;1.457854e-002
1.957476e+003;1.462737e-002
1.959405e+003;1.465441e-002
1.961333e+003;1.463502e-002
1.963262e+003;1.483619e-002
1.965190e+003;1.492483e-002
1.967119e+003;1.489390e-002
1.969047e+003;1.488244e-002
1.970976e+003;1.500868e-002
1.972905e+003;1.524860e-002
1.974833e+003;1.554696e-002
1.976762e+003;1.574347e-002
1.978690e+003;1.552272e-002
1.980619e+003;1.550641e-002
1.982547e+003;1.557148e-002
1.984476e+003;1.560462e-002
1.986404e+003;1.585347e-002
1.988333e+003;1.613484e-002
1.990261e+003;1.603179e-002
1.992190e+003;1.587429e-002
1.994119e+003;1.598112e-002
1.996047e+003;1.608030e-002
1.997976e+003;1.603172e-002
1.999904e+003;1.625188e-002
2.001833e+003;1.656453e-002
2.003761e+003;1.680462e-002
2.005690e+003;1.665658e-002
2.007618e+003;1.657713e-002
2.009547e+003;1.682277e-002
2.011476e+003;1.717495e-002
2.013404e+003;1.757193e-002
2.015333e+003;1.785994e-002
2.017261e+003;1.805878e-002
2.019190e+003;1.832535e-002
2.021118e+003;1.843613e-002
2.023047e+003;1.839420e-002
2.024975e+003;1.852253e-002
2.026904e+003;1.869771e-002
2.028833e+003;1.889357e-002
2.030761e+003;1.918971e-002
2.032690e+003;1.954160e-002
2.034618e+003;1.978549e-002
2.036547e+003;1.978355e-002
2.038475e+003;2.001793e-002
2.040404e+003;2.022564e-002
2.042332e+003;2.026904e-002
2.044261e+003;2.035362e-002
2.046189e+003;2.056823e-002
2.048118e+003;2.057695e-002
2.050047e+003;2.061732e-002
2.051975e+003;2.087677e-002
2.053904e+003;2.081705e-002
2.055832e+003;2.068049e-002
2.057761e+003;2.072272e-002
2.059689e+003;2.068445e-002
2.061618e+003;2.061423e-002
2.063546e+003;2.082191e-002
2.065475e+003;2.103512e-002
2.067404e+003;2.115735e-002
2.069332e+003;2.122582e-002
2.071260e+003;2.119948e-002
2.073189e+003;2.118883e-002
2.075118e+003;2.141037e-002
2.077046e+003;2.149750e-002
2.078975e+003;2.148560e-002
2.080903e+003;2.134239e-002
2.082832e+003;2.141883e-002
2.084760e+003;2.161603e-002
2.086689e+003;2.127436e-002
2.088617e+003;2.101227e-002
2.090546e+003;2.105700e-002
2.092475e+003;2.124983e-002
2.094403e+003;2.139070e-002
2.096332e+003;2.151937e-002
2.098260e+003;2.191528e-002
2.100189e+003;2.209615e-002
2.102117e+003;2.214099e-002
2.104046e+003;2.232020e-002
2.105974e+003;2.246603e-002
2.107903e+003;2.253164e-002
2.109832e+003;2.250756e-002
2.111760e+003;2.246397e-002
2.113688e+003;2.265544e-002
2.115617e+003;2.279007e-002
2.117546e+003;2.263778e-002
2.119474e+003;2.276046e-002
2.121403e+003;2.298472e-002
2.123331e+003;2.288272e-002
2.125260e+003;2.290381e-002
2.127188e+003;2.303142e-002
2.129117e+003;2.308702e-002
2.131045e+003;2.326016e-002
2.132974e+003;2.342844e-002
2.134903e+003;2.346971e-002
2.136831e+003;2.328589e-002
2.138760e+003;2.297916e-002
2.140688e+003;2.271266e-002
2.142617e+003;2.249545e-002
2.144545e+003;2.234176e-002
2.146474e+003;2.232931e-002
2.148402e+003;2.233677e-002
2.150331e+003;2.237658e-002
2.152260e+003;2.254479e-002
2.154188e+003;2.245731e-002
2.156117e+003;2.217149e-002
2.158045e+003;2.199788e-002
2.159974e+003;2.197135e-002
2.161902e+003;2.169920e-002
2.163831e+003;2.142568e-002
2.165759e+003;2.114966e-002
2.167688e+003;2.104430e-002
2.169616e+003;2.121614e-002
2.171545e+003;2.119468e-002
2.173474e+003;2.112517e-002
2.175402e+003;2.101968e-002
2.177331e+003;2.066301e-002
2.179259e+003;2.038049e-002
2.181188e+003;2.029386e-002
2.183116e+003;2.020582e-002
2.185045e+003;2.024474e-002
2.186973e+003;2.014144e-002
2.188902e+003;2.008702e-002
2.190831e+003;2.014519e-002
2.192759e+003;1.971714e-002
2.194688e+003;1.945558e-002
2.196616e+003;1.950271e-002
2.198545e+003;1.954905e-002
2.200473e+003;1.985655e-002
2.202402e+003;1.982842e-002
2.204330e+003;1.978445e-002
2.206259e+003;1.992627e-002
2.208188e+003;1.992031e-002
2.210116e+003;1.986068e-002
2.212044e+003;1.980543e-002
2.213973e+003;1.993144e-002
2.215902e+003;2.001172e-002
2.217830e+003;2.020034e-002
2.219759e+003;2.039209e-002
2.221687e+003;2.014223e-002
2.223616e+003;2.014918e-002
2.225544e+003;2.039011e-002
2.227473e+003;2.027487e-002
2.229401e+003;2.019242e-002
2.231330e+003;2.047194e-002
2.233259e+003;2.058074e-002
2.235187e+003;2.059689e-002
2.237116e+003;2.051786e-002
2.239044e+003;2.036813e-002
2.240973e+003;2.046061e-002
2.242901e+003;2.068515e-002
2.244830e+003;2.063223e-002
2.246758e+003;2.061607e-002
2.248687e+003;2.053905e-002
2.250615e+003;2.024633e-002
2.252544e+003;2.033063e-002
2.254473e+003;2.040810e-002
2.256401e+003;2.026057e-002
2.258330e+003;1.997640e-002
2.260258e+003;1.984986e-002
2.262187e+003;2.025928e-002
2.264115e+003;2.027602e-002
2.266044e+003;2.015848e-002
2.267972e+003;2.030271e-002
2.269901e+003;2.017601e-002
2.271830e+003;1.995628e-002
2.273758e+003;1.980061e-002
2.275687e+003;1.969114e-002
2.277615e+003;1.975095e-002
2.279544e+003;1.992423e-002
2.281472e+003;2.003466e-002
2.283401e+003;1.994084e-002
2.285329e+003;1.984587e-002
2.287258e+003;2.005791e-002
2.289187e+003;2.049761e-002
2.291115e+003;2.042186e-002
2.293043e+003;2.029421e-002
2.294972e+003;2.025349e-002
2.296901e+003;2.029508e-002
2.298829e+003;2.027904e-002
2.300758e+003;2.003743e-002
2.302686e+003;1.980658e-002
2.304615e+003;1.979544e-002
2.306543e+003;1.968587e-002
2.308472e+003;1.949935e-002
2.310400e+003;1.967824e-002
2.312329e+003;2.001818e-002
2.314258e+003;2.016705e-002
2.316186e+003;1.989987e-002
2.318115e+003;1.971295e-002
2.320043e+003;2.001502e-002
2.321972e+003;2.034962e-002
2.323900e+003;2.035080e-002
2.325829e+003;2.022450e-002
2.327757e+003;2.007033e-002
2.329686e+003;2.004663e-002
2.331615e+003;2.014755e-002
2.333543e+003;2.027674e-002
2.335472e+003;2.029112e-002
2.337400e+003;2.023234e-002
2.339329e+003;2.033816e-002
2.341257e+003;2.061649e-002
2.343186e+003;2.107522e-002
2.345114e+003;2.136992e-002
2.347043e+003;2.150993e-002
2.348971e+003;2.158208e-002
2.350900e+003;2.174623e-002
2.352829e+003;2.198477e-002
2.354757e+003;2.181113e-002
2.356686e+003;2.149218e-002
2.358614e+003;2.151411e-002
2.360543e+003;2.176545e-002
2.362471e+003;2.186520e-002
2.364400e+003;2.179092e-002
2.366328e+003;2.232833e-002
2.368257e+003;2.293406e-002
2.370186e+003;2.307129e-002
2.372114e+003;2.352969e-002
2.374042e+003;2.401281e-002
2.375971e+003;2.414772e-002
2.377900e+003;2.429377e-002
2.379828e+003;2.466445e-002
2.381757e+003;2.477318e-002
2.383685e+003;2.492156e-002
2.385614e+003;2.535346e-002
2.387542e+003;2.555987e-002
2.389471e+003;2.547371e-002
2.391399e+003;2.551307e-002
2.393328e+003;2.564401e-002
2.395257e+003;2.570507e-002
2.397185e+003;2.587367e-002
2.399114e+003;2.598724e-002
2.401042e+003;2.609683e-002
2.402971e+003;2.630135e-002
2.404899e+003;2.627192e-002
2.406828e+003;2.606678e-002
2.408756e+003;2.623549e-002
2.410685e+003;2.667177e-002
2.412614e+003;2.711423e-002
2.414542e+003;2.740921e-002
2.416471e+003;2.775988e-002
2.418399e+003;2.777867e-002
2.420328e+003;2.759129e-002
2.422256e+003;2.780177e-002
2.424185e+003;2.818999e-002
2.426113e+003;2.821226e-002
2.428042e+003;2.804092e-002
2.429970e+003;2.814071e-002
2.431899e+003;2.841866e-002
2.433828e+003;2.891709e-002
2.435756e+003;2.931573e-002
2.437685e+003;2.960721e-002
2.439613e+003;2.991944e-002
2.441542e+003;3.008375e-002
2.443470e+003;3.005094e-002
2.445399e+003;3.001487e-002
2.447327e+003;3.030035e-002
2.449256e+003;3.077473e-002
2.451185e+003;3.077470e-002
2.453113e+003;3.080180e-002
2.455042e+003;3.096065e-002
2.456970e+003;3.104008e-002
2.458899e+003;3.116782e-002
2.460827e+003;3.113871e-002
2.462756e+003;3.111468e-002
2.464684e+003;3.129052e-002
2.466613e+003;3.147858e-002
2.468542e+003;3.155471e-002
2.470470e+003;3.171918e-002
2.472398e+003;3.222384e-002
2.474327e+003;3.263625e-002
2.476256e+003;3.254728e-002
2.478184e+003;3.250800e-002
2.480113e+003;3.268383e-002
2.482041e+003;3.289873e-002
2.483970e+003;3.306850e-002
2.485898e+003;3.341679e-002
2.487827e+003;3.374731e-002
2.489755e+003;3.387177e-002
2.491684e+003;3.395539e-002
2.493613e+003;3.409966e-002
2.495541e+003;3.416439e-002
2.497470e+003;3.432358e-002
2.499398e+003;3.476368e-002
2.501327e+003;3.529041e-002
2.503255e+003;3.556478e-002
2.505184e+003;3.540312e-002
2.507112e+003;3.524890e-002
2.509041e+003;3.566757e-002
2.510969e+003;3.604880e-002
2.512898e+003;3.621027e-002
2.514827e+003;3.640281e-002
2.516755e+003;3.648089e-002
2.518684e+003;3.670568e-002
2.520612e+003;3.681304e-002
2.522541e+003;3.723740e-002
2.524469e+003;3.732460e-002
2.526398e+003;3.724563e-002
2.528326e+003;3.736471e-002
2.530255e+003;3.736681e-002
2.532184e+003;3.733554e-002
2.534112e+003;3.756648e-002
2.536041e+003;3.791767e-002
2.537969e+003;3.781326e-002
2.539898e+003;3.765810e-002
2.541826e+003;3.759632e-002
2.543755e+003;3.783969e-002
2.545683e+003;3.811152e-002
2.547612e+003;3.799194e-002
2.549541e+003;3.797943e-002
2.551469e+003;3.808117e-002
2.553397e+003;3.810160e-002
2.555326e+003;3.826796e-002
2.557255e+003;3.842554e-002
2.559183e+003;3.844686e-002
2.561112e+003;3.829998e-002
2.563040e+003;3.827566e-002
2.564969e+003;3.847253e-002
2.566897e+003;3.861581e-002
2.568826e+003;3.867231e-002
2.570754e+003;3.885873e-002
2.572683e+003;3.908769e-002
2.574612e+003;3.907124e-002
2.576540e+003;3.910687e-002
2.578469e+003;3.906387e-002
2.580397e+003;3.902048e-002
2.582326e+003;3.916978e-002
2.584254e+003;3.923963e-002
2.586183e+003;3.945855e-002
2.588111e+003;3.984502e-002
2.590040e+003;3.990295e-002
2.591969e+003;3.972817e-002
2.593897e+003;3.968946e-002
2.595826e+003;4.011080e-002
2.597754e+003;4.059199e-002
2.599683e+003;4.061994e-002
2.601611e+003;4.063806e-002
2.603540e+003;4.050607e-002
2.605468e+003;4.025085e-002
2.607397e+003;4.041082e-002
2.609325e+003;4.112362e-002
2.611254e+003;4.149342e-002
2.613183e+003;4.125546e-002
2.615111e+003;4.154278e-002
2.617040e+003;4.196629e-002
2.618968e+003;4.223903e-002
2.620897e+003;4.241333e-002
2.622825e+003;4.239740e-002
2.624754e+003;4.230028e-002
2.626682e+003;4.219178e-002
2.628611e+003;4.241457e-002
2.630540e+003;4.261899e-002
2.632468e+003;4.292093e-002
2.634396e+003;4.332477e-002
2.636325e+003;4.362812e-002
2.638254e+003;4.351573e-002
2.640182e+003;4.336391e-002
2.642111e+003;4.378201e-002
2.644039e+003;4.405685e-002
2.645968e+003;4.391386e-002
2.647896e+003;4.390462e-002
2.649825e+003;4.406745e-002
2.651753e+003;4.455462e-002
2.653682e+003;4.516263e-002
2.655611e+003;4.556057e-002
2.657539e+003;4.555310e-002
2.659468e+003;4.552628e-002
2.661396e+003;4.572443e-002
2.663325e+003;4.620028e-002
2.665253e+003;4.669590e-002
2.667182e+003;4.667414e-002
2.669110e+003;4.647370e-002
2.671039e+003;4.668572e-002
2.672968e+003;4.699438e-002
2.674896e+003;4.728988e-002
2.676825e+003;4.753497e-002
2.678753e+003;4.755105e-002
2.680682e+003;4.779522e-002
2.682610e+003;4.829137e-002
2.684539e+003;4.865110e-002
2.686467e+003;4.879069e-002
2.688396e+003;4.895963e-002
2.690324e+003;4.947999e-002
2.692253e+003;4.994146e-002
2.694182e+003;4.973543e-002
2.696110e+003;4.949503e-002
2.698039e+003;4.979845e-002
2.699967e+003;5.018251e-002
2.701896e+003;5.064454e-002
2.703824e+003;5.095726e-002
2.705753e+003;5.107751e-002
2.707681e+003;5.182865e-002
2.709610e+003;5.233108e-002
2.711539e+003;5.214465e-002
2.713467e+003;5.191961e-002
2.715396e+003;5.185426e-002
2.717324e+003;5.218747e-002
2.719253e+003;5.273375e-002
2.721181e+003;5.286620e-002
2.723110e+003;5.304913e-002
2.725038e+003;5.363676e-002
2.726967e+003;5.363305e-002
2.728896e+003;5.348244e-002
2.730824e+003;5.386254e-002
2.732752e+003;5.394060e-002
2.734681e+003;5.388707e-002
2.736610e+003;5.396518e-002
2.738538e+003;5.404893e-002
2.740467e+003;5.389596e-002
2.742395e+003;5.375145e-002
2.744324e+003;5.380373e-002
2.746252e+003;5.387552e-002
2.748181e+003;5.416084e-002
2.750109e+003;5.454030e-002
2.752038e+003;5.501669e-002
2.753967e+003;5.497073e-002
2.755895e+003;5.506750e-002
2.757824e+003;5.532376e-002
2.759752e+003;5.515112e-002
2.761681e+003;5.502478e-002
2.763609e+003;5.541760e-002
2.765538e+003;5.572394e-002
2.767466e+003;5.596072e-002
2.769395e+003;5.583839e-002
2.771323e+003;5.588682e-002
2.773252e+003;5.641585e-002
2.775181e+003;5.696612e-002
2.777109e+003;5.688947e-002
2.779038e+003;5.669209e-002
2.780966e+003;5.668042e-002
2.782895e+003;5.699521e-002
2.784823e+003;5.776147e-002
2.786752e+003;5.795495e-002
2.788680e+003;5.761503e-002
2.790609e+003;5.776041e-002
2.792538e+003;5.847305e-002
2.794466e+003;5.926199e-002
2.796395e+003;5.947137e-002
2.798323e+003;5.941320e-002
2.800252e+003;5.960590e-002
2.802180e+003;6.001293e-002
2.804109e+003;6.038691e-002
2.806037e+003;6.046681e-002
2.807966e+003;6.101949e-002
2.809895e+003;6.209845e-002
2.811823e+003;6.265812e-002
2.813751e+003;6.293371e-002
2.815680e+003;6.334990e-002
2.817609e+003;6.356407e-002
2.819537e+003;6.385556e-002
2.821466e+003;6.444232e-002
2.823394e+003;6.494002e-002
2.825323e+003;6.546183e-002
2.827251e+003;6.592607e-002
2.829180e+003;6.656399e-002
2.831108e+003;6.726021e-002
2.833037e+003;6.777307e-002
2.834966e+003;6.846744e-002
2.836894e+003;6.949163e-002
2.838823e+003;7.086304e-002
2.840751e+003;7.197189e-002
2.842680e+003;7.274383e-002
2.844608e+003;7.394651e-002
2.846537e+003;7.609920e-002
2.848465e+003;7.854655e-002
2.850394e+003;8.041418e-002
2.852323e+003;8.112846e-002
2.854251e+003;8.120987e-002
2.856180e+003;8.151262e-002
2.858108e+003;8.182125e-002
2.860037e+003;8.252552e-002
2.861965e+003;8.319341e-002
2.863894e+003;8.368086e-002
2.865822e+003;8.444614e-002
2.867751e+003;8.514073e-002
2.869679e+003;8.582037e-002
2.871608e+003;8.634385e-002
2.873536e+003;8.654758e-002
2.875465e+003;8.699813e-002
2.877394e+003;8.766446e-002
2.879322e+003;8.825520e-002
2.881251e+003;8.836813e-002
2.883179e+003;8.852547e-002
2.885108e+003;8.920425e-002
2.887036e+003;8.986265e-002
2.888965e+003;9.040294e-002
2.890893e+003;9.086694e-002
2.892822e+003;9.113199e-002
2.894750e+003;9.098316e-002
2.896679e+003;9.131872e-002
2.898608e+003;9.202583e-002
2.900536e+003;9.227110e-002
2.902465e+003;9.229138e-002
2.904393e+003;9.182414e-002
2.906322e+003;9.111976e-002
2.908250e+003;9.040106e-002
2.910179e+003;9.017700e-002
2.912107e+003;9.039833e-002
2.914036e+003;9.034806e-002
2.915965e+003;9.030429e-002
2.917893e+003;9.006821e-002
2.919822e+003;8.934396e-002
2.921750e+003;8.823197e-002
2.923679e+003;8.674692e-002
2.925607e+003;8.528318e-002
2.927536e+003;8.378689e-002
2.929464e+003;8.243550e-002
2.931393e+003;8.159785e-002
2.933322e+003;8.081218e-002
2.935250e+003;7.974370e-002
2.937178e+003;7.871322e-002
2.939107e+003;7.810263e-002
2.941036e+003;7.760186e-002
2.942964e+003;7.702389e-002
2.944893e+003;7.608882e-002
2.946821e+003;7.485572e-002
2.948750e+003;7.407337e-002
2.950678e+003;7.369056e-002
2.952607e+003;7.279597e-002
2.954535e+003;7.157917e-002
2.956464e+003;7.062606e-002
2.958393e+003;6.996588e-002
2.960321e+003;6.918145e-002
2.962250e+003;6.822029e-002
2.964178e+003;6.746347e-002
2.966107e+003;6.707317e-002
2.968035e+003;6.676348e-002
2.969964e+003;6.623316e-002
2.971892e+003;6.553473e-002
2.973821e+003;6.490777e-002
2.975750e+003;6.405991e-002
2.977678e+003;6.306630e-002
2.979607e+003;6.217847e-002
2.981535e+003;6.135152e-002
2.983464e+003;6.074845e-002
2.985392e+003;6.026253e-002
2.987321e+003;5.981625e-002
2.989249e+003;5.941780e-002
2.991178e+003;5.909279e-002
2.993106e+003;5.864357e-002
2.995035e+003;5.816284e-002
2.996964e+003;5.817026e-002
2.998892e+003;5.810253e-002
3.000821e+003;5.828802e-002
3.002749e+003;5.846161e-002
3.004678e+003;5.833035e-002
3.006606e+003;5.792913e-002
3.008535e+003;5.806125e-002
3.010463e+003;5.869287e-002
3.012392e+003;5.931500e-002
3.014321e+003;5.922180e-002
3.016249e+003;5.877807e-002
3.018177e+003;5.880709e-002
3.020106e+003;5.897652e-002
3.022035e+003;5.920312e-002
3.023963e+003;5.952267e-002
3.025892e+003;5.965908e-002
3.027820e+003;5.977960e-002
3.029749e+003;5.985128e-002
3.031677e+003;6.021659e-002
3.033606e+003;6.085292e-002
3.035534e+003;6.170008e-002
3.037463e+003;6.198722e-002
3.039392e+003;6.177685e-002
3.041320e+003;6.221773e-002
3.043249e+003;6.302293e-002
3.045177e+003;6.329206e-002
3.047106e+003;6.313036e-002
3.049034e+003;6.380578e-002
3.050963e+003;6.439978e-002
3.052891e+003;6.452189e-002
3.054820e+003;6.467387e-002
3.056749e+003;6.513503e-002
3.058677e+003;6.536857e-002
3.060606e+003;6.546807e-002
3.062534e+003;6.612997e-002
3.064463e+003;6.663934e-002
3.066391e+003;6.670842e-002
3.068320e+003;6.704170e-002
3.070248e+003;6.782188e-002
3.072177e+003;6.834871e-002
3.074105e+003;6.864196e-002
3.076034e+003;6.887098e-002
3.077963e+003;6.929380e-002
3.079891e+003;6.980044e-002
3.081820e+003;7.034877e-002
3.083748e+003;7.098714e-002
3.085677e+003;7.126523e-002
3.087605e+003;7.165384e-002
3.089534e+003;7.225366e-002
3.091462e+003;7.239417e-002
3.093391e+003;7.249411e-002
3.095320e+003;7.308189e-002
3.097248e+003;7.334877e-002
3.099177e+003;7.331021e-002
3.101105e+003;7.395377e-002
3.103034e+003;7.485717e-002
3.104962e+003;7.509544e-002
3.106891e+003;7.529239e-002
3.108819e+003;7.583662e-002
3.110748e+003;7.631327e-002
3.112677e+003;7.659068e-002
3.114605e+003;7.681330e-002
3.116533e+003;7.741678e-002
3.118462e+003;7.793906e-002
3.120391e+003;7.844870e-002
3.122319e+003;7.897250e-002
3.124248e+003;7.936795e-002
3.126176e+003;7.991735e-002
3.128105e+003;8.044197e-002
3.130033e+003;8.093888e-002
3.131962e+003;8.166543e-002
3.133890e+003;8.201127e-002
3.135819e+003;8.210212e-002
3.137748e+003;8.218984e-002
3.139676e+003;8.281587e-002
3.141605e+003;8.377773e-002
3.143533e+003;8.423699e-002
3.145462e+003;8.456980e-002
3.147390e+003;8.502305e-002
3.149319e+003;8.572631e-002
3.151247e+003;8.632865e-002
3.153176e+003;8.708566e-002
3.155104e+003;8.759890e-002
3.157033e+003;8.781759e-002
3.158962e+003;8.829089e-002
3.160890e+003;8.867915e-002
3.162819e+003;8.936752e-002
3.164747e+003;9.017190e-002
3.166676e+003;9.049055e-002
3.168604e+003;9.119403e-002
3.170533e+003;9.190004e-002
3.172461e+003;9.169247e-002
3.174390e+003;9.190057e-002
3.176319e+003;9.302824e-002
3.178247e+003;9.348852e-002
3.180176e+003;9.377244e-002
3.182104e+003;9.459858e-002
3.184033e+003;9.554468e-002
3.185961e+003;9.650394e-002
3.187890e+003;9.748307e-002
3.189818e+003;9.810954e-002
3.191747e+003;9.835067e-002
3.193676e+003;9.863865e-002
3.195604e+003;9.955565e-002
3.197532e+003;1.006219e-001
3.199461e+003;1.016025e-001
3.201390e+003;1.022402e-001
3.203318e+003;1.025280e-001
3.205247e+003;1.030972e-001
3.207175e+003;1.036577e-001
3.209104e+003;1.042513e-001
3.211032e+003;1.055837e-001
3.212961e+003;1.066819e-001
3.214889e+003;1.071149e-001
3.216818e+003;1.078170e-001
3.218747e+003;1.086710e-001
3.220675e+003;1.097322e-001
3.222604e+003;1.108622e-001
3.224532e+003;1.118506e-001
3.226461e+003;1.122073e-001
3.228389e+003;1.127805e-001
3.230318e+003;1.140479e-001
3.232246e+003;1.155499e-001
3.234175e+003;1.158418e-001
3.236104e+003;1.157385e-001
3.238032e+003;1.166681e-001
3.239961e+003;1.179912e-001
3.241889e+003;1.187929e-001
3.243818e+003;1.196636e-001
3.245746e+003;1.208731e-001
3.247675e+003;1.220071e-001
3.249603e+003;1.231317e-001
3.251532e+003;1.239862e-001
3.253460e+003;1.249428e-001
3.255389e+003;1.261114e-001
3.257318e+003;1.269803e-001
3.259246e+003;1.275558e-001
3.261175e+003;1.278579e-001
3.263103e+003;1.289496e-001
3.265032e+003;1.301320e-001
3.266960e+003;1.308379e-001
3.268889e+003;1.311923e-001
3.270817e+003;1.318620e-001
3.272746e+003;1.323949e-001
3.274675e+003;1.326315e-001
3.276603e+003;1.329944e-001
3.278531e+003;1.336699e-001
3.280460e+003;1.342147e-001
3.282389e+003;1.346222e-001
3.284317e+003;1.350356e-001
3.286246e+003;1.355417e-001
3.288174e+003;1.358578e-001
3.290103e+003;1.357131e-001
3.292031e+003;1.357640e-001
3.293960e+003;1.357688e-001
3.295888e+003;1.358149e-001
3.297817e+003;1.357288e-001
3.299746e+003;1.357382e-001
3.301674e+003;1.362363e-001
3.303603e+003;1.363818e-001
3.305531e+003;1.360367e-001
3.307460e+003;1.358304e-001
3.309388e+003;1.362875e-001
3.311317e+003;1.364522e-001
3.313245e+003;1.368865e-001
3.315174e+003;1.375093e-001
3.317103e+003;1.377611e-001
3.319031e+003;1.381242e-001
3.320960e+003;1.383195e-001
3.322888e+003;1.382502e-001
3.324817e+003;1.383929e-001
3.326745e+003;1.385024e-001
3.328674e+003;1.384801e-001
3.330602e+003;1.386652e-001
3.332531e+003;1.386817e-001
3.334459e+003;1.387957e-001
3.336388e+003;1.385425e-001
3.338317e+003;1.377492e-001
3.340245e+003;1.369639e-001
3.342174e+003;1.369430e-001
3.344102e+003;1.367982e-001
3.346031e+003;1.355048e-001
3.347959e+003;1.342984e-001
3.349888e+003;1.335673e-001
3.351816e+003;1.329760e-001
3.353745e+003;1.324229e-001
3.355674e+003;1.313927e-001
3.357602e+003;1.302510e-001
3.359531e+003;1.292782e-001
3.361459e+003;1.289007e-001
3.363388e+003;1.284882e-001
3.365316e+003;1.273193e-001
3.367245e+003;1.265410e-001
3.369173e+003;1.262005e-001
3.371102e+003;1.252467e-001
3.373031e+003;1.245431e-001
3.374959e+003;1.240738e-001
3.376887e+003;1.236001e-001
3.378816e+003;1.225977e-001
3.380745e+003;1.216051e-001
3.382673e+003;1.209600e-001
3.384602e+003;1.205493e-001
3.386530e+003;1.202262e-001
3.388459e+003;1.194917e-001
3.390387e+003;1.189300e-001
3.392316e+003;1.186333e-001
3.394244e+003;1.181430e-001
3.396173e+003;1.177480e-001
3.398102e+003;1.168449e-001
3.400030e+003;1.160255e-001
3.401959e+003;1.151827e-001
3.403887e+003;1.142179e-001
3.405816e+003;1.135968e-001
3.407744e+003;1.127045e-001
3.409673e+003;1.121456e-001
3.411601e+003;1.112925e-001
3.413530e+003;1.100395e-001
3.415458e+003;1.089318e-001
3.417387e+003;1.078609e-001
3.419316e+003;1.070754e-001
3.421244e+003;1.065312e-001
3.423173e+003;1.058644e-001
3.425101e+003;1.049280e-001
3.427030e+003;1.040933e-001
3.428958e+003;1.029979e-001
3.430887e+003;1.020990e-001
3.432815e+003;1.019974e-001
3.434744e+003;1.009964e-001
3.436673e+003;1.000370e-001
3.438601e+003;9.917720e-002
3.440530e+003;9.791190e-002
3.442458e+003;9.733902e-002
3.444387e+003;9.659113e-002
3.446315e+003;9.556784e-002
3.448244e+003;9.490000e-002
3.450172e+003;9.427685e-002
3.452101e+003;9.330993e-002
3.454030e+003;9.219849e-002
3.455958e+003;9.174023e-002
3.457886e+003;9.102757e-002
3.459815e+003;9.002418e-002
3.461744e+003;8.899447e-002
3.463672e+003;8.767638e-002
3.465601e+003;8.681696e-002
3.467529e+003;8.652215e-002
3.469458e+003;8.573217e-002
3.471386e+003;8.461972e-002
3.473315e+003;8.370830e-002
3.475243e+003;8.282990e-002
3.477172e+003;8.220705e-002
3.479101e+003;8.199722e-002
3.481029e+003;8.149759e-002
3.482958e+003;7.983014e-002
3.484886e+003;7.861505e-002
3.486815e+003;7.801657e-002
3.488743e+003;7.708649e-002
3.490672e+003;7.599261e-002
3.492600e+003;7.523695e-002
3.494529e+003;7.496434e-002
3.496458e+003;7.513334e-002
3.498386e+003;7.484091e-002
3.500315e+003;7.325687e-002
3.502243e+003;7.184947e-002
3.504172e+003;7.134032e-002
3.506100e+003;7.092717e-002
3.508029e+003;7.003444e-002
3.509957e+003;6.922458e-002
3.511886e+003;6.883480e-002
3.513814e+003;6.805671e-002
3.515743e+003;6.696708e-002
3.517672e+003;6.616080e-002
3.519600e+003;6.550598e-002
3.521529e+003;6.484718e-002
3.523457e+003;6.457774e-002
3.525386e+003;6.430656e-002
3.527314e+003;6.353991e-002
3.529243e+003;6.255727e-002
3.531171e+003;6.195191e-002
3.533100e+003;6.146323e-002
3.535029e+003;6.038463e-002
3.536957e+003;5.966026e-002
3.538885e+003;5.941123e-002
3.540814e+003;5.843803e-002
3.542743e+003;5.722112e-002
3.544671e+003;5.646354e-002
3.546600e+003;5.635039e-002
3.548528e+003;5.616132e-002
3.550457e+003;5.591682e-002
3.552385e+003;5.510452e-002
3.554314e+003;5.394755e-002
3.556242e+003;5.329334e-002
3.558171e+003;5.265507e-002
3.560100e+003;5.209395e-002
3.562028e+003;5.137163e-002
3.563957e+003;5.005143e-002
3.565885e+003;4.903411e-002
3.567814e+003;4.853737e-002
3.569742e+003;4.841474e-002
3.571671e+003;4.840848e-002
3.573599e+003;4.788400e-002
3.575528e+003;4.753061e-002
3.577457e+003;4.698939e-002
3.579385e+003;4.659799e-002
3.581314e+003;4.620275e-002
3.583242e+003;4.503411e-002
3.585171e+003;4.354866e-002
3.587099e+003;4.282295e-002
3.589028e+003;4.223655e-002
3.590956e+003;4.180413e-002
3.592885e+003;4.129754e-002
3.594813e+003;4.085110e-002
3.596742e+003;4.051142e-002
3.598671e+003;3.970696e-002
3.600599e+003;3.856482e-002
3.602528e+003;3.787128e-002
3.604456e+003;3.739497e-002
3.606385e+003;3.664630e-002
3.608313e+003;3.602349e-002
3.610242e+003;3.538529e-002
3.612170e+003;3.447625e-002
3.614099e+003;3.400688e-002
3.616028e+003;3.310515e-002
3.617956e+003;3.186624e-002
3.619885e+003;3.086292e-002
3.621813e+003;2.976949e-002
3.623742e+003;2.915465e-002
3.625670e+003;2.865736e-002
3.627599e+003;2.789101e-002
3.629527e+003;2.741956e-002
3.631456e+003;2.780004e-002
3.633385e+003;2.743039e-002
3.635313e+003;2.603762e-002
3.637241e+003;2.537281e-002
3.639170e+003;2.472046e-002
3.641099e+003;2.393434e-002
3.643027e+003;2.359049e-002
3.644956e+003;2.318074e-002
3.646884e+003;2.186290e-002
3.648813e+003;2.067844e-002
3.650741e+003;2.028615e-002
3.652670e+003;2.026588e-002
3.654598e+003;1.973535e-002
3.656527e+003;1.861767e-002
3.658456e+003;1.844377e-002
3.660384e+003;1.854677e-002
3.662313e+003;1.818864e-002
3.664241e+003;1.751024e-002
3.666170e+003;1.712484e-002
3.668098e+003;1.671309e-002
3.670027e+003;1.568098e-002
3.671955e+003;1.506902e-002
3.673884e+003;1.460445e-002
3.675813e+003;1.362524e-002
3.677741e+003;1.327281e-002
3.679669e+003;1.339513e-002
3.681598e+003;1.331295e-002
3.683527e+003;1.344116e-002
3.685455e+003;1.331039e-002
3.687384e+003;1.272072e-002
3.689312e+003;1.277337e-002
3.691241e+003;1.300895e-002
3.693169e+003;1.269196e-002
3.695098e+003;1.213117e-002
3.697026e+003;1.160017e-002
3.698955e+003;1.123976e-002
3.700884e+003;1.141178e-002
3.702812e+003;1.166667e-002
3.704741e+003;1.154845e-002
3.706669e+003;1.159367e-002
3.708598e+003;1.110754e-002
3.710526e+003;1.048236e-002
3.712455e+003;1.054903e-002
3.714383e+003;1.096300e-002
3.716312e+003;1.107896e-002
3.718240e+003;1.013618e-002
3.720169e+003;9.599204e-003
3.722098e+003;1.023974e-002
3.724026e+003;1.005774e-002
3.725955e+003;9.603269e-003
3.727883e+003;9.712089e-003
3.729812e+003;9.697248e-003
3.731740e+003;9.562351e-003
3.733669e+003;9.274266e-003
3.735597e+003;9.319389e-003
3.737526e+003;9.619903e-003
3.739455e+003;9.712903e-003
3.741383e+003;9.630980e-003
3.743312e+003;8.634277e-003
3.745240e+003;8.137339e-003
3.747169e+003;8.677171e-003
3.749097e+003;8.763579e-003
3.751026e+003;8.905703e-003
3.752954e+003;9.232092e-003
3.754883e+003;9.616041e-003
3.756812e+003;9.449200e-003
3.758740e+003;9.389741e-003
3.760668e+003;9.718527e-003
3.762597e+003;9.707210e-003
3.764526e+003;9.394921e-003
3.766454e+003;9.615329e-003
3.768383e+003;9.760274e-003
3.770311e+003;9.543112e-003
3.772240e+003;9.206539e-003
3.774168e+003;9.057753e-003
3.776097e+003;8.911858e-003
3.778025e+003;9.059985e-003
3.779954e+003;9.696131e-003
3.781883e+003;1.013238e-002
3.783811e+003;9.988666e-003
3.785740e+003;9.678716e-003
3.787668e+003;9.332254e-003
3.789597e+003;9.280561e-003
3.791525e+003;9.591515e-003
3.793454e+003;1.000077e-002
3.795382e+003;1.005519e-002
3.797311e+003;9.977613e-003
3.799240e+003;9.896318e-003
3.801168e+003;9.855846e-003
3.803097e+003;9.689185e-003
3.805025e+003;9.103395e-003
3.806954e+003;8.905973e-003
3.808882e+003;9.969984e-003
3.810811e+003;1.072391e-002
3.812739e+003;1.054662e-002
3.814668e+003;9.415237e-003
3.816596e+003;9.234867e-003
3.818525e+003;9.733877e-003
3.820454e+003;9.532477e-003
3.822382e+003;9.927438e-003
3.824311e+003;1.045426e-002
3.826239e+003;1.025602e-002
3.828168e+003;1.004488e-002
3.830096e+003;1.023322e-002
3.832025e+003;1.056788e-002
3.833953e+003;1.072727e-002
3.835882e+003;1.031142e-002
3.837811e+003;9.871472e-003
3.839739e+003;1.020751e-002
3.841667e+003;1.050276e-002
3.843596e+003;1.060662e-002
3.845525e+003;1.077553e-002
3.847453e+003;1.097197e-002
3.849382e+003;1.082920e-002
3.851310e+003;1.003315e-002
3.853239e+003;9.481438e-003
3.855167e+003;1.020212e-002
3.857096e+003;1.126598e-002
3.859024e+003;1.156709e-002
3.860953e+003;1.111676e-002
3.862882e+003;1.095824e-002
3.864810e+003;1.157026e-002
3.866739e+003;1.171136e-002
3.868667e+003;1.144774e-002
3.870596e+003;1.148271e-002
3.872524e+003;1.179804e-002
3.874453e+003;1.212552e-002
3.876381e+003;1.245625e-002
3.878310e+003;1.235178e-002
3.880239e+003;1.211540e-002
3.882167e+003;1.196078e-002
3.884096e+003;1.206423e-002
3.886024e+003;1.226380e-002
3.887953e+003;1.216992e-002
3.889881e+003;1.203047e-002
3.891810e+003;1.284900e-002
3.893738e+003;1.383781e-002
3.895667e+003;1.392306e-002
3.897595e+003;1.305027e-002
3.899524e+003;1.266351e-002
3.901453e+003;1.278532e-002
3.903381e+003;1.288227e-002
3.905310e+003;1.319968e-002
3.907238e+003;1.354568e-002
3.909167e+003;1.397110e-002
3.911095e+003;1.392077e-002
3.913024e+003;1.333260e-002
3.914952e+003;1.332631e-002
3.916881e+003;1.355823e-002
3.918810e+003;1.401210e-002
3.920738e+003;1.425181e-002
3.922667e+003;1.437053e-002
3.924595e+003;1.456545e-002
3.926524e+003;1.443400e-002
3.928452e+003;1.401275e-002
3.930381e+003;1.391479e-002
3.932309e+003;1.436184e-002
3.934238e+003;1.490682e-002
3.936167e+003;1.507509e-002
3.938095e+003;1.468255e-002
3.940023e+003;1.414554e-002
3.941952e+003;1.417574e-002
3.943881e+003;1.484144e-002
3.945809e+003;1.531961e-002
3.947738e+003;1.579532e-002
3.949666e+003;1.611693e-002
3.951595e+003;1.605215e-002
3.953523e+003;1.591474e-002
3.955452e+003;1.583487e-002
3.957380e+003;1.596063e-002
3.959309e+003;1.633472e-002
3.961238e+003;1.648832e-002
3.963166e+003;1.681296e-002
3.965095e+003;1.676722e-002
3.967023e+003;1.623485e-002
3.968952e+003;1.592255e-002
3.970880e+003;1.605166e-002
3.972809e+003;1.622832e-002
3.974737e+003;1.643822e-002
3.976666e+003;1.634948e-002
3.978594e+003;1.718588e-002
3.980523e+003;1.786902e-002
3.982452e+003;1.684792e-002
3.984380e+003;1.659334e-002
3.986309e+003;1.702717e-002
3.988237e+003;1.697211e-002
3.990166e+003;1.726197e-002
3.992094e+003;1.737462e-002
3.994023e+003;1.703837e-002
3.995951e+003;1.750075e-002
3.997880e+003;1.823162e-002
3.999809e+003;1.838787e-002
4.001737e+003;0.000000e+000
