3.992094e+002;0.000000e+000
4.011380e+002;0.000000e+000
4.030665e+002;0.000000e+000
4.049951e+002;0.000000e+000
4.069236e+002;0.000000e+000
4.088522e+002;0.000000e+000
4.107807e+002;0.000000e+000
4.127093e+002;0.000000e+000
4.146378e+002;0.000000e+000
4.165664e+002;0.000000e+000
4.184949e+002;0.000000e+000
4.204235e+002;0.000000e+000
4.223520e+002;0.000000e+000
4.242806e+002;0.000000e+000
4.262091e+002;0.000000e+000
4.281377e+002;0.000000e+000
4.300662e+002;0.000000e+000
4.319948e+002;0.000000e+000
4.339233e+002;0.000000e+000
4.358519e+002;0.000000e+000
4.377804e+002;0.000000e+000
4.397090e+002;0.000000e+000
4.416375e+002;0.000000e+000
4.435660e+002;0.000000e+000
4.454946e+002;0.000000e+000
4.474232e+002;0.000000e+000
4.493517e+002;0.000000e+000
4.512802e+002;0.000000e+000
4.532088e+002;0.000000e+000
4.551373e+002;0.000000e+000
4.570659e+002;0.000000e+000
4.589944e+002;0.000000e+000
4.609230e+002;0.000000e+000
4.628515e+002;0.000000e+000
4.647801e+002;0.000000e+000
4.667086e+002;0.000000e+000
4.686372e+002;0.000000e+000
4.705657e+002;0.000000e+000
4.724943e+002;0.000000e+000
4.744228e+002;0.000000e+000
4.763513e+002;0.000000e+000
4.782799e+002;0.000000e+000
4.802085e+002;0.000000e+000
4.821370e+002;0.000000e+000
4.840656e+002;0.000000e+000
4.859941e+002;0.000000e+000
4.879226e+002;0.000000e+000
4.898512e+002;0.000000e+000
4.917798e+002;0.000000e+000
4.937083e+002;0.000000e+000
4.956368e+002;0.000000e+000
4.975654e+002;0.000000e+000
4.994939e+002;0.000000e+000
5.014225e+002;0.000000e+000
5.033510e+002;0.000000e+000
5.052796e+002;0.000000e+000
5.072081e+002;0.000000e+000
5.091367e+002;0.000000e+000
5.110652e+002;0.000000e+000
5.129938e+002;0.000000e+000
5.149223e+002;0.000000e+000
5.168509e+002;0.000000e+000
5.187794e+002;0.000000e+000
5.207079e+002;0.000000e+000
5.226365e+002;0.000000e+000
5.245651e+002;0.000000e+000
5.264936e+002;0.000000e+000
5.284222e+002;0.000000e+000
5.303507e+002;0.000000e+000
5.322792e+002;0.000000e+000
5.342078e+002;0.000000e+000
5.361364e+002;0.000000e+000
5.380649e+002;0.000000e+000
5.399935e+002;0.000000e+000
5.419220e+002;0.000000e+000
5.438505e+002;0.000000e+000
5.457791e+002;0.000000e+000
5.477076e+002;0.000000e+000
5.496362e+002;0.000000e+000
5.515648e+002;0.000000e+000
5.534933e+002;0.000000e+000
5.554218e+002;0.000000e+000
5.573504e+002;0.000000e+000
5.592789e+002;0.000000e+000
5.612075e+002;0.000000e+000
5.631360e+002;0.000000e+000
5.650646e+002;0.000000e+000
5.669931e+002;0.000000e+000
5.689217e+002;0.000000e+000
5.708502e+002;0.000000e+000
5.727787e+002;0.000000e+000
5.747073e+002;0.000000e+000
5.766359e+002;0.000000e+000
5.785644e+002;0.000000e+000
5.804930e+002;0.000000e+000
5.824215e+002;0.000000e+000
5.843500e+002;0.000000e+000
5.862786e+002;0.000000e+000
5.882072e+002;0.000000e+000
5.901357e+002;0.000000e+000
5.920643e+002;0.000000e+000
5.939928e+002;0.000000e+000
5.959213e+002;0.000000e+000
5.978499e+002;0.000000e+000
5.997784e+002;2.056278e-001
6.017070e+002;1.953320e-001
6.036355e+002;2.017346e-001
6.055641e+002;2.021758e-001
6.074926e+002;1.963443e-001
6.094211e+002;1.964943e-001
6.113497e+002;1.975854e-001
6.132783e+002;1.932843e-001
6.152068e+002;1.929924e-001
6.171354e+002;1.936284e-001
6.190639e+002;1.884630e-001
6.209924e+002;1.817532e-001
6.229210e+002;1.823019e-001
6.248495e+002;1.800164e-001
6.267781e+002;1.775084e-001
6.287067e+002;1.767847e-001
6.306352e+002;1.768740e-001
6.325637e+002;1.755711e-001
6.344923e+002;1.732945e-001
6.364208e+002;1.733364e-001
6.383494e+002;1.760579e-001
6.402780e+002;1.773246e-001
6.422065e+002;1.720235e-001
6.441350e+002;1.683069e-001
6.460636e+002;1.679770e-001
6.479921e+002;1.657055e-001
6.499207e+002;1.666663e-001
6.518492e+002;1.720101e-001
6.537778e+002;1.710809e-001
6.557063e+002;1.669276e-001
6.576349e+002;1.706768e-001
6.595634e+002;1.744319e-001
6.614919e+002;1.757546e-001
6.634205e+002;1.753629e-001
6.653491e+002;1.745926e-001
6.672776e+002;1.705318e-001
6.692062e+002;1.664482e-001
6.711347e+002;1.643133e-001
6.730632e+002;1.644773e-001
6.749918e+002;1.613110e-001
6.769203e+002;1.567847e-001
6.788489e+002;1.526064e-001
6.807775e+002;1.493939e-001
6.827060e+002;1.470408e-001
6.846345e+002;1.467331e-001
6.865631e+002;1.486834e-001
6.884916e+002;1.472682e-001
6.904202e+002;1.444329e-001
6.923488e+002;1.432635e-001
6.942773e+002;1.421853e-001
6.962058e+002;1.430619e-001
6.981344e+002;1.441298e-001
7.000629e+002;1.432218e-001
7.019915e+002;1.406769e-001
7.039200e+002;1.385704e-001
7.058486e+002;1.363706e-001
7.077771e+002;1.346836e-001
7.097057e+002;1.350159e-001
7.116342e+002;1.344481e-001
7.135627e+002;1.333797e-001
7.154913e+002;1.333691e-001
7.174199e+002;1.327215e-001
7.193484e+002;1.312227e-001
7.212770e+002;1.278538e-001
7.232055e+002;1.243048e-001
7.251340e+002;1.231227e-001
7.270626e+002;1.229594e-001
7.289911e+002;1.223592e-001
7.309197e+002;1.211719e-001
7.328483e+002;1.210445e-001
7.347768e+002;1.213850e-001
7.367053e+002;1.200735e-001
7.386339e+002;1.178566e-001
7.405624e+002;1.154832e-001
7.424910e+002;1.140354e-001
7.444196e+002;1.138705e-001
7.463481e+002;1.144103e-001
7.482766e+002;1.139203e-001
7.502052e+002;1.129944e-001
7.521337e+002;1.121136e-001
7.540623e+002;1.111022e-001
7.559908e+002;1.106967e-001
7.579194e+002;1.103647e-001
7.598479e+002;1.097805e-001
7.617765e+002;1.089353e-001
7.637050e+002;1.089713e-001
7.656335e+002;1.087952e-001
7.675621e+002;1.083168e-001
7.694907e+002;1.075796e-001
7.714192e+002;1.073585e-001
7.733478e+002;1.068867e-001
7.752763e+002;1.062601e-001
7.772048e+002;1.065456e-001
7.791334e+002;1.066289e-001
7.810620e+002;1.064830e-001
7.829905e+002;1.058920e-001
7.849191e+002;1.053287e-001
7.868476e+002;1.050286e-001
7.887761e+002;1.045486e-001
7.907047e+002;1.035055e-001
7.926332e+002;1.024499e-001
7.945618e+002;1.022658e-001
7.964903e+002;1.021671e-001
7.984189e+002;1.014515e-001
8.003474e+002;1.010720e-001
8.022759e+002;1.011466e-001
8.042045e+002;1.007487e-001
8.061331e+002;1.001395e-001
8.080616e+002;1.009665e-001
8.099902e+002;1.021779e-001
8.119187e+002;1.025261e-001
8.138472e+002;1.027922e-001
8.157758e+002;1.034013e-001
8.177043e+002;1.037498e-001
8.196329e+002;1.039637e-001
8.215615e+002;1.047783e-001
8.234900e+002;1.063075e-001
8.254185e+002;1.070504e-001
8.273471e+002;1.071982e-001
8.292756e+002;1.067434e-001
8.312042e+002;1.071937e-001
8.331328e+002;1.077942e-001
8.350613e+002;1.071184e-001
8.369898e+002;1.064969e-001
8.389184e+002;1.062574e-001
8.408469e+002;1.069017e-001
8.427755e+002;1.080502e-001
8.447040e+002;1.082815e-001
8.466326e+002;1.078390e-001
8.485611e+002;1.077498e-001
8.504897e+002;1.078691e-001
8.524182e+002;1.078869e-001
8.543467e+002;1.080667e-001
8.562753e+002;1.092266e-001
8.582039e+002;1.106481e-001
8.601324e+002;1.119623e-001
8.620610e+002;1.132751e-001
8.639895e+002;1.141417e-001
8.659180e+002;1.159307e-001
8.678466e+002;1.180447e-001
8.697751e+002;1.204255e-001
8.717037e+002;1.223931e-001
8.736323e+002;1.233265e-001
8.755608e+002;1.248071e-001
8.774893e+002;1.272332e-001
8.794179e+002;1.297282e-001
8.813464e+002;1.315922e-001
8.832750e+002;1.332060e-001
8.852036e+002;1.357579e-001
8.871321e+002;1.387361e-001
8.890606e+002;1.411381e-001
8.909892e+002;1.427587e-001
8.929177e+002;1.439936e-001
8.948463e+002;1.451372e-001
8.967748e+002;1.460794e-001
8.987034e+002;1.460927e-001
9.006319e+002;1.452297e-001
9.025605e+002;1.440759e-001
9.044890e+002;1.425760e-001
9.064175e+002;1.409870e-001
9.083461e+002;1.399472e-001
9.102747e+002;1.395101e-001
9.122032e+002;1.393977e-001
9.141318e+002;1.392148e-001
9.160603e+002;1.396481e-001
9.179888e+002;1.407624e-001
9.199174e+002;1.411595e-001
9.218459e+002;1.411940e-001
9.237745e+002;1.423617e-001
9.257031e+002;1.441355e-001
9.276316e+002;1.456060e-001
9.295601e+002;1.465281e-001
9.314887e+002;1.480725e-001
9.334172e+002;1.503763e-001
9.353458e+002;1.521841e-001
9.372744e+002;1.534421e-001
9.392029e+002;1.552656e-001
9.411314e+002;1.575613e-001
9.430600e+002;1.601885e-001
9.449885e+002;1.630733e-001
9.469171e+002;1.667601e-001
9.488456e+002;1.705107e-001
9.507742e+002;1.745992e-001
9.527027e+002;1.793770e-001
9.546313e+002;1.843218e-001
9.565598e+002;1.897248e-001
9.584883e+002;1.951344e-001
9.604169e+002;2.005734e-001
9.623455e+002;2.058397e-001
9.642740e+002;2.109856e-001
9.662026e+002;2.169425e-001
9.681311e+002;2.239086e-001
9.700596e+002;2.307333e-001
9.719882e+002;2.376852e-001
9.739167e+002;2.463737e-001
9.758453e+002;2.548691e-001
9.777739e+002;2.625839e-001
9.797024e+002;2.712007e-001
9.816309e+002;2.800090e-001
9.835595e+002;2.872767e-001
9.854880e+002;2.932288e-001
9.874166e+002;2.972523e-001
9.893452e+002;2.987669e-001
9.912737e+002;2.993048e-001
9.932022e+002;3.008600e-001
9.951307e+002;3.034354e-001
9.970593e+002;3.065736e-001
9.989879e+002;3.098648e-001
1.000916e+003;3.131426e-001
1.002845e+003;3.171396e-001
1.004773e+003;3.203642e-001
1.006702e+003;3.226967e-001
1.008631e+003;3.254344e-001
1.010559e+003;3.281374e-001
1.012488e+003;3.298844e-001
1.014416e+003;3.324656e-001
1.016345e+003;3.361560e-001
1.018273e+003;3.397385e-001
1.020202e+003;3.427728e-001
1.022130e+003;3.444013e-001
1.024059e+003;3.458533e-001
1.025988e+003;3.469203e-001
1.027916e+003;3.473794e-001
1.029845e+003;3.483704e-001
1.031773e+003;3.482885e-001
1.033702e+003;3.456646e-001
1.035630e+003;3.424410e-001
1.037559e+003;3.398542e-001
1.039487e+003;3.364508e-001
1.041416e+003;3.326022e-001
1.043344e+003;3.295142e-001
1.045273e+003;3.263263e-001
1.047202e+003;3.232781e-001
1.049130e+003;3.198705e-001
1.051059e+003;3.151479e-001
1.052987e+003;3.098949e-001
1.054916e+003;3.047943e-001
1.056844e+003;2.979751e-001
1.058773e+003;2.889473e-001
1.060701e+003;2.782007e-001
1.062630e+003;2.679050e-001
1.064558e+003;2.583745e-001
1.066487e+003;2.488289e-001
1.068416e+003;2.404441e-001
1.070344e+003;2.331591e-001
1.072273e+003;2.268966e-001
1.074201e+003;2.216660e-001
1.076130e+003;2.170489e-001
1.078058e+003;2.123098e-001
1.079987e+003;2.091474e-001
1.081915e+003;2.079376e-001
1.083844e+003;2.058503e-001
1.085773e+003;2.030286e-001
1.087701e+003;2.011108e-001
1.089630e+003;2.005351e-001
1.091558e+003;2.008371e-001
1.093487e+003;2.012102e-001
1.095415e+003;2.007937e-001
1.097344e+003;2.009535e-001
1.099272e+003;2.009542e-001
1.101201e+003;1.993940e-001
1.103129e+003;1.984266e-001
1.105058e+003;1.969245e-001
1.106987e+003;1.928210e-001
1.108915e+003;1.880502e-001
1.110844e+003;1.835616e-001
1.112772e+003;1.775889e-001
1.114701e+003;1.717385e-001
1.116629e+003;1.665496e-001
1.118558e+003;1.611322e-001
1.120486e+003;1.561079e-001
1.122415e+003;1.518914e-001
1.124344e+003;1.475921e-001
1.126272e+003;1.433682e-001
1.128201e+003;1.390287e-001
1.130129e+003;1.334155e-001
1.132058e+003;1.284018e-001
1.133986e+003;1.246201e-001
1.135915e+003;1.215444e-001
1.137843e+003;1.189745e-001
1.139772e+003;1.171783e-001
1.141700e+003;1.159045e-001
1.143629e+003;1.150804e-001
1.145557e+003;1.146907e-001
1.147486e+003;1.140656e-001
1.149415e+003;1.140956e-001
1.151343e+003;1.137103e-001
1.153272e+003;1.119543e-001
1.155200e+003;1.099944e-001
1.157129e+003;1.088012e-001
1.159057e+003;1.072265e-001
1.160986e+003;1.051125e-001
1.162914e+003;1.027154e-001
1.164843e+003;1.004073e-001
1.166771e+003;9.783282e-002
1.168700e+003;9.496576e-002
1.170629e+003;9.228896e-002
1.172557e+003;8.958951e-002
1.174486e+003;8.714122e-002
1.176414e+003;8.547027e-002
1.178343e+003;8.455583e-002
1.180271e+003;8.453219e-002
1.182200e+003;8.469690e-002
1.184128e+003;8.473053e-002
1.186057e+003;8.556569e-002
1.187986e+003;8.726592e-002
1.189914e+003;8.927001e-002
1.191843e+003;9.129096e-002
1.193771e+003;9.331280e-002
1.195700e+003;9.562743e-002
1.197628e+003;9.797637e-002
1.199557e+003;9.975346e-002
1.201485e+003;1.009251e-001
1.203414e+003;1.027241e-001
1.205343e+003;1.049588e-001
1.207271e+003;1.062265e-001
1.209200e+003;1.071221e-001
1.211128e+003;1.085050e-001
1.213057e+003;1.102278e-001
1.214985e+003;1.123933e-001
1.216914e+003;1.154752e-001
1.218842e+003;1.193455e-001
1.220771e+003;1.227159e-001
1.222699e+003;1.252111e-001
1.224628e+003;1.276221e-001
1.226557e+003;1.300707e-001
1.228485e+003;1.321783e-001
1.230414e+003;1.338353e-001
1.232342e+003;1.353114e-001
1.234271e+003;1.363949e-001
1.236199e+003;1.363434e-001
1.238128e+003;1.358739e-001
1.240056e+003;1.351754e-001
1.241985e+003;1.342925e-001
1.243913e+003;1.336440e-001
1.245842e+003;1.326981e-001
1.247771e+003;1.312690e-001
1.249699e+003;1.296187e-001
1.251628e+003;1.281301e-001
1.253556e+003;1.266167e-001
1.255485e+003;1.247042e-001
1.257413e+003;1.225595e-001
1.259342e+003;1.205243e-001
1.261270e+003;1.187612e-001
1.263199e+003;1.170603e-001
1.265127e+003;1.152023e-001
1.267056e+003;1.133317e-001
1.268985e+003;1.115589e-001
1.270913e+003;1.098556e-001
1.272842e+003;1.081927e-001
1.274770e+003;1.062706e-001
1.276699e+003;1.044915e-001
1.278627e+003;1.027966e-001
1.280556e+003;1.009508e-001
1.282484e+003;9.907757e-002
1.284413e+003;9.768156e-002
1.286342e+003;9.651970e-002
1.288270e+003;9.579854e-002
1.290199e+003;9.553915e-002
1.292127e+003;9.521788e-002
1.294056e+003;9.527668e-002
1.295984e+003;9.599296e-002
1.297913e+003;9.685327e-002
1.299841e+003;9.789766e-002
1.301770e+003;9.943362e-002
1.303698e+003;1.013179e-001
1.305627e+003;1.034278e-001
1.307556e+003;1.058627e-001
1.309484e+003;1.083809e-001
1.311413e+003;1.105486e-001
1.313341e+003;1.122663e-001
1.315270e+003;1.134896e-001
1.317198e+003;1.143873e-001
1.319127e+003;1.146733e-001
1.321055e+003;1.143573e-001
1.322984e+003;1.135461e-001
1.324912e+003;1.126568e-001
1.326841e+003;1.116015e-001
1.328770e+003;1.107203e-001
1.330698e+003;1.103990e-001
1.332627e+003;1.097822e-001
1.334555e+003;1.088108e-001
1.336484e+003;1.075424e-001
1.338412e+003;1.060503e-001
1.340341e+003;1.042050e-001
1.342269e+003;1.028380e-001
1.344198e+003;1.019835e-001
1.346126e+003;1.008471e-001
1.348055e+003;9.968431e-002
1.349984e+003;9.918502e-002
1.351912e+003;9.931049e-002
1.353841e+003;9.989527e-002
1.355769e+003;1.009699e-001
1.357698e+003;1.022792e-001
1.359626e+003;1.035222e-001
1.361555e+003;1.042893e-001
1.363483e+003;1.047278e-001
1.365412e+003;1.052241e-001
1.367341e+003;1.052349e-001
1.369269e+003;1.048783e-001
1.371198e+003;1.041847e-001
1.373126e+003;1.027692e-001
1.375055e+003;1.005876e-001
1.376983e+003;9.823175e-002
1.378912e+003;9.599478e-002
1.380840e+003;9.321588e-002
1.382769e+003;9.048908e-002
1.384698e+003;8.797158e-002
1.386626e+003;8.583418e-002
1.388555e+003;8.425188e-002
1.390483e+003;8.299862e-002
1.392412e+003;8.185381e-002
1.394340e+003;8.073097e-002
1.396269e+003;8.030159e-002
1.398197e+003;8.037805e-002
1.400126e+003;8.077143e-002
1.402054e+003;8.107907e-002
1.403983e+003;8.115595e-002
1.405911e+003;8.188658e-002
1.407840e+003;8.298611e-002
1.409769e+003;8.417923e-002
1.411697e+003;8.567408e-002
1.413626e+003;8.734909e-002
1.415554e+003;8.875231e-002
1.417483e+003;8.987064e-002
1.419411e+003;9.079787e-002
1.421340e+003;9.157671e-002
1.423268e+003;9.169484e-002
1.425197e+003;9.085239e-002
1.427125e+003;8.947133e-002
1.429054e+003;8.812367e-002
1.430983e+003;8.669805e-002
1.432911e+003;8.492412e-002
1.434840e+003;8.285183e-002
1.436768e+003;8.117576e-002
1.438697e+003;8.056329e-002
1.440625e+003;8.040042e-002
1.442554e+003;8.042940e-002
1.444482e+003;8.087536e-002
1.446411e+003;8.137360e-002
1.448340e+003;8.164939e-002
1.450268e+003;8.229775e-002
1.452197e+003;8.295450e-002
1.454125e+003;8.283415e-002
1.456054e+003;8.196481e-002
1.457982e+003;8.125885e-002
1.459911e+003;8.082271e-002
1.461839e+003;7.952558e-002
1.463768e+003;7.783800e-002
1.465697e+003;7.615270e-002
1.467625e+003;7.378445e-002
1.469554e+003;7.073317e-002
1.471482e+003;6.759325e-002
1.473411e+003;6.486792e-002
1.475339e+003;6.256607e-002
1.477268e+003;6.042431e-002
1.479196e+003;5.857815e-002
1.481125e+003;5.695645e-002
1.483053e+003;5.566924e-002
1.484982e+003;5.452230e-002
1.486911e+003;5.338520e-002
1.488839e+003;5.236304e-002
1.490768e+003;5.229225e-002
1.492696e+003;5.293945e-002
1.494625e+003;5.322457e-002
1.496553e+003;5.382140e-002
1.498482e+003;5.477369e-002
1.500410e+003;5.564058e-002
1.502339e+003;5.674793e-002
1.504267e+003;5.687251e-002
1.506196e+003;5.575867e-002
1.508125e+003;5.494358e-002
1.510053e+003;5.427541e-002
1.511982e+003;5.319457e-002
1.513910e+003;5.160620e-002
1.515839e+003;4.960819e-002
1.517767e+003;4.791593e-002
1.519696e+003;4.599203e-002
1.521624e+003;4.386272e-002
1.523553e+003;4.229352e-002
1.525481e+003;4.084535e-002
1.527410e+003;3.968714e-002
1.529339e+003;3.914302e-002
1.531267e+003;3.855189e-002
1.533196e+003;3.777253e-002
1.535124e+003;3.779562e-002
1.537053e+003;3.770338e-002
1.538981e+003;3.662543e-002
1.540910e+003;3.629538e-002
1.542838e+003;3.691377e-002
1.544767e+003;3.756297e-002
1.546695e+003;3.816954e-002
1.548624e+003;3.836755e-002
1.550553e+003;3.875468e-002
1.552481e+003;3.901874e-002
1.554410e+003;3.932305e-002
1.556338e+003;3.957200e-002
1.558267e+003;3.960514e-002
1.560195e+003;4.077790e-002
1.562124e+003;4.250701e-002
1.564052e+003;4.367061e-002
1.565981e+003;4.496076e-002
1.567910e+003;4.619582e-002
1.569838e+003;4.730942e-002
1.571767e+003;4.900985e-002
1.573695e+003;5.078210e-002
1.575624e+003;5.256801e-002
1.577552e+003;5.526916e-002
1.579481e+003;5.829427e-002
1.581409e+003;6.103490e-002
1.583338e+003;6.342723e-002
1.585266e+003;6.570587e-002
1.587195e+003;6.782018e-002
1.589124e+003;6.979005e-002
1.591052e+003;7.133523e-002
1.592981e+003;7.226184e-002
1.594909e+003;7.276087e-002
1.596838e+003;7.311188e-002
1.598766e+003;7.270881e-002
1.600695e+003;7.200865e-002
1.602623e+003;7.172445e-002
1.604552e+003;7.146548e-002
1.606480e+003;7.086019e-002
1.608409e+003;7.018194e-002
1.610338e+003;6.988862e-002
1.612266e+003;6.965649e-002
1.614195e+003;6.912492e-002
1.616123e+003;6.867010e-002
1.618052e+003;6.898613e-002
1.619980e+003;6.921922e-002
1.621909e+003;6.883721e-002
1.623837e+003;6.867515e-002
1.625766e+003;6.869932e-002
1.627694e+003;6.853452e-002
1.629623e+003;6.835485e-002
1.631552e+003;6.815609e-002
1.633480e+003;6.774016e-002
1.635409e+003;6.734056e-002
1.637337e+003;6.753925e-002
1.639266e+003;6.773563e-002
1.641194e+003;6.768680e-002
1.643123e+003;6.761753e-002
1.645051e+003;6.702074e-002
1.646980e+003;6.644087e-002
1.648909e+003;6.676982e-002
1.650837e+003;6.634374e-002
1.652766e+003;6.568614e-002
1.654694e+003;6.622794e-002
1.656623e+003;6.661358e-002
1.658551e+003;6.641508e-002
1.660480e+003;6.631764e-002
1.662408e+003;6.597593e-002
1.664337e+003;6.567280e-002
1.666266e+003;6.537947e-002
1.668194e+003;6.471856e-002
1.670123e+003;6.413353e-002
1.672051e+003;6.387994e-002
1.673980e+003;6.368022e-002
1.675908e+003;6.355525e-002
1.677837e+003;6.327710e-002
1.679765e+003;6.269524e-002
1.681694e+003;6.201868e-002
1.683622e+003;6.113707e-002
1.685551e+003;6.119127e-002
1.687479e+003;6.179312e-002
1.689408e+003;6.204314e-002
1.691337e+003;6.250086e-002
1.693265e+003;6.265230e-002
1.695194e+003;6.222206e-002
1.697122e+003;6.273755e-002
1.699051e+003;6.381165e-002
1.700979e+003;6.521754e-002
1.702908e+003;6.730628e-002
1.704836e+003;6.913160e-002
1.706765e+003;7.116615e-002
1.708693e+003;7.314396e-002
1.710622e+003;7.470146e-002
1.712551e+003;7.639132e-002
1.714479e+003;7.794452e-002
1.716408e+003;7.920732e-002
1.718336e+003;8.100020e-002
1.720265e+003;8.301519e-002
1.722193e+003;8.418156e-002
1.724122e+003;8.515077e-002
1.726050e+003;8.584290e-002
1.727979e+003;8.606660e-002
1.729908e+003;8.613754e-002
1.731836e+003;8.579203e-002
1.733765e+003;8.507818e-002
1.735693e+003;8.446281e-002
1.737622e+003;8.372533e-002
1.739550e+003;8.238029e-002
1.741479e+003;8.067403e-002
1.743407e+003;7.879843e-002
1.745336e+003;7.662977e-002
1.747265e+003;7.418916e-002
1.749193e+003;7.172269e-002
1.751122e+003;6.901483e-002
1.753050e+003;6.635567e-002
1.754979e+003;6.363972e-002
1.756907e+003;6.085624e-002
1.758836e+003;5.801213e-002
1.760764e+003;5.456614e-002
1.762693e+003;5.129261e-002
1.764621e+003;4.844049e-002
1.766550e+003;4.540380e-002
1.768479e+003;4.279966e-002
1.770407e+003;4.031170e-002
1.772336e+003;3.763357e-002
1.774264e+003;3.568030e-002
1.776193e+003;3.406253e-002
1.778121e+003;3.249339e-002
1.780050e+003;3.106819e-002
1.781978e+003;2.950053e-002
1.783907e+003;2.780075e-002
1.785835e+003;2.654213e-002
1.787764e+003;2.526920e-002
1.789693e+003;2.365756e-002
1.791621e+003;2.215458e-002
1.793550e+003;2.140031e-002
1.795478e+003;2.087246e-002
1.797407e+003;1.990851e-002
1.799335e+003;1.893504e-002
1.801264e+003;1.801827e-002
1.803192e+003;1.756413e-002
1.805121e+003;1.721539e-002
1.807049e+003;1.676729e-002
1.808978e+003;1.605435e-002
1.810907e+003;1.550479e-002
1.812835e+003;1.527671e-002
1.814764e+003;1.475710e-002
1.816692e+003;1.426893e-002
1.818621e+003;1.382940e-002
1.820549e+003;1.333807e-002
1.822478e+003;1.306092e-002
1.824406e+003;1.272458e-002
1.826335e+003;1.240538e-002
1.828264e+003;1.216382e-002
1.830192e+003;1.204583e-002
1.832121e+003;1.201234e-002
1.834049e+003;1.172617e-002
1.835978e+003;1.147254e-002
1.837906e+003;1.141409e-002
1.839835e+003;1.144944e-002
1.841763e+003;1.127434e-002
1.843692e+003;1.091920e-002
1.845620e+003;1.093666e-002
1.847549e+003;1.107294e-002
1.849478e+003;1.112447e-002
1.851406e+003;1.077784e-002
1.853335e+003;1.047164e-002
1.855263e+003;1.059626e-002
1.857192e+003;1.057830e-002
1.859120e+003;1.046655e-002
1.861049e+003;1.039439e-002
1.862977e+003;1.013981e-002
1.864906e+003;1.002396e-002
1.866834e+003;9.764476e-003
1.868763e+003;9.619394e-003
1.870692e+003;9.864727e-003
1.872620e+003;9.830663e-003
1.874549e+003;9.663165e-003
1.876477e+003;9.751294e-003
1.878406e+003;9.710192e-003
1.880334e+003;9.546126e-003
1.882263e+003;9.640669e-003
1.884191e+003;9.697519e-003
1.886120e+003;9.753598e-003
1.888048e+003;9.869811e-003
1.889977e+003;9.938150e-003
1.891906e+003;1.009592e-002
1.893834e+003;1.010952e-002
1.895763e+003;1.013859e-002
1.897691e+003;1.034305e-002
1.899620e+003;1.031621e-002
1.901548e+003;1.006252e-002
1.903477e+003;9.931980e-003
1.905405e+003;9.957372e-003
1.907334e+003;9.947100e-003
1.909262e+003;1.006089e-002
1.911191e+003;1.016840e-002
1.913120e+003;1.030148e-002
1.915048e+003;1.053036e-002
1.916977e+003;1.061663e-002
1.918905e+003;1.073284e-002
1.920834e+003;1.084310e-002
1.922762e+003;1.083352e-002
1.924691e+003;1.080957e-002
1.926619e+003;1.102876e-002
1.928548e+003;1.139331e-002
1.930477e+003;1.129641e-002
1.932405e+003;1.103430e-002
1.934334e+003;1.099654e-002
1.936262e+003;1.103957e-002
1.938191e+003;1.127754e-002
1.940119e+003;1.121188e-002
1.942048e+003;1.075393e-002
1.943976e+003;1.059256e-002
1.945905e+003;1.091111e-002
1.947833e+003;1.151534e-002
1.949762e+003;1.184193e-002
1.951691e+003;1.164853e-002
1.953619e+003;1.171208e-002
1.955548e+003;1.182807e-002
1.957476e+003;1.197965e-002
1.959405e+003;1.203633e-002
1.961333e+003;1.176144e-002
1.963262e+003;1.143750e-002
1.965190e+003;1.144434e-002
1.967119e+003;1.155658e-002
1.969047e+003;1.165663e-002
1.970976e+003;1.180158e-002
1.972905e+003;1.186297e-002
1.974833e+003;1.158043e-002
1.976762e+003;1.158901e-002
1.978690e+003;1.186419e-002
1.980619e+003;1.206487e-002
1.982547e+003;1.222284e-002
1.984476e+003;1.259873e-002
1.986404e+003;1.275358e-002
1.988333e+003;1.274870e-002
1.990261e+003;1.282582e-002
1.992190e+003;1.264625e-002
1.994119e+003;1.254010e-002
1.996047e+003;1.254798e-002
1.997976e+003;1.262005e-002
1.999904e+003;1.290036e-002
2.001833e+003;1.311289e-002
2.003761e+003;1.325597e-002
2.005690e+003;1.327445e-002
2.007618e+003;1.335334e-002
2.009547e+003;1.355515e-002
2.011476e+003;1.378869e-002
2.013404e+003;1.402315e-002
2.015333e+003;1.423894e-002
2.017261e+003;1.439331e-002
2.019190e+003;1.455137e-002
2.021118e+003;1.474017e-002
2.023047e+003;1.506147e-002
2.024975e+003;1.537645e-002
2.026904e+003;1.543846e-002
2.028833e+003;1.535273e-002
2.030761e+003;1.563372e-002
2.032690e+003;1.596214e-002
2.034618e+003;1.594210e-002
2.036547e+003;1.602825e-002
2.038475e+003;1.630272e-002
2.040404e+003;1.634459e-002
2.042332e+003;1.632705e-002
2.044261e+003;1.650416e-002
2.046189e+003;1.646878e-002
2.048118e+003;1.630207e-002
2.050047e+003;1.647680e-002
2.051975e+003;1.665076e-002
2.053904e+003;1.674745e-002
2.055832e+003;1.677631e-002
2.057761e+003;1.678062e-002
2.059689e+003;1.702724e-002
2.061618e+003;1.710922e-002
2.063546e+003;1.689049e-002
2.065475e+003;1.679694e-002
2.067404e+003;1.669187e-002
2.069332e+003;1.669979e-002
2.071260e+003;1.708148e-002
2.073189e+003;1.725824e-002
2.075118e+003;1.698561e-002
2.077046e+003;1.693510e-002
2.078975e+003;1.699888e-002
2.080903e+003;1.688098e-002
2.082832e+003;1.702276e-002
2.084760e+003;1.720246e-002
2.086689e+003;1.702096e-002
2.088617e+003;1.683538e-002
2.090546e+003;1.693059e-002
2.092475e+003;1.714462e-002
2.094403e+003;1.753439e-002
2.096332e+003;1.756109e-002
2.098260e+003;1.741121e-002
2.100189e+003;1.746812e-002
2.102117e+003;1.736496e-002
2.104046e+003;1.748423e-002
2.105974e+003;1.790559e-002
2.107903e+003;1.798598e-002
2.109832e+003;1.790662e-002
2.111760e+003;1.794747e-002
2.113688e+003;1.793438e-002
2.115617e+003;1.794737e-002
2.117546e+003;1.810200e-002
2.119474e+003;1.820153e-002
2.121403e+003;1.841294e-002
2.123331e+003;1.864755e-002
2.125260e+003;1.870566e-002
2.127188e+003;1.870047e-002
2.129117e+003;1.868114e-002
2.131045e+003;1.853052e-002
2.132974e+003;1.841207e-002
2.134903e+003;1.861303e-002
2.136831e+003;1.870366e-002
2.138760e+003;1.863714e-002
2.140688e+003;1.848543e-002
2.142617e+003;1.844146e-002
2.144545e+003;1.862925e-002
2.146474e+003;1.883931e-002
2.148402e+003;1.867439e-002
2.150331e+003;1.844125e-002
2.152260e+003;1.825851e-002
2.154188e+003;1.816705e-002
2.156117e+003;1.811975e-002
2.158045e+003;1.800400e-002
2.159974e+003;1.807315e-002
2.161902e+003;1.834505e-002
2.163831e+003;1.821310e-002
2.165759e+003;1.780816e-002
2.167688e+003;1.754550e-002
2.169616e+003;1.778234e-002
2.171545e+003;1.794861e-002
2.173474e+003;1.754740e-002
2.175402e+003;1.722166e-002
2.177331e+003;1.707159e-002
2.179259e+003;1.676219e-002
2.181188e+003;1.644331e-002
2.183116e+003;1.633110e-002
2.185045e+003;1.618739e-002
2.186973e+003;1.622883e-002
2.188902e+003;1.634865e-002
2.190831e+003;1.625835e-002
2.192759e+003;1.592609e-002
2.194688e+003;1.568521e-002
2.196616e+003;1.584072e-002
2.198545e+003;1.581852e-002
2.200473e+003;1.591241e-002
2.202402e+003;1.612556e-002
2.204330e+003;1.597321e-002
2.206259e+003;1.571005e-002
2.208188e+003;1.555695e-002
2.210116e+003;1.550177e-002
2.212044e+003;1.576893e-002
2.213973e+003;1.603454e-002
2.215902e+003;1.592344e-002
2.217830e+003;1.572042e-002
2.219759e+003;1.594197e-002
2.221687e+003;1.613629e-002
2.223616e+003;1.590296e-002
2.225544e+003;1.584591e-002
2.227473e+003;1.590014e-002
2.229401e+003;1.598274e-002
2.231330e+003;1.629457e-002
2.233259e+003;1.639569e-002
2.235187e+003;1.623695e-002
2.237116e+003;1.618825e-002
2.239044e+003;1.639603e-002
2.240973e+003;1.648406e-002
2.242901e+003;1.666216e-002
2.244830e+003;1.685529e-002
2.246758e+003;1.693479e-002
2.248687e+003;1.685449e-002
2.250615e+003;1.677252e-002
2.252544e+003;1.662646e-002
2.254473e+003;1.642483e-002
2.256401e+003;1.644410e-002
2.258330e+003;1.667962e-002
2.260258e+003;1.683259e-002
2.262187e+003;1.673605e-002
2.264115e+003;1.663958e-002
2.266044e+003;1.664856e-002
2.267972e+003;1.665138e-002
2.269901e+003;1.638292e-002
2.271830e+003;1.639648e-002
2.273758e+003;1.660598e-002
2.275687e+003;1.671983e-002
2.277615e+003;1.653331e-002
2.279544e+003;1.667266e-002
2.281472e+003;1.675048e-002
2.283401e+003;1.672607e-002
2.285329e+003;1.695836e-002
2.287258e+003;1.683669e-002
2.289187e+003;1.643657e-002
2.291115e+003;1.635220e-002
2.293043e+003;1.638089e-002
2.294972e+003;1.637704e-002
2.296901e+003;1.669046e-002
2.298829e+003;1.685997e-002
2.300758e+003;1.655407e-002
2.302686e+003;1.628453e-002
2.304615e+003;1.630981e-002
2.306543e+003;1.647346e-002
2.308472e+003;1.662801e-002
2.310400e+003;1.661179e-002
2.312329e+003;1.666440e-002
2.314258e+003;1.664539e-002
2.316186e+003;1.631631e-002
2.318115e+003;1.598600e-002
2.320043e+003;1.567672e-002
2.321972e+003;1.556616e-002
2.323900e+003;1.550575e-002
2.325829e+003;1.524417e-002
2.327757e+003;1.500981e-002
2.329686e+003;1.470500e-002
2.331615e+003;1.481764e-002
2.333543e+003;1.518131e-002
2.335472e+003;1.538167e-002
2.337400e+003;1.566103e-002
2.339329e+003;1.578745e-002
2.341257e+003;1.592347e-002
2.343186e+003;1.615857e-002
2.345114e+003;1.658312e-002
2.347043e+003;1.725211e-002
2.348971e+003;1.742684e-002
2.350900e+003;1.739514e-002
2.352829e+003;1.703323e-002
2.354757e+003;1.615671e-002
2.356686e+003;1.565989e-002
2.358614e+003;1.543190e-002
2.360543e+003;1.551523e-002
2.362471e+003;1.580137e-002
2.364400e+003;1.602595e-002
2.366328e+003;1.624067e-002
2.368257e+003;1.707679e-002
2.370186e+003;1.819524e-002
2.372114e+003;1.873728e-002
2.374042e+003;1.909902e-002
2.375971e+003;1.980883e-002
2.377900e+003;2.032483e-002
2.379828e+003;2.056993e-002
2.381757e+003;2.088706e-002
2.383685e+003;2.104559e-002
2.385614e+003;2.122916e-002
2.387542e+003;2.129405e-002
2.389471e+003;2.153120e-002
2.391399e+003;2.196362e-002
2.393328e+003;2.216689e-002
2.395257e+003;2.234598e-002
2.397185e+003;2.252392e-002
2.399114e+003;2.242636e-002
2.401042e+003;2.241349e-002
2.402971e+003;2.291995e-002
2.404899e+003;2.329512e-002
2.406828e+003;2.322181e-002
2.408756e+003;2.337081e-002
2.410685e+003;2.359451e-002
2.412614e+003;2.362156e-002
2.414542e+003;2.366393e-002
2.416471e+003;2.393252e-002
2.418399e+003;2.423782e-002
2.420328e+003;2.450890e-002
2.422256e+003;2.463555e-002
2.424185e+003;2.481426e-002
2.426113e+003;2.503884e-002
2.428042e+003;2.541490e-002
2.429970e+003;2.576769e-002
2.431899e+003;2.592892e-002
2.433828e+003;2.599628e-002
2.435756e+003;2.598510e-002
2.437685e+003;2.601939e-002
2.439613e+003;2.618537e-002
2.441542e+003;2.617664e-002
2.443470e+003;2.630694e-002
2.445399e+003;2.660317e-002
2.447327e+003;2.681388e-002
2.449256e+003;2.693408e-002
2.451185e+003;2.724905e-002
2.453113e+003;2.738003e-002
2.455042e+003;2.727184e-002
2.456970e+003;2.749484e-002
2.458899e+003;2.774113e-002
2.460827e+003;2.807269e-002
2.462756e+003;2.827697e-002
2.464684e+003;2.846235e-002
2.466613e+003;2.859550e-002
2.468542e+003;2.861288e-002
2.470470e+003;2.879681e-002
2.472398e+003;2.925009e-002
2.474327e+003;2.945248e-002
2.476256e+003;2.931900e-002
2.478184e+003;2.941887e-002
2.480113e+003;2.976502e-002
2.482041e+003;3.029413e-002
2.483970e+003;3.073586e-002
2.485898e+003;3.078580e-002
2.487827e+003;3.063964e-002
2.489755e+003;3.064806e-002
2.491684e+003;3.071310e-002
2.493613e+003;3.088846e-002
2.495541e+003;3.103538e-002
2.497470e+003;3.116725e-002
2.499398e+003;3.148577e-002
2.501327e+003;3.140844e-002
2.503255e+003;3.149229e-002
2.505184e+003;3.204114e-002
2.507112e+003;3.231775e-002
2.509041e+003;3.227484e-002
2.510969e+003;3.233245e-002
2.512898e+003;3.251135e-002
2.514827e+003;3.275118e-002
2.516755e+003;3.275210e-002
2.518684e+003;3.278526e-002
2.520612e+003;3.287389e-002
2.522541e+003;3.323869e-002
2.524469e+003;3.340634e-002
2.526398e+003;3.329778e-002
2.528326e+003;3.337102e-002
2.530255e+003;3.340480e-002
2.532184e+003;3.330562e-002
2.534112e+003;3.360119e-002
2.536041e+003;3.397545e-002
2.537969e+003;3.412621e-002
2.539898e+003;3.410980e-002
2.541826e+003;3.412589e-002
2.543755e+003;3.433128e-002
2.545683e+003;3.443271e-002
2.547612e+003;3.447787e-002
2.549541e+003;3.458123e-002
2.551469e+003;3.467233e-002
2.553397e+003;3.488359e-002
2.555326e+003;3.506782e-002
2.557255e+003;3.523330e-002
2.559183e+003;3.540395e-002
2.561112e+003;3.519917e-002
2.563040e+003;3.514333e-002
2.564969e+003;3.518274e-002
2.566897e+003;3.533598e-002
2.568826e+003;3.552878e-002
2.570754e+003;3.553529e-002
2.572683e+003;3.578546e-002
2.574612e+003;3.602752e-002
2.576540e+003;3.608707e-002
2.578469e+003;3.594779e-002
2.580397e+003;3.586020e-002
2.582326e+003;3.615128e-002
2.584254e+003;3.633143e-002
2.586183e+003;3.629001e-002
2.588111e+003;3.654804e-002
2.590040e+003;3.686468e-002
2.591969e+003;3.685314e-002
2.593897e+003;3.716185e-002
2.595826e+003;3.739353e-002
2.597754e+003;3.738158e-002
2.599683e+003;3.746764e-002
2.601611e+003;3.768568e-002
2.603540e+003;3.790256e-002
2.605468e+003;3.797191e-002
2.607397e+003;3.790527e-002
2.609325e+003;3.809310e-002
2.611254e+003;3.835590e-002
2.613183e+003;3.857735e-002
2.615111e+003;3.878931e-002
2.617040e+003;3.906446e-002
2.618968e+003;3.937710e-002
2.620897e+003;3.938051e-002
2.622825e+003;3.930495e-002
2.624754e+003;3.929737e-002
2.626682e+003;3.926088e-002
2.628611e+003;3.948044e-002
2.630540e+003;3.992900e-002
2.632468e+003;4.029658e-002
2.634396e+003;4.026946e-002
2.636325e+003;4.016790e-002
2.638254e+003;4.034999e-002
2.640182e+003;4.051986e-002
2.642111e+003;4.089861e-002
2.644039e+003;4.101530e-002
2.645968e+003;4.093458e-002
2.647896e+003;4.100915e-002
2.649825e+003;4.118281e-002
2.651753e+003;4.122303e-002
2.653682e+003;4.169039e-002
2.655611e+003;4.228417e-002
2.657539e+003;4.242031e-002
2.659468e+003;4.226419e-002
2.661396e+003;4.239247e-002
2.663325e+003;4.275143e-002
2.665253e+003;4.301574e-002
2.667182e+003;4.283378e-002
2.669110e+003;4.273820e-002
2.671039e+003;4.286212e-002
2.672968e+003;4.300583e-002
2.674896e+003;4.324174e-002
2.676825e+003;4.368249e-002
2.678753e+003;4.405693e-002
2.680682e+003;4.427217e-002
2.682610e+003;4.428105e-002
2.684539e+003;4.414190e-002
2.686467e+003;4.418346e-002
2.688396e+003;4.440978e-002
2.690324e+003;4.474507e-002
2.692253e+003;4.493963e-002
2.694182e+003;4.514035e-002
2.696110e+003;4.529390e-002
2.698039e+003;4.542613e-002
2.699967e+003;4.591819e-002
2.701896e+003;4.649166e-002
2.703824e+003;4.653820e-002
2.705753e+003;4.622515e-002
2.707681e+003;4.633076e-002
2.709610e+003;4.627182e-002
2.711539e+003;4.634498e-002
2.713467e+003;4.681520e-002
2.715396e+003;4.690275e-002
2.717324e+003;4.683340e-002
2.719253e+003;4.708170e-002
2.721181e+003;4.750814e-002
2.723110e+003;4.761479e-002
2.725038e+003;4.766648e-002
2.726967e+003;4.781974e-002
2.728896e+003;4.782563e-002
2.730824e+003;4.796496e-002
2.732752e+003;4.836144e-002
2.734681e+003;4.892867e-002
2.736610e+003;4.941401e-002
2.738538e+003;4.942968e-002
2.740467e+003;4.927318e-002
2.742395e+003;4.916359e-002
2.744324e+003;4.930161e-002
2.746252e+003;4.981093e-002
2.748181e+003;5.007047e-002
2.750109e+003;4.978812e-002
2.752038e+003;4.960934e-002
2.753967e+003;4.963223e-002
2.755895e+003;4.981093e-002
2.757824e+003;5.005493e-002
2.759752e+003;5.004879e-002
2.761681e+003;4.989957e-002
2.763609e+003;4.998525e-002
2.765538e+003;5.034965e-002
2.767466e+003;5.113189e-002
2.769395e+003;5.158657e-002
2.771323e+003;5.156153e-002
2.773252e+003;5.164135e-002
2.775181e+003;5.178225e-002
2.777109e+003;5.197988e-002
2.779038e+003;5.206848e-002
2.780966e+003;5.224038e-002
2.782895e+003;5.263522e-002
2.784823e+003;5.285636e-002
2.786752e+003;5.299975e-002
2.788680e+003;5.326483e-002
2.790609e+003;5.352708e-002
2.792538e+003;5.379578e-002
2.794466e+003;5.403418e-002
2.796395e+003;5.407542e-002
2.798323e+003;5.391494e-002
2.800252e+003;5.417841e-002
2.802180e+003;5.461623e-002
2.804109e+003;5.526603e-002
2.806037e+003;5.593110e-002
2.807966e+003;5.624632e-002
2.809895e+003;5.669835e-002
2.811823e+003;5.714715e-002
2.813751e+003;5.754625e-002
2.815680e+003;5.812715e-002
2.817609e+003;5.825892e-002
2.819537e+003;5.842135e-002
2.821466e+003;5.898460e-002
2.823394e+003;5.918087e-002
2.825323e+003;5.948068e-002
2.827251e+003;6.000863e-002
2.829180e+003;6.071435e-002
2.831108e+003;6.176062e-002
2.833037e+003;6.242691e-002
2.834966e+003;6.275271e-002
2.836894e+003;6.326561e-002
2.838823e+003;6.370743e-002
2.840751e+003;6.433392e-002
2.842680e+003;6.455380e-002
2.844608e+003;6.453449e-002
2.846537e+003;6.447960e-002
2.848465e+003;6.469614e-002
2.850394e+003;6.544453e-002
2.852323e+003;6.625805e-002
2.854251e+003;6.719171e-002
2.856180e+003;6.823429e-002
2.858108e+003;6.980892e-002
2.860037e+003;7.083955e-002
2.861965e+003;7.170804e-002
2.863894e+003;7.260129e-002
2.865822e+003;7.324294e-002
2.867751e+003;7.406689e-002
2.869679e+003;7.468643e-002
2.871608e+003;7.501978e-002
2.873536e+003;7.546297e-002
2.875465e+003;7.572477e-002
2.877394e+003;7.595035e-002
2.879322e+003;7.624482e-002
2.881251e+003;7.649105e-002
2.883179e+003;7.701036e-002
2.885108e+003;7.766062e-002
2.887036e+003;7.789996e-002
2.888965e+003;7.763419e-002
2.890893e+003;7.749428e-002
2.892822e+003;7.773809e-002
2.894750e+003;7.758816e-002
2.896679e+003;7.741547e-002
2.898608e+003;7.754934e-002
2.900536e+003;7.812654e-002
2.902465e+003;7.813559e-002
2.904393e+003;7.729332e-002
2.906322e+003;7.652314e-002
2.908250e+003;7.590942e-002
2.910179e+003;7.514645e-002
2.912107e+003;7.390635e-002
2.914036e+003;7.287078e-002
2.915965e+003;7.205152e-002
2.917893e+003;7.142826e-002
2.919822e+003;7.082941e-002
2.921750e+003;7.056248e-002
2.923679e+003;7.055242e-002
2.925607e+003;7.093595e-002
2.927536e+003;7.165626e-002
2.929464e+003;7.164919e-002
2.931393e+003;7.147794e-002
2.933322e+003;7.140291e-002
2.935250e+003;7.144509e-002
2.937178e+003;7.184997e-002
2.939107e+003;7.237933e-002
2.941036e+003;7.246945e-002
2.942964e+003;7.201976e-002
2.944893e+003;7.151115e-002
2.946821e+003;7.125746e-002
2.948750e+003;7.044193e-002
2.950678e+003;6.925683e-002
2.952607e+003;6.854220e-002
2.954535e+003;6.763673e-002
2.956464e+003;6.659975e-002
2.958393e+003;6.588199e-002
2.960321e+003;6.575386e-002
2.962250e+003;6.582639e-002
2.964178e+003;6.540539e-002
2.966107e+003;6.489723e-002
2.968035e+003;6.488573e-002
2.969964e+003;6.475341e-002
2.971892e+003;6.443018e-002
2.973821e+003;6.423295e-002
2.975750e+003;6.391463e-002
2.977678e+003;6.378648e-002
2.979607e+003;6.363672e-002
2.981535e+003;6.295509e-002
2.983464e+003;6.202804e-002
2.985392e+003;6.166074e-002
2.987321e+003;6.161820e-002
2.989249e+003;6.154153e-002
2.991178e+003;6.116274e-002
2.993106e+003;6.061574e-002
2.995035e+003;6.054199e-002
2.996964e+003;6.086687e-002
2.998892e+003;6.099818e-002
3.000821e+003;6.061849e-002
3.002749e+003;6.029478e-002
3.004678e+003;6.078188e-002
3.006606e+003;6.102773e-002
3.008535e+003;6.052344e-002
3.010463e+003;5.990293e-002
3.012392e+003;5.934395e-002
3.014321e+003;5.944724e-002
3.016249e+003;5.984173e-002
3.018177e+003;6.024293e-002
3.020106e+003;6.053319e-002
3.022035e+003;6.065647e-002
3.023963e+003;6.065113e-002
3.025892e+003;6.045729e-002
3.027820e+003;6.039868e-002
3.029749e+003;6.061788e-002
3.031677e+003;6.067102e-002
3.033606e+003;6.070288e-002
3.035534e+003;6.112799e-002
3.037463e+003;6.151637e-002
3.039392e+003;6.176673e-002
3.041320e+003;6.188229e-002
3.043249e+003;6.210174e-002
3.045177e+003;6.212536e-002
3.047106e+003;6.196475e-002
3.049034e+003;6.230944e-002
3.050963e+003;6.279992e-002
3.052891e+003;6.280547e-002
3.054820e+003;6.282610e-002
3.056749e+003;6.334108e-002
3.058677e+003;6.372964e-002
3.060606e+003;6.366120e-002
3.062534e+003;6.360369e-002
3.064463e+003;6.367064e-002
3.066391e+003;6.410085e-002
3.068320e+003;6.465280e-002
3.070248e+003;6.483264e-002
3.072177e+003;6.499586e-002
3.074105e+003;6.507479e-002
3.076034e+003;6.525169e-002
3.077963e+003;6.556967e-002
3.079891e+003;6.596139e-002
3.081820e+003;6.613471e-002
3.083748e+003;6.601138e-002
3.085677e+003;6.638103e-002
3.087605e+003;6.658252e-002
3.089534e+003;6.678438e-002
3.091462e+003;6.724334e-002
3.093391e+003;6.781824e-002
3.095320e+003;6.831827e-002
3.097248e+003;6.831804e-002
3.099177e+003;6.825782e-002
3.101105e+003;6.848579e-002
3.103034e+003;6.885351e-002
3.104962e+003;6.867988e-002
3.106891e+003;6.862392e-002
3.108819e+003;6.905806e-002
3.110748e+003;6.916766e-002
3.112677e+003;6.880095e-002
3.114605e+003;6.895307e-002
3.116533e+003;6.976733e-002
3.118462e+003;7.085715e-002
3.120391e+003;7.139670e-002
3.122319e+003;7.127097e-002
3.124248e+003;7.143076e-002
3.126176e+003;7.177554e-002
3.128105e+003;7.195081e-002
3.130033e+003;7.198042e-002
3.131962e+003;7.220601e-002
3.133890e+003;7.253163e-002
3.135819e+003;7.304696e-002
3.137748e+003;7.364015e-002
3.139676e+003;7.400740e-002
3.141605e+003;7.388460e-002
3.143533e+003;7.367364e-002
3.145462e+003;7.401758e-002
3.147390e+003;7.481548e-002
3.149319e+003;7.541508e-002
3.151247e+003;7.546116e-002
3.153176e+003;7.564747e-002
3.155104e+003;7.622800e-002
3.157033e+003;7.660820e-002
3.158962e+003;7.669883e-002
3.160890e+003;7.700799e-002
3.162819e+003;7.763626e-002
3.164747e+003;7.784605e-002
3.166676e+003;7.786322e-002
3.168604e+003;7.792632e-002
3.170533e+003;7.832055e-002
3.172461e+003;7.935943e-002
3.174390e+003;8.049820e-002
3.176319e+003;8.065835e-002
3.178247e+003;8.058539e-002
3.180176e+003;8.098766e-002
3.182104e+003;8.177648e-002
3.184033e+003;8.226315e-002
3.185961e+003;8.229875e-002
3.187890e+003;8.251594e-002
3.189818e+003;8.302806e-002
3.191747e+003;8.325208e-002
3.193676e+003;8.387302e-002
3.195604e+003;8.448526e-002
3.197532e+003;8.469356e-002
3.199461e+003;8.493412e-002
3.201390e+003;8.575711e-002
3.203318e+003;8.640489e-002
3.205247e+003;8.631555e-002
3.207175e+003;8.640897e-002
3.209104e+003;8.706237e-002
3.211032e+003;8.768984e-002
3.212961e+003;8.829235e-002
3.214889e+003;8.886975e-002
3.216818e+003;8.908001e-002
3.218747e+003;8.924328e-002
3.220675e+003;8.976889e-002
3.222604e+003;9.050075e-002
3.224532e+003;9.068183e-002
3.226461e+003;9.123053e-002
3.228389e+003;9.181239e-002
3.230318e+003;9.207395e-002
3.232246e+003;9.219074e-002
3.234175e+003;9.243082e-002
3.236104e+003;9.260987e-002
3.238032e+003;9.292099e-002
3.239961e+003;9.323826e-002
3.241889e+003;9.407526e-002
3.243818e+003;9.480622e-002
3.245746e+003;9.541737e-002
3.247675e+003;9.588267e-002
3.249603e+003;9.632828e-002
3.251532e+003;9.708682e-002
3.253460e+003;9.785984e-002
3.255389e+003;9.793203e-002
3.257318e+003;9.781622e-002
3.259246e+003;9.840968e-002
3.261175e+003;9.881579e-002
3.263103e+003;9.899725e-002
3.265032e+003;9.957561e-002
3.266960e+003;9.985603e-002
3.268889e+003;1.000335e-001
3.270817e+003;1.007476e-001
3.272746e+003;1.013504e-001
3.274675e+003;1.015440e-001
3.276603e+003;1.011848e-001
3.278531e+003;1.009559e-001
3.280460e+003;1.016176e-001
3.282389e+003;1.020850e-001
3.284317e+003;1.020355e-001
3.286246e+003;1.021669e-001
3.288174e+003;1.027546e-001
3.290103e+003;1.031513e-001
3.292031e+003;1.031331e-001
3.293960e+003;1.030411e-001
3.295888e+003;1.033996e-001
3.297817e+003;1.035707e-001
3.299746e+003;1.035576e-001
3.301674e+003;1.034318e-001
3.303603e+003;1.030451e-001
3.305531e+003;1.033809e-001
3.307460e+003;1.040808e-001
3.309388e+003;1.045029e-001
3.311317e+003;1.048107e-001
3.313245e+003;1.047589e-001
3.315174e+003;1.048758e-001
3.317103e+003;1.050950e-001
3.319031e+003;1.048620e-001
3.320960e+003;1.047354e-001
3.322888e+003;1.051461e-001
3.324817e+003;1.053766e-001
3.326745e+003;1.046762e-001
3.328674e+003;1.043394e-001
3.330602e+003;1.043992e-001
3.332531e+003;1.041418e-001
3.334459e+003;1.041274e-001
3.336388e+003;1.043085e-001
3.338317e+003;1.045602e-001
3.340245e+003;1.044248e-001
3.342174e+003;1.039575e-001
3.344102e+003;1.039184e-001
3.346031e+003;1.035432e-001
3.347959e+003;1.034690e-001
3.349888e+003;1.031847e-001
3.351816e+003;1.024913e-001
3.353745e+003;1.023304e-001
3.355674e+003;1.024711e-001
3.357602e+003;1.023458e-001
3.359531e+003;1.021015e-001
3.361459e+003;1.018840e-001
3.363388e+003;1.014417e-001
3.365316e+003;1.004436e-001
3.367245e+003;9.989444e-002
3.369173e+003;1.002201e-001
3.371102e+003;1.003559e-001
3.373031e+003;1.002165e-001
3.374959e+003;9.992371e-002
3.376887e+003;9.917840e-002
3.378816e+003;9.783705e-002
3.380745e+003;9.771650e-002
3.382673e+003;9.800739e-002
3.384602e+003;9.762754e-002
3.386530e+003;9.690563e-002
3.388459e+003;9.670839e-002
3.390387e+003;9.643472e-002
3.392316e+003;9.600821e-002
3.394244e+003;9.597655e-002
3.396173e+003;9.529789e-002
3.398102e+003;9.512664e-002
3.400030e+003;9.511237e-002
3.401959e+003;9.477267e-002
3.403887e+003;9.456500e-002
3.405816e+003;9.404515e-002
3.407744e+003;9.330779e-002
3.409673e+003;9.220751e-002
3.411601e+003;9.135813e-002
3.413530e+003;9.186684e-002
3.415458e+003;9.214396e-002
3.417387e+003;9.156428e-002
3.419316e+003;9.075634e-002
3.421244e+003;8.990581e-002
3.423173e+003;8.954548e-002
3.425101e+003;8.945529e-002
3.427030e+003;8.891598e-002
3.428958e+003;8.799422e-002
3.430887e+003;8.671383e-002
3.432815e+003;8.581666e-002
3.434744e+003;8.558393e-002
3.436673e+003;8.527201e-002
3.438601e+003;8.462117e-002
3.440530e+003;8.393327e-002
3.442458e+003;8.355886e-002
3.444387e+003;8.359730e-002
3.446315e+003;8.317539e-002
3.448244e+003;8.218475e-002
3.450172e+003;8.147212e-002
3.452101e+003;8.082894e-002
3.454030e+003;8.073991e-002
3.455958e+003;8.066928e-002
3.457886e+003;8.028775e-002
3.459815e+003;7.895128e-002
3.461744e+003;7.778275e-002
3.463672e+003;7.752240e-002
3.465601e+003;7.703437e-002
3.467529e+003;7.659179e-002
3.469458e+003;7.607164e-002
3.471386e+003;7.552183e-002
3.473315e+003;7.498021e-002
3.475243e+003;7.399117e-002
3.477172e+003;7.361051e-002
3.479101e+003;7.337266e-002
3.481029e+003;7.222424e-002
3.482958e+003;7.158589e-002
3.484886e+003;7.125031e-002
3.486815e+003;7.054015e-002
3.488743e+003;6.962864e-002
3.490672e+003;6.912290e-002
3.492600e+003;6.859660e-002
3.494529e+003;6.807753e-002
3.496458e+003;6.753398e-002
3.498386e+003;6.707205e-002
3.500315e+003;6.634652e-002
3.502243e+003;6.549631e-002
3.504172e+003;6.486234e-002
3.506100e+003;6.478713e-002
3.508029e+003;6.446734e-002
3.509957e+003;6.385572e-002
3.511886e+003;6.323134e-002
3.513814e+003;6.231288e-002
3.515743e+003;6.159796e-002
3.517672e+003;6.115118e-002
3.519600e+003;6.081831e-002
3.521529e+003;6.031465e-002
3.523457e+003;5.961696e-002
3.525386e+003;5.886506e-002
3.527314e+003;5.858892e-002
3.529243e+003;5.873960e-002
3.531171e+003;5.812091e-002
3.533100e+003;5.733064e-002
3.535029e+003;5.646913e-002
3.536957e+003;5.586669e-002
3.538885e+003;5.571312e-002
3.540814e+003;5.559365e-002
3.542743e+003;5.485068e-002
3.544671e+003;5.376701e-002
3.546600e+003;5.334249e-002
3.548528e+003;5.342147e-002
3.550457e+003;5.310271e-002
3.552385e+003;5.241605e-002
3.554314e+003;5.172107e-002
3.556242e+003;5.145085e-002
3.558171e+003;5.096724e-002
3.560100e+003;5.043754e-002
3.562028e+003;4.997031e-002
3.563957e+003;4.924222e-002
3.565885e+003;4.872326e-002
3.567814e+003;4.805903e-002
3.569742e+003;4.745587e-002
3.571671e+003;4.737401e-002
3.573599e+003;4.742198e-002
3.575528e+003;4.714907e-002
3.577457e+003;4.681911e-002
3.579385e+003;4.632574e-002
3.581314e+003;4.598459e-002
3.583242e+003;4.570187e-002
3.585171e+003;4.506635e-002
3.587099e+003;4.378212e-002
3.589028e+003;4.326982e-002
3.590956e+003;4.361936e-002
3.592885e+003;4.329728e-002
3.594813e+003;4.244998e-002
3.596742e+003;4.197059e-002
3.598671e+003;4.170024e-002
3.600599e+003;4.139128e-002
3.602528e+003;4.120849e-002
3.604456e+003;4.067324e-002
3.606385e+003;3.976844e-002
3.608313e+003;3.900374e-002
3.610242e+003;3.881435e-002
3.612170e+003;3.840288e-002
3.614099e+003;3.819801e-002
3.616028e+003;3.806967e-002
3.617956e+003;3.735825e-002
3.619885e+003;3.665942e-002
3.621813e+003;3.634286e-002
3.623742e+003;3.618304e-002
3.625670e+003;3.565527e-002
3.627599e+003;3.466272e-002
3.629527e+003;3.346675e-002
3.631456e+003;3.288826e-002
3.633385e+003;3.260135e-002
3.635313e+003;3.219815e-002
3.637241e+003;3.177864e-002
3.639170e+003;3.103428e-002
3.641099e+003;3.024902e-002
3.643027e+003;2.958388e-002
3.644956e+003;2.891093e-002
3.646884e+003;2.784901e-002
3.648813e+003;2.661952e-002
3.650741e+003;2.592407e-002
3.652670e+003;2.545263e-002
3.654598e+003;2.446551e-002
3.656527e+003;2.332746e-002
3.658456e+003;2.291024e-002
3.660384e+003;2.257313e-002
3.662313e+003;2.205818e-002
3.664241e+003;2.123024e-002
3.666170e+003;2.044700e-002
3.668098e+003;1.981483e-002
3.670027e+003;1.915605e-002
3.671955e+003;1.866993e-002
3.673884e+003;1.796222e-002
3.675813e+003;1.706332e-002
3.677741e+003;1.663982e-002
3.679669e+003;1.618749e-002
3.681598e+003;1.567751e-002
3.683527e+003;1.566546e-002
3.685455e+003;1.500487e-002
3.687384e+003;1.378733e-002
3.689312e+003;1.315801e-002
3.691241e+003;1.394876e-002
3.693169e+003;1.502185e-002
3.695098e+003;1.468526e-002
3.697026e+003;1.398164e-002
3.698955e+003;1.379136e-002
3.700884e+003;1.320302e-002
3.702812e+003;1.271417e-002
3.704741e+003;1.279671e-002
3.706669e+003;1.255975e-002
3.708598e+003;1.194341e-002
3.710526e+003;1.149387e-002
3.712455e+003;1.123725e-002
3.714383e+003;1.137569e-002
3.716312e+003;1.128393e-002
3.718240e+003;1.091414e-002
3.720169e+003;1.038713e-002
3.722098e+003;1.036049e-002
3.724026e+003;1.045837e-002
3.725955e+003;9.846932e-003
3.727883e+003;9.295321e-003
3.729812e+003;8.997738e-003
3.731740e+003;8.787415e-003
3.733669e+003;8.934924e-003
3.735597e+003;9.142274e-003
3.737526e+003;9.458919e-003
3.739455e+003;9.633622e-003
3.741383e+003;9.756919e-003
3.743312e+003;9.350806e-003
3.745240e+003;9.176047e-003
3.747169e+003;9.234156e-003
3.749097e+003;8.430075e-003
3.751026e+003;7.647376e-003
3.752954e+003;8.177448e-003
3.754883e+003;9.318577e-003
3.756812e+003;9.197908e-003
3.758740e+003;8.759386e-003
3.760668e+003;8.809427e-003
3.762597e+003;8.971049e-003
3.764526e+003;8.531572e-003
3.766454e+003;8.347888e-003
3.768383e+003;8.348158e-003
3.770311e+003;8.040996e-003
3.772240e+003;8.466765e-003
3.774168e+003;9.136082e-003
3.776097e+003;8.999193e-003
3.778025e+003;9.003894e-003
3.779954e+003;9.120448e-003
3.781883e+003;8.977645e-003
3.783811e+003;8.911825e-003
3.785740e+003;9.414323e-003
3.787668e+003;9.676716e-003
3.789597e+003;9.129077e-003
3.791525e+003;8.514644e-003
3.793454e+003;8.557728e-003
3.795382e+003;8.745085e-003
3.797311e+003;9.034138e-003
3.799240e+003;8.902524e-003
3.801168e+003;8.515252e-003
3.803097e+003;9.071557e-003
3.805025e+003;9.336079e-003
3.806954e+003;8.680550e-003
3.808882e+003;8.505655e-003
3.810811e+003;8.863666e-003
3.812739e+003;8.641341e-003
3.814668e+003;7.970086e-003
3.816596e+003;8.122011e-003
3.818525e+003;8.909051e-003
3.820454e+003;8.888793e-003
3.822382e+003;9.164236e-003
3.824311e+003;9.668144e-003
3.826239e+003;9.274164e-003
3.828168e+003;8.732407e-003
3.830096e+003;8.699176e-003
3.832025e+003;8.988571e-003
3.833953e+003;9.031229e-003
3.835882e+003;9.148365e-003
3.837811e+003;9.671431e-003
3.839739e+003;1.025361e-002
3.841667e+003;1.037396e-002
3.843596e+003;9.917065e-003
3.845525e+003;9.553815e-003
3.847453e+003;9.314751e-003
3.849382e+003;9.253855e-003
3.851310e+003;9.016445e-003
3.853239e+003;8.864410e-003
3.855167e+003;1.014076e-002
3.857096e+003;1.092695e-002
3.859024e+003;1.095328e-002
3.860953e+003;1.097598e-002
3.862882e+003;1.065925e-002
3.864810e+003;1.052500e-002
3.866739e+003;1.124707e-002
3.868667e+003;1.128461e-002
3.870596e+003;1.090812e-002
3.872524e+003;1.108158e-002
3.874453e+003;1.114484e-002
3.876381e+003;1.115735e-002
3.878310e+003;1.090000e-002
3.880239e+003;1.106706e-002
3.882167e+003;1.164686e-002
3.884096e+003;1.179501e-002
3.886024e+003;1.154150e-002
3.887953e+003;1.172981e-002
3.889881e+003;1.179232e-002
3.891810e+003;1.198332e-002
3.893738e+003;1.254235e-002
3.895667e+003;1.249447e-002
3.897595e+003;1.196755e-002
3.899524e+003;1.151153e-002
3.901453e+003;1.152732e-002
3.903381e+003;1.170306e-002
3.905310e+003;1.213676e-002
3.907238e+003;1.296024e-002
3.909167e+003;1.309206e-002
3.911095e+003;1.272287e-002
3.913024e+003;1.262923e-002
3.914952e+003;1.293221e-002
3.916881e+003;1.358848e-002
3.918810e+003;1.376499e-002
3.920738e+003;1.356524e-002
3.922667e+003;1.310261e-002
3.924595e+003;1.265672e-002
3.926524e+003;1.326417e-002
3.928452e+003;1.398818e-002
3.930381e+003;1.399239e-002
3.932309e+003;1.417806e-002
3.934238e+003;1.495000e-002
3.936167e+003;1.500059e-002
3.938095e+003;1.500340e-002
3.940023e+003;1.477578e-002
3.941952e+003;1.489403e-002
3.943881e+003;1.526538e-002
3.945809e+003;1.504717e-002
3.947738e+003;1.494376e-002
3.949666e+003;1.554943e-002
3.951595e+003;1.598507e-002
3.953523e+003;1.608973e-002
3.955452e+003;1.575248e-002
3.957380e+003;1.513609e-002
3.959309e+003;1.523031e-002
3.961238e+003;1.548937e-002
3.963166e+003;1.579505e-002
3.965095e+003;1.614454e-002
3.967023e+003;1.613924e-002
3.968952e+003;1.584903e-002
3.970880e+003;1.599064e-002
3.972809e+003;1.634813e-002
3.974737e+003;1.578649e-002
3.976666e+003;1.551097e-002
3.978594e+003;1.611476e-002
3.980523e+003;1.622601e-002
3.982452e+003;1.645973e-002
3.984380e+003;1.632605e-002
3.986309e+003;1.648148e-002
3.988237e+003;1.708310e-002
3.990166e+003;1.715210e-002
3.992094e+003;1.683431e-002
3.994023e+003;1.640539e-002
3.995951e+003;1.664016e-002
3.997880e+003;1.716758e-002
3.999809e+003;1.746177e-002
4.001737e+003;0.000000e+000
