3.992094e+002;0.000000e+000
4.011380e+002;0.000000e+000
4.030665e+002;0.000000e+000
4.049951e+002;0.000000e+000
4.069236e+002;0.000000e+000
4.088522e+002;0.000000e+000
4.107807e+002;0.000000e+000
4.127093e+002;0.000000e+000
4.146378e+002;0.000000e+000
4.165664e+002;0.000000e+000
4.184949e+002;0.000000e+000
4.204235e+002;0.000000e+000
4.223520e+002;0.000000e+000
4.242806e+002;0.000000e+000
4.262091e+002;0.000000e+000
4.281377e+002;0.000000e+000
4.300662e+002;0.000000e+000
4.319948e+002;0.000000e+000
4.339233e+002;0.000000e+000
4.358519e+002;0.000000e+000
4.377804e+002;0.000000e+000
4.397090e+002;0.000000e+000
4.416375e+002;0.000000e+000
4.435660e+002;0.000000e+000
4.454946e+002;0.000000e+000
4.474232e+002;0.000000e+000
4.493517e+002;0.000000e+000
4.512802e+002;0.000000e+000
4.532088e+002;0.000000e+000
4.551373e+002;0.000000e+000
4.570659e+002;0.000000e+000
4.589944e+002;0.000000e+000
4.609230e+002;0.000000e+000
4.628515e+002;0.000000e+000
4.647801e+002;0.000000e+000
4.667086e+002;0.000000e+000
4.686372e+002;0.000000e+000
4.705657e+002;0.000000e+000
4.724943e+002;0.000000e+000
4.744228e+002;0.000000e+000
4.763513e+002;0.000000e+000
4.782799e+002;0.000000e+000
4.802085e+002;0.000000e+000
4.821370e+002;0.000000e+000
4.840656e+002;0.000000e+000
4.859941e+002;0.000000e+000
4.879226e+002;0.000000e+000
4.898512e+002;0.000000e+000
4.917798e+002;0.000000e+000
4.937083e+002;0.000000e+000
4.956368e+002;0.000000e+000
4.975654e+002;0.000000e+000
4.994939e+002;0.000000e+000
5.014225e+002;0.000000e+000
5.033510e+002;0.000000e+000
5.052796e+002;0.000000e+000
5.072081e+002;0.000000e+000
5.091367e+002;0.000000e+000
5.110652e+002;0.000000e+000
5.129938e+002;0.000000e+000
5.149223e+002;0.000000e+000
5.168509e+002;0.000000e+000
5.187794e+002;0.000000e+000
5.207079e+002;0.000000e+000
5.226365e+002;0.000000e+000
5.245651e+002;0.000000e+000
5.264936e+002;0.000000e+000
5.284222e+002;0.000000e+000
5.303507e+002;0.000000e+000
5.322792e+002;0.000000e+000
5.342078e+002;0.000000e+000
5.361364e+002;0.000000e+000
5.380649e+002;0.000000e+000
5.399935e+002;0.000000e+000
5.419220e+002;0.000000e+000
5.438505e+002;0.000000e+000
5.457791e+002;0.000000e+000
5.477076e+002;0.000000e+000
5.496362e+002;0.000000e+000
5.515648e+002;0.000000e+000
5.534933e+002;0.000000e+000
5.554218e+002;0.000000e+000
5.573504e+002;0.000000e+000
5.592789e+002;0.000000e+000
5.612075e+002;0.000000e+000
5.631360e+002;0.000000e+000
5.650646e+002;0.000000e+000
5.669931e+002;0.000000e+000
5.689217e+002;0.000000e+000
5.708502e+002;0.000000e+000
5.727787e+002;0.000000e+000
5.747073e+002;0.000000e+000
5.766359e+002;0.000000e+000
5.785644e+002;0.000000e+000
5.804930e+002;0.000000e+000
5.824215e+002;0.000000e+000
5.843500e+002;0.000000e+000
5.862786e+002;0.000000e+000
5.882072e+002;0.000000e+000
5.901357e+002;0.000000e+000
5.920643e+002;0.000000e+000
5.939928e+002;0.000000e+000
5.959213e+002;0.000000e+000
5.978499e+002;0.000000e+000
5.997784e+002;1.992290e-001
6.017070e+002;2.016309e-001
6.036355e+002;2.013723e-001
6.055641e+002;2.001431e-001
6.074926e+002;2.038585e-001
6.094211e+002;2.116659e-001
6.113497e+002;2.087183e-001
6.132783e+002;1.996243e-001
6.152068e+002;1.966134e-001
6.171354e+002;1.954215e-001
6.190639e+002;1.960873e-001
6.209924e+002;1.939790e-001
6.229210e+002;1.908762e-001
6.248495e+002;1.825242e-001
6.267781e+002;1.765389e-001
6.287067e+002;1.743948e-001
6.306352e+002;1.797940e-001
6.325637e+002;1.843958e-001
6.344923e+002;1.811174e-001
6.364208e+002;1.792983e-001
6.383494e+002;1.741560e-001
6.402780e+002;1.745544e-001
6.422065e+002;1.782279e-001
6.441350e+002;1.795953e-001
6.460636e+002;1.779316e-001
6.479921e+002;1.779073e-001
6.499207e+002;1.751530e-001
6.518492e+002;1.743816e-001
6.537778e+002;1.773214e-001
6.557063e+002;1.803422e-001
6.576349e+002;1.821304e-001
6.595634e+002;1.822963e-001
6.614919e+002;1.848180e-001
6.634205e+002;1.853568e-001
6.653491e+002;1.815356e-001
6.672776e+002;1.796170e-001
6.692062e+002;1.808712e-001
6.711347e+002;1.786100e-001
6.730632e+002;1.746155e-001
6.749918e+002;1.724460e-001
6.769203e+002;1.682903e-001
6.788489e+002;1.630712e-001
6.807775e+002;1.587252e-001
6.827060e+002;1.561450e-001
6.846345e+002;1.542762e-001
6.865631e+002;1.516686e-001
6.884916e+002;1.524055e-001
6.904202e+002;1.545337e-001
6.923488e+002;1.528646e-001
6.942773e+002;1.496046e-001
6.962058e+002;1.481306e-001
6.981344e+002;1.486639e-001
7.000629e+002;1.495270e-001
7.019915e+002;1.490419e-001
7.039200e+002;1.486258e-001
7.058486e+002;1.472788e-001
7.077771e+002;1.445726e-001
7.097057e+002;1.442907e-001
7.116342e+002;1.443294e-001
7.135627e+002;1.437017e-001
7.154913e+002;1.426151e-001
7.174199e+002;1.419102e-001
7.193484e+002;1.393678e-001
7.212770e+002;1.362251e-001
7.232055e+002;1.347338e-001
7.251340e+002;1.328993e-001
7.270626e+002;1.317798e-001
7.289911e+002;1.308507e-001
7.309197e+002;1.300458e-001
7.328483e+002;1.286151e-001
7.347768e+002;1.266501e-001
7.367053e+002;1.266939e-001
7.386339e+002;1.257934e-001
7.405624e+002;1.234702e-001
7.424910e+002;1.228271e-001
7.444196e+002;1.217934e-001
7.463481e+002;1.203476e-001
7.482766e+002;1.201525e-001
7.502052e+002;1.199175e-001
7.521337e+002;1.184775e-001
7.540623e+002;1.171045e-001
7.559908e+002;1.162688e-001
7.579194e+002;1.165099e-001
7.598479e+002;1.161744e-001
7.617765e+002;1.148733e-001
7.637050e+002;1.138716e-001
7.656335e+002;1.131062e-001
7.675621e+002;1.131892e-001
7.694907e+002;1.133282e-001
7.714192e+002;1.125961e-001
7.733478e+002;1.119512e-001
7.752763e+002;1.111279e-001
7.772048e+002;1.105696e-001
7.791334e+002;1.106555e-001
7.810620e+002;1.110984e-001
7.829905e+002;1.109759e-001
7.849191e+002;1.104369e-001
7.868476e+002;1.108249e-001
7.887761e+002;1.109836e-001
7.907047e+002;1.101442e-001
7.926332e+002;1.097238e-001
7.945618e+002;1.100269e-001
7.964903e+002;1.100956e-001
7.984189e+002;1.107688e-001
8.003474e+002;1.108968e-001
8.022759e+002;1.106172e-001
8.042045e+002;1.112646e-001
8.061331e+002;1.113494e-001
8.080616e+002;1.113870e-001
8.099902e+002;1.113645e-001
8.119187e+002;1.119267e-001
8.138472e+002;1.121035e-001
8.157758e+002;1.117196e-001
8.177043e+002;1.120209e-001
8.196329e+002;1.128893e-001
8.215615e+002;1.141861e-001
8.234900e+002;1.141296e-001
8.254185e+002;1.139271e-001
8.273471e+002;1.146592e-001
8.292756e+002;1.152638e-001
8.312042e+002;1.149269e-001
8.331328e+002;1.144424e-001
8.350613e+002;1.146122e-001
8.369898e+002;1.153265e-001
8.389184e+002;1.149328e-001
8.408469e+002;1.140304e-001
8.427755e+002;1.135880e-001
8.447040e+002;1.142498e-001
8.466326e+002;1.151938e-001
8.485611e+002;1.152962e-001
8.504897e+002;1.153489e-001
8.524182e+002;1.153026e-001
8.543467e+002;1.150516e-001
8.562753e+002;1.152836e-001
8.582039e+002;1.168382e-001
8.601324e+002;1.184156e-001
8.620610e+002;1.192780e-001
8.639895e+002;1.203005e-001
8.659180e+002;1.221197e-001
8.678466e+002;1.238073e-001
8.697751e+002;1.247950e-001
8.717037e+002;1.266725e-001
8.736323e+002;1.292367e-001
8.755608e+002;1.314620e-001
8.774893e+002;1.331062e-001
8.794179e+002;1.341920e-001
8.813464e+002;1.360807e-001
8.832750e+002;1.382843e-001
8.852036e+002;1.405545e-001
8.871321e+002;1.431639e-001
8.890606e+002;1.456775e-001
8.909892e+002;1.479322e-001
8.929177e+002;1.497326e-001
8.948463e+002;1.515650e-001
8.967748e+002;1.518060e-001
8.987034e+002;1.507207e-001
9.006319e+002;1.496108e-001
9.025605e+002;1.486731e-001
9.044890e+002;1.477821e-001
9.064175e+002;1.456365e-001
9.083461e+002;1.439293e-001
9.102747e+002;1.437401e-001
9.122032e+002;1.433900e-001
9.141318e+002;1.424929e-001
9.160603e+002;1.419607e-001
9.179888e+002;1.417512e-001
9.199174e+002;1.415737e-001
9.218459e+002;1.419160e-001
9.237745e+002;1.426807e-001
9.257031e+002;1.436368e-001
9.276316e+002;1.444751e-001
9.295601e+002;1.450538e-001
9.314887e+002;1.454991e-001
9.334172e+002;1.462264e-001
9.353458e+002;1.469542e-001
9.372744e+002;1.480825e-001
9.392029e+002;1.496494e-001
9.411314e+002;1.516923e-001
9.430600e+002;1.545893e-001
9.449885e+002;1.573873e-001
9.469171e+002;1.598283e-001
9.488456e+002;1.630087e-001
9.507742e+002;1.669846e-001
9.527027e+002;1.710864e-001
9.546313e+002;1.746988e-001
9.565598e+002;1.789669e-001
9.584883e+002;1.835675e-001
9.604169e+002;1.883580e-001
9.623455e+002;1.933439e-001
9.642740e+002;1.978516e-001
9.662026e+002;2.024070e-001
9.681311e+002;2.073604e-001
9.700596e+002;2.132113e-001
9.719882e+002;2.199647e-001
9.739167e+002;2.268910e-001
9.758453e+002;2.343220e-001
9.777739e+002;2.424731e-001
9.797024e+002;2.507364e-001
9.816309e+002;2.587536e-001
9.835595e+002;2.664655e-001
9.854880e+002;2.725667e-001
9.874166e+002;2.770387e-001
9.893452e+002;2.801834e-001
9.912737e+002;2.829533e-001
9.932022e+002;2.857641e-001
9.951307e+002;2.884009e-001
9.970593e+002;2.911991e-001
9.989879e+002;2.947987e-001
1.000916e+003;2.991651e-001
1.002845e+003;3.035646e-001
1.004773e+003;3.069276e-001
1.006702e+003;3.104106e-001
1.008631e+003;3.145960e-001
1.010559e+003;3.191585e-001
1.012488e+003;3.239841e-001
1.014416e+003;3.291092e-001
1.016345e+003;3.343410e-001
1.018273e+003;3.393781e-001
1.020202e+003;3.432958e-001
1.022130e+003;3.465379e-001
1.024059e+003;3.489406e-001
1.025988e+003;3.510370e-001
1.027916e+003;3.525056e-001
1.029845e+003;3.538285e-001
1.031773e+003;3.547549e-001
1.033702e+003;3.541134e-001
1.035630e+003;3.515763e-001
1.037559e+003;3.477551e-001
1.039487e+003;3.443192e-001
1.041416e+003;3.416748e-001
1.043344e+003;3.389018e-001
1.045273e+003;3.370032e-001
1.047202e+003;3.352041e-001
1.049130e+003;3.329007e-001
1.051059e+003;3.305723e-001
1.052987e+003;3.277259e-001
1.054916e+003;3.235094e-001
1.056844e+003;3.181891e-001
1.058773e+003;3.126739e-001
1.060701e+003;3.060812e-001
1.062630e+003;2.976851e-001
1.064558e+003;2.891486e-001
1.066487e+003;2.802855e-001
1.068416e+003;2.722068e-001
1.070344e+003;2.659232e-001
1.072273e+003;2.605894e-001
1.074201e+003;2.554221e-001
1.076130e+003;2.515076e-001
1.078058e+003;2.478262e-001
1.079987e+003;2.441840e-001
1.081915e+003;2.417083e-001
1.083844e+003;2.393577e-001
1.085773e+003;2.367486e-001
1.087701e+003;2.348069e-001
1.089630e+003;2.333688e-001
1.091558e+003;2.322400e-001
1.093487e+003;2.319023e-001
1.095415e+003;2.315982e-001
1.097344e+003;2.312641e-001
1.099272e+003;2.306681e-001
1.101201e+003;2.296659e-001
1.103129e+003;2.286884e-001
1.105058e+003;2.262648e-001
1.106987e+003;2.227544e-001
1.108915e+003;2.180233e-001
1.110844e+003;2.124403e-001
1.112772e+003;2.071119e-001
1.114701e+003;2.013953e-001
1.116629e+003;1.957533e-001
1.118558e+003;1.908691e-001
1.120486e+003;1.863767e-001
1.122415e+003;1.818288e-001
1.124344e+003;1.776999e-001
1.126272e+003;1.733026e-001
1.128201e+003;1.667347e-001
1.130129e+003;1.606401e-001
1.132058e+003;1.556687e-001
1.133986e+003;1.502100e-001
1.135915e+003;1.454970e-001
1.137843e+003;1.414887e-001
1.139772e+003;1.391509e-001
1.141700e+003;1.385762e-001
1.143629e+003;1.383214e-001
1.145557e+003;1.381377e-001
1.147486e+003;1.380320e-001
1.149415e+003;1.377101e-001
1.151343e+003;1.374991e-001
1.153272e+003;1.370854e-001
1.155200e+003;1.360601e-001
1.157129e+003;1.349484e-001
1.159057e+003;1.331500e-001
1.160986e+003;1.306442e-001
1.162914e+003;1.277364e-001
1.164843e+003;1.244605e-001
1.166771e+003;1.205568e-001
1.168700e+003;1.153576e-001
1.170629e+003;1.101710e-001
1.172557e+003;1.060698e-001
1.174486e+003;1.025447e-001
1.176414e+003;9.972824e-002
1.178343e+003;9.774646e-002
1.180271e+003;9.589250e-002
1.182200e+003;9.539223e-002
1.184128e+003;9.553245e-002
1.186057e+003;9.556858e-002
1.187986e+003;9.643430e-002
1.189914e+003;9.753741e-002
1.191843e+003;9.916145e-002
1.193771e+003;1.015073e-001
1.195700e+003;1.037748e-001
1.197628e+003;1.060403e-001
1.199557e+003;1.083722e-001
1.201485e+003;1.104913e-001
1.203414e+003;1.119137e-001
1.205343e+003;1.124359e-001
1.207271e+003;1.129690e-001
1.209200e+003;1.140827e-001
1.211128e+003;1.156974e-001
1.213057e+003;1.178090e-001
1.214985e+003;1.212712e-001
1.216914e+003;1.248330e-001
1.218842e+003;1.272914e-001
1.220771e+003;1.302573e-001
1.222699e+003;1.339210e-001
1.224628e+003;1.370051e-001
1.226557e+003;1.393716e-001
1.228485e+003;1.415822e-001
1.230414e+003;1.430915e-001
1.232342e+003;1.441655e-001
1.234271e+003;1.450464e-001
1.236199e+003;1.450916e-001
1.238128e+003;1.445664e-001
1.240056e+003;1.436915e-001
1.241985e+003;1.425990e-001
1.243913e+003;1.418646e-001
1.245842e+003;1.409909e-001
1.247771e+003;1.393138e-001
1.249699e+003;1.373699e-001
1.251628e+003;1.356479e-001
1.253556e+003;1.334645e-001
1.255485e+003;1.315470e-001
1.257413e+003;1.301807e-001
1.259342e+003;1.285224e-001
1.261270e+003;1.264657e-001
1.263199e+003;1.241342e-001
1.265127e+003;1.219595e-001
1.267056e+003;1.198899e-001
1.268985e+003;1.177127e-001
1.270913e+003;1.154701e-001
1.272842e+003;1.129743e-001
1.274770e+003;1.107950e-001
1.276699e+003;1.090806e-001
1.278627e+003;1.071425e-001
1.280556e+003;1.053172e-001
1.282484e+003;1.040095e-001
1.284413e+003;1.029436e-001
1.286342e+003;1.021159e-001
1.288270e+003;1.018508e-001
1.290199e+003;1.018194e-001
1.292127e+003;1.017722e-001
1.294056e+003;1.018686e-001
1.295984e+003;1.028094e-001
1.297913e+003;1.041244e-001
1.299841e+003;1.054700e-001
1.301770e+003;1.072012e-001
1.303698e+003;1.095007e-001
1.305627e+003;1.118428e-001
1.307556e+003;1.139015e-001
1.309484e+003;1.159475e-001
1.311413e+003;1.179354e-001
1.313341e+003;1.195392e-001
1.315270e+003;1.208363e-001
1.317198e+003;1.214051e-001
1.319127e+003;1.214788e-001
1.321055e+003;1.210482e-001
1.322984e+003;1.204298e-001
1.324912e+003;1.204231e-001
1.326841e+003;1.205164e-001
1.328770e+003;1.202556e-001
1.330698e+003;1.197361e-001
1.332627e+003;1.194423e-001
1.334555e+003;1.188548e-001
1.336484e+003;1.175750e-001
1.338412e+003;1.161685e-001
1.340341e+003;1.149866e-001
1.342269e+003;1.137084e-001
1.344198e+003;1.126097e-001
1.346126e+003;1.115185e-001
1.348055e+003;1.106443e-001
1.349984e+003;1.105271e-001
1.351912e+003;1.108783e-001
1.353841e+003;1.117624e-001
1.355769e+003;1.128433e-001
1.357698e+003;1.143331e-001
1.359626e+003;1.156675e-001
1.361555e+003;1.167490e-001
1.363483e+003;1.177047e-001
1.365412e+003;1.184290e-001
1.367341e+003;1.186037e-001
1.369269e+003;1.184477e-001
1.371198e+003;1.178903e-001
1.373126e+003;1.167629e-001
1.375055e+003;1.153306e-001
1.376983e+003;1.133521e-001
1.378912e+003;1.107901e-001
1.380840e+003;1.077007e-001
1.382769e+003;1.045890e-001
1.384698e+003;1.023386e-001
1.386626e+003;1.004082e-001
1.388555e+003;9.877253e-002
1.390483e+003;9.774920e-002
1.392412e+003;9.682706e-002
1.394340e+003;9.612867e-002
1.396269e+003;9.596763e-002
1.398197e+003;9.614674e-002
1.400126e+003;9.677099e-002
1.402054e+003;9.744082e-002
1.403983e+003;9.808143e-002
1.405911e+003;9.908153e-002
1.407840e+003;1.003533e-001
1.409769e+003;1.017003e-001
1.411697e+003;1.028774e-001
1.413626e+003;1.045207e-001
1.415554e+003;1.068820e-001
1.417483e+003;1.089638e-001
1.419411e+003;1.099613e-001
1.421340e+003;1.104580e-001
1.423268e+003;1.105722e-001
1.425197e+003;1.097328e-001
1.427125e+003;1.082925e-001
1.429054e+003;1.064972e-001
1.430983e+003;1.045861e-001
1.432911e+003;1.027765e-001
1.434840e+003;1.012306e-001
1.436768e+003;9.981016e-002
1.438697e+003;9.873880e-002
1.440625e+003;9.813314e-002
1.442554e+003;9.824085e-002
1.444482e+003;9.893453e-002
1.446411e+003;9.942312e-002
1.448340e+003;9.997597e-002
1.450268e+003;1.007531e-001
1.452197e+003;1.013007e-001
1.454125e+003;1.017321e-001
1.456054e+003;1.018449e-001
1.457982e+003;1.013425e-001
1.459911e+003;1.008764e-001
1.461839e+003;1.005572e-001
1.463768e+003;9.933501e-002
1.465697e+003;9.757058e-002
1.467625e+003;9.590564e-002
1.469554e+003;9.282456e-002
1.471482e+003;8.858504e-002
1.473411e+003;8.453743e-002
1.475339e+003;8.139602e-002
1.477268e+003;7.884471e-002
1.479196e+003;7.649884e-002
1.481125e+003;7.464799e-002
1.483053e+003;7.342528e-002
1.484982e+003;7.246675e-002
1.486911e+003;7.181843e-002
1.488839e+003;7.165692e-002
1.490768e+003;7.195621e-002
1.492696e+003;7.256573e-002
1.494625e+003;7.308554e-002
1.496553e+003;7.407357e-002
1.498482e+003;7.547823e-002
1.500410e+003;7.626769e-002
1.502339e+003;7.672192e-002
1.504267e+003;7.690778e-002
1.506196e+003;7.663053e-002
1.508125e+003;7.550705e-002
1.510053e+003;7.386719e-002
1.511982e+003;7.219219e-002
1.513910e+003;7.039069e-002
1.515839e+003;6.868687e-002
1.517767e+003;6.709227e-002
1.519696e+003;6.565107e-002
1.521624e+003;6.437449e-002
1.523553e+003;6.337378e-002
1.525481e+003;6.259558e-002
1.527410e+003;6.205109e-002
1.529339e+003;6.176837e-002
1.531267e+003;6.144858e-002
1.533196e+003;6.081328e-002
1.535124e+003;6.043101e-002
1.537053e+003;6.039583e-002
1.538981e+003;6.032284e-002
1.540910e+003;6.039663e-002
1.542838e+003;6.055018e-002
1.544767e+003;6.088841e-002
1.546695e+003;6.094842e-002
1.548624e+003;6.069030e-002
1.550553e+003;6.093576e-002
1.552481e+003;6.111716e-002
1.554410e+003;6.076400e-002
1.556338e+003;6.050870e-002
1.558267e+003;6.031678e-002
1.560195e+003;6.038265e-002
1.562124e+003;6.112383e-002
1.564052e+003;6.177345e-002
1.565981e+003;6.199869e-002
1.567910e+003;6.256457e-002
1.569838e+003;6.356660e-002
1.571767e+003;6.458505e-002
1.573695e+003;6.537955e-002
1.575624e+003;6.627441e-002
1.577552e+003;6.780878e-002
1.579481e+003;6.996919e-002
1.581409e+003;7.201198e-002
1.583338e+003;7.368617e-002
1.585266e+003;7.552779e-002
1.587195e+003;7.733592e-002
1.589124e+003;7.905263e-002
1.591052e+003;8.036250e-002
1.592981e+003;8.087185e-002
1.594909e+003;8.018325e-002
1.596838e+003;7.939874e-002
1.598766e+003;7.894123e-002
1.600695e+003;7.825968e-002
1.602623e+003;7.738905e-002
1.604552e+003;7.665792e-002
1.606480e+003;7.594083e-002
1.608409e+003;7.528999e-002
1.610338e+003;7.518128e-002
1.612266e+003;7.478812e-002
1.614195e+003;7.433430e-002
1.616123e+003;7.432565e-002
1.618052e+003;7.419548e-002
1.619980e+003;7.430721e-002
1.621909e+003;7.469131e-002
1.623837e+003;7.500006e-002
1.625766e+003;7.585110e-002
1.627694e+003;7.664657e-002
1.629623e+003;7.691842e-002
1.631552e+003;7.707354e-002
1.633480e+003;7.737092e-002
1.635409e+003;7.764311e-002
1.637337e+003;7.810763e-002
1.639266e+003;7.912517e-002
1.641194e+003;8.058806e-002
1.643123e+003;8.231181e-002
1.645051e+003;8.348428e-002
1.646980e+003;8.359437e-002
1.648909e+003;8.270955e-002
1.650837e+003;8.073193e-002
1.652766e+003;7.857478e-002
1.654694e+003;7.767159e-002
1.656623e+003;7.725156e-002
1.658551e+003;7.671034e-002
1.660480e+003;7.591321e-002
1.662408e+003;7.490540e-002
1.664337e+003;7.429313e-002
1.666266e+003;7.347213e-002
1.668194e+003;7.238966e-002
1.670123e+003;7.139038e-002
1.672051e+003;7.061503e-002
1.673980e+003;6.976192e-002
1.675908e+003;6.881341e-002
1.677837e+003;6.787700e-002
1.679765e+003;6.694381e-002
1.681694e+003;6.622590e-002
1.683622e+003;6.527322e-002
1.685551e+003;6.472552e-002
1.687479e+003;6.448656e-002
1.689408e+003;6.413069e-002
1.691337e+003;6.401653e-002
1.693265e+003;6.396139e-002
1.695194e+003;6.394976e-002
1.697122e+003;6.405819e-002
1.699051e+003;6.424028e-002
1.700979e+003;6.488542e-002
1.702908e+003;6.601948e-002
1.704836e+003;6.705078e-002
1.706765e+003;6.840945e-002
1.708693e+003;7.008380e-002
1.710622e+003;7.174232e-002
1.712551e+003;7.370222e-002
1.714479e+003;7.571748e-002
1.716408e+003;7.737769e-002
1.718336e+003;7.915901e-002
1.720265e+003;8.121210e-002
1.722193e+003;8.290609e-002
1.724122e+003;8.460832e-002
1.726050e+003;8.614995e-002
1.727979e+003;8.749477e-002
1.729908e+003;8.853730e-002
1.731836e+003;8.928157e-002
1.733765e+003;8.980381e-002
1.735693e+003;9.011163e-002
1.737622e+003;8.971581e-002
1.739550e+003;8.907948e-002
1.741479e+003;8.836833e-002
1.743407e+003;8.708704e-002
1.745336e+003;8.532568e-002
1.747265e+003;8.333003e-002
1.749193e+003;8.131698e-002
1.751122e+003;7.909154e-002
1.753050e+003;7.650895e-002
1.754979e+003;7.369653e-002
1.756907e+003;7.093447e-002
1.758836e+003;6.831218e-002
1.760764e+003;6.584543e-002
1.762693e+003;6.317189e-002
1.764621e+003;6.026128e-002
1.766550e+003;5.769233e-002
1.768479e+003;5.556718e-002
1.770407e+003;5.352366e-002
1.772336e+003;5.187790e-002
1.774264e+003;5.062816e-002
1.776193e+003;4.952177e-002
1.778121e+003;4.837185e-002
1.780050e+003;4.721536e-002
1.781978e+003;4.637916e-002
1.783907e+003;4.540917e-002
1.785835e+003;4.459802e-002
1.787764e+003;4.427903e-002
1.789693e+003;4.414898e-002
1.791621e+003;4.386147e-002
1.793550e+003;4.336438e-002
1.795478e+003;4.286109e-002
1.797407e+003;4.244994e-002
1.799335e+003;4.221573e-002
1.801264e+003;4.196939e-002
1.803192e+003;4.165494e-002
1.805121e+003;4.139095e-002
1.807049e+003;4.136682e-002
1.808978e+003;4.140046e-002
1.810907e+003;4.098836e-002
1.812835e+003;4.032984e-002
1.814764e+003;3.997222e-002
1.816692e+003;3.985722e-002
1.818621e+003;3.996365e-002
1.820549e+003;4.022362e-002
1.822478e+003;4.010997e-002
1.824406e+003;3.968104e-002
1.826335e+003;3.928783e-002
1.828264e+003;3.942594e-002
1.830192e+003;3.950112e-002
1.832121e+003;3.930858e-002
1.834049e+003;3.924989e-002
1.835978e+003;3.925562e-002
1.837906e+003;3.898598e-002
1.839835e+003;3.868296e-002
1.841763e+003;3.866629e-002
1.843692e+003;3.848603e-002
1.845620e+003;3.834569e-002
1.847549e+003;3.840787e-002
1.849478e+003;3.836697e-002
1.851406e+003;3.818141e-002
1.853335e+003;3.810446e-002
1.855263e+003;3.816024e-002
1.857192e+003;3.828348e-002
1.859120e+003;3.837030e-002
1.861049e+003;3.836766e-002
1.862977e+003;3.809213e-002
1.864906e+003;3.799361e-002
1.866834e+003;3.807006e-002
1.868763e+003;3.820727e-002
1.870692e+003;3.823995e-002
1.872620e+003;3.810743e-002
1.874549e+003;3.777520e-002
1.876477e+003;3.753060e-002
1.878406e+003;3.765001e-002
1.880334e+003;3.789854e-002
1.882263e+003;3.817584e-002
1.884191e+003;3.822649e-002
1.886120e+003;3.803744e-002
1.888048e+003;3.802225e-002
1.889977e+003;3.809159e-002
1.891906e+003;3.793857e-002
1.893834e+003;3.779508e-002
1.895763e+003;3.798525e-002
1.897691e+003;3.808721e-002
1.899620e+003;3.817598e-002
1.901548e+003;3.838073e-002
1.903477e+003;3.825493e-002
1.905405e+003;3.820898e-002
1.907334e+003;3.857065e-002
1.909262e+003;3.856438e-002
1.911191e+003;3.857507e-002
1.913120e+003;3.879504e-002
1.915048e+003;3.892791e-002
1.916977e+003;3.880275e-002
1.918905e+003;3.881127e-002
1.920834e+003;3.907830e-002
1.922762e+003;3.915325e-002
1.924691e+003;3.896173e-002
1.926619e+003;3.914893e-002
1.928548e+003;3.960078e-002
1.930477e+003;4.003722e-002
1.932405e+003;4.017349e-002
1.934334e+003;3.999856e-002
1.936262e+003;3.991541e-002
1.938191e+003;3.993423e-002
1.940119e+003;4.000289e-002
1.942048e+003;4.028207e-002
1.943976e+003;4.046268e-002
1.945905e+003;4.058570e-002
1.947833e+003;4.051957e-002
1.949762e+003;4.046373e-002
1.951691e+003;4.060738e-002
1.953619e+003;4.073263e-002
1.955548e+003;4.090337e-002
1.957476e+003;4.079130e-002
1.959405e+003;4.079726e-002
1.961333e+003;4.104181e-002
1.963262e+003;4.103886e-002
1.965190e+003;4.089777e-002
1.967119e+003;4.071767e-002
1.969047e+003;4.108851e-002
1.970976e+003;4.150767e-002
1.972905e+003;4.140786e-002
1.974833e+003;4.131740e-002
1.976762e+003;4.149564e-002
1.978690e+003;4.138782e-002
1.980619e+003;4.138559e-002
1.982547e+003;4.183755e-002
1.984476e+003;4.228757e-002
1.986404e+003;4.244190e-002
1.988333e+003;4.231196e-002
1.990261e+003;4.239028e-002
1.992190e+003;4.255028e-002
1.994119e+003;4.279721e-002
1.996047e+003;4.281601e-002
1.997976e+003;4.269977e-002
1.999904e+003;4.290970e-002
2.001833e+003;4.315208e-002
2.003761e+003;4.304505e-002
2.005690e+003;4.296533e-002
2.007618e+003;4.315833e-002
2.009547e+003;4.352027e-002
2.011476e+003;4.385916e-002
2.013404e+003;4.394282e-002
2.015333e+003;4.390946e-002
2.017261e+003;4.421402e-002
2.019190e+003;4.451589e-002
2.021118e+003;4.462083e-002
2.023047e+003;4.462630e-002
2.024975e+003;4.444934e-002
2.026904e+003;4.447504e-002
2.028833e+003;4.480303e-002
2.030761e+003;4.495514e-002
2.032690e+003;4.488819e-002
2.034618e+003;4.506749e-002
2.036547e+003;4.545008e-002
2.038475e+003;4.567076e-002
2.040404e+003;4.553467e-002
2.042332e+003;4.553283e-002
2.044261e+003;4.564927e-002
2.046189e+003;4.580930e-002
2.048118e+003;4.598802e-002
2.050047e+003;4.615237e-002
2.051975e+003;4.636010e-002
2.053904e+003;4.648406e-002
2.055832e+003;4.643185e-002
2.057761e+003;4.620938e-002
2.059689e+003;4.620124e-002
2.061618e+003;4.642252e-002
2.063546e+003;4.637444e-002
2.065475e+003;4.609813e-002
2.067404e+003;4.600382e-002
2.069332e+003;4.627425e-002
2.071260e+003;4.672254e-002
2.073189e+003;4.670656e-002
2.075118e+003;4.649192e-002
2.077046e+003;4.652423e-002
2.078975e+003;4.655580e-002
2.080903e+003;4.633263e-002
2.082832e+003;4.632246e-002
2.084760e+003;4.631402e-002
2.086689e+003;4.617868e-002
2.088617e+003;4.618852e-002
2.090546e+003;4.641279e-002
2.092475e+003;4.665934e-002
2.094403e+003;4.696909e-002
2.096332e+003;4.707502e-002
2.098260e+003;4.694332e-002
2.100189e+003;4.694974e-002
2.102117e+003;4.664584e-002
2.104046e+003;4.664233e-002
2.105974e+003;4.702052e-002
2.107903e+003;4.710648e-002
2.109832e+003;4.681996e-002
2.111760e+003;4.678867e-002
2.113688e+003;4.706006e-002
2.115617e+003;4.706597e-002
2.117546e+003;4.693257e-002
2.119474e+003;4.692172e-002
2.121403e+003;4.717344e-002
2.123331e+003;4.730503e-002
2.125260e+003;4.730584e-002
2.127188e+003;4.765717e-002
2.129117e+003;4.781275e-002
2.131045e+003;4.766393e-002
2.132974e+003;4.760218e-002
2.134903e+003;4.766101e-002
2.136831e+003;4.753253e-002
2.138760e+003;4.735232e-002
2.140688e+003;4.735413e-002
2.142617e+003;4.744105e-002
2.144545e+003;4.738794e-002
2.146474e+003;4.734670e-002
2.148402e+003;4.747945e-002
2.150331e+003;4.745417e-002
2.152260e+003;4.736023e-002
2.154188e+003;4.726313e-002
2.156117e+003;4.741721e-002
2.158045e+003;4.752307e-002
2.159974e+003;4.715700e-002
2.161902e+003;4.699216e-002
2.163831e+003;4.740701e-002
2.165759e+003;4.764714e-002
2.167688e+003;4.741995e-002
2.169616e+003;4.745850e-002
2.171545e+003;4.758592e-002
2.173474e+003;4.738639e-002
2.175402e+003;4.706812e-002
2.177331e+003;4.663355e-002
2.179259e+003;4.666443e-002
2.181188e+003;4.690552e-002
2.183116e+003;4.677856e-002
2.185045e+003;4.663440e-002
2.186973e+003;4.676763e-002
2.188902e+003;4.657151e-002
2.190831e+003;4.653725e-002
2.192759e+003;4.672822e-002
2.194688e+003;4.646006e-002
2.196616e+003;4.650851e-002
2.198545e+003;4.688200e-002
2.200473e+003;4.692966e-002
2.202402e+003;4.656436e-002
2.204330e+003;4.620249e-002
2.206259e+003;4.635888e-002
2.208188e+003;4.667912e-002
2.210116e+003;4.680465e-002
2.212044e+003;4.680557e-002
2.213973e+003;4.681483e-002
2.215902e+003;4.698751e-002
2.217830e+003;4.717691e-002
2.219759e+003;4.735025e-002
2.221687e+003;4.716761e-002
2.223616e+003;4.702395e-002
2.225544e+003;4.718851e-002
2.227473e+003;4.736178e-002
2.229401e+003;4.740376e-002
2.231330e+003;4.748411e-002
2.233259e+003;4.731268e-002
2.235187e+003;4.714013e-002
2.237116e+003;4.706191e-002
2.239044e+003;4.701557e-002
2.240973e+003;4.723624e-002
2.242901e+003;4.756347e-002
2.244830e+003;4.748932e-002
2.246758e+003;4.735077e-002
2.248687e+003;4.724699e-002
2.250615e+003;4.710508e-002
2.252544e+003;4.722796e-002
2.254473e+003;4.753416e-002
2.256401e+003;4.737845e-002
2.258330e+003;4.715775e-002
2.260258e+003;4.743876e-002
2.262187e+003;4.755745e-002
2.264115e+003;4.722482e-002
2.266044e+003;4.718933e-002
2.267972e+003;4.735099e-002
2.269901e+003;4.721149e-002
2.271830e+003;4.693232e-002
2.273758e+003;4.664894e-002
2.275687e+003;4.664326e-002
2.277615e+003;4.672885e-002
2.279544e+003;4.670129e-002
2.281472e+003;4.681801e-002
2.283401e+003;4.714157e-002
2.285329e+003;4.718534e-002
2.287258e+003;4.689928e-002
2.289187e+003;4.694527e-002
2.291115e+003;4.713211e-002
2.293043e+003;4.706797e-002
2.294972e+003;4.715412e-002
2.296901e+003;4.737586e-002
2.298829e+003;4.739571e-002
2.300758e+003;4.687259e-002
2.302686e+003;4.669738e-002
2.304615e+003;4.696595e-002
2.306543e+003;4.710427e-002
2.308472e+003;4.714855e-002
2.310400e+003;4.698031e-002
2.312329e+003;4.684450e-002
2.314258e+003;4.689644e-002
2.316186e+003;4.670823e-002
2.318115e+003;4.655598e-002
2.320043e+003;4.664119e-002
2.321972e+003;4.664905e-002
2.323900e+003;4.643303e-002
2.325829e+003;4.626518e-002
2.327757e+003;4.611541e-002
2.329686e+003;4.611000e-002
2.331615e+003;4.595288e-002
2.333543e+003;4.568990e-002
2.335472e+003;4.552481e-002
2.337400e+003;4.547528e-002
2.339329e+003;4.582748e-002
2.341257e+003;4.626201e-002
2.343186e+003;4.649826e-002
2.345114e+003;4.693025e-002
2.347043e+003;4.758225e-002
2.348971e+003;4.771508e-002
2.350900e+003;4.748570e-002
2.352829e+003;4.716454e-002
2.354757e+003;4.677789e-002
2.356686e+003;4.660943e-002
2.358614e+003;4.665631e-002
2.360543e+003;4.657081e-002
2.362471e+003;4.641253e-002
2.364400e+003;4.655023e-002
2.366328e+003;4.696599e-002
2.368257e+003;4.722453e-002
2.370186e+003;4.741167e-002
2.372114e+003;4.794498e-002
2.374042e+003;4.857824e-002
2.375971e+003;4.891250e-002
2.377900e+003;4.896913e-002
2.379828e+003;4.911031e-002
2.381757e+003;4.933850e-002
2.383685e+003;4.938309e-002
2.385614e+003;4.951802e-002
2.387542e+003;4.996280e-002
2.389471e+003;5.014990e-002
2.391399e+003;4.996444e-002
2.393328e+003;5.004808e-002
2.395257e+003;5.028916e-002
2.397185e+003;5.039449e-002
2.399114e+003;5.062291e-002
2.401042e+003;5.067180e-002
2.402971e+003;5.070967e-002
2.404899e+003;5.070840e-002
2.406828e+003;5.057187e-002
2.408756e+003;5.095055e-002
2.410685e+003;5.112339e-002
2.412614e+003;5.090081e-002
2.414542e+003;5.090856e-002
2.416471e+003;5.108541e-002
2.418399e+003;5.153553e-002
2.420328e+003;5.181428e-002
2.422256e+003;5.190553e-002
2.424185e+003;5.214592e-002
2.426113e+003;5.228944e-002
2.428042e+003;5.221019e-002
2.429970e+003;5.214207e-002
2.431899e+003;5.187129e-002
2.433828e+003;5.214020e-002
2.435756e+003;5.242420e-002
2.437685e+003;5.243609e-002
2.439613e+003;5.260608e-002
2.441542e+003;5.274168e-002
2.443470e+003;5.271238e-002
2.445399e+003;5.280237e-002
2.447327e+003;5.301495e-002
2.449256e+003;5.322307e-002
2.451185e+003;5.327873e-002
2.453113e+003;5.330323e-002
2.455042e+003;5.349979e-002
2.456970e+003;5.363331e-002
2.458899e+003;5.349668e-002
2.460827e+003;5.347138e-002
2.462756e+003;5.365723e-002
2.464684e+003;5.358592e-002
2.466613e+003;5.368358e-002
2.468542e+003;5.389600e-002
2.470470e+003;5.395614e-002
2.472398e+003;5.401444e-002
2.474327e+003;5.397572e-002
2.476256e+003;5.424891e-002
2.478184e+003;5.455435e-002
2.480113e+003;5.462179e-002
2.482041e+003;5.484222e-002
2.483970e+003;5.469807e-002
2.485898e+003;5.450701e-002
2.487827e+003;5.486985e-002
2.489755e+003;5.504464e-002
2.491684e+003;5.498220e-002
2.493613e+003;5.509052e-002
2.495541e+003;5.498149e-002
2.497470e+003;5.488154e-002
2.499398e+003;5.508721e-002
2.501327e+003;5.536249e-002
2.503255e+003;5.542716e-002
2.505184e+003;5.560993e-002
2.507112e+003;5.589074e-002
2.509041e+003;5.597433e-002
2.510969e+003;5.569806e-002
2.512898e+003;5.553262e-002
2.514827e+003;5.563214e-002
2.516755e+003;5.569678e-002
2.518684e+003;5.579345e-002
2.520612e+003;5.604146e-002
2.522541e+003;5.622260e-002
2.524469e+003;5.624236e-002
2.526398e+003;5.604082e-002
2.528326e+003;5.599434e-002
2.530255e+003;5.647909e-002
2.532184e+003;5.651056e-002
2.534112e+003;5.631682e-002
2.536041e+003;5.656933e-002
2.537969e+003;5.686772e-002
2.539898e+003;5.658359e-002
2.541826e+003;5.651868e-002
2.543755e+003;5.658118e-002
2.545683e+003;5.645573e-002
2.547612e+003;5.649792e-002
2.549541e+003;5.667687e-002
2.551469e+003;5.671345e-002
2.553397e+003;5.687040e-002
2.555326e+003;5.690787e-002
2.557255e+003;5.702113e-002
2.559183e+003;5.720918e-002
2.561112e+003;5.688724e-002
2.563040e+003;5.668714e-002
2.564969e+003;5.674876e-002
2.566897e+003;5.694149e-002
2.568826e+003;5.695486e-002
2.570754e+003;5.680786e-002
2.572683e+003;5.687300e-002
2.574612e+003;5.699166e-002
2.576540e+003;5.705691e-002
2.578469e+003;5.744412e-002
2.580397e+003;5.782165e-002
2.582326e+003;5.778380e-002
2.584254e+003;5.761143e-002
2.586183e+003;5.773047e-002
2.588111e+003;5.774656e-002
2.590040e+003;5.784675e-002
2.591969e+003;5.786314e-002
2.593897e+003;5.755851e-002
2.595826e+003;5.728652e-002
2.597754e+003;5.760409e-002
2.599683e+003;5.815928e-002
2.601611e+003;5.847525e-002
2.603540e+003;5.834452e-002
2.605468e+003;5.839929e-002
2.607397e+003;5.867512e-002
2.609325e+003;5.859347e-002
2.611254e+003;5.828074e-002
2.613183e+003;5.837992e-002
2.615111e+003;5.837613e-002
2.617040e+003;5.842677e-002
2.618968e+003;5.861308e-002
2.620897e+003;5.886525e-002
2.622825e+003;5.926791e-002
2.624754e+003;5.932526e-002
2.626682e+003;5.904021e-002
2.628611e+003;5.892255e-002
2.630540e+003;5.929013e-002
2.632468e+003;5.937966e-002
2.634396e+003;5.887144e-002
2.636325e+003;5.856807e-002
2.638254e+003;5.893777e-002
2.640182e+003;5.945686e-002
2.642111e+003;5.962183e-002
2.644039e+003;5.976667e-002
2.645968e+003;5.984660e-002
2.647896e+003;5.990072e-002
2.649825e+003;5.989699e-002
2.651753e+003;5.944504e-002
2.653682e+003;5.933662e-002
2.655611e+003;5.964247e-002
2.657539e+003;5.970618e-002
2.659468e+003;5.980572e-002
2.661396e+003;6.015452e-002
2.663325e+003;6.048326e-002
2.665253e+003;6.039232e-002
2.667182e+003;6.039156e-002
2.669110e+003;6.066032e-002
2.671039e+003;6.086352e-002
2.672968e+003;6.111605e-002
2.674896e+003;6.112761e-002
2.676825e+003;6.122355e-002
2.678753e+003;6.138407e-002
2.680682e+003;6.120680e-002
2.682610e+003;6.094262e-002
2.684539e+003;6.102395e-002
2.686467e+003;6.134729e-002
2.688396e+003;6.155535e-002
2.690324e+003;6.158754e-002
2.692253e+003;6.154848e-002
2.694182e+003;6.145740e-002
2.696110e+003;6.169580e-002
2.698039e+003;6.199284e-002
2.699967e+003;6.203038e-002
2.701896e+003;6.224829e-002
2.703824e+003;6.267855e-002
2.705753e+003;6.265356e-002
2.707681e+003;6.207035e-002
2.709610e+003;6.214773e-002
2.711539e+003;6.289082e-002
2.713467e+003;6.319060e-002
2.715396e+003;6.319995e-002
2.717324e+003;6.295972e-002
2.719253e+003;6.281807e-002
2.721181e+003;6.304228e-002
2.723110e+003;6.310748e-002
2.725038e+003;6.293942e-002
2.726967e+003;6.294988e-002
2.728896e+003;6.311009e-002
2.730824e+003;6.330543e-002
2.732752e+003;6.329976e-002
2.734681e+003;6.314189e-002
2.736610e+003;6.319677e-002
2.738538e+003;6.329857e-002
2.740467e+003;6.345400e-002
2.742395e+003;6.342712e-002
2.744324e+003;6.351493e-002
2.746252e+003;6.377792e-002
2.748181e+003;6.373674e-002
2.750109e+003;6.356453e-002
2.752038e+003;6.372666e-002
2.753967e+003;6.389160e-002
2.755895e+003;6.394915e-002
2.757824e+003;6.403051e-002
2.759752e+003;6.411710e-002
2.761681e+003;6.403887e-002
2.763609e+003;6.385713e-002
2.765538e+003;6.412628e-002
2.767466e+003;6.446727e-002
2.769395e+003;6.455410e-002
2.771323e+003;6.471013e-002
2.773252e+003;6.478779e-002
2.775181e+003;6.535451e-002
2.777109e+003;6.587590e-002
2.779038e+003;6.553499e-002
2.780966e+003;6.528670e-002
2.782895e+003;6.541968e-002
2.784823e+003;6.554817e-002
2.786752e+003;6.587932e-002
2.788680e+003;6.642230e-002
2.790609e+003;6.673113e-002
2.792538e+003;6.667762e-002
2.794466e+003;6.650767e-002
2.796395e+003;6.687053e-002
2.798323e+003;6.712595e-002
2.800252e+003;6.721503e-002
2.802180e+003;6.750755e-002
2.804109e+003;6.764780e-002
2.806037e+003;6.776331e-002
2.807966e+003;6.834453e-002
2.809895e+003;6.911968e-002
2.811823e+003;6.954704e-002
2.813751e+003;6.944637e-002
2.815680e+003;6.954689e-002
2.817609e+003;7.018416e-002
2.819537e+003;7.081576e-002
2.821466e+003;7.118601e-002
2.823394e+003;7.138944e-002
2.825323e+003;7.203200e-002
2.827251e+003;7.285373e-002
2.829180e+003;7.333057e-002
2.831108e+003;7.382450e-002
2.833037e+003;7.439946e-002
2.834966e+003;7.507879e-002
2.836894e+003;7.587935e-002
2.838823e+003;7.743836e-002
2.840751e+003;7.877761e-002
2.842680e+003;7.973681e-002
2.844608e+003;8.136973e-002
2.846537e+003;8.368676e-002
2.848465e+003;8.611144e-002
2.850394e+003;8.780919e-002
2.852323e+003;8.842900e-002
2.854251e+003;8.818030e-002
2.856180e+003;8.788488e-002
2.858108e+003;8.782582e-002
2.860037e+003;8.786792e-002
2.861965e+003;8.828122e-002
2.863894e+003;8.903904e-002
2.865822e+003;8.975382e-002
2.867751e+003;9.034406e-002
2.869679e+003;9.082511e-002
2.871608e+003;9.128425e-002
2.873536e+003;9.195646e-002
2.875465e+003;9.209903e-002
2.877394e+003;9.171338e-002
2.879322e+003;9.185374e-002
2.881251e+003;9.233847e-002
2.883179e+003;9.293417e-002
2.885108e+003;9.333339e-002
2.887036e+003;9.341345e-002
2.888965e+003;9.382918e-002
2.890893e+003;9.408074e-002
2.892822e+003;9.413596e-002
2.894750e+003;9.453592e-002
2.896679e+003;9.492197e-002
2.898608e+003;9.510680e-002
2.900536e+003;9.543557e-002
2.902465e+003;9.539079e-002
2.904393e+003;9.540495e-002
2.906322e+003;9.591866e-002
2.908250e+003;9.638681e-002
2.910179e+003;9.666319e-002
2.912107e+003;9.732754e-002
2.914036e+003;9.838025e-002
2.915965e+003;9.932065e-002
2.917893e+003;1.004202e-001
2.919822e+003;1.012186e-001
2.921750e+003;1.010896e-001
2.923679e+003;1.000977e-001
2.925607e+003;9.866161e-002
2.927536e+003;9.706287e-002
2.929464e+003;9.526166e-002
2.931393e+003;9.383968e-002
2.933322e+003;9.277037e-002
2.935250e+003;9.144226e-002
2.937178e+003;8.989729e-002
2.939107e+003;8.902501e-002
2.941036e+003;8.832678e-002
2.942964e+003;8.694278e-002
2.944893e+003;8.592544e-002
2.946821e+003;8.530680e-002
2.948750e+003;8.426233e-002
2.950678e+003;8.288772e-002
2.952607e+003;8.152661e-002
2.954535e+003;8.065911e-002
2.956464e+003;8.012068e-002
2.958393e+003;7.948424e-002
2.960321e+003;7.873761e-002
2.962250e+003;7.778493e-002
2.964178e+003;7.682002e-002
2.966107e+003;7.626338e-002
2.968035e+003;7.575247e-002
2.969964e+003;7.489847e-002
2.971892e+003;7.387140e-002
2.973821e+003;7.305676e-002
2.975750e+003;7.221512e-002
2.977678e+003;7.156549e-002
2.979607e+003;7.094687e-002
2.981535e+003;7.070868e-002
2.983464e+003;7.065047e-002
2.985392e+003;6.987663e-002
2.987321e+003;6.911478e-002
2.989249e+003;6.868919e-002
2.991178e+003;6.825224e-002
2.993106e+003;6.782994e-002
2.995035e+003;6.783199e-002
2.996964e+003;6.781153e-002
2.998892e+003;6.757393e-002
3.000821e+003;6.752191e-002
3.002749e+003;6.745344e-002
3.004678e+003;6.693406e-002
3.006606e+003;6.659145e-002
3.008535e+003;6.644736e-002
3.010463e+003;6.679156e-002
3.012392e+003;6.704390e-002
3.014321e+003;6.671939e-002
3.016249e+003;6.642242e-002
3.018177e+003;6.627958e-002
3.020106e+003;6.630911e-002
3.022035e+003;6.647254e-002
3.023963e+003;6.654653e-002
3.025892e+003;6.645153e-002
3.027820e+003;6.646964e-002
3.029749e+003;6.626701e-002
3.031677e+003;6.621027e-002
3.033606e+003;6.653865e-002
3.035534e+003;6.680965e-002
3.037463e+003;6.704374e-002
3.039392e+003;6.676340e-002
3.041320e+003;6.611878e-002
3.043249e+003;6.652401e-002
3.045177e+003;6.725789e-002
3.047106e+003;6.741311e-002
3.049034e+003;6.742147e-002
3.050963e+003;6.742860e-002
3.052891e+003;6.739283e-002
3.054820e+003;6.756747e-002
3.056749e+003;6.791927e-002
3.058677e+003;6.811117e-002
3.060606e+003;6.885390e-002
3.062534e+003;6.916661e-002
3.064463e+003;6.917313e-002
3.066391e+003;6.965338e-002
3.068320e+003;6.999854e-002
3.070248e+003;6.975278e-002
3.072177e+003;6.972574e-002
3.074105e+003;7.005020e-002
3.076034e+003;7.020760e-002
3.077963e+003;7.060922e-002
3.079891e+003;7.056599e-002
3.081820e+003;7.070950e-002
3.083748e+003;7.140756e-002
3.085677e+003;7.159409e-002
3.087605e+003;7.157272e-002
3.089534e+003;7.169037e-002
3.091462e+003;7.198053e-002
3.093391e+003;7.170194e-002
3.095320e+003;7.167126e-002
3.097248e+003;7.232602e-002
3.099177e+003;7.291745e-002
3.101105e+003;7.296573e-002
3.103034e+003;7.321259e-002
3.104962e+003;7.374015e-002
3.106891e+003;7.428952e-002
3.108819e+003;7.459601e-002
3.110748e+003;7.468238e-002
3.112677e+003;7.500262e-002
3.114605e+003;7.519168e-002
3.116533e+003;7.538375e-002
3.118462e+003;7.568360e-002
3.120391e+003;7.564159e-002
3.122319e+003;7.552101e-002
3.124248e+003;7.580900e-002
3.126176e+003;7.629747e-002
3.128105e+003;7.672607e-002
3.130033e+003;7.723366e-002
3.131962e+003;7.770298e-002
3.133890e+003;7.776713e-002
3.135819e+003;7.778972e-002
3.137748e+003;7.818101e-002
3.139676e+003;7.850249e-002
3.141605e+003;7.882079e-002
3.143533e+003;7.924549e-002
3.145462e+003;7.978319e-002
3.147390e+003;8.044057e-002
3.149319e+003;8.050290e-002
3.151247e+003;8.050426e-002
3.153176e+003;8.097053e-002
3.155104e+003;8.156722e-002
3.157033e+003;8.258783e-002
3.158962e+003;8.319321e-002
3.160890e+003;8.333100e-002
3.162819e+003;8.372489e-002
3.164747e+003;8.413346e-002
3.166676e+003;8.447190e-002
3.168604e+003;8.489230e-002
3.170533e+003;8.523580e-002
3.172461e+003;8.582691e-002
3.174390e+003;8.670148e-002
3.176319e+003;8.678402e-002
3.178247e+003;8.673774e-002
3.180176e+003;8.694930e-002
3.182104e+003;8.724619e-002
3.184033e+003;8.766194e-002
3.185961e+003;8.839988e-002
3.187890e+003;8.961496e-002
3.189818e+003;8.997514e-002
3.191747e+003;9.009993e-002
3.193676e+003;9.060430e-002
3.195604e+003;9.097556e-002
3.197532e+003;9.144884e-002
3.199461e+003;9.160236e-002
3.201390e+003;9.168924e-002
3.203318e+003;9.191142e-002
3.205247e+003;9.243143e-002
3.207175e+003;9.318154e-002
3.209104e+003;9.365666e-002
3.211032e+003;9.415374e-002
3.212961e+003;9.488219e-002
3.214889e+003;9.527812e-002
3.216818e+003;9.586912e-002
3.218747e+003;9.629589e-002
3.220675e+003;9.636579e-002
3.222604e+003;9.666733e-002
3.224532e+003;9.680060e-002
3.226461e+003;9.664374e-002
3.228389e+003;9.733367e-002
3.230318e+003;9.849094e-002
3.232246e+003;9.972453e-002
3.234175e+003;1.002096e-001
3.236104e+003;9.997076e-002
3.238032e+003;1.005378e-001
3.239961e+003;1.014330e-001
3.241889e+003;1.017848e-001
3.243818e+003;1.021858e-001
3.245746e+003;1.024998e-001
3.247675e+003;1.027203e-001
3.249603e+003;1.035495e-001
3.251532e+003;1.047558e-001
3.253460e+003;1.055711e-001
3.255389e+003;1.060216e-001
3.257318e+003;1.068168e-001
3.259246e+003;1.073621e-001
3.261175e+003;1.073434e-001
3.263103e+003;1.076708e-001
3.265032e+003;1.079982e-001
3.266960e+003;1.087646e-001
3.268889e+003;1.093008e-001
3.270817e+003;1.092967e-001
3.272746e+003;1.102125e-001
3.274675e+003;1.108799e-001
3.276603e+003;1.110747e-001
3.278531e+003;1.118264e-001
3.280460e+003;1.120864e-001
3.282389e+003;1.118339e-001
3.284317e+003;1.119410e-001
3.286246e+003;1.126368e-001
3.288174e+003;1.138101e-001
3.290103e+003;1.140294e-001
3.292031e+003;1.139902e-001
3.293960e+003;1.145615e-001
3.295888e+003;1.152606e-001
3.297817e+003;1.154287e-001
3.299746e+003;1.151239e-001
3.301674e+003;1.154416e-001
3.303603e+003;1.157112e-001
3.305531e+003;1.154721e-001
3.307460e+003;1.153514e-001
3.309388e+003;1.158545e-001
3.311317e+003;1.167822e-001
3.313245e+003;1.166215e-001
3.315174e+003;1.164450e-001
3.317103e+003;1.169579e-001
3.319031e+003;1.171422e-001
3.320960e+003;1.177375e-001
3.322888e+003;1.184944e-001
3.324817e+003;1.190995e-001
3.326745e+003;1.187737e-001
3.328674e+003;1.186342e-001
3.330602e+003;1.188983e-001
3.332531e+003;1.193096e-001
3.334459e+003;1.196566e-001
3.336388e+003;1.194006e-001
3.338317e+003;1.189206e-001
3.340245e+003;1.190215e-001
3.342174e+003;1.190420e-001
3.344102e+003;1.190489e-001
3.346031e+003;1.193659e-001
3.347959e+003;1.194615e-001
3.349888e+003;1.196934e-001
3.351816e+003;1.195651e-001
3.353745e+003;1.193390e-001
3.355674e+003;1.193056e-001
3.357602e+003;1.192448e-001
3.359531e+003;1.196008e-001
3.361459e+003;1.192232e-001
3.363388e+003;1.188252e-001
3.365316e+003;1.188987e-001
3.367245e+003;1.186332e-001
3.369173e+003;1.185472e-001
3.371102e+003;1.184416e-001
3.373031e+003;1.182438e-001
3.374959e+003;1.181035e-001
3.376887e+003;1.181188e-001
3.378816e+003;1.185187e-001
3.380745e+003;1.187153e-001
3.382673e+003;1.185113e-001
3.384602e+003;1.183771e-001
3.386530e+003;1.182788e-001
3.388459e+003;1.178733e-001
3.390387e+003;1.175774e-001
3.392316e+003;1.171183e-001
3.394244e+003;1.164192e-001
3.396173e+003;1.160492e-001
3.398102e+003;1.157516e-001
3.400030e+003;1.160517e-001
3.401959e+003;1.157880e-001
3.403887e+003;1.142172e-001
3.405816e+003;1.130006e-001
3.407744e+003;1.124685e-001
3.409673e+003;1.126076e-001
3.411601e+003;1.128888e-001
3.413530e+003;1.124702e-001
3.415458e+003;1.116777e-001
3.417387e+003;1.112411e-001
3.419316e+003;1.106270e-001
3.421244e+003;1.096399e-001
3.423173e+003;1.091646e-001
3.425101e+003;1.090131e-001
3.427030e+003;1.084729e-001
3.428958e+003;1.078526e-001
3.430887e+003;1.075453e-001
3.432815e+003;1.069610e-001
3.434744e+003;1.065451e-001
3.436673e+003;1.063746e-001
3.438601e+003;1.060925e-001
3.440530e+003;1.052853e-001
3.442458e+003;1.045511e-001
3.444387e+003;1.042170e-001
3.446315e+003;1.037567e-001
3.448244e+003;1.030939e-001
3.450172e+003;1.027420e-001
3.452101e+003;1.025050e-001
3.454030e+003;1.017941e-001
3.455958e+003;1.010349e-001
3.457886e+003;1.002365e-001
3.459815e+003;9.979382e-002
3.461744e+003;9.935176e-002
3.463672e+003;9.859496e-002
3.465601e+003;9.816371e-002
3.467529e+003;9.716953e-002
3.469458e+003;9.586238e-002
3.471386e+003;9.547689e-002
3.473315e+003;9.536784e-002
3.475243e+003;9.515852e-002
3.477172e+003;9.483713e-002
3.479101e+003;9.393584e-002
3.481029e+003;9.326582e-002
3.482958e+003;9.303998e-002
3.484886e+003;9.239101e-002
3.486815e+003;9.171137e-002
3.488743e+003;9.120997e-002
3.490672e+003;9.012374e-002
3.492600e+003;8.910445e-002
3.494529e+003;8.849476e-002
3.496458e+003;8.837149e-002
3.498386e+003;8.800773e-002
3.500315e+003;8.758840e-002
3.502243e+003;8.714320e-002
3.504172e+003;8.599163e-002
3.506100e+003;8.516408e-002
3.508029e+003;8.541255e-002
3.509957e+003;8.475699e-002
3.511886e+003;8.345770e-002
3.513814e+003;8.282541e-002
3.515743e+003;8.288572e-002
3.517672e+003;8.251727e-002
3.519600e+003;8.131503e-002
3.521529e+003;8.029091e-002
3.523457e+003;7.994042e-002
3.525386e+003;7.913098e-002
3.527314e+003;7.817137e-002
3.529243e+003;7.799309e-002
3.531171e+003;7.757156e-002
3.533100e+003;7.668974e-002
3.535029e+003;7.599356e-002
3.536957e+003;7.523529e-002
3.538885e+003;7.492985e-002
3.540814e+003;7.450034e-002
3.542743e+003;7.375637e-002
3.544671e+003;7.312518e-002
3.546600e+003;7.272448e-002
3.548528e+003;7.215761e-002
3.550457e+003;7.138550e-002
3.552385e+003;7.076464e-002
3.554314e+003;7.035843e-002
3.556242e+003;7.019743e-002
3.558171e+003;6.967641e-002
3.560100e+003;6.900811e-002
3.562028e+003;6.814675e-002
3.563957e+003;6.725665e-002
3.565885e+003;6.674609e-002
3.567814e+003;6.633370e-002
3.569742e+003;6.565538e-002
3.571671e+003;6.484449e-002
3.573599e+003;6.445108e-002
3.575528e+003;6.447272e-002
3.577457e+003;6.409325e-002
3.579385e+003;6.321397e-002
3.581314e+003;6.273448e-002
3.583242e+003;6.241696e-002
3.585171e+003;6.181257e-002
3.587099e+003;6.140919e-002
3.589028e+003;6.070947e-002
3.590956e+003;5.965284e-002
3.592885e+003;5.897994e-002
3.594813e+003;5.917517e-002
3.596742e+003;5.932055e-002
3.598671e+003;5.861221e-002
3.600599e+003;5.787980e-002
3.602528e+003;5.764957e-002
3.604456e+003;5.786708e-002
3.606385e+003;5.728501e-002
3.608313e+003;5.638778e-002
3.610242e+003;5.632142e-002
3.612170e+003;5.622369e-002
3.614099e+003;5.598941e-002
3.616028e+003;5.595842e-002
3.617956e+003;5.548205e-002
3.619885e+003;5.483530e-002
3.621813e+003;5.448849e-002
3.623742e+003;5.437589e-002
3.625670e+003;5.407996e-002
3.627599e+003;5.344324e-002
3.629527e+003;5.316944e-002
3.631456e+003;5.362851e-002
3.633385e+003;5.342533e-002
3.635313e+003;5.255895e-002
3.637241e+003;5.237680e-002
3.639170e+003;5.213893e-002
3.641099e+003;5.158553e-002
3.643027e+003;5.165885e-002
3.644956e+003;5.134093e-002
3.646884e+003;5.060307e-002
3.648813e+003;5.014659e-002
3.650741e+003;5.001801e-002
3.652670e+003;4.973558e-002
3.654598e+003;4.935540e-002
3.656527e+003;4.937010e-002
3.658456e+003;4.902120e-002
3.660384e+003;4.861252e-002
3.662313e+003;4.823728e-002
3.664241e+003;4.773656e-002
3.666170e+003;4.717145e-002
3.668098e+003;4.710977e-002
3.670027e+003;4.674682e-002
3.671955e+003;4.590644e-002
3.673884e+003;4.603395e-002
3.675813e+003;4.603532e-002
3.677741e+003;4.568530e-002
3.679669e+003;4.527757e-002
3.681598e+003;4.519917e-002
3.683527e+003;4.547580e-002
3.685455e+003;4.528158e-002
3.687384e+003;4.488951e-002
3.689312e+003;4.472817e-002
3.691241e+003;4.460199e-002
3.693169e+003;4.413167e-002
3.695098e+003;4.337386e-002
3.697026e+003;4.315819e-002
3.698955e+003;4.311651e-002
3.700884e+003;4.294511e-002
3.702812e+003;4.294844e-002
3.704741e+003;4.281059e-002
3.706669e+003;4.270032e-002
3.708598e+003;4.204417e-002
3.710526e+003;4.178676e-002
3.712455e+003;4.199519e-002
3.714383e+003;4.187506e-002
3.716312e+003;4.151591e-002
3.718240e+003;4.152779e-002
3.720169e+003;4.170568e-002
3.722098e+003;4.179256e-002
3.724026e+003;4.149199e-002
3.725955e+003;4.107339e-002
3.727883e+003;4.114657e-002
3.729812e+003;4.117913e-002
3.731740e+003;4.096888e-002
3.733669e+003;4.091313e-002
3.735597e+003;4.073758e-002
3.737526e+003;4.062623e-002
3.739455e+003;4.093574e-002
3.741383e+003;4.109659e-002
3.743312e+003;4.072447e-002
3.745240e+003;4.026611e-002
3.747169e+003;3.975819e-002
3.749097e+003;3.974247e-002
3.751026e+003;4.053601e-002
3.752954e+003;4.046963e-002
3.754883e+003;4.034937e-002
3.756812e+003;4.088710e-002
3.758740e+003;4.097598e-002
3.760668e+003;4.098585e-002
3.762597e+003;4.088860e-002
3.764526e+003;4.079530e-002
3.766454e+003;4.072819e-002
3.768383e+003;4.049763e-002
3.770311e+003;4.015325e-002
3.772240e+003;4.028295e-002
3.774168e+003;4.078231e-002
3.776097e+003;4.092282e-002
3.778025e+003;4.091423e-002
3.779954e+003;4.111772e-002
3.781883e+003;4.075046e-002
3.783811e+003;4.008813e-002
3.785740e+003;4.022057e-002
3.787668e+003;4.072953e-002
3.789597e+003;4.138993e-002
3.791525e+003;4.176043e-002
3.793454e+003;4.162610e-002
3.795382e+003;4.099087e-002
3.797311e+003;4.039551e-002
3.799240e+003;4.033475e-002
3.801168e+003;4.044763e-002
3.803097e+003;4.026800e-002
3.805025e+003;3.994607e-002
3.806954e+003;3.964358e-002
3.808882e+003;3.942760e-002
3.810811e+003;3.934162e-002
3.812739e+003;4.012636e-002
3.814668e+003;4.057894e-002
3.816596e+003;4.068404e-002
3.818525e+003;4.049527e-002
3.820454e+003;3.996819e-002
3.822382e+003;4.063322e-002
3.824311e+003;4.111298e-002
3.826239e+003;4.056282e-002
3.828168e+003;3.990150e-002
3.830096e+003;3.983068e-002
3.832025e+003;4.060182e-002
3.833953e+003;4.096808e-002
3.835882e+003;4.076749e-002
3.837811e+003;4.077401e-002
3.839739e+003;4.073139e-002
3.841667e+003;4.083756e-002
3.843596e+003;4.136416e-002
3.845525e+003;4.167985e-002
3.847453e+003;4.110879e-002
3.849382e+003;4.041209e-002
3.851310e+003;4.052801e-002
3.853239e+003;4.100452e-002
3.855167e+003;4.167234e-002
3.857096e+003;4.173920e-002
3.859024e+003;4.170487e-002
3.860953e+003;4.132728e-002
3.862882e+003;4.098985e-002
3.864810e+003;4.132670e-002
3.866739e+003;4.151748e-002
3.868667e+003;4.153990e-002
3.870596e+003;4.125393e-002
3.872524e+003;4.115152e-002
3.874453e+003;4.177338e-002
3.876381e+003;4.216220e-002
3.878310e+003;4.160214e-002
3.880239e+003;4.099903e-002
3.882167e+003;4.108388e-002
3.884096e+003;4.155922e-002
3.886024e+003;4.202826e-002
3.887953e+003;4.240405e-002
3.889881e+003;4.233538e-002
3.891810e+003;4.247515e-002
3.893738e+003;4.238564e-002
3.895667e+003;4.193749e-002
3.897595e+003;4.209429e-002
3.899524e+003;4.284881e-002
3.901453e+003;4.285159e-002
3.903381e+003;4.210218e-002
3.905310e+003;4.210079e-002
3.907238e+003;4.268233e-002
3.909167e+003;4.324991e-002
3.911095e+003;4.330302e-002
3.913024e+003;4.285078e-002
3.914952e+003;4.295085e-002
3.916881e+003;4.295626e-002
3.918810e+003;4.297265e-002
3.920738e+003;4.304962e-002
3.922667e+003;4.290622e-002
3.924595e+003;4.264764e-002
3.926524e+003;4.266731e-002
3.928452e+003;4.334414e-002
3.930381e+003;4.345684e-002
3.932309e+003;4.304384e-002
3.934238e+003;4.298501e-002
3.936167e+003;4.283721e-002
3.938095e+003;4.281162e-002
3.940023e+003;4.357675e-002
3.941952e+003;4.451674e-002
3.943881e+003;4.445966e-002
3.945809e+003;4.404211e-002
3.947738e+003;4.398483e-002
3.949666e+003;4.345721e-002
3.951595e+003;4.317963e-002
3.953523e+003;4.364035e-002
3.955452e+003;4.401729e-002
3.957380e+003;4.436269e-002
3.959309e+003;4.448932e-002
3.961238e+003;4.385015e-002
3.963166e+003;4.382973e-002
3.965095e+003;4.454475e-002
3.967023e+003;4.490402e-002
3.968952e+003;4.515715e-002
3.970880e+003;4.525904e-002
3.972809e+003;4.514513e-002
3.974737e+003;4.468637e-002
3.976666e+003;4.397952e-002
3.978594e+003;4.365600e-002
3.980523e+003;4.403899e-002
3.982452e+003;4.445602e-002
3.984380e+003;4.474499e-002
3.986309e+003;4.469761e-002
3.988237e+003;4.463867e-002
3.990166e+003;4.447056e-002
3.992094e+003;4.414374e-002
3.994023e+003;4.376050e-002
3.995951e+003;4.388544e-002
3.997880e+003;4.459564e-002
3.999809e+003;4.453337e-002
4.001737e+003;0.000000e+000
