3.992094e+002;0.000000e+000
4.011380e+002;0.000000e+000
4.030665e+002;0.000000e+000
4.049951e+002;0.000000e+000
4.069236e+002;0.000000e+000
4.088522e+002;0.000000e+000
4.107807e+002;0.000000e+000
4.127093e+002;0.000000e+000
4.146378e+002;0.000000e+000
4.165664e+002;0.000000e+000
4.184949e+002;0.000000e+000
4.204235e+002;0.000000e+000
4.223520e+002;0.000000e+000
4.242806e+002;0.000000e+000
4.262091e+002;0.000000e+000
4.281377e+002;0.000000e+000
4.300662e+002;0.000000e+000
4.319948e+002;0.000000e+000
4.339233e+002;0.000000e+000
4.358519e+002;0.000000e+000
4.377804e+002;0.000000e+000
4.397090e+002;0.000000e+000
4.416375e+002;0.000000e+000
4.435660e+002;0.000000e+000
4.454946e+002;0.000000e+000
4.474232e+002;0.000000e+000
4.493517e+002;0.000000e+000
4.512802e+002;0.000000e+000
4.532088e+002;0.000000e+000
4.551373e+002;0.000000e+000
4.570659e+002;0.000000e+000
4.589944e+002;0.000000e+000
4.609230e+002;0.000000e+000
4.628515e+002;0.000000e+000
4.647801e+002;0.000000e+000
4.667086e+002;0.000000e+000
4.686372e+002;0.000000e+000
4.705657e+002;0.000000e+000
4.724943e+002;0.000000e+000
4.744228e+002;0.000000e+000
4.763513e+002;0.000000e+000
4.782799e+002;0.000000e+000
4.802085e+002;0.000000e+000
4.821370e+002;0.000000e+000
4.840656e+002;0.000000e+000
4.859941e+002;0.000000e+000
4.879226e+002;0.000000e+000
4.898512e+002;0.000000e+000
4.917798e+002;0.000000e+000
4.937083e+002;0.000000e+000
4.956368e+002;0.000000e+000
4.975654e+002;0.000000e+000
4.994939e+002;0.000000e+000
5.014225e+002;0.000000e+000
5.033510e+002;0.000000e+000
5.052796e+002;0.000000e+000
5.072081e+002;0.000000e+000
5.091367e+002;0.000000e+000
5.110652e+002;0.000000e+000
5.129938e+002;0.000000e+000
5.149223e+002;0.000000e+000
5.168509e+002;0.000000e+000
5.187794e+002;0.000000e+000
5.207079e+002;0.000000e+000
5.226365e+002;0.000000e+000
5.245651e+002;0.000000e+000
5.264936e+002;0.000000e+000
5.284222e+002;0.000000e+000
5.303507e+002;0.000000e+000
5.322792e+002;0.000000e+000
5.342078e+002;0.000000e+000
5.361364e+002;0.000000e+000
5.380649e+002;0.000000e+000
5.399935e+002;0.000000e+000
5.419220e+002;0.000000e+000
5.438505e+002;0.000000e+000
5.457791e+002;0.000000e+000
5.477076e+002;0.000000e+000
5.496362e+002;0.000000e+000
5.515648e+002;0.000000e+000
5.534933e+002;0.000000e+000
5.554218e+002;0.000000e+000
5.573504e+002;0.000000e+000
5.592789e+002;0.000000e+000
5.612075e+002;0.000000e+000
5.631360e+002;0.000000e+000
5.650646e+002;0.000000e+000
5.669931e+002;0.000000e+000
5.689217e+002;0.000000e+000
5.708502e+002;0.000000e+000
5.727787e+002;0.000000e+000
5.747073e+002;0.000000e+000
5.766359e+002;0.000000e+000
5.785644e+002;0.000000e+000
5.804930e+002;0.000000e+000
5.824215e+002;0.000000e+000
5.843500e+002;0.000000e+000
5.862786e+002;0.000000e+000
5.882072e+002;0.000000e+000
5.901357e+002;0.000000e+000
5.920643e+002;0.000000e+000
5.939928e+002;0.000000e+000
5.959213e+002;0.000000e+000
5.978499e+002;0.000000e+000
5.997784e+002;1.123423e-001
6.017070e+002;1.177076e-001
6.036355e+002;1.219601e-001
6.055641e+002;1.153031e-001
6.074926e+002;1.109219e-001
6.094211e+002;1.099747e-001
6.113497e+002;1.111737e-001
6.132783e+002;1.132442e-001
6.152068e+002;1.161751e-001
6.171354e+002;1.172052e-001
6.190639e+002;1.149674e-001
6.209924e+002;1.141966e-001
6.229210e+002;1.173097e-001
6.248495e+002;1.136503e-001
6.267781e+002;1.121376e-001
6.287067e+002;1.178901e-001
6.306352e+002;1.205397e-001
6.325637e+002;1.145042e-001
6.344923e+002;1.103520e-001
6.364208e+002;1.161215e-001
6.383494e+002;1.184827e-001
6.402780e+002;1.171697e-001
6.422065e+002;1.180172e-001
6.441350e+002;1.191246e-001
6.460636e+002;1.191230e-001
6.479921e+002;1.169733e-001
6.499207e+002;1.192018e-001
6.518492e+002;1.173293e-001
6.537778e+002;1.157580e-001
6.557063e+002;1.178689e-001
6.576349e+002;1.183161e-001
6.595634e+002;1.171771e-001
6.614919e+002;1.178388e-001
6.634205e+002;1.190798e-001
6.653491e+002;1.155473e-001
6.672776e+002;1.102441e-001
6.692062e+002;1.118535e-001
6.711347e+002;1.175141e-001
6.730632e+002;1.205197e-001
6.749918e+002;1.181053e-001
6.769203e+002;1.142845e-001
6.788489e+002;1.127219e-001
6.807775e+002;1.114976e-001
6.827060e+002;1.102734e-001
6.846345e+002;1.106110e-001
6.865631e+002;1.105172e-001
6.884916e+002;1.089616e-001
6.904202e+002;1.065952e-001
6.923488e+002;1.061753e-001
6.942773e+002;1.063495e-001
6.962058e+002;1.058349e-001
6.981344e+002;1.062197e-001
7.000629e+002;1.056480e-001
7.019915e+002;1.044589e-001
7.039200e+002;1.042336e-001
7.058486e+002;1.042347e-001
7.077771e+002;1.048207e-001
7.097057e+002;1.051053e-001
7.116342e+002;1.050390e-001
7.135627e+002;1.053505e-001
7.154913e+002;1.059265e-001
7.174199e+002;1.050571e-001
7.193484e+002;1.031022e-001
7.212770e+002;1.014923e-001
7.232055e+002;1.013516e-001
7.251340e+002;1.006931e-001
7.270626e+002;9.996305e-002
7.289911e+002;9.848196e-002
7.309197e+002;9.621467e-002
7.328483e+002;9.510255e-002
7.347768e+002;9.387147e-002
7.367053e+002;9.328220e-002
7.386339e+002;9.343091e-002
7.405624e+002;9.231330e-002
7.424910e+002;9.168486e-002
7.444196e+002;9.189930e-002
7.463481e+002;9.141669e-002
7.482766e+002;9.034076e-002
7.502052e+002;8.856075e-002
7.521337e+002;8.687888e-002
7.540623e+002;8.584528e-002
7.559908e+002;8.484408e-002
7.579194e+002;8.341879e-002
7.598479e+002;8.119745e-002
7.617765e+002;7.982106e-002
7.637050e+002;7.982540e-002
7.656335e+002;7.976687e-002
7.675621e+002;7.997905e-002
7.694907e+002;7.938091e-002
7.714192e+002;7.796530e-002
7.733478e+002;7.697286e-002
7.752763e+002;7.558591e-002
7.772048e+002;7.458904e-002
7.791334e+002;7.394474e-002
7.810620e+002;7.344870e-002
7.829905e+002;7.312541e-002
7.849191e+002;7.291118e-002
7.868476e+002;7.180990e-002
7.887761e+002;7.150173e-002
7.907047e+002;7.140326e-002
7.926332e+002;7.073359e-002
7.945618e+002;6.995486e-002
7.964903e+002;6.903246e-002
7.984189e+002;6.810144e-002
8.003474e+002;6.789951e-002
8.022759e+002;6.791718e-002
8.042045e+002;6.737547e-002
8.061331e+002;6.731797e-002
8.080616e+002;6.700856e-002
8.099902e+002;6.695428e-002
8.119187e+002;6.651563e-002
8.138472e+002;6.542935e-002
8.157758e+002;6.575830e-002
8.177043e+002;6.625407e-002
8.196329e+002;6.629170e-002
8.215615e+002;6.592930e-002
8.234900e+002;6.549565e-002
8.254185e+002;6.542658e-002
8.273471e+002;6.557310e-002
8.292756e+002;6.520895e-002
8.312042e+002;6.511871e-002
8.331328e+002;6.549562e-002
8.350613e+002;6.504416e-002
8.369898e+002;6.473160e-002
8.389184e+002;6.481533e-002
8.408469e+002;6.399226e-002
8.427755e+002;6.309365e-002
8.447040e+002;6.175309e-002
8.466326e+002;6.054321e-002
8.485611e+002;5.995587e-002
8.504897e+002;5.984264e-002
8.524182e+002;5.884609e-002
8.543467e+002;5.861406e-002
8.562753e+002;5.922306e-002
8.582039e+002;5.927232e-002
8.601324e+002;5.897561e-002
8.620610e+002;5.889568e-002
8.639895e+002;5.895295e-002
8.659180e+002;5.899948e-002
8.678466e+002;5.872265e-002
8.697751e+002;5.849409e-002
8.717037e+002;5.813632e-002
8.736323e+002;5.763300e-002
8.755608e+002;5.809208e-002
8.774893e+002;5.928265e-002
8.794179e+002;6.136747e-002
8.813464e+002;6.453919e-002
8.832750e+002;6.787995e-002
8.852036e+002;7.110620e-002
8.871321e+002;7.428888e-002
8.890606e+002;7.692622e-002
8.909892e+002;7.952912e-002
8.929177e+002;8.214051e-002
8.948463e+002;8.403032e-002
8.967748e+002;8.526733e-002
8.987034e+002;8.612078e-002
9.006319e+002;8.627065e-002
9.025605e+002;8.578262e-002
9.044890e+002;8.533902e-002
9.064175e+002;8.415972e-002
9.083461e+002;8.227188e-002
9.102747e+002;8.038256e-002
9.122032e+002;7.854851e-002
9.141318e+002;7.692812e-002
9.160603e+002;7.561079e-002
9.179888e+002;7.520330e-002
9.199174e+002;7.500864e-002
9.218459e+002;7.415760e-002
9.237745e+002;7.350305e-002
9.257031e+002;7.356000e-002
9.276316e+002;7.391771e-002
9.295601e+002;7.410029e-002
9.314887e+002;7.400645e-002
9.334172e+002;7.358786e-002
9.353458e+002;7.342940e-002
9.372744e+002;7.370757e-002
9.392029e+002;7.389964e-002
9.411314e+002;7.378528e-002
9.430600e+002;7.366139e-002
9.449885e+002;7.405176e-002
9.469171e+002;7.455954e-002
9.488456e+002;7.512841e-002
9.507742e+002;7.601678e-002
9.527027e+002;7.722781e-002
9.546313e+002;7.844771e-002
9.565598e+002;7.974605e-002
9.584883e+002;8.076596e-002
9.604169e+002;8.184161e-002
9.623455e+002;8.300688e-002
9.642740e+002;8.436268e-002
9.662026e+002;8.588829e-002
9.681311e+002;8.755986e-002
9.700596e+002;8.962201e-002
9.719882e+002;9.167581e-002
9.739167e+002;9.387356e-002
9.758453e+002;9.669283e-002
9.777739e+002;1.005315e-001
9.797024e+002;1.055458e-001
9.816309e+002;1.114145e-001
9.835595e+002;1.175359e-001
9.854880e+002;1.238038e-001
9.874166e+002;1.299103e-001
9.893452e+002;1.351585e-001
9.912737e+002;1.395045e-001
9.932022e+002;1.429538e-001
9.951307e+002;1.458997e-001
9.970593e+002;1.483394e-001
9.989879e+002;1.505929e-001
1.000916e+003;1.527226e-001
1.002845e+003;1.543728e-001
1.004773e+003;1.555380e-001
1.006702e+003;1.567877e-001
1.008631e+003;1.585511e-001
1.010559e+003;1.603841e-001
1.012488e+003;1.623424e-001
1.014416e+003;1.646609e-001
1.016345e+003;1.675193e-001
1.018273e+003;1.707876e-001
1.020202e+003;1.743265e-001
1.022130e+003;1.778866e-001
1.024059e+003;1.807405e-001
1.025988e+003;1.830902e-001
1.027916e+003;1.851359e-001
1.029845e+003;1.872557e-001
1.031773e+003;1.889687e-001
1.033702e+003;1.902731e-001
1.035630e+003;1.915731e-001
1.037559e+003;1.917776e-001
1.039487e+003;1.909814e-001
1.041416e+003;1.913964e-001
1.043344e+003;1.919243e-001
1.045273e+003;1.918362e-001
1.047202e+003;1.921245e-001
1.049130e+003;1.924754e-001
1.051059e+003;1.935043e-001
1.052987e+003;1.948782e-001
1.054916e+003;1.957411e-001
1.056844e+003;1.962006e-001
1.058773e+003;1.959672e-001
1.060701e+003;1.952998e-001
1.062630e+003;1.943616e-001
1.064558e+003;1.918990e-001
1.066487e+003;1.889632e-001
1.068416e+003;1.864379e-001
1.070344e+003;1.843089e-001
1.072273e+003;1.818839e-001
1.074201e+003;1.784655e-001
1.076130e+003;1.757985e-001
1.078058e+003;1.736694e-001
1.079987e+003;1.717728e-001
1.081915e+003;1.693482e-001
1.083844e+003;1.664331e-001
1.085773e+003;1.642358e-001
1.087701e+003;1.622107e-001
1.089630e+003;1.603435e-001
1.091558e+003;1.585446e-001
1.093487e+003;1.571064e-001
1.095415e+003;1.553572e-001
1.097344e+003;1.536957e-001
1.099272e+003;1.525223e-001
1.101201e+003;1.509883e-001
1.103129e+003;1.490836e-001
1.105058e+003;1.473733e-001
1.106987e+003;1.458891e-001
1.108915e+003;1.436427e-001
1.110844e+003;1.409182e-001
1.112772e+003;1.382659e-001
1.114701e+003;1.355256e-001
1.116629e+003;1.330713e-001
1.118558e+003;1.299869e-001
1.120486e+003;1.264345e-001
1.122415e+003;1.233453e-001
1.124344e+003;1.200283e-001
1.126272e+003;1.169509e-001
1.128201e+003;1.136600e-001
1.130129e+003;1.102697e-001
1.132058e+003;1.072107e-001
1.133986e+003;1.046427e-001
1.135915e+003;1.019110e-001
1.137843e+003;9.914855e-002
1.139772e+003;9.692737e-002
1.141700e+003;9.455182e-002
1.143629e+003;9.288713e-002
1.145557e+003;9.210279e-002
1.147486e+003;9.129905e-002
1.149415e+003;9.091314e-002
1.151343e+003;9.036034e-002
1.153272e+003;8.970795e-002
1.155200e+003;8.969279e-002
1.157129e+003;8.974665e-002
1.159057e+003;8.930379e-002
1.160986e+003;8.861888e-002
1.162914e+003;8.741494e-002
1.164843e+003;8.501450e-002
1.166771e+003;8.134491e-002
1.168700e+003;7.746956e-002
1.170629e+003;7.364859e-002
1.172557e+003;6.963926e-002
1.174486e+003;6.520845e-002
1.176414e+003;6.141804e-002
1.178343e+003;5.792330e-002
1.180271e+003;5.449195e-002
1.182200e+003;5.221938e-002
1.184128e+003;5.059629e-002
1.186057e+003;4.926264e-002
1.187986e+003;4.879985e-002
1.189914e+003;4.902109e-002
1.191843e+003;5.009397e-002
1.193771e+003;5.135190e-002
1.195700e+003;5.243785e-002
1.197628e+003;5.355511e-002
1.199557e+003;5.466376e-002
1.201485e+003;5.554689e-002
1.203414e+003;5.562254e-002
1.205343e+003;5.522423e-002
1.207271e+003;5.420934e-002
1.209200e+003;5.254965e-002
1.211128e+003;5.090208e-002
1.213057e+003;4.956281e-002
1.214985e+003;4.886032e-002
1.216914e+003;4.828330e-002
1.218842e+003;4.838037e-002
1.220771e+003;4.929199e-002
1.222699e+003;5.035055e-002
1.224628e+003;5.140359e-002
1.226557e+003;5.266521e-002
1.228485e+003;5.376015e-002
1.230414e+003;5.449589e-002
1.232342e+003;5.570536e-002
1.234271e+003;5.664739e-002
1.236199e+003;5.692419e-002
1.238128e+003;5.721738e-002
1.240056e+003;5.702245e-002
1.241985e+003;5.714333e-002
1.243913e+003;5.781620e-002
1.245842e+003;5.820129e-002
1.247771e+003;5.837079e-002
1.249699e+003;5.881339e-002
1.251628e+003;5.953103e-002
1.253556e+003;6.006156e-002
1.255485e+003;6.064759e-002
1.257413e+003;6.128497e-002
1.259342e+003;6.159514e-002
1.261270e+003;6.182819e-002
1.263199e+003;6.177505e-002
1.265127e+003;6.111868e-002
1.267056e+003;6.056961e-002
1.268985e+003;6.024499e-002
1.270913e+003;5.994065e-002
1.272842e+003;5.985782e-002
1.274770e+003;5.963163e-002
1.276699e+003;5.926487e-002
1.278627e+003;5.877738e-002
1.280556e+003;5.847643e-002
1.282484e+003;5.853007e-002
1.284413e+003;5.845236e-002
1.286342e+003;5.820262e-002
1.288270e+003;5.834335e-002
1.290199e+003;5.867941e-002
1.292127e+003;5.936974e-002
1.294056e+003;6.030871e-002
1.295984e+003;6.119913e-002
1.297913e+003;6.233820e-002
1.299841e+003;6.380805e-002
1.301770e+003;6.532832e-002
1.303698e+003;6.680065e-002
1.305627e+003;6.816512e-002
1.307556e+003;6.966816e-002
1.309484e+003;7.157932e-002
1.311413e+003;7.334410e-002
1.313341e+003;7.482257e-002
1.315270e+003;7.596502e-002
1.317198e+003;7.688275e-002
1.319127e+003;7.729673e-002
1.321055e+003;7.703010e-002
1.322984e+003;7.666630e-002
1.324912e+003;7.664602e-002
1.326841e+003;7.700478e-002
1.328770e+003;7.720061e-002
1.330698e+003;7.722998e-002
1.332627e+003;7.725781e-002
1.334555e+003;7.775921e-002
1.336484e+003;7.830630e-002
1.338412e+003;7.827274e-002
1.340341e+003;7.804821e-002
1.342269e+003;7.809866e-002
1.344198e+003;7.773020e-002
1.346126e+003;7.708257e-002
1.348055e+003;7.675498e-002
1.349984e+003;7.668112e-002
1.351912e+003;7.683209e-002
1.353841e+003;7.718997e-002
1.355769e+003;7.786433e-002
1.357698e+003;7.880283e-002
1.359626e+003;7.917444e-002
1.361555e+003;7.924592e-002
1.363483e+003;7.934265e-002
1.365412e+003;7.934317e-002
1.367341e+003;7.891619e-002
1.369269e+003;7.860818e-002
1.371198e+003;7.819600e-002
1.373126e+003;7.716396e-002
1.375055e+003;7.601752e-002
1.376983e+003;7.489118e-002
1.378912e+003;7.368145e-002
1.380840e+003;7.247885e-002
1.382769e+003;7.108328e-002
1.384698e+003;6.968376e-002
1.386626e+003;6.786182e-002
1.388555e+003;6.696619e-002
1.390483e+003;6.645269e-002
1.392412e+003;6.492317e-002
1.394340e+003;6.325759e-002
1.396269e+003;6.284092e-002
1.398197e+003;6.247649e-002
1.400126e+003;6.249937e-002
1.402054e+003;6.279650e-002
1.403983e+003;6.218275e-002
1.405911e+003;6.181448e-002
1.407840e+003;6.171898e-002
1.409769e+003;6.133885e-002
1.411697e+003;6.098994e-002
1.413626e+003;6.076530e-002
1.415554e+003;6.021104e-002
1.417483e+003;5.875182e-002
1.419411e+003;5.816322e-002
1.421340e+003;6.002975e-002
1.423268e+003;6.101583e-002
1.425197e+003;6.123125e-002
1.427125e+003;6.127406e-002
1.429054e+003;6.069263e-002
1.430983e+003;6.062203e-002
1.432911e+003;6.018268e-002
1.434840e+003;5.839861e-002
1.436768e+003;5.702275e-002
1.438697e+003;5.792163e-002
1.440625e+003;5.795124e-002
1.442554e+003;5.675571e-002
1.444482e+003;5.563045e-002
1.446411e+003;5.473595e-002
1.448340e+003;5.414894e-002
1.450268e+003;5.407260e-002
1.452197e+003;5.364493e-002
1.454125e+003;5.183966e-002
1.456054e+003;4.829545e-002
1.457982e+003;4.838033e-002
1.459911e+003;5.093092e-002
1.461839e+003;5.088368e-002
1.463768e+003;4.866803e-002
1.465697e+003;4.715294e-002
1.467625e+003;4.624940e-002
1.469554e+003;4.440067e-002
1.471482e+003;4.139088e-002
1.473411e+003;3.962111e-002
1.475339e+003;3.898039e-002
1.477268e+003;3.800699e-002
1.479196e+003;3.665827e-002
1.481125e+003;3.455902e-002
1.483053e+003;3.291585e-002
1.484982e+003;3.127663e-002
1.486911e+003;2.912546e-002
1.488839e+003;2.687560e-002
1.490768e+003;2.585661e-002
1.492696e+003;2.565248e-002
1.494625e+003;2.378784e-002
1.496553e+003;2.171418e-002
1.498482e+003;2.171777e-002
1.500410e+003;2.240121e-002
1.502339e+003;2.222910e-002
1.504267e+003;1.919819e-002
1.506196e+003;1.587034e-002
1.508125e+003;1.732062e-002
1.510053e+003;1.977342e-002
1.511982e+003;2.013682e-002
1.513910e+003;1.990407e-002
1.515839e+003;1.912879e-002
1.517767e+003;1.856368e-002
1.519696e+003;1.708879e-002
1.521624e+003;1.602306e-002
1.523553e+003;1.748164e-002
1.525481e+003;1.824918e-002
1.527410e+003;1.873406e-002
1.529339e+003;1.974467e-002
1.531267e+003;1.982239e-002
1.533196e+003;1.881225e-002
1.535124e+003;1.927820e-002
1.537053e+003;1.788964e-002
1.538981e+003;1.418720e-002
1.540910e+003;1.446435e-002
1.542838e+003;1.733324e-002
1.544767e+003;1.964000e-002
1.546695e+003;2.154405e-002
1.548624e+003;2.230810e-002
1.550553e+003;2.269321e-002
1.552481e+003;2.261181e-002
1.554410e+003;2.218474e-002
1.556338e+003;2.116399e-002
1.558267e+003;1.833651e-002
1.560195e+003;2.032886e-002
1.562124e+003;2.554459e-002
1.564052e+003;2.770468e-002
1.565981e+003;2.863613e-002
1.567910e+003;2.865075e-002
1.569838e+003;2.888876e-002
1.571767e+003;3.097470e-002
1.573695e+003;3.114415e-002
1.575624e+003;2.917843e-002
1.577552e+003;3.083030e-002
1.579481e+003;3.340380e-002
1.581409e+003;3.436087e-002
1.583338e+003;3.507784e-002
1.585266e+003;3.572224e-002
1.587195e+003;3.646648e-002
1.589124e+003;3.653690e-002
1.591052e+003;3.682815e-002
1.592981e+003;3.731228e-002
1.594909e+003;3.769598e-002
1.596838e+003;3.837555e-002
1.598766e+003;3.885479e-002
1.600695e+003;3.907631e-002
1.602623e+003;3.931782e-002
1.604552e+003;3.942717e-002
1.606480e+003;3.973434e-002
1.608409e+003;3.970399e-002
1.610338e+003;3.969179e-002
1.612266e+003;3.998022e-002
1.614195e+003;3.919458e-002
1.616123e+003;3.721794e-002
1.618052e+003;3.818828e-002
1.619980e+003;3.970061e-002
1.621909e+003;3.881793e-002
1.623837e+003;3.805035e-002
1.625766e+003;3.847553e-002
1.627694e+003;3.872534e-002
1.629623e+003;3.885417e-002
1.631552e+003;3.856779e-002
1.633480e+003;3.660467e-002
1.635409e+003;3.424982e-002
1.637337e+003;3.513216e-002
1.639266e+003;3.627344e-002
1.641194e+003;3.602796e-002
1.643123e+003;3.512339e-002
1.645051e+003;3.279756e-002
1.646980e+003;3.160224e-002
1.648909e+003;3.210007e-002
1.650837e+003;2.868550e-002
1.652766e+003;2.420979e-002
1.654694e+003;2.729830e-002
1.656623e+003;3.063494e-002
1.658551e+003;3.054386e-002
1.660480e+003;2.960129e-002
1.662408e+003;2.832461e-002
1.664337e+003;2.823843e-002
1.666266e+003;2.789550e-002
1.668194e+003;2.582296e-002
1.670123e+003;2.501505e-002
1.672051e+003;2.536516e-002
1.673980e+003;2.408694e-002
1.675908e+003;2.328365e-002
1.677837e+003;2.371967e-002
1.679765e+003;2.280344e-002
1.681694e+003;2.053953e-002
1.683622e+003;1.660739e-002
1.685551e+003;1.675248e-002
1.687479e+003;1.931159e-002
1.689408e+003;1.960423e-002
1.691337e+003;1.902773e-002
1.693265e+003;1.680111e-002
1.695194e+003;1.311972e-002
1.697122e+003;1.275733e-002
1.699051e+003;1.132746e-002
1.700979e+003;1.068845e-002
1.702908e+003;1.293378e-002
1.704836e+003;1.246804e-002
1.706765e+003;1.193544e-002
1.708693e+003;1.178139e-002
1.710622e+003;1.145219e-002
1.712551e+003;1.012037e-002
1.714479e+003;8.168366e-003
1.716408e+003;5.702130e-003
1.718336e+003;5.652481e-003
1.720265e+003;7.541196e-003
1.722193e+003;7.795038e-003
1.724122e+003;7.499325e-003
1.726050e+003;7.021765e-003
1.727979e+003;6.237564e-003
1.729908e+003;5.582497e-003
1.731836e+003;3.447594e-003
1.733765e+003;1.396789e-003
1.735693e+003;3.609271e-003
1.737622e+003;5.635898e-003
1.739550e+003;5.580483e-003
1.741479e+003;6.161907e-003
1.743407e+003;6.763090e-003
1.745336e+003;7.366456e-003
1.747265e+003;7.645892e-003
1.749193e+003;7.407876e-003
1.751122e+003;7.426077e-003
1.753050e+003;8.880947e-003
1.754979e+003;9.643380e-003
1.756907e+003;9.619462e-003
1.758836e+003;9.873438e-003
1.760764e+003;9.485333e-003
1.762693e+003;9.635960e-003
1.764621e+003;1.036226e-002
1.766550e+003;1.004658e-002
1.768479e+003;9.644667e-003
1.770407e+003;9.025681e-003
1.772336e+003;8.285742e-003
1.774264e+003;9.230636e-003
1.776193e+003;1.005913e-002
1.778121e+003;1.009341e-002
1.780050e+003;9.817175e-003
1.781978e+003;9.754648e-003
1.783907e+003;9.495663e-003
1.785835e+003;9.463016e-003
1.787764e+003;9.909200e-003
1.789693e+003;9.315631e-003
1.791621e+003;8.180622e-003
1.793550e+003;8.672303e-003
1.795478e+003;9.853168e-003
1.797407e+003;9.768847e-003
1.799335e+003;9.328665e-003
1.801264e+003;9.326431e-003
1.803192e+003;9.788469e-003
1.805121e+003;1.007191e-002
1.807049e+003;1.014120e-002
1.808978e+003;9.920352e-003
1.810907e+003;9.645649e-003
1.812835e+003;9.716020e-003
1.814764e+003;9.957101e-003
1.816692e+003;1.008351e-002
1.818621e+003;1.035968e-002
1.820549e+003;1.037030e-002
1.822478e+003;9.811040e-003
1.824406e+003;9.142647e-003
1.826335e+003;9.555949e-003
1.828264e+003;9.446830e-003
1.830192e+003;9.094225e-003
1.832121e+003;9.831680e-003
1.834049e+003;1.016524e-002
1.835978e+003;1.001104e-002
1.837906e+003;9.916319e-003
1.839835e+003;1.002830e-002
1.841763e+003;9.637654e-003
1.843692e+003;8.583817e-003
1.845620e+003;8.938037e-003
1.847549e+003;9.883098e-003
1.849478e+003;1.009443e-002
1.851406e+003;1.010806e-002
1.853335e+003;1.006011e-002
1.855263e+003;9.894251e-003
1.857192e+003;9.658014e-003
1.859120e+003;9.669093e-003
1.861049e+003;9.792095e-003
1.862977e+003;9.868489e-003
1.864906e+003;9.750853e-003
1.866834e+003;9.170733e-003
1.868763e+003;8.696134e-003
1.870692e+003;9.081774e-003
1.872620e+003;9.534577e-003
1.874549e+003;9.438939e-003
1.876477e+003;9.501182e-003
1.878406e+003;9.639280e-003
1.880334e+003;9.668043e-003
1.882263e+003;9.634639e-003
1.884191e+003;9.581083e-003
1.886120e+003;9.553307e-003
1.888048e+003;9.403657e-003
1.889977e+003;9.098895e-003
1.891906e+003;9.215541e-003
1.893834e+003;9.269900e-003
1.895763e+003;9.524687e-003
1.897691e+003;9.850288e-003
1.899620e+003;9.648597e-003
1.901548e+003;9.281882e-003
1.903477e+003;9.144203e-003
1.905405e+003;9.082383e-003
1.907334e+003;8.980926e-003
1.909262e+003;9.089353e-003
1.911191e+003;9.679325e-003
1.913120e+003;9.872421e-003
1.915048e+003;9.423431e-003
1.916977e+003;8.998956e-003
1.918905e+003;9.161326e-003
1.920834e+003;9.342207e-003
1.922762e+003;9.046114e-003
1.924691e+003;9.164947e-003
1.926619e+003;9.588941e-003
1.928548e+003;9.770880e-003
1.930477e+003;9.801787e-003
1.932405e+003;9.671973e-003
1.934334e+003;9.599578e-003
1.936262e+003;9.602727e-003
1.938191e+003;9.451977e-003
1.940119e+003;9.128570e-003
1.942048e+003;8.915138e-003
1.943976e+003;9.237406e-003
1.945905e+003;9.456345e-003
1.947833e+003;9.461492e-003
1.949762e+003;9.545313e-003
1.951691e+003;9.589517e-003
1.953619e+003;9.618852e-003
1.955548e+003;9.545822e-003
1.957476e+003;9.409278e-003
1.959405e+003;9.439684e-003
1.961333e+003;9.410530e-003
1.963262e+003;9.349993e-003
1.965190e+003;9.464574e-003
1.967119e+003;9.551444e-003
1.969047e+003;9.723474e-003
1.970976e+003;9.690947e-003
1.972905e+003;9.616718e-003
1.974833e+003;9.754784e-003
1.976762e+003;9.958017e-003
1.978690e+003;1.000850e-002
1.980619e+003;1.007957e-002
1.982547e+003;1.013173e-002
1.984476e+003;1.013987e-002
1.986404e+003;1.002254e-002
1.988333e+003;9.992497e-003
1.990261e+003;1.002284e-002
1.992190e+003;9.861812e-003
1.994119e+003;9.817785e-003
1.996047e+003;9.932862e-003
1.997976e+003;1.001138e-002
1.999904e+003;1.014832e-002
2.001833e+003;1.032540e-002
2.003761e+003;1.027604e-002
2.005690e+003;1.016178e-002
2.007618e+003;1.008639e-002
2.009547e+003;1.024045e-002
2.011476e+003;1.067864e-002
2.013404e+003;1.075295e-002
2.015333e+003;1.063690e-002
2.017261e+003;1.072992e-002
2.019190e+003;1.080719e-002
2.021118e+003;1.078531e-002
2.023047e+003;1.089987e-002
2.024975e+003;1.100850e-002
2.026904e+003;1.106060e-002
2.028833e+003;1.083875e-002
2.030761e+003;1.073651e-002
2.032690e+003;1.093796e-002
2.034618e+003;1.120797e-002
2.036547e+003;1.115310e-002
2.038475e+003;1.111886e-002
2.040404e+003;1.144726e-002
2.042332e+003;1.160650e-002
2.044261e+003;1.145359e-002
2.046189e+003;1.149962e-002
2.048118e+003;1.176832e-002
2.050047e+003;1.180008e-002
2.051975e+003;1.163798e-002
2.053904e+003;1.158819e-002
2.055832e+003;1.162076e-002
2.057761e+003;1.153899e-002
2.059689e+003;1.150299e-002
2.061618e+003;1.176426e-002
2.063546e+003;1.195958e-002
2.065475e+003;1.187696e-002
2.067404e+003;1.168393e-002
2.069332e+003;1.180747e-002
2.071260e+003;1.183072e-002
2.073189e+003;1.179453e-002
2.075118e+003;1.212020e-002
2.077046e+003;1.216607e-002
2.078975e+003;1.170571e-002
2.080903e+003;1.155951e-002
2.082832e+003;1.176294e-002
2.084760e+003;1.192025e-002
2.086689e+003;1.187931e-002
2.088617e+003;1.174449e-002
2.090546e+003;1.175238e-002
2.092475e+003;1.179296e-002
2.094403e+003;1.195795e-002
2.096332e+003;1.196817e-002
2.098260e+003;1.178976e-002
2.100189e+003;1.198571e-002
2.102117e+003;1.216491e-002
2.104046e+003;1.216729e-002
2.105974e+003;1.222700e-002
2.107903e+003;1.220263e-002
2.109832e+003;1.203261e-002
2.111760e+003;1.179828e-002
2.113688e+003;1.167855e-002
2.115617e+003;1.167995e-002
2.117546e+003;1.180376e-002
2.119474e+003;1.172866e-002
2.121403e+003;1.141080e-002
2.123331e+003;1.137345e-002
2.125260e+003;1.166075e-002
2.127188e+003;1.200788e-002
2.129117e+003;1.209036e-002
2.131045e+003;1.209847e-002
2.132974e+003;1.220764e-002
2.134903e+003;1.239184e-002
2.136831e+003;1.227774e-002
2.138760e+003;1.226496e-002
2.140688e+003;1.221054e-002
2.142617e+003;1.200253e-002
2.144545e+003;1.196234e-002
2.146474e+003;1.187914e-002
2.148402e+003;1.175228e-002
2.150331e+003;1.173509e-002
2.152260e+003;1.170088e-002
2.154188e+003;1.168253e-002
2.156117e+003;1.174135e-002
2.158045e+003;1.169809e-002
2.159974e+003;1.159486e-002
2.161902e+003;1.169142e-002
2.163831e+003;1.147941e-002
2.165759e+003;1.106145e-002
2.167688e+003;1.125948e-002
2.169616e+003;1.163584e-002
2.171545e+003;1.166078e-002
2.173474e+003;1.162382e-002
2.175402e+003;1.136971e-002
2.177331e+003;1.107671e-002
2.179259e+003;1.090432e-002
2.181188e+003;1.086154e-002
2.183116e+003;1.088346e-002
2.185045e+003;1.101319e-002
2.186973e+003;1.093439e-002
2.188902e+003;1.086202e-002
2.190831e+003;1.088682e-002
2.192759e+003;1.084904e-002
2.194688e+003;1.082006e-002
2.196616e+003;1.080570e-002
2.198545e+003;1.082251e-002
2.200473e+003;1.067690e-002
2.202402e+003;1.061684e-002
2.204330e+003;1.057759e-002
2.206259e+003;1.042850e-002
2.208188e+003;1.055209e-002
2.210116e+003;1.038910e-002
2.212044e+003;1.030074e-002
2.213973e+003;1.027750e-002
2.215902e+003;1.021304e-002
2.217830e+003;1.040159e-002
2.219759e+003;1.051173e-002
2.221687e+003;1.043848e-002
2.223616e+003;1.048464e-002
2.225544e+003;1.046017e-002
2.227473e+003;1.041645e-002
2.229401e+003;1.028445e-002
2.231330e+003;1.030471e-002
2.233259e+003;1.045270e-002
2.235187e+003;1.068098e-002
2.237116e+003;1.040980e-002
2.239044e+003;1.030542e-002
2.240973e+003;1.060217e-002
2.242901e+003;1.050334e-002
2.244830e+003;1.037742e-002
2.246758e+003;1.035805e-002
2.248687e+003;1.019957e-002
2.250615e+003;1.020079e-002
2.252544e+003;1.031343e-002
2.254473e+003;1.038445e-002
2.256401e+003;1.058190e-002
2.258330e+003;1.064176e-002
2.260258e+003;1.055002e-002
2.262187e+003;1.046563e-002
2.264115e+003;1.028598e-002
2.266044e+003;1.001294e-002
2.267972e+003;1.017518e-002
2.269901e+003;1.038665e-002
2.271830e+003;1.032395e-002
2.273758e+003;1.003926e-002
2.275687e+003;1.001301e-002
2.277615e+003;1.034210e-002
2.279544e+003;1.052405e-002
2.281472e+003;1.065133e-002
2.283401e+003;1.078827e-002
2.285329e+003;1.064050e-002
2.287258e+003;1.040193e-002
2.289187e+003;1.050949e-002
2.291115e+003;1.068261e-002
2.293043e+003;1.057664e-002
2.294972e+003;1.039728e-002
2.296901e+003;1.020703e-002
2.298829e+003;9.984936e-003
2.300758e+003;1.001155e-002
2.302686e+003;9.995990e-003
2.304615e+003;9.691218e-003
2.306543e+003;9.708464e-003
2.308472e+003;9.413104e-003
2.310400e+003;9.037995e-003
2.312329e+003;9.095004e-003
2.314258e+003;8.757019e-003
2.316186e+003;7.978557e-003
2.318115e+003;7.325106e-003
2.320043e+003;6.958833e-003
2.321972e+003;6.673109e-003
2.323900e+003;5.871870e-003
2.325829e+003;4.871349e-003
2.327757e+003;4.161966e-003
2.329686e+003;3.375326e-003
2.331615e+003;2.701453e-003
2.333543e+003;2.686883e-003
2.335472e+003;2.733228e-003
2.337400e+003;2.754735e-003
2.339329e+003;2.926628e-003
2.341257e+003;3.484333e-003
2.343186e+003;4.637661e-003
2.345114e+003;6.197734e-003
2.347043e+003;8.113268e-003
2.348971e+003;9.125897e-003
2.350900e+003;7.835116e-003
2.352829e+003;5.675811e-003
2.354757e+003;3.763454e-003
2.356686e+003;2.046867e-003
2.358614e+003;5.643741e-004
2.360543e+003;-1.940890e-004
2.362471e+003;8.469886e-005
2.364400e+003;1.006386e-003
2.366328e+003;2.054857e-003
2.368257e+003;3.122952e-003
2.370186e+003;4.466529e-003
2.372114e+003;6.142045e-003
2.374042e+003;7.780061e-003
2.375971e+003;9.196487e-003
2.377900e+003;1.038533e-002
2.379828e+003;1.139586e-002
2.381757e+003;1.204001e-002
2.383685e+003;1.226132e-002
2.385614e+003;1.230355e-002
2.387542e+003;1.266917e-002
2.389471e+003;1.318191e-002
2.391399e+003;1.336830e-002
2.393328e+003;1.343850e-002
2.395257e+003;1.336133e-002
2.397185e+003;1.330595e-002
2.399114e+003;1.349578e-002
2.401042e+003;1.364575e-002
2.402971e+003;1.370255e-002
2.404899e+003;1.352463e-002
2.406828e+003;1.331859e-002
2.408756e+003;1.359901e-002
2.410685e+003;1.402236e-002
2.412614e+003;1.407014e-002
2.414542e+003;1.390315e-002
2.416471e+003;1.361204e-002
2.418399e+003;1.396316e-002
2.420328e+003;1.453952e-002
2.422256e+003;1.464708e-002
2.424185e+003;1.459571e-002
2.426113e+003;1.457159e-002
2.428042e+003;1.454418e-002
2.429970e+003;1.469540e-002
2.431899e+003;1.486646e-002
2.433828e+003;1.478648e-002
2.435756e+003;1.460990e-002
2.437685e+003;1.482978e-002
2.439613e+003;1.504518e-002
2.441542e+003;1.511989e-002
2.443470e+003;1.515365e-002
2.445399e+003;1.526452e-002
2.447327e+003;1.529957e-002
2.449256e+003;1.521905e-002
2.451185e+003;1.523233e-002
2.453113e+003;1.521710e-002
2.455042e+003;1.545366e-002
2.456970e+003;1.579003e-002
2.458899e+003;1.588326e-002
2.460827e+003;1.605978e-002
2.462756e+003;1.637910e-002
2.464684e+003;1.634683e-002
2.466613e+003;1.610039e-002
2.468542e+003;1.615915e-002
2.470470e+003;1.632075e-002
2.472398e+003;1.639555e-002
2.474327e+003;1.647177e-002
2.476256e+003;1.652667e-002
2.478184e+003;1.694303e-002
2.480113e+003;1.732531e-002
2.482041e+003;1.721429e-002
2.483970e+003;1.721660e-002
2.485898e+003;1.741062e-002
2.487827e+003;1.732113e-002
2.489755e+003;1.735193e-002
2.491684e+003;1.760712e-002
2.493613e+003;1.774057e-002
2.495541e+003;1.768580e-002
2.497470e+003;1.774257e-002
2.499398e+003;1.772445e-002
2.501327e+003;1.769467e-002
2.503255e+003;1.779580e-002
2.505184e+003;1.817855e-002
2.507112e+003;1.818881e-002
2.509041e+003;1.823010e-002
2.510969e+003;1.856406e-002
2.512898e+003;1.876129e-002
2.514827e+003;1.868435e-002
2.516755e+003;1.853571e-002
2.518684e+003;1.841995e-002
2.520612e+003;1.852935e-002
2.522541e+003;1.868992e-002
2.524469e+003;1.887800e-002
2.526398e+003;1.910487e-002
2.528326e+003;1.920619e-002
2.530255e+003;1.904539e-002
2.532184e+003;1.895965e-002
2.534112e+003;1.931907e-002
2.536041e+003;1.971655e-002
2.537969e+003;1.972113e-002
2.539898e+003;1.968410e-002
2.541826e+003;1.976923e-002
2.543755e+003;1.963785e-002
2.545683e+003;1.951768e-002
2.547612e+003;1.976024e-002
2.549541e+003;2.017941e-002
2.551469e+003;2.034730e-002
2.553397e+003;2.014730e-002
2.555326e+003;1.998556e-002
2.557255e+003;2.009514e-002
2.559183e+003;2.030785e-002
2.561112e+003;2.053359e-002
2.563040e+003;2.053953e-002
2.564969e+003;2.056611e-002
2.566897e+003;2.090128e-002
2.568826e+003;2.086373e-002
2.570754e+003;2.088084e-002
2.572683e+003;2.101745e-002
2.574612e+003;2.094811e-002
2.576540e+003;2.106357e-002
2.578469e+003;2.118132e-002
2.580397e+003;2.134117e-002
2.582326e+003;2.143460e-002
2.584254e+003;2.135047e-002
2.586183e+003;2.136891e-002
2.588111e+003;2.174103e-002
2.590040e+003;2.202224e-002
2.591969e+003;2.191350e-002
2.593897e+003;2.184085e-002
2.595826e+003;2.191322e-002
2.597754e+003;2.220344e-002
2.599683e+003;2.274251e-002
2.601611e+003;2.268836e-002
2.603540e+003;2.226523e-002
2.605468e+003;2.248505e-002
2.607397e+003;2.271929e-002
2.609325e+003;2.290685e-002
2.611254e+003;2.330791e-002
2.613183e+003;2.349384e-002
2.615111e+003;2.330389e-002
2.617040e+003;2.338385e-002
2.618968e+003;2.357128e-002
2.620897e+003;2.362002e-002
2.622825e+003;2.364528e-002
2.624754e+003;2.392086e-002
2.626682e+003;2.437157e-002
2.628611e+003;2.471362e-002
2.630540e+003;2.482008e-002
2.632468e+003;2.477630e-002
2.634396e+003;2.479517e-002
2.636325e+003;2.490513e-002
2.638254e+003;2.526330e-002
2.640182e+003;2.555741e-002
2.642111e+003;2.565217e-002
2.644039e+003;2.581821e-002
2.645968e+003;2.603171e-002
2.647896e+003;2.626094e-002
2.649825e+003;2.653498e-002
2.651753e+003;2.672293e-002
2.653682e+003;2.669851e-002
2.655611e+003;2.668276e-002
2.657539e+003;2.695858e-002
2.659468e+003;2.711314e-002
2.661396e+003;2.742672e-002
2.663325e+003;2.795889e-002
2.665253e+003;2.803646e-002
2.667182e+003;2.801946e-002
2.669110e+003;2.847445e-002
2.671039e+003;2.909024e-002
2.672968e+003;2.918492e-002
2.674896e+003;2.879642e-002
2.676825e+003;2.883940e-002
2.678753e+003;2.929624e-002
2.680682e+003;2.962807e-002
2.682610e+003;2.975963e-002
2.684539e+003;3.006160e-002
2.686467e+003;3.036171e-002
2.688396e+003;3.053472e-002
2.690324e+003;3.083261e-002
2.692253e+003;3.096620e-002
2.694182e+003;3.100904e-002
2.696110e+003;3.099844e-002
2.698039e+003;3.128001e-002
2.699967e+003;3.173084e-002
2.701896e+003;3.182912e-002
2.703824e+003;3.187519e-002
2.705753e+003;3.194861e-002
2.707681e+003;3.212012e-002
2.709610e+003;3.301026e-002
2.711539e+003;3.339453e-002
2.713467e+003;3.323919e-002
2.715396e+003;3.339890e-002
2.717324e+003;3.340562e-002
2.719253e+003;3.330755e-002
2.721181e+003;3.333310e-002
2.723110e+003;3.350837e-002
2.725038e+003;3.398294e-002
2.726967e+003;3.413776e-002
2.728896e+003;3.441216e-002
2.730824e+003;3.466799e-002
2.732752e+003;3.469423e-002
2.734681e+003;3.482208e-002
2.736610e+003;3.487343e-002
2.738538e+003;3.505097e-002
2.740467e+003;3.536473e-002
2.742395e+003;3.532616e-002
2.744324e+003;3.531006e-002
2.746252e+003;3.549516e-002
2.748181e+003;3.533806e-002
2.750109e+003;3.537027e-002
2.752038e+003;3.595348e-002
2.753967e+003;3.640771e-002
2.755895e+003;3.638555e-002
2.757824e+003;3.625406e-002
2.759752e+003;3.654937e-002
2.761681e+003;3.685156e-002
2.763609e+003;3.684185e-002
2.765538e+003;3.704103e-002
2.767466e+003;3.754072e-002
2.769395e+003;3.773067e-002
2.771323e+003;3.775460e-002
2.773252e+003;3.782273e-002
2.775181e+003;3.822587e-002
2.777109e+003;3.861769e-002
2.779038e+003;3.882631e-002
2.780966e+003;3.917693e-002
2.782895e+003;3.942412e-002
2.784823e+003;3.973394e-002
2.786752e+003;3.999678e-002
2.788680e+003;4.031210e-002
2.790609e+003;4.055147e-002
2.792538e+003;4.061262e-002
2.794466e+003;4.075410e-002
2.796395e+003;4.120128e-002
2.798323e+003;4.150854e-002
2.800252e+003;4.146691e-002
2.802180e+003;4.168062e-002
2.804109e+003;4.218444e-002
2.806037e+003;4.246255e-002
2.807966e+003;4.281718e-002
2.809895e+003;4.339979e-002
2.811823e+003;4.391510e-002
2.813751e+003;4.423419e-002
2.815680e+003;4.463430e-002
2.817609e+003;4.522977e-002
2.819537e+003;4.571622e-002
2.821466e+003;4.609780e-002
2.823394e+003;4.649959e-002
2.825323e+003;4.692265e-002
2.827251e+003;4.730104e-002
2.829180e+003;4.791456e-002
2.831108e+003;4.870406e-002
2.833037e+003;4.933850e-002
2.834966e+003;4.975925e-002
2.836894e+003;5.026029e-002
2.838823e+003;5.102288e-002
2.840751e+003;5.169535e-002
2.842680e+003;5.237471e-002
2.844608e+003;5.296789e-002
2.846537e+003;5.363151e-002
2.848465e+003;5.450607e-002
2.850394e+003;5.572315e-002
2.852323e+003;5.719723e-002
2.854251e+003;5.907771e-002
2.856180e+003;6.091395e-002
2.858108e+003;6.234157e-002
2.860037e+003;6.347601e-002
2.861965e+003;6.453992e-002
2.863894e+003;6.610312e-002
2.865822e+003;6.753890e-002
2.867751e+003;6.837885e-002
2.869679e+003;6.931564e-002
2.871608e+003;7.013384e-002
2.873536e+003;7.067230e-002
2.875465e+003;7.165083e-002
2.877394e+003;7.270454e-002
2.879322e+003;7.366206e-002
2.881251e+003;7.434444e-002
2.883179e+003;7.455321e-002
2.885108e+003;7.483217e-002
2.887036e+003;7.509398e-002
2.888965e+003;7.526232e-002
2.890893e+003;7.548296e-002
2.892822e+003;7.544488e-002
2.894750e+003;7.560054e-002
2.896679e+003;7.587024e-002
2.898608e+003;7.580269e-002
2.900536e+003;7.561182e-002
2.902465e+003;7.534319e-002
2.904393e+003;7.506342e-002
2.906322e+003;7.454758e-002
2.908250e+003;7.365716e-002
2.910179e+003;7.274011e-002
2.912107e+003;7.165204e-002
2.914036e+003;7.036825e-002
2.915965e+003;6.927452e-002
2.917893e+003;6.834864e-002
2.919822e+003;6.808388e-002
2.921750e+003;6.809950e-002
2.923679e+003;6.806880e-002
2.925607e+003;6.811427e-002
2.927536e+003;6.790664e-002
2.929464e+003;6.775429e-002
2.931393e+003;6.783218e-002
2.933322e+003;6.763835e-002
2.935250e+003;6.694725e-002
2.937178e+003;6.645701e-002
2.939107e+003;6.612715e-002
2.941036e+003;6.549773e-002
2.942964e+003;6.426126e-002
2.944893e+003;6.281117e-002
2.946821e+003;6.156543e-002
2.948750e+003;5.977416e-002
2.950678e+003;5.834733e-002
2.952607e+003;5.772919e-002
2.954535e+003;5.712553e-002
2.956464e+003;5.583553e-002
2.958393e+003;5.428394e-002
2.960321e+003;5.327120e-002
2.962250e+003;5.294158e-002
2.964178e+003;5.248129e-002
2.966107e+003;5.150233e-002
2.968035e+003;5.084404e-002
2.969964e+003;5.051392e-002
2.971892e+003;5.006961e-002
2.973821e+003;4.971410e-002
2.975750e+003;4.896186e-002
2.977678e+003;4.776345e-002
2.979607e+003;4.686255e-002
2.981535e+003;4.629412e-002
2.983464e+003;4.554133e-002
2.985392e+003;4.487415e-002
2.987321e+003;4.426578e-002
2.989249e+003;4.373265e-002
2.991178e+003;4.365556e-002
2.993106e+003;4.336888e-002
2.995035e+003;4.276379e-002
2.996964e+003;4.271922e-002
2.998892e+003;4.282244e-002
3.000821e+003;4.257111e-002
3.002749e+003;4.224798e-002
3.004678e+003;4.186648e-002
3.006606e+003;4.208575e-002
3.008535e+003;4.271374e-002
3.010463e+003;4.305141e-002
3.012392e+003;4.311270e-002
3.014321e+003;4.321645e-002
3.016249e+003;4.309210e-002
3.018177e+003;4.288447e-002
3.020106e+003;4.306173e-002
3.022035e+003;4.325012e-002
3.023963e+003;4.337346e-002
3.025892e+003;4.359580e-002
3.027820e+003;4.390498e-002
3.029749e+003;4.423999e-002
3.031677e+003;4.455540e-002
3.033606e+003;4.499854e-002
3.035534e+003;4.544780e-002
3.037463e+003;4.593001e-002
3.039392e+003;4.630060e-002
3.041320e+003;4.655546e-002
3.043249e+003;4.638554e-002
3.045177e+003;4.660784e-002
3.047106e+003;4.726550e-002
3.049034e+003;4.800370e-002
3.050963e+003;4.846753e-002
3.052891e+003;4.858980e-002
3.054820e+003;4.916363e-002
3.056749e+003;4.984668e-002
3.058677e+003;5.006437e-002
3.060606e+003;5.052951e-002
3.062534e+003;5.109540e-002
3.064463e+003;5.150091e-002
3.066391e+003;5.221654e-002
3.068320e+003;5.252137e-002
3.070248e+003;5.274471e-002
3.072177e+003;5.330615e-002
3.074105e+003;5.367125e-002
3.076034e+003;5.402648e-002
3.077963e+003;5.453947e-002
3.079891e+003;5.544700e-002
3.081820e+003;5.605643e-002
3.083748e+003;5.624685e-002
3.085677e+003;5.660224e-002
3.087605e+003;5.700885e-002
3.089534e+003;5.741701e-002
3.091462e+003;5.818542e-002
3.093391e+003;5.919158e-002
3.095320e+003;5.963771e-002
3.097248e+003;5.937772e-002
3.099177e+003;5.937685e-002
3.101105e+003;6.047263e-002
3.103034e+003;6.182009e-002
3.104962e+003;6.270126e-002
3.106891e+003;6.340193e-002
3.108819e+003;6.372443e-002
3.110748e+003;6.367305e-002
3.112677e+003;6.384842e-002
3.114605e+003;6.436507e-002
3.116533e+003;6.508911e-002
3.118462e+003;6.555661e-002
3.120391e+003;6.635486e-002
3.122319e+003;6.724469e-002
3.124248e+003;6.752179e-002
3.126176e+003;6.766302e-002
3.128105e+003;6.821323e-002
3.130033e+003;6.894752e-002
3.131962e+003;6.966933e-002
3.133890e+003;7.042865e-002
3.135819e+003;7.082006e-002
3.137748e+003;7.105464e-002
3.139676e+003;7.204507e-002
3.141605e+003;7.295625e-002
3.143533e+003;7.326537e-002
3.145462e+003;7.350489e-002
3.147390e+003;7.389599e-002
3.149319e+003;7.448755e-002
3.151247e+003;7.529582e-002
3.153176e+003;7.555409e-002
3.155104e+003;7.566423e-002
3.157033e+003;7.676360e-002
3.158962e+003;7.794452e-002
3.160890e+003;7.792367e-002
3.162819e+003;7.793877e-002
3.164747e+003;7.835047e-002
3.166676e+003;7.880673e-002
3.168604e+003;7.985988e-002
3.170533e+003;8.087884e-002
3.172461e+003;8.168518e-002
3.174390e+003;8.247824e-002
3.176319e+003;8.331831e-002
3.178247e+003;8.382985e-002
3.180176e+003;8.365153e-002
3.182104e+003;8.381563e-002
3.184033e+003;8.428981e-002
3.185961e+003;8.512671e-002
3.187890e+003;8.603860e-002
3.189818e+003;8.652623e-002
3.191747e+003;8.687819e-002
3.193676e+003;8.755942e-002
3.195604e+003;8.804121e-002
3.197532e+003;8.844098e-002
3.199461e+003;8.936093e-002
3.201390e+003;9.008464e-002
3.203318e+003;9.043983e-002
3.205247e+003;9.115385e-002
3.207175e+003;9.181959e-002
3.209104e+003;9.210271e-002
3.211032e+003;9.251355e-002
3.212961e+003;9.280975e-002
3.214889e+003;9.334455e-002
3.216818e+003;9.439687e-002
3.218747e+003;9.516710e-002
3.220675e+003;9.536516e-002
3.222604e+003;9.567860e-002
3.224532e+003;9.600602e-002
3.226461e+003;9.640092e-002
3.228389e+003;9.698565e-002
3.230318e+003;9.745209e-002
3.232246e+003;9.788616e-002
3.234175e+003;9.894132e-002
3.236104e+003;9.944749e-002
3.238032e+003;9.924764e-002
3.239961e+003;9.978064e-002
3.241889e+003;1.004552e-001
3.243818e+003;1.008870e-001
3.245746e+003;1.011648e-001
3.247675e+003;1.017459e-001
3.249603e+003;1.026546e-001
3.251532e+003;1.035480e-001
3.253460e+003;1.039421e-001
3.255389e+003;1.040967e-001
3.257318e+003;1.044840e-001
3.259246e+003;1.048847e-001
3.261175e+003;1.052766e-001
3.263103e+003;1.057972e-001
3.265032e+003;1.057997e-001
3.266960e+003;1.060571e-001
3.268889e+003;1.067365e-001
3.270817e+003;1.073769e-001
3.272746e+003;1.075146e-001
3.274675e+003;1.070279e-001
3.276603e+003;1.068858e-001
3.278531e+003;1.074235e-001
3.280460e+003;1.080439e-001
3.282389e+003;1.084553e-001
3.284317e+003;1.086245e-001
3.286246e+003;1.090123e-001
3.288174e+003;1.089161e-001
3.290103e+003;1.085790e-001
3.292031e+003;1.091860e-001
3.293960e+003;1.100249e-001
3.295888e+003;1.100470e-001
3.297817e+003;1.099739e-001
3.299746e+003;1.103168e-001
3.301674e+003;1.106271e-001
3.303603e+003;1.105077e-001
3.305531e+003;1.101732e-001
3.307460e+003;1.102986e-001
3.309388e+003;1.107644e-001
3.311317e+003;1.111167e-001
3.313245e+003;1.115756e-001
3.315174e+003;1.118165e-001
3.317103e+003;1.118681e-001
3.319031e+003;1.124449e-001
3.320960e+003;1.128059e-001
3.322888e+003;1.126187e-001
3.324817e+003;1.129168e-001
3.326745e+003;1.125301e-001
3.328674e+003;1.124241e-001
3.330602e+003;1.126898e-001
3.332531e+003;1.122086e-001
3.334459e+003;1.120675e-001
3.336388e+003;1.126782e-001
3.338317e+003;1.125672e-001
3.340245e+003;1.122690e-001
3.342174e+003;1.122629e-001
3.344102e+003;1.121603e-001
3.346031e+003;1.115702e-001
3.347959e+003;1.107926e-001
3.349888e+003;1.107561e-001
3.351816e+003;1.110153e-001
3.353745e+003;1.114033e-001
3.355674e+003;1.115777e-001
3.357602e+003;1.110440e-001
3.359531e+003;1.103007e-001
3.361459e+003;1.104799e-001
3.363388e+003;1.104256e-001
3.365316e+003;1.101848e-001
3.367245e+003;1.103899e-001
3.369173e+003;1.100763e-001
3.371102e+003;1.095914e-001
3.373031e+003;1.092104e-001
3.374959e+003;1.091627e-001
3.376887e+003;1.093725e-001
3.378816e+003;1.094202e-001
3.380745e+003;1.089912e-001
3.382673e+003;1.083421e-001
3.384602e+003;1.083329e-001
3.386530e+003;1.089418e-001
3.388459e+003;1.088122e-001
3.390387e+003;1.081274e-001
3.392316e+003;1.076118e-001
3.394244e+003;1.077040e-001
3.396173e+003;1.075552e-001
3.398102e+003;1.073052e-001
3.400030e+003;1.071645e-001
3.401959e+003;1.068905e-001
3.403887e+003;1.061863e-001
3.405816e+003;1.061176e-001
3.407744e+003;1.058259e-001
3.409673e+003;1.050945e-001
3.411601e+003;1.046143e-001
3.413530e+003;1.046531e-001
3.415458e+003;1.046434e-001
3.417387e+003;1.041001e-001
3.419316e+003;1.032074e-001
3.421244e+003;1.022983e-001
3.423173e+003;1.016001e-001
3.425101e+003;1.012417e-001
3.427030e+003;1.012130e-001
3.428958e+003;1.011012e-001
3.430887e+003;1.005632e-001
3.432815e+003;9.949481e-002
3.434744e+003;9.886081e-002
3.436673e+003;9.882898e-002
3.438601e+003;9.848557e-002
3.440530e+003;9.812225e-002
3.442458e+003;9.717703e-002
3.444387e+003;9.622522e-002
3.446315e+003;9.612470e-002
3.448244e+003;9.607302e-002
3.450172e+003;9.581359e-002
3.452101e+003;9.523918e-002
3.454030e+003;9.425665e-002
3.455958e+003;9.343415e-002
3.457886e+003;9.281443e-002
3.459815e+003;9.238335e-002
3.461744e+003;9.193918e-002
3.463672e+003;9.110349e-002
3.465601e+003;9.044823e-002
3.467529e+003;9.000245e-002
3.469458e+003;8.920047e-002
3.471386e+003;8.868752e-002
3.473315e+003;8.853905e-002
3.475243e+003;8.776202e-002
3.477172e+003;8.634607e-002
3.479101e+003;8.582344e-002
3.481029e+003;8.573051e-002
3.482958e+003;8.517931e-002
3.484886e+003;8.375812e-002
3.486815e+003;8.258610e-002
3.488743e+003;8.199902e-002
3.490672e+003;8.143175e-002
3.492600e+003;8.048655e-002
3.494529e+003;7.936004e-002
3.496458e+003;7.906483e-002
3.498386e+003;7.853810e-002
3.500315e+003;7.746046e-002
3.502243e+003;7.656685e-002
3.504172e+003;7.572687e-002
3.506100e+003;7.486843e-002
3.508029e+003;7.436674e-002
3.509957e+003;7.362779e-002
3.511886e+003;7.287262e-002
3.513814e+003;7.155631e-002
3.515743e+003;7.035800e-002
3.517672e+003;7.015078e-002
3.519600e+003;6.968426e-002
3.521529e+003;6.834228e-002
3.523457e+003;6.720203e-002
3.525386e+003;6.683779e-002
3.527314e+003;6.631321e-002
3.529243e+003;6.517530e-002
3.531171e+003;6.442083e-002
3.533100e+003;6.319370e-002
3.535029e+003;6.189257e-002
3.536957e+003;6.127021e-002
3.538885e+003;6.025603e-002
3.540814e+003;5.902605e-002
3.542743e+003;5.789771e-002
3.544671e+003;5.671648e-002
3.546600e+003;5.600512e-002
3.548528e+003;5.557667e-002
3.550457e+003;5.462709e-002
3.552385e+003;5.332297e-002
3.554314e+003;5.239855e-002
3.556242e+003;5.182720e-002
3.558171e+003;5.103078e-002
3.560100e+003;4.981428e-002
3.562028e+003;4.854270e-002
3.563957e+003;4.709581e-002
3.565885e+003;4.545321e-002
3.567814e+003;4.430757e-002
3.569742e+003;4.393563e-002
3.571671e+003;4.332583e-002
3.573599e+003;4.236222e-002
3.575528e+003;4.117844e-002
3.577457e+003;4.002697e-002
3.579385e+003;3.930045e-002
3.581314e+003;3.896905e-002
3.583242e+003;3.812588e-002
3.585171e+003;3.639027e-002
3.587099e+003;3.511628e-002
3.589028e+003;3.467233e-002
3.590956e+003;3.406328e-002
3.592885e+003;3.313050e-002
3.594813e+003;3.215876e-002
3.596742e+003;3.097449e-002
3.598671e+003;3.035606e-002
3.600599e+003;2.975001e-002
3.602528e+003;2.889606e-002
3.604456e+003;2.799660e-002
3.606385e+003;2.682298e-002
3.608313e+003;2.541813e-002
3.610242e+003;2.509511e-002
3.612170e+003;2.476066e-002
3.614099e+003;2.443715e-002
3.616028e+003;2.381808e-002
3.617956e+003;2.223608e-002
3.619885e+003;2.130585e-002
3.621813e+003;2.164100e-002
3.623742e+003;2.176117e-002
3.625670e+003;2.075726e-002
3.627599e+003;1.760256e-002
3.629527e+003;1.693676e-002
3.631456e+003;1.871843e-002
3.633385e+003;1.892510e-002
3.635313e+003;1.862663e-002
3.637241e+003;1.835110e-002
3.639170e+003;1.798881e-002
3.641099e+003;1.787997e-002
3.643027e+003;1.747102e-002
3.644956e+003;1.617628e-002
3.646884e+003;1.429862e-002
3.648813e+003;1.295484e-002
3.650741e+003;1.366411e-002
3.652670e+003;1.519713e-002
3.654598e+003;1.459249e-002
3.656527e+003;1.395061e-002
3.658456e+003;1.471072e-002
3.660384e+003;1.487092e-002
3.662313e+003;1.452448e-002
3.664241e+003;1.436807e-002
3.666170e+003;1.399913e-002
3.668098e+003;1.190165e-002
3.670027e+003;9.892827e-003
3.671955e+003;1.057300e-002
3.673884e+003;9.401693e-003
3.675813e+003;8.126231e-003
3.677741e+003;1.063398e-002
3.679669e+003;1.271342e-002
3.681598e+003;1.326260e-002
3.683527e+003;1.313021e-002
3.685455e+003;1.245246e-002
3.687384e+003;1.016697e-002
3.689312e+003;9.483098e-003
3.691241e+003;1.084388e-002
3.693169e+003;1.210634e-002
3.695098e+003;1.195529e-002
3.697026e+003;1.186692e-002
3.698955e+003;1.184506e-002
3.700884e+003;1.137930e-002
3.702812e+003;1.135607e-002
3.704741e+003;1.210933e-002
3.706669e+003;1.224731e-002
3.708598e+003;1.131403e-002
3.710526e+003;1.000308e-002
3.712455e+003;9.859032e-003
3.714383e+003;1.117706e-002
3.716312e+003;1.175688e-002
3.718240e+003;1.213335e-002
3.720169e+003;1.210807e-002
3.722098e+003;1.164853e-002
3.724026e+003;1.146373e-002
3.725955e+003;1.130957e-002
3.727883e+003;1.156070e-002
3.729812e+003;1.159217e-002
3.731740e+003;1.048623e-002
3.733669e+003;9.434335e-003
3.735597e+003;8.707695e-003
3.737526e+003;1.018570e-002
3.739455e+003;1.109347e-002
3.741383e+003;1.010728e-002
3.743312e+003;6.856322e-003
3.745240e+003;7.212066e-003
3.747169e+003;9.016546e-003
3.749097e+003;7.481559e-003
3.751026e+003;6.503291e-003
3.752954e+003;8.088624e-003
3.754883e+003;1.110279e-002
3.756812e+003;1.138134e-002
3.758740e+003;1.078124e-002
3.760668e+003;1.122473e-002
3.762597e+003;1.166698e-002
3.764526e+003;1.125085e-002
3.766454e+003;1.113471e-002
3.768383e+003;1.067429e-002
3.770311e+003;1.093836e-002
3.772240e+003;1.187254e-002
3.774168e+003;1.217544e-002
3.776097e+003;1.168822e-002
3.778025e+003;1.104524e-002
3.779954e+003;1.139069e-002
3.781883e+003;1.257441e-002
3.783811e+003;1.275594e-002
3.785740e+003;1.236576e-002
3.787668e+003;1.193121e-002
3.789597e+003;1.181639e-002
3.791525e+003;1.222976e-002
3.793454e+003;1.229915e-002
3.795382e+003;1.168880e-002
3.797311e+003;1.122902e-002
3.799240e+003;9.728556e-003
3.801168e+003;8.797931e-003
3.803097e+003;1.094479e-002
3.805025e+003;1.164472e-002
3.806954e+003;1.113481e-002
3.808882e+003;1.246378e-002
3.810811e+003;1.315363e-002
3.812739e+003;1.265795e-002
3.814668e+003;1.047924e-002
3.816596e+003;1.005445e-002
3.818525e+003;1.107692e-002
3.820454e+003;1.049221e-002
3.822382e+003;1.126788e-002
3.824311e+003;1.226772e-002
3.826239e+003;1.199010e-002
3.828168e+003;1.244980e-002
3.830096e+003;1.241499e-002
3.832025e+003;1.193758e-002
3.833953e+003;1.131593e-002
3.835882e+003;9.828698e-003
3.837811e+003;9.815649e-003
3.839739e+003;1.169138e-002
3.841667e+003;1.216685e-002
3.843596e+003;1.220007e-002
3.845525e+003;1.292371e-002
3.847453e+003;1.314838e-002
3.849382e+003;1.205680e-002
3.851310e+003;9.012961e-003
3.853239e+003;6.603768e-003
3.855167e+003;8.952242e-003
3.857096e+003;1.196439e-002
3.859024e+003;1.252267e-002
3.860953e+003;1.261251e-002
3.862882e+003;1.233971e-002
3.864810e+003;1.181601e-002
3.866739e+003;1.247705e-002
3.868667e+003;1.164486e-002
3.870596e+003;1.151541e-002
3.872524e+003;1.279914e-002
3.874453e+003;1.378131e-002
3.876381e+003;1.428163e-002
3.878310e+003;1.338160e-002
3.880239e+003;1.287388e-002
3.882167e+003;1.353984e-002
3.884096e+003;1.306338e-002
3.886024e+003;1.258454e-002
3.887953e+003;1.333707e-002
3.889881e+003;1.251490e-002
3.891810e+003;1.253267e-002
3.893738e+003;1.383870e-002
3.895667e+003;1.411669e-002
3.897595e+003;1.333103e-002
3.899524e+003;1.265239e-002
3.901453e+003;1.272976e-002
3.903381e+003;1.279760e-002
3.905310e+003;1.323660e-002
3.907238e+003;1.433591e-002
3.909167e+003;1.509619e-002
3.911095e+003;1.523134e-002
3.913024e+003;1.497390e-002
3.914952e+003;1.470425e-002
3.916881e+003;1.470826e-002
3.918810e+003;1.489071e-002
3.920738e+003;1.481343e-002
3.922667e+003;1.447000e-002
3.924595e+003;1.404461e-002
3.926524e+003;1.432005e-002
3.928452e+003;1.458087e-002
3.930381e+003;1.439650e-002
3.932309e+003;1.437865e-002
3.934238e+003;1.452420e-002
3.936167e+003;1.514648e-002
3.938095e+003;1.538905e-002
3.940023e+003;1.529346e-002
3.941952e+003;1.523292e-002
3.943881e+003;1.460811e-002
3.945809e+003;1.465561e-002
3.947738e+003;1.527310e-002
3.949666e+003;1.560840e-002
3.951595e+003;1.591468e-002
3.953523e+003;1.598188e-002
3.955452e+003;1.524520e-002
3.957380e+003;1.494643e-002
3.959309e+003;1.520070e-002
3.961238e+003;1.560188e-002
3.963166e+003;1.549394e-002
3.965095e+003;1.535905e-002
3.967023e+003;1.527636e-002
3.968952e+003;1.570524e-002
3.970880e+003;1.591248e-002
3.972809e+003;1.555558e-002
3.974737e+003;1.476598e-002
3.976666e+003;1.480160e-002
3.978594e+003;1.575773e-002
3.980523e+003;1.624053e-002
3.982452e+003;1.602502e-002
3.984380e+003;1.585511e-002
3.986309e+003;1.600216e-002
3.988237e+003;1.619551e-002
3.990166e+003;1.582419e-002
3.992094e+003;1.546297e-002
3.994023e+003;1.602127e-002
3.995951e+003;1.633468e-002
3.997880e+003;1.614151e-002
3.999809e+003;1.601842e-002
4.001737e+003;0.000000e+000
