3.992094e+002;0.000000e+000
4.011380e+002;0.000000e+000
4.030665e+002;0.000000e+000
4.049951e+002;0.000000e+000
4.069236e+002;0.000000e+000
4.088522e+002;0.000000e+000
4.107807e+002;0.000000e+000
4.127093e+002;0.000000e+000
4.146378e+002;0.000000e+000
4.165664e+002;0.000000e+000
4.184949e+002;0.000000e+000
4.204235e+002;0.000000e+000
4.223520e+002;0.000000e+000
4.242806e+002;0.000000e+000
4.262091e+002;0.000000e+000
4.281377e+002;0.000000e+000
4.300662e+002;0.000000e+000
4.319948e+002;0.000000e+000
4.339233e+002;0.000000e+000
4.358519e+002;0.000000e+000
4.377804e+002;0.000000e+000
4.397090e+002;0.000000e+000
4.416375e+002;0.000000e+000
4.435660e+002;0.000000e+000
4.454946e+002;0.000000e+000
4.474232e+002;0.000000e+000
4.493517e+002;0.000000e+000
4.512802e+002;0.000000e+000
4.532088e+002;0.000000e+000
4.551373e+002;0.000000e+000
4.570659e+002;0.000000e+000
4.589944e+002;0.000000e+000
4.609230e+002;0.000000e+000
4.628515e+002;0.000000e+000
4.647801e+002;0.000000e+000
4.667086e+002;0.000000e+000
4.686372e+002;0.000000e+000
4.705657e+002;0.000000e+000
4.724943e+002;0.000000e+000
4.744228e+002;0.000000e+000
4.763513e+002;0.000000e+000
4.782799e+002;0.000000e+000
4.802085e+002;0.000000e+000
4.821370e+002;0.000000e+000
4.840656e+002;0.000000e+000
4.859941e+002;0.000000e+000
4.879226e+002;0.000000e+000
4.898512e+002;0.000000e+000
4.917798e+002;0.000000e+000
4.937083e+002;0.000000e+000
4.956368e+002;0.000000e+000
4.975654e+002;0.000000e+000
4.994939e+002;0.000000e+000
5.014225e+002;0.000000e+000
5.033510e+002;0.000000e+000
5.052796e+002;0.000000e+000
5.072081e+002;0.000000e+000
5.091367e+002;0.000000e+000
5.110652e+002;0.000000e+000
5.129938e+002;0.000000e+000
5.149223e+002;0.000000e+000
5.168509e+002;0.000000e+000
5.187794e+002;0.000000e+000
5.207079e+002;0.000000e+000
5.226365e+002;0.000000e+000
5.245651e+002;0.000000e+000
5.264936e+002;0.000000e+000
5.284222e+002;0.000000e+000
5.303507e+002;0.000000e+000
5.322792e+002;0.000000e+000
5.342078e+002;0.000000e+000
5.361364e+002;0.000000e+000
5.380649e+002;0.000000e+000
5.399935e+002;0.000000e+000
5.419220e+002;0.000000e+000
5.438505e+002;0.000000e+000
5.457791e+002;0.000000e+000
5.477076e+002;0.000000e+000
5.496362e+002;0.000000e+000
5.515648e+002;0.000000e+000
5.534933e+002;0.000000e+000
5.554218e+002;0.000000e+000
5.573504e+002;0.000000e+000
5.592789e+002;0.000000e+000
5.612075e+002;0.000000e+000
5.631360e+002;0.000000e+000
5.650646e+002;0.000000e+000
5.669931e+002;0.000000e+000
5.689217e+002;0.000000e+000
5.708502e+002;0.000000e+000
5.727787e+002;0.000000e+000
5.747073e+002;0.000000e+000
5.766359e+002;0.000000e+000
5.785644e+002;0.000000e+000
5.804930e+002;0.000000e+000
5.824215e+002;0.000000e+000
5.843500e+002;0.000000e+000
5.862786e+002;0.000000e+000
5.882072e+002;0.000000e+000
5.901357e+002;0.000000e+000
5.920643e+002;0.000000e+000
5.939928e+002;0.000000e+000
5.959213e+002;0.000000e+000
5.978499e+002;0.000000e+000
5.997784e+002;2.544610e-001
6.017070e+002;2.611146e-001
6.036355e+002;2.761030e-001
6.055641e+002;2.775981e-001
6.074926e+002;2.742374e-001
6.094211e+002;2.692620e-001
6.113497e+002;2.661192e-001
6.132783e+002;2.638063e-001
6.152068e+002;2.620298e-001
6.171354e+002;2.609625e-001
6.190639e+002;2.584568e-001
6.209924e+002;2.522453e-001
6.229210e+002;2.463844e-001
6.248495e+002;2.472154e-001
6.267781e+002;2.495780e-001
6.287067e+002;2.467466e-001
6.306352e+002;2.463756e-001
6.325637e+002;2.428598e-001
6.344923e+002;2.362586e-001
6.364208e+002;2.349269e-001
6.383494e+002;2.334000e-001
6.402780e+002;2.299854e-001
6.422065e+002;2.268127e-001
6.441350e+002;2.255064e-001
6.460636e+002;2.258955e-001
6.479921e+002;2.299347e-001
6.499207e+002;2.328326e-001
6.518492e+002;2.317656e-001
6.537778e+002;2.305059e-001
6.557063e+002;2.321933e-001
6.576349e+002;2.371499e-001
6.595634e+002;2.425224e-001
6.614919e+002;2.442353e-001
6.634205e+002;2.403765e-001
6.653491e+002;2.342738e-001
6.672776e+002;2.304635e-001
6.692062e+002;2.309165e-001
6.711347e+002;2.340394e-001
6.730632e+002;2.329804e-001
6.749918e+002;2.259018e-001
6.769203e+002;2.188083e-001
6.788489e+002;2.152054e-001
6.807775e+002;2.107110e-001
6.827060e+002;2.065449e-001
6.846345e+002;2.047099e-001
6.865631e+002;2.050272e-001
6.884916e+002;2.050166e-001
6.904202e+002;2.038488e-001
6.923488e+002;2.028157e-001
6.942773e+002;2.027345e-001
6.962058e+002;2.021011e-001
6.981344e+002;2.017116e-001
7.000629e+002;2.007959e-001
7.019915e+002;1.996351e-001
7.039200e+002;1.992021e-001
7.058486e+002;1.978042e-001
7.077771e+002;1.957037e-001
7.097057e+002;1.949224e-001
7.116342e+002;1.938383e-001
7.135627e+002;1.908362e-001
7.154913e+002;1.883603e-001
7.174199e+002;1.857422e-001
7.193484e+002;1.820717e-001
7.212770e+002;1.787269e-001
7.232055e+002;1.750822e-001
7.251340e+002;1.717159e-001
7.270626e+002;1.692950e-001
7.289911e+002;1.664828e-001
7.309197e+002;1.635412e-001
7.328483e+002;1.604452e-001
7.347768e+002;1.569349e-001
7.367053e+002;1.556175e-001
7.386339e+002;1.551070e-001
7.405624e+002;1.546682e-001
7.424910e+002;1.535179e-001
7.444196e+002;1.518852e-001
7.463481e+002;1.510421e-001
7.482766e+002;1.495251e-001
7.502052e+002;1.471130e-001
7.521337e+002;1.443035e-001
7.540623e+002;1.425933e-001
7.559908e+002;1.427017e-001
7.579194e+002;1.423206e-001
7.598479e+002;1.405629e-001
7.617765e+002;1.383902e-001
7.637050e+002;1.371208e-001
7.656335e+002;1.373711e-001
7.675621e+002;1.370679e-001
7.694907e+002;1.349119e-001
7.714192e+002;1.336921e-001
7.733478e+002;1.332472e-001
7.752763e+002;1.316193e-001
7.772048e+002;1.303118e-001
7.791334e+002;1.296744e-001
7.810620e+002;1.290020e-001
7.829905e+002;1.285540e-001
7.849191e+002;1.285155e-001
7.868476e+002;1.276523e-001
7.887761e+002;1.270303e-001
7.907047e+002;1.264305e-001
7.926332e+002;1.257698e-001
7.945618e+002;1.248835e-001
7.964903e+002;1.238782e-001
7.984189e+002;1.231736e-001
8.003474e+002;1.224135e-001
8.022759e+002;1.218797e-001
8.042045e+002;1.219916e-001
8.061331e+002;1.226212e-001
8.080616e+002;1.227725e-001
8.099902e+002;1.220948e-001
8.119187e+002;1.216381e-001
8.138472e+002;1.211965e-001
8.157758e+002;1.214637e-001
8.177043e+002;1.216947e-001
8.196329e+002;1.217700e-001
8.215615e+002;1.219825e-001
8.234900e+002;1.217586e-001
8.254185e+002;1.220030e-001
8.273471e+002;1.222107e-001
8.292756e+002;1.213979e-001
8.312042e+002;1.216425e-001
8.331328e+002;1.225560e-001
8.350613e+002;1.222733e-001
8.369898e+002;1.219157e-001
8.389184e+002;1.218400e-001
8.408469e+002;1.208440e-001
8.427755e+002;1.208149e-001
8.447040e+002;1.211814e-001
8.466326e+002;1.208642e-001
8.485611e+002;1.205250e-001
8.504897e+002;1.211703e-001
8.524182e+002;1.211556e-001
8.543467e+002;1.208929e-001
8.562753e+002;1.213703e-001
8.582039e+002;1.224838e-001
8.601324e+002;1.231857e-001
8.620610e+002;1.237510e-001
8.639895e+002;1.246358e-001
8.659180e+002;1.265940e-001
8.678466e+002;1.285432e-001
8.697751e+002;1.300228e-001
8.717037e+002;1.323336e-001
8.736323e+002;1.356503e-001
8.755608e+002;1.399831e-001
8.774893e+002;1.434916e-001
8.794179e+002;1.461960e-001
8.813464e+002;1.493060e-001
8.832750e+002;1.525187e-001
8.852036e+002;1.562373e-001
8.871321e+002;1.605205e-001
8.890606e+002;1.649718e-001
8.909892e+002;1.688749e-001
8.929177e+002;1.719760e-001
8.948463e+002;1.747314e-001
8.967748e+002;1.757916e-001
8.987034e+002;1.758660e-001
9.006319e+002;1.755484e-001
9.025605e+002;1.744573e-001
9.044890e+002;1.731608e-001
9.064175e+002;1.708298e-001
9.083461e+002;1.686198e-001
9.102747e+002;1.669190e-001
9.122032e+002;1.648137e-001
9.141318e+002;1.626927e-001
9.160603e+002;1.611905e-001
9.179888e+002;1.606907e-001
9.199174e+002;1.605064e-001
9.218459e+002;1.610570e-001
9.237745e+002;1.626034e-001
9.257031e+002;1.640842e-001
9.276316e+002;1.652942e-001
9.295601e+002;1.664993e-001
9.314887e+002;1.679608e-001
9.334172e+002;1.696390e-001
9.353458e+002;1.715633e-001
9.372744e+002;1.733465e-001
9.392029e+002;1.748943e-001
9.411314e+002;1.775892e-001
9.430600e+002;1.804131e-001
9.449885e+002;1.832322e-001
9.469171e+002;1.868861e-001
9.488456e+002;1.906123e-001
9.507742e+002;1.950288e-001
9.527027e+002;1.998012e-001
9.546313e+002;2.043837e-001
9.565598e+002;2.099392e-001
9.584883e+002;2.158274e-001
9.604169e+002;2.217471e-001
9.623455e+002;2.277787e-001
9.642740e+002;2.341301e-001
9.662026e+002;2.411657e-001
9.681311e+002;2.484806e-001
9.700596e+002;2.568737e-001
9.719882e+002;2.667298e-001
9.739167e+002;2.780546e-001
9.758453e+002;2.903765e-001
9.777739e+002;3.036698e-001
9.797024e+002;3.187166e-001
9.816309e+002;3.337781e-001
9.835595e+002;3.463275e-001
9.854880e+002;3.550131e-001
9.874166e+002;3.609176e-001
9.893452e+002;3.656398e-001
9.912737e+002;3.703220e-001
9.932022e+002;3.751929e-001
9.951307e+002;3.802654e-001
9.970593e+002;3.851941e-001
9.989879e+002;3.903235e-001
1.000916e+003;3.939151e-001
1.002845e+003;3.964542e-001
1.004773e+003;3.989087e-001
1.006702e+003;4.009508e-001
1.008631e+003;4.035076e-001
1.010559e+003;4.070753e-001
1.012488e+003;4.113859e-001
1.014416e+003;4.162086e-001
1.016345e+003;4.204602e-001
1.018273e+003;4.242063e-001
1.020202e+003;4.284093e-001
1.022130e+003;4.322402e-001
1.024059e+003;4.359026e-001
1.025988e+003;4.396766e-001
1.027916e+003;4.419466e-001
1.029845e+003;4.439472e-001
1.031773e+003;4.449847e-001
1.033702e+003;4.421953e-001
1.035630e+003;4.363969e-001
1.037559e+003;4.296477e-001
1.039487e+003;4.237351e-001
1.041416e+003;4.182480e-001
1.043344e+003;4.136124e-001
1.045273e+003;4.112968e-001
1.047202e+003;4.116865e-001
1.049130e+003;4.130762e-001
1.051059e+003;4.153207e-001
1.052987e+003;4.167604e-001
1.054916e+003;4.152392e-001
1.056844e+003;4.112125e-001
1.058773e+003;4.038348e-001
1.060701e+003;3.937314e-001
1.062630e+003;3.805772e-001
1.064558e+003;3.642304e-001
1.066487e+003;3.478297e-001
1.068416e+003;3.335837e-001
1.070344e+003;3.212290e-001
1.072273e+003;3.111203e-001
1.074201e+003;3.022413e-001
1.076130e+003;2.948978e-001
1.078058e+003;2.888771e-001
1.079987e+003;2.825565e-001
1.081915e+003;2.769001e-001
1.083844e+003;2.729862e-001
1.085773e+003;2.705370e-001
1.087701e+003;2.678216e-001
1.089630e+003;2.666668e-001
1.091558e+003;2.658671e-001
1.093487e+003;2.653605e-001
1.095415e+003;2.651996e-001
1.097344e+003;2.645993e-001
1.099272e+003;2.643192e-001
1.101201e+003;2.643211e-001
1.103129e+003;2.639555e-001
1.105058e+003;2.619768e-001
1.106987e+003;2.590617e-001
1.108915e+003;2.553532e-001
1.110844e+003;2.511389e-001
1.112772e+003;2.461359e-001
1.114701e+003;2.390268e-001
1.116629e+003;2.309719e-001
1.118558e+003;2.223666e-001
1.120486e+003;2.127517e-001
1.122415e+003;2.038928e-001
1.124344e+003;1.954944e-001
1.126272e+003;1.874124e-001
1.128201e+003;1.797733e-001
1.130129e+003;1.725947e-001
1.132058e+003;1.665196e-001
1.133986e+003;1.618515e-001
1.135915e+003;1.575586e-001
1.137843e+003;1.534744e-001
1.139772e+003;1.510930e-001
1.141700e+003;1.503214e-001
1.143629e+003;1.505424e-001
1.145557e+003;1.513351e-001
1.147486e+003;1.519119e-001
1.149415e+003;1.523426e-001
1.151343e+003;1.527053e-001
1.153272e+003;1.536501e-001
1.155200e+003;1.546779e-001
1.157129e+003;1.549470e-001
1.159057e+003;1.548558e-001
1.160986e+003;1.539111e-001
1.162914e+003;1.510774e-001
1.164843e+003;1.460500e-001
1.166771e+003;1.395272e-001
1.168700e+003;1.323699e-001
1.170629e+003;1.248442e-001
1.172557e+003;1.175686e-001
1.174486e+003;1.110799e-001
1.176414e+003;1.057344e-001
1.178343e+003;1.011350e-001
1.180271e+003;9.774464e-002
1.182200e+003;9.532326e-002
1.184128e+003;9.378400e-002
1.186057e+003;9.321333e-002
1.187986e+003;9.336013e-002
1.189914e+003;9.416222e-002
1.191843e+003;9.642781e-002
1.193771e+003;9.927767e-002
1.195700e+003;1.012546e-001
1.197628e+003;1.031946e-001
1.199557e+003;1.052327e-001
1.201485e+003;1.064076e-001
1.203414e+003;1.067617e-001
1.205343e+003;1.064142e-001
1.207271e+003;1.049034e-001
1.209200e+003;1.023274e-001
1.211128e+003;9.907071e-002
1.213057e+003;9.591031e-002
1.214985e+003;9.425306e-002
1.216914e+003;9.392744e-002
1.218842e+003;9.426541e-002
1.220771e+003;9.566517e-002
1.222699e+003;9.778198e-002
1.224628e+003;9.957561e-002
1.226557e+003;1.012543e-001
1.228485e+003;1.032084e-001
1.230414e+003;1.047308e-001
1.232342e+003;1.063175e-001
1.234271e+003;1.079271e-001
1.236199e+003;1.090447e-001
1.238128e+003;1.096262e-001
1.240056e+003;1.094255e-001
1.241985e+003;1.094640e-001
1.243913e+003;1.102172e-001
1.245842e+003;1.112618e-001
1.247771e+003;1.124457e-001
1.249699e+003;1.132526e-001
1.251628e+003;1.135135e-001
1.253556e+003;1.137259e-001
1.255485e+003;1.137756e-001
1.257413e+003;1.139382e-001
1.259342e+003;1.143132e-001
1.261270e+003;1.146092e-001
1.263199e+003;1.150015e-001
1.265127e+003;1.153655e-001
1.267056e+003;1.157698e-001
1.268985e+003;1.163921e-001
1.270913e+003;1.168757e-001
1.272842e+003;1.171442e-001
1.274770e+003;1.177134e-001
1.276699e+003;1.183569e-001
1.278627e+003;1.184246e-001
1.280556e+003;1.180270e-001
1.282484e+003;1.177960e-001
1.284413e+003;1.172056e-001
1.286342e+003;1.165145e-001
1.288270e+003;1.167270e-001
1.290199e+003;1.171988e-001
1.292127e+003;1.179109e-001
1.294056e+003;1.190977e-001
1.295984e+003;1.203733e-001
1.297913e+003;1.222631e-001
1.299841e+003;1.244511e-001
1.301770e+003;1.270384e-001
1.303698e+003;1.304603e-001
1.305627e+003;1.341980e-001
1.307556e+003;1.380441e-001
1.309484e+003;1.420010e-001
1.311413e+003;1.456414e-001
1.313341e+003;1.483900e-001
1.315270e+003;1.499769e-001
1.317198e+003;1.505434e-001
1.319127e+003;1.492817e-001
1.321055e+003;1.464106e-001
1.322984e+003;1.437609e-001
1.324912e+003;1.417198e-001
1.326841e+003;1.402835e-001
1.328770e+003;1.398366e-001
1.330698e+003;1.404289e-001
1.332627e+003;1.412670e-001
1.334555e+003;1.419840e-001
1.336484e+003;1.421796e-001
1.338412e+003;1.416369e-001
1.340341e+003;1.403114e-001
1.342269e+003;1.388113e-001
1.344198e+003;1.372778e-001
1.346126e+003;1.355654e-001
1.348055e+003;1.340615e-001
1.349984e+003;1.330238e-001
1.351912e+003;1.327524e-001
1.353841e+003;1.333955e-001
1.355769e+003;1.347195e-001
1.357698e+003;1.359708e-001
1.359626e+003;1.365297e-001
1.361555e+003;1.365130e-001
1.363483e+003;1.361971e-001
1.365412e+003;1.353121e-001
1.367341e+003;1.342173e-001
1.369269e+003;1.335691e-001
1.371198e+003;1.328862e-001
1.373126e+003;1.310956e-001
1.375055e+003;1.284050e-001
1.376983e+003;1.257702e-001
1.378912e+003;1.232369e-001
1.380840e+003;1.208777e-001
1.382769e+003;1.186191e-001
1.384698e+003;1.161795e-001
1.386626e+003;1.132346e-001
1.388555e+003;1.114042e-001
1.390483e+003;1.108048e-001
1.392412e+003;1.099937e-001
1.394340e+003;1.093499e-001
1.396269e+003;1.091257e-001
1.398197e+003;1.087421e-001
1.400126e+003;1.089508e-001
1.402054e+003;1.097805e-001
1.403983e+003;1.099263e-001
1.405911e+003;1.098816e-001
1.407840e+003;1.104812e-001
1.409769e+003;1.109365e-001
1.411697e+003;1.114158e-001
1.413626e+003;1.122220e-001
1.415554e+003;1.127940e-001
1.417483e+003;1.127177e-001
1.419411e+003;1.132767e-001
1.421340e+003;1.155177e-001
1.423268e+003;1.171994e-001
1.425197e+003;1.181040e-001
1.427125e+003;1.183429e-001
1.429054e+003;1.179005e-001
1.430983e+003;1.173377e-001
1.432911e+003;1.161077e-001
1.434840e+003;1.140557e-001
1.436768e+003;1.122113e-001
1.438697e+003;1.113546e-001
1.440625e+003;1.098178e-001
1.442554e+003;1.080722e-001
1.444482e+003;1.067054e-001
1.446411e+003;1.052652e-001
1.448340e+003;1.044770e-001
1.450268e+003;1.042465e-001
1.452197e+003;1.035608e-001
1.454125e+003;1.017867e-001
1.456054e+003;9.843083e-002
1.457982e+003;9.718076e-002
1.459911e+003;9.762302e-002
1.461839e+003;9.640592e-002
1.463768e+003;9.365477e-002
1.465697e+003;9.137106e-002
1.467625e+003;8.974779e-002
1.469554e+003;8.750822e-002
1.471482e+003;8.484460e-002
1.473411e+003;8.321813e-002
1.475339e+003;8.191211e-002
1.477268e+003;8.037104e-002
1.479196e+003;7.905763e-002
1.481125e+003;7.740732e-002
1.483053e+003;7.550386e-002
1.484982e+003;7.317678e-002
1.486911e+003;7.049906e-002
1.488839e+003;6.784919e-002
1.490768e+003;6.598134e-002
1.492696e+003;6.488885e-002
1.494625e+003;6.311185e-002
1.496553e+003;6.129714e-002
1.498482e+003;6.076286e-002
1.500410e+003;6.066417e-002
1.502339e+003;6.006437e-002
1.504267e+003;5.796374e-002
1.506196e+003;5.589503e-002
1.508125e+003;5.674310e-002
1.510053e+003;5.807617e-002
1.511982e+003;5.791171e-002
1.513910e+003;5.753373e-002
1.515839e+003;5.701425e-002
1.517767e+003;5.664346e-002
1.519696e+003;5.568634e-002
1.521624e+003;5.487147e-002
1.523553e+003;5.567146e-002
1.525481e+003;5.623935e-002
1.527410e+003;5.667948e-002
1.529339e+003;5.752140e-002
1.531267e+003;5.781794e-002
1.533196e+003;5.721454e-002
1.535124e+003;5.767855e-002
1.537053e+003;5.720120e-002
1.538981e+003;5.498547e-002
1.540910e+003;5.512806e-002
1.542838e+003;5.720955e-002
1.544767e+003;5.875364e-002
1.546695e+003;5.981625e-002
1.548624e+003;6.051221e-002
1.550553e+003;6.112948e-002
1.552481e+003;6.143235e-002
1.554410e+003;6.137511e-002
1.556338e+003;6.106800e-002
1.558267e+003;5.987851e-002
1.560195e+003;6.105370e-002
1.562124e+003;6.419633e-002
1.564052e+003;6.595244e-002
1.565981e+003;6.716602e-002
1.567910e+003;6.779531e-002
1.569838e+003;6.825100e-002
1.571767e+003;6.973138e-002
1.573695e+003;7.027595e-002
1.575624e+003;6.958376e-002
1.577552e+003;7.086971e-002
1.579481e+003;7.269666e-002
1.581409e+003;7.355867e-002
1.583338e+003;7.428166e-002
1.585266e+003;7.500805e-002
1.587195e+003;7.586006e-002
1.589124e+003;7.642696e-002
1.591052e+003;7.705325e-002
1.592981e+003;7.746501e-002
1.594909e+003;7.785144e-002
1.596838e+003;7.870528e-002
1.598766e+003;7.943880e-002
1.600695e+003;7.978048e-002
1.602623e+003;8.008821e-002
1.604552e+003;8.052643e-002
1.606480e+003;8.109368e-002
1.608409e+003;8.111440e-002
1.610338e+003;8.116693e-002
1.612266e+003;8.153656e-002
1.614195e+003;8.115707e-002
1.616123e+003;8.001418e-002
1.618052e+003;8.055874e-002
1.619980e+003;8.141421e-002
1.621909e+003;8.075388e-002
1.623837e+003;8.034584e-002
1.625766e+003;8.069865e-002
1.627694e+003;8.039053e-002
1.629623e+003;7.989624e-002
1.631552e+003;7.947870e-002
1.633480e+003;7.844929e-002
1.635409e+003;7.701981e-002
1.637337e+003;7.703976e-002
1.639266e+003;7.722539e-002
1.641194e+003;7.670639e-002
1.643123e+003;7.593586e-002
1.645051e+003;7.440272e-002
1.646980e+003;7.332492e-002
1.648909e+003;7.291240e-002
1.650837e+003;7.040780e-002
1.652766e+003;6.753975e-002
1.654694e+003;6.913836e-002
1.656623e+003;7.079592e-002
1.658551e+003;7.028262e-002
1.660480e+003;6.889207e-002
1.662408e+003;6.748881e-002
1.664337e+003;6.706463e-002
1.666266e+003;6.649821e-002
1.668194e+003;6.478763e-002
1.670123e+003;6.364616e-002
1.672051e+003;6.322041e-002
1.673980e+003;6.167827e-002
1.675908e+003;6.057544e-002
1.677837e+003;6.035040e-002
1.679765e+003;5.939375e-002
1.681694e+003;5.743005e-002
1.683622e+003;5.423201e-002
1.685551e+003;5.365295e-002
1.687479e+003;5.487673e-002
1.689408e+003;5.446648e-002
1.691337e+003;5.342293e-002
1.693265e+003;5.176384e-002
1.695194e+003;4.915606e-002
1.697122e+003;4.816797e-002
1.699051e+003;4.694177e-002
1.700979e+003;4.641341e-002
1.702908e+003;4.711922e-002
1.704836e+003;4.624358e-002
1.706765e+003;4.548529e-002
1.708693e+003;4.519939e-002
1.710622e+003;4.504286e-002
1.712551e+003;4.417829e-002
1.714479e+003;4.297426e-002
1.716408e+003;4.147278e-002
1.718336e+003;4.111611e-002
1.720265e+003;4.215454e-002
1.722193e+003;4.257203e-002
1.724122e+003;4.246799e-002
1.726050e+003;4.226244e-002
1.727979e+003;4.164688e-002
1.729908e+003;4.090530e-002
1.731836e+003;3.956489e-002
1.733765e+003;3.787353e-002
1.735693e+003;3.854324e-002
1.737622e+003;3.928997e-002
1.739550e+003;3.853719e-002
1.741479e+003;3.809502e-002
1.743407e+003;3.766837e-002
1.745336e+003;3.699524e-002
1.747265e+003;3.645387e-002
1.749193e+003;3.588369e-002
1.751122e+003;3.518792e-002
1.753050e+003;3.550609e-002
1.754979e+003;3.566962e-002
1.756907e+003;3.556338e-002
1.758836e+003;3.538644e-002
1.760764e+003;3.476128e-002
1.762693e+003;3.464926e-002
1.764621e+003;3.482528e-002
1.766550e+003;3.438329e-002
1.768479e+003;3.391139e-002
1.770407e+003;3.333735e-002
1.772336e+003;3.253553e-002
1.774264e+003;3.269026e-002
1.776193e+003;3.310028e-002
1.778121e+003;3.306832e-002
1.780050e+003;3.259767e-002
1.781978e+003;3.219430e-002
1.783907e+003;3.187084e-002
1.785835e+003;3.160563e-002
1.787764e+003;3.180862e-002
1.789693e+003;3.159231e-002
1.791621e+003;3.057756e-002
1.793550e+003;3.041111e-002
1.795478e+003;3.111678e-002
1.797407e+003;3.097470e-002
1.799335e+003;3.071040e-002
1.801264e+003;3.083332e-002
1.803192e+003;3.106791e-002
1.805121e+003;3.088334e-002
1.807049e+003;3.058730e-002
1.808978e+003;3.032011e-002
1.810907e+003;3.013827e-002
1.812835e+003;3.021886e-002
1.814764e+003;3.036814e-002
1.816692e+003;3.044412e-002
1.818621e+003;3.043662e-002
1.820549e+003;3.028692e-002
1.822478e+003;2.999183e-002
1.824406e+003;2.970442e-002
1.826335e+003;2.985754e-002
1.828264e+003;2.969878e-002
1.830192e+003;2.936044e-002
1.832121e+003;2.967490e-002
1.834049e+003;2.967955e-002
1.835978e+003;2.929851e-002
1.837906e+003;2.896239e-002
1.839835e+003;2.912553e-002
1.841763e+003;2.904014e-002
1.843692e+003;2.822022e-002
1.845620e+003;2.835676e-002
1.847549e+003;2.899958e-002
1.849478e+003;2.915834e-002
1.851406e+003;2.912461e-002
1.853335e+003;2.903019e-002
1.855263e+003;2.893321e-002
1.857192e+003;2.872150e-002
1.859120e+003;2.863146e-002
1.861049e+003;2.865181e-002
1.862977e+003;2.839372e-002
1.864906e+003;2.804965e-002
1.866834e+003;2.775420e-002
1.868763e+003;2.744966e-002
1.870692e+003;2.766693e-002
1.872620e+003;2.797402e-002
1.874549e+003;2.774918e-002
1.876477e+003;2.794963e-002
1.878406e+003;2.828132e-002
1.880334e+003;2.826378e-002
1.882263e+003;2.821120e-002
1.884191e+003;2.825314e-002
1.886120e+003;2.826311e-002
1.888048e+003;2.819108e-002
1.889977e+003;2.795260e-002
1.891906e+003;2.791956e-002
1.893834e+003;2.797419e-002
1.895763e+003;2.831248e-002
1.897691e+003;2.856468e-002
1.899620e+003;2.814166e-002
1.901548e+003;2.788416e-002
1.903477e+003;2.801706e-002
1.905405e+003;2.791200e-002
1.907334e+003;2.788197e-002
1.909262e+003;2.810260e-002
1.911191e+003;2.837179e-002
1.913120e+003;2.864572e-002
1.915048e+003;2.879273e-002
1.916977e+003;2.869138e-002
1.918905e+003;2.878976e-002
1.920834e+003;2.880488e-002
1.922762e+003;2.852816e-002
1.924691e+003;2.846982e-002
1.926619e+003;2.886546e-002
1.928548e+003;2.916982e-002
1.930477e+003;2.912053e-002
1.932405e+003;2.913967e-002
1.934334e+003;2.935930e-002
1.936262e+003;2.935976e-002
1.938191e+003;2.913708e-002
1.940119e+003;2.907507e-002
1.942048e+003;2.920795e-002
1.943976e+003;2.953525e-002
1.945905e+003;2.980750e-002
1.947833e+003;2.991007e-002
1.949762e+003;2.998568e-002
1.951691e+003;3.016664e-002
1.953619e+003;3.042454e-002
1.955548e+003;3.057856e-002
1.957476e+003;3.062161e-002
1.959405e+003;3.074411e-002
1.961333e+003;3.102559e-002
1.963262e+003;3.097161e-002
1.965190e+003;3.082176e-002
1.967119e+003;3.078601e-002
1.969047e+003;3.101719e-002
1.970976e+003;3.130861e-002
1.972905e+003;3.144138e-002
1.974833e+003;3.143989e-002
1.976762e+003;3.162755e-002
1.978690e+003;3.198257e-002
1.980619e+003;3.216811e-002
1.982547e+003;3.219030e-002
1.984476e+003;3.231385e-002
1.986404e+003;3.237407e-002
1.988333e+003;3.251939e-002
1.990261e+003;3.257910e-002
1.992190e+003;3.248143e-002
1.994119e+003;3.271655e-002
1.996047e+003;3.296779e-002
1.997976e+003;3.308523e-002
1.999904e+003;3.316255e-002
2.001833e+003;3.359779e-002
2.003761e+003;3.395721e-002
2.005690e+003;3.397105e-002
2.007618e+003;3.403375e-002
2.009547e+003;3.419117e-002
2.011476e+003;3.433555e-002
2.013404e+003;3.462199e-002
2.015333e+003;3.503431e-002
2.017261e+003;3.518235e-002
2.019190e+003;3.519482e-002
2.021118e+003;3.547568e-002
2.023047e+003;3.594660e-002
2.024975e+003;3.615005e-002
2.026904e+003;3.614883e-002
2.028833e+003;3.609953e-002
2.030761e+003;3.625979e-002
2.032690e+003;3.673456e-002
2.034618e+003;3.707217e-002
2.036547e+003;3.708281e-002
2.038475e+003;3.719835e-002
2.040404e+003;3.730871e-002
2.042332e+003;3.715023e-002
2.044261e+003;3.706950e-002
2.046189e+003;3.718069e-002
2.048118e+003;3.752670e-002
2.050047e+003;3.792385e-002
2.051975e+003;3.803386e-002
2.053904e+003;3.781630e-002
2.055832e+003;3.774433e-002
2.057761e+003;3.749971e-002
2.059689e+003;3.733965e-002
2.061618e+003;3.759592e-002
2.063546e+003;3.793611e-002
2.065475e+003;3.795976e-002
2.067404e+003;3.756207e-002
2.069332e+003;3.754798e-002
2.071260e+003;3.776338e-002
2.073189e+003;3.800218e-002
2.075118e+003;3.842496e-002
2.077046e+003;3.818984e-002
2.078975e+003;3.757016e-002
2.080903e+003;3.764940e-002
2.082832e+003;3.787432e-002
2.084760e+003;3.786879e-002
2.086689e+003;3.809802e-002
2.088617e+003;3.814906e-002
2.090546e+003;3.810073e-002
2.092475e+003;3.815047e-002
2.094403e+003;3.816932e-002
2.096332e+003;3.819385e-002
2.098260e+003;3.823854e-002
2.100189e+003;3.852894e-002
2.102117e+003;3.881330e-002
2.104046e+003;3.880830e-002
2.105974e+003;3.878837e-002
2.107903e+003;3.887087e-002
2.109832e+003;3.887258e-002
2.111760e+003;3.885431e-002
2.113688e+003;3.899065e-002
2.115617e+003;3.907823e-002
2.117546e+003;3.955668e-002
2.119474e+003;3.975547e-002
2.121403e+003;3.924130e-002
2.123331e+003;3.914175e-002
2.125260e+003;3.944415e-002
2.127188e+003;3.974472e-002
2.129117e+003;3.994691e-002
2.131045e+003;4.004202e-002
2.132974e+003;4.013246e-002
2.134903e+003;4.027091e-002
2.136831e+003;4.005452e-002
2.138760e+003;3.985908e-002
2.140688e+003;3.964630e-002
2.142617e+003;3.947365e-002
2.144545e+003;3.959613e-002
2.146474e+003;3.952783e-002
2.148402e+003;3.932733e-002
2.150331e+003;3.935178e-002
2.152260e+003;3.942956e-002
2.154188e+003;3.952732e-002
2.156117e+003;3.954104e-002
2.158045e+003;3.913385e-002
2.159974e+003;3.886602e-002
2.161902e+003;3.907613e-002
2.163831e+003;3.905369e-002
2.165759e+003;3.875236e-002
2.167688e+003;3.864076e-002
2.169616e+003;3.872316e-002
2.171545e+003;3.869136e-002
2.173474e+003;3.854183e-002
2.175402e+003;3.821889e-002
2.177331e+003;3.796504e-002
2.179259e+003;3.763559e-002
2.181188e+003;3.741672e-002
2.183116e+003;3.725726e-002
2.185045e+003;3.715034e-002
2.186973e+003;3.722629e-002
2.188902e+003;3.724206e-002
2.190831e+003;3.688405e-002
2.192759e+003;3.663700e-002
2.194688e+003;3.673085e-002
2.196616e+003;3.695483e-002
2.198545e+003;3.699574e-002
2.200473e+003;3.696840e-002
2.202402e+003;3.700498e-002
2.204330e+003;3.689329e-002
2.206259e+003;3.658152e-002
2.208188e+003;3.635183e-002
2.210116e+003;3.651462e-002
2.212044e+003;3.672551e-002
2.213973e+003;3.641643e-002
2.215902e+003;3.619625e-002
2.217830e+003;3.639873e-002
2.219759e+003;3.675862e-002
2.221687e+003;3.701093e-002
2.223616e+003;3.722488e-002
2.225544e+003;3.715792e-002
2.227473e+003;3.685581e-002
2.229401e+003;3.678162e-002
2.231330e+003;3.696417e-002
2.233259e+003;3.721986e-002
2.235187e+003;3.736551e-002
2.237116e+003;3.705117e-002
2.239044e+003;3.702879e-002
2.240973e+003;3.725885e-002
2.242901e+003;3.706762e-002
2.244830e+003;3.702389e-002
2.246758e+003;3.708195e-002
2.248687e+003;3.675003e-002
2.250615e+003;3.657745e-002
2.252544e+003;3.668153e-002
2.254473e+003;3.677206e-002
2.256401e+003;3.678714e-002
2.258330e+003;3.673107e-002
2.260258e+003;3.643441e-002
2.262187e+003;3.652018e-002
2.264115e+003;3.672779e-002
2.266044e+003;3.637463e-002
2.267972e+003;3.624671e-002
2.269901e+003;3.649181e-002
2.271830e+003;3.642327e-002
2.273758e+003;3.579323e-002
2.275687e+003;3.547050e-002
2.277615e+003;3.569789e-002
2.279544e+003;3.589035e-002
2.281472e+003;3.585782e-002
2.283401e+003;3.568552e-002
2.285329e+003;3.547912e-002
2.287258e+003;3.543803e-002
2.289187e+003;3.581417e-002
2.291115e+003;3.617130e-002
2.293043e+003;3.585620e-002
2.294972e+003;3.560703e-002
2.296901e+003;3.559474e-002
2.298829e+003;3.542922e-002
2.300758e+003;3.534895e-002
2.302686e+003;3.522985e-002
2.304615e+003;3.497415e-002
2.306543e+003;3.496417e-002
2.308472e+003;3.480349e-002
2.310400e+003;3.428901e-002
2.312329e+003;3.394238e-002
2.314258e+003;3.366853e-002
2.316186e+003;3.328004e-002
2.318115e+003;3.268144e-002
2.320043e+003;3.228658e-002
2.321972e+003;3.203050e-002
2.323900e+003;3.149817e-002
2.325829e+003;3.051297e-002
2.327757e+003;2.963155e-002
2.329686e+003;2.902371e-002
2.331615e+003;2.847788e-002
2.333543e+003;2.831379e-002
2.335472e+003;2.845888e-002
2.337400e+003;2.877769e-002
2.339329e+003;2.921972e-002
2.341257e+003;2.968590e-002
2.343186e+003;3.085317e-002
2.345114e+003;3.272945e-002
2.347043e+003;3.455331e-002
2.348971e+003;3.541998e-002
2.350900e+003;3.419310e-002
2.352829e+003;3.209215e-002
2.354757e+003;3.042738e-002
2.356686e+003;2.911327e-002
2.358614e+003;2.833412e-002
2.360543e+003;2.779418e-002
2.362471e+003;2.775861e-002
2.364400e+003;2.858640e-002
2.366328e+003;2.961693e-002
2.368257e+003;3.072982e-002
2.370186e+003;3.231021e-002
2.372114e+003;3.415575e-002
2.374042e+003;3.579683e-002
2.375971e+003;3.725271e-002
2.377900e+003;3.837877e-002
2.379828e+003;3.943000e-002
2.381757e+003;4.038839e-002
2.383685e+003;4.058912e-002
2.385614e+003;4.068423e-002
2.387542e+003;4.120529e-002
2.389471e+003;4.150687e-002
2.391399e+003;4.157723e-002
2.393328e+003;4.179402e-002
2.395257e+003;4.182887e-002
2.397185e+003;4.185174e-002
2.399114e+003;4.218261e-002
2.401042e+003;4.236270e-002
2.402971e+003;4.237757e-002
2.404899e+003;4.254473e-002
2.406828e+003;4.267842e-002
2.408756e+003;4.293333e-002
2.410685e+003;4.332737e-002
2.412614e+003;4.343113e-002
2.414542e+003;4.364698e-002
2.416471e+003;4.373811e-002
2.418399e+003;4.384864e-002
2.420328e+003;4.415903e-002
2.422256e+003;4.449141e-002
2.424185e+003;4.468373e-002
2.426113e+003;4.483521e-002
2.428042e+003;4.508061e-002
2.429970e+003;4.564227e-002
2.431899e+003;4.594006e-002
2.433828e+003;4.564315e-002
2.435756e+003;4.569082e-002
2.437685e+003;4.605842e-002
2.439613e+003;4.634816e-002
2.441542e+003;4.665381e-002
2.443470e+003;4.698234e-002
2.445399e+003;4.722878e-002
2.447327e+003;4.744548e-002
2.449256e+003;4.764825e-002
2.451185e+003;4.782289e-002
2.453113e+003;4.791120e-002
2.455042e+003;4.783561e-002
2.456970e+003;4.802410e-002
2.458899e+003;4.841674e-002
2.460827e+003;4.887434e-002
2.462756e+003;4.924631e-002
2.464684e+003;4.930755e-002
2.466613e+003;4.919398e-002
2.468542e+003;4.929445e-002
2.470470e+003;4.950684e-002
2.472398e+003;4.968535e-002
2.474327e+003;5.007151e-002
2.476256e+003;5.050885e-002
2.478184e+003;5.081492e-002
2.480113e+003;5.097324e-002
2.482041e+003;5.097257e-002
2.483970e+003;5.095055e-002
2.485898e+003;5.149516e-002
2.487827e+003;5.177239e-002
2.489755e+003;5.156937e-002
2.491684e+003;5.153971e-002
2.493613e+003;5.177546e-002
2.495541e+003;5.197697e-002
2.497470e+003;5.229688e-002
2.499398e+003;5.265612e-002
2.501327e+003;5.299107e-002
2.503255e+003;5.314708e-002
2.505184e+003;5.335950e-002
2.507112e+003;5.343410e-002
2.509041e+003;5.361423e-002
2.510969e+003;5.414954e-002
2.512898e+003;5.441567e-002
2.514827e+003;5.434041e-002
2.516755e+003;5.453121e-002
2.518684e+003;5.471100e-002
2.520612e+003;5.452211e-002
2.522541e+003;5.435021e-002
2.524469e+003;5.466166e-002
2.526398e+003;5.505562e-002
2.528326e+003;5.536287e-002
2.530255e+003;5.535971e-002
2.532184e+003;5.512344e-002
2.534112e+003;5.523074e-002
2.536041e+003;5.568781e-002
2.537969e+003;5.603291e-002
2.539898e+003;5.623350e-002
2.541826e+003;5.632003e-002
2.543755e+003;5.610978e-002
2.545683e+003;5.609805e-002
2.547612e+003;5.623946e-002
2.549541e+003;5.636647e-002
2.551469e+003;5.651173e-002
2.553397e+003;5.667744e-002
2.555326e+003;5.682413e-002
2.557255e+003;5.696242e-002
2.559183e+003;5.698017e-002
2.561112e+003;5.709375e-002
2.563040e+003;5.732085e-002
2.564969e+003;5.748043e-002
2.566897e+003;5.747513e-002
2.568826e+003;5.749386e-002
2.570754e+003;5.754561e-002
2.572683e+003;5.774663e-002
2.574612e+003;5.784573e-002
2.576540e+003;5.773483e-002
2.578469e+003;5.792190e-002
2.580397e+003;5.812617e-002
2.582326e+003;5.797824e-002
2.584254e+003;5.781563e-002
2.586183e+003;5.810216e-002
2.588111e+003;5.858449e-002
2.590040e+003;5.882898e-002
2.591969e+003;5.880553e-002
2.593897e+003;5.872693e-002
2.595826e+003;5.904989e-002
2.597754e+003;5.948300e-002
2.599683e+003;5.974830e-002
2.601611e+003;5.976104e-002
2.603540e+003;5.956595e-002
2.605468e+003;5.971158e-002
2.607397e+003;5.981930e-002
2.609325e+003;5.990312e-002
2.611254e+003;6.031122e-002
2.613183e+003;6.079952e-002
2.615111e+003;6.115408e-002
2.617040e+003;6.146278e-002
2.618968e+003;6.138274e-002
2.620897e+003;6.132824e-002
2.622825e+003;6.166223e-002
2.624754e+003;6.193051e-002
2.626682e+003;6.206133e-002
2.628611e+003;6.248058e-002
2.630540e+003;6.290568e-002
2.632468e+003;6.293195e-002
2.634396e+003;6.313553e-002
2.636325e+003;6.352602e-002
2.638254e+003;6.357086e-002
2.640182e+003;6.358436e-002
2.642111e+003;6.388792e-002
2.644039e+003;6.408960e-002
2.645968e+003;6.424943e-002
2.647896e+003;6.468141e-002
2.649825e+003;6.510516e-002
2.651753e+003;6.516687e-002
2.653682e+003;6.530314e-002
2.655611e+003;6.551962e-002
2.657539e+003;6.593235e-002
2.659468e+003;6.621124e-002
2.661396e+003;6.640389e-002
2.663325e+003;6.681703e-002
2.665253e+003;6.697435e-002
2.667182e+003;6.705210e-002
2.669110e+003;6.739175e-002
2.671039e+003;6.802117e-002
2.672968e+003;6.814156e-002
2.674896e+003;6.800564e-002
2.676825e+003;6.831098e-002
2.678753e+003;6.860133e-002
2.680682e+003;6.883554e-002
2.682610e+003;6.905469e-002
2.684539e+003;6.929178e-002
2.686467e+003;6.950590e-002
2.688396e+003;6.979911e-002
2.690324e+003;7.036572e-002
2.692253e+003;7.078628e-002
2.694182e+003;7.080543e-002
2.696110e+003;7.083028e-002
2.698039e+003;7.103353e-002
2.699967e+003;7.130408e-002
2.701896e+003;7.156580e-002
2.703824e+003;7.173927e-002
2.705753e+003;7.178539e-002
2.707681e+003;7.195945e-002
2.709610e+003;7.264723e-002
2.711539e+003;7.321796e-002
2.713467e+003;7.331052e-002
2.715396e+003;7.367384e-002
2.717324e+003;7.395735e-002
2.719253e+003;7.366928e-002
2.721181e+003;7.354084e-002
2.723110e+003;7.378959e-002
2.725038e+003;7.421046e-002
2.726967e+003;7.428330e-002
2.728896e+003;7.445447e-002
2.730824e+003;7.469497e-002
2.732752e+003;7.503825e-002
2.734681e+003;7.541496e-002
2.736610e+003;7.557992e-002
2.738538e+003;7.550236e-002
2.740467e+003;7.570656e-002
2.742395e+003;7.600434e-002
2.744324e+003;7.600012e-002
2.746252e+003;7.602648e-002
2.748181e+003;7.577614e-002
2.750109e+003;7.571468e-002
2.752038e+003;7.649761e-002
2.753967e+003;7.677032e-002
2.755895e+003;7.653618e-002
2.757824e+003;7.648908e-002
2.759752e+003;7.686416e-002
2.761681e+003;7.714798e-002
2.763609e+003;7.689833e-002
2.765538e+003;7.703014e-002
2.767466e+003;7.774772e-002
2.769395e+003;7.837273e-002
2.771323e+003;7.838234e-002
2.773252e+003;7.834019e-002
2.775181e+003;7.863689e-002
2.777109e+003;7.906868e-002
2.779038e+003;7.926931e-002
2.780966e+003;7.935701e-002
2.782895e+003;7.950879e-002
2.784823e+003;8.002479e-002
2.786752e+003;8.043005e-002
2.788680e+003;8.044823e-002
2.790609e+003;8.045868e-002
2.792538e+003;8.067770e-002
2.794466e+003;8.128266e-002
2.796395e+003;8.194136e-002
2.798323e+003;8.212010e-002
2.800252e+003;8.213287e-002
2.802180e+003;8.268009e-002
2.804109e+003;8.304211e-002
2.806037e+003;8.307520e-002
2.807966e+003;8.375462e-002
2.809895e+003;8.443221e-002
2.811823e+003;8.465160e-002
2.813751e+003;8.501108e-002
2.815680e+003;8.573536e-002
2.817609e+003;8.610167e-002
2.819537e+003;8.665278e-002
2.821466e+003;8.764637e-002
2.823394e+003;8.823429e-002
2.825323e+003;8.840516e-002
2.827251e+003;8.863863e-002
2.829180e+003;8.945362e-002
2.831108e+003;9.030405e-002
2.833037e+003;9.060565e-002
2.834966e+003;9.116476e-002
2.836894e+003;9.204172e-002
2.838823e+003;9.266617e-002
2.840751e+003;9.294652e-002
2.842680e+003;9.361305e-002
2.844608e+003;9.456109e-002
2.846537e+003;9.544452e-002
2.848465e+003;9.631463e-002
2.850394e+003;9.755387e-002
2.852323e+003;9.896217e-002
2.854251e+003;1.001270e-001
2.856180e+003;1.013066e-001
2.858108e+003;1.027155e-001
2.860037e+003;1.036491e-001
2.861965e+003;1.045092e-001
2.863894e+003;1.057857e-001
2.865822e+003;1.069611e-001
2.867751e+003;1.077938e-001
2.869679e+003;1.089212e-001
2.871608e+003;1.098212e-001
2.873536e+003;1.101733e-001
2.875465e+003;1.107366e-001
2.877394e+003;1.114372e-001
2.879322e+003;1.122012e-001
2.881251e+003;1.128447e-001
2.883179e+003;1.132267e-001
2.885108e+003;1.132358e-001
2.887036e+003;1.132754e-001
2.888965e+003;1.136122e-001
2.890893e+003;1.139304e-001
2.892822e+003;1.142580e-001
2.894750e+003;1.142202e-001
2.896679e+003;1.143429e-001
2.898608e+003;1.147371e-001
2.900536e+003;1.144123e-001
2.902465e+003;1.137966e-001
2.904393e+003;1.134230e-001
2.906322e+003;1.126736e-001
2.908250e+003;1.111171e-001
2.910179e+003;1.097089e-001
2.912107e+003;1.087343e-001
2.914036e+003;1.073388e-001
2.915965e+003;1.056423e-001
2.917893e+003;1.041376e-001
2.919822e+003;1.032893e-001
2.921750e+003;1.028133e-001
2.923679e+003;1.021583e-001
2.925607e+003;1.015214e-001
2.927536e+003;1.011785e-001
2.929464e+003;1.006023e-001
2.931393e+003;9.960636e-002
2.933322e+003;9.898518e-002
2.935250e+003;9.858344e-002
2.937178e+003;9.842198e-002
2.939107e+003;9.828290e-002
2.941036e+003;9.797584e-002
2.942964e+003;9.679455e-002
2.944893e+003;9.546298e-002
2.946821e+003;9.461513e-002
2.948750e+003;9.362904e-002
2.950678e+003;9.262336e-002
2.952607e+003;9.170090e-002
2.954535e+003;9.081617e-002
2.956464e+003;8.949406e-002
2.958393e+003;8.800091e-002
2.960321e+003;8.707581e-002
2.962250e+003;8.674247e-002
2.964178e+003;8.634401e-002
2.966107e+003;8.582263e-002
2.968035e+003;8.561016e-002
2.969964e+003;8.542038e-002
2.971892e+003;8.495366e-002
2.973821e+003;8.453264e-002
2.975750e+003;8.384649e-002
2.977678e+003;8.297075e-002
2.979607e+003;8.239203e-002
2.981535e+003;8.187814e-002
2.983464e+003;8.094206e-002
2.985392e+003;8.023658e-002
2.987321e+003;8.003542e-002
2.989249e+003;7.979055e-002
2.991178e+003;7.947998e-002
2.993106e+003;7.927258e-002
2.995035e+003;7.915018e-002
2.996964e+003;7.903414e-002
2.998892e+003;7.887848e-002
3.000821e+003;7.894687e-002
3.002749e+003;7.894659e-002
3.004678e+003;7.867823e-002
3.006606e+003;7.891341e-002
3.008535e+003;7.959518e-002
3.010463e+003;7.985650e-002
3.012392e+003;7.964466e-002
3.014321e+003;7.960107e-002
3.016249e+003;7.995415e-002
3.018177e+003;8.026993e-002
3.020106e+003;8.005000e-002
3.022035e+003;7.996320e-002
3.023963e+003;8.032805e-002
3.025892e+003;8.060007e-002
3.027820e+003;8.128762e-002
3.029749e+003;8.214544e-002
3.031677e+003;8.266093e-002
3.033606e+003;8.311368e-002
3.035534e+003;8.330237e-002
3.037463e+003;8.355300e-002
3.039392e+003;8.395039e-002
3.041320e+003;8.449782e-002
3.043249e+003;8.479473e-002
3.045177e+003;8.518117e-002
3.047106e+003;8.549174e-002
3.049034e+003;8.573326e-002
3.050963e+003;8.637068e-002
3.052891e+003;8.701655e-002
3.054820e+003;8.746839e-002
3.056749e+003;8.760539e-002
3.058677e+003;8.757981e-002
3.060606e+003;8.800071e-002
3.062534e+003;8.865229e-002
3.064463e+003;8.916467e-002
3.066391e+003;8.982904e-002
3.068320e+003;9.035410e-002
3.070248e+003;9.053516e-002
3.072177e+003;9.109446e-002
3.074105e+003;9.151015e-002
3.076034e+003;9.152619e-002
3.077963e+003;9.227105e-002
3.079891e+003;9.337976e-002
3.081820e+003;9.380949e-002
3.083748e+003;9.417691e-002
3.085677e+003;9.466857e-002
3.087605e+003;9.514454e-002
3.089534e+003;9.557738e-002
3.091462e+003;9.624995e-002
3.093391e+003;9.704299e-002
3.095320e+003;9.723265e-002
3.097248e+003;9.733608e-002
3.099177e+003;9.782407e-002
3.101105e+003;9.857450e-002
3.103034e+003;9.938796e-002
3.104962e+003;9.975971e-002
3.106891e+003;9.997518e-002
3.108819e+003;1.006147e-001
3.110748e+003;1.012952e-001
3.112677e+003;1.014762e-001
3.114605e+003;1.015019e-001
3.116533e+003;1.023413e-001
3.118462e+003;1.031818e-001
3.120391e+003;1.037125e-001
3.122319e+003;1.038689e-001
3.124248e+003;1.040880e-001
3.126176e+003;1.047110e-001
3.128105e+003;1.055844e-001
3.130033e+003;1.065387e-001
3.131962e+003;1.070892e-001
3.133890e+003;1.072459e-001
3.135819e+003;1.076663e-001
3.137748e+003;1.082698e-001
3.139676e+003;1.094700e-001
3.141605e+003;1.104601e-001
3.143533e+003;1.105680e-001
3.145462e+003;1.108096e-001
3.147390e+003;1.110998e-001
3.149319e+003;1.114188e-001
3.151247e+003;1.124708e-001
3.153176e+003;1.133491e-001
3.155104e+003;1.137295e-001
3.157033e+003;1.142508e-001
3.158962e+003;1.149716e-001
3.160890e+003;1.153825e-001
3.162819e+003;1.157662e-001
3.164747e+003;1.162610e-001
3.166676e+003;1.169078e-001
3.168604e+003;1.177826e-001
3.170533e+003;1.187417e-001
3.172461e+003;1.195901e-001
3.174390e+003;1.202765e-001
3.176319e+003;1.210349e-001
3.178247e+003;1.217247e-001
3.180176e+003;1.219454e-001
3.182104e+003;1.221928e-001
3.184033e+003;1.225963e-001
3.185961e+003;1.236819e-001
3.187890e+003;1.247361e-001
3.189818e+003;1.252121e-001
3.191747e+003;1.257377e-001
3.193676e+003;1.267964e-001
3.195604e+003;1.275156e-001
3.197532e+003;1.286524e-001
3.199461e+003;1.298948e-001
3.201390e+003;1.304670e-001
3.203318e+003;1.309468e-001
3.205247e+003;1.315039e-001
3.207175e+003;1.317332e-001
3.209104e+003;1.323582e-001
3.211032e+003;1.335965e-001
3.212961e+003;1.344747e-001
3.214889e+003;1.350794e-001
3.216818e+003;1.358530e-001
3.218747e+003;1.366588e-001
3.220675e+003;1.373135e-001
3.222604e+003;1.378237e-001
3.224532e+003;1.384497e-001
3.226461e+003;1.398215e-001
3.228389e+003;1.412816e-001
3.230318e+003;1.419452e-001
3.232246e+003;1.423687e-001
3.234175e+003;1.432648e-001
3.236104e+003;1.444378e-001
3.238032e+003;1.453978e-001
3.239961e+003;1.463591e-001
3.241889e+003;1.472440e-001
3.243818e+003;1.480214e-001
3.245746e+003;1.491744e-001
3.247675e+003;1.502872e-001
3.249603e+003;1.510437e-001
3.251532e+003;1.520471e-001
3.253460e+003;1.531458e-001
3.255389e+003;1.541096e-001
3.257318e+003;1.547479e-001
3.259246e+003;1.555838e-001
3.261175e+003;1.565694e-001
3.263103e+003;1.570307e-001
3.265032e+003;1.571187e-001
3.266960e+003;1.578020e-001
3.268889e+003;1.591662e-001
3.270817e+003;1.600669e-001
3.272746e+003;1.597681e-001
3.274675e+003;1.594804e-001
3.276603e+003;1.594121e-001
3.278531e+003;1.594993e-001
3.280460e+003;1.599647e-001
3.282389e+003;1.605690e-001
3.284317e+003;1.611838e-001
3.286246e+003;1.614138e-001
3.288174e+003;1.614264e-001
3.290103e+003;1.613848e-001
3.292031e+003;1.612662e-001
3.293960e+003;1.614282e-001
3.295888e+003;1.617165e-001
3.297817e+003;1.621479e-001
3.299746e+003;1.626528e-001
3.301674e+003;1.630279e-001
3.303603e+003;1.627167e-001
3.305531e+003;1.626412e-001
3.307460e+003;1.629536e-001
3.309388e+003;1.625715e-001
3.311317e+003;1.628465e-001
3.313245e+003;1.635988e-001
3.315174e+003;1.641140e-001
3.317103e+003;1.648071e-001
3.319031e+003;1.652451e-001
3.320960e+003;1.647719e-001
3.322888e+003;1.645491e-001
3.324817e+003;1.651638e-001
3.326745e+003;1.651461e-001
3.328674e+003;1.649213e-001
3.330602e+003;1.645909e-001
3.332531e+003;1.640092e-001
3.334459e+003;1.636456e-001
3.336388e+003;1.633018e-001
3.338317e+003;1.627392e-001
3.340245e+003;1.625069e-001
3.342174e+003;1.620816e-001
3.344102e+003;1.608941e-001
3.346031e+003;1.593094e-001
3.347959e+003;1.581324e-001
3.349888e+003;1.578900e-001
3.351816e+003;1.578216e-001
3.353745e+003;1.575590e-001
3.355674e+003;1.568132e-001
3.357602e+003;1.558095e-001
3.359531e+003;1.546915e-001
3.361459e+003;1.534968e-001
3.363388e+003;1.525567e-001
3.365316e+003;1.518408e-001
3.367245e+003;1.511807e-001
3.369173e+003;1.505889e-001
3.371102e+003;1.500267e-001
3.373031e+003;1.498878e-001
3.374959e+003;1.495618e-001
3.376887e+003;1.489829e-001
3.378816e+003;1.483982e-001
3.380745e+003;1.475354e-001
3.382673e+003;1.464720e-001
3.384602e+003;1.460095e-001
3.386530e+003;1.460714e-001
3.388459e+003;1.454601e-001
3.390387e+003;1.440971e-001
3.392316e+003;1.432890e-001
3.394244e+003;1.432680e-001
3.396173e+003;1.424945e-001
3.398102e+003;1.412537e-001
3.400030e+003;1.408311e-001
3.401959e+003;1.406918e-001
3.403887e+003;1.398755e-001
3.405816e+003;1.391400e-001
3.407744e+003;1.378724e-001
3.409673e+003;1.363836e-001
3.411601e+003;1.355957e-001
3.413530e+003;1.351302e-001
3.415458e+003;1.342628e-001
3.417387e+003;1.335248e-001
3.419316e+003;1.327666e-001
3.421244e+003;1.314415e-001
3.423173e+003;1.296573e-001
3.425101e+003;1.289188e-001
3.427030e+003;1.290900e-001
3.428958e+003;1.283925e-001
3.430887e+003;1.276152e-001
3.432815e+003;1.268610e-001
3.434744e+003;1.257315e-001
3.436673e+003;1.247813e-001
3.438601e+003;1.243447e-001
3.440530e+003;1.237832e-001
3.442458e+003;1.221928e-001
3.444387e+003;1.210112e-001
3.446315e+003;1.203122e-001
3.448244e+003;1.194613e-001
3.450172e+003;1.185519e-001
3.452101e+003;1.175870e-001
3.454030e+003;1.165424e-001
3.455958e+003;1.157701e-001
3.457886e+003;1.152117e-001
3.459815e+003;1.144923e-001
3.461744e+003;1.130389e-001
3.463672e+003;1.118724e-001
3.465601e+003;1.114431e-001
3.467529e+003;1.104895e-001
3.469458e+003;1.093716e-001
3.471386e+003;1.086692e-001
3.473315e+003;1.081513e-001
3.475243e+003;1.071655e-001
3.477172e+003;1.059887e-001
3.479101e+003;1.053102e-001
3.481029e+003;1.045762e-001
3.482958e+003;1.034128e-001
3.484886e+003;1.020373e-001
3.486815e+003;1.010259e-001
3.488743e+003;1.004266e-001
3.490672e+003;9.983239e-002
3.492600e+003;9.898464e-002
3.494529e+003;9.807848e-002
3.496458e+003;9.741092e-002
3.498386e+003;9.630429e-002
3.500315e+003;9.511442e-002
3.502243e+003;9.450873e-002
3.504172e+003;9.362625e-002
3.506100e+003;9.266105e-002
3.508029e+003;9.166423e-002
3.509957e+003;9.087168e-002
3.511886e+003;9.000119e-002
3.513814e+003;8.840910e-002
3.515743e+003;8.737376e-002
3.517672e+003;8.736607e-002
3.519600e+003;8.687447e-002
3.521529e+003;8.607052e-002
3.523457e+003;8.545039e-002
3.525386e+003;8.448957e-002
3.527314e+003;8.362819e-002
3.529243e+003;8.301695e-002
3.531171e+003;8.223068e-002
3.533100e+003;8.123835e-002
3.535029e+003;8.047543e-002
3.536957e+003;8.000132e-002
3.538885e+003;7.916354e-002
3.540814e+003;7.815610e-002
3.542743e+003;7.706203e-002
3.544671e+003;7.551044e-002
3.546600e+003;7.454073e-002
3.548528e+003;7.377499e-002
3.550457e+003;7.289825e-002
3.552385e+003;7.241159e-002
3.554314e+003;7.230125e-002
3.556242e+003;7.209650e-002
3.558171e+003;7.140799e-002
3.560100e+003;7.090537e-002
3.562028e+003;7.025395e-002
3.563957e+003;6.888559e-002
3.565885e+003;6.731530e-002
3.567814e+003;6.628302e-002
3.569742e+003;6.600922e-002
3.571671e+003;6.548879e-002
3.573599e+003;6.445716e-002
3.575528e+003;6.392930e-002
3.577457e+003;6.301550e-002
3.579385e+003;6.224286e-002
3.581314e+003;6.204853e-002
3.583242e+003;6.148091e-002
3.585171e+003;6.020723e-002
3.587099e+003;5.963403e-002
3.589028e+003;5.943657e-002
3.590956e+003;5.896339e-002
3.592885e+003;5.770262e-002
3.594813e+003;5.667095e-002
3.596742e+003;5.573622e-002
3.598671e+003;5.506487e-002
3.600599e+003;5.470641e-002
3.602528e+003;5.395182e-002
3.604456e+003;5.293387e-002
3.606385e+003;5.202048e-002
3.608313e+003;5.082437e-002
3.610242e+003;5.035862e-002
3.612170e+003;4.977418e-002
3.614099e+003;4.926405e-002
3.616028e+003;4.911031e-002
3.617956e+003;4.771522e-002
3.619885e+003;4.646942e-002
3.621813e+003;4.613026e-002
3.623742e+003;4.571320e-002
3.625670e+003;4.459277e-002
3.627599e+003;4.234919e-002
3.629527e+003;4.142937e-002
3.631456e+003;4.209546e-002
3.633385e+003;4.189122e-002
3.635313e+003;4.141428e-002
3.637241e+003;4.069154e-002
3.639170e+003;4.006447e-002
3.641099e+003;3.992802e-002
3.643027e+003;3.924162e-002
3.644956e+003;3.760423e-002
3.646884e+003;3.593563e-002
3.648813e+003;3.485616e-002
3.650741e+003;3.492402e-002
3.652670e+003;3.549081e-002
3.654598e+003;3.469929e-002
3.656527e+003;3.315207e-002
3.658456e+003;3.244408e-002
3.660384e+003;3.220304e-002
3.662313e+003;3.177818e-002
3.664241e+003;3.151377e-002
3.666170e+003;3.119997e-002
3.668098e+003;2.958327e-002
3.670027e+003;2.806029e-002
3.671955e+003;2.801215e-002
3.673884e+003;2.677420e-002
3.675813e+003;2.598446e-002
3.677741e+003;2.760940e-002
3.679669e+003;2.844013e-002
3.681598e+003;2.803296e-002
3.683527e+003;2.756213e-002
3.685455e+003;2.730794e-002
3.687384e+003;2.582887e-002
3.689312e+003;2.524451e-002
3.691241e+003;2.572054e-002
3.693169e+003;2.636148e-002
3.695098e+003;2.645120e-002
3.697026e+003;2.621912e-002
3.698955e+003;2.554768e-002
3.700884e+003;2.494215e-002
3.702812e+003;2.495528e-002
3.704741e+003;2.557586e-002
3.706669e+003;2.557407e-002
3.708598e+003;2.458709e-002
3.710526e+003;2.337340e-002
3.712455e+003;2.309760e-002
3.714383e+003;2.365364e-002
3.716312e+003;2.353438e-002
3.718240e+003;2.350080e-002
3.720169e+003;2.338938e-002
3.722098e+003;2.321038e-002
3.724026e+003;2.281343e-002
3.725955e+003;2.268337e-002
3.727883e+003;2.319179e-002
3.729812e+003;2.291971e-002
3.731740e+003;2.168582e-002
3.733669e+003;2.123138e-002
3.735597e+003;2.149799e-002
3.737526e+003;2.253363e-002
3.739455e+003;2.258064e-002
3.741383e+003;2.158357e-002
3.743312e+003;1.974863e-002
3.745240e+003;2.003712e-002
3.747169e+003;2.123876e-002
3.749097e+003;2.051681e-002
3.751026e+003;2.023876e-002
3.752954e+003;2.126969e-002
3.754883e+003;2.276255e-002
3.756812e+003;2.263819e-002
3.758740e+003;2.227660e-002
3.760668e+003;2.287556e-002
3.762597e+003;2.289889e-002
3.764526e+003;2.264085e-002
3.766454e+003;2.282673e-002
3.768383e+003;2.248512e-002
3.770311e+003;2.268822e-002
3.772240e+003;2.283829e-002
3.774168e+003;2.274865e-002
3.776097e+003;2.281493e-002
3.778025e+003;2.258863e-002
3.779954e+003;2.268776e-002
3.781883e+003;2.351161e-002
3.783811e+003;2.349650e-002
3.785740e+003;2.286386e-002
3.787668e+003;2.253827e-002
3.789597e+003;2.291545e-002
3.791525e+003;2.332630e-002
3.793454e+003;2.281434e-002
3.795382e+003;2.215256e-002
3.797311e+003;2.205846e-002
3.799240e+003;2.136505e-002
3.801168e+003;2.067782e-002
3.803097e+003;2.187566e-002
3.805025e+003;2.277037e-002
3.806954e+003;2.250703e-002
3.808882e+003;2.286833e-002
3.810811e+003;2.296581e-002
3.812739e+003;2.278727e-002
3.814668e+003;2.216829e-002
3.816596e+003;2.256842e-002
3.818525e+003;2.334490e-002
3.820454e+003;2.272868e-002
3.822382e+003;2.266755e-002
3.824311e+003;2.319137e-002
3.826239e+003;2.292393e-002
3.828168e+003;2.264165e-002
3.830096e+003;2.238673e-002
3.832025e+003;2.248871e-002
3.833953e+003;2.266001e-002
3.835882e+003;2.183785e-002
3.837811e+003;2.182879e-002
3.839739e+003;2.309774e-002
3.841667e+003;2.357125e-002
3.843596e+003;2.343085e-002
3.845525e+003;2.368202e-002
3.847453e+003;2.440427e-002
3.849382e+003;2.407220e-002
3.851310e+003;2.181190e-002
3.853239e+003;2.013342e-002
3.855167e+003;2.165584e-002
3.857096e+003;2.342449e-002
3.859024e+003;2.377419e-002
3.860953e+003;2.376474e-002
3.862882e+003;2.391960e-002
3.864810e+003;2.342061e-002
3.866739e+003;2.326254e-002
3.868667e+003;2.292931e-002
3.870596e+003;2.331148e-002
3.872524e+003;2.438815e-002
3.874453e+003;2.510572e-002
3.876381e+003;2.561371e-002
3.878310e+003;2.551451e-002
3.880239e+003;2.530688e-002
3.882167e+003;2.583924e-002
3.884096e+003;2.565473e-002
3.886024e+003;2.518429e-002
3.887953e+003;2.536052e-002
3.889881e+003;2.473512e-002
3.891810e+003;2.481138e-002
3.893738e+003;2.559066e-002
3.895667e+003;2.586249e-002
3.897595e+003;2.584568e-002
3.899524e+003;2.561523e-002
3.901453e+003;2.558929e-002
3.903381e+003;2.540081e-002
3.905310e+003;2.549181e-002
3.907238e+003;2.640834e-002
3.909167e+003;2.709565e-002
3.911095e+003;2.728740e-002
3.913024e+003;2.707872e-002
3.914952e+003;2.682590e-002
3.916881e+003;2.665898e-002
3.918810e+003;2.700862e-002
3.920738e+003;2.722136e-002
3.922667e+003;2.720802e-002
3.924595e+003;2.718724e-002
3.926524e+003;2.668188e-002
3.928452e+003;2.627565e-002
3.930381e+003;2.645345e-002
3.932309e+003;2.725953e-002
3.934238e+003;2.797759e-002
3.936167e+003;2.829833e-002
3.938095e+003;2.817284e-002
3.940023e+003;2.800628e-002
3.941952e+003;2.841774e-002
3.943881e+003;2.809369e-002
3.945809e+003;2.793575e-002
3.947738e+003;2.819190e-002
3.949666e+003;2.872211e-002
3.951595e+003;2.931130e-002
3.953523e+003;2.919519e-002
3.955452e+003;2.869765e-002
3.957380e+003;2.872225e-002
3.959309e+003;2.885353e-002
3.961238e+003;2.920600e-002
3.963166e+003;2.933771e-002
3.965095e+003;2.916277e-002
3.967023e+003;2.904751e-002
3.968952e+003;2.963134e-002
3.970880e+003;3.018220e-002
3.972809e+003;3.022703e-002
3.974737e+003;2.954177e-002
3.976666e+003;2.940376e-002
3.978594e+003;2.986563e-002
3.980523e+003;3.004516e-002
3.982452e+003;2.982783e-002
3.984380e+003;2.973142e-002
3.986309e+003;3.026273e-002
3.988237e+003;3.038840e-002
3.990166e+003;2.975480e-002
3.992094e+003;2.996680e-002
3.994023e+003;3.061329e-002
3.995951e+003;3.070841e-002
3.997880e+003;3.096787e-002
3.999809e+003;3.063420e-002
4.001737e+003;0.000000e+000
