3.992094e+002;0.000000e+000
4.011380e+002;0.000000e+000
4.030665e+002;0.000000e+000
4.049951e+002;0.000000e+000
4.069236e+002;0.000000e+000
4.088522e+002;0.000000e+000
4.107807e+002;0.000000e+000
4.127093e+002;0.000000e+000
4.146378e+002;0.000000e+000
4.165664e+002;0.000000e+000
4.184949e+002;0.000000e+000
4.204235e+002;0.000000e+000
4.223520e+002;0.000000e+000
4.242806e+002;0.000000e+000
4.262091e+002;0.000000e+000
4.281377e+002;0.000000e+000
4.300662e+002;0.000000e+000
4.319948e+002;0.000000e+000
4.339233e+002;0.000000e+000
4.358519e+002;0.000000e+000
4.377804e+002;0.000000e+000
4.397090e+002;0.000000e+000
4.416375e+002;0.000000e+000
4.435660e+002;0.000000e+000
4.454946e+002;0.000000e+000
4.474232e+002;0.000000e+000
4.493517e+002;0.000000e+000
4.512802e+002;0.000000e+000
4.532088e+002;0.000000e+000
4.551373e+002;0.000000e+000
4.570659e+002;0.000000e+000
4.589944e+002;0.000000e+000
4.609230e+002;0.000000e+000
4.628515e+002;0.000000e+000
4.647801e+002;0.000000e+000
4.667086e+002;0.000000e+000
4.686372e+002;0.000000e+000
4.705657e+002;0.000000e+000
4.724943e+002;0.000000e+000
4.744228e+002;0.000000e+000
4.763513e+002;0.000000e+000
4.782799e+002;0.000000e+000
4.802085e+002;0.000000e+000
4.821370e+002;0.000000e+000
4.840656e+002;0.000000e+000
4.859941e+002;0.000000e+000
4.879226e+002;0.000000e+000
4.898512e+002;0.000000e+000
4.917798e+002;0.000000e+000
4.937083e+002;0.000000e+000
4.956368e+002;0.000000e+000
4.975654e+002;0.000000e+000
4.994939e+002;0.000000e+000
5.014225e+002;0.000000e+000
5.033510e+002;0.000000e+000
5.052796e+002;0.000000e+000
5.072081e+002;0.000000e+000
5.091367e+002;0.000000e+000
5.110652e+002;0.000000e+000
5.129938e+002;0.000000e+000
5.149223e+002;0.000000e+000
5.168509e+002;0.000000e+000
5.187794e+002;0.000000e+000
5.207079e+002;0.000000e+000
5.226365e+002;0.000000e+000
5.245651e+002;0.000000e+000
5.264936e+002;0.000000e+000
5.284222e+002;0.000000e+000
5.303507e+002;0.000000e+000
5.322792e+002;0.000000e+000
5.342078e+002;0.000000e+000
5.361364e+002;0.000000e+000
5.380649e+002;0.000000e+000
5.399935e+002;0.000000e+000
5.419220e+002;0.000000e+000
5.438505e+002;0.000000e+000
5.457791e+002;0.000000e+000
5.477076e+002;0.000000e+000
5.496362e+002;0.000000e+000
5.515648e+002;0.000000e+000
5.534933e+002;0.000000e+000
5.554218e+002;0.000000e+000
5.573504e+002;0.000000e+000
5.592789e+002;0.000000e+000
5.612075e+002;0.000000e+000
5.631360e+002;0.000000e+000
5.650646e+002;0.000000e+000
5.669931e+002;0.000000e+000
5.689217e+002;0.000000e+000
5.708502e+002;0.000000e+000
5.727787e+002;0.000000e+000
5.747073e+002;0.000000e+000
5.766359e+002;0.000000e+000
5.785644e+002;0.000000e+000
5.804930e+002;0.000000e+000
5.824215e+002;0.000000e+000
5.843500e+002;0.000000e+000
5.862786e+002;0.000000e+000
5.882072e+002;0.000000e+000
5.901357e+002;0.000000e+000
5.920643e+002;0.000000e+000
5.939928e+002;0.000000e+000
5.959213e+002;0.000000e+000
5.978499e+002;0.000000e+000
5.997784e+002;2.500854e-001
6.017070e+002;2.471894e-001
6.036355e+002;2.548038e-001
6.055641e+002;2.602493e-001
6.074926e+002;2.603788e-001
6.094211e+002;2.616719e-001
6.113497e+002;2.620288e-001
6.132783e+002;2.584307e-001
6.152068e+002;2.564899e-001
6.171354e+002;2.539837e-001
6.190639e+002;2.506655e-001
6.209924e+002;2.416864e-001
6.229210e+002;2.377858e-001
6.248495e+002;2.428772e-001
6.267781e+002;2.461997e-001
6.287067e+002;2.418600e-001
6.306352e+002;2.381808e-001
6.325637e+002;2.337874e-001
6.344923e+002;2.307802e-001
6.364208e+002;2.310852e-001
6.383494e+002;2.306271e-001
6.402780e+002;2.271935e-001
6.422065e+002;2.249314e-001
6.441350e+002;2.262510e-001
6.460636e+002;2.275382e-001
6.479921e+002;2.271322e-001
6.499207e+002;2.252899e-001
6.518492e+002;2.242703e-001
6.537778e+002;2.268396e-001
6.557063e+002;2.323379e-001
6.576349e+002;2.352104e-001
6.595634e+002;2.356242e-001
6.614919e+002;2.375414e-001
6.634205e+002;2.369713e-001
6.653491e+002;2.327489e-001
6.672776e+002;2.274518e-001
6.692062e+002;2.286067e-001
6.711347e+002;2.309879e-001
6.730632e+002;2.265769e-001
6.749918e+002;2.200683e-001
6.769203e+002;2.138927e-001
6.788489e+002;2.099324e-001
6.807775e+002;2.065996e-001
6.827060e+002;2.039828e-001
6.846345e+002;2.043159e-001
6.865631e+002;2.048147e-001
6.884916e+002;2.026798e-001
6.904202e+002;2.007248e-001
6.923488e+002;2.006227e-001
6.942773e+002;2.013745e-001
6.962058e+002;2.004017e-001
6.981344e+002;1.992890e-001
7.000629e+002;1.993312e-001
7.019915e+002;1.987418e-001
7.039200e+002;1.972018e-001
7.058486e+002;1.953436e-001
7.077771e+002;1.942447e-001
7.097057e+002;1.926065e-001
7.116342e+002;1.905327e-001
7.135627e+002;1.888279e-001
7.154913e+002;1.869421e-001
7.174199e+002;1.845646e-001
7.193484e+002;1.813422e-001
7.212770e+002;1.779517e-001
7.232055e+002;1.745929e-001
7.251340e+002;1.700998e-001
7.270626e+002;1.668191e-001
7.289911e+002;1.652530e-001
7.309197e+002;1.629902e-001
7.328483e+002;1.605814e-001
7.347768e+002;1.578247e-001
7.367053e+002;1.566812e-001
7.386339e+002;1.565735e-001
7.405624e+002;1.551554e-001
7.424910e+002;1.543934e-001
7.444196e+002;1.537148e-001
7.463481e+002;1.516494e-001
7.482766e+002;1.498207e-001
7.502052e+002;1.495802e-001
7.521337e+002;1.477363e-001
7.540623e+002;1.454674e-001
7.559908e+002;1.458796e-001
7.579194e+002;1.457430e-001
7.598479e+002;1.440600e-001
7.617765e+002;1.432049e-001
7.637050e+002;1.425543e-001
7.656335e+002;1.422764e-001
7.675621e+002;1.421542e-001
7.694907e+002;1.409426e-001
7.714192e+002;1.401132e-001
7.733478e+002;1.397922e-001
7.752763e+002;1.385684e-001
7.772048e+002;1.376378e-001
7.791334e+002;1.369617e-001
7.810620e+002;1.359349e-001
7.829905e+002;1.354057e-001
7.849191e+002;1.356723e-001
7.868476e+002;1.345538e-001
7.887761e+002;1.335699e-001
7.907047e+002;1.337159e-001
7.926332e+002;1.329690e-001
7.945618e+002;1.323589e-001
7.964903e+002;1.321105e-001
7.984189e+002;1.311302e-001
8.003474e+002;1.306906e-001
8.022759e+002;1.304441e-001
8.042045e+002;1.304523e-001
8.061331e+002;1.319667e-001
8.080616e+002;1.316290e-001
8.099902e+002;1.306286e-001
8.119187e+002;1.307189e-001
8.138472e+002;1.301536e-001
8.157758e+002;1.306126e-001
8.177043e+002;1.310835e-001
8.196329e+002;1.310786e-001
8.215615e+002;1.310174e-001
8.234900e+002;1.314020e-001
8.254185e+002;1.318192e-001
8.273471e+002;1.316101e-001
8.292756e+002;1.313769e-001
8.312042e+002;1.319913e-001
8.331328e+002;1.328325e-001
8.350613e+002;1.322085e-001
8.369898e+002;1.316417e-001
8.389184e+002;1.317101e-001
8.408469e+002;1.314394e-001
8.427755e+002;1.320379e-001
8.447040e+002;1.321480e-001
8.466326e+002;1.319705e-001
8.485611e+002;1.321086e-001
8.504897e+002;1.324343e-001
8.524182e+002;1.324145e-001
8.543467e+002;1.324105e-001
8.562753e+002;1.330098e-001
8.582039e+002;1.342154e-001
8.601324e+002;1.354225e-001
8.620610e+002;1.363930e-001
8.639895e+002;1.375173e-001
8.659180e+002;1.390431e-001
8.678466e+002;1.410458e-001
8.697751e+002;1.434392e-001
8.717037e+002;1.462437e-001
8.736323e+002;1.486877e-001
8.755608e+002;1.511897e-001
8.774893e+002;1.536162e-001
8.794179e+002;1.558128e-001
8.813464e+002;1.583729e-001
8.832750e+002;1.611346e-001
8.852036e+002;1.638580e-001
8.871321e+002;1.665438e-001
8.890606e+002;1.694234e-001
8.909892e+002;1.727917e-001
8.929177e+002;1.759242e-001
8.948463e+002;1.777931e-001
8.967748e+002;1.779179e-001
8.987034e+002;1.774799e-001
9.006319e+002;1.770334e-001
9.025605e+002;1.758882e-001
9.044890e+002;1.746379e-001
9.064175e+002;1.730963e-001
9.083461e+002;1.718978e-001
9.102747e+002;1.710237e-001
9.122032e+002;1.690600e-001
9.141318e+002;1.668742e-001
9.160603e+002;1.652403e-001
9.179888e+002;1.651710e-001
9.199174e+002;1.664584e-001
9.218459e+002;1.675171e-001
9.237745e+002;1.688411e-001
9.257031e+002;1.701861e-001
9.276316e+002;1.719329e-001
9.295601e+002;1.740874e-001
9.314887e+002;1.756013e-001
9.334172e+002;1.766935e-001
9.353458e+002;1.780324e-001
9.372744e+002;1.793591e-001
9.392029e+002;1.813080e-001
9.411314e+002;1.839781e-001
9.430600e+002;1.860671e-001
9.449885e+002;1.886265e-001
9.469171e+002;1.921190e-001
9.488456e+002;1.956901e-001
9.507742e+002;1.990902e-001
9.527027e+002;2.032421e-001
9.546313e+002;2.083647e-001
9.565598e+002;2.133476e-001
9.584883e+002;2.179180e-001
9.604169e+002;2.225381e-001
9.623455e+002;2.270394e-001
9.642740e+002;2.322454e-001
9.662026e+002;2.384674e-001
9.681311e+002;2.451637e-001
9.700596e+002;2.524742e-001
9.719882e+002;2.606433e-001
9.739167e+002;2.704065e-001
9.758453e+002;2.815491e-001
9.777739e+002;2.937993e-001
9.797024e+002;3.064724e-001
9.816309e+002;3.179040e-001
9.835595e+002;3.263496e-001
9.854880e+002;3.321959e-001
9.874166e+002;3.352427e-001
9.893452e+002;3.365058e-001
9.912737e+002;3.391644e-001
9.932022e+002;3.430969e-001
9.951307e+002;3.475744e-001
9.970593e+002;3.523038e-001
9.989879e+002;3.567862e-001
1.000916e+003;3.598994e-001
1.002845e+003;3.618164e-001
1.004773e+003;3.631299e-001
1.006702e+003;3.639245e-001
1.008631e+003;3.645977e-001
1.010559e+003;3.663517e-001
1.012488e+003;3.694494e-001
1.014416e+003;3.732588e-001
1.016345e+003;3.774365e-001
1.018273e+003;3.810651e-001
1.020202e+003;3.844150e-001
1.022130e+003;3.882911e-001
1.024059e+003;3.916400e-001
1.025988e+003;3.943306e-001
1.027916e+003;3.968490e-001
1.029845e+003;3.976487e-001
1.031773e+003;3.967449e-001
1.033702e+003;3.947656e-001
1.035630e+003;3.905503e-001
1.037559e+003;3.849233e-001
1.039487e+003;3.787283e-001
1.041416e+003;3.738467e-001
1.043344e+003;3.707564e-001
1.045273e+003;3.695867e-001
1.047202e+003;3.701837e-001
1.049130e+003;3.711408e-001
1.051059e+003;3.723440e-001
1.052987e+003;3.725221e-001
1.054916e+003;3.703589e-001
1.056844e+003;3.663986e-001
1.058773e+003;3.602751e-001
1.060701e+003;3.505651e-001
1.062630e+003;3.379948e-001
1.064558e+003;3.237563e-001
1.066487e+003;3.104869e-001
1.068416e+003;2.986461e-001
1.070344e+003;2.884645e-001
1.072273e+003;2.811554e-001
1.074201e+003;2.752413e-001
1.076130e+003;2.699463e-001
1.078058e+003;2.646179e-001
1.079987e+003;2.599280e-001
1.081915e+003;2.562245e-001
1.083844e+003;2.530624e-001
1.085773e+003;2.519547e-001
1.087701e+003;2.518299e-001
1.089630e+003;2.512053e-001
1.091558e+003;2.502938e-001
1.093487e+003;2.511388e-001
1.095415e+003;2.522424e-001
1.097344e+003;2.534799e-001
1.099272e+003;2.551854e-001
1.101201e+003;2.559544e-001
1.103129e+003;2.551725e-001
1.105058e+003;2.527609e-001
1.106987e+003;2.493280e-001
1.108915e+003;2.456156e-001
1.110844e+003;2.416627e-001
1.112772e+003;2.353615e-001
1.114701e+003;2.276411e-001
1.116629e+003;2.190105e-001
1.118558e+003;2.093863e-001
1.120486e+003;2.006468e-001
1.122415e+003;1.933620e-001
1.124344e+003;1.862723e-001
1.126272e+003;1.796630e-001
1.128201e+003;1.732132e-001
1.130129e+003;1.669948e-001
1.132058e+003;1.617457e-001
1.133986e+003;1.571889e-001
1.135915e+003;1.531182e-001
1.137843e+003;1.505536e-001
1.139772e+003;1.501650e-001
1.141700e+003;1.503806e-001
1.143629e+003;1.510418e-001
1.145557e+003;1.524345e-001
1.147486e+003;1.537378e-001
1.149415e+003;1.548100e-001
1.151343e+003;1.553330e-001
1.153272e+003;1.555970e-001
1.155200e+003;1.562708e-001
1.157129e+003;1.573647e-001
1.159057e+003;1.577999e-001
1.160986e+003;1.569641e-001
1.162914e+003;1.543934e-001
1.164843e+003;1.495697e-001
1.166771e+003;1.431514e-001
1.168700e+003;1.364827e-001
1.170629e+003;1.296558e-001
1.172557e+003;1.230566e-001
1.174486e+003;1.170142e-001
1.176414e+003;1.121879e-001
1.178343e+003;1.082346e-001
1.180271e+003;1.052217e-001
1.182200e+003;1.037697e-001
1.184128e+003;1.029694e-001
1.186057e+003;1.024161e-001
1.187986e+003;1.027547e-001
1.189914e+003;1.042100e-001
1.191843e+003;1.068001e-001
1.193771e+003;1.091757e-001
1.195700e+003;1.107922e-001
1.197628e+003;1.126888e-001
1.199557e+003;1.145212e-001
1.201485e+003;1.155516e-001
1.203414e+003;1.155107e-001
1.205343e+003;1.144010e-001
1.207271e+003;1.122425e-001
1.209200e+003;1.093640e-001
1.211128e+003;1.064674e-001
1.213057e+003;1.046381e-001
1.214985e+003;1.036484e-001
1.216914e+003;1.032582e-001
1.218842e+003;1.038506e-001
1.220771e+003;1.056469e-001
1.222699e+003;1.076043e-001
1.224628e+003;1.091718e-001
1.226557e+003;1.107789e-001
1.228485e+003;1.125936e-001
1.230414e+003;1.141995e-001
1.232342e+003;1.156675e-001
1.234271e+003;1.169119e-001
1.236199e+003;1.174065e-001
1.238128e+003;1.177350e-001
1.240056e+003;1.178426e-001
1.241985e+003;1.182407e-001
1.243913e+003;1.192355e-001
1.245842e+003;1.205236e-001
1.247771e+003;1.211554e-001
1.249699e+003;1.210432e-001
1.251628e+003;1.209526e-001
1.253556e+003;1.214216e-001
1.255485e+003;1.214472e-001
1.257413e+003;1.214066e-001
1.259342e+003;1.219201e-001
1.261270e+003;1.222737e-001
1.263199e+003;1.226998e-001
1.265127e+003;1.231131e-001
1.267056e+003;1.233568e-001
1.268985e+003;1.235029e-001
1.270913e+003;1.236401e-001
1.272842e+003;1.240964e-001
1.274770e+003;1.246825e-001
1.276699e+003;1.250791e-001
1.278627e+003;1.250261e-001
1.280556e+003;1.244482e-001
1.282484e+003;1.238221e-001
1.284413e+003;1.235566e-001
1.286342e+003;1.233474e-001
1.288270e+003;1.228795e-001
1.290199e+003;1.228024e-001
1.292127e+003;1.235645e-001
1.294056e+003;1.246593e-001
1.295984e+003;1.262417e-001
1.297913e+003;1.283318e-001
1.299841e+003;1.303641e-001
1.301770e+003;1.329848e-001
1.303698e+003;1.364902e-001
1.305627e+003;1.401518e-001
1.307556e+003;1.440706e-001
1.309484e+003;1.481661e-001
1.311413e+003;1.514598e-001
1.313341e+003;1.535391e-001
1.315270e+003;1.543525e-001
1.317198e+003;1.536887e-001
1.319127e+003;1.515577e-001
1.321055e+003;1.486447e-001
1.322984e+003;1.462912e-001
1.324912e+003;1.443589e-001
1.326841e+003;1.430402e-001
1.328770e+003;1.429224e-001
1.330698e+003;1.434264e-001
1.332627e+003;1.442356e-001
1.334555e+003;1.451591e-001
1.336484e+003;1.450897e-001
1.338412e+003;1.440667e-001
1.340341e+003;1.426115e-001
1.342269e+003;1.409595e-001
1.344198e+003;1.389842e-001
1.346126e+003;1.368785e-001
1.348055e+003;1.352302e-001
1.349984e+003;1.344864e-001
1.351912e+003;1.347366e-001
1.353841e+003;1.356349e-001
1.355769e+003;1.368515e-001
1.357698e+003;1.379458e-001
1.359626e+003;1.385081e-001
1.361555e+003;1.386046e-001
1.363483e+003;1.381706e-001
1.365412e+003;1.373618e-001
1.367341e+003;1.364715e-001
1.369269e+003;1.356654e-001
1.371198e+003;1.346948e-001
1.373126e+003;1.332021e-001
1.375055e+003;1.307261e-001
1.376983e+003;1.280403e-001
1.378912e+003;1.258311e-001
1.380840e+003;1.238811e-001
1.382769e+003;1.215577e-001
1.384698e+003;1.193517e-001
1.386626e+003;1.173880e-001
1.388555e+003;1.160306e-001
1.390483e+003;1.154935e-001
1.392412e+003;1.152997e-001
1.394340e+003;1.151892e-001
1.396269e+003;1.153013e-001
1.398197e+003;1.155329e-001
1.400126e+003;1.160887e-001
1.402054e+003;1.167159e-001
1.403983e+003;1.170730e-001
1.405911e+003;1.174986e-001
1.407840e+003;1.179676e-001
1.409769e+003;1.186520e-001
1.411697e+003;1.195166e-001
1.413626e+003;1.203580e-001
1.415554e+003;1.211170e-001
1.417483e+003;1.216725e-001
1.419411e+003;1.223694e-001
1.421340e+003;1.241630e-001
1.423268e+003;1.255345e-001
1.425197e+003;1.262275e-001
1.427125e+003;1.263323e-001
1.429054e+003;1.253442e-001
1.430983e+003;1.246054e-001
1.432911e+003;1.235600e-001
1.434840e+003;1.217391e-001
1.436768e+003;1.195818e-001
1.438697e+003;1.181313e-001
1.440625e+003;1.169484e-001
1.442554e+003;1.158572e-001
1.444482e+003;1.149642e-001
1.446411e+003;1.142146e-001
1.448340e+003;1.135363e-001
1.450268e+003;1.128541e-001
1.452197e+003;1.121182e-001
1.454125e+003;1.108545e-001
1.456054e+003;1.084289e-001
1.457982e+003;1.072617e-001
1.459911e+003;1.069044e-001
1.461839e+003;1.054253e-001
1.463768e+003;1.032346e-001
1.465697e+003;1.012308e-001
1.467625e+003;9.944148e-002
1.469554e+003;9.750978e-002
1.471482e+003;9.542798e-002
1.473411e+003;9.354067e-002
1.475339e+003;9.175410e-002
1.477268e+003;9.021011e-002
1.479196e+003;8.888130e-002
1.481125e+003;8.726791e-002
1.483053e+003;8.546584e-002
1.484982e+003;8.340318e-002
1.486911e+003;8.131650e-002
1.488839e+003;7.961699e-002
1.490768e+003;7.881646e-002
1.492696e+003;7.828555e-002
1.494625e+003;7.723426e-002
1.496553e+003;7.614432e-002
1.498482e+003;7.563351e-002
1.500410e+003;7.557254e-002
1.502339e+003;7.546522e-002
1.504267e+003;7.442435e-002
1.506196e+003;7.309781e-002
1.508125e+003;7.380785e-002
1.510053e+003;7.520106e-002
1.511982e+003;7.555125e-002
1.513910e+003;7.544050e-002
1.515839e+003;7.520819e-002
1.517767e+003;7.502857e-002
1.519696e+003;7.452177e-002
1.521624e+003;7.405423e-002
1.523553e+003;7.472665e-002
1.525481e+003;7.509178e-002
1.527410e+003;7.541682e-002
1.529339e+003;7.601065e-002
1.531267e+003;7.620924e-002
1.533196e+003;7.612964e-002
1.535124e+003;7.674655e-002
1.537053e+003;7.656116e-002
1.538981e+003;7.499903e-002
1.540910e+003;7.511482e-002
1.542838e+003;7.649177e-002
1.544767e+003;7.765111e-002
1.546695e+003;7.878170e-002
1.548624e+003;7.934213e-002
1.550553e+003;7.950541e-002
1.552481e+003;7.953135e-002
1.554410e+003;7.943383e-002
1.556338e+003;7.952081e-002
1.558267e+003;7.893956e-002
1.560195e+003;7.971229e-002
1.562124e+003;8.176701e-002
1.564052e+003;8.294840e-002
1.565981e+003;8.356826e-002
1.567910e+003;8.371887e-002
1.569838e+003;8.396977e-002
1.571767e+003;8.501918e-002
1.573695e+003;8.537839e-002
1.575624e+003;8.486035e-002
1.577552e+003;8.581524e-002
1.579481e+003;8.718463e-002
1.581409e+003;8.827729e-002
1.583338e+003;8.910734e-002
1.585266e+003;8.963145e-002
1.587195e+003;9.005965e-002
1.589124e+003;9.023291e-002
1.591052e+003;9.068856e-002
1.592981e+003;9.136505e-002
1.594909e+003;9.207461e-002
1.596838e+003;9.259970e-002
1.598766e+003;9.307446e-002
1.600695e+003;9.368116e-002
1.602623e+003;9.416728e-002
1.604552e+003;9.461143e-002
1.606480e+003;9.490561e-002
1.608409e+003;9.518513e-002
1.610338e+003;9.551524e-002
1.612266e+003;9.564192e-002
1.614195e+003;9.520625e-002
1.616123e+003;9.434821e-002
1.618052e+003;9.469025e-002
1.619980e+003;9.525432e-002
1.621909e+003;9.492618e-002
1.623837e+003;9.468897e-002
1.625766e+003;9.504246e-002
1.627694e+003;9.507231e-002
1.629623e+003;9.487592e-002
1.631552e+003;9.485692e-002
1.633480e+003;9.438959e-002
1.635409e+003;9.367763e-002
1.637337e+003;9.396805e-002
1.639266e+003;9.439696e-002
1.641194e+003;9.428546e-002
1.643123e+003;9.377186e-002
1.645051e+003;9.256808e-002
1.646980e+003;9.195994e-002
1.648909e+003;9.182430e-002
1.650837e+003;9.000584e-002
1.652766e+003;8.781495e-002
1.654694e+003;8.837056e-002
1.656623e+003;8.916710e-002
1.658551e+003;8.882938e-002
1.660480e+003;8.812838e-002
1.662408e+003;8.717722e-002
1.664337e+003;8.654904e-002
1.666266e+003;8.587556e-002
1.668194e+003;8.440562e-002
1.670123e+003;8.335251e-002
1.672051e+003;8.275630e-002
1.673980e+003;8.131526e-002
1.675908e+003;8.035959e-002
1.677837e+003;7.990855e-002
1.679765e+003;7.865945e-002
1.681694e+003;7.728398e-002
1.683622e+003;7.508717e-002
1.685551e+003;7.431971e-002
1.687479e+003;7.489571e-002
1.689408e+003;7.448350e-002
1.691337e+003;7.352068e-002
1.693265e+003;7.198319e-002
1.695194e+003;7.005223e-002
1.697122e+003;6.935929e-002
1.699051e+003;6.833060e-002
1.700979e+003;6.761613e-002
1.702908e+003;6.795220e-002
1.704836e+003;6.748459e-002
1.706765e+003;6.710321e-002
1.708693e+003;6.677634e-002
1.710622e+003;6.655715e-002
1.712551e+003;6.602959e-002
1.714479e+003;6.532159e-002
1.716408e+003;6.425741e-002
1.718336e+003;6.389245e-002
1.720265e+003;6.445751e-002
1.722193e+003;6.489450e-002
1.724122e+003;6.541760e-002
1.726050e+003;6.551673e-002
1.727979e+003;6.497877e-002
1.729908e+003;6.436642e-002
1.731836e+003;6.330164e-002
1.733765e+003;6.199288e-002
1.735693e+003;6.237596e-002
1.737622e+003;6.254689e-002
1.739550e+003;6.122069e-002
1.741479e+003;6.019010e-002
1.743407e+003;5.961137e-002
1.745336e+003;5.889466e-002
1.747265e+003;5.793985e-002
1.749193e+003;5.687931e-002
1.751122e+003;5.583425e-002
1.753050e+003;5.532384e-002
1.754979e+003;5.490132e-002
1.756907e+003;5.443741e-002
1.758836e+003;5.393010e-002
1.760764e+003;5.309863e-002
1.762693e+003;5.274534e-002
1.764621e+003;5.277681e-002
1.766550e+003;5.205925e-002
1.768479e+003;5.157713e-002
1.770407e+003;5.117830e-002
1.772336e+003;5.061923e-002
1.774264e+003;5.080892e-002
1.776193e+003;5.105958e-002
1.778121e+003;5.092321e-002
1.780050e+003;5.044063e-002
1.781978e+003;4.994715e-002
1.783907e+003;4.966852e-002
1.785835e+003;4.961841e-002
1.787764e+003;4.964385e-002
1.789693e+003;4.923035e-002
1.791621e+003;4.866106e-002
1.793550e+003;4.868497e-002
1.795478e+003;4.903727e-002
1.797407e+003;4.890994e-002
1.799335e+003;4.868842e-002
1.801264e+003;4.863831e-002
1.803192e+003;4.873175e-002
1.805121e+003;4.856060e-002
1.807049e+003;4.839145e-002
1.808978e+003;4.817419e-002
1.810907e+003;4.796096e-002
1.812835e+003;4.783192e-002
1.814764e+003;4.792448e-002
1.816692e+003;4.819829e-002
1.818621e+003;4.831074e-002
1.820549e+003;4.797828e-002
1.822478e+003;4.747125e-002
1.824406e+003;4.725885e-002
1.826335e+003;4.764219e-002
1.828264e+003;4.767879e-002
1.830192e+003;4.747106e-002
1.832121e+003;4.768760e-002
1.834049e+003;4.778568e-002
1.835978e+003;4.731441e-002
1.837906e+003;4.675066e-002
1.839835e+003;4.676660e-002
1.841763e+003;4.682620e-002
1.843692e+003;4.624086e-002
1.845620e+003;4.635059e-002
1.847549e+003;4.685731e-002
1.849478e+003;4.683727e-002
1.851406e+003;4.674826e-002
1.853335e+003;4.666462e-002
1.855263e+003;4.673081e-002
1.857192e+003;4.672900e-002
1.859120e+003;4.667443e-002
1.861049e+003;4.652419e-002
1.862977e+003;4.630849e-002
1.864906e+003;4.622217e-002
1.866834e+003;4.606041e-002
1.868763e+003;4.574505e-002
1.870692e+003;4.583533e-002
1.872620e+003;4.621041e-002
1.874549e+003;4.621391e-002
1.876477e+003;4.625073e-002
1.878406e+003;4.635634e-002
1.880334e+003;4.634900e-002
1.882263e+003;4.642455e-002
1.884191e+003;4.634856e-002
1.886120e+003;4.623967e-002
1.888048e+003;4.626017e-002
1.889977e+003;4.614798e-002
1.891906e+003;4.621299e-002
1.893834e+003;4.629706e-002
1.895763e+003;4.646504e-002
1.897691e+003;4.651991e-002
1.899620e+003;4.626562e-002
1.901548e+003;4.605499e-002
1.903477e+003;4.633677e-002
1.905405e+003;4.651810e-002
1.907334e+003;4.662205e-002
1.909262e+003;4.660751e-002
1.911191e+003;4.673155e-002
1.913120e+003;4.702288e-002
1.915048e+003;4.725002e-002
1.916977e+003;4.735055e-002
1.918905e+003;4.733115e-002
1.920834e+003;4.735424e-002
1.922762e+003;4.722394e-002
1.924691e+003;4.726136e-002
1.926619e+003;4.749409e-002
1.928548e+003;4.760666e-002
1.930477e+003;4.758517e-002
1.932405e+003;4.769481e-002
1.934334e+003;4.783817e-002
1.936262e+003;4.781956e-002
1.938191e+003;4.775853e-002
1.940119e+003;4.753549e-002
1.942048e+003;4.757216e-002
1.943976e+003;4.806092e-002
1.945905e+003;4.827856e-002
1.947833e+003;4.841130e-002
1.949762e+003;4.860210e-002
1.951691e+003;4.872259e-002
1.953619e+003;4.886073e-002
1.955548e+003;4.886073e-002
1.957476e+003;4.896735e-002
1.959405e+003;4.927322e-002
1.961333e+003;4.935005e-002
1.963262e+003;4.915116e-002
1.965190e+003;4.893690e-002
1.967119e+003;4.900121e-002
1.969047e+003;4.929667e-002
1.970976e+003;4.948668e-002
1.972905e+003;4.950153e-002
1.974833e+003;4.959029e-002
1.976762e+003;5.004849e-002
1.978690e+003;5.036204e-002
1.980619e+003;5.050413e-002
1.982547e+003;5.061167e-002
1.984476e+003;5.054154e-002
1.986404e+003;5.062046e-002
1.988333e+003;5.096203e-002
1.990261e+003;5.085086e-002
1.992190e+003;5.069723e-002
1.994119e+003;5.092678e-002
1.996047e+003;5.096370e-002
1.997976e+003;5.103230e-002
1.999904e+003;5.127288e-002
2.001833e+003;5.159516e-002
2.003761e+003;5.168102e-002
2.005690e+003;5.170647e-002
2.007618e+003;5.191625e-002
2.009547e+003;5.212657e-002
2.011476e+003;5.233882e-002
2.013404e+003;5.249830e-002
2.015333e+003;5.271717e-002
2.017261e+003;5.287829e-002
2.019190e+003;5.284727e-002
2.021118e+003;5.308084e-002
2.023047e+003;5.346468e-002
2.024975e+003;5.361434e-002
2.026904e+003;5.364268e-002
2.028833e+003;5.366502e-002
2.030761e+003;5.403609e-002
2.032690e+003;5.430875e-002
2.034618e+003;5.427643e-002
2.036547e+003;5.435866e-002
2.038475e+003;5.481748e-002
2.040404e+003;5.502015e-002
2.042332e+003;5.499984e-002
2.044261e+003;5.511862e-002
2.046189e+003;5.516911e-002
2.048118e+003;5.519281e-002
2.050047e+003;5.527868e-002
2.051975e+003;5.538873e-002
2.053904e+003;5.549594e-002
2.055832e+003;5.547441e-002
2.057761e+003;5.534063e-002
2.059689e+003;5.532531e-002
2.061618e+003;5.543529e-002
2.063546e+003;5.540951e-002
2.065475e+003;5.541767e-002
2.067404e+003;5.542061e-002
2.069332e+003;5.544225e-002
2.071260e+003;5.536373e-002
2.073189e+003;5.534450e-002
2.075118e+003;5.565358e-002
2.077046e+003;5.564167e-002
2.078975e+003;5.513299e-002
2.080903e+003;5.498156e-002
2.082832e+003;5.520146e-002
2.084760e+003;5.542908e-002
2.086689e+003;5.564303e-002
2.088617e+003;5.565350e-002
2.090546e+003;5.569023e-002
2.092475e+003;5.564940e-002
2.094403e+003;5.561365e-002
2.096332e+003;5.555720e-002
2.098260e+003;5.547858e-002
2.100189e+003;5.565229e-002
2.102117e+003;5.593042e-002
2.104046e+003;5.597629e-002
2.105974e+003;5.604218e-002
2.107903e+003;5.625473e-002
2.109832e+003;5.635205e-002
2.111760e+003;5.621464e-002
2.113688e+003;5.621396e-002
2.115617e+003;5.624372e-002
2.117546e+003;5.655593e-002
2.119474e+003;5.664418e-002
2.121403e+003;5.655944e-002
2.123331e+003;5.665883e-002
2.125260e+003;5.683750e-002
2.127188e+003;5.720536e-002
2.129117e+003;5.730690e-002
2.131045e+003;5.725560e-002
2.132974e+003;5.755487e-002
2.134903e+003;5.786988e-002
2.136831e+003;5.774380e-002
2.138760e+003;5.755242e-002
2.140688e+003;5.745101e-002
2.142617e+003;5.761280e-002
2.144545e+003;5.760360e-002
2.146474e+003;5.738532e-002
2.148402e+003;5.725117e-002
2.150331e+003;5.708105e-002
2.152260e+003;5.700303e-002
2.154188e+003;5.715698e-002
2.156117e+003;5.712221e-002
2.158045e+003;5.707168e-002
2.159974e+003;5.694288e-002
2.161902e+003;5.680650e-002
2.163831e+003;5.659073e-002
2.165759e+003;5.618225e-002
2.167688e+003;5.636277e-002
2.169616e+003;5.643389e-002
2.171545e+003;5.618357e-002
2.173474e+003;5.611717e-002
2.175402e+003;5.597629e-002
2.177331e+003;5.585878e-002
2.179259e+003;5.562202e-002
2.181188e+003;5.519025e-002
2.183116e+003;5.492497e-002
2.185045e+003;5.506946e-002
2.186973e+003;5.508744e-002
2.188902e+003;5.487699e-002
2.190831e+003;5.483233e-002
2.192759e+003;5.486797e-002
2.194688e+003;5.477910e-002
2.196616e+003;5.492858e-002
2.198545e+003;5.498544e-002
2.200473e+003;5.465113e-002
2.202402e+003;5.439163e-002
2.204330e+003;5.417822e-002
2.206259e+003;5.390196e-002
2.208188e+003;5.405771e-002
2.210116e+003;5.424774e-002
2.212044e+003;5.423896e-002
2.213973e+003;5.437345e-002
2.215902e+003;5.435422e-002
2.217830e+003;5.420446e-002
2.219759e+003;5.437007e-002
2.221687e+003;5.471145e-002
2.223616e+003;5.509564e-002
2.225544e+003;5.533626e-002
2.227473e+003;5.499179e-002
2.229401e+003;5.449687e-002
2.231330e+003;5.459831e-002
2.233259e+003;5.473787e-002
2.235187e+003;5.480316e-002
2.237116e+003;5.470408e-002
2.239044e+003;5.470514e-002
2.240973e+003;5.491989e-002
2.242901e+003;5.469653e-002
2.244830e+003;5.453680e-002
2.246758e+003;5.463979e-002
2.248687e+003;5.439452e-002
2.250615e+003;5.419504e-002
2.252544e+003;5.411336e-002
2.254473e+003;5.421411e-002
2.256401e+003;5.442036e-002
2.258330e+003;5.451753e-002
2.260258e+003;5.459541e-002
2.262187e+003;5.470946e-002
2.264115e+003;5.449969e-002
2.266044e+003;5.410769e-002
2.267972e+003;5.402697e-002
2.269901e+003;5.396619e-002
2.271830e+003;5.366008e-002
2.273758e+003;5.332941e-002
2.275687e+003;5.343384e-002
2.277615e+003;5.371860e-002
2.279544e+003;5.366566e-002
2.281472e+003;5.338314e-002
2.283401e+003;5.333357e-002
2.285329e+003;5.346269e-002
2.287258e+003;5.355230e-002
2.289187e+003;5.369307e-002
2.291115e+003;5.388508e-002
2.293043e+003;5.371613e-002
2.294972e+003;5.342893e-002
2.296901e+003;5.321487e-002
2.298829e+003;5.300495e-002
2.300758e+003;5.308593e-002
2.302686e+003;5.292650e-002
2.304615e+003;5.262111e-002
2.306543e+003;5.281569e-002
2.308472e+003;5.279065e-002
2.310400e+003;5.229946e-002
2.312329e+003;5.175929e-002
2.314258e+003;5.115958e-002
2.316186e+003;5.064655e-002
2.318115e+003;5.028879e-002
2.320043e+003;4.989303e-002
2.321972e+003;4.956162e-002
2.323900e+003;4.884690e-002
2.325829e+003;4.779907e-002
2.327757e+003;4.732239e-002
2.329686e+003;4.693099e-002
2.331615e+003;4.616158e-002
2.333543e+003;4.596212e-002
2.335472e+003;4.618318e-002
2.337400e+003;4.626249e-002
2.339329e+003;4.637437e-002
2.341257e+003;4.710161e-002
2.343186e+003;4.873282e-002
2.345114e+003;5.059953e-002
2.347043e+003;5.210807e-002
2.348971e+003;5.277535e-002
2.350900e+003;5.157388e-002
2.352829e+003;4.947476e-002
2.354757e+003;4.793310e-002
2.356686e+003;4.661728e-002
2.358614e+003;4.542149e-002
2.360543e+003;4.475113e-002
2.362471e+003;4.498575e-002
2.364400e+003;4.595262e-002
2.366328e+003;4.703355e-002
2.368257e+003;4.784113e-002
2.370186e+003;4.930291e-002
2.372114e+003;5.139456e-002
2.374042e+003;5.314318e-002
2.375971e+003;5.452674e-002
2.377900e+003;5.555050e-002
2.379828e+003;5.636280e-002
2.381757e+003;5.714273e-002
2.383685e+003;5.758733e-002
2.385614e+003;5.782513e-002
2.387542e+003;5.821258e-002
2.389471e+003;5.859059e-002
2.391399e+003;5.866006e-002
2.393328e+003;5.865396e-002
2.395257e+003;5.869773e-002
2.397185e+003;5.891838e-002
2.399114e+003;5.912323e-002
2.401042e+003;5.911674e-002
2.402971e+003;5.940914e-002
2.404899e+003;5.972598e-002
2.406828e+003;5.974541e-002
2.408756e+003;5.987695e-002
2.410685e+003;6.000011e-002
2.412614e+003;5.998973e-002
2.414542e+003;6.025271e-002
2.416471e+003;6.051876e-002
2.418399e+003;6.097522e-002
2.420328e+003;6.138644e-002
2.422256e+003;6.119062e-002
2.424185e+003;6.115378e-002
2.426113e+003;6.147419e-002
2.428042e+003;6.159582e-002
2.429970e+003;6.178602e-002
2.431899e+003;6.221009e-002
2.433828e+003;6.238253e-002
2.435756e+003;6.247224e-002
2.437685e+003;6.266505e-002
2.439613e+003;6.284908e-002
2.441542e+003;6.309951e-002
2.443470e+003;6.324506e-002
2.445399e+003;6.351087e-002
2.447327e+003;6.387548e-002
2.449256e+003;6.404279e-002
2.451185e+003;6.409241e-002
2.453113e+003;6.409187e-002
2.455042e+003;6.389771e-002
2.456970e+003;6.404752e-002
2.458899e+003;6.456279e-002
2.460827e+003;6.486919e-002
2.462756e+003;6.484929e-002
2.464684e+003;6.489924e-002
2.466613e+003;6.498974e-002
2.468542e+003;6.503457e-002
2.470470e+003;6.523136e-002
2.472398e+003;6.548213e-002
2.474327e+003;6.555892e-002
2.476256e+003;6.568255e-002
2.478184e+003;6.603051e-002
2.480113e+003;6.619426e-002
2.482041e+003;6.616435e-002
2.483970e+003;6.628916e-002
2.485898e+003;6.664487e-002
2.487827e+003;6.669014e-002
2.489755e+003;6.660933e-002
2.491684e+003;6.680223e-002
2.493613e+003;6.700574e-002
2.495541e+003;6.716525e-002
2.497470e+003;6.742952e-002
2.499398e+003;6.740054e-002
2.501327e+003;6.753681e-002
2.503255e+003;6.777032e-002
2.505184e+003;6.795255e-002
2.507112e+003;6.807547e-002
2.509041e+003;6.843843e-002
2.510969e+003;6.887138e-002
2.512898e+003;6.906008e-002
2.514827e+003;6.884629e-002
2.516755e+003;6.894252e-002
2.518684e+003;6.933049e-002
2.520612e+003;6.921332e-002
2.522541e+003;6.909528e-002
2.524469e+003;6.921351e-002
2.526398e+003;6.927312e-002
2.528326e+003;6.941648e-002
2.530255e+003;6.940252e-002
2.532184e+003;6.947055e-002
2.534112e+003;6.985507e-002
2.536041e+003;7.008633e-002
2.537969e+003;7.018591e-002
2.539898e+003;7.032921e-002
2.541826e+003;7.029287e-002
2.543755e+003;6.994155e-002
2.545683e+003;6.983121e-002
2.547612e+003;6.998675e-002
2.549541e+003;7.025407e-002
2.551469e+003;7.059893e-002
2.553397e+003;7.088040e-002
2.555326e+003;7.089132e-002
2.557255e+003;7.070252e-002
2.559183e+003;7.052787e-002
2.561112e+003;7.066899e-002
2.563040e+003;7.108375e-002
2.564969e+003;7.151017e-002
2.566897e+003;7.140210e-002
2.568826e+003;7.097583e-002
2.570754e+003;7.118028e-002
2.572683e+003;7.161237e-002
2.574612e+003;7.155088e-002
2.576540e+003;7.122755e-002
2.578469e+003;7.130122e-002
2.580397e+003;7.147705e-002
2.582326e+003;7.147302e-002
2.584254e+003;7.155361e-002
2.586183e+003;7.188840e-002
2.588111e+003;7.225659e-002
2.590040e+003;7.240576e-002
2.591969e+003;7.243120e-002
2.593897e+003;7.234966e-002
2.595826e+003;7.252461e-002
2.597754e+003;7.269979e-002
2.599683e+003;7.284664e-002
2.601611e+003;7.279707e-002
2.603540e+003;7.249642e-002
2.605468e+003;7.232551e-002
2.607397e+003;7.248409e-002
2.609325e+003;7.274610e-002
2.611254e+003;7.306656e-002
2.613183e+003;7.341252e-002
2.615111e+003;7.358904e-002
2.617040e+003;7.381587e-002
2.618968e+003;7.400441e-002
2.620897e+003;7.396768e-002
2.622825e+003;7.396469e-002
2.624754e+003;7.413699e-002
2.626682e+003;7.425724e-002
2.628611e+003;7.460348e-002
2.630540e+003;7.486284e-002
2.632468e+003;7.498107e-002
2.634396e+003;7.537295e-002
2.636325e+003;7.554971e-002
2.638254e+003;7.543460e-002
2.640182e+003;7.543692e-002
2.642111e+003;7.547197e-002
2.644039e+003;7.570884e-002
2.645968e+003;7.620403e-002
2.647896e+003;7.651018e-002
2.649825e+003;7.653662e-002
2.651753e+003;7.665148e-002
2.653682e+003;7.693535e-002
2.655611e+003;7.724570e-002
2.657539e+003;7.751416e-002
2.659468e+003;7.734407e-002
2.661396e+003;7.759529e-002
2.663325e+003;7.821172e-002
2.665253e+003;7.823111e-002
2.667182e+003;7.800479e-002
2.669110e+003;7.815126e-002
2.671039e+003;7.872856e-002
2.672968e+003;7.892418e-002
2.674896e+003;7.873495e-002
2.676825e+003;7.874357e-002
2.678753e+003;7.890256e-002
2.680682e+003;7.910247e-002
2.682610e+003;7.925829e-002
2.684539e+003;7.956983e-002
2.686467e+003;7.977248e-002
2.688396e+003;7.990731e-002
2.690324e+003;8.006279e-002
2.692253e+003;8.022286e-002
2.694182e+003;8.060629e-002
2.696110e+003;8.080655e-002
2.698039e+003;8.075739e-002
2.699967e+003;8.088929e-002
2.701896e+003;8.109883e-002
2.703824e+003;8.114900e-002
2.705753e+003;8.130064e-002
2.707681e+003;8.161184e-002
2.709610e+003;8.187266e-002
2.711539e+003;8.227468e-002
2.713467e+003;8.248249e-002
2.715396e+003;8.236127e-002
2.717324e+003;8.216853e-002
2.719253e+003;8.228485e-002
2.721181e+003;8.241254e-002
2.723110e+003;8.256514e-002
2.725038e+003;8.307440e-002
2.726967e+003;8.313045e-002
2.728896e+003;8.307163e-002
2.730824e+003;8.333340e-002
2.732752e+003;8.362695e-002
2.734681e+003;8.387230e-002
2.736610e+003;8.391980e-002
2.738538e+003;8.387318e-002
2.740467e+003;8.426020e-002
2.742395e+003;8.424452e-002
2.744324e+003;8.395417e-002
2.746252e+003;8.404620e-002
2.748181e+003;8.403028e-002
2.750109e+003;8.429854e-002
2.752038e+003;8.509660e-002
2.753967e+003;8.531838e-002
2.755895e+003;8.494161e-002
2.757824e+003;8.447653e-002
2.759752e+003;8.466312e-002
2.761681e+003;8.521314e-002
2.763609e+003;8.526636e-002
2.765538e+003;8.538993e-002
2.767466e+003;8.575489e-002
2.769395e+003;8.591990e-002
2.771323e+003;8.584952e-002
2.773252e+003;8.599506e-002
2.775181e+003;8.634958e-002
2.777109e+003;8.665249e-002
2.779038e+003;8.683060e-002
2.780966e+003;8.693384e-002
2.782895e+003;8.721853e-002
2.784823e+003;8.751739e-002
2.786752e+003;8.764009e-002
2.788680e+003;8.798821e-002
2.790609e+003;8.828135e-002
2.792538e+003;8.810667e-002
2.794466e+003;8.814652e-002
2.796395e+003;8.854640e-002
2.798323e+003;8.878483e-002
2.800252e+003;8.902725e-002
2.802180e+003;8.950379e-002
2.804109e+003;8.998945e-002
2.806037e+003;8.999222e-002
2.807966e+003;9.009761e-002
2.809895e+003;9.071580e-002
2.811823e+003;9.140737e-002
2.813751e+003;9.195216e-002
2.815680e+003;9.223774e-002
2.817609e+003;9.228905e-002
2.819537e+003;9.267241e-002
2.821466e+003;9.331888e-002
2.823394e+003;9.365695e-002
2.825323e+003;9.405490e-002
2.827251e+003;9.470578e-002
2.829180e+003;9.562293e-002
2.831108e+003;9.643294e-002
2.833037e+003;9.661063e-002
2.834966e+003;9.693549e-002
2.836894e+003;9.747187e-002
2.838823e+003;9.806798e-002
2.840751e+003;9.896662e-002
2.842680e+003;1.000630e-001
2.844608e+003;1.010545e-001
2.846537e+003;1.023637e-001
2.848465e+003;1.039703e-001
2.850394e+003;1.055121e-001
2.852323e+003;1.066172e-001
2.854251e+003;1.072368e-001
2.856180e+003;1.076424e-001
2.858108e+003;1.081534e-001
2.860037e+003;1.089152e-001
2.861965e+003;1.096895e-001
2.863894e+003;1.106560e-001
2.865822e+003;1.115468e-001
2.867751e+003;1.120773e-001
2.869679e+003;1.125581e-001
2.871608e+003;1.130264e-001
2.873536e+003;1.135145e-001
2.875465e+003;1.137536e-001
2.877394e+003;1.137228e-001
2.879322e+003;1.145933e-001
2.881251e+003;1.153209e-001
2.883179e+003;1.152590e-001
2.885108e+003;1.156685e-001
2.887036e+003;1.162273e-001
2.888965e+003;1.166248e-001
2.890893e+003;1.169659e-001
2.892822e+003;1.172357e-001
2.894750e+003;1.174590e-001
2.896679e+003;1.174948e-001
2.898608e+003;1.175056e-001
2.900536e+003;1.174596e-001
2.902465e+003;1.171703e-001
2.904393e+003;1.166670e-001
2.906322e+003;1.161932e-001
2.908250e+003;1.153503e-001
2.910179e+003;1.142548e-001
2.912107e+003;1.133705e-001
2.914036e+003;1.128397e-001
2.915965e+003;1.124720e-001
2.917893e+003;1.117038e-001
2.919822e+003;1.113435e-001
2.921750e+003;1.108275e-001
2.923679e+003;1.096559e-001
2.925607e+003;1.088631e-001
2.927536e+003;1.086202e-001
2.929464e+003;1.078744e-001
2.931393e+003;1.064140e-001
2.933322e+003;1.054858e-001
2.935250e+003;1.048827e-001
2.937178e+003;1.041154e-001
2.939107e+003;1.031681e-001
2.941036e+003;1.024122e-001
2.942964e+003;1.017046e-001
2.944893e+003;1.007673e-001
2.946821e+003;9.964529e-002
2.948750e+003;9.838599e-002
2.950678e+003;9.754628e-002
2.952607e+003;9.668335e-002
2.954535e+003;9.565918e-002
2.956464e+003;9.499182e-002
2.958393e+003;9.413218e-002
2.960321e+003;9.302754e-002
2.962250e+003;9.260552e-002
2.964178e+003;9.240306e-002
2.966107e+003;9.218403e-002
2.968035e+003;9.198295e-002
2.969964e+003;9.135715e-002
2.971892e+003;9.076475e-002
2.973821e+003;9.059548e-002
2.975750e+003;9.026966e-002
2.977678e+003;8.931673e-002
2.979607e+003;8.855404e-002
2.981535e+003;8.813447e-002
2.983464e+003;8.730578e-002
2.985392e+003;8.661642e-002
2.987321e+003;8.652004e-002
2.989249e+003;8.616651e-002
2.991178e+003;8.583035e-002
2.993106e+003;8.572474e-002
2.995035e+003;8.539872e-002
2.996964e+003;8.527878e-002
2.998892e+003;8.553962e-002
3.000821e+003;8.582728e-002
3.002749e+003;8.554721e-002
3.004678e+003;8.516315e-002
3.006606e+003;8.560750e-002
3.008535e+003;8.618001e-002
3.010463e+003;8.631515e-002
3.012392e+003;8.647496e-002
3.014321e+003;8.679900e-002
3.016249e+003;8.678520e-002
3.018177e+003;8.663919e-002
3.020106e+003;8.687127e-002
3.022035e+003;8.700930e-002
3.023963e+003;8.693283e-002
3.025892e+003;8.709910e-002
3.027820e+003;8.771458e-002
3.029749e+003;8.818363e-002
3.031677e+003;8.833117e-002
3.033606e+003;8.861133e-002
3.035534e+003;8.883528e-002
3.037463e+003;8.905300e-002
3.039392e+003;8.940685e-002
3.041320e+003;8.986709e-002
3.043249e+003;8.973972e-002
3.045177e+003;8.971919e-002
3.047106e+003;9.009810e-002
3.049034e+003;9.067946e-002
3.050963e+003;9.133670e-002
3.052891e+003;9.169681e-002
3.054820e+003;9.180567e-002
3.056749e+003;9.197526e-002
3.058677e+003;9.217149e-002
3.060606e+003;9.282575e-002
3.062534e+003;9.353372e-002
3.064463e+003;9.387973e-002
3.066391e+003;9.411362e-002
3.068320e+003;9.427229e-002
3.070248e+003;9.462441e-002
3.072177e+003;9.497867e-002
3.074105e+003;9.498415e-002
3.076034e+003;9.524103e-002
3.077963e+003;9.590770e-002
3.079891e+003;9.656990e-002
3.081820e+003;9.667499e-002
3.083748e+003;9.659714e-002
3.085677e+003;9.688877e-002
3.087605e+003;9.735908e-002
3.089534e+003;9.789704e-002
3.091462e+003;9.829083e-002
3.093391e+003;9.896129e-002
3.095320e+003;9.954927e-002
3.097248e+003;9.963483e-002
3.099177e+003;9.949756e-002
3.101105e+003;9.976943e-002
3.103034e+003;1.004383e-001
3.104962e+003;1.010176e-001
3.106891e+003;1.012961e-001
3.108819e+003;1.012322e-001
3.110748e+003;1.015318e-001
3.112677e+003;1.020471e-001
3.114605e+003;1.023277e-001
3.116533e+003;1.030556e-001
3.118462e+003;1.035973e-001
3.120391e+003;1.039097e-001
3.122319e+003;1.046510e-001
3.124248e+003;1.052029e-001
3.126176e+003;1.053274e-001
3.128105e+003;1.053882e-001
3.130033e+003;1.061078e-001
3.131962e+003;1.068506e-001
3.133890e+003;1.070206e-001
3.135819e+003;1.071556e-001
3.137748e+003;1.074497e-001
3.139676e+003;1.084219e-001
3.141605e+003;1.092644e-001
3.143533e+003;1.095720e-001
3.145462e+003;1.099024e-001
3.147390e+003;1.100001e-001
3.149319e+003;1.102379e-001
3.151247e+003;1.110421e-001
3.153176e+003;1.115689e-001
3.155104e+003;1.116830e-001
3.157033e+003;1.120797e-001
3.158962e+003;1.128822e-001
3.160890e+003;1.137094e-001
3.162819e+003;1.142014e-001
3.164747e+003;1.143388e-001
3.166676e+003;1.149038e-001
3.168604e+003;1.156214e-001
3.170533e+003;1.161517e-001
3.172461e+003;1.168324e-001
3.174390e+003;1.176348e-001
3.176319e+003;1.180578e-001
3.178247e+003;1.183958e-001
3.180176e+003;1.187775e-001
3.182104e+003;1.191079e-001
3.184033e+003;1.194674e-001
3.185961e+003;1.205323e-001
3.187890e+003;1.215926e-001
3.189818e+003;1.221334e-001
3.191747e+003;1.228835e-001
3.193676e+003;1.238099e-001
3.195604e+003;1.241336e-001
3.197532e+003;1.241320e-001
3.199461e+003;1.247788e-001
3.201390e+003;1.256884e-001
3.203318e+003;1.259444e-001
3.205247e+003;1.262611e-001
3.207175e+003;1.269951e-001
3.209104e+003;1.278943e-001
3.211032e+003;1.286633e-001
3.212961e+003;1.288257e-001
3.214889e+003;1.294697e-001
3.216818e+003;1.307750e-001
3.218747e+003;1.315722e-001
3.220675e+003;1.319740e-001
3.222604e+003;1.325836e-001
3.224532e+003;1.334797e-001
3.226461e+003;1.338984e-001
3.228389e+003;1.342510e-001
3.230318e+003;1.349153e-001
3.232246e+003;1.352352e-001
3.234175e+003;1.357045e-001
3.236104e+003;1.368049e-001
3.238032e+003;1.378297e-001
3.239961e+003;1.387419e-001
3.241889e+003;1.400852e-001
3.243818e+003;1.409607e-001
3.245746e+003;1.415682e-001
3.247675e+003;1.426539e-001
3.249603e+003;1.434113e-001
3.251532e+003;1.441809e-001
3.253460e+003;1.448109e-001
3.255389e+003;1.454066e-001
3.257318e+003;1.462940e-001
3.259246e+003;1.472538e-001
3.261175e+003;1.484005e-001
3.263103e+003;1.486743e-001
3.265032e+003;1.485954e-001
3.266960e+003;1.497014e-001
3.268889e+003;1.511919e-001
3.270817e+003;1.515105e-001
3.272746e+003;1.513395e-001
3.274675e+003;1.515552e-001
3.276603e+003;1.519967e-001
3.278531e+003;1.519581e-001
3.280460e+003;1.523479e-001
3.282389e+003;1.529422e-001
3.284317e+003;1.531368e-001
3.286246e+003;1.531106e-001
3.288174e+003;1.529537e-001
3.290103e+003;1.530909e-001
3.292031e+003;1.533461e-001
3.293960e+003;1.535597e-001
3.295888e+003;1.531117e-001
3.297817e+003;1.527373e-001
3.299746e+003;1.528829e-001
3.301674e+003;1.528428e-001
3.303603e+003;1.528267e-001
3.305531e+003;1.529504e-001
3.307460e+003;1.529142e-001
3.309388e+003;1.528939e-001
3.311317e+003;1.530984e-001
3.313245e+003;1.533642e-001
3.315174e+003;1.535913e-001
3.317103e+003;1.541416e-001
3.319031e+003;1.549602e-001
3.320960e+003;1.555823e-001
3.322888e+003;1.556037e-001
3.324817e+003;1.558166e-001
3.326745e+003;1.556851e-001
3.328674e+003;1.557233e-001
3.330602e+003;1.556543e-001
3.332531e+003;1.547750e-001
3.334459e+003;1.548400e-001
3.336388e+003;1.554089e-001
3.338317e+003;1.551177e-001
3.340245e+003;1.542852e-001
3.342174e+003;1.534650e-001
3.344102e+003;1.528229e-001
3.346031e+003;1.517325e-001
3.347959e+003;1.507006e-001
3.349888e+003;1.500354e-001
3.351816e+003;1.496553e-001
3.353745e+003;1.497723e-001
3.355674e+003;1.491856e-001
3.357602e+003;1.479169e-001
3.359531e+003;1.467150e-001
3.361459e+003;1.459598e-001
3.363388e+003;1.457380e-001
3.365316e+003;1.454986e-001
3.367245e+003;1.451477e-001
3.369173e+003;1.446170e-001
3.371102e+003;1.436748e-001
3.373031e+003;1.427620e-001
3.374959e+003;1.423871e-001
3.376887e+003;1.419840e-001
3.378816e+003;1.414561e-001
3.380745e+003;1.407380e-001
3.382673e+003;1.395617e-001
3.384602e+003;1.392950e-001
3.386530e+003;1.397851e-001
3.388459e+003;1.390999e-001
3.390387e+003;1.374473e-001
3.392316e+003;1.365131e-001
3.394244e+003;1.365638e-001
3.396173e+003;1.365156e-001
3.398102e+003;1.363176e-001
3.400030e+003;1.356860e-001
3.401959e+003;1.348342e-001
3.403887e+003;1.337155e-001
3.405816e+003;1.332784e-001
3.407744e+003;1.328770e-001
3.409673e+003;1.319225e-001
3.411601e+003;1.309594e-001
3.413530e+003;1.299373e-001
3.415458e+003;1.288757e-001
3.417387e+003;1.282555e-001
3.419316e+003;1.274261e-001
3.421244e+003;1.262538e-001
3.423173e+003;1.251690e-001
3.425101e+003;1.245584e-001
3.427030e+003;1.238140e-001
3.428958e+003;1.229493e-001
3.430887e+003;1.224019e-001
3.432815e+003;1.217069e-001
3.434744e+003;1.205728e-001
3.436673e+003;1.198452e-001
3.438601e+003;1.195688e-001
3.440530e+003;1.189765e-001
3.442458e+003;1.179073e-001
3.444387e+003;1.175931e-001
3.446315e+003;1.169157e-001
3.448244e+003;1.156175e-001
3.450172e+003;1.145486e-001
3.452101e+003;1.135446e-001
3.454030e+003;1.126613e-001
3.455958e+003;1.122024e-001
3.457886e+003;1.117733e-001
3.459815e+003;1.115105e-001
3.461744e+003;1.106417e-001
3.463672e+003;1.094135e-001
3.465601e+003;1.085652e-001
3.467529e+003;1.078178e-001
3.469458e+003;1.069466e-001
3.471386e+003;1.060566e-001
3.473315e+003;1.054633e-001
3.475243e+003;1.050635e-001
3.477172e+003;1.046510e-001
3.479101e+003;1.040558e-001
3.481029e+003;1.029817e-001
3.482958e+003;1.019694e-001
3.484886e+003;1.007071e-001
3.486815e+003;9.953969e-002
3.488743e+003;9.915838e-002
3.490672e+003;9.871414e-002
3.492600e+003;9.798692e-002
3.494529e+003;9.724202e-002
3.496458e+003;9.681605e-002
3.498386e+003;9.586634e-002
3.500315e+003;9.453217e-002
3.502243e+003;9.375282e-002
3.504172e+003;9.341908e-002
3.506100e+003;9.299048e-002
3.508029e+003;9.190925e-002
3.509957e+003;9.052487e-002
3.511886e+003;8.988523e-002
3.513814e+003;8.929618e-002
3.515743e+003;8.880995e-002
3.517672e+003;8.843591e-002
3.519600e+003;8.784922e-002
3.521529e+003;8.726823e-002
3.523457e+003;8.675671e-002
3.525386e+003;8.607358e-002
3.527314e+003;8.535104e-002
3.529243e+003;8.469783e-002
3.531171e+003;8.373823e-002
3.533100e+003;8.254924e-002
3.535029e+003;8.204981e-002
3.536957e+003;8.225566e-002
3.538885e+003;8.168802e-002
3.540814e+003;8.063099e-002
3.542743e+003;7.975473e-002
3.544671e+003;7.913113e-002
3.546600e+003;7.885166e-002
3.548528e+003;7.819216e-002
3.550457e+003;7.767560e-002
3.552385e+003;7.707070e-002
3.554314e+003;7.630193e-002
3.556242e+003;7.594009e-002
3.558171e+003;7.542131e-002
3.560100e+003;7.472228e-002
3.562028e+003;7.408489e-002
3.563957e+003;7.333959e-002
3.565885e+003;7.249650e-002
3.567814e+003;7.200106e-002
3.569742e+003;7.178532e-002
3.571671e+003;7.157221e-002
3.573599e+003;7.105359e-002
3.575528e+003;7.036965e-002
3.577457e+003;6.954448e-002
3.579385e+003;6.934801e-002
3.581314e+003;6.955773e-002
3.583242e+003;6.892259e-002
3.585171e+003;6.775526e-002
3.587099e+003;6.713187e-002
3.589028e+003;6.678326e-002
3.590956e+003;6.649235e-002
3.592885e+003;6.559791e-002
3.594813e+003;6.465057e-002
3.596742e+003;6.418220e-002
3.598671e+003;6.399007e-002
3.600599e+003;6.402759e-002
3.602528e+003;6.341608e-002
3.604456e+003;6.251575e-002
3.606385e+003;6.214654e-002
3.608313e+003;6.158093e-002
3.610242e+003;6.147033e-002
3.612170e+003;6.083356e-002
3.614099e+003;6.029109e-002
3.616028e+003;6.023018e-002
3.617956e+003;5.940838e-002
3.619885e+003;5.849311e-002
3.621813e+003;5.814867e-002
3.623742e+003;5.777551e-002
3.625670e+003;5.727571e-002
3.627599e+003;5.588878e-002
3.629527e+003;5.519127e-002
3.631456e+003;5.545536e-002
3.633385e+003;5.488940e-002
3.635313e+003;5.456922e-002
3.637241e+003;5.431247e-002
3.639170e+003;5.414954e-002
3.641099e+003;5.392961e-002
3.643027e+003;5.304827e-002
3.644956e+003;5.202417e-002
3.646884e+003;5.106096e-002
3.648813e+003;5.036535e-002
3.650741e+003;5.007307e-002
3.652670e+003;5.009665e-002
3.654598e+003;4.934619e-002
3.656527e+003;4.835818e-002
3.658456e+003;4.813569e-002
3.660384e+003;4.804052e-002
3.662313e+003;4.754798e-002
3.664241e+003;4.705947e-002
3.666170e+003;4.664281e-002
3.668098e+003;4.531185e-002
3.670027e+003;4.440647e-002
3.671955e+003;4.464484e-002
3.673884e+003;4.359335e-002
3.675813e+003;4.298293e-002
3.677741e+003;4.426729e-002
3.679669e+003;4.455797e-002
3.681598e+003;4.402748e-002
3.683527e+003;4.358763e-002
3.685455e+003;4.329702e-002
3.687384e+003;4.210433e-002
3.689312e+003;4.128760e-002
3.691241e+003;4.192483e-002
3.693169e+003;4.271827e-002
3.695098e+003;4.261164e-002
3.697026e+003;4.244804e-002
3.698955e+003;4.189418e-002
3.700884e+003;4.152407e-002
3.702812e+003;4.128549e-002
3.704741e+003;4.133719e-002
3.706669e+003;4.143629e-002
3.708598e+003;4.107466e-002
3.710526e+003;4.053968e-002
3.712455e+003;4.011368e-002
3.714383e+003;4.030690e-002
3.716312e+003;4.039020e-002
3.718240e+003;4.042562e-002
3.720169e+003;4.027179e-002
3.722098e+003;4.007192e-002
3.724026e+003;3.992032e-002
3.725955e+003;3.967363e-002
3.727883e+003;3.947496e-002
3.729812e+003;3.928417e-002
3.731740e+003;3.889004e-002
3.733669e+003;3.858198e-002
3.735597e+003;3.857840e-002
3.737526e+003;3.927390e-002
3.739455e+003;3.927122e-002
3.741383e+003;3.868948e-002
3.743312e+003;3.751099e-002
3.745240e+003;3.756832e-002
3.747169e+003;3.854107e-002
3.749097e+003;3.774802e-002
3.751026e+003;3.711338e-002
3.752954e+003;3.790892e-002
3.754883e+003;3.931935e-002
3.756812e+003;3.926259e-002
3.758740e+003;3.881793e-002
3.760668e+003;3.921906e-002
3.762597e+003;3.907403e-002
3.764526e+003;3.878000e-002
3.766454e+003;3.896281e-002
3.768383e+003;3.857090e-002
3.770311e+003;3.867194e-002
3.772240e+003;3.889751e-002
3.774168e+003;3.900801e-002
3.776097e+003;3.884467e-002
3.778025e+003;3.868498e-002
3.779954e+003;3.909219e-002
3.781883e+003;3.976832e-002
3.783811e+003;3.983231e-002
3.785740e+003;3.975823e-002
3.787668e+003;3.942920e-002
3.789597e+003;3.892886e-002
3.791525e+003;3.891074e-002
3.793454e+003;3.901120e-002
3.795382e+003;3.912297e-002
3.797311e+003;3.923342e-002
3.799240e+003;3.864721e-002
3.801168e+003;3.767119e-002
3.803097e+003;3.833943e-002
3.805025e+003;3.939865e-002
3.806954e+003;3.924224e-002
3.808882e+003;3.912446e-002
3.810811e+003;3.964474e-002
3.812739e+003;4.001549e-002
3.814668e+003;3.916188e-002
3.816596e+003;3.866271e-002
3.818525e+003;3.880790e-002
3.820454e+003;3.848513e-002
3.822382e+003;3.872342e-002
3.824311e+003;3.936027e-002
3.826239e+003;3.928576e-002
3.828168e+003;3.898029e-002
3.830096e+003;3.865130e-002
3.832025e+003;3.870813e-002
3.833953e+003;3.900011e-002
3.835882e+003;3.869824e-002
3.837811e+003;3.851840e-002
3.839739e+003;3.921109e-002
3.841667e+003;3.953872e-002
3.843596e+003;3.955037e-002
3.845525e+003;4.008744e-002
3.847453e+003;4.032573e-002
3.849382e+003;3.984763e-002
3.851310e+003;3.864370e-002
3.853239e+003;3.761351e-002
3.855167e+003;3.841674e-002
3.857096e+003;3.993205e-002
3.859024e+003;4.068161e-002
3.860953e+003;4.038726e-002
3.862882e+003;4.031592e-002
3.864810e+003;4.012639e-002
3.866739e+003;4.047112e-002
3.868667e+003;4.045032e-002
3.870596e+003;4.054681e-002
3.872524e+003;4.119884e-002
3.874453e+003;4.143895e-002
3.876381e+003;4.174868e-002
3.878310e+003;4.191600e-002
3.880239e+003;4.163222e-002
3.882167e+003;4.198800e-002
3.884096e+003;4.200859e-002
3.886024e+003;4.175554e-002
3.887953e+003;4.209992e-002
3.889881e+003;4.206429e-002
3.891810e+003;4.211948e-002
3.893738e+003;4.243540e-002
3.895667e+003;4.210671e-002
3.897595e+003;4.179815e-002
3.899524e+003;4.194070e-002
3.901453e+003;4.194413e-002
3.903381e+003;4.196811e-002
3.905310e+003;4.202092e-002
3.907238e+003;4.250727e-002
3.909167e+003;4.291157e-002
3.911095e+003;4.307121e-002
3.913024e+003;4.332162e-002
3.914952e+003;4.324160e-002
3.916881e+003;4.271502e-002
3.918810e+003;4.262696e-002
3.920738e+003;4.323841e-002
3.922667e+003;4.363383e-002
3.924595e+003;4.337130e-002
3.926524e+003;4.281469e-002
3.928452e+003;4.257444e-002
3.930381e+003;4.273703e-002
3.932309e+003;4.307633e-002
3.934238e+003;4.361244e-002
3.936167e+003;4.430387e-002
3.938095e+003;4.429968e-002
3.940023e+003;4.403511e-002
3.941952e+003;4.421442e-002
3.943881e+003;4.371041e-002
3.945809e+003;4.351189e-002
3.947738e+003;4.392152e-002
3.949666e+003;4.459949e-002
3.951595e+003;4.529110e-002
3.953523e+003;4.539512e-002
3.955452e+003;4.463639e-002
3.957380e+003;4.389912e-002
3.959309e+003;4.417323e-002
3.961238e+003;4.529279e-002
3.963166e+003;4.575506e-002
3.965095e+003;4.556594e-002
3.967023e+003;4.503584e-002
3.968952e+003;4.529658e-002
3.970880e+003;4.541462e-002
3.972809e+003;4.502610e-002
3.974737e+003;4.481464e-002
3.976666e+003;4.471814e-002
3.978594e+003;4.462964e-002
3.980523e+003;4.520410e-002
3.982452e+003;4.543143e-002
3.984380e+003;4.512145e-002
3.986309e+003;4.550611e-002
3.988237e+003;4.605451e-002
3.990166e+003;4.574446e-002
3.992094e+003;4.553139e-002
3.994023e+003;4.584096e-002
3.995951e+003;4.597892e-002
3.997880e+003;4.608914e-002
3.999809e+003;4.590014e-002
4.001737e+003;0.000000e+000
