3.992094e+002;0.000000e+000
4.011380e+002;0.000000e+000
4.030665e+002;0.000000e+000
4.049951e+002;0.000000e+000
4.069236e+002;0.000000e+000
4.088522e+002;0.000000e+000
4.107807e+002;0.000000e+000
4.127093e+002;0.000000e+000
4.146378e+002;0.000000e+000
4.165664e+002;0.000000e+000
4.184949e+002;0.000000e+000
4.204235e+002;0.000000e+000
4.223520e+002;0.000000e+000
4.242806e+002;0.000000e+000
4.262091e+002;0.000000e+000
4.281377e+002;0.000000e+000
4.300662e+002;0.000000e+000
4.319948e+002;0.000000e+000
4.339233e+002;0.000000e+000
4.358519e+002;0.000000e+000
4.377804e+002;0.000000e+000
4.397090e+002;0.000000e+000
4.416375e+002;0.000000e+000
4.435660e+002;0.000000e+000
4.454946e+002;0.000000e+000
4.474232e+002;0.000000e+000
4.493517e+002;0.000000e+000
4.512802e+002;0.000000e+000
4.532088e+002;0.000000e+000
4.551373e+002;0.000000e+000
4.570659e+002;0.000000e+000
4.589944e+002;0.000000e+000
4.609230e+002;0.000000e+000
4.628515e+002;0.000000e+000
4.647801e+002;0.000000e+000
4.667086e+002;0.000000e+000
4.686372e+002;0.000000e+000
4.705657e+002;0.000000e+000
4.724943e+002;0.000000e+000
4.744228e+002;0.000000e+000
4.763513e+002;0.000000e+000
4.782799e+002;0.000000e+000
4.802085e+002;0.000000e+000
4.821370e+002;0.000000e+000
4.840656e+002;0.000000e+000
4.859941e+002;0.000000e+000
4.879226e+002;0.000000e+000
4.898512e+002;0.000000e+000
4.917798e+002;0.000000e+000
4.937083e+002;0.000000e+000
4.956368e+002;0.000000e+000
4.975654e+002;0.000000e+000
4.994939e+002;0.000000e+000
5.014225e+002;0.000000e+000
5.033510e+002;0.000000e+000
5.052796e+002;0.000000e+000
5.072081e+002;0.000000e+000
5.091367e+002;0.000000e+000
5.110652e+002;0.000000e+000
5.129938e+002;0.000000e+000
5.149223e+002;0.000000e+000
5.168509e+002;0.000000e+000
5.187794e+002;0.000000e+000
5.207079e+002;0.000000e+000
5.226365e+002;0.000000e+000
5.245651e+002;0.000000e+000
5.264936e+002;0.000000e+000
5.284222e+002;0.000000e+000
5.303507e+002;0.000000e+000
5.322792e+002;0.000000e+000
5.342078e+002;0.000000e+000
5.361364e+002;0.000000e+000
5.380649e+002;0.000000e+000
5.399935e+002;0.000000e+000
5.419220e+002;0.000000e+000
5.438505e+002;0.000000e+000
5.457791e+002;0.000000e+000
5.477076e+002;0.000000e+000
5.496362e+002;0.000000e+000
5.515648e+002;0.000000e+000
5.534933e+002;0.000000e+000
5.554218e+002;0.000000e+000
5.573504e+002;0.000000e+000
5.592789e+002;0.000000e+000
5.612075e+002;0.000000e+000
5.631360e+002;0.000000e+000
5.650646e+002;0.000000e+000
5.669931e+002;0.000000e+000
5.689217e+002;0.000000e+000
5.708502e+002;0.000000e+000
5.727787e+002;0.000000e+000
5.747073e+002;0.000000e+000
5.766359e+002;0.000000e+000
5.785644e+002;0.000000e+000
5.804930e+002;0.000000e+000
5.824215e+002;0.000000e+000
5.843500e+002;0.000000e+000
5.862786e+002;0.000000e+000
5.882072e+002;0.000000e+000
5.901357e+002;0.000000e+000
5.920643e+002;0.000000e+000
5.939928e+002;0.000000e+000
5.959213e+002;0.000000e+000
5.978499e+002;0.000000e+000
5.997784e+002;1.387646e-001
6.017070e+002;1.450984e-001
6.036355e+002;1.493775e-001
6.055641e+002;1.474579e-001
6.074926e+002;1.463526e-001
6.094211e+002;1.461266e-001
6.113497e+002;1.453482e-001
6.132783e+002;1.454294e-001
6.152068e+002;1.447899e-001
6.171354e+002;1.427647e-001
6.190639e+002;1.439968e-001
6.209924e+002;1.446473e-001
6.229210e+002;1.433678e-001
6.248495e+002;1.423351e-001
6.267781e+002;1.425145e-001
6.287067e+002;1.445722e-001
6.306352e+002;1.452430e-001
6.325637e+002;1.406122e-001
6.344923e+002;1.338596e-001
6.364208e+002;1.350645e-001
6.383494e+002;1.403925e-001
6.402780e+002;1.460884e-001
6.422065e+002;1.498938e-001
6.441350e+002;1.488172e-001
6.460636e+002;1.452645e-001
6.479921e+002;1.412848e-001
6.499207e+002;1.399899e-001
6.518492e+002;1.405879e-001
6.537778e+002;1.402912e-001
6.557063e+002;1.411719e-001
6.576349e+002;1.416056e-001
6.595634e+002;1.408571e-001
6.614919e+002;1.445783e-001
6.634205e+002;1.458234e-001
6.653491e+002;1.412857e-001
6.672776e+002;1.357854e-001
6.692062e+002;1.372613e-001
6.711347e+002;1.418491e-001
6.730632e+002;1.434784e-001
6.749918e+002;1.410434e-001
6.769203e+002;1.385421e-001
6.788489e+002;1.370114e-001
6.807775e+002;1.340458e-001
6.827060e+002;1.310320e-001
6.846345e+002;1.300210e-001
6.865631e+002;1.303236e-001
6.884916e+002;1.300081e-001
6.904202e+002;1.276035e-001
6.923488e+002;1.258565e-001
6.942773e+002;1.251740e-001
6.962058e+002;1.240949e-001
6.981344e+002;1.232708e-001
7.000629e+002;1.225140e-001
7.019915e+002;1.219581e-001
7.039200e+002;1.225073e-001
7.058486e+002;1.225861e-001
7.077771e+002;1.210258e-001
7.097057e+002;1.196444e-001
7.116342e+002;1.203081e-001
7.135627e+002;1.208455e-001
7.154913e+002;1.209848e-001
7.174199e+002;1.206926e-001
7.193484e+002;1.197812e-001
7.212770e+002;1.186476e-001
7.232055e+002;1.172146e-001
7.251340e+002;1.153707e-001
7.270626e+002;1.143550e-001
7.289911e+002;1.133197e-001
7.309197e+002;1.122019e-001
7.328483e+002;1.104055e-001
7.347768e+002;1.085961e-001
7.367053e+002;1.093828e-001
7.386339e+002;1.093209e-001
7.405624e+002;1.078194e-001
7.424910e+002;1.068321e-001
7.444196e+002;1.052959e-001
7.463481e+002;1.040331e-001
7.482766e+002;1.024224e-001
7.502052e+002;1.014872e-001
7.521337e+002;1.008741e-001
7.540623e+002;9.985419e-002
7.559908e+002;9.847593e-002
7.579194e+002;9.647733e-002
7.598479e+002;9.479319e-002
7.617765e+002;9.346830e-002
7.637050e+002;9.241294e-002
7.656335e+002;9.170475e-002
7.675621e+002;9.190688e-002
7.694907e+002;9.153961e-002
7.714192e+002;9.047757e-002
7.733478e+002;8.941585e-002
7.752763e+002;8.803455e-002
7.772048e+002;8.766069e-002
7.791334e+002;8.765140e-002
7.810620e+002;8.638803e-002
7.829905e+002;8.495454e-002
7.849191e+002;8.532987e-002
7.868476e+002;8.587003e-002
7.887761e+002;8.606878e-002
7.907047e+002;8.558587e-002
7.926332e+002;8.507693e-002
7.945618e+002;8.407676e-002
7.964903e+002;8.316672e-002
7.984189e+002;8.320782e-002
8.003474e+002;8.241871e-002
8.022759e+002;8.138268e-002
8.042045e+002;8.096011e-002
8.061331e+002;8.186030e-002
8.080616e+002;8.231737e-002
8.099902e+002;8.157322e-002
8.119187e+002;8.070520e-002
8.138472e+002;8.042610e-002
8.157758e+002;8.079426e-002
8.177043e+002;8.076920e-002
8.196329e+002;8.064567e-002
8.215615e+002;8.070376e-002
8.234900e+002;8.101258e-002
8.254185e+002;8.130935e-002
8.273471e+002;8.079769e-002
8.292756e+002;8.056261e-002
8.312042e+002;8.136465e-002
8.331328e+002;8.196449e-002
8.350613e+002;8.132553e-002
8.369898e+002;8.068213e-002
8.389184e+002;8.054402e-002
8.408469e+002;8.032224e-002
8.427755e+002;8.008809e-002
8.447040e+002;7.897934e-002
8.466326e+002;7.757109e-002
8.485611e+002;7.654247e-002
8.504897e+002;7.626604e-002
8.524182e+002;7.570691e-002
8.543467e+002;7.512723e-002
8.562753e+002;7.493914e-002
8.582039e+002;7.544965e-002
8.601324e+002;7.558484e-002
8.620610e+002;7.561876e-002
8.639895e+002;7.606047e-002
8.659180e+002;7.639109e-002
8.678466e+002;7.595196e-002
8.697751e+002;7.507386e-002
8.717037e+002;7.471099e-002
8.736323e+002;7.444873e-002
8.755608e+002;7.488201e-002
8.774893e+002;7.594904e-002
8.794179e+002;7.815863e-002
8.813464e+002;8.095169e-002
8.832750e+002;8.391100e-002
8.852036e+002;8.688859e-002
8.871321e+002;8.973284e-002
8.890606e+002;9.281168e-002
8.909892e+002;9.560352e-002
8.929177e+002;9.763236e-002
8.948463e+002;9.981538e-002
8.967748e+002;1.013474e-001
8.987034e+002;1.017594e-001
9.006319e+002;1.018319e-001
9.025605e+002;1.015794e-001
9.044890e+002;1.012060e-001
9.064175e+002;1.003295e-001
9.083461e+002;9.871517e-002
9.102747e+002;9.713244e-002
9.122032e+002;9.581086e-002
9.141318e+002;9.405190e-002
9.160603e+002;9.217620e-002
9.179888e+002;9.103738e-002
9.199174e+002;9.101029e-002
9.218459e+002;9.086253e-002
9.237745e+002;9.056459e-002
9.257031e+002;9.034950e-002
9.276316e+002;9.025012e-002
9.295601e+002;9.022304e-002
9.314887e+002;8.981176e-002
9.334172e+002;8.943001e-002
9.353458e+002;8.954609e-002
9.372744e+002;8.938702e-002
9.392029e+002;8.929288e-002
9.411314e+002;8.972286e-002
9.430600e+002;8.966330e-002
9.449885e+002;8.968502e-002
9.469171e+002;9.014466e-002
9.488456e+002;9.078170e-002
9.507742e+002;9.177273e-002
9.527027e+002;9.288029e-002
9.546313e+002;9.428311e-002
9.565598e+002;9.579041e-002
9.584883e+002;9.697053e-002
9.604169e+002;9.825547e-002
9.623455e+002;9.924182e-002
9.642740e+002;1.004686e-001
9.662026e+002;1.025814e-001
9.681311e+002;1.045773e-001
9.700596e+002;1.065536e-001
9.719882e+002;1.089712e-001
9.739167e+002;1.118484e-001
9.758453e+002;1.150720e-001
9.777739e+002;1.189718e-001
9.797024e+002;1.240741e-001
9.816309e+002;1.301192e-001
9.835595e+002;1.361020e-001
9.854880e+002;1.423873e-001
9.874166e+002;1.489268e-001
9.893452e+002;1.541366e-001
9.912737e+002;1.583565e-001
9.932022e+002;1.617076e-001
9.951307e+002;1.643357e-001
9.970593e+002;1.667759e-001
9.989879e+002;1.693233e-001
1.000916e+003;1.717349e-001
1.002845e+003;1.736302e-001
1.004773e+003;1.751534e-001
1.006702e+003;1.765253e-001
1.008631e+003;1.775939e-001
1.010559e+003;1.792608e-001
1.012488e+003;1.814771e-001
1.014416e+003;1.836490e-001
1.016345e+003;1.864577e-001
1.018273e+003;1.894086e-001
1.020202e+003;1.924416e-001
1.022130e+003;1.956422e-001
1.024059e+003;1.984739e-001
1.025988e+003;2.010292e-001
1.027916e+003;2.032680e-001
1.029845e+003;2.049833e-001
1.031773e+003;2.060714e-001
1.033702e+003;2.071265e-001
1.035630e+003;2.082290e-001
1.037559e+003;2.082615e-001
1.039487e+003;2.082982e-001
1.041416e+003;2.089627e-001
1.043344e+003;2.085509e-001
1.045273e+003;2.084466e-001
1.047202e+003;2.094364e-001
1.049130e+003;2.102056e-001
1.051059e+003;2.106975e-001
1.052987e+003;2.116606e-001
1.054916e+003;2.131125e-001
1.056844e+003;2.135907e-001
1.058773e+003;2.126339e-001
1.060701e+003;2.112654e-001
1.062630e+003;2.099624e-001
1.064558e+003;2.077238e-001
1.066487e+003;2.046463e-001
1.068416e+003;2.011866e-001
1.070344e+003;1.979092e-001
1.072273e+003;1.951055e-001
1.074201e+003;1.918784e-001
1.076130e+003;1.886217e-001
1.078058e+003;1.860020e-001
1.079987e+003;1.836583e-001
1.081915e+003;1.812024e-001
1.083844e+003;1.795074e-001
1.085773e+003;1.786215e-001
1.087701e+003;1.768111e-001
1.089630e+003;1.751775e-001
1.091558e+003;1.735879e-001
1.093487e+003;1.714543e-001
1.095415e+003;1.702736e-001
1.097344e+003;1.704113e-001
1.099272e+003;1.694475e-001
1.101201e+003;1.673607e-001
1.103129e+003;1.657676e-001
1.105058e+003;1.631415e-001
1.106987e+003;1.600900e-001
1.108915e+003;1.580603e-001
1.110844e+003;1.564159e-001
1.112772e+003;1.540137e-001
1.114701e+003;1.509980e-001
1.116629e+003;1.483816e-001
1.118558e+003;1.457382e-001
1.120486e+003;1.429192e-001
1.122415e+003;1.396114e-001
1.124344e+003;1.358950e-001
1.126272e+003;1.326642e-001
1.128201e+003;1.294703e-001
1.130129e+003;1.261384e-001
1.132058e+003;1.232475e-001
1.133986e+003;1.202731e-001
1.135915e+003;1.174553e-001
1.137843e+003;1.150071e-001
1.139772e+003;1.127659e-001
1.141700e+003;1.103211e-001
1.143629e+003;1.079708e-001
1.145557e+003;1.065693e-001
1.147486e+003;1.054496e-001
1.149415e+003;1.046265e-001
1.151343e+003;1.040535e-001
1.153272e+003;1.031543e-001
1.155200e+003;1.018993e-001
1.157129e+003;1.009537e-001
1.159057e+003;1.004831e-001
1.160986e+003;9.969227e-002
1.162914e+003;9.801229e-002
1.164843e+003;9.543239e-002
1.166771e+003;9.238122e-002
1.168700e+003;8.933973e-002
1.170629e+003;8.606151e-002
1.172557e+003;8.247103e-002
1.174486e+003;7.853052e-002
1.176414e+003;7.490040e-002
1.178343e+003;7.184454e-002
1.180271e+003;6.912760e-002
1.182200e+003;6.716177e-002
1.184128e+003;6.578104e-002
1.186057e+003;6.462485e-002
1.187986e+003;6.425960e-002
1.189914e+003;6.464750e-002
1.191843e+003;6.542855e-002
1.193771e+003;6.672561e-002
1.195700e+003;6.809171e-002
1.197628e+003;6.942009e-002
1.199557e+003;7.065015e-002
1.201485e+003;7.128944e-002
1.203414e+003;7.130892e-002
1.205343e+003;7.094293e-002
1.207271e+003;7.011433e-002
1.209200e+003;6.912605e-002
1.211128e+003;6.821634e-002
1.213057e+003;6.715767e-002
1.214985e+003;6.611215e-002
1.216914e+003;6.565630e-002
1.218842e+003;6.599317e-002
1.220771e+003;6.682689e-002
1.222699e+003;6.813373e-002
1.224628e+003;6.922279e-002
1.226557e+003;7.008228e-002
1.228485e+003;7.154467e-002
1.230414e+003;7.292956e-002
1.232342e+003;7.383052e-002
1.234271e+003;7.449373e-002
1.236199e+003;7.519649e-002
1.238128e+003;7.572675e-002
1.240056e+003;7.568955e-002
1.241985e+003;7.592446e-002
1.243913e+003;7.665318e-002
1.245842e+003;7.718625e-002
1.247771e+003;7.743599e-002
1.249699e+003;7.793981e-002
1.251628e+003;7.867744e-002
1.253556e+003;7.943816e-002
1.255485e+003;7.977455e-002
1.257413e+003;7.981994e-002
1.259342e+003;7.994077e-002
1.261270e+003;8.026882e-002
1.263199e+003;8.018862e-002
1.265127e+003;7.958945e-002
1.267056e+003;7.904126e-002
1.268985e+003;7.841341e-002
1.270913e+003;7.776440e-002
1.272842e+003;7.720841e-002
1.274770e+003;7.687412e-002
1.276699e+003;7.680263e-002
1.278627e+003;7.646991e-002
1.280556e+003;7.589261e-002
1.282484e+003;7.528861e-002
1.284413e+003;7.475507e-002
1.286342e+003;7.439745e-002
1.288270e+003;7.454443e-002
1.290199e+003;7.470425e-002
1.292127e+003;7.516927e-002
1.294056e+003;7.616245e-002
1.295984e+003;7.715973e-002
1.297913e+003;7.807677e-002
1.299841e+003;7.892445e-002
1.301770e+003;8.001335e-002
1.303698e+003;8.160277e-002
1.305627e+003;8.301362e-002
1.307556e+003;8.436047e-002
1.309484e+003;8.595524e-002
1.311413e+003;8.739046e-002
1.313341e+003;8.857537e-002
1.315270e+003;8.939480e-002
1.317198e+003;9.020343e-002
1.319127e+003;9.071927e-002
1.321055e+003;9.082503e-002
1.322984e+003;9.054626e-002
1.324912e+003;9.037936e-002
1.326841e+003;9.046745e-002
1.328770e+003;9.077889e-002
1.330698e+003;9.123282e-002
1.332627e+003;9.160560e-002
1.334555e+003;9.186905e-002
1.336484e+003;9.196215e-002
1.338412e+003;9.245881e-002
1.340341e+003;9.257960e-002
1.342269e+003;9.247915e-002
1.344198e+003;9.240036e-002
1.346126e+003;9.179679e-002
1.348055e+003;9.119239e-002
1.349984e+003;9.117743e-002
1.351912e+003;9.129762e-002
1.353841e+003;9.158944e-002
1.355769e+003;9.225339e-002
1.357698e+003;9.276024e-002
1.359626e+003;9.269153e-002
1.361555e+003;9.256955e-002
1.363483e+003;9.290983e-002
1.365412e+003;9.294853e-002
1.367341e+003;9.227044e-002
1.369269e+003;9.179684e-002
1.371198e+003;9.152959e-002
1.373126e+003;9.042130e-002
1.375055e+003;8.888914e-002
1.376983e+003;8.790950e-002
1.378912e+003;8.692048e-002
1.380840e+003;8.574387e-002
1.382769e+003;8.434687e-002
1.384698e+003;8.258707e-002
1.386626e+003;8.043551e-002
1.388555e+003;7.960187e-002
1.390483e+003;7.931063e-002
1.392412e+003;7.791118e-002
1.394340e+003;7.651852e-002
1.396269e+003;7.610717e-002
1.398197e+003;7.525177e-002
1.400126e+003;7.508083e-002
1.402054e+003;7.550733e-002
1.403983e+003;7.483343e-002
1.405911e+003;7.434845e-002
1.407840e+003;7.450856e-002
1.409769e+003;7.431602e-002
1.411697e+003;7.394922e-002
1.413626e+003;7.381390e-002
1.415554e+003;7.334979e-002
1.417483e+003;7.191753e-002
1.419411e+003;7.120901e-002
1.421340e+003;7.274308e-002
1.423268e+003;7.366171e-002
1.425197e+003;7.372916e-002
1.427125e+003;7.359179e-002
1.429054e+003;7.343591e-002
1.430983e+003;7.361405e-002
1.432911e+003;7.290138e-002
1.434840e+003;7.092901e-002
1.436768e+003;6.943692e-002
1.438697e+003;7.016931e-002
1.440625e+003;7.023938e-002
1.442554e+003;6.959717e-002
1.444482e+003;6.881372e-002
1.446411e+003;6.753150e-002
1.448340e+003;6.675517e-002
1.450268e+003;6.697369e-002
1.452197e+003;6.676065e-002
1.454125e+003;6.504569e-002
1.456054e+003;6.166987e-002
1.457982e+003;6.172284e-002
1.459911e+003;6.412881e-002
1.461839e+003;6.420501e-002
1.463768e+003;6.228137e-002
1.465697e+003;6.088662e-002
1.467625e+003;6.039106e-002
1.469554e+003;5.883471e-002
1.471482e+003;5.571501e-002
1.473411e+003;5.363717e-002
1.475339e+003;5.291549e-002
1.477268e+003;5.224363e-002
1.479196e+003;5.116395e-002
1.481125e+003;4.896397e-002
1.483053e+003;4.710500e-002
1.484982e+003;4.532755e-002
1.486911e+003;4.310520e-002
1.488839e+003;4.073102e-002
1.490768e+003;3.954859e-002
1.492696e+003;3.920637e-002
1.494625e+003;3.738472e-002
1.496553e+003;3.560854e-002
1.498482e+003;3.578039e-002
1.500410e+003;3.614508e-002
1.502339e+003;3.551922e-002
1.504267e+003;3.258717e-002
1.506196e+003;2.943900e-002
1.508125e+003;3.080141e-002
1.510053e+003;3.301362e-002
1.511982e+003;3.274989e-002
1.513910e+003;3.211587e-002
1.515839e+003;3.125786e-002
1.517767e+003;3.069674e-002
1.519696e+003;2.917677e-002
1.521624e+003;2.777327e-002
1.523553e+003;2.875326e-002
1.525481e+003;2.914186e-002
1.527410e+003;2.946205e-002
1.529339e+003;3.008912e-002
1.531267e+003;2.988686e-002
1.533196e+003;2.890711e-002
1.535124e+003;2.937430e-002
1.537053e+003;2.826286e-002
1.538981e+003;2.477872e-002
1.540910e+003;2.503035e-002
1.542838e+003;2.799943e-002
1.544767e+003;3.010105e-002
1.546695e+003;3.157670e-002
1.548624e+003;3.218852e-002
1.550553e+003;3.273739e-002
1.552481e+003;3.284769e-002
1.554410e+003;3.238125e-002
1.556338e+003;3.143989e-002
1.558267e+003;2.882332e-002
1.560195e+003;3.043705e-002
1.562124e+003;3.508880e-002
1.564052e+003;3.747122e-002
1.565981e+003;3.865213e-002
1.567910e+003;3.865615e-002
1.569838e+003;3.880467e-002
1.571767e+003;4.044421e-002
1.573695e+003;4.039126e-002
1.575624e+003;3.882475e-002
1.577552e+003;4.085409e-002
1.579481e+003;4.345391e-002
1.581409e+003;4.410563e-002
1.583338e+003;4.467657e-002
1.585266e+003;4.537573e-002
1.587195e+003;4.595748e-002
1.589124e+003;4.613479e-002
1.591052e+003;4.654754e-002
1.592981e+003;4.692250e-002
1.594909e+003;4.729069e-002
1.596838e+003;4.761264e-002
1.598766e+003;4.766182e-002
1.600695e+003;4.769936e-002
1.602623e+003;4.775687e-002
1.604552e+003;4.793599e-002
1.606480e+003;4.808808e-002
1.608409e+003;4.777229e-002
1.610338e+003;4.759952e-002
1.612266e+003;4.765232e-002
1.614195e+003;4.663485e-002
1.616123e+003;4.471605e-002
1.618052e+003;4.577759e-002
1.619980e+003;4.719841e-002
1.621909e+003;4.605981e-002
1.623837e+003;4.545924e-002
1.625766e+003;4.597535e-002
1.627694e+003;4.571718e-002
1.629623e+003;4.550876e-002
1.631552e+003;4.517079e-002
1.633480e+003;4.317528e-002
1.635409e+003;4.088703e-002
1.637337e+003;4.155186e-002
1.639266e+003;4.262242e-002
1.641194e+003;4.241962e-002
1.643123e+003;4.152305e-002
1.645051e+003;3.937569e-002
1.646980e+003;3.835597e-002
1.648909e+003;3.872526e-002
1.650837e+003;3.527765e-002
1.652766e+003;3.099154e-002
1.654694e+003;3.393289e-002
1.656623e+003;3.716199e-002
1.658551e+003;3.731723e-002
1.660480e+003;3.655417e-002
1.662408e+003;3.548056e-002
1.664337e+003;3.591403e-002
1.666266e+003;3.589942e-002
1.668194e+003;3.385254e-002
1.670123e+003;3.285205e-002
1.672051e+003;3.317363e-002
1.673980e+003;3.212133e-002
1.675908e+003;3.163753e-002
1.677837e+003;3.240545e-002
1.679765e+003;3.171943e-002
1.681694e+003;2.969608e-002
1.683622e+003;2.593912e-002
1.685551e+003;2.614106e-002
1.687479e+003;2.875708e-002
1.689408e+003;2.920519e-002
1.691337e+003;2.916908e-002
1.693265e+003;2.770245e-002
1.695194e+003;2.449369e-002
1.697122e+003;2.392590e-002
1.699051e+003;2.283050e-002
1.700979e+003;2.254950e-002
1.702908e+003;2.445923e-002
1.704836e+003;2.410113e-002
1.706765e+003;2.405077e-002
1.708693e+003;2.421568e-002
1.710622e+003;2.413374e-002
1.712551e+003;2.333725e-002
1.714479e+003;2.171038e-002
1.716408e+003;1.933037e-002
1.718336e+003;1.911224e-002
1.720265e+003;2.103237e-002
1.722193e+003;2.169972e-002
1.724122e+003;2.174030e-002
1.726050e+003;2.184409e-002
1.727979e+003;2.121475e-002
1.729908e+003;2.050282e-002
1.731836e+003;1.872860e-002
1.733765e+003;1.687075e-002
1.735693e+003;1.895826e-002
1.737622e+003;2.072063e-002
1.739550e+003;2.037490e-002
1.741479e+003;2.106375e-002
1.743407e+003;2.176984e-002
1.745336e+003;2.214939e-002
1.747265e+003;2.242036e-002
1.749193e+003;2.241687e-002
1.751122e+003;2.221038e-002
1.753050e+003;2.340627e-002
1.754979e+003;2.409542e-002
1.756907e+003;2.404432e-002
1.758836e+003;2.422759e-002
1.760764e+003;2.373094e-002
1.762693e+003;2.369521e-002
1.764621e+003;2.429626e-002
1.766550e+003;2.370469e-002
1.768479e+003;2.285925e-002
1.770407e+003;2.219998e-002
1.772336e+003;2.145043e-002
1.774264e+003;2.220487e-002
1.776193e+003;2.309079e-002
1.778121e+003;2.322157e-002
1.780050e+003;2.281263e-002
1.781978e+003;2.259655e-002
1.783907e+003;2.242123e-002
1.785835e+003;2.250686e-002
1.787764e+003;2.297553e-002
1.789693e+003;2.254204e-002
1.791621e+003;2.140570e-002
1.793550e+003;2.144037e-002
1.795478e+003;2.224298e-002
1.797407e+003;2.239412e-002
1.799335e+003;2.232115e-002
1.801264e+003;2.226206e-002
1.803192e+003;2.257851e-002
1.805121e+003;2.279911e-002
1.807049e+003;2.294004e-002
1.808978e+003;2.284336e-002
1.810907e+003;2.269911e-002
1.812835e+003;2.289955e-002
1.814764e+003;2.310582e-002
1.816692e+003;2.294507e-002
1.818621e+003;2.298353e-002
1.820549e+003;2.311364e-002
1.822478e+003;2.289959e-002
1.824406e+003;2.242810e-002
1.826335e+003;2.268253e-002
1.828264e+003;2.272722e-002
1.830192e+003;2.266748e-002
1.832121e+003;2.322783e-002
1.834049e+003;2.336357e-002
1.835978e+003;2.296386e-002
1.837906e+003;2.253903e-002
1.839835e+003;2.277002e-002
1.841763e+003;2.273245e-002
1.843692e+003;2.186183e-002
1.845620e+003;2.219165e-002
1.847549e+003;2.304495e-002
1.849478e+003;2.346659e-002
1.851406e+003;2.374647e-002
1.853335e+003;2.352990e-002
1.855263e+003;2.326673e-002
1.857192e+003;2.322283e-002
1.859120e+003;2.339497e-002
1.861049e+003;2.339756e-002
1.862977e+003;2.334595e-002
1.864906e+003;2.309596e-002
1.866834e+003;2.249545e-002
1.868763e+003;2.200928e-002
1.870692e+003;2.243003e-002
1.872620e+003;2.311490e-002
1.874549e+003;2.317774e-002
1.876477e+003;2.323293e-002
1.878406e+003;2.318109e-002
1.880334e+003;2.334571e-002
1.882263e+003;2.358668e-002
1.884191e+003;2.337004e-002
1.886120e+003;2.324590e-002
1.888048e+003;2.315446e-002
1.889977e+003;2.301315e-002
1.891906e+003;2.315219e-002
1.893834e+003;2.295589e-002
1.895763e+003;2.300456e-002
1.897691e+003;2.326180e-002
1.899620e+003;2.333064e-002
1.901548e+003;2.318427e-002
1.903477e+003;2.306493e-002
1.905405e+003;2.292931e-002
1.907334e+003;2.299712e-002
1.909262e+003;2.311700e-002
1.911191e+003;2.335169e-002
1.913120e+003;2.360609e-002
1.915048e+003;2.344085e-002
1.916977e+003;2.310162e-002
1.918905e+003;2.322730e-002
1.920834e+003;2.340554e-002
1.922762e+003;2.337218e-002
1.924691e+003;2.365206e-002
1.926619e+003;2.392047e-002
1.928548e+003;2.388375e-002
1.930477e+003;2.364727e-002
1.932405e+003;2.342673e-002
1.934334e+003;2.333938e-002
1.936262e+003;2.337193e-002
1.938191e+003;2.341603e-002
1.940119e+003;2.326813e-002
1.942048e+003;2.311410e-002
1.943976e+003;2.347247e-002
1.945905e+003;2.387346e-002
1.947833e+003;2.392758e-002
1.949762e+003;2.373622e-002
1.951691e+003;2.376145e-002
1.953619e+003;2.393956e-002
1.955548e+003;2.395150e-002
1.957476e+003;2.391554e-002
1.959405e+003;2.389432e-002
1.961333e+003;2.384496e-002
1.963262e+003;2.366718e-002
1.965190e+003;2.364738e-002
1.967119e+003;2.369535e-002
1.969047e+003;2.383142e-002
1.970976e+003;2.397580e-002
1.972905e+003;2.408204e-002
1.974833e+003;2.422198e-002
1.976762e+003;2.443319e-002
1.978690e+003;2.465624e-002
1.980619e+003;2.477458e-002
1.982547e+003;2.449849e-002
1.984476e+003;2.436905e-002
1.986404e+003;2.440308e-002
1.988333e+003;2.454964e-002
1.990261e+003;2.455420e-002
1.992190e+003;2.441731e-002
1.994119e+003;2.448345e-002
1.996047e+003;2.463629e-002
1.997976e+003;2.486215e-002
1.999904e+003;2.489446e-002
2.001833e+003;2.506605e-002
2.003761e+003;2.518433e-002
2.005690e+003;2.505117e-002
2.007618e+003;2.486976e-002
2.009547e+003;2.487766e-002
2.011476e+003;2.521782e-002
2.013404e+003;2.552765e-002
2.015333e+003;2.550772e-002
2.017261e+003;2.537647e-002
2.019190e+003;2.544525e-002
2.021118e+003;2.553422e-002
2.023047e+003;2.566018e-002
2.024975e+003;2.577725e-002
2.026904e+003;2.591316e-002
2.028833e+003;2.574146e-002
2.030761e+003;2.562883e-002
2.032690e+003;2.581466e-002
2.034618e+003;2.602833e-002
2.036547e+003;2.607477e-002
2.038475e+003;2.624774e-002
2.040404e+003;2.614592e-002
2.042332e+003;2.611217e-002
2.044261e+003;2.634940e-002
2.046189e+003;2.643521e-002
2.048118e+003;2.658715e-002
2.050047e+003;2.684419e-002
2.051975e+003;2.686013e-002
2.053904e+003;2.692485e-002
2.055832e+003;2.679764e-002
2.057761e+003;2.651075e-002
2.059689e+003;2.660314e-002
2.061618e+003;2.679658e-002
2.063546e+003;2.702346e-002
2.065475e+003;2.697759e-002
2.067404e+003;2.679076e-002
2.069332e+003;2.694572e-002
2.071260e+003;2.693983e-002
2.073189e+003;2.687567e-002
2.075118e+003;2.712922e-002
2.077046e+003;2.723226e-002
2.078975e+003;2.698975e-002
2.080903e+003;2.689622e-002
2.082832e+003;2.695704e-002
2.084760e+003;2.696694e-002
2.086689e+003;2.707248e-002
2.088617e+003;2.698150e-002
2.090546e+003;2.686482e-002
2.092475e+003;2.693518e-002
2.094403e+003;2.694586e-002
2.096332e+003;2.706070e-002
2.098260e+003;2.699910e-002
2.100189e+003;2.696476e-002
2.102117e+003;2.723558e-002
2.104046e+003;2.731972e-002
2.105974e+003;2.706951e-002
2.107903e+003;2.712390e-002
2.109832e+003;2.731605e-002
2.111760e+003;2.726521e-002
2.113688e+003;2.716026e-002
2.115617e+003;2.699610e-002
2.117546e+003;2.697977e-002
2.119474e+003;2.699278e-002
2.121403e+003;2.699028e-002
2.123331e+003;2.702759e-002
2.125260e+003;2.715236e-002
2.127188e+003;2.757357e-002
2.129117e+003;2.784731e-002
2.131045e+003;2.795380e-002
2.132974e+003;2.795218e-002
2.134903e+003;2.801731e-002
2.136831e+003;2.802462e-002
2.138760e+003;2.797804e-002
2.140688e+003;2.783986e-002
2.142617e+003;2.773247e-002
2.144545e+003;2.754832e-002
2.146474e+003;2.747868e-002
2.148402e+003;2.745111e-002
2.150331e+003;2.730113e-002
2.152260e+003;2.731189e-002
2.154188e+003;2.752022e-002
2.156117e+003;2.776740e-002
2.158045e+003;2.774261e-002
2.159974e+003;2.770588e-002
2.161902e+003;2.775215e-002
2.163831e+003;2.772354e-002
2.165759e+003;2.756485e-002
2.167688e+003;2.757604e-002
2.169616e+003;2.761964e-002
2.171545e+003;2.776740e-002
2.173474e+003;2.800734e-002
2.175402e+003;2.808093e-002
2.177331e+003;2.782046e-002
2.179259e+003;2.751246e-002
2.181188e+003;2.729065e-002
2.183116e+003;2.739951e-002
2.185045e+003;2.772431e-002
2.186973e+003;2.763719e-002
2.188902e+003;2.752178e-002
2.190831e+003;2.749982e-002
2.192759e+003;2.748298e-002
2.194688e+003;2.734015e-002
2.196616e+003;2.735162e-002
2.198545e+003;2.755782e-002
2.200473e+003;2.759782e-002
2.202402e+003;2.744507e-002
2.204330e+003;2.751175e-002
2.206259e+003;2.749149e-002
2.208188e+003;2.724295e-002
2.210116e+003;2.720153e-002
2.212044e+003;2.741641e-002
2.213973e+003;2.754328e-002
2.215902e+003;2.749569e-002
2.217830e+003;2.734029e-002
2.219759e+003;2.744934e-002
2.221687e+003;2.782336e-002
2.223616e+003;2.810129e-002
2.225544e+003;2.798607e-002
2.227473e+003;2.759232e-002
2.229401e+003;2.744733e-002
2.231330e+003;2.766099e-002
2.233259e+003;2.781287e-002
2.235187e+003;2.806060e-002
2.237116e+003;2.801028e-002
2.239044e+003;2.790596e-002
2.240973e+003;2.809192e-002
2.242901e+003;2.787066e-002
2.244830e+003;2.784063e-002
2.246758e+003;2.817422e-002
2.248687e+003;2.800119e-002
2.250615e+003;2.797730e-002
2.252544e+003;2.800391e-002
2.254473e+003;2.803653e-002
2.256401e+003;2.813028e-002
2.258330e+003;2.822114e-002
2.260258e+003;2.827627e-002
2.262187e+003;2.835305e-002
2.264115e+003;2.834862e-002
2.266044e+003;2.809093e-002
2.267972e+003;2.816955e-002
2.269901e+003;2.838527e-002
2.271830e+003;2.820855e-002
2.273758e+003;2.783353e-002
2.275687e+003;2.774660e-002
2.277615e+003;2.796529e-002
2.279544e+003;2.833635e-002
2.281472e+003;2.843585e-002
2.283401e+003;2.832281e-002
2.285329e+003;2.809896e-002
2.287258e+003;2.820007e-002
2.289187e+003;2.858927e-002
2.291115e+003;2.893321e-002
2.293043e+003;2.879578e-002
2.294972e+003;2.841675e-002
2.296901e+003;2.824317e-002
2.298829e+003;2.817995e-002
2.300758e+003;2.843978e-002
2.302686e+003;2.830629e-002
2.304615e+003;2.791183e-002
2.306543e+003;2.797667e-002
2.308472e+003;2.782876e-002
2.310400e+003;2.746689e-002
2.312329e+003;2.731030e-002
2.314258e+003;2.697667e-002
2.316186e+003;2.633476e-002
2.318115e+003;2.558760e-002
2.320043e+003;2.500438e-002
2.321972e+003;2.460890e-002
2.323900e+003;2.391022e-002
2.325829e+003;2.287992e-002
2.327757e+003;2.211982e-002
2.329686e+003;2.146178e-002
2.331615e+003;2.095406e-002
2.333543e+003;2.113192e-002
2.335472e+003;2.094245e-002
2.337400e+003;2.052567e-002
2.339329e+003;2.085966e-002
2.341257e+003;2.172950e-002
2.343186e+003;2.300672e-002
2.345114e+003;2.464299e-002
2.347043e+003;2.631212e-002
2.348971e+003;2.700287e-002
2.350900e+003;2.563624e-002
2.352829e+003;2.373307e-002
2.354757e+003;2.216090e-002
2.356686e+003;2.052077e-002
2.358614e+003;1.923102e-002
2.360543e+003;1.857347e-002
2.362471e+003;1.870846e-002
2.364400e+003;1.957293e-002
2.366328e+003;2.070694e-002
2.368257e+003;2.186775e-002
2.370186e+003;2.323590e-002
2.372114e+003;2.479300e-002
2.374042e+003;2.631722e-002
2.375971e+003;2.766276e-002
2.377900e+003;2.887608e-002
2.379828e+003;3.005602e-002
2.381757e+003;3.085865e-002
2.383685e+003;3.113611e-002
2.385614e+003;3.124070e-002
2.387542e+003;3.152268e-002
2.389471e+003;3.170507e-002
2.391399e+003;3.183283e-002
2.393328e+003;3.208341e-002
2.395257e+003;3.215519e-002
2.397185e+003;3.215112e-002
2.399114e+003;3.233188e-002
2.401042e+003;3.212711e-002
2.402971e+003;3.197550e-002
2.404899e+003;3.205844e-002
2.406828e+003;3.189123e-002
2.408756e+003;3.218902e-002
2.410685e+003;3.285823e-002
2.412614e+003;3.302420e-002
2.414542e+003;3.294280e-002
2.416471e+003;3.284812e-002
2.418399e+003;3.297830e-002
2.420328e+003;3.322549e-002
2.422256e+003;3.333936e-002
2.424185e+003;3.339607e-002
2.426113e+003;3.339045e-002
2.428042e+003;3.337413e-002
2.429970e+003;3.347680e-002
2.431899e+003;3.359045e-002
2.433828e+003;3.354803e-002
2.435756e+003;3.357237e-002
2.437685e+003;3.379741e-002
2.439613e+003;3.401146e-002
2.441542e+003;3.432490e-002
2.443470e+003;3.456207e-002
2.445399e+003;3.457717e-002
2.447327e+003;3.456651e-002
2.449256e+003;3.448709e-002
2.451185e+003;3.479376e-002
2.453113e+003;3.496901e-002
2.455042e+003;3.490319e-002
2.456970e+003;3.495303e-002
2.458899e+003;3.524358e-002
2.460827e+003;3.548750e-002
2.462756e+003;3.551393e-002
2.464684e+003;3.557096e-002
2.466613e+003;3.553756e-002
2.468542e+003;3.555913e-002
2.470470e+003;3.570098e-002
2.472398e+003;3.608416e-002
2.474327e+003;3.645505e-002
2.476256e+003;3.650385e-002
2.478184e+003;3.667089e-002
2.480113e+003;3.697760e-002
2.482041e+003;3.682847e-002
2.483970e+003;3.671888e-002
2.485898e+003;3.698896e-002
2.487827e+003;3.707116e-002
2.489755e+003;3.712583e-002
2.491684e+003;3.733120e-002
2.493613e+003;3.747021e-002
2.495541e+003;3.751572e-002
2.497470e+003;3.763715e-002
2.499398e+003;3.774346e-002
2.501327e+003;3.795781e-002
2.503255e+003;3.802029e-002
2.505184e+003;3.809083e-002
2.507112e+003;3.803013e-002
2.509041e+003;3.800731e-002
2.510969e+003;3.839140e-002
2.512898e+003;3.857775e-002
2.514827e+003;3.852441e-002
2.516755e+003;3.856370e-002
2.518684e+003;3.868419e-002
2.520612e+003;3.866803e-002
2.522541e+003;3.860299e-002
2.524469e+003;3.880609e-002
2.526398e+003;3.914259e-002
2.528326e+003;3.925040e-002
2.530255e+003;3.906460e-002
2.532184e+003;3.895970e-002
2.534112e+003;3.932646e-002
2.536041e+003;3.983674e-002
2.537969e+003;3.994251e-002
2.539898e+003;3.976804e-002
2.541826e+003;3.984146e-002
2.543755e+003;3.990579e-002
2.545683e+003;3.987651e-002
2.547612e+003;3.999700e-002
2.549541e+003;4.053932e-002
2.551469e+003;4.087531e-002
2.553397e+003;4.063871e-002
2.555326e+003;4.049138e-002
2.557255e+003;4.045737e-002
2.559183e+003;4.056806e-002
2.561112e+003;4.094120e-002
2.563040e+003;4.131813e-002
2.564969e+003;4.154314e-002
2.566897e+003;4.152426e-002
2.568826e+003;4.117130e-002
2.570754e+003;4.103409e-002
2.572683e+003;4.129959e-002
2.574612e+003;4.149866e-002
2.576540e+003;4.158453e-002
2.578469e+003;4.190261e-002
2.580397e+003;4.215541e-002
2.582326e+003;4.215442e-002
2.584254e+003;4.198716e-002
2.586183e+003;4.221650e-002
2.588111e+003;4.263299e-002
2.590040e+003;4.281107e-002
2.591969e+003;4.280178e-002
2.593897e+003;4.265170e-002
2.595826e+003;4.282961e-002
2.597754e+003;4.315694e-002
2.599683e+003;4.322359e-002
2.601611e+003;4.308530e-002
2.603540e+003;4.309272e-002
2.605468e+003;4.310959e-002
2.607397e+003;4.301757e-002
2.609325e+003;4.310059e-002
2.611254e+003;4.356613e-002
2.613183e+003;4.382185e-002
2.615111e+003;4.357009e-002
2.617040e+003;4.384794e-002
2.618968e+003;4.438012e-002
2.620897e+003;4.452261e-002
2.622825e+003;4.451729e-002
2.624754e+003;4.454603e-002
2.626682e+003;4.444711e-002
2.628611e+003;4.473284e-002
2.630540e+003;4.522289e-002
2.632468e+003;4.548098e-002
2.634396e+003;4.562553e-002
2.636325e+003;4.586898e-002
2.638254e+003;4.602040e-002
2.640182e+003;4.597988e-002
2.642111e+003;4.613479e-002
2.644039e+003;4.629319e-002
2.645968e+003;4.656896e-002
2.647896e+003;4.696133e-002
2.649825e+003;4.711590e-002
2.651753e+003;4.709145e-002
2.653682e+003;4.719845e-002
2.655611e+003;4.729971e-002
2.657539e+003;4.738288e-002
2.659468e+003;4.749091e-002
2.661396e+003;4.810885e-002
2.663325e+003;4.881594e-002
2.665253e+003;4.866355e-002
2.667182e+003;4.845386e-002
2.669110e+003;4.860544e-002
2.671039e+003;4.936575e-002
2.672968e+003;4.973268e-002
2.674896e+003;4.964753e-002
2.676825e+003;4.967201e-002
2.678753e+003;4.993562e-002
2.680682e+003;5.033778e-002
2.682610e+003;5.050651e-002
2.684539e+003;5.062485e-002
2.686467e+003;5.064328e-002
2.688396e+003;5.081331e-002
2.690324e+003;5.138714e-002
2.692253e+003;5.184202e-002
2.694182e+003;5.198641e-002
2.696110e+003;5.185042e-002
2.698039e+003;5.198100e-002
2.699967e+003;5.231935e-002
2.701896e+003;5.239986e-002
2.703824e+003;5.242708e-002
2.705753e+003;5.253416e-002
2.707681e+003;5.270195e-002
2.709610e+003;5.324625e-002
2.711539e+003;5.365472e-002
2.713467e+003;5.396458e-002
2.715396e+003;5.425431e-002
2.717324e+003;5.424568e-002
2.719253e+003;5.408292e-002
2.721181e+003;5.374249e-002
2.723110e+003;5.381041e-002
2.725038e+003;5.433793e-002
2.726967e+003;5.478301e-002
2.728896e+003;5.506754e-002
2.730824e+003;5.508511e-002
2.732752e+003;5.497265e-002
2.734681e+003;5.518634e-002
2.736610e+003;5.564559e-002
2.738538e+003;5.572232e-002
2.740467e+003;5.568860e-002
2.742395e+003;5.569663e-002
2.744324e+003;5.608112e-002
2.746252e+003;5.667042e-002
2.748181e+003;5.654653e-002
2.750109e+003;5.631305e-002
2.752038e+003;5.689986e-002
2.753967e+003;5.703110e-002
2.755895e+003;5.668873e-002
2.757824e+003;5.683773e-002
2.759752e+003;5.720645e-002
2.761681e+003;5.760674e-002
2.763609e+003;5.790804e-002
2.765538e+003;5.805133e-002
2.767466e+003;5.831792e-002
2.769395e+003;5.849959e-002
2.771323e+003;5.847957e-002
2.773252e+003;5.853398e-002
2.775181e+003;5.876331e-002
2.777109e+003;5.900316e-002
2.779038e+003;5.897060e-002
2.780966e+003;5.899937e-002
2.782895e+003;5.923422e-002
2.784823e+003;5.972416e-002
2.786752e+003;6.019733e-002
2.788680e+003;6.055871e-002
2.790609e+003;6.069785e-002
2.792538e+003;6.086992e-002
2.794466e+003;6.105225e-002
2.796395e+003;6.120642e-002
2.798323e+003;6.139732e-002
2.800252e+003;6.157162e-002
2.802180e+003;6.198619e-002
2.804109e+003;6.241555e-002
2.806037e+003;6.260292e-002
2.807966e+003;6.301867e-002
2.809895e+003;6.366403e-002
2.811823e+003;6.408661e-002
2.813751e+003;6.439651e-002
2.815680e+003;6.458328e-002
2.817609e+003;6.486380e-002
2.819537e+003;6.547458e-002
2.821466e+003;6.595580e-002
2.823394e+003;6.637945e-002
2.825323e+003;6.684150e-002
2.827251e+003;6.713215e-002
2.829180e+003;6.764722e-002
2.831108e+003;6.817260e-002
2.833037e+003;6.865919e-002
2.834966e+003;6.922513e-002
2.836894e+003;6.999445e-002
2.838823e+003;7.084568e-002
2.840751e+003;7.119250e-002
2.842680e+003;7.141080e-002
2.844608e+003;7.184286e-002
2.846537e+003;7.234348e-002
2.848465e+003;7.307934e-002
2.850394e+003;7.421914e-002
2.852323e+003;7.561974e-002
2.854251e+003;7.692412e-002
2.856180e+003;7.818712e-002
2.858108e+003;7.961098e-002
2.860037e+003;8.070595e-002
2.861965e+003;8.191679e-002
2.863894e+003;8.342333e-002
2.865822e+003;8.471373e-002
2.867751e+003;8.532801e-002
2.869679e+003;8.571687e-002
2.871608e+003;8.642971e-002
2.873536e+003;8.744387e-002
2.875465e+003;8.834814e-002
2.877394e+003;8.911023e-002
2.879322e+003;9.000649e-002
2.881251e+003;9.069158e-002
2.883179e+003;9.133274e-002
2.885108e+003;9.179929e-002
2.887036e+003;9.219271e-002
2.888965e+003;9.264608e-002
2.890893e+003;9.285574e-002
2.892822e+003;9.295690e-002
2.894750e+003;9.292579e-002
2.896679e+003;9.286584e-002
2.898608e+003;9.278702e-002
2.900536e+003;9.274317e-002
2.902465e+003;9.269349e-002
2.904393e+003;9.243901e-002
2.906322e+003;9.174722e-002
2.908250e+003;9.090815e-002
2.910179e+003;9.021774e-002
2.912107e+003;8.958694e-002
2.914036e+003;8.841000e-002
2.915965e+003;8.711647e-002
2.917893e+003;8.641014e-002
2.919822e+003;8.609835e-002
2.921750e+003;8.590440e-002
2.923679e+003;8.599054e-002
2.925607e+003;8.612433e-002
2.927536e+003;8.611701e-002
2.929464e+003;8.622967e-002
2.931393e+003;8.600827e-002
2.933322e+003;8.583757e-002
2.935250e+003;8.598617e-002
2.937178e+003;8.610934e-002
2.939107e+003;8.556690e-002
2.941036e+003;8.465789e-002
2.942964e+003;8.394480e-002
2.944893e+003;8.323193e-002
2.946821e+003;8.201899e-002
2.948750e+003;8.029537e-002
2.950678e+003;7.939353e-002
2.952607e+003;7.886282e-002
2.954535e+003;7.775965e-002
2.956464e+003;7.663243e-002
2.958393e+003;7.546755e-002
2.960321e+003;7.411683e-002
2.962250e+003;7.377063e-002
2.964178e+003;7.371169e-002
2.966107e+003;7.341437e-002
2.968035e+003;7.300705e-002
2.969964e+003;7.251933e-002
2.971892e+003;7.183515e-002
2.973821e+003;7.102963e-002
2.975750e+003;7.023833e-002
2.977678e+003;6.963486e-002
2.979607e+003;6.924607e-002
2.981535e+003;6.874105e-002
2.983464e+003;6.771708e-002
2.985392e+003;6.675289e-002
2.987321e+003;6.615563e-002
2.989249e+003;6.558111e-002
2.991178e+003;6.516722e-002
2.993106e+003;6.507625e-002
2.995035e+003;6.495291e-002
2.996964e+003;6.503627e-002
2.998892e+003;6.489293e-002
3.000821e+003;6.458155e-002
3.002749e+003;6.428292e-002
3.004678e+003;6.397118e-002
3.006606e+003;6.418262e-002
3.008535e+003;6.449636e-002
3.010463e+003;6.459724e-002
3.012392e+003;6.439540e-002
3.014321e+003;6.436035e-002
3.016249e+003;6.449882e-002
3.018177e+003;6.422322e-002
3.020106e+003;6.429391e-002
3.022035e+003;6.438614e-002
3.023963e+003;6.458271e-002
3.025892e+003;6.520344e-002
3.027820e+003;6.581439e-002
3.029749e+003;6.603001e-002
3.031677e+003;6.601813e-002
3.033606e+003;6.641334e-002
3.035534e+003;6.659330e-002
3.037463e+003;6.689449e-002
3.039392e+003;6.723673e-002
3.041320e+003;6.763464e-002
3.043249e+003;6.766805e-002
3.045177e+003;6.769547e-002
3.047106e+003;6.809047e-002
3.049034e+003;6.894224e-002
3.050963e+003;6.962864e-002
3.052891e+003;6.976437e-002
3.054820e+003;7.021745e-002
3.056749e+003;7.053539e-002
3.058677e+003;7.083531e-002
3.060606e+003;7.165321e-002
3.062534e+003;7.201596e-002
3.064463e+003;7.202762e-002
3.066391e+003;7.239538e-002
3.068320e+003;7.264253e-002
3.070248e+003;7.298016e-002
3.072177e+003;7.366347e-002
3.074105e+003;7.393653e-002
3.076034e+003;7.399809e-002
3.077963e+003;7.489638e-002
3.079891e+003;7.616490e-002
3.081820e+003;7.661950e-002
3.083748e+003;7.656701e-002
3.085677e+003;7.671247e-002
3.087605e+003;7.716270e-002
3.089534e+003;7.787610e-002
3.091462e+003;7.862879e-002
3.093391e+003;7.925826e-002
3.095320e+003;7.956915e-002
3.097248e+003;7.951766e-002
3.099177e+003;7.967550e-002
3.101105e+003;8.061319e-002
3.103034e+003;8.157050e-002
3.104962e+003;8.217306e-002
3.106891e+003;8.286992e-002
3.108819e+003;8.341996e-002
3.110748e+003;8.371790e-002
3.112677e+003;8.391968e-002
3.114605e+003;8.437503e-002
3.116533e+003;8.541481e-002
3.118462e+003;8.601817e-002
3.120391e+003;8.625242e-002
3.122319e+003;8.666290e-002
3.124248e+003;8.714170e-002
3.126176e+003;8.742268e-002
3.128105e+003;8.769673e-002
3.130033e+003;8.850127e-002
3.131962e+003;8.927465e-002
3.133890e+003;8.932027e-002
3.135819e+003;9.000742e-002
3.137748e+003;9.065256e-002
3.139676e+003;9.109152e-002
3.141605e+003;9.165241e-002
3.143533e+003;9.242737e-002
3.145462e+003;9.339422e-002
3.147390e+003;9.417860e-002
3.149319e+003;9.420301e-002
3.151247e+003;9.405234e-002
3.153176e+003;9.446495e-002
3.155104e+003;9.492420e-002
3.157033e+003;9.548894e-002
3.158962e+003;9.638350e-002
3.160890e+003;9.707965e-002
3.162819e+003;9.768973e-002
3.164747e+003;9.825526e-002
3.166676e+003;9.845419e-002
3.168604e+003;9.906688e-002
3.170533e+003;9.967830e-002
3.172461e+003;1.002013e-001
3.174390e+003;1.008807e-001
3.176319e+003;1.012339e-001
3.178247e+003;1.018005e-001
3.180176e+003;1.021630e-001
3.182104e+003;1.021440e-001
3.184033e+003;1.022717e-001
3.185961e+003;1.031642e-001
3.187890e+003;1.041909e-001
3.189818e+003;1.048926e-001
3.191747e+003;1.057847e-001
3.193676e+003;1.063763e-001
3.195604e+003;1.062783e-001
3.197532e+003;1.069796e-001
3.199461e+003;1.079878e-001
3.201390e+003;1.086835e-001
3.203318e+003;1.087983e-001
3.205247e+003;1.086679e-001
3.207175e+003;1.087851e-001
3.209104e+003;1.092180e-001
3.211032e+003;1.099336e-001
3.212961e+003;1.106753e-001
3.214889e+003;1.114120e-001
3.216818e+003;1.120655e-001
3.218747e+003;1.125803e-001
3.220675e+003;1.130477e-001
3.222604e+003;1.130340e-001
3.224532e+003;1.132002e-001
3.226461e+003;1.139433e-001
3.228389e+003;1.144188e-001
3.230318e+003;1.146161e-001
3.232246e+003;1.150448e-001
3.234175e+003;1.160551e-001
3.236104e+003;1.168264e-001
3.238032e+003;1.168637e-001
3.239961e+003;1.175187e-001
3.241889e+003;1.182951e-001
3.243818e+003;1.185852e-001
3.245746e+003;1.189787e-001
3.247675e+003;1.194483e-001
3.249603e+003;1.200409e-001
3.251532e+003;1.203237e-001
3.253460e+003;1.206668e-001
3.255389e+003;1.212680e-001
3.257318e+003;1.214745e-001
3.259246e+003;1.216165e-001
3.261175e+003;1.219666e-001
3.263103e+003;1.222078e-001
3.265032e+003;1.225946e-001
3.266960e+003;1.229845e-001
3.268889e+003;1.233652e-001
3.270817e+003;1.241748e-001
3.272746e+003;1.246943e-001
3.274675e+003;1.247961e-001
3.276603e+003;1.246665e-001
3.278531e+003;1.246855e-001
3.280460e+003;1.251978e-001
3.282389e+003;1.258139e-001
3.284317e+003;1.260497e-001
3.286246e+003;1.263881e-001
3.288174e+003;1.265702e-001
3.290103e+003;1.262101e-001
3.292031e+003;1.263601e-001
3.293960e+003;1.268569e-001
3.295888e+003;1.265960e-001
3.297817e+003;1.268239e-001
3.299746e+003;1.276318e-001
3.301674e+003;1.277046e-001
3.303603e+003;1.273545e-001
3.305531e+003;1.273803e-001
3.307460e+003;1.278865e-001
3.309388e+003;1.279293e-001
3.311317e+003;1.277752e-001
3.313245e+003;1.280883e-001
3.315174e+003;1.287002e-001
3.317103e+003;1.292762e-001
3.319031e+003;1.294962e-001
3.320960e+003;1.296014e-001
3.322888e+003;1.296573e-001
3.324817e+003;1.298295e-001
3.326745e+003;1.296581e-001
3.328674e+003;1.294200e-001
3.330602e+003;1.295548e-001
3.332531e+003;1.294560e-001
3.334459e+003;1.296062e-001
3.336388e+003;1.298901e-001
3.338317e+003;1.293924e-001
3.340245e+003;1.295698e-001
3.342174e+003;1.300230e-001
3.344102e+003;1.302262e-001
3.346031e+003;1.296509e-001
3.347959e+003;1.284826e-001
3.349888e+003;1.278268e-001
3.351816e+003;1.279213e-001
3.353745e+003;1.286046e-001
3.355674e+003;1.289082e-001
3.357602e+003;1.284639e-001
3.359531e+003;1.276024e-001
3.361459e+003;1.274449e-001
3.363388e+003;1.274163e-001
3.365316e+003;1.273146e-001
3.367245e+003;1.274084e-001
3.369173e+003;1.273834e-001
3.371102e+003;1.273765e-001
3.373031e+003;1.271506e-001
3.374959e+003;1.271524e-001
3.376887e+003;1.274519e-001
3.378816e+003;1.275764e-001
3.380745e+003;1.270126e-001
3.382673e+003;1.265061e-001
3.384602e+003;1.267159e-001
3.386530e+003;1.269565e-001
3.388459e+003;1.264651e-001
3.390387e+003;1.257456e-001
3.392316e+003;1.253407e-001
3.394244e+003;1.257379e-001
3.396173e+003;1.257831e-001
3.398102e+003;1.253502e-001
3.400030e+003;1.247953e-001
3.401959e+003;1.247167e-001
3.403887e+003;1.246962e-001
3.405816e+003;1.249718e-001
3.407744e+003;1.245029e-001
3.409673e+003;1.233349e-001
3.411601e+003;1.223391e-001
3.413530e+003;1.218943e-001
3.415458e+003;1.220085e-001
3.417387e+003;1.222125e-001
3.419316e+003;1.216370e-001
3.421244e+003;1.209216e-001
3.423173e+003;1.202215e-001
3.425101e+003;1.198251e-001
3.427030e+003;1.196545e-001
3.428958e+003;1.189070e-001
3.430887e+003;1.185820e-001
3.432815e+003;1.183843e-001
3.434744e+003;1.176750e-001
3.436673e+003;1.174249e-001
3.438601e+003;1.173768e-001
3.440530e+003;1.168652e-001
3.442458e+003;1.158633e-001
3.444387e+003;1.156411e-001
3.446315e+003;1.154015e-001
3.448244e+003;1.148668e-001
3.450172e+003;1.143043e-001
3.452101e+003;1.136574e-001
3.454030e+003;1.131845e-001
3.455958e+003;1.130073e-001
3.457886e+003;1.127449e-001
3.459815e+003;1.124168e-001
3.461744e+003;1.118816e-001
3.463672e+003;1.113453e-001
3.465601e+003;1.110951e-001
3.467529e+003;1.104591e-001
3.469458e+003;1.088855e-001
3.471386e+003;1.081651e-001
3.473315e+003;1.080102e-001
3.475243e+003;1.069821e-001
3.477172e+003;1.064628e-001
3.479101e+003;1.064742e-001
3.481029e+003;1.061036e-001
3.482958e+003;1.054789e-001
3.484886e+003;1.047725e-001
3.486815e+003;1.039946e-001
3.488743e+003;1.031518e-001
3.490672e+003;1.020416e-001
3.492600e+003;1.011840e-001
3.494529e+003;1.008983e-001
3.496458e+003;1.005164e-001
3.498386e+003;9.939362e-002
3.500315e+003;9.792356e-002
3.502243e+003;9.727750e-002
3.504172e+003;9.713746e-002
3.506100e+003;9.682027e-002
3.508029e+003;9.552845e-002
3.509957e+003;9.398598e-002
3.511886e+003;9.339085e-002
3.513814e+003;9.273164e-002
3.515743e+003;9.205201e-002
3.517672e+003;9.148484e-002
3.519600e+003;9.071535e-002
3.521529e+003;8.939219e-002
3.523457e+003;8.847921e-002
3.525386e+003;8.826340e-002
3.527314e+003;8.743353e-002
3.529243e+003;8.649966e-002
3.531171e+003;8.579663e-002
3.533100e+003;8.449275e-002
3.535029e+003;8.331980e-002
3.536957e+003;8.283523e-002
3.538885e+003;8.231581e-002
3.540814e+003;8.160620e-002
3.542743e+003;8.054474e-002
3.544671e+003;7.911639e-002
3.546600e+003;7.782782e-002
3.548528e+003;7.681682e-002
3.550457e+003;7.588823e-002
3.552385e+003;7.520712e-002
3.554314e+003;7.472696e-002
3.556242e+003;7.408803e-002
3.558171e+003;7.353672e-002
3.560100e+003;7.272835e-002
3.562028e+003;7.140682e-002
3.563957e+003;6.970955e-002
3.565885e+003;6.812698e-002
3.567814e+003;6.753321e-002
3.569742e+003;6.758640e-002
3.571671e+003;6.687570e-002
3.573599e+003;6.526848e-002
3.575528e+003;6.387959e-002
3.577457e+003;6.291843e-002
3.579385e+003;6.212769e-002
3.581314e+003;6.175729e-002
3.583242e+003;6.108642e-002
3.585171e+003;5.922104e-002
3.587099e+003;5.789169e-002
3.589028e+003;5.785886e-002
3.590956e+003;5.760984e-002
3.592885e+003;5.610393e-002
3.594813e+003;5.500597e-002
3.596742e+003;5.456731e-002
3.598671e+003;5.405872e-002
3.600599e+003;5.338857e-002
3.602528e+003;5.271998e-002
3.604456e+003;5.190213e-002
3.606385e+003;5.059026e-002
3.608313e+003;4.893449e-002
3.610242e+003;4.896427e-002
3.612170e+003;4.903115e-002
3.614099e+003;4.851762e-002
3.616028e+003;4.783121e-002
3.617956e+003;4.631107e-002
3.619885e+003;4.567904e-002
3.621813e+003;4.611891e-002
3.623742e+003;4.591918e-002
3.625670e+003;4.452107e-002
3.627599e+003;4.204983e-002
3.629527e+003;4.163273e-002
3.631456e+003;4.294163e-002
3.633385e+003;4.302903e-002
3.635313e+003;4.289112e-002
3.637241e+003;4.271322e-002
3.639170e+003;4.223976e-002
3.641099e+003;4.182726e-002
3.643027e+003;4.148583e-002
3.644956e+003;4.022002e-002
3.646884e+003;3.839463e-002
3.648813e+003;3.748408e-002
3.650741e+003;3.814320e-002
3.652670e+003;3.949934e-002
3.654598e+003;3.909063e-002
3.656527e+003;3.800189e-002
3.658456e+003;3.847170e-002
3.660384e+003;3.920271e-002
3.662313e+003;3.896934e-002
3.664241e+003;3.852246e-002
3.666170e+003;3.803961e-002
3.668098e+003;3.603023e-002
3.670027e+003;3.425674e-002
3.671955e+003;3.512555e-002
3.673884e+003;3.352680e-002
3.675813e+003;3.216597e-002
3.677741e+003;3.492725e-002
3.679669e+003;3.690721e-002
3.681598e+003;3.739418e-002
3.683527e+003;3.702031e-002
3.685455e+003;3.604938e-002
3.687384e+003;3.376360e-002
3.689312e+003;3.330312e-002
3.691241e+003;3.484574e-002
3.693169e+003;3.590388e-002
3.695098e+003;3.591353e-002
3.697026e+003;3.608383e-002
3.698955e+003;3.621811e-002
3.700884e+003;3.570224e-002
3.702812e+003;3.540769e-002
3.704741e+003;3.581208e-002
3.706669e+003;3.588024e-002
3.708598e+003;3.492772e-002
3.710526e+003;3.381385e-002
3.712455e+003;3.395195e-002
3.714383e+003;3.490014e-002
3.716312e+003;3.544749e-002
3.718240e+003;3.582648e-002
3.720169e+003;3.542764e-002
3.722098e+003;3.517067e-002
3.724026e+003;3.493774e-002
3.725955e+003;3.444730e-002
3.727883e+003;3.486330e-002
3.729812e+003;3.479724e-002
3.731740e+003;3.351624e-002
3.733669e+003;3.255971e-002
3.735597e+003;3.226485e-002
3.737526e+003;3.403178e-002
3.739455e+003;3.460724e-002
3.741383e+003;3.322417e-002
3.743312e+003;3.022894e-002
3.745240e+003;3.058392e-002
3.747169e+003;3.222363e-002
3.749097e+003;3.075247e-002
3.751026e+003;3.043403e-002
3.752954e+003;3.251157e-002
3.754883e+003;3.456971e-002
3.756812e+003;3.427026e-002
3.758740e+003;3.374624e-002
3.760668e+003;3.439200e-002
3.762597e+003;3.458672e-002
3.764526e+003;3.420332e-002
3.766454e+003;3.424666e-002
3.768383e+003;3.413138e-002
3.770311e+003;3.496592e-002
3.772240e+003;3.551098e-002
3.774168e+003;3.548517e-002
3.776097e+003;3.527323e-002
3.778025e+003;3.475919e-002
3.779954e+003;3.468256e-002
3.781883e+003;3.543400e-002
3.783811e+003;3.572480e-002
3.785740e+003;3.591151e-002
3.787668e+003;3.558100e-002
3.789597e+003;3.515336e-002
3.791525e+003;3.522956e-002
3.793454e+003;3.520675e-002
3.795382e+003;3.498115e-002
3.797311e+003;3.494901e-002
3.799240e+003;3.303775e-002
3.801168e+003;3.163050e-002
3.803097e+003;3.388141e-002
3.805025e+003;3.487522e-002
3.806954e+003;3.404325e-002
3.808882e+003;3.487666e-002
3.810811e+003;3.538576e-002
3.812739e+003;3.519259e-002
3.814668e+003;3.304504e-002
3.816596e+003;3.269358e-002
3.818525e+003;3.387281e-002
3.820454e+003;3.294219e-002
3.822382e+003;3.356303e-002
3.824311e+003;3.483681e-002
3.826239e+003;3.469961e-002
3.828168e+003;3.458345e-002
3.830096e+003;3.410955e-002
3.832025e+003;3.411980e-002
3.833953e+003;3.392916e-002
3.835882e+003;3.246051e-002
3.837811e+003;3.216301e-002
3.839739e+003;3.415120e-002
3.841667e+003;3.514419e-002
3.843596e+003;3.506915e-002
3.845525e+003;3.531689e-002
3.847453e+003;3.577520e-002
3.849382e+003;3.481688e-002
3.851310e+003;3.167819e-002
3.853239e+003;2.924229e-002
3.855167e+003;3.178224e-002
3.857096e+003;3.474763e-002
3.859024e+003;3.521016e-002
3.860953e+003;3.472854e-002
3.862882e+003;3.459249e-002
3.864810e+003;3.456895e-002
3.866739e+003;3.499685e-002
3.868667e+003;3.372869e-002
3.870596e+003;3.336365e-002
3.872524e+003;3.467417e-002
3.874453e+003;3.547255e-002
3.876381e+003;3.612167e-002
3.878310e+003;3.577110e-002
3.880239e+003;3.502838e-002
3.882167e+003;3.531981e-002
3.884096e+003;3.462554e-002
3.886024e+003;3.431432e-002
3.887953e+003;3.529145e-002
3.889881e+003;3.484625e-002
3.891810e+003;3.445860e-002
3.893738e+003;3.549282e-002
3.895667e+003;3.616136e-002
3.897595e+003;3.573933e-002
3.899524e+003;3.513489e-002
3.901453e+003;3.499035e-002
3.903381e+003;3.497322e-002
3.905310e+003;3.552803e-002
3.907238e+003;3.653272e-002
3.909167e+003;3.678613e-002
3.911095e+003;3.665326e-002
3.913024e+003;3.687363e-002
3.914952e+003;3.680727e-002
3.916881e+003;3.647513e-002
3.918810e+003;3.639164e-002
3.920738e+003;3.631807e-002
3.922667e+003;3.608635e-002
3.924595e+003;3.603505e-002
3.926524e+003;3.604952e-002
3.928452e+003;3.578895e-002
3.930381e+003;3.557754e-002
3.932309e+003;3.578643e-002
3.934238e+003;3.626822e-002
3.936167e+003;3.670485e-002
3.938095e+003;3.661872e-002
3.940023e+003;3.655932e-002
3.941952e+003;3.709595e-002
3.943881e+003;3.666995e-002
3.945809e+003;3.622895e-002
3.947738e+003;3.656159e-002
3.949666e+003;3.685440e-002
3.951595e+003;3.733604e-002
3.953523e+003;3.762179e-002
3.955452e+003;3.685722e-002
3.957380e+003;3.651801e-002
3.959309e+003;3.719961e-002
3.961238e+003;3.805650e-002
3.963166e+003;3.766161e-002
3.965095e+003;3.685350e-002
3.967023e+003;3.634808e-002
3.968952e+003;3.683006e-002
3.970880e+003;3.751583e-002
3.972809e+003;3.741538e-002
3.974737e+003;3.699109e-002
3.976666e+003;3.701324e-002
3.978594e+003;3.739768e-002
3.980523e+003;3.742860e-002
3.982452e+003;3.747804e-002
3.984380e+003;3.739118e-002
3.986309e+003;3.757153e-002
3.988237e+003;3.813893e-002
3.990166e+003;3.792660e-002
3.992094e+003;3.709285e-002
3.994023e+003;3.724137e-002
3.995951e+003;3.776067e-002
3.997880e+003;3.784565e-002
3.999809e+003;3.724838e-002
4.001737e+003;0.000000e+000
