3.992094e+002;0.000000e+000
4.011380e+002;0.000000e+000
4.030665e+002;0.000000e+000
4.049951e+002;0.000000e+000
4.069236e+002;0.000000e+000
4.088522e+002;0.000000e+000
4.107807e+002;0.000000e+000
4.127093e+002;0.000000e+000
4.146378e+002;0.000000e+000
4.165664e+002;0.000000e+000
4.184949e+002;0.000000e+000
4.204235e+002;0.000000e+000
4.223520e+002;0.000000e+000
4.242806e+002;0.000000e+000
4.262091e+002;0.000000e+000
4.281377e+002;0.000000e+000
4.300662e+002;0.000000e+000
4.319948e+002;0.000000e+000
4.339233e+002;0.000000e+000
4.358519e+002;0.000000e+000
4.377804e+002;0.000000e+000
4.397090e+002;0.000000e+000
4.416375e+002;0.000000e+000
4.435660e+002;0.000000e+000
4.454946e+002;0.000000e+000
4.474232e+002;0.000000e+000
4.493517e+002;0.000000e+000
4.512802e+002;0.000000e+000
4.532088e+002;0.000000e+000
4.551373e+002;0.000000e+000
4.570659e+002;0.000000e+000
4.589944e+002;0.000000e+000
4.609230e+002;0.000000e+000
4.628515e+002;0.000000e+000
4.647801e+002;0.000000e+000
4.667086e+002;0.000000e+000
4.686372e+002;0.000000e+000
4.705657e+002;0.000000e+000
4.724943e+002;0.000000e+000
4.744228e+002;0.000000e+000
4.763513e+002;0.000000e+000
4.782799e+002;0.000000e+000
4.802085e+002;0.000000e+000
4.821370e+002;0.000000e+000
4.840656e+002;0.000000e+000
4.859941e+002;0.000000e+000
4.879226e+002;0.000000e+000
4.898512e+002;0.000000e+000
4.917798e+002;0.000000e+000
4.937083e+002;0.000000e+000
4.956368e+002;0.000000e+000
4.975654e+002;0.000000e+000
4.994939e+002;0.000000e+000
5.014225e+002;0.000000e+000
5.033510e+002;0.000000e+000
5.052796e+002;0.000000e+000
5.072081e+002;0.000000e+000
5.091367e+002;0.000000e+000
5.110652e+002;0.000000e+000
5.129938e+002;0.000000e+000
5.149223e+002;0.000000e+000
5.168509e+002;0.000000e+000
5.187794e+002;0.000000e+000
5.207079e+002;0.000000e+000
5.226365e+002;0.000000e+000
5.245651e+002;0.000000e+000
5.264936e+002;0.000000e+000
5.284222e+002;0.000000e+000
5.303507e+002;0.000000e+000
5.322792e+002;0.000000e+000
5.342078e+002;0.000000e+000
5.361364e+002;0.000000e+000
5.380649e+002;0.000000e+000
5.399935e+002;0.000000e+000
5.419220e+002;0.000000e+000
5.438505e+002;0.000000e+000
5.457791e+002;0.000000e+000
5.477076e+002;0.000000e+000
5.496362e+002;0.000000e+000
5.515648e+002;0.000000e+000
5.534933e+002;0.000000e+000
5.554218e+002;0.000000e+000
5.573504e+002;0.000000e+000
5.592789e+002;0.000000e+000
5.612075e+002;0.000000e+000
5.631360e+002;0.000000e+000
5.650646e+002;0.000000e+000
5.669931e+002;0.000000e+000
5.689217e+002;0.000000e+000
5.708502e+002;0.000000e+000
5.727787e+002;0.000000e+000
5.747073e+002;0.000000e+000
5.766359e+002;0.000000e+000
5.785644e+002;0.000000e+000
5.804930e+002;0.000000e+000
5.824215e+002;0.000000e+000
5.843500e+002;0.000000e+000
5.862786e+002;0.000000e+000
5.882072e+002;0.000000e+000
5.901357e+002;0.000000e+000
5.920643e+002;0.000000e+000
5.939928e+002;0.000000e+000
5.959213e+002;0.000000e+000
5.978499e+002;0.000000e+000
5.997784e+002;1.736241e-001
6.017070e+002;1.793290e-001
6.036355e+002;1.790118e-001
6.055641e+002;1.708871e-001
6.074926e+002;1.650627e-001
6.094211e+002;1.652275e-001
6.113497e+002;1.665884e-001
6.132783e+002;1.674087e-001
6.152068e+002;1.681509e-001
6.171354e+002;1.679214e-001
6.190639e+002;1.687276e-001
6.209924e+002;1.687349e-001
6.229210e+002;1.648520e-001
6.248495e+002;1.562466e-001
6.267781e+002;1.552311e-001
6.287067e+002;1.556064e-001
6.306352e+002;1.520669e-001
6.325637e+002;1.502542e-001
6.344923e+002;1.522081e-001
6.364208e+002;1.551287e-001
6.383494e+002;1.564383e-001
6.402780e+002;1.587538e-001
6.422065e+002;1.545827e-001
6.441350e+002;1.490220e-001
6.460636e+002;1.491509e-001
6.479921e+002;1.525477e-001
6.499207e+002;1.509093e-001
6.518492e+002;1.493856e-001
6.537778e+002;1.521458e-001
6.557063e+002;1.518852e-001
6.576349e+002;1.513218e-001
6.595634e+002;1.517329e-001
6.614919e+002;1.529211e-001
6.634205e+002;1.497937e-001
6.653491e+002;1.464482e-001
6.672776e+002;1.433401e-001
6.692062e+002;1.427247e-001
6.711347e+002;1.413698e-001
6.730632e+002;1.406082e-001
6.749918e+002;1.397453e-001
6.769203e+002;1.364440e-001
6.788489e+002;1.323184e-001
6.807775e+002;1.287142e-001
6.827060e+002;1.259356e-001
6.846345e+002;1.249692e-001
6.865631e+002;1.248411e-001
6.884916e+002;1.241353e-001
6.904202e+002;1.244386e-001
6.923488e+002;1.243937e-001
6.942773e+002;1.232931e-001
6.962058e+002;1.230593e-001
6.981344e+002;1.225443e-001
7.000629e+002;1.223596e-001
7.019915e+002;1.209892e-001
7.039200e+002;1.190713e-001
7.058486e+002;1.179990e-001
7.077771e+002;1.161633e-001
7.097057e+002;1.154721e-001
7.116342e+002;1.153585e-001
7.135627e+002;1.143259e-001
7.154913e+002;1.141681e-001
7.174199e+002;1.140398e-001
7.193484e+002;1.131754e-001
7.212770e+002;1.104508e-001
7.232055e+002;1.080477e-001
7.251340e+002;1.076992e-001
7.270626e+002;1.071296e-001
7.289911e+002;1.059599e-001
7.309197e+002;1.047363e-001
7.328483e+002;1.043136e-001
7.347768e+002;1.045916e-001
7.367053e+002;1.042925e-001
7.386339e+002;1.025752e-001
7.405624e+002;1.011451e-001
7.424910e+002;1.009250e-001
7.444196e+002;1.002432e-001
7.463481e+002;9.979945e-002
7.482766e+002;9.941424e-002
7.502052e+002;9.920014e-002
7.521337e+002;9.956415e-002
7.540623e+002;9.888186e-002
7.559908e+002;9.823416e-002
7.579194e+002;9.744438e-002
7.598479e+002;9.633436e-002
7.617765e+002;9.602851e-002
7.637050e+002;9.612003e-002
7.656335e+002;9.629387e-002
7.675621e+002;9.633874e-002
7.694907e+002;9.635545e-002
7.714192e+002;9.581226e-002
7.733478e+002;9.474032e-002
7.752763e+002;9.507512e-002
7.772048e+002;9.674562e-002
7.791334e+002;9.760286e-002
7.810620e+002;9.673224e-002
7.829905e+002;9.609270e-002
7.849191e+002;9.554183e-002
7.868476e+002;9.414082e-002
7.887761e+002;9.285357e-002
7.907047e+002;9.224056e-002
7.926332e+002;9.124615e-002
7.945618e+002;9.125796e-002
7.964903e+002;9.104044e-002
7.984189e+002;9.070799e-002
8.003474e+002;9.163792e-002
8.022759e+002;9.153245e-002
8.042045e+002;9.032004e-002
8.061331e+002;8.962551e-002
8.080616e+002;8.901855e-002
8.099902e+002;8.876548e-002
8.119187e+002;8.851422e-002
8.138472e+002;8.883873e-002
8.157758e+002;9.019025e-002
8.177043e+002;9.034072e-002
8.196329e+002;8.997926e-002
8.215615e+002;9.020653e-002
8.234900e+002;9.107816e-002
8.254185e+002;9.213650e-002
8.273471e+002;9.294685e-002
8.292756e+002;9.380036e-002
8.312042e+002;9.367294e-002
8.331328e+002;9.303509e-002
8.350613e+002;9.304134e-002
8.369898e+002;9.343124e-002
8.389184e+002;9.331995e-002
8.408469e+002;9.307783e-002
8.427755e+002;9.305549e-002
8.447040e+002;9.294319e-002
8.466326e+002;9.286387e-002
8.485611e+002;9.288923e-002
8.504897e+002;9.316068e-002
8.524182e+002;9.356763e-002
8.543467e+002;9.372634e-002
8.562753e+002;9.398089e-002
8.582039e+002;9.549076e-002
8.601324e+002;9.709183e-002
8.620610e+002;9.795175e-002
8.639895e+002;9.885394e-002
8.659180e+002;1.002956e-001
8.678466e+002;1.025707e-001
8.697751e+002;1.049626e-001
8.717037e+002;1.063141e-001
8.736323e+002;1.077275e-001
8.755608e+002;1.093675e-001
8.774893e+002;1.109571e-001
8.794179e+002;1.133040e-001
8.813464e+002;1.158281e-001
8.832750e+002;1.184469e-001
8.852036e+002;1.216074e-001
8.871321e+002;1.247782e-001
8.890606e+002;1.278374e-001
8.909892e+002;1.303068e-001
8.929177e+002;1.318590e-001
8.948463e+002;1.329615e-001
8.967748e+002;1.340884e-001
8.987034e+002;1.341583e-001
9.006319e+002;1.334152e-001
9.025605e+002;1.326670e-001
9.044890e+002;1.319226e-001
9.064175e+002;1.307850e-001
9.083461e+002;1.300097e-001
9.102747e+002;1.296311e-001
9.122032e+002;1.292366e-001
9.141318e+002;1.285944e-001
9.160603e+002;1.286964e-001
9.179888e+002;1.297243e-001
9.199174e+002;1.302623e-001
9.218459e+002;1.303921e-001
9.237745e+002;1.316741e-001
9.257031e+002;1.330725e-001
9.276316e+002;1.338975e-001
9.295601e+002;1.349379e-001
9.314887e+002;1.365605e-001
9.334172e+002;1.389086e-001
9.353458e+002;1.411738e-001
9.372744e+002;1.432052e-001
9.392029e+002;1.452572e-001
9.411314e+002;1.476649e-001
9.430600e+002;1.502790e-001
9.449885e+002;1.531748e-001
9.469171e+002;1.569954e-001
9.488456e+002;1.610593e-001
9.507742e+002;1.653874e-001
9.527027e+002;1.702616e-001
9.546313e+002;1.752737e-001
9.565598e+002;1.809985e-001
9.584883e+002;1.866216e-001
9.604169e+002;1.921180e-001
9.623455e+002;1.973878e-001
9.642740e+002;2.025249e-001
9.662026e+002;2.082412e-001
9.681311e+002;2.143680e-001
9.700596e+002;2.205738e-001
9.719882e+002;2.274981e-001
9.739167e+002;2.349894e-001
9.758453e+002;2.423165e-001
9.777739e+002;2.498574e-001
9.797024e+002;2.577395e-001
9.816309e+002;2.650047e-001
9.835595e+002;2.709917e-001
9.854880e+002;2.764921e-001
9.874166e+002;2.812158e-001
9.893452e+002;2.838747e-001
9.912737e+002;2.852241e-001
9.932022e+002;2.867076e-001
9.951307e+002;2.884116e-001
9.970593e+002;2.903608e-001
9.989879e+002;2.927337e-001
1.000916e+003;2.951304e-001
1.002845e+003;2.981883e-001
1.004773e+003;3.014577e-001
1.006702e+003;3.036431e-001
1.008631e+003;3.060285e-001
1.010559e+003;3.083966e-001
1.012488e+003;3.098520e-001
1.014416e+003;3.114658e-001
1.016345e+003;3.137189e-001
1.018273e+003;3.160598e-001
1.020202e+003;3.164187e-001
1.022130e+003;3.159274e-001
1.024059e+003;3.160123e-001
1.025988e+003;3.160275e-001
1.027916e+003;3.157689e-001
1.029845e+003;3.153188e-001
1.031773e+003;3.136292e-001
1.033702e+003;3.118089e-001
1.035630e+003;3.101259e-001
1.037559e+003;3.070946e-001
1.039487e+003;3.033798e-001
1.041416e+003;2.992678e-001
1.043344e+003;2.949319e-001
1.045273e+003;2.912328e-001
1.047202e+003;2.878438e-001
1.049130e+003;2.830681e-001
1.051059e+003;2.772332e-001
1.052987e+003;2.716114e-001
1.054916e+003;2.661844e-001
1.056844e+003;2.595817e-001
1.058773e+003;2.525851e-001
1.060701e+003;2.450646e-001
1.062630e+003;2.371727e-001
1.064558e+003;2.302269e-001
1.066487e+003;2.231197e-001
1.068416e+003;2.164556e-001
1.070344e+003;2.111724e-001
1.072273e+003;2.063273e-001
1.074201e+003;2.022738e-001
1.076130e+003;1.986468e-001
1.078058e+003;1.947517e-001
1.079987e+003;1.918882e-001
1.081915e+003;1.903247e-001
1.083844e+003;1.871435e-001
1.085773e+003;1.840439e-001
1.087701e+003;1.822284e-001
1.089630e+003;1.805461e-001
1.091558e+003;1.786430e-001
1.093487e+003;1.770925e-001
1.095415e+003;1.753481e-001
1.097344e+003;1.737330e-001
1.099272e+003;1.725433e-001
1.101201e+003;1.708210e-001
1.103129e+003;1.689200e-001
1.105058e+003;1.669236e-001
1.106987e+003;1.641770e-001
1.108915e+003;1.604383e-001
1.110844e+003;1.559911e-001
1.112772e+003;1.518849e-001
1.114701e+003;1.483563e-001
1.116629e+003;1.443294e-001
1.118558e+003;1.405171e-001
1.120486e+003;1.373095e-001
1.122415e+003;1.341489e-001
1.124344e+003;1.303684e-001
1.126272e+003;1.265829e-001
1.128201e+003;1.228779e-001
1.130129e+003;1.183277e-001
1.132058e+003;1.145948e-001
1.133986e+003;1.121341e-001
1.135915e+003;1.092817e-001
1.137843e+003;1.066584e-001
1.139772e+003;1.045966e-001
1.141700e+003;1.030304e-001
1.143629e+003;1.025225e-001
1.145557e+003;1.021871e-001
1.147486e+003;1.008159e-001
1.149415e+003;9.976380e-002
1.151343e+003;9.906234e-002
1.153272e+003;9.809384e-002
1.155200e+003;9.656812e-002
1.157129e+003;9.512915e-002
1.159057e+003;9.364848e-002
1.160986e+003;9.195961e-002
1.162914e+003;9.004762e-002
1.164843e+003;8.790074e-002
1.166771e+003;8.607928e-002
1.168700e+003;8.428551e-002
1.170629e+003;8.214812e-002
1.172557e+003;7.987586e-002
1.174486e+003;7.789826e-002
1.176414e+003;7.684799e-002
1.178343e+003;7.640326e-002
1.180271e+003;7.555168e-002
1.182200e+003;7.524877e-002
1.184128e+003;7.547969e-002
1.186057e+003;7.603600e-002
1.187986e+003;7.723727e-002
1.189914e+003;7.898279e-002
1.191843e+003;8.055687e-002
1.193771e+003;8.212034e-002
1.195700e+003;8.370488e-002
1.197628e+003;8.506387e-002
1.199557e+003;8.607440e-002
1.201485e+003;8.700444e-002
1.203414e+003;8.808576e-002
1.205343e+003;8.940127e-002
1.207271e+003;9.079089e-002
1.209200e+003;9.226433e-002
1.211128e+003;9.361276e-002
1.213057e+003;9.519450e-002
1.214985e+003;9.727021e-002
1.216914e+003;9.978682e-002
1.218842e+003;1.027172e-001
1.220771e+003;1.055643e-001
1.222699e+003;1.077237e-001
1.224628e+003;1.096188e-001
1.226557e+003;1.117562e-001
1.228485e+003;1.136351e-001
1.230414e+003;1.151539e-001
1.232342e+003;1.160438e-001
1.234271e+003;1.164143e-001
1.236199e+003;1.160460e-001
1.238128e+003;1.156546e-001
1.240056e+003;1.154512e-001
1.241985e+003;1.147449e-001
1.243913e+003;1.141566e-001
1.245842e+003;1.134106e-001
1.247771e+003;1.118820e-001
1.249699e+003;1.100529e-001
1.251628e+003;1.085229e-001
1.253556e+003;1.072681e-001
1.255485e+003;1.057422e-001
1.257413e+003;1.037482e-001
1.259342e+003;1.020815e-001
1.261270e+003;1.007980e-001
1.263199e+003;9.892871e-002
1.265127e+003;9.703627e-002
1.267056e+003;9.548205e-002
1.268985e+003;9.334579e-002
1.270913e+003;9.125677e-002
1.272842e+003;8.975676e-002
1.274770e+003;8.808483e-002
1.276699e+003;8.659519e-002
1.278627e+003;8.519705e-002
1.280556e+003;8.353983e-002
1.282484e+003;8.212518e-002
1.284413e+003;8.112998e-002
1.286342e+003;8.025216e-002
1.288270e+003;7.955129e-002
1.290199e+003;7.904098e-002
1.292127e+003;7.885587e-002
1.294056e+003;7.909580e-002
1.295984e+003;7.961990e-002
1.297913e+003;8.024323e-002
1.299841e+003;8.112802e-002
1.301770e+003;8.232594e-002
1.303698e+003;8.347702e-002
1.305627e+003;8.483412e-002
1.307556e+003;8.632380e-002
1.309484e+003;8.769447e-002
1.311413e+003;8.906984e-002
1.313341e+003;9.048732e-002
1.315270e+003;9.213176e-002
1.317198e+003;9.336871e-002
1.319127e+003;9.377819e-002
1.321055e+003;9.379543e-002
1.322984e+003;9.374435e-002
1.324912e+003;9.307303e-002
1.326841e+003;9.143097e-002
1.328770e+003;9.012439e-002
1.330698e+003;8.986025e-002
1.332627e+003;8.933546e-002
1.334555e+003;8.807371e-002
1.336484e+003;8.681846e-002
1.338412e+003;8.566593e-002
1.340341e+003;8.460429e-002
1.342269e+003;8.386196e-002
1.344198e+003;8.329479e-002
1.346126e+003;8.249002e-002
1.348055e+003;8.167094e-002
1.349984e+003;8.116018e-002
1.351912e+003;8.136525e-002
1.353841e+003;8.205545e-002
1.355769e+003;8.263849e-002
1.357698e+003;8.350725e-002
1.359626e+003;8.450381e-002
1.361555e+003;8.500056e-002
1.363483e+003;8.554842e-002
1.365412e+003;8.621653e-002
1.367341e+003;8.611540e-002
1.369269e+003;8.544639e-002
1.371198e+003;8.498428e-002
1.373126e+003;8.404717e-002
1.375055e+003;8.248537e-002
1.376983e+003;8.078393e-002
1.378912e+003;7.882600e-002
1.380840e+003;7.642396e-002
1.382769e+003;7.409424e-002
1.384698e+003;7.206701e-002
1.386626e+003;7.028531e-002
1.388555e+003;6.876993e-002
1.390483e+003;6.763890e-002
1.392412e+003;6.616937e-002
1.394340e+003;6.479187e-002
1.396269e+003;6.450590e-002
1.398197e+003;6.471298e-002
1.400126e+003;6.501910e-002
1.402054e+003;6.532216e-002
1.403983e+003;6.540116e-002
1.405911e+003;6.582148e-002
1.407840e+003;6.660233e-002
1.409769e+003;6.771863e-002
1.411697e+003;6.889654e-002
1.413626e+003;6.980285e-002
1.415554e+003;7.110046e-002
1.417483e+003;7.192399e-002
1.419411e+003;7.222983e-002
1.421340e+003;7.277149e-002
1.423268e+003;7.271441e-002
1.425197e+003;7.208335e-002
1.427125e+003;7.073832e-002
1.429054e+003;6.923585e-002
1.430983e+003;6.816811e-002
1.432911e+003;6.683443e-002
1.434840e+003;6.488873e-002
1.436768e+003;6.350719e-002
1.438697e+003;6.327745e-002
1.440625e+003;6.351068e-002
1.442554e+003;6.391598e-002
1.444482e+003;6.414030e-002
1.446411e+003;6.431878e-002
1.448340e+003;6.462684e-002
1.450268e+003;6.507083e-002
1.452197e+003;6.525327e-002
1.454125e+003;6.501359e-002
1.456054e+003;6.430551e-002
1.457982e+003;6.396800e-002
1.459911e+003;6.395633e-002
1.461839e+003;6.295042e-002
1.463768e+003;6.151133e-002
1.465697e+003;6.007731e-002
1.467625e+003;5.808451e-002
1.469554e+003;5.538278e-002
1.471482e+003;5.223694e-002
1.473411e+003;4.984449e-002
1.475339e+003;4.815431e-002
1.477268e+003;4.615388e-002
1.479196e+003;4.417011e-002
1.481125e+003;4.270475e-002
1.483053e+003;4.135877e-002
1.484982e+003;3.994305e-002
1.486911e+003;3.879381e-002
1.488839e+003;3.797690e-002
1.490768e+003;3.811915e-002
1.492696e+003;3.875185e-002
1.494625e+003;3.858846e-002
1.496553e+003;3.867749e-002
1.498482e+003;3.965211e-002
1.500410e+003;4.092853e-002
1.502339e+003;4.177878e-002
1.504267e+003;4.097135e-002
1.506196e+003;3.938163e-002
1.508125e+003;3.900627e-002
1.510053e+003;3.868723e-002
1.511982e+003;3.757569e-002
1.513910e+003;3.596968e-002
1.515839e+003;3.386894e-002
1.517767e+003;3.198406e-002
1.519696e+003;3.010602e-002
1.521624e+003;2.815562e-002
1.523553e+003;2.671313e-002
1.525481e+003;2.562106e-002
1.527410e+003;2.491857e-002
1.529339e+003;2.419371e-002
1.531267e+003;2.335064e-002
1.533196e+003;2.282680e-002
1.535124e+003;2.302884e-002
1.537053e+003;2.256553e-002
1.538981e+003;2.095562e-002
1.540910e+003;2.045888e-002
1.542838e+003;2.118915e-002
1.544767e+003;2.196247e-002
1.546695e+003;2.261921e-002
1.548624e+003;2.292935e-002
1.550553e+003;2.331421e-002
1.552481e+003;2.336431e-002
1.554410e+003;2.355439e-002
1.556338e+003;2.379390e-002
1.558267e+003;2.334613e-002
1.560195e+003;2.418176e-002
1.562124e+003;2.614120e-002
1.564052e+003;2.737428e-002
1.565981e+003;2.845803e-002
1.567910e+003;2.939118e-002
1.569838e+003;3.042063e-002
1.571767e+003;3.232085e-002
1.573695e+003;3.428990e-002
1.575624e+003;3.595812e-002
1.577552e+003;3.833548e-002
1.579481e+003;4.111932e-002
1.581409e+003;4.382255e-002
1.583338e+003;4.607997e-002
1.585266e+003;4.812418e-002
1.587195e+003;5.029150e-002
1.589124e+003;5.244371e-002
1.591052e+003;5.380842e-002
1.592981e+003;5.479158e-002
1.594909e+003;5.565474e-002
1.596838e+003;5.588501e-002
1.598766e+003;5.539558e-002
1.600695e+003;5.514278e-002
1.602623e+003;5.520263e-002
1.604552e+003;5.474625e-002
1.606480e+003;5.422796e-002
1.608409e+003;5.419886e-002
1.610338e+003;5.441029e-002
1.612266e+003;5.435689e-002
1.614195e+003;5.403223e-002
1.616123e+003;5.343144e-002
1.618052e+003;5.354068e-002
1.619980e+003;5.416520e-002
1.621909e+003;5.383902e-002
1.623837e+003;5.357783e-002
1.625766e+003;5.377616e-002
1.627694e+003;5.354394e-002
1.629623e+003;5.348555e-002
1.631552e+003;5.347086e-002
1.633480e+003;5.309297e-002
1.635409e+003;5.255993e-002
1.637337e+003;5.277561e-002
1.639266e+003;5.306369e-002
1.641194e+003;5.293780e-002
1.643123e+003;5.288450e-002
1.645051e+003;5.228900e-002
1.646980e+003;5.165676e-002
1.648909e+003;5.217614e-002
1.650837e+003;5.173350e-002
1.652766e+003;5.075339e-002
1.654694e+003;5.149170e-002
1.656623e+003;5.211764e-002
1.658551e+003;5.213370e-002
1.660480e+003;5.210561e-002
1.662408e+003;5.185027e-002
1.664337e+003;5.162784e-002
1.666266e+003;5.127881e-002
1.668194e+003;5.025828e-002
1.670123e+003;4.979183e-002
1.672051e+003;4.993024e-002
1.673980e+003;4.964181e-002
1.675908e+003;4.922452e-002
1.677837e+003;4.889833e-002
1.679765e+003;4.841978e-002
1.681694e+003;4.788426e-002
1.683622e+003;4.702990e-002
1.685551e+003;4.726280e-002
1.687479e+003;4.807657e-002
1.689408e+003;4.830478e-002
1.691337e+003;4.862208e-002
1.693265e+003;4.853433e-002
1.695194e+003;4.810245e-002
1.697122e+003;4.892811e-002
1.699051e+003;5.014209e-002
1.700979e+003;5.186815e-002
1.702908e+003;5.391014e-002
1.704836e+003;5.516828e-002
1.706765e+003;5.685234e-002
1.708693e+003;5.880459e-002
1.710622e+003;6.048734e-002
1.712551e+003;6.232776e-002
1.714479e+003;6.390108e-002
1.716408e+003;6.487157e-002
1.718336e+003;6.627581e-002
1.720265e+003;6.829605e-002
1.722193e+003;6.952418e-002
1.724122e+003;7.017395e-002
1.726050e+003;7.070357e-002
1.727979e+003;7.096224e-002
1.729908e+003;7.085864e-002
1.731836e+003;7.013107e-002
1.733765e+003;6.890097e-002
1.735693e+003;6.826798e-002
1.737622e+003;6.780383e-002
1.739550e+003;6.671572e-002
1.741479e+003;6.522273e-002
1.743407e+003;6.323072e-002
1.745336e+003;6.093374e-002
1.747265e+003;5.867182e-002
1.749193e+003;5.625338e-002
1.751122e+003;5.372239e-002
1.753050e+003;5.141560e-002
1.754979e+003;4.876619e-002
1.756907e+003;4.604489e-002
1.758836e+003;4.327454e-002
1.760764e+003;3.986082e-002
1.762693e+003;3.672941e-002
1.764621e+003;3.392099e-002
1.766550e+003;3.060540e-002
1.768479e+003;2.762819e-002
1.770407e+003;2.482924e-002
1.772336e+003;2.191103e-002
1.774264e+003;1.987514e-002
1.776193e+003;1.827769e-002
1.778121e+003;1.660849e-002
1.780050e+003;1.486225e-002
1.781978e+003;1.300926e-002
1.783907e+003;1.121338e-002
1.785835e+003;9.671905e-003
1.787764e+003;8.381632e-003
1.789693e+003;6.854471e-003
1.791621e+003;5.157230e-003
1.793550e+003;4.188160e-003
1.795478e+003;3.592900e-003
1.797407e+003;2.718991e-003
1.799335e+003;1.845406e-003
1.801264e+003;7.170821e-004
1.803192e+003;-2.178017e-004
1.805121e+003;-8.476026e-004
1.807049e+003;-1.308577e-003
1.808978e+003;-1.774475e-003
1.810907e+003;-2.021896e-003
1.812835e+003;-2.374278e-003
1.814764e+003;-3.025772e-003
1.816692e+003;-3.514878e-003
1.818621e+003;-4.069810e-003
1.820549e+003;-4.819018e-003
1.822478e+003;-5.077909e-003
1.824406e+003;-5.176931e-003
1.826335e+003;-5.357331e-003
1.828264e+003;-5.723205e-003
1.830192e+003;-6.041719e-003
1.832121e+003;-6.057371e-003
1.834049e+003;-6.242207e-003
1.835978e+003;-6.628679e-003
1.837906e+003;-6.932410e-003
1.839835e+003;-6.856946e-003
1.841763e+003;-6.811609e-003
1.843692e+003;-7.213510e-003
1.845620e+003;-7.639392e-003
1.847549e+003;-7.714623e-003
1.849478e+003;-7.384011e-003
1.851406e+003;-7.348795e-003
1.853335e+003;-7.492343e-003
1.855263e+003;-7.692553e-003
1.857192e+003;-8.003219e-003
1.859120e+003;-8.100730e-003
1.861049e+003;-8.103950e-003
1.862977e+003;-8.354976e-003
1.864906e+003;-8.634311e-003
1.866834e+003;-8.958456e-003
1.868763e+003;-9.044915e-003
1.870692e+003;-8.756328e-003
1.872620e+003;-8.803995e-003
1.874549e+003;-9.000194e-003
1.876477e+003;-8.960501e-003
1.878406e+003;-9.022815e-003
1.880334e+003;-9.043941e-003
1.882263e+003;-8.922135e-003
1.884191e+003;-9.004511e-003
1.886120e+003;-9.271980e-003
1.888048e+003;-9.542461e-003
1.889977e+003;-9.574194e-003
1.891906e+003;-9.215055e-003
1.893834e+003;-9.028689e-003
1.895763e+003;-9.031188e-003
1.897691e+003;-9.018498e-003
1.899620e+003;-9.179371e-003
1.901548e+003;-9.465601e-003
1.903477e+003;-9.492476e-003
1.905405e+003;-9.214990e-003
1.907334e+003;-9.190985e-003
1.909262e+003;-9.266596e-003
1.911191e+003;-9.289560e-003
1.913120e+003;-9.211162e-003
1.915048e+003;-9.162145e-003
1.916977e+003;-9.248141e-003
1.918905e+003;-8.914702e-003
1.920834e+003;-8.616609e-003
1.922762e+003;-8.539552e-003
1.924691e+003;-8.458842e-003
1.926619e+003;-8.465178e-003
1.928548e+003;-8.370934e-003
1.930477e+003;-8.483115e-003
1.932405e+003;-8.736162e-003
1.934334e+003;-8.833022e-003
1.936262e+003;-8.708267e-003
1.938191e+003;-8.285609e-003
1.940119e+003;-8.285251e-003
1.942048e+003;-8.863313e-003
1.943976e+003;-9.141965e-003
1.945905e+003;-8.791332e-003
1.947833e+003;-8.267827e-003
1.949762e+003;-7.966297e-003
1.951691e+003;-8.145087e-003
1.953619e+003;-8.243282e-003
1.955548e+003;-8.043521e-003
1.957476e+003;-7.823296e-003
1.959405e+003;-8.057084e-003
1.961333e+003;-8.333036e-003
1.963262e+003;-8.314703e-003
1.965190e+003;-8.281026e-003
1.967119e+003;-8.363004e-003
1.969047e+003;-8.341746e-003
1.970976e+003;-8.089152e-003
1.972905e+003;-7.935944e-003
1.974833e+003;-8.337326e-003
1.976762e+003;-8.492992e-003
1.978690e+003;-8.229529e-003
1.980619e+003;-8.099917e-003
1.982547e+003;-7.925728e-003
1.984476e+003;-7.622202e-003
1.986404e+003;-7.503872e-003
1.988333e+003;-7.468633e-003
1.990261e+003;-7.588666e-003
1.992190e+003;-7.532204e-003
1.994119e+003;-7.078411e-003
1.996047e+003;-6.969910e-003
1.997976e+003;-7.229738e-003
1.999904e+003;-7.154391e-003
2.001833e+003;-6.976366e-003
2.003761e+003;-6.724770e-003
2.005690e+003;-6.643461e-003
2.007618e+003;-6.542652e-003
2.009547e+003;-6.431666e-003
2.011476e+003;-6.225419e-003
2.013404e+003;-5.925834e-003
2.015333e+003;-5.847840e-003
2.017261e+003;-5.488975e-003
2.019190e+003;-5.055148e-003
2.021118e+003;-5.157678e-003
2.023047e+003;-5.059438e-003
2.024975e+003;-4.641311e-003
2.026904e+003;-4.418895e-003
2.028833e+003;-4.429292e-003
2.030761e+003;-4.213462e-003
2.032690e+003;-3.973655e-003
2.034618e+003;-3.951164e-003
2.036547e+003;-4.061801e-003
2.038475e+003;-3.841255e-003
2.040404e+003;-3.684504e-003
2.042332e+003;-3.603708e-003
2.044261e+003;-3.437371e-003
2.046189e+003;-3.577616e-003
2.048118e+003;-3.659928e-003
2.050047e+003;-3.367773e-003
2.051975e+003;-3.147007e-003
2.053904e+003;-3.159605e-003
2.055832e+003;-3.298428e-003
2.057761e+003;-3.437469e-003
2.059689e+003;-3.503538e-003
2.061618e+003;-3.368168e-003
2.063546e+003;-3.372179e-003
2.065475e+003;-3.535978e-003
2.067404e+003;-3.671789e-003
2.069332e+003;-3.519282e-003
2.071260e+003;-3.108255e-003
2.073189e+003;-2.945841e-003
2.075118e+003;-3.067821e-003
2.077046e+003;-3.128256e-003
2.078975e+003;-3.158947e-003
2.080903e+003;-3.130197e-003
2.082832e+003;-3.066736e-003
2.084760e+003;-3.034952e-003
2.086689e+003;-3.336604e-003
2.088617e+003;-3.436647e-003
2.090546e+003;-3.234892e-003
2.092475e+003;-3.333447e-003
2.094403e+003;-3.111084e-003
2.096332e+003;-2.882353e-003
2.098260e+003;-2.954891e-003
2.100189e+003;-2.907400e-003
2.102117e+003;-2.707046e-003
2.104046e+003;-2.608481e-003
2.105974e+003;-2.466143e-003
2.107903e+003;-2.584503e-003
2.109832e+003;-2.769374e-003
2.111760e+003;-2.684457e-003
2.113688e+003;-2.662525e-003
2.115617e+003;-2.802889e-003
2.117546e+003;-2.810757e-003
2.119474e+003;-2.501789e-003
2.121403e+003;-2.230512e-003
2.123331e+003;-1.939603e-003
2.125260e+003;-1.543685e-003
2.127188e+003;-1.555868e-003
2.129117e+003;-1.900315e-003
2.131045e+003;-1.847726e-003
2.132974e+003;-1.837168e-003
2.134903e+003;-2.020676e-003
2.136831e+003;-2.071628e-003
2.138760e+003;-2.284669e-003
2.140688e+003;-2.614607e-003
2.142617e+003;-2.488117e-003
2.144545e+003;-2.248741e-003
2.146474e+003;-2.132531e-003
2.148402e+003;-2.246565e-003
2.150331e+003;-2.386438e-003
2.152260e+003;-2.517964e-003
2.154188e+003;-2.666279e-003
2.156117e+003;-2.692821e-003
2.158045e+003;-2.646717e-003
2.159974e+003;-2.662624e-003
2.161902e+003;-2.664731e-003
2.163831e+003;-2.984739e-003
2.165759e+003;-3.355904e-003
2.167688e+003;-3.364683e-003
2.169616e+003;-3.203516e-003
2.171545e+003;-3.222099e-003
2.173474e+003;-3.648724e-003
2.175402e+003;-4.020472e-003
2.177331e+003;-4.024838e-003
2.179259e+003;-4.480552e-003
2.181188e+003;-4.904502e-003
2.183116e+003;-4.796735e-003
2.185045e+003;-4.950694e-003
2.186973e+003;-5.115373e-003
2.188902e+003;-4.892085e-003
2.190831e+003;-4.865808e-003
2.192759e+003;-5.344273e-003
2.194688e+003;-5.562977e-003
2.196616e+003;-5.414438e-003
2.198545e+003;-5.330984e-003
2.200473e+003;-5.009557e-003
2.202402e+003;-4.937263e-003
2.204330e+003;-5.220507e-003
2.206259e+003;-5.410478e-003
2.208188e+003;-5.619009e-003
2.210116e+003;-5.774901e-003
2.212044e+003;-5.550120e-003
2.213973e+003;-5.048172e-003
2.215902e+003;-5.094480e-003
2.217830e+003;-5.346367e-003
2.219759e+003;-5.555388e-003
2.221687e+003;-5.421080e-003
2.223616e+003;-5.215596e-003
2.225544e+003;-5.328923e-003
2.227473e+003;-5.437801e-003
2.229401e+003;-5.327024e-003
2.231330e+003;-5.102765e-003
2.233259e+003;-4.938803e-003
2.235187e+003;-4.870166e-003
2.237116e+003;-4.868921e-003
2.239044e+003;-5.010212e-003
2.240973e+003;-5.061371e-003
2.242901e+003;-4.855717e-003
2.244830e+003;-4.678353e-003
2.246758e+003;-4.431522e-003
2.248687e+003;-4.467631e-003
2.250615e+003;-4.781267e-003
2.252544e+003;-4.755279e-003
2.254473e+003;-4.755475e-003
2.256401e+003;-5.175326e-003
2.258330e+003;-5.201977e-003
2.260258e+003;-4.898998e-003
2.262187e+003;-4.860533e-003
2.264115e+003;-4.918033e-003
2.266044e+003;-4.720079e-003
2.267972e+003;-4.592136e-003
2.269901e+003;-4.645769e-003
2.271830e+003;-4.669372e-003
2.273758e+003;-4.622363e-003
2.275687e+003;-4.583644e-003
2.277615e+003;-4.682450e-003
2.279544e+003;-4.578038e-003
2.281472e+003;-4.313468e-003
2.283401e+003;-4.149666e-003
2.285329e+003;-4.179366e-003
2.287258e+003;-4.369202e-003
2.289187e+003;-4.442903e-003
2.291115e+003;-4.394263e-003
2.293043e+003;-4.445297e-003
2.294972e+003;-4.452480e-003
2.296901e+003;-4.282005e-003
2.298829e+003;-4.215004e-003
2.300758e+003;-4.218745e-003
2.302686e+003;-4.357754e-003
2.304615e+003;-4.236989e-003
2.306543e+003;-4.034489e-003
2.308472e+003;-4.354474e-003
2.310400e+003;-4.688219e-003
2.312329e+003;-4.670518e-003
2.314258e+003;-4.547217e-003
2.316186e+003;-4.628395e-003
2.318115e+003;-4.775958e-003
2.320043e+003;-4.909056e-003
2.321972e+003;-4.824818e-003
2.323900e+003;-5.003137e-003
2.325829e+003;-5.320740e-003
2.327757e+003;-5.336646e-003
2.329686e+003;-5.786540e-003
2.331615e+003;-6.055280e-003
2.333543e+003;-5.886871e-003
2.335472e+003;-5.750672e-003
2.337400e+003;-5.525781e-003
2.339329e+003;-5.382203e-003
2.341257e+003;-5.325813e-003
2.343186e+003;-4.826555e-003
2.345114e+003;-3.962394e-003
2.347043e+003;-3.268766e-003
2.348971e+003;-3.102234e-003
2.350900e+003;-3.224894e-003
2.352829e+003;-3.730037e-003
2.354757e+003;-4.388424e-003
2.356686e+003;-4.596332e-003
2.358614e+003;-4.819280e-003
2.360543e+003;-4.950170e-003
2.362471e+003;-4.929237e-003
2.364400e+003;-4.738367e-003
2.366328e+003;-4.271899e-003
2.368257e+003;-3.649710e-003
2.370186e+003;-2.986878e-003
2.372114e+003;-2.310278e-003
2.374042e+003;-1.735336e-003
2.375971e+003;-9.071234e-004
2.377900e+003;-3.062824e-004
2.379828e+003;-3.265457e-004
2.381757e+003;-1.599417e-004
2.383685e+003;1.751487e-004
2.385614e+003;3.551101e-004
2.387542e+003;3.677115e-004
2.389471e+003;4.391154e-004
2.391399e+003;8.212411e-004
2.393328e+003;1.052385e-003
2.395257e+003;1.040727e-003
2.397185e+003;1.089055e-003
2.399114e+003;1.188253e-003
2.401042e+003;1.247331e-003
2.402971e+003;1.631898e-003
2.404899e+003;2.103664e-003
2.406828e+003;2.325998e-003
2.408756e+003;2.639543e-003
2.410685e+003;2.819662e-003
2.412614e+003;2.576643e-003
2.414542e+003;2.596876e-003
2.416471e+003;2.915387e-003
2.418399e+003;2.995618e-003
2.420328e+003;3.155292e-003
2.422256e+003;3.605629e-003
2.424185e+003;3.825156e-003
2.426113e+003;3.750787e-003
2.428042e+003;3.919565e-003
2.429970e+003;4.326686e-003
2.431899e+003;4.485276e-003
2.433828e+003;4.595768e-003
2.435756e+003;4.807521e-003
2.437685e+003;5.016529e-003
2.439613e+003;5.209641e-003
2.441542e+003;5.240728e-003
2.443470e+003;5.477391e-003
2.445399e+003;5.942841e-003
2.447327e+003;6.331927e-003
2.449256e+003;6.273902e-003
2.451185e+003;6.079039e-003
2.453113e+003;6.113582e-003
2.455042e+003;6.231513e-003
2.456970e+003;6.523910e-003
2.458899e+003;6.773153e-003
2.460827e+003;7.089254e-003
2.462756e+003;7.268498e-003
2.464684e+003;7.514731e-003
2.466613e+003;7.669262e-003
2.468542e+003;7.730679e-003
2.470470e+003;7.775271e-003
2.472398e+003;8.348056e-003
2.474327e+003;8.912433e-003
2.476256e+003;8.747824e-003
2.478184e+003;8.660202e-003
2.480113e+003;8.721386e-003
2.482041e+003;9.061440e-003
2.483970e+003;9.634300e-003
2.485898e+003;9.728760e-003
2.487827e+003;9.780471e-003
2.489755e+003;9.995345e-003
2.491684e+003;9.989547e-003
2.493613e+003;1.024211e-002
2.495541e+003;1.049638e-002
2.497470e+003;1.069395e-002
2.499398e+003;1.120845e-002
2.501327e+003;1.113464e-002
2.503255e+003;1.121725e-002
2.505184e+003;1.158561e-002
2.507112e+003;1.170983e-002
2.509041e+003;1.169138e-002
2.510969e+003;1.188643e-002
2.512898e+003;1.229513e-002
2.514827e+003;1.250255e-002
2.516755e+003;1.262309e-002
2.518684e+003;1.277614e-002
2.520612e+003;1.274263e-002
2.522541e+003;1.292415e-002
2.524469e+003;1.305406e-002
2.526398e+003;1.323107e-002
2.528326e+003;1.353064e-002
2.530255e+003;1.357761e-002
2.532184e+003;1.368849e-002
2.534112e+003;1.400022e-002
2.536041e+003;1.421963e-002
2.537969e+003;1.432701e-002
2.539898e+003;1.418580e-002
2.541826e+003;1.420802e-002
2.543755e+003;1.452626e-002
2.545683e+003;1.444972e-002
2.547612e+003;1.422812e-002
2.549541e+003;1.419073e-002
2.551469e+003;1.438393e-002
2.553397e+003;1.481490e-002
2.555326e+003;1.486592e-002
2.557255e+003;1.504236e-002
2.559183e+003;1.533269e-002
2.561112e+003;1.521964e-002
2.563040e+003;1.522739e-002
2.564969e+003;1.539843e-002
2.566897e+003;1.579629e-002
2.568826e+003;1.600580e-002
2.570754e+003;1.586072e-002
2.572683e+003;1.608859e-002
2.574612e+003;1.633530e-002
2.576540e+003;1.624906e-002
2.578469e+003;1.605497e-002
2.580397e+003;1.638787e-002
2.582326e+003;1.706163e-002
2.584254e+003;1.720439e-002
2.586183e+003;1.698234e-002
2.588111e+003;1.698754e-002
2.590040e+003;1.726355e-002
2.591969e+003;1.737776e-002
2.593897e+003;1.762548e-002
2.595826e+003;1.778603e-002
2.597754e+003;1.791733e-002
2.599683e+003;1.820699e-002
2.601611e+003;1.849982e-002
2.603540e+003;1.870971e-002
2.605468e+003;1.860663e-002
2.607397e+003;1.844284e-002
2.609325e+003;1.864337e-002
2.611254e+003;1.906765e-002
2.613183e+003;1.944307e-002
2.615111e+003;1.956672e-002
2.617040e+003;1.965623e-002
2.618968e+003;1.970421e-002
2.620897e+003;1.961473e-002
2.622825e+003;1.976389e-002
2.624754e+003;2.022259e-002
2.626682e+003;2.041779e-002
2.628611e+003;2.041046e-002
2.630540e+003;2.079549e-002
2.632468e+003;2.153594e-002
2.634396e+003;2.144963e-002
2.636325e+003;2.108381e-002
2.638254e+003;2.143606e-002
2.640182e+003;2.188953e-002
2.642111e+003;2.218234e-002
2.644039e+003;2.235533e-002
2.645968e+003;2.234985e-002
2.647896e+003;2.238020e-002
2.649825e+003;2.260322e-002
2.651753e+003;2.272397e-002
2.653682e+003;2.287206e-002
2.655611e+003;2.347097e-002
2.657539e+003;2.390090e-002
2.659468e+003;2.367208e-002
2.661396e+003;2.377836e-002
2.663325e+003;2.421291e-002
2.665253e+003;2.436319e-002
2.667182e+003;2.435906e-002
2.669110e+003;2.466799e-002
2.671039e+003;2.489622e-002
2.672968e+003;2.496760e-002
2.674896e+003;2.515947e-002
2.676825e+003;2.553633e-002
2.678753e+003;2.588942e-002
2.680682e+003;2.617295e-002
2.682610e+003;2.621539e-002
2.684539e+003;2.611253e-002
2.686467e+003;2.624900e-002
2.688396e+003;2.650712e-002
2.690324e+003;2.663823e-002
2.692253e+003;2.684444e-002
2.694182e+003;2.692048e-002
2.696110e+003;2.700012e-002
2.698039e+003;2.731055e-002
2.699967e+003;2.777136e-002
2.701896e+003;2.825215e-002
2.703824e+003;2.814466e-002
2.705753e+003;2.807920e-002
2.707681e+003;2.835216e-002
2.709610e+003;2.854069e-002
2.711539e+003;2.883444e-002
2.713467e+003;2.898092e-002
2.715396e+003;2.894961e-002
2.717324e+003;2.905371e-002
2.719253e+003;2.930588e-002
2.721181e+003;2.974682e-002
2.723110e+003;3.007250e-002
2.725038e+003;3.016135e-002
2.726967e+003;3.029147e-002
2.728896e+003;3.027705e-002
2.730824e+003;3.036676e-002
2.732752e+003;3.088060e-002
2.734681e+003;3.128460e-002
2.736610e+003;3.163596e-002
2.738538e+003;3.185269e-002
2.740467e+003;3.177172e-002
2.742395e+003;3.148235e-002
2.744324e+003;3.137385e-002
2.746252e+003;3.173725e-002
2.748181e+003;3.212408e-002
2.750109e+003;3.231253e-002
2.752038e+003;3.255128e-002
2.753967e+003;3.288265e-002
2.755895e+003;3.300228e-002
2.757824e+003;3.302581e-002
2.759752e+003;3.319162e-002
2.761681e+003;3.320850e-002
2.763609e+003;3.322628e-002
2.765538e+003;3.349033e-002
2.767466e+003;3.406665e-002
2.769395e+003;3.429259e-002
2.771323e+003;3.415084e-002
2.773252e+003;3.429306e-002
2.775181e+003;3.443708e-002
2.777109e+003;3.451779e-002
2.779038e+003;3.465515e-002
2.780966e+003;3.485623e-002
2.782895e+003;3.539594e-002
2.784823e+003;3.587930e-002
2.786752e+003;3.615754e-002
2.788680e+003;3.657529e-002
2.790609e+003;3.672796e-002
2.792538e+003;3.697359e-002
2.794466e+003;3.734240e-002
2.796395e+003;3.720105e-002
2.798323e+003;3.705589e-002
2.800252e+003;3.747985e-002
2.802180e+003;3.796182e-002
2.804109e+003;3.836936e-002
2.806037e+003;3.893864e-002
2.807966e+003;3.938617e-002
2.809895e+003;3.968525e-002
2.811823e+003;4.005372e-002
2.813751e+003;4.072782e-002
2.815680e+003;4.144759e-002
2.817609e+003;4.173974e-002
2.819537e+003;4.176977e-002
2.821466e+003;4.240263e-002
2.823394e+003;4.324782e-002
2.825323e+003;4.351529e-002
2.827251e+003;4.367567e-002
2.829180e+003;4.440600e-002
2.831108e+003;4.556554e-002
2.833037e+003;4.625405e-002
2.834966e+003;4.654886e-002
2.836894e+003;4.700693e-002
2.838823e+003;4.757833e-002
2.840751e+003;4.835652e-002
2.842680e+003;4.868352e-002
2.844608e+003;4.861281e-002
2.846537e+003;4.860700e-002
2.848465e+003;4.883311e-002
2.850394e+003;4.936853e-002
2.852323e+003;5.023983e-002
2.854251e+003;5.159560e-002
2.856180e+003;5.265579e-002
2.858108e+003;5.419823e-002
2.860037e+003;5.536497e-002
2.861965e+003;5.616411e-002
2.863894e+003;5.691644e-002
2.865822e+003;5.739579e-002
2.867751e+003;5.802925e-002
2.869679e+003;5.868013e-002
2.871608e+003;5.920559e-002
2.873536e+003;5.990775e-002
2.875465e+003;6.006083e-002
2.877394e+003;6.000460e-002
2.879322e+003;6.039259e-002
2.881251e+003;6.064626e-002
2.883179e+003;6.072673e-002
2.885108e+003;6.128760e-002
2.887036e+003;6.163523e-002
2.888965e+003;6.138415e-002
2.890893e+003;6.117956e-002
2.892822e+003;6.119150e-002
2.894750e+003;6.122153e-002
2.896679e+003;6.105015e-002
2.898608e+003;6.085639e-002
2.900536e+003;6.105076e-002
2.902465e+003;6.095925e-002
2.904393e+003;6.057609e-002
2.906322e+003;6.023993e-002
2.908250e+003;5.992715e-002
2.910179e+003;5.915251e-002
2.912107e+003;5.742533e-002
2.914036e+003;5.625455e-002
2.915965e+003;5.632682e-002
2.917893e+003;5.614167e-002
2.919822e+003;5.544956e-002
2.921750e+003;5.478429e-002
2.923679e+003;5.454349e-002
2.925607e+003;5.487846e-002
2.927536e+003;5.571934e-002
2.929464e+003;5.586078e-002
2.931393e+003;5.571147e-002
2.933322e+003;5.599125e-002
2.935250e+003;5.629204e-002
2.937178e+003;5.663701e-002
2.939107e+003;5.670164e-002
2.941036e+003;5.673664e-002
2.942964e+003;5.662980e-002
2.944893e+003;5.619217e-002
2.946821e+003;5.587879e-002
2.948750e+003;5.524963e-002
2.950678e+003;5.422128e-002
2.952607e+003;5.346160e-002
2.954535e+003;5.229864e-002
2.956464e+003;5.132896e-002
2.958393e+003;5.121439e-002
2.960321e+003;5.105981e-002
2.962250e+003;5.067072e-002
2.964178e+003;5.018746e-002
2.966107e+003;4.972889e-002
2.968035e+003;4.999373e-002
2.969964e+003;5.005325e-002
2.971892e+003;4.933724e-002
2.973821e+003;4.886325e-002
2.975750e+003;4.866740e-002
2.977678e+003;4.860277e-002
2.979607e+003;4.835356e-002
2.981535e+003;4.775801e-002
2.983464e+003;4.694221e-002
2.985392e+003;4.644741e-002
2.987321e+003;4.639656e-002
2.989249e+003;4.606722e-002
2.991178e+003;4.566583e-002
2.993106e+003;4.552068e-002
2.995035e+003;4.532549e-002
2.996964e+003;4.519498e-002
2.998892e+003;4.487724e-002
3.000821e+003;4.419968e-002
3.002749e+003;4.392166e-002
3.004678e+003;4.442027e-002
3.006606e+003;4.473111e-002
3.008535e+003;4.445345e-002
3.010463e+003;4.409276e-002
3.012392e+003;4.388409e-002
3.014321e+003;4.380565e-002
3.016249e+003;4.373961e-002
3.018177e+003;4.409554e-002
3.020106e+003;4.432023e-002
3.022035e+003;4.406429e-002
3.023963e+003;4.433579e-002
3.025892e+003;4.481012e-002
3.027820e+003;4.466269e-002
3.029749e+003;4.443360e-002
3.031677e+003;4.428714e-002
3.033606e+003;4.462527e-002
3.035534e+003;4.516314e-002
3.037463e+003;4.541038e-002
3.039392e+003;4.548658e-002
3.041320e+003;4.539309e-002
3.043249e+003;4.569576e-002
3.045177e+003;4.593793e-002
3.047106e+003;4.600106e-002
3.049034e+003;4.613107e-002
3.050963e+003;4.637761e-002
3.052891e+003;4.661433e-002
3.054820e+003;4.647909e-002
3.056749e+003;4.662780e-002
3.058677e+003;4.684986e-002
3.060606e+003;4.714441e-002
3.062534e+003;4.751871e-002
3.064463e+003;4.749412e-002
3.066391e+003;4.786558e-002
3.068320e+003;4.820592e-002
3.070248e+003;4.837378e-002
3.072177e+003;4.864961e-002
3.074105e+003;4.894461e-002
3.076034e+003;4.914062e-002
3.077963e+003;4.913929e-002
3.079891e+003;4.932102e-002
3.081820e+003;4.964969e-002
3.083748e+003;4.976902e-002
3.085677e+003;4.988102e-002
3.087605e+003;5.021766e-002
3.089534e+003;5.069042e-002
3.091462e+003;5.110330e-002
3.093391e+003;5.128478e-002
3.095320e+003;5.154840e-002
3.097248e+003;5.168916e-002
3.099177e+003;5.191897e-002
3.101105e+003;5.257934e-002
3.103034e+003;5.300237e-002
3.104962e+003;5.255967e-002
3.106891e+003;5.254160e-002
3.108819e+003;5.273823e-002
3.110748e+003;5.277786e-002
3.112677e+003;5.280416e-002
3.114605e+003;5.279915e-002
3.116533e+003;5.321221e-002
3.118462e+003;5.397088e-002
3.120391e+003;5.445920e-002
3.122319e+003;5.443846e-002
3.124248e+003;5.447610e-002
3.126176e+003;5.501202e-002
3.128105e+003;5.537849e-002
3.130033e+003;5.531642e-002
3.131962e+003;5.552802e-002
3.133890e+003;5.582784e-002
3.135819e+003;5.608780e-002
3.137748e+003;5.653098e-002
3.139676e+003;5.692925e-002
3.141605e+003;5.689994e-002
3.143533e+003;5.701920e-002
3.145462e+003;5.773365e-002
3.147390e+003;5.819163e-002
3.149319e+003;5.851491e-002
3.151247e+003;5.859996e-002
3.153176e+003;5.876680e-002
3.155104e+003;5.912995e-002
3.157033e+003;5.951849e-002
3.158962e+003;5.964087e-002
3.160890e+003;5.994248e-002
3.162819e+003;6.064511e-002
3.164747e+003;6.113104e-002
3.166676e+003;6.141312e-002
3.168604e+003;6.140716e-002
3.170533e+003;6.152424e-002
3.172461e+003;6.207777e-002
3.174390e+003;6.236218e-002
3.176319e+003;6.285682e-002
3.178247e+003;6.342098e-002
3.180176e+003;6.366883e-002
3.182104e+003;6.390588e-002
3.184033e+003;6.388224e-002
3.185961e+003;6.413323e-002
3.187890e+003;6.458090e-002
3.189818e+003;6.495579e-002
3.191747e+003;6.499266e-002
3.193676e+003;6.539442e-002
3.195604e+003;6.592082e-002
3.197532e+003;6.636273e-002
3.199461e+003;6.649034e-002
3.201390e+003;6.670023e-002
3.203318e+003;6.694338e-002
3.205247e+003;6.699789e-002
3.207175e+003;6.726744e-002
3.209104e+003;6.799765e-002
3.211032e+003;6.858826e-002
3.212961e+003;6.882940e-002
3.214889e+003;6.862764e-002
3.216818e+003;6.874031e-002
3.218747e+003;6.911882e-002
3.220675e+003;6.914928e-002
3.222604e+003;6.921028e-002
3.224532e+003;6.954502e-002
3.226461e+003;7.042868e-002
3.228389e+003;7.144998e-002
3.230318e+003;7.165384e-002
3.232246e+003;7.143915e-002
3.234175e+003;7.141467e-002
3.236104e+003;7.163633e-002
3.238032e+003;7.184270e-002
3.239961e+003;7.155162e-002
3.241889e+003;7.180826e-002
3.243818e+003;7.243410e-002
3.245746e+003;7.276522e-002
3.247675e+003;7.291788e-002
3.249603e+003;7.306111e-002
3.251532e+003;7.340366e-002
3.253460e+003;7.392789e-002
3.255389e+003;7.458787e-002
3.257318e+003;7.446344e-002
3.259246e+003;7.427607e-002
3.261175e+003;7.457645e-002
3.263103e+003;7.443524e-002
3.265032e+003;7.440170e-002
3.266960e+003;7.502483e-002
3.268889e+003;7.549601e-002
3.270817e+003;7.588381e-002
3.272746e+003;7.627547e-002
3.274675e+003;7.662132e-002
3.276603e+003;7.624407e-002
3.278531e+003;7.591629e-002
3.280460e+003;7.638703e-002
3.282389e+003;7.689077e-002
3.284317e+003;7.701676e-002
3.286246e+003;7.675229e-002
3.288174e+003;7.677759e-002
3.290103e+003;7.745677e-002
3.292031e+003;7.761038e-002
3.293960e+003;7.722104e-002
3.295888e+003;7.725956e-002
3.297817e+003;7.711608e-002
3.299746e+003;7.739714e-002
3.301674e+003;7.776163e-002
3.303603e+003;7.752442e-002
3.305531e+003;7.715316e-002
3.307460e+003;7.712384e-002
3.309388e+003;7.751812e-002
3.311317e+003;7.801756e-002
3.313245e+003;7.826738e-002
3.315174e+003;7.823199e-002
3.317103e+003;7.789596e-002
3.319031e+003;7.781097e-002
3.320960e+003;7.794996e-002
3.322888e+003;7.825044e-002
3.324817e+003;7.856359e-002
3.326745e+003;7.835396e-002
3.328674e+003;7.800757e-002
3.330602e+003;7.787986e-002
3.332531e+003;7.760733e-002
3.334459e+003;7.729261e-002
3.336388e+003;7.775307e-002
3.338317e+003;7.789735e-002
3.340245e+003;7.773198e-002
3.342174e+003;7.788169e-002
3.344102e+003;7.802109e-002
3.346031e+003;7.725346e-002
3.347959e+003;7.661068e-002
3.349888e+003;7.694943e-002
3.351816e+003;7.699097e-002
3.353745e+003;7.691063e-002
3.355674e+003;7.679559e-002
3.357602e+003;7.657527e-002
3.359531e+003;7.652374e-002
3.361459e+003;7.641215e-002
3.363388e+003;7.632872e-002
3.365316e+003;7.602242e-002
3.367245e+003;7.542923e-002
3.369173e+003;7.501778e-002
3.371102e+003;7.526997e-002
3.373031e+003;7.535753e-002
3.374959e+003;7.524861e-002
3.376887e+003;7.505121e-002
3.378816e+003;7.431059e-002
3.380745e+003;7.444287e-002
3.382673e+003;7.464621e-002
3.384602e+003;7.395931e-002
3.386530e+003;7.318090e-002
3.388459e+003;7.269847e-002
3.390387e+003;7.243648e-002
3.392316e+003;7.214516e-002
3.394244e+003;7.203556e-002
3.396173e+003;7.185013e-002
3.398102e+003;7.192160e-002
3.400030e+003;7.212639e-002
3.401959e+003;7.205778e-002
3.403887e+003;7.189478e-002
3.405816e+003;7.152322e-002
3.407744e+003;7.120764e-002
3.409673e+003;7.080434e-002
3.411601e+003;7.066532e-002
3.413530e+003;7.065514e-002
3.415458e+003;7.024518e-002
3.417387e+003;6.935548e-002
3.419316e+003;6.837951e-002
3.421244e+003;6.790683e-002
3.423173e+003;6.730001e-002
3.425101e+003;6.701796e-002
3.427030e+003;6.687157e-002
3.428958e+003;6.657580e-002
3.430887e+003;6.605177e-002
3.432815e+003;6.548591e-002
3.434744e+003;6.555711e-002
3.436673e+003;6.533807e-002
3.438601e+003;6.434475e-002
3.440530e+003;6.374568e-002
3.442458e+003;6.362893e-002
3.444387e+003;6.326296e-002
3.446315e+003;6.305806e-002
3.448244e+003;6.274306e-002
3.450172e+003;6.223039e-002
3.452101e+003;6.156406e-002
3.454030e+003;6.124457e-002
3.455958e+003;6.072807e-002
3.457886e+003;5.986113e-002
3.459815e+003;5.937377e-002
3.461744e+003;5.942350e-002
3.463672e+003;5.896240e-002
3.465601e+003;5.811973e-002
3.467529e+003;5.801622e-002
3.469458e+003;5.763860e-002
3.471386e+003;5.662066e-002
3.473315e+003;5.588844e-002
3.475243e+003;5.512547e-002
3.477172e+003;5.489692e-002
3.479101e+003;5.490801e-002
3.481029e+003;5.429933e-002
3.482958e+003;5.367807e-002
3.484886e+003;5.283904e-002
3.486815e+003;5.234599e-002
3.488743e+003;5.232110e-002
3.490672e+003;5.188387e-002
3.492600e+003;5.150807e-002
3.494529e+003;5.109622e-002
3.496458e+003;5.070755e-002
3.498386e+003;5.023641e-002
3.500315e+003;4.941349e-002
3.502243e+003;4.853363e-002
3.504172e+003;4.801207e-002
3.506100e+003;4.743443e-002
3.508029e+003;4.691305e-002
3.509957e+003;4.706032e-002
3.511886e+003;4.695269e-002
3.513814e+003;4.610657e-002
3.515743e+003;4.521252e-002
3.517672e+003;4.514549e-002
3.519600e+003;4.495300e-002
3.521529e+003;4.435913e-002
3.523457e+003;4.344545e-002
3.525386e+003;4.244526e-002
3.527314e+003;4.214296e-002
3.529243e+003;4.209371e-002
3.531171e+003;4.174580e-002
3.533100e+003;4.101297e-002
3.535029e+003;4.081663e-002
3.536957e+003;4.036115e-002
3.538885e+003;3.943802e-002
3.540814e+003;3.940195e-002
3.542743e+003;3.896720e-002
3.544671e+003;3.792230e-002
3.546600e+003;3.714193e-002
3.548528e+003;3.687078e-002
3.550457e+003;3.630172e-002
3.552385e+003;3.599279e-002
3.554314e+003;3.588780e-002
3.556242e+003;3.512530e-002
3.558171e+003;3.416468e-002
3.560100e+003;3.379877e-002
3.562028e+003;3.312971e-002
3.563957e+003;3.254071e-002
3.565885e+003;3.227184e-002
3.567814e+003;3.198892e-002
3.569742e+003;3.135066e-002
3.571671e+003;3.090319e-002
3.573599e+003;3.069347e-002
3.575528e+003;3.045375e-002
3.577457e+003;2.976772e-002
3.579385e+003;2.911734e-002
3.581314e+003;2.869074e-002
3.583242e+003;2.852451e-002
3.585171e+003;2.788773e-002
3.587099e+003;2.663238e-002
3.589028e+003;2.670781e-002
3.590956e+003;2.692615e-002
3.592885e+003;2.584353e-002
3.594813e+003;2.484324e-002
3.596742e+003;2.431813e-002
3.598671e+003;2.396967e-002
3.600599e+003;2.384878e-002
3.602528e+003;2.342403e-002
3.604456e+003;2.228386e-002
3.606385e+003;2.129726e-002
3.608313e+003;2.057737e-002
3.610242e+003;1.997900e-002
3.612170e+003;1.915061e-002
3.614099e+003;1.881073e-002
3.616028e+003;1.863137e-002
3.617956e+003;1.792485e-002
3.619885e+003;1.729265e-002
3.621813e+003;1.692411e-002
3.623742e+003;1.655286e-002
3.625670e+003;1.564066e-002
3.627599e+003;1.430464e-002
3.629527e+003;1.324951e-002
3.631456e+003;1.285780e-002
3.633385e+003;1.255235e-002
3.635313e+003;1.218695e-002
3.637241e+003;1.132416e-002
3.639170e+003;1.009707e-002
3.641099e+003;9.082620e-003
3.643027e+003;8.697148e-003
3.644956e+003;7.722077e-003
3.646884e+003;6.092882e-003
3.648813e+003;4.971213e-003
3.650741e+003;4.662243e-003
3.652670e+003;4.248116e-003
3.654598e+003;2.750834e-003
3.656527e+003;1.384424e-003
3.658456e+003;1.189483e-003
3.660384e+003;8.344868e-004
3.662313e+003;2.978777e-004
3.664241e+003;-6.701488e-004
3.666170e+003;-1.801401e-003
3.668098e+003;-2.672569e-003
3.670027e+003;-3.110722e-003
3.671955e+003;-3.410611e-003
3.673884e+003;-4.555217e-003
3.675813e+003;-5.410609e-003
3.677741e+003;-5.521398e-003
3.679669e+003;-5.823681e-003
3.681598e+003;-6.068350e-003
3.683527e+003;-6.301647e-003
3.685455e+003;-7.172251e-003
3.687384e+003;-8.415068e-003
3.689312e+003;-8.675692e-003
3.691241e+003;-8.057149e-003
3.693169e+003;-7.543633e-003
3.695098e+003;-7.520643e-003
3.697026e+003;-7.420200e-003
3.698955e+003;-7.601072e-003
3.700884e+003;-8.365051e-003
3.702812e+003;-8.711676e-003
3.704741e+003;-8.748437e-003
3.706669e+003;-9.325948e-003
3.708598e+003;-1.021689e-002
3.710526e+003;-1.104287e-002
3.712455e+003;-1.143100e-002
3.714383e+003;-1.124490e-002
3.716312e+003;-1.124804e-002
3.718240e+003;-1.142997e-002
3.720169e+003;-1.200718e-002
3.722098e+003;-1.238923e-002
3.724026e+003;-1.262631e-002
3.725955e+003;-1.289686e-002
3.727883e+003;-1.275840e-002
3.729812e+003;-1.304897e-002
3.731740e+003;-1.380402e-002
3.733669e+003;-1.425812e-002
3.735597e+003;-1.453157e-002
3.737526e+003;-1.390947e-002
3.739455e+003;-1.329060e-002
3.741383e+003;-1.353277e-002
3.743312e+003;-1.410588e-002
3.745240e+003;-1.406755e-002
3.747169e+003;-1.376649e-002
3.749097e+003;-1.402357e-002
3.751026e+003;-1.410784e-002
3.752954e+003;-1.358095e-002
3.754883e+003;-1.309694e-002
3.756812e+003;-1.366800e-002
3.758740e+003;-1.436000e-002
3.760668e+003;-1.413895e-002
3.762597e+003;-1.325953e-002
3.764526e+003;-1.336563e-002
3.766454e+003;-1.351479e-002
3.768383e+003;-1.347888e-002
3.770311e+003;-1.378874e-002
3.772240e+003;-1.366553e-002
3.774168e+003;-1.377911e-002
3.776097e+003;-1.380748e-002
3.778025e+003;-1.325455e-002
3.779954e+003;-1.336280e-002
3.781883e+003;-1.384510e-002
3.783811e+003;-1.392738e-002
3.785740e+003;-1.346249e-002
3.787668e+003;-1.309810e-002
3.789597e+003;-1.321106e-002
3.791525e+003;-1.393415e-002
3.793454e+003;-1.427213e-002
3.795382e+003;-1.406624e-002
3.797311e+003;-1.377253e-002
3.799240e+003;-1.382408e-002
3.801168e+003;-1.439091e-002
3.803097e+003;-1.443677e-002
3.805025e+003;-1.408738e-002
3.806954e+003;-1.381926e-002
3.808882e+003;-1.340101e-002
3.810811e+003;-1.328048e-002
3.812739e+003;-1.382356e-002
3.814668e+003;-1.501135e-002
3.816596e+003;-1.490901e-002
3.818525e+003;-1.391490e-002
3.820454e+003;-1.390396e-002
3.822382e+003;-1.369693e-002
3.824311e+003;-1.327694e-002
3.826239e+003;-1.370823e-002
3.828168e+003;-1.420915e-002
3.830096e+003;-1.396704e-002
3.832025e+003;-1.361020e-002
3.833953e+003;-1.390588e-002
3.835882e+003;-1.379153e-002
3.837811e+003;-1.313623e-002
3.839739e+003;-1.248754e-002
3.841667e+003;-1.253956e-002
3.843596e+003;-1.275934e-002
3.845525e+003;-1.276835e-002
3.847453e+003;-1.302235e-002
3.849382e+003;-1.306981e-002
3.851310e+003;-1.354963e-002
3.853239e+003;-1.415380e-002
3.855167e+003;-1.364311e-002
3.857096e+003;-1.299653e-002
3.859024e+003;-1.240855e-002
3.860953e+003;-1.251078e-002
3.862882e+003;-1.261121e-002
3.864810e+003;-1.273421e-002
3.866739e+003;-1.249220e-002
3.868667e+003;-1.214253e-002
3.870596e+003;-1.199845e-002
3.872524e+003;-1.180598e-002
3.874453e+003;-1.182401e-002
3.876381e+003;-1.168614e-002
3.878310e+003;-1.201653e-002
3.880239e+003;-1.166337e-002
3.882167e+003;-1.113486e-002
3.884096e+003;-1.121539e-002
3.886024e+003;-1.116579e-002
3.887953e+003;-1.060641e-002
3.889881e+003;-1.085961e-002
3.891810e+003;-1.103412e-002
3.893738e+003;-1.062733e-002
3.895667e+003;-1.019673e-002
3.897595e+003;-1.038363e-002
3.899524e+003;-1.073243e-002
3.901453e+003;-1.042384e-002
3.903381e+003;-1.035358e-002
3.905310e+003;-1.060793e-002
3.907238e+003;-1.053976e-002
3.909167e+003;-1.007502e-002
3.911095e+003;-9.932162e-003
3.913024e+003;-1.004449e-002
3.914952e+003;-9.929118e-003
3.916881e+003;-9.626406e-003
3.918810e+003;-9.397223e-003
3.920738e+003;-9.651748e-003
3.922667e+003;-9.929215e-003
3.924595e+003;-9.775779e-003
3.926524e+003;-9.233998e-003
3.928452e+003;-8.937618e-003
3.930381e+003;-9.216418e-003
3.932309e+003;-9.030214e-003
3.934238e+003;-8.512260e-003
3.936167e+003;-8.392970e-003
3.938095e+003;-8.342917e-003
3.940023e+003;-8.720185e-003
3.941952e+003;-8.474536e-003
3.943881e+003;-7.904255e-003
3.945809e+003;-8.137153e-003
3.947738e+003;-8.695828e-003
3.949666e+003;-7.973975e-003
3.951595e+003;-7.095166e-003
3.953523e+003;-7.194771e-003
3.955452e+003;-7.529045e-003
3.957380e+003;-7.720027e-003
3.959309e+003;-7.838754e-003
3.961238e+003;-7.753975e-003
3.963166e+003;-7.842821e-003
3.965095e+003;-7.178378e-003
3.967023e+003;-6.496270e-003
3.968952e+003;-7.027554e-003
3.970880e+003;-7.523053e-003
3.972809e+003;-7.481107e-003
3.974737e+003;-7.808359e-003
3.976666e+003;-7.732233e-003
3.978594e+003;-6.667738e-003
3.980523e+003;-6.354058e-003
3.982452e+003;-6.595980e-003
3.984380e+003;-6.748683e-003
3.986309e+003;-6.868035e-003
3.988237e+003;-6.979691e-003
3.990166e+003;-6.968931e-003
3.992094e+003;-7.034172e-003
3.994023e+003;-7.049788e-003
3.995951e+003;-6.807955e-003
3.997880e+003;-6.504593e-003
3.999809e+003;-6.544741e-003
4.001737e+003;0.000000e+000
