3.992094e+002;0.000000e+000
4.011380e+002;0.000000e+000
4.030665e+002;0.000000e+000
4.049951e+002;0.000000e+000
4.069236e+002;0.000000e+000
4.088522e+002;0.000000e+000
4.107807e+002;0.000000e+000
4.127093e+002;0.000000e+000
4.146378e+002;0.000000e+000
4.165664e+002;0.000000e+000
4.184949e+002;0.000000e+000
4.204235e+002;0.000000e+000
4.223520e+002;0.000000e+000
4.242806e+002;0.000000e+000
4.262091e+002;0.000000e+000
4.281377e+002;0.000000e+000
4.300662e+002;0.000000e+000
4.319948e+002;0.000000e+000
4.339233e+002;0.000000e+000
4.358519e+002;0.000000e+000
4.377804e+002;0.000000e+000
4.397090e+002;0.000000e+000
4.416375e+002;0.000000e+000
4.435660e+002;0.000000e+000
4.454946e+002;0.000000e+000
4.474232e+002;0.000000e+000
4.493517e+002;0.000000e+000
4.512802e+002;0.000000e+000
4.532088e+002;0.000000e+000
4.551373e+002;0.000000e+000
4.570659e+002;0.000000e+000
4.589944e+002;0.000000e+000
4.609230e+002;0.000000e+000
4.628515e+002;0.000000e+000
4.647801e+002;0.000000e+000
4.667086e+002;0.000000e+000
4.686372e+002;0.000000e+000
4.705657e+002;0.000000e+000
4.724943e+002;0.000000e+000
4.744228e+002;0.000000e+000
4.763513e+002;0.000000e+000
4.782799e+002;0.000000e+000
4.802085e+002;0.000000e+000
4.821370e+002;0.000000e+000
4.840656e+002;0.000000e+000
4.859941e+002;0.000000e+000
4.879226e+002;0.000000e+000
4.898512e+002;0.000000e+000
4.917798e+002;0.000000e+000
4.937083e+002;0.000000e+000
4.956368e+002;0.000000e+000
4.975654e+002;0.000000e+000
4.994939e+002;0.000000e+000
5.014225e+002;0.000000e+000
5.033510e+002;0.000000e+000
5.052796e+002;0.000000e+000
5.072081e+002;0.000000e+000
5.091367e+002;0.000000e+000
5.110652e+002;0.000000e+000
5.129938e+002;0.000000e+000
5.149223e+002;0.000000e+000
5.168509e+002;0.000000e+000
5.187794e+002;0.000000e+000
5.207079e+002;0.000000e+000
5.226365e+002;0.000000e+000
5.245651e+002;0.000000e+000
5.264936e+002;0.000000e+000
5.284222e+002;0.000000e+000
5.303507e+002;0.000000e+000
5.322792e+002;0.000000e+000
5.342078e+002;0.000000e+000
5.361364e+002;0.000000e+000
5.380649e+002;0.000000e+000
5.399935e+002;0.000000e+000
5.419220e+002;0.000000e+000
5.438505e+002;0.000000e+000
5.457791e+002;0.000000e+000
5.477076e+002;0.000000e+000
5.496362e+002;0.000000e+000
5.515648e+002;0.000000e+000
5.534933e+002;0.000000e+000
5.554218e+002;0.000000e+000
5.573504e+002;0.000000e+000
5.592789e+002;0.000000e+000
5.612075e+002;0.000000e+000
5.631360e+002;0.000000e+000
5.650646e+002;0.000000e+000
5.669931e+002;0.000000e+000
5.689217e+002;0.000000e+000
5.708502e+002;0.000000e+000
5.727787e+002;0.000000e+000
5.747073e+002;0.000000e+000
5.766359e+002;0.000000e+000
5.785644e+002;0.000000e+000
5.804930e+002;0.000000e+000
5.824215e+002;0.000000e+000
5.843500e+002;0.000000e+000
5.862786e+002;0.000000e+000
5.882072e+002;0.000000e+000
5.901357e+002;0.000000e+000
5.920643e+002;0.000000e+000
5.939928e+002;0.000000e+000
5.959213e+002;0.000000e+000
5.978499e+002;0.000000e+000
5.997784e+002;7.901065e-002
6.017070e+002;8.263099e-002
6.036355e+002;8.397479e-002
6.055641e+002;8.218952e-002
6.074926e+002;7.994456e-002
6.094211e+002;7.856585e-002
6.113497e+002;8.063816e-002
6.132783e+002;8.151897e-002
6.152068e+002;8.169830e-002
6.171354e+002;8.865298e-002
6.190639e+002;8.691919e-002
6.209924e+002;7.628013e-002
6.229210e+002;7.299741e-002
6.248495e+002;7.610247e-002
6.267781e+002;8.062771e-002
6.287067e+002;8.101796e-002
6.306352e+002;7.898323e-002
6.325637e+002;7.796522e-002
6.344923e+002;7.712356e-002
6.364208e+002;8.162963e-002
6.383494e+002;8.565221e-002
6.402780e+002;8.435403e-002
6.422065e+002;8.084583e-002
6.441350e+002;8.120168e-002
6.460636e+002;8.415080e-002
6.479921e+002;8.270706e-002
6.499207e+002;7.837682e-002
6.518492e+002;7.321160e-002
6.537778e+002;7.201452e-002
6.557063e+002;7.390094e-002
6.576349e+002;7.830170e-002
6.595634e+002;7.936338e-002
6.614919e+002;7.787554e-002
6.634205e+002;7.674798e-002
6.653491e+002;7.684747e-002
6.672776e+002;7.689026e-002
6.692062e+002;7.616924e-002
6.711347e+002;7.201588e-002
6.730632e+002;6.759252e-002
6.749918e+002;6.625230e-002
6.769203e+002;6.549126e-002
6.788489e+002;6.345477e-002
6.807775e+002;6.181734e-002
6.827060e+002;6.190931e-002
6.846345e+002;5.901501e-002
6.865631e+002;5.492903e-002
6.884916e+002;5.521426e-002
6.904202e+002;5.501786e-002
6.923488e+002;5.497028e-002
6.942773e+002;5.409797e-002
6.962058e+002;5.159348e-002
6.981344e+002;5.015440e-002
7.000629e+002;4.847509e-002
7.019915e+002;4.740302e-002
7.039200e+002;4.827849e-002
7.058486e+002;4.821340e-002
7.077771e+002;4.686060e-002
7.097057e+002;4.674531e-002
7.116342e+002;4.609154e-002
7.135627e+002;4.528592e-002
7.154913e+002;4.432952e-002
7.174199e+002;4.310304e-002
7.193484e+002;4.165246e-002
7.212770e+002;4.009616e-002
7.232055e+002;3.954902e-002
7.251340e+002;3.854889e-002
7.270626e+002;3.683922e-002
7.289911e+002;3.653272e-002
7.309197e+002;3.742329e-002
7.328483e+002;3.674772e-002
7.347768e+002;3.489213e-002
7.367053e+002;3.449670e-002
7.386339e+002;3.380278e-002
7.405624e+002;3.224365e-002
7.424910e+002;3.201795e-002
7.444196e+002;3.151416e-002
7.463481e+002;3.072868e-002
7.482766e+002;3.025882e-002
7.502052e+002;3.027111e-002
7.521337e+002;2.929599e-002
7.540623e+002;2.721966e-002
7.559908e+002;2.640112e-002
7.579194e+002;2.565203e-002
7.598479e+002;2.426035e-002
7.617765e+002;2.234668e-002
7.637050e+002;2.068136e-002
7.656335e+002;2.022981e-002
7.675621e+002;1.890063e-002
7.694907e+002;1.820385e-002
7.714192e+002;1.763987e-002
7.733478e+002;1.616600e-002
7.752763e+002;1.402661e-002
7.772048e+002;1.348453e-002
7.791334e+002;1.377194e-002
7.810620e+002;1.298420e-002
7.829905e+002;1.205734e-002
7.849191e+002;1.285667e-002
7.868476e+002;1.326055e-002
7.887761e+002;1.268514e-002
7.907047e+002;1.186222e-002
7.926332e+002;1.072856e-002
7.945618e+002;1.026114e-002
7.964903e+002;1.008849e-002
7.984189e+002;9.986462e-003
8.003474e+002;9.866117e-003
8.022759e+002;9.322605e-003
8.042045e+002;9.145286e-003
8.061331e+002;8.947846e-003
8.080616e+002;9.326736e-003
8.099902e+002;9.703043e-003
8.119187e+002;9.556863e-003
8.138472e+002;9.659065e-003
8.157758e+002;1.035299e-002
8.177043e+002;1.082890e-002
8.196329e+002;1.175746e-002
8.215615e+002;1.272959e-002
8.234900e+002;1.270459e-002
8.254185e+002;1.306727e-002
8.273471e+002;1.331695e-002
8.292756e+002;1.374765e-002
8.312042e+002;1.400570e-002
8.331328e+002;1.400950e-002
8.350613e+002;1.403626e-002
8.369898e+002;1.485460e-002
8.389184e+002;1.549494e-002
8.408469e+002;1.462734e-002
8.427755e+002;1.454818e-002
8.447040e+002;1.531796e-002
8.466326e+002;1.572039e-002
8.485611e+002;1.555774e-002
8.504897e+002;1.414630e-002
8.524182e+002;1.321337e-002
8.543467e+002;1.318373e-002
8.562753e+002;1.379632e-002
8.582039e+002;1.458022e-002
8.601324e+002;1.435968e-002
8.620610e+002;1.408848e-002
8.639895e+002;1.422712e-002
8.659180e+002;1.526246e-002
8.678466e+002;1.656842e-002
8.697751e+002;1.684023e-002
8.717037e+002;1.778769e-002
8.736323e+002;1.996155e-002
8.755608e+002;2.198320e-002
8.774893e+002;2.347618e-002
8.794179e+002;2.447385e-002
8.813464e+002;2.623204e-002
8.832750e+002;2.888770e-002
8.852036e+002;3.109485e-002
8.871321e+002;3.269544e-002
8.890606e+002;3.480245e-002
8.909892e+002;3.710598e-002
8.929177e+002;3.932004e-002
8.948463e+002;4.129744e-002
8.967748e+002;4.197859e-002
8.987034e+002;4.194556e-002
9.006319e+002;4.188002e-002
9.025605e+002;4.227745e-002
9.044890e+002;4.247544e-002
9.064175e+002;4.142518e-002
9.083461e+002;4.006851e-002
9.102747e+002;3.866477e-002
9.122032e+002;3.731560e-002
9.141318e+002;3.698578e-002
9.160603e+002;3.673972e-002
9.179888e+002;3.632437e-002
9.199174e+002;3.632542e-002
9.218459e+002;3.662669e-002
9.237745e+002;3.669508e-002
9.257031e+002;3.651239e-002
9.276316e+002;3.636040e-002
9.295601e+002;3.666440e-002
9.314887e+002;3.652475e-002
9.334172e+002;3.652360e-002
9.353458e+002;3.705246e-002
9.372744e+002;3.716838e-002
9.392029e+002;3.770085e-002
9.411314e+002;3.906126e-002
9.430600e+002;4.036493e-002
9.449885e+002;4.187134e-002
9.469171e+002;4.336676e-002
9.488456e+002;4.525705e-002
9.507742e+002;4.800119e-002
9.527027e+002;5.085894e-002
9.546313e+002;5.321003e-002
9.565598e+002;5.564943e-002
9.584883e+002;5.870732e-002
9.604169e+002;6.187472e-002
9.623455e+002;6.539465e-002
9.642740e+002;6.899495e-002
9.662026e+002;7.242674e-002
9.681311e+002;7.578860e-002
9.700596e+002;7.891659e-002
9.719882e+002;8.279294e-002
9.739167e+002;8.733317e-002
9.758453e+002;9.210800e-002
9.777739e+002;9.736883e-002
9.797024e+002;1.028920e-001
9.816309e+002;1.084442e-001
9.835595e+002;1.145651e-001
9.854880e+002;1.211678e-001
9.874166e+002;1.270800e-001
9.893452e+002;1.317226e-001
9.912737e+002;1.354166e-001
9.932022e+002;1.387398e-001
9.951307e+002;1.418675e-001
9.970593e+002;1.440044e-001
9.989879e+002;1.462513e-001
1.000916e+003;1.490259e-001
1.002845e+003;1.516510e-001
1.004773e+003;1.537764e-001
1.006702e+003;1.559410e-001
1.008631e+003;1.586315e-001
1.010559e+003;1.615140e-001
1.012488e+003;1.645749e-001
1.014416e+003;1.681717e-001
1.016345e+003;1.717804e-001
1.018273e+003;1.742562e-001
1.020202e+003;1.759824e-001
1.022130e+003;1.779995e-001
1.024059e+003;1.800321e-001
1.025988e+003;1.809411e-001
1.027916e+003;1.815739e-001
1.029845e+003;1.828079e-001
1.031773e+003;1.837236e-001
1.033702e+003;1.836709e-001
1.035630e+003;1.827722e-001
1.037559e+003;1.817578e-001
1.039487e+003;1.814105e-001
1.041416e+003;1.812005e-001
1.043344e+003;1.796421e-001
1.045273e+003;1.778756e-001
1.047202e+003;1.762946e-001
1.049130e+003;1.748359e-001
1.051059e+003;1.734165e-001
1.052987e+003;1.714389e-001
1.054916e+003;1.698674e-001
1.056844e+003;1.684777e-001
1.058773e+003;1.665296e-001
1.060701e+003;1.639426e-001
1.062630e+003;1.611194e-001
1.064558e+003;1.582381e-001
1.066487e+003;1.552195e-001
1.068416e+003;1.522777e-001
1.070344e+003;1.491123e-001
1.072273e+003;1.459994e-001
1.074201e+003;1.433379e-001
1.076130e+003;1.411402e-001
1.078058e+003;1.392651e-001
1.079987e+003;1.375925e-001
1.081915e+003;1.352331e-001
1.083844e+003;1.326949e-001
1.085773e+003;1.308421e-001
1.087701e+003;1.296040e-001
1.089630e+003;1.284475e-001
1.091558e+003;1.272160e-001
1.093487e+003;1.257174e-001
1.095415e+003;1.234210e-001
1.097344e+003;1.221155e-001
1.099272e+003;1.214342e-001
1.101201e+003;1.194706e-001
1.103129e+003;1.172106e-001
1.105058e+003;1.152997e-001
1.106987e+003;1.137390e-001
1.108915e+003;1.118478e-001
1.110844e+003;1.091228e-001
1.112772e+003;1.065663e-001
1.114701e+003;1.045353e-001
1.116629e+003;1.029430e-001
1.118558e+003;1.007651e-001
1.120486e+003;9.785868e-002
1.122415e+003;9.537242e-002
1.124344e+003;9.330886e-002
1.126272e+003;9.144553e-002
1.128201e+003;8.824744e-002
1.130129e+003;8.410121e-002
1.132058e+003;8.071760e-002
1.133986e+003;7.790107e-002
1.135915e+003;7.548718e-002
1.137843e+003;7.208488e-002
1.139772e+003;6.955315e-002
1.141700e+003;6.839614e-002
1.143629e+003;6.658291e-002
1.145557e+003;6.486250e-002
1.147486e+003;6.381019e-002
1.149415e+003;6.291483e-002
1.151343e+003;6.190101e-002
1.153272e+003;6.103211e-002
1.155200e+003;6.002210e-002
1.157129e+003;5.945268e-002
1.159057e+003;5.836821e-002
1.160986e+003;5.648362e-002
1.162914e+003;5.422676e-002
1.164843e+003;5.212526e-002
1.166771e+003;5.053870e-002
1.168700e+003;4.815856e-002
1.170629e+003;4.534535e-002
1.172557e+003;4.295820e-002
1.174486e+003;4.055245e-002
1.176414e+003;3.851840e-002
1.178343e+003;3.741921e-002
1.180271e+003;3.632888e-002
1.182200e+003;3.602133e-002
1.184128e+003;3.636646e-002
1.186057e+003;3.675198e-002
1.187986e+003;3.750452e-002
1.189914e+003;3.829390e-002
1.191843e+003;3.964365e-002
1.193771e+003;4.105405e-002
1.195700e+003;4.297415e-002
1.197628e+003;4.489800e-002
1.199557e+003;4.652246e-002
1.201485e+003;4.813480e-002
1.203414e+003;4.948920e-002
1.205343e+003;5.046092e-002
1.207271e+003;5.118139e-002
1.209200e+003;5.251132e-002
1.211128e+003;5.412593e-002
1.213057e+003;5.578949e-002
1.214985e+003;5.798165e-002
1.216914e+003;6.028580e-002
1.218842e+003;6.204646e-002
1.220771e+003;6.434041e-002
1.222699e+003;6.724504e-002
1.224628e+003;6.946044e-002
1.226557e+003;7.099029e-002
1.228485e+003;7.255676e-002
1.230414e+003;7.423994e-002
1.232342e+003;7.554514e-002
1.234271e+003;7.626793e-002
1.236199e+003;7.661559e-002
1.238128e+003;7.667781e-002
1.240056e+003;7.656823e-002
1.241985e+003;7.585520e-002
1.243913e+003;7.509119e-002
1.245842e+003;7.467584e-002
1.247771e+003;7.407840e-002
1.249699e+003;7.308291e-002
1.251628e+003;7.198495e-002
1.253556e+003;7.093860e-002
1.255485e+003;6.974355e-002
1.257413e+003;6.835996e-002
1.259342e+003;6.699576e-002
1.261270e+003;6.554678e-002
1.263199e+003;6.396136e-002
1.265127e+003;6.237504e-002
1.267056e+003;6.068333e-002
1.268985e+003;5.866989e-002
1.270913e+003;5.650720e-002
1.272842e+003;5.438648e-002
1.274770e+003;5.256038e-002
1.276699e+003;5.090461e-002
1.278627e+003;4.934593e-002
1.280556e+003;4.795356e-002
1.282484e+003;4.655915e-002
1.284413e+003;4.523815e-002
1.286342e+003;4.411700e-002
1.288270e+003;4.343944e-002
1.290199e+003;4.313583e-002
1.292127e+003;4.295688e-002
1.294056e+003;4.278225e-002
1.295984e+003;4.298864e-002
1.297913e+003;4.329625e-002
1.299841e+003;4.365438e-002
1.301770e+003;4.417983e-002
1.303698e+003;4.503797e-002
1.305627e+003;4.586611e-002
1.307556e+003;4.659427e-002
1.309484e+003;4.741367e-002
1.311413e+003;4.801133e-002
1.313341e+003;4.866766e-002
1.315270e+003;4.940128e-002
1.317198e+003;5.024225e-002
1.319127e+003;5.119243e-002
1.321055e+003;5.166139e-002
1.322984e+003;5.173387e-002
1.324912e+003;5.186871e-002
1.326841e+003;5.220323e-002
1.328770e+003;5.252616e-002
1.330698e+003;5.258984e-002
1.332627e+003;5.248432e-002
1.334555e+003;5.225589e-002
1.336484e+003;5.179098e-002
1.338412e+003;5.129242e-002
1.340341e+003;5.106428e-002
1.342269e+003;5.029530e-002
1.344198e+003;4.948482e-002
1.346126e+003;4.920007e-002
1.348055e+003;4.882777e-002
1.349984e+003;4.869646e-002
1.351912e+003;4.848187e-002
1.353841e+003;4.858835e-002
1.355769e+003;4.936501e-002
1.357698e+003;5.044450e-002
1.359626e+003;5.107829e-002
1.361555e+003;5.168684e-002
1.363483e+003;5.235568e-002
1.365412e+003;5.278014e-002
1.367341e+003;5.289805e-002
1.369269e+003;5.290909e-002
1.371198e+003;5.247744e-002
1.373126e+003;5.167158e-002
1.375055e+003;5.086892e-002
1.376983e+003;4.986906e-002
1.378912e+003;4.811041e-002
1.380840e+003;4.601830e-002
1.382769e+003;4.419348e-002
1.384698e+003;4.278419e-002
1.386626e+003;4.119524e-002
1.388555e+003;3.962572e-002
1.390483e+003;3.849914e-002
1.392412e+003;3.767914e-002
1.394340e+003;3.699044e-002
1.396269e+003;3.659774e-002
1.398197e+003;3.619546e-002
1.400126e+003;3.629347e-002
1.402054e+003;3.669981e-002
1.403983e+003;3.712738e-002
1.405911e+003;3.782443e-002
1.407840e+003;3.852713e-002
1.409769e+003;3.913185e-002
1.411697e+003;3.990924e-002
1.413626e+003;4.107011e-002
1.415554e+003;4.199110e-002
1.417483e+003;4.243280e-002
1.419411e+003;4.293358e-002
1.421340e+003;4.354617e-002
1.423268e+003;4.356086e-002
1.425197e+003;4.285978e-002
1.427125e+003;4.202676e-002
1.429054e+003;4.103147e-002
1.430983e+003;3.962546e-002
1.432911e+003;3.822425e-002
1.434840e+003;3.685386e-002
1.436768e+003;3.550059e-002
1.438697e+003;3.455952e-002
1.440625e+003;3.435341e-002
1.442554e+003;3.436973e-002
1.444482e+003;3.433093e-002
1.446411e+003;3.439447e-002
1.448340e+003;3.497102e-002
1.450268e+003;3.525411e-002
1.452197e+003;3.519421e-002
1.454125e+003;3.514883e-002
1.456054e+003;3.485960e-002
1.457982e+003;3.432569e-002
1.459911e+003;3.429725e-002
1.461839e+003;3.413571e-002
1.463768e+003;3.295016e-002
1.465697e+003;3.130732e-002
1.467625e+003;2.962864e-002
1.469554e+003;2.765248e-002
1.471482e+003;2.519268e-002
1.473411e+003;2.238174e-002
1.475339e+003;1.947038e-002
1.477268e+003;1.682556e-002
1.479196e+003;1.457333e-002
1.481125e+003;1.248022e-002
1.483053e+003;1.077465e-002
1.484982e+003;9.344204e-003
1.486911e+003;7.842370e-003
1.488839e+003;6.839155e-003
1.490768e+003;6.543620e-003
1.492696e+003;6.544428e-003
1.494625e+003;6.450893e-003
1.496553e+003;6.735159e-003
1.498482e+003;7.605426e-003
1.500410e+003;8.294624e-003
1.502339e+003;8.515252e-003
1.504267e+003;8.324278e-003
1.506196e+003;7.860892e-003
1.508125e+003;7.084471e-003
1.510053e+003;6.023869e-003
1.511982e+003;4.610837e-003
1.513910e+003;3.053674e-003
1.515839e+003;1.331941e-003
1.517767e+003;-7.568505e-004
1.519696e+003;-2.834196e-003
1.521624e+003;-4.538102e-003
1.523553e+003;-6.077433e-003
1.525481e+003;-7.393881e-003
1.527410e+003;-8.614010e-003
1.529339e+003;-9.665358e-003
1.531267e+003;-1.058636e-002
1.533196e+003;-1.172275e-002
1.535124e+003;-1.229084e-002
1.537053e+003;-1.268433e-002
1.538981e+003;-1.335368e-002
1.540910e+003;-1.373141e-002
1.542838e+003;-1.378100e-002
1.544767e+003;-1.382449e-002
1.546695e+003;-1.412202e-002
1.548624e+003;-1.429258e-002
1.550553e+003;-1.403951e-002
1.552481e+003;-1.371795e-002
1.554410e+003;-1.374219e-002
1.556338e+003;-1.376466e-002
1.558267e+003;-1.379490e-002
1.560195e+003;-1.371295e-002
1.562124e+003;-1.310328e-002
1.564052e+003;-1.236241e-002
1.565981e+003;-1.187524e-002
1.567910e+003;-1.120419e-002
1.569838e+003;-1.013837e-002
1.571767e+003;-8.810651e-003
1.573695e+003;-7.255123e-003
1.575624e+003;-5.858628e-003
1.577552e+003;-4.308514e-003
1.579481e+003;-1.999008e-003
1.581409e+003;5.457622e-004
1.583338e+003;2.796551e-003
1.585266e+003;4.905863e-003
1.587195e+003;7.166958e-003
1.589124e+003;9.304393e-003
1.591052e+003;1.109908e-002
1.592981e+003;1.234725e-002
1.594909e+003;1.291910e-002
1.596838e+003;1.298075e-002
1.598766e+003;1.300325e-002
1.600695e+003;1.266706e-002
1.602623e+003;1.205717e-002
1.604552e+003;1.144447e-002
1.606480e+003;1.080586e-002
1.608409e+003;1.007571e-002
1.610338e+003;9.765594e-003
1.612266e+003;9.192731e-003
1.614195e+003;8.327554e-003
1.616123e+003;7.691352e-003
1.618052e+003;7.319614e-003
1.619980e+003;6.921428e-003
1.621909e+003;6.421501e-003
1.623837e+003;6.170208e-003
1.625766e+003;6.055888e-003
1.627694e+003;5.763471e-003
1.629623e+003;5.521417e-003
1.631552e+003;5.588169e-003
1.633480e+003;5.575650e-003
1.635409e+003;5.093931e-003
1.637337e+003;5.035199e-003
1.639266e+003;5.139159e-003
1.641194e+003;5.222015e-003
1.643123e+003;5.293249e-003
1.645051e+003;5.089204e-003
1.646980e+003;5.019177e-003
1.648909e+003;4.899396e-003
1.650837e+003;4.268861e-003
1.652766e+003;3.546864e-003
1.654694e+003;3.509451e-003
1.656623e+003;3.233131e-003
1.658551e+003;2.592576e-003
1.660480e+003;2.093310e-003
1.662408e+003;1.519764e-003
1.664337e+003;1.188918e-003
1.666266e+003;7.288312e-004
1.668194e+003;-2.731705e-004
1.670123e+003;-1.228065e-003
1.672051e+003;-1.838422e-003
1.673980e+003;-2.486371e-003
1.675908e+003;-2.951567e-003
1.677837e+003;-3.609426e-003
1.679765e+003;-4.645933e-003
1.681694e+003;-5.099916e-003
1.683622e+003;-5.544494e-003
1.685551e+003;-5.741647e-003
1.687479e+003;-5.458775e-003
1.689408e+003;-5.376607e-003
1.691337e+003;-5.269415e-003
1.693265e+003;-5.149100e-003
1.695194e+003;-4.717719e-003
1.697122e+003;-3.708289e-003
1.699051e+003;-2.885842e-003
1.700979e+003;-1.641370e-003
1.702908e+003;3.943084e-004
1.704836e+003;2.146484e-003
1.706765e+003;4.093827e-003
1.708693e+003;6.322479e-003
1.710622e+003;8.619642e-003
1.712551e+003;1.125170e-002
1.714479e+003;1.353167e-002
1.716408e+003;1.529469e-002
1.718336e+003;1.737296e-002
1.720265e+003;1.985770e-002
1.722193e+003;2.190169e-002
1.724122e+003;2.360949e-002
1.726050e+003;2.494949e-002
1.727979e+003;2.588148e-002
1.729908e+003;2.649578e-002
1.731836e+003;2.666585e-002
1.733765e+003;2.664027e-002
1.735693e+003;2.685568e-002
1.737622e+003;2.680469e-002
1.739550e+003;2.611654e-002
1.741479e+003;2.518833e-002
1.743407e+003;2.411742e-002
1.745336e+003;2.260720e-002
1.747265e+003;2.087819e-002
1.749193e+003;1.899138e-002
1.751122e+003;1.691175e-002
1.753050e+003;1.439098e-002
1.754979e+003;1.148366e-002
1.756907e+003;8.415683e-003
1.758836e+003;5.300494e-003
1.760764e+003;2.399657e-003
1.762693e+003;-6.076837e-004
1.764621e+003;-3.756580e-003
1.766550e+003;-7.037791e-003
1.768479e+003;-1.000447e-002
1.770407e+003;-1.272642e-002
1.772336e+003;-1.527444e-002
1.774264e+003;-1.741218e-002
1.776193e+003;-1.927933e-002
1.778121e+003;-2.099383e-002
1.780050e+003;-2.253680e-002
1.781978e+003;-2.377961e-002
1.783907e+003;-2.503483e-002
1.785835e+003;-2.603208e-002
1.787764e+003;-2.663376e-002
1.789693e+003;-2.712972e-002
1.791621e+003;-2.772441e-002
1.793550e+003;-2.829630e-002
1.795478e+003;-2.890270e-002
1.797407e+003;-2.935699e-002
1.799335e+003;-2.926717e-002
1.801264e+003;-2.949995e-002
1.803192e+003;-3.027111e-002
1.805121e+003;-3.065152e-002
1.807049e+003;-3.075191e-002
1.808978e+003;-3.072398e-002
1.810907e+003;-3.082380e-002
1.812835e+003;-3.114874e-002
1.814764e+003;-3.124588e-002
1.816692e+003;-3.126425e-002
1.818621e+003;-3.140467e-002
1.820549e+003;-3.153358e-002
1.822478e+003;-3.165611e-002
1.824406e+003;-3.179825e-002
1.826335e+003;-3.191984e-002
1.828264e+003;-3.211335e-002
1.830192e+003;-3.218419e-002
1.832121e+003;-3.209575e-002
1.834049e+003;-3.208344e-002
1.835978e+003;-3.211695e-002
1.837906e+003;-3.237970e-002
1.839835e+003;-3.276269e-002
1.841763e+003;-3.266896e-002
1.843692e+003;-3.257605e-002
1.845620e+003;-3.264984e-002
1.847549e+003;-3.262139e-002
1.849478e+003;-3.267920e-002
1.851406e+003;-3.283172e-002
1.853335e+003;-3.289197e-002
1.855263e+003;-3.296203e-002
1.857192e+003;-3.302290e-002
1.859120e+003;-3.273614e-002
1.861049e+003;-3.248517e-002
1.862977e+003;-3.271103e-002
1.864906e+003;-3.299962e-002
1.866834e+003;-3.311820e-002
1.868763e+003;-3.292385e-002
1.870692e+003;-3.272834e-002
1.872620e+003;-3.273995e-002
1.874549e+003;-3.295466e-002
1.876477e+003;-3.328997e-002
1.878406e+003;-3.333054e-002
1.880334e+003;-3.304755e-002
1.882263e+003;-3.284749e-002
1.884191e+003;-3.277959e-002
1.886120e+003;-3.302802e-002
1.888048e+003;-3.309428e-002
1.889977e+003;-3.299424e-002
1.891906e+003;-3.286714e-002
1.893834e+003;-3.272050e-002
1.895763e+003;-3.246931e-002
1.897691e+003;-3.247220e-002
1.899620e+003;-3.267081e-002
1.901548e+003;-3.265467e-002
1.903477e+003;-3.283621e-002
1.905405e+003;-3.311034e-002
1.907334e+003;-3.292686e-002
1.909262e+003;-3.282924e-002
1.911191e+003;-3.286625e-002
1.913120e+003;-3.283685e-002
1.915048e+003;-3.263546e-002
1.916977e+003;-3.255318e-002
1.918905e+003;-3.268024e-002
1.920834e+003;-3.278705e-002
1.922762e+003;-3.262787e-002
1.924691e+003;-3.235482e-002
1.926619e+003;-3.220606e-002
1.928548e+003;-3.229333e-002
1.930477e+003;-3.228580e-002
1.932405e+003;-3.215966e-002
1.934334e+003;-3.224276e-002
1.936262e+003;-3.225439e-002
1.938191e+003;-3.206806e-002
1.940119e+003;-3.202977e-002
1.942048e+003;-3.191381e-002
1.943976e+003;-3.188438e-002
1.945905e+003;-3.194250e-002
1.947833e+003;-3.187203e-002
1.949762e+003;-3.172896e-002
1.951691e+003;-3.162694e-002
1.953619e+003;-3.157568e-002
1.955548e+003;-3.151328e-002
1.957476e+003;-3.139740e-002
1.959405e+003;-3.136886e-002
1.961333e+003;-3.137881e-002
1.963262e+003;-3.156609e-002
1.965190e+003;-3.170038e-002
1.967119e+003;-3.163951e-002
1.969047e+003;-3.125445e-002
1.970976e+003;-3.108150e-002
1.972905e+003;-3.129718e-002
1.974833e+003;-3.130122e-002
1.976762e+003;-3.123508e-002
1.978690e+003;-3.112734e-002
1.980619e+003;-3.092055e-002
1.982547e+003;-3.087855e-002
1.984476e+003;-3.071743e-002
1.986404e+003;-3.047669e-002
1.988333e+003;-3.047901e-002
1.990261e+003;-3.028641e-002
1.992190e+003;-3.008519e-002
1.994119e+003;-3.005235e-002
1.996047e+003;-2.994583e-002
1.997976e+003;-2.998915e-002
1.999904e+003;-2.999490e-002
2.001833e+003;-2.979633e-002
2.003761e+003;-2.979420e-002
2.005690e+003;-2.994935e-002
2.007618e+003;-2.989179e-002
2.009547e+003;-2.961299e-002
2.011476e+003;-2.954301e-002
2.013404e+003;-2.948970e-002
2.015333e+003;-2.917551e-002
2.017261e+003;-2.888239e-002
2.019190e+003;-2.881210e-002
2.021118e+003;-2.870083e-002
2.023047e+003;-2.869184e-002
2.024975e+003;-2.887600e-002
2.026904e+003;-2.895217e-002
2.028833e+003;-2.883142e-002
2.030761e+003;-2.853717e-002
2.032690e+003;-2.832185e-002
2.034618e+003;-2.828199e-002
2.036547e+003;-2.815230e-002
2.038475e+003;-2.791899e-002
2.040404e+003;-2.786392e-002
2.042332e+003;-2.791143e-002
2.044261e+003;-2.810935e-002
2.046189e+003;-2.804747e-002
2.048118e+003;-2.789574e-002
2.050047e+003;-2.793483e-002
2.051975e+003;-2.797525e-002
2.053904e+003;-2.787937e-002
2.055832e+003;-2.775064e-002
2.057761e+003;-2.770373e-002
2.059689e+003;-2.759660e-002
2.061618e+003;-2.735645e-002
2.063546e+003;-2.728744e-002
2.065475e+003;-2.741214e-002
2.067404e+003;-2.741145e-002
2.069332e+003;-2.708797e-002
2.071260e+003;-2.694528e-002
2.073189e+003;-2.739021e-002
2.075118e+003;-2.771663e-002
2.077046e+003;-2.769808e-002
2.078975e+003;-2.760437e-002
2.080903e+003;-2.753462e-002
2.082832e+003;-2.738629e-002
2.084760e+003;-2.727587e-002
2.086689e+003;-2.753403e-002
2.088617e+003;-2.761973e-002
2.090546e+003;-2.738706e-002
2.092475e+003;-2.724185e-002
2.094403e+003;-2.710734e-002
2.096332e+003;-2.732823e-002
2.098260e+003;-2.755166e-002
2.100189e+003;-2.742010e-002
2.102117e+003;-2.733763e-002
2.104046e+003;-2.723236e-002
2.105974e+003;-2.714606e-002
2.107903e+003;-2.707683e-002
2.109832e+003;-2.715739e-002
2.111760e+003;-2.748810e-002
2.113688e+003;-2.750122e-002
2.115617e+003;-2.727033e-002
2.117546e+003;-2.717939e-002
2.119474e+003;-2.702919e-002
2.121403e+003;-2.715801e-002
2.123331e+003;-2.739892e-002
2.125260e+003;-2.707343e-002
2.127188e+003;-2.657426e-002
2.129117e+003;-2.673718e-002
2.131045e+003;-2.703729e-002
2.132974e+003;-2.689925e-002
2.134903e+003;-2.667533e-002
2.136831e+003;-2.678400e-002
2.138760e+003;-2.704613e-002
2.140688e+003;-2.709532e-002
2.142617e+003;-2.704560e-002
2.144545e+003;-2.714640e-002
2.146474e+003;-2.726081e-002
2.148402e+003;-2.738405e-002
2.150331e+003;-2.734678e-002
2.152260e+003;-2.718895e-002
2.154188e+003;-2.720090e-002
2.156117e+003;-2.709327e-002
2.158045e+003;-2.696116e-002
2.159974e+003;-2.712221e-002
2.161902e+003;-2.728517e-002
2.163831e+003;-2.700712e-002
2.165759e+003;-2.671546e-002
2.167688e+003;-2.681247e-002
2.169616e+003;-2.690236e-002
2.171545e+003;-2.682406e-002
2.173474e+003;-2.696135e-002
2.175402e+003;-2.710737e-002
2.177331e+003;-2.714304e-002
2.179259e+003;-2.730773e-002
2.181188e+003;-2.730490e-002
2.183116e+003;-2.708228e-002
2.185045e+003;-2.728084e-002
2.186973e+003;-2.735767e-002
2.188902e+003;-2.718484e-002
2.190831e+003;-2.695574e-002
2.192759e+003;-2.694279e-002
2.194688e+003;-2.715873e-002
2.196616e+003;-2.703421e-002
2.198545e+003;-2.696406e-002
2.200473e+003;-2.713214e-002
2.202402e+003;-2.727755e-002
2.204330e+003;-2.739466e-002
2.206259e+003;-2.729407e-002
2.208188e+003;-2.697025e-002
2.210116e+003;-2.684256e-002
2.212044e+003;-2.708461e-002
2.213973e+003;-2.728088e-002
2.215902e+003;-2.705771e-002
2.217830e+003;-2.661652e-002
2.219759e+003;-2.638279e-002
2.221687e+003;-2.657938e-002
2.223616e+003;-2.693612e-002
2.225544e+003;-2.714755e-002
2.227473e+003;-2.686558e-002
2.229401e+003;-2.684182e-002
2.231330e+003;-2.690996e-002
2.233259e+003;-2.680789e-002
2.235187e+003;-2.668860e-002
2.237116e+003;-2.656008e-002
2.239044e+003;-2.654026e-002
2.240973e+003;-2.691031e-002
2.242901e+003;-2.689735e-002
2.244830e+003;-2.664361e-002
2.246758e+003;-2.668303e-002
2.248687e+003;-2.666230e-002
2.250615e+003;-2.658604e-002
2.252544e+003;-2.630910e-002
2.254473e+003;-2.607886e-002
2.256401e+003;-2.630642e-002
2.258330e+003;-2.633084e-002
2.260258e+003;-2.605243e-002
2.262187e+003;-2.599632e-002
2.264115e+003;-2.635545e-002
2.266044e+003;-2.640496e-002
2.267972e+003;-2.609280e-002
2.269901e+003;-2.617214e-002
2.271830e+003;-2.650547e-002
2.273758e+003;-2.683288e-002
2.275687e+003;-2.668514e-002
2.277615e+003;-2.631472e-002
2.279544e+003;-2.635950e-002
2.281472e+003;-2.645547e-002
2.283401e+003;-2.651697e-002
2.285329e+003;-2.648995e-002
2.287258e+003;-2.648162e-002
2.289187e+003;-2.625272e-002
2.291115e+003;-2.616821e-002
2.293043e+003;-2.625480e-002
2.294972e+003;-2.624273e-002
2.296901e+003;-2.617227e-002
2.298829e+003;-2.617738e-002
2.300758e+003;-2.638541e-002
2.302686e+003;-2.653589e-002
2.304615e+003;-2.657211e-002
2.306543e+003;-2.643081e-002
2.308472e+003;-2.646763e-002
2.310400e+003;-2.653253e-002
2.312329e+003;-2.624679e-002
2.314258e+003;-2.626728e-002
2.316186e+003;-2.687623e-002
2.318115e+003;-2.710796e-002
2.320043e+003;-2.700416e-002
2.321972e+003;-2.673054e-002
2.323900e+003;-2.690342e-002
2.325829e+003;-2.727089e-002
2.327757e+003;-2.747970e-002
2.329686e+003;-2.736367e-002
2.331615e+003;-2.762508e-002
2.333543e+003;-2.796845e-002
2.335472e+003;-2.768953e-002
2.337400e+003;-2.742719e-002
2.339329e+003;-2.741786e-002
2.341257e+003;-2.734248e-002
2.343186e+003;-2.700858e-002
2.345114e+003;-2.665352e-002
2.347043e+003;-2.634366e-002
2.348971e+003;-2.621416e-002
2.350900e+003;-2.648615e-002
2.352829e+003;-2.698918e-002
2.354757e+003;-2.762464e-002
2.356686e+003;-2.801526e-002
2.358614e+003;-2.805962e-002
2.360543e+003;-2.798578e-002
2.362471e+003;-2.808984e-002
2.364400e+003;-2.796842e-002
2.366328e+003;-2.764047e-002
2.368257e+003;-2.732699e-002
2.370186e+003;-2.686630e-002
2.372114e+003;-2.643997e-002
2.374042e+003;-2.598524e-002
2.375971e+003;-2.543576e-002
2.377900e+003;-2.514185e-002
2.379828e+003;-2.526554e-002
2.381757e+003;-2.521865e-002
2.383685e+003;-2.507568e-002
2.385614e+003;-2.501156e-002
2.387542e+003;-2.477433e-002
2.389471e+003;-2.444969e-002
2.391399e+003;-2.455003e-002
2.393328e+003;-2.454095e-002
2.395257e+003;-2.429253e-002
2.397185e+003;-2.442022e-002
2.399114e+003;-2.449902e-002
2.401042e+003;-2.441803e-002
2.402971e+003;-2.418063e-002
2.404899e+003;-2.418001e-002
2.406828e+003;-2.423475e-002
2.408756e+003;-2.413509e-002
2.410685e+003;-2.407529e-002
2.412614e+003;-2.402914e-002
2.414542e+003;-2.406786e-002
2.416471e+003;-2.412096e-002
2.418399e+003;-2.378868e-002
2.420328e+003;-2.351641e-002
2.422256e+003;-2.332192e-002
2.424185e+003;-2.301106e-002
2.426113e+003;-2.317840e-002
2.428042e+003;-2.317547e-002
2.429970e+003;-2.284741e-002
2.431899e+003;-2.298033e-002
2.433828e+003;-2.303067e-002
2.435756e+003;-2.306052e-002
2.437685e+003;-2.326829e-002
2.439613e+003;-2.316366e-002
2.441542e+003;-2.308723e-002
2.443470e+003;-2.291537e-002
2.445399e+003;-2.267388e-002
2.447327e+003;-2.245878e-002
2.449256e+003;-2.230883e-002
2.451185e+003;-2.211742e-002
2.453113e+003;-2.213326e-002
2.455042e+003;-2.224493e-002
2.456970e+003;-2.222894e-002
2.458899e+003;-2.238068e-002
2.460827e+003;-2.254797e-002
2.462756e+003;-2.241306e-002
2.464684e+003;-2.227017e-002
2.466613e+003;-2.225059e-002
2.468542e+003;-2.214132e-002
2.470470e+003;-2.181045e-002
2.472398e+003;-2.153700e-002
2.474327e+003;-2.141272e-002
2.476256e+003;-2.120792e-002
2.478184e+003;-2.118005e-002
2.480113e+003;-2.119574e-002
2.482041e+003;-2.092759e-002
2.483970e+003;-2.098303e-002
2.485898e+003;-2.106915e-002
2.487827e+003;-2.078023e-002
2.489755e+003;-2.073942e-002
2.491684e+003;-2.106826e-002
2.493613e+003;-2.105494e-002
2.495541e+003;-2.108834e-002
2.497470e+003;-2.109030e-002
2.499398e+003;-2.098278e-002
2.501327e+003;-2.056584e-002
2.503255e+003;-2.004464e-002
2.505184e+003;-2.001300e-002
2.507112e+003;-2.026409e-002
2.509041e+003;-2.016175e-002
2.510969e+003;-2.013524e-002
2.512898e+003;-2.023370e-002
2.514827e+003;-2.000673e-002
2.516755e+003;-1.975535e-002
2.518684e+003;-1.979461e-002
2.520612e+003;-1.980056e-002
2.522541e+003;-1.975406e-002
2.524469e+003;-1.970577e-002
2.526398e+003;-1.949465e-002
2.528326e+003;-1.933828e-002
2.530255e+003;-1.909930e-002
2.532184e+003;-1.904225e-002
2.534112e+003;-1.906505e-002
2.536041e+003;-1.895811e-002
2.537969e+003;-1.867918e-002
2.539898e+003;-1.894656e-002
2.541826e+003;-1.907837e-002
2.543755e+003;-1.904523e-002
2.545683e+003;-1.936100e-002
2.547612e+003;-1.945188e-002
2.549541e+003;-1.921308e-002
2.551469e+003;-1.909501e-002
2.553397e+003;-1.907234e-002
2.555326e+003;-1.906667e-002
2.557255e+003;-1.844405e-002
2.559183e+003;-1.791702e-002
2.561112e+003;-1.837358e-002
2.563040e+003;-1.864556e-002
2.564969e+003;-1.843935e-002
2.566897e+003;-1.815240e-002
2.568826e+003;-1.798131e-002
2.570754e+003;-1.818716e-002
2.572683e+003;-1.830545e-002
2.574612e+003;-1.820146e-002
2.576540e+003;-1.836520e-002
2.578469e+003;-1.826027e-002
2.580397e+003;-1.782436e-002
2.582326e+003;-1.763609e-002
2.584254e+003;-1.762209e-002
2.586183e+003;-1.771855e-002
2.588111e+003;-1.787597e-002
2.590040e+003;-1.781352e-002
2.591969e+003;-1.755769e-002
2.593897e+003;-1.757633e-002
2.595826e+003;-1.787108e-002
2.597754e+003;-1.782567e-002
2.599683e+003;-1.724503e-002
2.601611e+003;-1.676503e-002
2.603540e+003;-1.696060e-002
2.605468e+003;-1.707644e-002
2.607397e+003;-1.676583e-002
2.609325e+003;-1.673181e-002
2.611254e+003;-1.679391e-002
2.613183e+003;-1.641556e-002
2.615111e+003;-1.626427e-002
2.617040e+003;-1.618852e-002
2.618968e+003;-1.596396e-002
2.620897e+003;-1.599449e-002
2.622825e+003;-1.602678e-002
2.624754e+003;-1.596715e-002
2.626682e+003;-1.605606e-002
2.628611e+003;-1.599315e-002
2.630540e+003;-1.578958e-002
2.632468e+003;-1.568211e-002
2.634396e+003;-1.559099e-002
2.636325e+003;-1.535610e-002
2.638254e+003;-1.524002e-002
2.640182e+003;-1.512948e-002
2.642111e+003;-1.474169e-002
2.644039e+003;-1.444594e-002
2.645968e+003;-1.431192e-002
2.647896e+003;-1.418279e-002
2.649825e+003;-1.409940e-002
2.651753e+003;-1.428608e-002
2.653682e+003;-1.425565e-002
2.655611e+003;-1.415691e-002
2.657539e+003;-1.411541e-002
2.659468e+003;-1.393781e-002
2.661396e+003;-1.363557e-002
2.663325e+003;-1.354626e-002
2.665253e+003;-1.344756e-002
2.667182e+003;-1.318888e-002
2.669110e+003;-1.286434e-002
2.671039e+003;-1.259499e-002
2.672968e+003;-1.253222e-002
2.674896e+003;-1.257902e-002
2.676825e+003;-1.256911e-002
2.678753e+003;-1.234891e-002
2.680682e+003;-1.227645e-002
2.682610e+003;-1.231742e-002
2.684539e+003;-1.207624e-002
2.686467e+003;-1.162537e-002
2.688396e+003;-1.159037e-002
2.690324e+003;-1.161714e-002
2.692253e+003;-1.133695e-002
2.694182e+003;-1.125424e-002
2.696110e+003;-1.123683e-002
2.698039e+003;-1.086637e-002
2.699967e+003;-1.060990e-002
2.701896e+003;-1.047964e-002
2.703824e+003;-1.053258e-002
2.705753e+003;-1.066283e-002
2.707681e+003;-1.060091e-002
2.709610e+003;-1.040831e-002
2.711539e+003;-1.016660e-002
2.713467e+003;-9.774451e-003
2.715396e+003;-9.366937e-003
2.717324e+003;-9.252876e-003
2.719253e+003;-9.259493e-003
2.721181e+003;-9.002596e-003
2.723110e+003;-8.809840e-003
2.725038e+003;-8.838315e-003
2.726967e+003;-8.813703e-003
2.728896e+003;-8.448541e-003
2.730824e+003;-8.101738e-003
2.732752e+003;-8.375810e-003
2.734681e+003;-8.392255e-003
2.736610e+003;-8.110226e-003
2.738538e+003;-7.990663e-003
2.740467e+003;-7.939978e-003
2.742395e+003;-7.924524e-003
2.744324e+003;-7.607486e-003
2.746252e+003;-7.191154e-003
2.748181e+003;-7.011416e-003
2.750109e+003;-7.026087e-003
2.752038e+003;-6.998635e-003
2.753967e+003;-6.982235e-003
2.755895e+003;-6.893864e-003
2.757824e+003;-6.520033e-003
2.759752e+003;-6.117881e-003
2.761681e+003;-6.102656e-003
2.763609e+003;-6.287473e-003
2.765538e+003;-5.918382e-003
2.767466e+003;-5.610178e-003
2.769395e+003;-5.447421e-003
2.771323e+003;-5.309742e-003
2.773252e+003;-5.287910e-003
2.775181e+003;-4.927304e-003
2.777109e+003;-4.584759e-003
2.779038e+003;-4.632591e-003
2.780966e+003;-4.772484e-003
2.782895e+003;-4.511541e-003
2.784823e+003;-3.922959e-003
2.786752e+003;-3.566443e-003
2.788680e+003;-3.455878e-003
2.790609e+003;-3.411959e-003
2.792538e+003;-3.029293e-003
2.794466e+003;-2.933401e-003
2.796395e+003;-2.692524e-003
2.798323e+003;-2.225303e-003
2.800252e+003;-2.081191e-003
2.802180e+003;-1.933831e-003
2.804109e+003;-1.547449e-003
2.806037e+003;-1.373353e-003
2.807966e+003;-1.142284e-003
2.809895e+003;-6.290248e-004
2.811823e+003;7.813709e-005
2.813751e+003;4.428634e-004
2.815680e+003;4.985557e-004
2.817609e+003;1.020866e-003
2.819537e+003;1.852693e-003
2.821466e+003;2.261044e-003
2.823394e+003;2.262710e-003
2.825323e+003;3.035156e-003
2.827251e+003;4.126071e-003
2.829180e+003;4.412635e-003
2.831108e+003;4.626476e-003
2.833037e+003;5.339738e-003
2.834966e+003;6.479715e-003
2.836894e+003;7.167329e-003
2.838823e+003;7.873342e-003
2.840751e+003;8.719156e-003
2.842680e+003;9.613093e-003
2.844608e+003;1.064037e-002
2.846537e+003;1.148295e-002
2.848465e+003;1.240009e-002
2.850394e+003;1.348334e-002
2.852323e+003;1.432862e-002
2.854251e+003;1.502106e-002
2.856180e+003;1.584264e-002
2.858108e+003;1.666946e-002
2.860037e+003;1.733707e-002
2.861965e+003;1.831221e-002
2.863894e+003;1.960440e-002
2.865822e+003;2.061200e-002
2.867751e+003;2.135057e-002
2.869679e+003;2.187681e-002
2.871608e+003;2.231623e-002
2.873536e+003;2.302587e-002
2.875465e+003;2.387157e-002
2.877394e+003;2.440115e-002
2.879322e+003;2.483973e-002
2.881251e+003;2.531075e-002
2.883179e+003;2.574093e-002
2.885108e+003;2.591682e-002
2.887036e+003;2.629044e-002
2.888965e+003;2.686767e-002
2.890893e+003;2.704338e-002
2.892822e+003;2.681804e-002
2.894750e+003;2.667110e-002
2.896679e+003;2.655287e-002
2.898608e+003;2.637993e-002
2.900536e+003;2.680578e-002
2.902465e+003;2.702085e-002
2.904393e+003;2.670358e-002
2.906322e+003;2.686051e-002
2.908250e+003;2.718428e-002
2.910179e+003;2.695432e-002
2.912107e+003;2.654153e-002
2.914036e+003;2.647866e-002
2.915965e+003;2.623077e-002
2.917893e+003;2.600247e-002
2.919822e+003;2.576311e-002
2.921750e+003;2.542330e-002
2.923679e+003;2.524739e-002
2.925607e+003;2.520009e-002
2.927536e+003;2.480563e-002
2.929464e+003;2.425562e-002
2.931393e+003;2.416113e-002
2.933322e+003;2.433327e-002
2.935250e+003;2.432755e-002
2.937178e+003;2.394467e-002
2.939107e+003;2.361988e-002
2.941036e+003;2.315600e-002
2.942964e+003;2.218921e-002
2.944893e+003;2.149333e-002
2.946821e+003;2.107821e-002
2.948750e+003;2.048277e-002
2.950678e+003;1.958534e-002
2.952607e+003;1.860650e-002
2.954535e+003;1.795137e-002
2.956464e+003;1.720126e-002
2.958393e+003;1.683259e-002
2.960321e+003;1.618130e-002
2.962250e+003;1.493844e-002
2.964178e+003;1.367475e-002
2.966107e+003;1.295873e-002
2.968035e+003;1.242208e-002
2.969964e+003;1.187761e-002
2.971892e+003;1.115942e-002
2.973821e+003;1.050453e-002
2.975750e+003;9.819005e-003
2.977678e+003;9.449268e-003
2.979607e+003;8.951532e-003
2.981535e+003;8.286215e-003
2.983464e+003;7.850062e-003
2.985392e+003;7.186463e-003
2.987321e+003;6.611741e-003
2.989249e+003;6.009221e-003
2.991178e+003;5.285367e-003
2.993106e+003;4.748594e-003
2.995035e+003;4.390711e-003
2.996964e+003;4.249320e-003
2.998892e+003;4.016302e-003
3.000821e+003;4.044461e-003
3.002749e+003;4.084729e-003
3.004678e+003;3.490880e-003
3.006606e+003;2.825699e-003
3.008535e+003;2.933967e-003
3.010463e+003;3.357228e-003
3.012392e+003;3.281904e-003
3.014321e+003;2.583343e-003
3.016249e+003;2.156207e-003
3.018177e+003;2.413484e-003
3.020106e+003;2.629743e-003
3.022035e+003;2.606376e-003
3.023963e+003;2.793217e-003
3.025892e+003;2.966927e-003
3.027820e+003;2.984008e-003
3.029749e+003;3.033654e-003
3.031677e+003;3.267047e-003
3.033606e+003;3.499230e-003
3.035534e+003;3.613547e-003
3.037463e+003;3.829402e-003
3.039392e+003;3.854373e-003
3.041320e+003;3.520808e-003
3.043249e+003;3.793068e-003
3.045177e+003;4.465424e-003
3.047106e+003;4.815830e-003
3.049034e+003;4.668306e-003
3.050963e+003;4.696708e-003
3.052891e+003;5.176745e-003
3.054820e+003;5.570918e-003
3.056749e+003;5.943849e-003
3.058677e+003;6.212657e-003
3.060606e+003;6.591926e-003
3.062534e+003;6.769720e-003
3.064463e+003;6.928936e-003
3.066391e+003;7.479402e-003
3.068320e+003;7.809781e-003
3.070248e+003;7.906881e-003
3.072177e+003;8.310228e-003
3.074105e+003;8.783831e-003
3.076034e+003;9.158822e-003
3.077963e+003;9.598120e-003
3.079891e+003;9.807990e-003
3.081820e+003;1.042904e-002
3.083748e+003;1.094917e-002
3.085677e+003;1.079533e-002
3.087605e+003;1.105969e-002
3.089534e+003;1.173199e-002
3.091462e+003;1.239828e-002
3.093391e+003;1.256452e-002
3.095320e+003;1.269438e-002
3.097248e+003;1.319247e-002
3.099177e+003;1.368422e-002
3.101105e+003;1.408852e-002
3.103034e+003;1.434437e-002
3.104962e+003;1.446463e-002
3.106891e+003;1.506686e-002
3.108819e+003;1.597046e-002
3.110748e+003;1.648581e-002
3.112677e+003;1.655744e-002
3.114605e+003;1.711026e-002
3.116533e+003;1.802086e-002
3.118462e+003;1.832141e-002
3.120391e+003;1.837242e-002
3.122319e+003;1.861265e-002
3.124248e+003;1.904895e-002
3.126176e+003;1.958783e-002
3.128105e+003;1.968102e-002
3.130033e+003;1.991854e-002
3.131962e+003;2.067646e-002
3.133890e+003;2.114997e-002
3.135819e+003;2.136564e-002
3.137748e+003;2.165608e-002
3.139676e+003;2.197627e-002
3.141605e+003;2.256308e-002
3.143533e+003;2.324425e-002
3.145462e+003;2.367257e-002
3.147390e+003;2.416838e-002
3.149319e+003;2.449183e-002
3.151247e+003;2.470012e-002
3.153176e+003;2.529136e-002
3.155104e+003;2.579870e-002
3.157033e+003;2.650015e-002
3.158962e+003;2.723935e-002
3.160890e+003;2.748510e-002
3.162819e+003;2.795069e-002
3.164747e+003;2.842457e-002
3.166676e+003;2.880261e-002
3.168604e+003;2.932300e-002
3.170533e+003;2.975611e-002
3.172461e+003;3.031719e-002
3.174390e+003;3.105794e-002
3.176319e+003;3.155033e-002
3.178247e+003;3.184349e-002
3.180176e+003;3.170221e-002
3.182104e+003;3.160018e-002
3.184033e+003;3.215765e-002
3.185961e+003;3.319048e-002
3.187890e+003;3.402461e-002
3.189818e+003;3.429399e-002
3.191747e+003;3.485289e-002
3.193676e+003;3.536613e-002
3.195604e+003;3.551677e-002
3.197532e+003;3.569707e-002
3.199461e+003;3.590478e-002
3.201390e+003;3.645909e-002
3.203318e+003;3.701912e-002
3.205247e+003;3.730513e-002
3.207175e+003;3.783539e-002
3.209104e+003;3.869918e-002
3.211032e+003;3.926472e-002
3.212961e+003;3.950682e-002
3.214889e+003;3.977551e-002
3.216818e+003;4.010281e-002
3.218747e+003;4.022278e-002
3.220675e+003;4.063685e-002
3.222604e+003;4.122635e-002
3.224532e+003;4.177732e-002
3.226461e+003;4.222274e-002
3.228389e+003;4.281904e-002
3.230318e+003;4.331606e-002
3.232246e+003;4.364995e-002
3.234175e+003;4.400643e-002
3.236104e+003;4.427136e-002
3.238032e+003;4.500482e-002
3.239961e+003;4.546674e-002
3.241889e+003;4.529695e-002
3.243818e+003;4.555384e-002
3.245746e+003;4.588946e-002
3.247675e+003;4.628715e-002
3.249603e+003;4.697913e-002
3.251532e+003;4.750965e-002
3.253460e+003;4.770128e-002
3.255389e+003;4.758392e-002
3.257318e+003;4.789580e-002
3.259246e+003;4.869980e-002
3.261175e+003;4.879692e-002
3.263103e+003;4.917858e-002
3.265032e+003;4.940195e-002
3.266960e+003;4.959385e-002
3.268889e+003;4.995544e-002
3.270817e+003;5.014365e-002
3.272746e+003;5.065005e-002
3.274675e+003;5.109402e-002
3.276603e+003;5.135977e-002
3.278531e+003;5.177269e-002
3.280460e+003;5.130748e-002
3.282389e+003;5.103711e-002
3.284317e+003;5.127329e-002
3.286246e+003;5.162150e-002
3.288174e+003;5.222147e-002
3.290103e+003;5.266896e-002
3.292031e+003;5.252777e-002
3.293960e+003;5.290879e-002
3.295888e+003;5.385976e-002
3.297817e+003;5.395576e-002
3.299746e+003;5.378952e-002
3.301674e+003;5.397512e-002
3.303603e+003;5.396859e-002
3.305531e+003;5.373274e-002
3.307460e+003;5.322910e-002
3.309388e+003;5.313203e-002
3.311317e+003;5.371729e-002
3.313245e+003;5.406165e-002
3.315174e+003;5.422154e-002
3.317103e+003;5.439779e-002
3.319031e+003;5.459135e-002
3.320960e+003;5.524545e-002
3.322888e+003;5.554606e-002
3.324817e+003;5.530675e-002
3.326745e+003;5.478997e-002
3.328674e+003;5.484000e-002
3.330602e+003;5.503854e-002
3.332531e+003;5.530453e-002
3.334459e+003;5.598390e-002
3.336388e+003;5.644162e-002
3.338317e+003;5.629011e-002
3.340245e+003;5.545517e-002
3.342174e+003;5.490869e-002
3.344102e+003;5.573004e-002
3.346031e+003;5.624451e-002
3.347959e+003;5.545509e-002
3.349888e+003;5.529080e-002
3.351816e+003;5.580339e-002
3.353745e+003;5.599822e-002
3.355674e+003;5.575596e-002
3.357602e+003;5.557189e-002
3.359531e+003;5.569866e-002
3.361459e+003;5.547478e-002
3.363388e+003;5.539505e-002
3.365316e+003;5.544463e-002
3.367245e+003;5.539144e-002
3.369173e+003;5.577046e-002
3.371102e+003;5.574974e-002
3.373031e+003;5.550008e-002
3.374959e+003;5.529558e-002
3.376887e+003;5.530487e-002
3.378816e+003;5.567113e-002
3.380745e+003;5.570962e-002
3.382673e+003;5.515116e-002
3.384602e+003;5.494558e-002
3.386530e+003;5.482951e-002
3.388459e+003;5.406015e-002
3.390387e+003;5.367804e-002
3.392316e+003;5.401016e-002
3.394244e+003;5.372877e-002
3.396173e+003;5.370008e-002
3.398102e+003;5.383854e-002
3.400030e+003;5.367219e-002
3.401959e+003;5.335575e-002
3.403887e+003;5.284109e-002
3.405816e+003;5.225854e-002
3.407744e+003;5.198877e-002
3.409673e+003;5.177486e-002
3.411601e+003;5.164393e-002
3.413530e+003;5.188391e-002
3.415458e+003;5.168222e-002
3.417387e+003;5.102660e-002
3.419316e+003;5.054406e-002
3.421244e+003;4.997243e-002
3.423173e+003;4.956604e-002
3.425101e+003;4.962996e-002
3.427030e+003;4.981398e-002
3.428958e+003;4.952912e-002
3.430887e+003;4.918727e-002
3.432815e+003;4.881290e-002
3.434744e+003;4.825386e-002
3.436673e+003;4.795071e-002
3.438601e+003;4.757667e-002
3.440530e+003;4.699563e-002
3.442458e+003;4.682867e-002
3.444387e+003;4.625331e-002
3.446315e+003;4.566211e-002
3.448244e+003;4.573952e-002
3.450172e+003;4.563292e-002
3.452101e+003;4.526393e-002
3.454030e+003;4.462127e-002
3.455958e+003;4.424087e-002
3.457886e+003;4.373334e-002
3.459815e+003;4.287163e-002
3.461744e+003;4.200388e-002
3.463672e+003;4.144183e-002
3.465601e+003;4.104243e-002
3.467529e+003;4.040246e-002
3.469458e+003;3.989373e-002
3.471386e+003;3.984938e-002
3.473315e+003;3.950881e-002
3.475243e+003;3.924989e-002
3.477172e+003;3.893965e-002
3.479101e+003;3.828634e-002
3.481029e+003;3.793553e-002
3.482958e+003;3.737890e-002
3.484886e+003;3.620835e-002
3.486815e+003;3.541412e-002
3.488743e+003;3.512120e-002
3.490672e+003;3.414866e-002
3.492600e+003;3.276468e-002
3.494529e+003;3.223469e-002
3.496458e+003;3.209201e-002
3.498386e+003;3.204267e-002
3.500315e+003;3.183529e-002
3.502243e+003;3.081148e-002
3.504172e+003;2.974217e-002
3.506100e+003;2.926313e-002
3.508029e+003;2.908971e-002
3.509957e+003;2.865998e-002
3.511886e+003;2.787748e-002
3.513814e+003;2.682791e-002
3.515743e+003;2.618044e-002
3.517672e+003;2.599283e-002
3.519600e+003;2.526625e-002
3.521529e+003;2.414926e-002
3.523457e+003;2.343683e-002
3.525386e+003;2.248910e-002
3.527314e+003;2.133133e-002
3.529243e+003;2.097927e-002
3.531171e+003;2.078594e-002
3.533100e+003;1.998747e-002
3.535029e+003;1.910442e-002
3.536957e+003;1.818474e-002
3.538885e+003;1.734803e-002
3.540814e+003;1.672445e-002
3.542743e+003;1.611933e-002
3.544671e+003;1.492987e-002
3.546600e+003;1.388913e-002
3.548528e+003;1.351423e-002
3.550457e+003;1.309288e-002
3.552385e+003;1.225351e-002
3.554314e+003;1.150877e-002
3.556242e+003;1.112597e-002
3.558171e+003;1.019961e-002
3.560100e+003;9.065297e-003
3.562028e+003;8.131667e-003
3.563957e+003;7.354020e-003
3.565885e+003;6.418677e-003
3.567814e+003;5.535075e-003
3.569742e+003;4.951306e-003
3.571671e+003;4.258087e-003
3.573599e+003;3.551942e-003
3.575528e+003;2.949046e-003
3.577457e+003;2.174089e-003
3.579385e+003;1.023822e-003
3.581314e+003;2.275579e-004
3.583242e+003;-3.883230e-004
3.585171e+003;-1.270883e-003
3.587099e+003;-1.928553e-003
3.589028e+003;-2.897987e-003
3.590956e+003;-4.251491e-003
3.592885e+003;-4.664979e-003
3.594813e+003;-4.785003e-003
3.596742e+003;-5.432337e-003
3.598671e+003;-6.417008e-003
3.600599e+003;-7.665892e-003
3.602528e+003;-8.497217e-003
3.604456e+003;-8.607221e-003
3.606385e+003;-9.221445e-003
3.608313e+003;-1.009781e-002
3.610242e+003;-1.052278e-002
3.612170e+003;-1.121614e-002
3.614099e+003;-1.185693e-002
3.616028e+003;-1.221431e-002
3.617956e+003;-1.272645e-002
3.619885e+003;-1.348289e-002
3.621813e+003;-1.447193e-002
3.623742e+003;-1.539534e-002
3.625670e+003;-1.576366e-002
3.627599e+003;-1.618144e-002
3.629527e+003;-1.690751e-002
3.631456e+003;-1.702821e-002
3.633385e+003;-1.701948e-002
3.635313e+003;-1.768177e-002
3.637241e+003;-1.824563e-002
3.639170e+003;-1.873005e-002
3.641099e+003;-1.927156e-002
3.643027e+003;-1.970963e-002
3.644956e+003;-2.026302e-002
3.646884e+003;-2.105529e-002
3.648813e+003;-2.192627e-002
3.650741e+003;-2.251711e-002
3.652670e+003;-2.265683e-002
3.654598e+003;-2.253243e-002
3.656527e+003;-2.270139e-002
3.658456e+003;-2.337819e-002
3.660384e+003;-2.377965e-002
3.662313e+003;-2.372952e-002
3.664241e+003;-2.392715e-002
3.666170e+003;-2.449354e-002
3.668098e+003;-2.464352e-002
3.670027e+003;-2.503552e-002
3.671955e+003;-2.567053e-002
3.673884e+003;-2.599757e-002
3.675813e+003;-2.577624e-002
3.677741e+003;-2.523356e-002
3.679669e+003;-2.544019e-002
3.681598e+003;-2.569723e-002
3.683527e+003;-2.591392e-002
3.685455e+003;-2.641195e-002
3.687384e+003;-2.661170e-002
3.689312e+003;-2.640562e-002
3.691241e+003;-2.638803e-002
3.693169e+003;-2.713725e-002
3.695098e+003;-2.769434e-002
3.697026e+003;-2.699753e-002
3.698955e+003;-2.688019e-002
3.700884e+003;-2.694621e-002
3.702812e+003;-2.682789e-002
3.704741e+003;-2.698576e-002
3.706669e+003;-2.667695e-002
3.708598e+003;-2.679618e-002
3.710526e+003;-2.709267e-002
3.712455e+003;-2.713806e-002
3.714383e+003;-2.724282e-002
3.716312e+003;-2.729444e-002
3.718240e+003;-2.733859e-002
3.720169e+003;-2.761964e-002
3.722098e+003;-2.756783e-002
3.724026e+003;-2.739011e-002
3.725955e+003;-2.769220e-002
3.727883e+003;-2.767128e-002
3.729812e+003;-2.752800e-002
3.731740e+003;-2.774685e-002
3.733669e+003;-2.777013e-002
3.735597e+003;-2.809931e-002
3.737526e+003;-2.835938e-002
3.739455e+003;-2.809636e-002
3.741383e+003;-2.784155e-002
3.743312e+003;-2.791597e-002
3.745240e+003;-2.818559e-002
3.747169e+003;-2.840041e-002
3.749097e+003;-2.842642e-002
3.751026e+003;-2.803968e-002
3.752954e+003;-2.807913e-002
3.754883e+003;-2.803747e-002
3.756812e+003;-2.758472e-002
3.758740e+003;-2.764970e-002
3.760668e+003;-2.770634e-002
3.762597e+003;-2.741229e-002
3.764526e+003;-2.759414e-002
3.766454e+003;-2.783229e-002
3.768383e+003;-2.786958e-002
3.770311e+003;-2.747761e-002
3.772240e+003;-2.745565e-002
3.774168e+003;-2.761827e-002
3.776097e+003;-2.760745e-002
3.778025e+003;-2.774641e-002
3.779954e+003;-2.784009e-002
3.781883e+003;-2.799762e-002
3.783811e+003;-2.831695e-002
3.785740e+003;-2.811956e-002
3.787668e+003;-2.770435e-002
3.789597e+003;-2.745510e-002
3.791525e+003;-2.728365e-002
3.793454e+003;-2.753251e-002
3.795382e+003;-2.782402e-002
3.797311e+003;-2.767834e-002
3.799240e+003;-2.767846e-002
3.801168e+003;-2.800026e-002
3.803097e+003;-2.822402e-002
3.805025e+003;-2.837744e-002
3.806954e+003;-2.842468e-002
3.808882e+003;-2.835780e-002
3.810811e+003;-2.862509e-002
3.812739e+003;-2.847567e-002
3.814668e+003;-2.828699e-002
3.816596e+003;-2.808639e-002
3.818525e+003;-2.817409e-002
3.820454e+003;-2.848032e-002
3.822382e+003;-2.806447e-002
3.824311e+003;-2.757231e-002
3.826239e+003;-2.771340e-002
3.828168e+003;-2.793778e-002
3.830096e+003;-2.772285e-002
3.832025e+003;-2.723218e-002
3.833953e+003;-2.727288e-002
3.835882e+003;-2.778259e-002
3.837811e+003;-2.818077e-002
3.839739e+003;-2.824914e-002
3.841667e+003;-2.793356e-002
3.843596e+003;-2.731084e-002
3.845525e+003;-2.688888e-002
3.847453e+003;-2.705410e-002
3.849382e+003;-2.771949e-002
3.851310e+003;-2.802415e-002
3.853239e+003;-2.786899e-002
3.855167e+003;-2.747541e-002
3.857096e+003;-2.708691e-002
3.859024e+003;-2.693369e-002
3.860953e+003;-2.766326e-002
3.862882e+003;-2.823241e-002
3.864810e+003;-2.801073e-002
3.866739e+003;-2.776746e-002
3.868667e+003;-2.793884e-002
3.870596e+003;-2.801768e-002
3.872524e+003;-2.759380e-002
3.874453e+003;-2.722318e-002
3.876381e+003;-2.717765e-002
3.878310e+003;-2.743164e-002
3.880239e+003;-2.782809e-002
3.882167e+003;-2.748365e-002
3.884096e+003;-2.703019e-002
3.886024e+003;-2.693117e-002
3.887953e+003;-2.711281e-002
3.889881e+003;-2.739478e-002
3.891810e+003;-2.716638e-002
3.893738e+003;-2.699146e-002
3.895667e+003;-2.694914e-002
3.897595e+003;-2.662061e-002
3.899524e+003;-2.617757e-002
3.901453e+003;-2.623756e-002
3.903381e+003;-2.679793e-002
3.905310e+003;-2.704155e-002
3.907238e+003;-2.679076e-002
3.909167e+003;-2.601092e-002
3.911095e+003;-2.611639e-002
3.913024e+003;-2.700597e-002
3.914952e+003;-2.677282e-002
3.916881e+003;-2.673655e-002
3.918810e+003;-2.686689e-002
3.920738e+003;-2.675814e-002
3.922667e+003;-2.682182e-002
3.924595e+003;-2.728103e-002
3.926524e+003;-2.710494e-002
3.928452e+003;-2.630281e-002
3.930381e+003;-2.581280e-002
3.932309e+003;-2.559322e-002
3.934238e+003;-2.594891e-002
3.936167e+003;-2.618805e-002
3.938095e+003;-2.620150e-002
3.940023e+003;-2.632251e-002
3.941952e+003;-2.600596e-002
3.943881e+003;-2.601152e-002
3.945809e+003;-2.586506e-002
3.947738e+003;-2.556648e-002
3.949666e+003;-2.619386e-002
3.951595e+003;-2.617336e-002
3.953523e+003;-2.551209e-002
3.955452e+003;-2.557554e-002
3.957380e+003;-2.529386e-002
3.959309e+003;-2.469696e-002
3.961238e+003;-2.479756e-002
3.963166e+003;-2.488120e-002
3.965095e+003;-2.496004e-002
3.967023e+003;-2.525103e-002
3.968952e+003;-2.532387e-002
3.970880e+003;-2.522984e-002
3.972809e+003;-2.553777e-002
3.974737e+003;-2.577471e-002
3.976666e+003;-2.560797e-002
3.978594e+003;-2.568087e-002
3.980523e+003;-2.586897e-002
3.982452e+003;-2.575235e-002
3.984380e+003;-2.555461e-002
3.986309e+003;-2.563824e-002
3.988237e+003;-2.544201e-002
3.990166e+003;-2.538047e-002
3.992094e+003;-2.549525e-002
3.994023e+003;-2.531468e-002
3.995951e+003;-2.513457e-002
3.997880e+003;-2.522221e-002
3.999809e+003;-2.536503e-002
4.001737e+003;0.000000e+000
