3.992094e+002;0.000000e+000
4.011380e+002;0.000000e+000
4.030665e+002;0.000000e+000
4.049951e+002;0.000000e+000
4.069236e+002;0.000000e+000
4.088522e+002;0.000000e+000
4.107807e+002;0.000000e+000
4.127093e+002;0.000000e+000
4.146378e+002;0.000000e+000
4.165664e+002;0.000000e+000
4.184949e+002;0.000000e+000
4.204235e+002;0.000000e+000
4.223520e+002;0.000000e+000
4.242806e+002;0.000000e+000
4.262091e+002;0.000000e+000
4.281377e+002;0.000000e+000
4.300662e+002;0.000000e+000
4.319948e+002;0.000000e+000
4.339233e+002;0.000000e+000
4.358519e+002;0.000000e+000
4.377804e+002;0.000000e+000
4.397090e+002;0.000000e+000
4.416375e+002;0.000000e+000
4.435660e+002;0.000000e+000
4.454946e+002;0.000000e+000
4.474232e+002;0.000000e+000
4.493517e+002;0.000000e+000
4.512802e+002;0.000000e+000
4.532088e+002;0.000000e+000
4.551373e+002;0.000000e+000
4.570659e+002;0.000000e+000
4.589944e+002;0.000000e+000
4.609230e+002;0.000000e+000
4.628515e+002;0.000000e+000
4.647801e+002;0.000000e+000
4.667086e+002;0.000000e+000
4.686372e+002;0.000000e+000
4.705657e+002;0.000000e+000
4.724943e+002;0.000000e+000
4.744228e+002;0.000000e+000
4.763513e+002;0.000000e+000
4.782799e+002;0.000000e+000
4.802085e+002;0.000000e+000
4.821370e+002;0.000000e+000
4.840656e+002;0.000000e+000
4.859941e+002;0.000000e+000
4.879226e+002;0.000000e+000
4.898512e+002;0.000000e+000
4.917798e+002;0.000000e+000
4.937083e+002;0.000000e+000
4.956368e+002;0.000000e+000
4.975654e+002;0.000000e+000
4.994939e+002;0.000000e+000
5.014225e+002;0.000000e+000
5.033510e+002;0.000000e+000
5.052796e+002;0.000000e+000
5.072081e+002;0.000000e+000
5.091367e+002;0.000000e+000
5.110652e+002;0.000000e+000
5.129938e+002;0.000000e+000
5.149223e+002;0.000000e+000
5.168509e+002;0.000000e+000
5.187794e+002;0.000000e+000
5.207079e+002;0.000000e+000
5.226365e+002;0.000000e+000
5.245651e+002;0.000000e+000
5.264936e+002;0.000000e+000
5.284222e+002;0.000000e+000
5.303507e+002;0.000000e+000
5.322792e+002;0.000000e+000
5.342078e+002;0.000000e+000
5.361364e+002;0.000000e+000
5.380649e+002;0.000000e+000
5.399935e+002;0.000000e+000
5.419220e+002;0.000000e+000
5.438505e+002;0.000000e+000
5.457791e+002;0.000000e+000
5.477076e+002;0.000000e+000
5.496362e+002;0.000000e+000
5.515648e+002;0.000000e+000
5.534933e+002;0.000000e+000
5.554218e+002;0.000000e+000
5.573504e+002;0.000000e+000
5.592789e+002;0.000000e+000
5.612075e+002;0.000000e+000
5.631360e+002;0.000000e+000
5.650646e+002;0.000000e+000
5.669931e+002;0.000000e+000
5.689217e+002;0.000000e+000
5.708502e+002;0.000000e+000
5.727787e+002;0.000000e+000
5.747073e+002;0.000000e+000
5.766359e+002;0.000000e+000
5.785644e+002;0.000000e+000
5.804930e+002;0.000000e+000
5.824215e+002;0.000000e+000
5.843500e+002;0.000000e+000
5.862786e+002;0.000000e+000
5.882072e+002;0.000000e+000
5.901357e+002;0.000000e+000
5.920643e+002;0.000000e+000
5.939928e+002;0.000000e+000
5.959213e+002;0.000000e+000
5.978499e+002;0.000000e+000
5.997784e+002;2.382702e-001
6.017070e+002;2.341476e-001
6.036355e+002;2.360437e-001
6.055641e+002;2.405009e-001
6.074926e+002;2.407984e-001
6.094211e+002;2.355134e-001
6.113497e+002;2.368205e-001
6.132783e+002;2.338917e-001
6.152068e+002;2.316400e-001
6.171354e+002;2.266081e-001
6.190639e+002;2.230685e-001
6.209924e+002;2.247790e-001
6.229210e+002;2.211901e-001
6.248495e+002;2.160861e-001
6.267781e+002;2.132730e-001
6.287067e+002;2.086202e-001
6.306352e+002;2.069153e-001
6.325637e+002;2.088439e-001
6.344923e+002;2.058229e-001
6.364208e+002;2.056644e-001
6.383494e+002;2.057250e-001
6.402780e+002;2.016905e-001
6.422065e+002;1.983307e-001
6.441350e+002;1.957038e-001
6.460636e+002;1.986429e-001
6.479921e+002;2.000469e-001
6.499207e+002;2.013929e-001
6.518492e+002;2.047775e-001
6.537778e+002;2.060310e-001
6.557063e+002;2.079997e-001
6.576349e+002;2.108615e-001
6.595634e+002;2.127181e-001
6.614919e+002;2.121288e-001
6.634205e+002;2.120790e-001
6.653491e+002;2.121041e-001
6.672776e+002;2.120131e-001
6.692062e+002;2.101284e-001
6.711347e+002;2.055726e-001
6.730632e+002;2.002186e-001
6.749918e+002;1.955315e-001
6.769203e+002;1.918443e-001
6.788489e+002;1.884033e-001
6.807775e+002;1.864877e-001
6.827060e+002;1.831535e-001
6.846345e+002;1.807814e-001
6.865631e+002;1.797937e-001
6.884916e+002;1.777371e-001
6.904202e+002;1.765738e-001
6.923488e+002;1.765803e-001
6.942773e+002;1.772456e-001
6.962058e+002;1.763119e-001
6.981344e+002;1.753367e-001
7.000629e+002;1.751378e-001
7.019915e+002;1.743902e-001
7.039200e+002;1.729054e-001
7.058486e+002;1.719643e-001
7.077771e+002;1.723840e-001
7.097057e+002;1.710781e-001
7.116342e+002;1.688136e-001
7.135627e+002;1.677176e-001
7.154913e+002;1.681931e-001
7.174199e+002;1.669845e-001
7.193484e+002;1.646299e-001
7.212770e+002;1.629719e-001
7.232055e+002;1.611514e-001
7.251340e+002;1.600282e-001
7.270626e+002;1.598545e-001
7.289911e+002;1.583870e-001
7.309197e+002;1.547213e-001
7.328483e+002;1.525691e-001
7.347768e+002;1.523064e-001
7.367053e+002;1.517755e-001
7.386339e+002;1.500343e-001
7.405624e+002;1.491455e-001
7.424910e+002;1.495050e-001
7.444196e+002;1.484542e-001
7.463481e+002;1.467804e-001
7.482766e+002;1.447480e-001
7.502052e+002;1.437641e-001
7.521337e+002;1.439892e-001
7.540623e+002;1.435887e-001
7.559908e+002;1.426650e-001
7.579194e+002;1.419401e-001
7.598479e+002;1.401386e-001
7.617765e+002;1.380953e-001
7.637050e+002;1.380664e-001
7.656335e+002;1.383141e-001
7.675621e+002;1.372248e-001
7.694907e+002;1.358133e-001
7.714192e+002;1.352869e-001
7.733478e+002;1.348402e-001
7.752763e+002;1.341796e-001
7.772048e+002;1.333292e-001
7.791334e+002;1.322603e-001
7.810620e+002;1.323150e-001
7.829905e+002;1.318950e-001
7.849191e+002;1.310898e-001
7.868476e+002;1.312082e-001
7.887761e+002;1.313187e-001
7.907047e+002;1.314225e-001
7.926332e+002;1.317750e-001
7.945618e+002;1.304996e-001
7.964903e+002;1.293564e-001
7.984189e+002;1.294485e-001
8.003474e+002;1.298718e-001
8.022759e+002;1.302180e-001
8.042045e+002;1.308051e-001
8.061331e+002;1.307896e-001
8.080616e+002;1.306902e-001
8.099902e+002;1.308508e-001
8.119187e+002;1.309500e-001
8.138472e+002;1.315051e-001
8.157758e+002;1.326482e-001
8.177043e+002;1.330801e-001
8.196329e+002;1.327814e-001
8.215615e+002;1.330113e-001
8.234900e+002;1.341866e-001
8.254185e+002;1.350719e-001
8.273471e+002;1.352971e-001
8.292756e+002;1.350604e-001
8.312042e+002;1.356674e-001
8.331328e+002;1.365630e-001
8.350613e+002;1.369533e-001
8.369898e+002;1.368135e-001
8.389184e+002;1.366553e-001
8.408469e+002;1.363959e-001
8.427755e+002;1.367116e-001
8.447040e+002;1.371122e-001
8.466326e+002;1.373001e-001
8.485611e+002;1.375934e-001
8.504897e+002;1.372702e-001
8.524182e+002;1.364575e-001
8.543467e+002;1.369960e-001
8.562753e+002;1.376135e-001
8.582039e+002;1.375694e-001
8.601324e+002;1.388848e-001
8.620610e+002;1.409798e-001
8.639895e+002;1.421291e-001
8.659180e+002;1.434036e-001
8.678466e+002;1.456392e-001
8.697751e+002;1.483366e-001
8.717037e+002;1.509169e-001
8.736323e+002;1.532512e-001
8.755608e+002;1.547064e-001
8.774893e+002;1.560974e-001
8.794179e+002;1.578567e-001
8.813464e+002;1.600425e-001
8.832750e+002;1.629624e-001
8.852036e+002;1.657595e-001
8.871321e+002;1.688702e-001
8.890606e+002;1.719646e-001
8.909892e+002;1.746219e-001
8.929177e+002;1.763823e-001
8.948463e+002;1.770558e-001
8.967748e+002;1.772469e-001
8.987034e+002;1.770017e-001
9.006319e+002;1.764874e-001
9.025605e+002;1.746988e-001
9.044890e+002;1.729524e-001
9.064175e+002;1.712873e-001
9.083461e+002;1.696726e-001
9.102747e+002;1.684429e-001
9.122032e+002;1.674006e-001
9.141318e+002;1.671673e-001
9.160603e+002;1.671012e-001
9.179888e+002;1.668380e-001
9.199174e+002;1.672655e-001
9.218459e+002;1.680662e-001
9.237745e+002;1.687944e-001
9.257031e+002;1.699411e-001
9.276316e+002;1.709651e-001
9.295601e+002;1.725494e-001
9.314887e+002;1.741389e-001
9.334172e+002;1.748743e-001
9.353458e+002;1.756647e-001
9.372744e+002;1.770344e-001
9.392029e+002;1.789152e-001
9.411314e+002;1.810367e-001
9.430600e+002;1.838608e-001
9.449885e+002;1.870557e-001
9.469171e+002;1.903823e-001
9.488456e+002;1.942767e-001
9.507742e+002;1.982773e-001
9.527027e+002;2.028263e-001
9.546313e+002;2.074567e-001
9.565598e+002;2.124611e-001
9.584883e+002;2.182528e-001
9.604169e+002;2.237291e-001
9.623455e+002;2.283351e-001
9.642740e+002;2.333030e-001
9.662026e+002;2.394727e-001
9.681311e+002;2.465489e-001
9.700596e+002;2.539006e-001
9.719882e+002;2.619295e-001
9.739167e+002;2.711902e-001
9.758453e+002;2.814229e-001
9.777739e+002;2.922068e-001
9.797024e+002;3.033367e-001
9.816309e+002;3.137987e-001
9.835595e+002;3.231595e-001
9.854880e+002;3.308775e-001
9.874166e+002;3.362371e-001
9.893452e+002;3.400656e-001
9.912737e+002;3.432345e-001
9.932022e+002;3.459185e-001
9.951307e+002;3.488584e-001
9.970593e+002;3.523808e-001
9.989879e+002;3.558732e-001
1.000916e+003;3.596622e-001
1.002845e+003;3.637003e-001
1.004773e+003;3.679729e-001
1.006702e+003;3.726038e-001
1.008631e+003;3.768862e-001
1.010559e+003;3.811726e-001
1.012488e+003;3.859175e-001
1.014416e+003;3.910794e-001
1.016345e+003;3.970177e-001
1.018273e+003;4.026286e-001
1.020202e+003;4.064912e-001
1.022130e+003;4.090131e-001
1.024059e+003;4.114753e-001
1.025988e+003;4.141867e-001
1.027916e+003;4.162194e-001
1.029845e+003;4.167961e-001
1.031773e+003;4.160277e-001
1.033702e+003;4.143532e-001
1.035630e+003;4.111510e-001
1.037559e+003;4.077911e-001
1.039487e+003;4.041649e-001
1.041416e+003;4.000591e-001
1.043344e+003;3.971624e-001
1.045273e+003;3.946519e-001
1.047202e+003;3.908710e-001
1.049130e+003;3.879523e-001
1.051059e+003;3.855133e-001
1.052987e+003;3.811757e-001
1.054916e+003;3.752729e-001
1.056844e+003;3.693898e-001
1.058773e+003;3.615445e-001
1.060701e+003;3.524040e-001
1.062630e+003;3.426629e-001
1.064558e+003;3.327920e-001
1.066487e+003;3.240800e-001
1.068416e+003;3.153990e-001
1.070344e+003;3.071254e-001
1.072273e+003;3.001393e-001
1.074201e+003;2.943758e-001
1.076130e+003;2.892278e-001
1.078058e+003;2.850776e-001
1.079987e+003;2.822881e-001
1.081915e+003;2.792632e-001
1.083844e+003;2.758726e-001
1.085773e+003;2.739086e-001
1.087701e+003;2.726344e-001
1.089630e+003;2.719026e-001
1.091558e+003;2.719617e-001
1.093487e+003;2.711499e-001
1.095415e+003;2.702654e-001
1.097344e+003;2.702094e-001
1.099272e+003;2.699838e-001
1.101201e+003;2.687919e-001
1.103129e+003;2.663206e-001
1.105058e+003;2.623587e-001
1.106987e+003;2.578637e-001
1.108915e+003;2.525316e-001
1.110844e+003;2.470021e-001
1.112772e+003;2.402715e-001
1.114701e+003;2.332257e-001
1.116629e+003;2.276528e-001
1.118558e+003;2.229633e-001
1.120486e+003;2.177821e-001
1.122415e+003;2.127839e-001
1.124344e+003;2.083989e-001
1.126272e+003;2.033198e-001
1.128201e+003;1.974747e-001
1.130129e+003;1.908330e-001
1.132058e+003;1.846537e-001
1.133986e+003;1.796334e-001
1.135915e+003;1.752578e-001
1.137843e+003;1.715091e-001
1.139772e+003;1.686094e-001
1.141700e+003;1.669293e-001
1.143629e+003;1.668489e-001
1.145557e+003;1.674013e-001
1.147486e+003;1.676413e-001
1.149415e+003;1.679820e-001
1.151343e+003;1.678365e-001
1.153272e+003;1.670538e-001
1.155200e+003;1.664866e-001
1.157129e+003;1.657715e-001
1.159057e+003;1.641493e-001
1.160986e+003;1.609166e-001
1.162914e+003;1.562946e-001
1.164843e+003;1.515575e-001
1.166771e+003;1.471720e-001
1.168700e+003;1.428719e-001
1.170629e+003;1.380282e-001
1.172557e+003;1.335213e-001
1.174486e+003;1.298359e-001
1.176414e+003;1.271352e-001
1.178343e+003;1.251756e-001
1.180271e+003;1.238682e-001
1.182200e+003;1.231908e-001
1.184128e+003;1.235777e-001
1.186057e+003;1.247331e-001
1.187986e+003;1.265020e-001
1.189914e+003;1.280836e-001
1.191843e+003;1.300519e-001
1.193771e+003;1.329622e-001
1.195700e+003;1.356460e-001
1.197628e+003;1.382685e-001
1.199557e+003;1.400737e-001
1.201485e+003;1.414172e-001
1.203414e+003;1.432476e-001
1.205343e+003;1.449564e-001
1.207271e+003;1.461095e-001
1.209200e+003;1.466688e-001
1.211128e+003;1.480646e-001
1.213057e+003;1.510585e-001
1.214985e+003;1.549451e-001
1.216914e+003;1.587724e-001
1.218842e+003;1.625549e-001
1.220771e+003;1.663372e-001
1.222699e+003;1.698618e-001
1.224628e+003;1.732210e-001
1.226557e+003;1.759845e-001
1.228485e+003;1.779466e-001
1.230414e+003;1.794042e-001
1.232342e+003;1.805359e-001
1.234271e+003;1.809746e-001
1.236199e+003;1.807208e-001
1.238128e+003;1.802894e-001
1.240056e+003;1.797866e-001
1.241985e+003;1.787172e-001
1.243913e+003;1.774569e-001
1.245842e+003;1.757527e-001
1.247771e+003;1.735605e-001
1.249699e+003;1.714815e-001
1.251628e+003;1.691874e-001
1.253556e+003;1.669560e-001
1.255485e+003;1.649129e-001
1.257413e+003;1.629265e-001
1.259342e+003;1.612454e-001
1.261270e+003;1.590919e-001
1.263199e+003;1.562975e-001
1.265127e+003;1.534388e-001
1.267056e+003;1.504020e-001
1.268985e+003;1.475921e-001
1.270913e+003;1.452870e-001
1.272842e+003;1.431520e-001
1.274770e+003;1.409785e-001
1.276699e+003;1.387043e-001
1.278627e+003;1.366230e-001
1.280556e+003;1.346932e-001
1.282484e+003;1.330849e-001
1.284413e+003;1.317456e-001
1.286342e+003;1.308427e-001
1.288270e+003;1.300435e-001
1.290199e+003;1.298441e-001
1.292127e+003;1.303740e-001
1.294056e+003;1.313126e-001
1.295984e+003;1.325163e-001
1.297913e+003;1.337821e-001
1.299841e+003;1.352534e-001
1.301770e+003;1.373556e-001
1.303698e+003;1.396891e-001
1.305627e+003;1.417812e-001
1.307556e+003;1.442176e-001
1.309484e+003;1.468404e-001
1.311413e+003;1.490723e-001
1.313341e+003;1.508214e-001
1.315270e+003;1.518809e-001
1.317198e+003;1.523429e-001
1.319127e+003;1.521734e-001
1.321055e+003;1.518183e-001
1.322984e+003;1.513475e-001
1.324912e+003;1.506556e-001
1.326841e+003;1.499238e-001
1.328770e+003;1.494938e-001
1.330698e+003;1.492883e-001
1.332627e+003;1.487026e-001
1.334555e+003;1.474833e-001
1.336484e+003;1.460009e-001
1.338412e+003;1.444493e-001
1.340341e+003;1.430533e-001
1.342269e+003;1.415487e-001
1.344198e+003;1.400614e-001
1.346126e+003;1.390563e-001
1.348055e+003;1.384169e-001
1.349984e+003;1.380867e-001
1.351912e+003;1.386767e-001
1.353841e+003;1.397418e-001
1.355769e+003;1.409031e-001
1.357698e+003;1.425437e-001
1.359626e+003;1.442448e-001
1.361555e+003;1.453737e-001
1.363483e+003;1.461201e-001
1.365412e+003;1.468730e-001
1.367341e+003;1.469506e-001
1.369269e+003;1.465004e-001
1.371198e+003;1.456655e-001
1.373126e+003;1.439051e-001
1.375055e+003;1.416111e-001
1.376983e+003;1.394422e-001
1.378912e+003;1.366316e-001
1.380840e+003;1.331519e-001
1.382769e+003;1.299442e-001
1.384698e+003;1.269594e-001
1.386626e+003;1.242144e-001
1.388555e+003;1.222392e-001
1.390483e+003;1.211246e-001
1.392412e+003;1.202629e-001
1.394340e+003;1.197347e-001
1.396269e+003;1.194923e-001
1.398197e+003;1.197540e-001
1.400126e+003;1.201988e-001
1.402054e+003;1.205990e-001
1.403983e+003;1.213071e-001
1.405911e+003;1.222346e-001
1.407840e+003;1.236625e-001
1.409769e+003;1.249751e-001
1.411697e+003;1.263072e-001
1.413626e+003;1.279645e-001
1.415554e+003;1.296888e-001
1.417483e+003;1.314355e-001
1.419411e+003;1.327455e-001
1.421340e+003;1.333734e-001
1.423268e+003;1.332028e-001
1.425197e+003;1.322878e-001
1.427125e+003;1.309588e-001
1.429054e+003;1.290281e-001
1.430983e+003;1.269746e-001
1.432911e+003;1.250994e-001
1.434840e+003;1.235675e-001
1.436768e+003;1.222280e-001
1.438697e+003;1.210051e-001
1.440625e+003;1.201968e-001
1.442554e+003;1.203634e-001
1.444482e+003;1.210584e-001
1.446411e+003;1.217582e-001
1.448340e+003;1.224811e-001
1.450268e+003;1.231467e-001
1.452197e+003;1.236516e-001
1.454125e+003;1.239637e-001
1.456054e+003;1.237228e-001
1.457982e+003;1.231247e-001
1.459911e+003;1.227614e-001
1.461839e+003;1.218175e-001
1.463768e+003;1.200124e-001
1.465697e+003;1.174725e-001
1.467625e+003;1.144136e-001
1.469554e+003;1.109534e-001
1.471482e+003;1.073746e-001
1.473411e+003;1.037348e-001
1.475339e+003;1.004614e-001
1.477268e+003;9.775667e-002
1.479196e+003;9.554748e-002
1.481125e+003;9.376964e-002
1.483053e+003;9.237015e-002
1.484982e+003;9.144393e-002
1.486911e+003;9.096812e-002
1.488839e+003;9.109516e-002
1.490768e+003;9.153576e-002
1.492696e+003;9.232502e-002
1.494625e+003;9.346300e-002
1.496553e+003;9.458140e-002
1.498482e+003;9.603909e-002
1.500410e+003;9.739959e-002
1.502339e+003;9.812301e-002
1.504267e+003;9.794291e-002
1.506196e+003;9.672716e-002
1.508125e+003;9.534795e-002
1.510053e+003;9.369218e-002
1.511982e+003;9.163203e-002
1.513910e+003;8.973610e-002
1.515839e+003;8.795137e-002
1.517767e+003;8.601114e-002
1.519696e+003;8.432949e-002
1.521624e+003;8.285300e-002
1.523553e+003;8.177401e-002
1.525481e+003;8.078684e-002
1.527410e+003;7.997081e-002
1.529339e+003;7.956446e-002
1.531267e+003;7.928240e-002
1.533196e+003;7.911003e-002
1.535124e+003;7.888086e-002
1.537053e+003;7.866386e-002
1.538981e+003;7.865115e-002
1.540910e+003;7.853310e-002
1.542838e+003;7.847787e-002
1.544767e+003;7.900088e-002
1.546695e+003;7.930105e-002
1.548624e+003;7.915320e-002
1.550553e+003;7.894321e-002
1.552481e+003;7.877582e-002
1.554410e+003;7.916593e-002
1.556338e+003;7.922374e-002
1.558267e+003;7.893328e-002
1.560195e+003;7.930654e-002
1.562124e+003;7.990377e-002
1.564052e+003;8.040883e-002
1.565981e+003;8.114164e-002
1.567910e+003;8.194384e-002
1.569838e+003;8.254395e-002
1.571767e+003;8.338057e-002
1.573695e+003;8.482905e-002
1.575624e+003;8.637263e-002
1.577552e+003;8.829279e-002
1.579481e+003;9.028614e-002
1.581409e+003;9.234015e-002
1.583338e+003;9.475565e-002
1.585266e+003;9.714102e-002
1.587195e+003;9.911504e-002
1.589124e+003;1.006203e-001
1.591052e+003;1.016920e-001
1.592981e+003;1.019875e-001
1.594909e+003;1.013966e-001
1.596838e+003;1.005612e-001
1.598766e+003;9.964217e-002
1.600695e+003;9.827197e-002
1.602623e+003;9.700367e-002
1.604552e+003;9.605356e-002
1.606480e+003;9.505743e-002
1.608409e+003;9.431992e-002
1.610338e+003;9.368482e-002
1.612266e+003;9.309401e-002
1.614195e+003;9.278973e-002
1.616123e+003;9.278460e-002
1.618052e+003;9.286075e-002
1.619980e+003;9.258518e-002
1.621909e+003;9.209968e-002
1.623837e+003;9.209611e-002
1.625766e+003;9.230806e-002
1.627694e+003;9.244500e-002
1.629623e+003;9.251957e-002
1.631552e+003;9.246295e-002
1.633480e+003;9.265092e-002
1.635409e+003;9.308707e-002
1.637337e+003;9.338424e-002
1.639266e+003;9.331744e-002
1.641194e+003;9.344850e-002
1.643123e+003;9.382216e-002
1.645051e+003;9.411600e-002
1.646980e+003;9.422565e-002
1.648909e+003;9.440919e-002
1.650837e+003;9.445745e-002
1.652766e+003;9.395254e-002
1.654694e+003;9.388479e-002
1.656623e+003;9.363015e-002
1.658551e+003;9.311581e-002
1.660480e+003;9.266736e-002
1.662408e+003;9.213953e-002
1.664337e+003;9.174518e-002
1.666266e+003;9.121900e-002
1.668194e+003;9.044289e-002
1.670123e+003;8.943599e-002
1.672051e+003;8.847836e-002
1.673980e+003;8.768112e-002
1.675908e+003;8.687281e-002
1.677837e+003;8.625659e-002
1.679765e+003;8.563675e-002
1.681694e+003;8.495857e-002
1.683622e+003;8.441165e-002
1.685551e+003;8.375547e-002
1.687479e+003;8.351063e-002
1.689408e+003;8.347815e-002
1.691337e+003;8.335380e-002
1.693265e+003;8.334641e-002
1.695194e+003;8.331008e-002
1.697122e+003;8.355348e-002
1.699051e+003;8.410246e-002
1.700979e+003;8.506133e-002
1.702908e+003;8.648203e-002
1.704836e+003;8.789100e-002
1.706765e+003;8.944634e-002
1.708693e+003;9.113595e-002
1.710622e+003;9.288143e-002
1.712551e+003;9.478112e-002
1.714479e+003;9.672152e-002
1.716408e+003;9.912420e-002
1.718336e+003;1.015667e-001
1.720265e+003;1.037292e-001
1.722193e+003;1.057384e-001
1.724122e+003;1.078150e-001
1.726050e+003;1.097049e-001
1.727979e+003;1.110997e-001
1.729908e+003;1.122976e-001
1.731836e+003;1.130561e-001
1.733765e+003;1.134189e-001
1.735693e+003;1.137614e-001
1.737622e+003;1.138680e-001
1.739550e+003;1.133152e-001
1.741479e+003;1.120462e-001
1.743407e+003;1.105103e-001
1.745336e+003;1.087327e-001
1.747265e+003;1.065038e-001
1.749193e+003;1.039291e-001
1.751122e+003;1.014904e-001
1.753050e+003;9.888402e-002
1.754979e+003;9.591374e-002
1.756907e+003;9.255684e-002
1.758836e+003;8.916495e-002
1.760764e+003;8.598165e-002
1.762693e+003;8.290449e-002
1.764621e+003;8.007072e-002
1.766550e+003;7.740965e-002
1.768479e+003;7.512128e-002
1.770407e+003;7.305045e-002
1.772336e+003;7.099111e-002
1.774264e+003;6.929111e-002
1.776193e+003;6.803989e-002
1.778121e+003;6.697172e-002
1.780050e+003;6.588423e-002
1.781978e+003;6.495345e-002
1.783907e+003;6.457774e-002
1.785835e+003;6.419250e-002
1.787764e+003;6.385422e-002
1.789693e+003;6.348947e-002
1.791621e+003;6.280611e-002
1.793550e+003;6.212880e-002
1.795478e+003;6.179931e-002
1.797407e+003;6.166742e-002
1.799335e+003;6.153000e-002
1.801264e+003;6.128241e-002
1.803192e+003;6.116030e-002
1.805121e+003;6.107879e-002
1.807049e+003;6.079144e-002
1.808978e+003;6.072246e-002
1.810907e+003;6.059132e-002
1.812835e+003;6.035725e-002
1.814764e+003;6.018439e-002
1.816692e+003;5.994667e-002
1.818621e+003;5.978826e-002
1.820549e+003;5.951925e-002
1.822478e+003;5.944063e-002
1.824406e+003;5.962065e-002
1.826335e+003;5.957143e-002
1.828264e+003;5.916952e-002
1.830192e+003;5.910463e-002
1.832121e+003;5.919541e-002
1.834049e+003;5.900935e-002
1.835978e+003;5.874639e-002
1.837906e+003;5.870315e-002
1.839835e+003;5.870456e-002
1.841763e+003;5.881828e-002
1.843692e+003;5.876521e-002
1.845620e+003;5.862612e-002
1.847549e+003;5.832739e-002
1.849478e+003;5.817034e-002
1.851406e+003;5.837401e-002
1.853335e+003;5.832697e-002
1.855263e+003;5.805769e-002
1.857192e+003;5.808901e-002
1.859120e+003;5.815568e-002
1.861049e+003;5.828851e-002
1.862977e+003;5.825437e-002
1.864906e+003;5.795651e-002
1.866834e+003;5.778849e-002
1.868763e+003;5.794390e-002
1.870692e+003;5.801580e-002
1.872620e+003;5.779538e-002
1.874549e+003;5.786556e-002
1.876477e+003;5.816057e-002
1.878406e+003;5.839019e-002
1.880334e+003;5.843014e-002
1.882263e+003;5.812860e-002
1.884191e+003;5.809719e-002
1.886120e+003;5.818845e-002
1.888048e+003;5.811719e-002
1.889977e+003;5.798036e-002
1.891906e+003;5.801043e-002
1.893834e+003;5.818174e-002
1.895763e+003;5.824804e-002
1.897691e+003;5.821697e-002
1.899620e+003;5.818364e-002
1.901548e+003;5.843977e-002
1.903477e+003;5.856412e-002
1.905405e+003;5.827737e-002
1.907334e+003;5.818610e-002
1.909262e+003;5.835411e-002
1.911191e+003;5.849607e-002
1.913120e+003;5.863306e-002
1.915048e+003;5.867140e-002
1.916977e+003;5.878008e-002
1.918905e+003;5.887766e-002
1.920834e+003;5.875045e-002
1.922762e+003;5.862878e-002
1.924691e+003;5.869393e-002
1.926619e+003;5.903922e-002
1.928548e+003;5.910588e-002
1.930477e+003;5.903596e-002
1.932405e+003;5.904423e-002
1.934334e+003;5.913200e-002
1.936262e+003;5.916857e-002
1.938191e+003;5.908686e-002
1.940119e+003;5.922966e-002
1.942048e+003;5.958317e-002
1.943976e+003;5.971032e-002
1.945905e+003;5.958162e-002
1.947833e+003;5.968200e-002
1.949762e+003;5.979880e-002
1.951691e+003;5.976035e-002
1.953619e+003;6.003150e-002
1.955548e+003;6.014207e-002
1.957476e+003;5.984166e-002
1.959405e+003;5.958929e-002
1.961333e+003;5.960362e-002
1.963262e+003;5.979663e-002
1.965190e+003;5.985603e-002
1.967119e+003;5.979241e-002
1.969047e+003;5.977267e-002
1.970976e+003;5.991186e-002
1.972905e+003;6.011030e-002
1.974833e+003;6.023060e-002
1.976762e+003;6.019692e-002
1.978690e+003;6.023585e-002
1.980619e+003;6.023989e-002
1.982547e+003;6.035242e-002
1.984476e+003;6.044880e-002
1.986404e+003;6.057288e-002
1.988333e+003;6.076339e-002
1.990261e+003;6.078253e-002
1.992190e+003;6.056279e-002
1.994119e+003;6.056355e-002
1.996047e+003;6.072818e-002
1.997976e+003;6.087930e-002
1.999904e+003;6.059631e-002
2.001833e+003;6.044563e-002
2.003761e+003;6.090843e-002
2.005690e+003;6.138812e-002
2.007618e+003;6.157925e-002
2.009547e+003;6.168098e-002
2.011476e+003;6.167678e-002
2.013404e+003;6.196093e-002
2.015333e+003;6.233862e-002
2.017261e+003;6.244087e-002
2.019190e+003;6.244856e-002
2.021118e+003;6.247419e-002
2.023047e+003;6.261693e-002
2.024975e+003;6.274926e-002
2.026904e+003;6.272656e-002
2.028833e+003;6.275067e-002
2.030761e+003;6.294620e-002
2.032690e+003;6.317998e-002
2.034618e+003;6.321555e-002
2.036547e+003;6.294651e-002
2.038475e+003;6.263523e-002
2.040404e+003;6.272510e-002
2.042332e+003;6.301595e-002
2.044261e+003;6.303346e-002
2.046189e+003;6.328209e-002
2.048118e+003;6.346992e-002
2.050047e+003;6.332371e-002
2.051975e+003;6.333403e-002
2.053904e+003;6.338237e-002
2.055832e+003;6.314473e-002
2.057761e+003;6.323115e-002
2.059689e+003;6.349120e-002
2.061618e+003;6.324441e-002
2.063546e+003;6.314614e-002
2.065475e+003;6.325050e-002
2.067404e+003;6.327856e-002
2.069332e+003;6.353672e-002
2.071260e+003;6.350834e-002
2.073189e+003;6.343111e-002
2.075118e+003;6.326813e-002
2.077046e+003;6.317864e-002
2.078975e+003;6.332537e-002
2.080903e+003;6.332663e-002
2.082832e+003;6.320493e-002
2.084760e+003;6.308588e-002
2.086689e+003;6.301362e-002
2.088617e+003;6.309357e-002
2.090546e+003;6.319404e-002
2.092475e+003;6.324697e-002
2.094403e+003;6.363519e-002
2.096332e+003;6.374039e-002
2.098260e+003;6.360971e-002
2.100189e+003;6.343007e-002
2.102117e+003;6.344407e-002
2.104046e+003;6.380774e-002
2.105974e+003;6.377286e-002
2.107903e+003;6.380996e-002
2.109832e+003;6.396446e-002
2.111760e+003;6.391329e-002
2.113688e+003;6.383406e-002
2.115617e+003;6.389548e-002
2.117546e+003;6.396469e-002
2.119474e+003;6.394131e-002
2.121403e+003;6.378637e-002
2.123331e+003;6.355766e-002
2.125260e+003;6.376157e-002
2.127188e+003;6.392004e-002
2.129117e+003;6.408434e-002
2.131045e+003;6.424750e-002
2.132974e+003;6.411050e-002
2.134903e+003;6.398009e-002
2.136831e+003;6.405354e-002
2.138760e+003;6.411176e-002
2.140688e+003;6.413557e-002
2.142617e+003;6.386692e-002
2.144545e+003;6.387122e-002
2.146474e+003;6.406794e-002
2.148402e+003;6.393518e-002
2.150331e+003;6.370985e-002
2.152260e+003;6.366146e-002
2.154188e+003;6.344084e-002
2.156117e+003;6.324629e-002
2.158045e+003;6.354025e-002
2.159974e+003;6.351777e-002
2.161902e+003;6.336524e-002
2.163831e+003;6.366139e-002
2.165759e+003;6.384224e-002
2.167688e+003;6.349246e-002
2.169616e+003;6.308465e-002
2.171545e+003;6.290170e-002
2.173474e+003;6.278012e-002
2.175402e+003;6.282335e-002
2.177331e+003;6.287577e-002
2.179259e+003;6.269325e-002
2.181188e+003;6.235075e-002
2.183116e+003;6.217667e-002
2.185045e+003;6.222837e-002
2.186973e+003;6.242744e-002
2.188902e+003;6.245411e-002
2.190831e+003;6.226642e-002
2.192759e+003;6.219456e-002
2.194688e+003;6.212647e-002
2.196616e+003;6.202739e-002
2.198545e+003;6.217965e-002
2.200473e+003;6.222710e-002
2.202402e+003;6.208610e-002
2.204330e+003;6.182674e-002
2.206259e+003;6.190640e-002
2.208188e+003;6.204486e-002
2.210116e+003;6.202567e-002
2.212044e+003;6.201153e-002
2.213973e+003;6.222569e-002
2.215902e+003;6.222336e-002
2.217830e+003;6.188378e-002
2.219759e+003;6.194171e-002
2.221687e+003;6.229116e-002
2.223616e+003;6.246930e-002
2.225544e+003;6.233759e-002
2.227473e+003;6.207120e-002
2.229401e+003;6.204467e-002
2.231330e+003;6.246987e-002
2.233259e+003;6.236287e-002
2.235187e+003;6.179274e-002
2.237116e+003;6.180600e-002
2.239044e+003;6.198367e-002
2.240973e+003;6.213932e-002
2.242901e+003;6.239719e-002
2.244830e+003;6.233774e-002
2.246758e+003;6.228248e-002
2.248687e+003;6.230948e-002
2.250615e+003;6.202517e-002
2.252544e+003;6.183541e-002
2.254473e+003;6.178510e-002
2.256401e+003;6.187595e-002
2.258330e+003;6.189116e-002
2.260258e+003;6.187152e-002
2.262187e+003;6.193850e-002
2.264115e+003;6.179855e-002
2.266044e+003;6.179767e-002
2.267972e+003;6.180519e-002
2.269901e+003;6.175531e-002
2.271830e+003;6.179614e-002
2.273758e+003;6.176909e-002
2.275687e+003;6.175271e-002
2.277615e+003;6.165799e-002
2.279544e+003;6.170306e-002
2.281472e+003;6.198176e-002
2.283401e+003;6.192134e-002
2.285329e+003;6.196456e-002
2.287258e+003;6.203167e-002
2.289187e+003;6.200683e-002
2.291115e+003;6.196769e-002
2.293043e+003;6.191852e-002
2.294972e+003;6.186464e-002
2.296901e+003;6.179129e-002
2.298829e+003;6.180802e-002
2.300758e+003;6.183686e-002
2.302686e+003;6.184573e-002
2.304615e+003;6.200526e-002
2.306543e+003;6.218260e-002
2.308472e+003;6.202869e-002
2.310400e+003;6.212995e-002
2.312329e+003;6.210418e-002
2.314258e+003;6.169591e-002
2.316186e+003;6.149793e-002
2.318115e+003;6.161965e-002
2.320043e+003;6.203068e-002
2.321972e+003;6.227663e-002
2.323900e+003;6.198940e-002
2.325829e+003;6.193946e-002
2.327757e+003;6.209241e-002
2.329686e+003;6.200137e-002
2.331615e+003;6.200717e-002
2.333543e+003;6.210900e-002
2.335472e+003;6.224389e-002
2.337400e+003;6.218466e-002
2.339329e+003;6.215189e-002
2.341257e+003;6.211959e-002
2.343186e+003;6.201509e-002
2.345114e+003;6.222741e-002
2.347043e+003;6.256129e-002
2.348971e+003;6.248996e-002
2.350900e+003;6.258838e-002
2.352829e+003;6.282702e-002
2.354757e+003;6.290568e-002
2.356686e+003;6.267706e-002
2.358614e+003;6.267997e-002
2.360543e+003;6.294850e-002
2.362471e+003;6.300366e-002
2.364400e+003;6.290445e-002
2.366328e+003;6.317700e-002
2.368257e+003;6.338303e-002
2.370186e+003;6.324016e-002
2.372114e+003;6.327085e-002
2.374042e+003;6.336152e-002
2.375971e+003;6.352368e-002
2.377900e+003;6.383733e-002
2.379828e+003;6.410239e-002
2.381757e+003;6.406663e-002
2.383685e+003;6.410366e-002
2.385614e+003;6.422807e-002
2.387542e+003;6.413419e-002
2.389471e+003;6.410531e-002
2.391399e+003;6.449106e-002
2.393328e+003;6.474083e-002
2.395257e+003;6.449863e-002
2.397185e+003;6.452393e-002
2.399114e+003;6.447334e-002
2.401042e+003;6.441604e-002
2.402971e+003;6.478721e-002
2.404899e+003;6.489623e-002
2.406828e+003;6.485603e-002
2.408756e+003;6.518250e-002
2.410685e+003;6.543791e-002
2.412614e+003;6.546518e-002
2.414542e+003;6.558663e-002
2.416471e+003;6.583105e-002
2.418399e+003;6.592012e-002
2.420328e+003;6.605582e-002
2.422256e+003;6.627306e-002
2.424185e+003;6.653962e-002
2.426113e+003;6.670440e-002
2.428042e+003;6.670327e-002
2.429970e+003;6.676645e-002
2.431899e+003;6.668489e-002
2.433828e+003;6.655131e-002
2.435756e+003;6.672171e-002
2.437685e+003;6.668319e-002
2.439613e+003;6.676549e-002
2.441542e+003;6.703392e-002
2.443470e+003;6.720745e-002
2.445399e+003;6.729398e-002
2.447327e+003;6.713651e-002
2.449256e+003;6.690477e-002
2.451185e+003;6.679153e-002
2.453113e+003;6.677719e-002
2.455042e+003;6.697559e-002
2.456970e+003;6.733255e-002
2.458899e+003;6.752241e-002
2.460827e+003;6.757773e-002
2.462756e+003;6.751498e-002
2.464684e+003;6.743726e-002
2.466613e+003;6.753530e-002
2.468542e+003;6.764331e-002
2.470470e+003;6.763514e-002
2.472398e+003;6.768180e-002
2.474327e+003;6.779245e-002
2.476256e+003;6.760351e-002
2.478184e+003;6.766581e-002
2.480113e+003;6.784713e-002
2.482041e+003;6.785624e-002
2.483970e+003;6.803032e-002
2.485898e+003;6.852994e-002
2.487827e+003;6.864468e-002
2.489755e+003;6.832545e-002
2.491684e+003;6.845949e-002
2.493613e+003;6.863249e-002
2.495541e+003;6.866343e-002
2.497470e+003;6.883154e-002
2.499398e+003;6.859970e-002
2.501327e+003;6.838269e-002
2.503255e+003;6.872696e-002
2.505184e+003;6.892955e-002
2.507112e+003;6.898730e-002
2.509041e+003;6.896558e-002
2.510969e+003;6.890659e-002
2.512898e+003;6.890989e-002
2.514827e+003;6.903674e-002
2.516755e+003;6.946433e-002
2.518684e+003;6.955618e-002
2.520612e+003;6.938323e-002
2.522541e+003;6.935564e-002
2.524469e+003;6.937659e-002
2.526398e+003;6.949505e-002
2.528326e+003;6.954408e-002
2.530255e+003;6.970998e-002
2.532184e+003;7.010880e-002
2.534112e+003;7.008326e-002
2.536041e+003;6.998040e-002
2.537969e+003;7.004183e-002
2.539898e+003;7.014474e-002
2.541826e+003;7.014556e-002
2.543755e+003;7.016445e-002
2.545683e+003;6.993443e-002
2.547612e+003;6.983258e-002
2.549541e+003;6.989979e-002
2.551469e+003;6.993521e-002
2.553397e+003;7.003198e-002
2.555326e+003;7.033767e-002
2.557255e+003;7.061210e-002
2.559183e+003;7.069378e-002
2.561112e+003;7.069468e-002
2.563040e+003;7.061678e-002
2.564969e+003;7.061690e-002
2.566897e+003;7.058213e-002
2.568826e+003;7.073446e-002
2.570754e+003;7.103474e-002
2.572683e+003;7.121763e-002
2.574612e+003;7.109515e-002
2.576540e+003;7.100017e-002
2.578469e+003;7.137053e-002
2.580397e+003;7.165977e-002
2.582326e+003;7.136992e-002
2.584254e+003;7.110358e-002
2.586183e+003;7.115311e-002
2.588111e+003;7.125371e-002
2.590040e+003;7.132164e-002
2.591969e+003;7.106237e-002
2.593897e+003;7.100337e-002
2.595826e+003;7.125695e-002
2.597754e+003;7.154205e-002
2.599683e+003;7.202789e-002
2.601611e+003;7.210080e-002
2.603540e+003;7.202406e-002
2.605468e+003;7.198315e-002
2.607397e+003;7.200357e-002
2.609325e+003;7.236955e-002
2.611254e+003;7.231905e-002
2.613183e+003;7.217290e-002
2.615111e+003;7.238841e-002
2.617040e+003;7.245132e-002
2.618968e+003;7.240079e-002
2.620897e+003;7.242619e-002
2.622825e+003;7.243347e-002
2.624754e+003;7.234121e-002
2.626682e+003;7.254533e-002
2.628611e+003;7.313478e-002
2.630540e+003;7.326667e-002
2.632468e+003;7.331417e-002
2.634396e+003;7.338902e-002
2.636325e+003;7.349870e-002
2.638254e+003;7.370540e-002
2.640182e+003;7.377165e-002
2.642111e+003;7.393610e-002
2.644039e+003;7.394172e-002
2.645968e+003;7.395177e-002
2.647896e+003;7.404520e-002
2.649825e+003;7.408784e-002
2.651753e+003;7.421793e-002
2.653682e+003;7.403353e-002
2.655611e+003;7.382961e-002
2.657539e+003;7.408583e-002
2.659468e+003;7.443626e-002
2.661396e+003;7.467116e-002
2.663325e+003;7.458421e-002
2.665253e+003;7.441731e-002
2.667182e+003;7.458590e-002
2.669110e+003;7.484296e-002
2.671039e+003;7.486713e-002
2.672968e+003;7.502636e-002
2.674896e+003;7.548592e-002
2.676825e+003;7.562282e-002
2.678753e+003;7.531178e-002
2.680682e+003;7.519487e-002
2.682610e+003;7.551249e-002
2.684539e+003;7.565662e-002
2.686467e+003;7.571578e-002
2.688396e+003;7.578083e-002
2.690324e+003;7.569681e-002
2.692253e+003;7.582392e-002
2.694182e+003;7.618973e-002
2.696110e+003;7.625770e-002
2.698039e+003;7.628495e-002
2.699967e+003;7.644463e-002
2.701896e+003;7.643653e-002
2.703824e+003;7.668777e-002
2.705753e+003;7.667622e-002
2.707681e+003;7.669125e-002
2.709610e+003;7.689058e-002
2.711539e+003;7.697716e-002
2.713467e+003;7.701590e-002
2.715396e+003;7.710005e-002
2.717324e+003;7.726213e-002
2.719253e+003;7.727788e-002
2.721181e+003;7.731894e-002
2.723110e+003;7.733921e-002
2.725038e+003;7.723109e-002
2.726967e+003;7.743091e-002
2.728896e+003;7.767180e-002
2.730824e+003;7.741915e-002
2.732752e+003;7.742323e-002
2.734681e+003;7.766617e-002
2.736610e+003;7.750375e-002
2.738538e+003;7.736419e-002
2.740467e+003;7.729447e-002
2.742395e+003;7.736554e-002
2.744324e+003;7.759802e-002
2.746252e+003;7.781636e-002
2.748181e+003;7.775462e-002
2.750109e+003;7.769089e-002
2.752038e+003;7.803969e-002
2.753967e+003;7.810643e-002
2.755895e+003;7.832031e-002
2.757824e+003;7.884347e-002
2.759752e+003;7.901141e-002
2.761681e+003;7.915491e-002
2.763609e+003;7.917511e-002
2.765538e+003;7.897262e-002
2.767466e+003;7.897595e-002
2.769395e+003;7.900751e-002
2.771323e+003;7.879724e-002
2.773252e+003;7.913511e-002
2.775181e+003;7.962643e-002
2.777109e+003;7.951173e-002
2.779038e+003;7.955789e-002
2.780966e+003;7.975982e-002
2.782895e+003;7.982767e-002
2.784823e+003;8.001136e-002
2.786752e+003;8.028397e-002
2.788680e+003;8.036721e-002
2.790609e+003;8.054929e-002
2.792538e+003;8.107914e-002
2.794466e+003;8.140434e-002
2.796395e+003;8.185765e-002
2.798323e+003;8.227497e-002
2.800252e+003;8.236311e-002
2.802180e+003;8.220886e-002
2.804109e+003;8.207603e-002
2.806037e+003;8.227728e-002
2.807966e+003;8.261047e-002
2.809895e+003;8.292667e-002
2.811823e+003;8.345775e-002
2.813751e+003;8.402967e-002
2.815680e+003;8.465575e-002
2.817609e+003;8.530337e-002
2.819537e+003;8.571033e-002
2.821466e+003;8.593795e-002
2.823394e+003;8.630779e-002
2.825323e+003;8.677913e-002
2.827251e+003;8.717288e-002
2.829180e+003;8.790021e-002
2.831108e+003;8.847210e-002
2.833037e+003;8.909648e-002
2.834966e+003;9.027056e-002
2.836894e+003;9.161235e-002
2.838823e+003;9.224217e-002
2.840751e+003;9.281866e-002
2.842680e+003;9.360972e-002
2.844608e+003;9.446952e-002
2.846537e+003;9.535942e-002
2.848465e+003;9.677874e-002
2.850394e+003;9.823669e-002
2.852323e+003;9.924852e-002
2.854251e+003;1.000378e-001
2.856180e+003;1.005061e-001
2.858108e+003;1.011253e-001
2.860037e+003;1.020402e-001
2.861965e+003;1.028928e-001
2.863894e+003;1.035659e-001
2.865822e+003;1.044627e-001
2.867751e+003;1.049966e-001
2.869679e+003;1.057593e-001
2.871608e+003;1.067294e-001
2.873536e+003;1.068302e-001
2.875465e+003;1.067723e-001
2.877394e+003;1.071760e-001
2.879322e+003;1.077997e-001
2.881251e+003;1.080952e-001
2.883179e+003;1.080500e-001
2.885108e+003;1.082885e-001
2.887036e+003;1.087428e-001
2.888965e+003;1.090997e-001
2.890893e+003;1.093279e-001
2.892822e+003;1.095245e-001
2.894750e+003;1.095101e-001
2.896679e+003;1.095658e-001
2.898608e+003;1.096736e-001
2.900536e+003;1.096622e-001
2.902465e+003;1.092194e-001
2.904393e+003;1.088740e-001
2.906322e+003;1.085385e-001
2.908250e+003;1.079273e-001
2.910179e+003;1.074285e-001
2.912107e+003;1.071181e-001
2.914036e+003;1.071808e-001
2.915965e+003;1.071949e-001
2.917893e+003;1.069340e-001
2.919822e+003;1.065343e-001
2.921750e+003;1.062854e-001
2.923679e+003;1.058643e-001
2.925607e+003;1.048849e-001
2.927536e+003;1.042163e-001
2.929464e+003;1.037490e-001
2.931393e+003;1.034728e-001
2.933322e+003;1.029994e-001
2.935250e+003;1.016900e-001
2.937178e+003;1.007418e-001
2.939107e+003;1.002910e-001
2.941036e+003;9.961662e-002
2.942964e+003;9.911745e-002
2.944893e+003;9.853845e-002
2.946821e+003;9.769791e-002
2.948750e+003;9.675576e-002
2.950678e+003;9.576062e-002
2.952607e+003;9.443629e-002
2.954535e+003;9.312706e-002
2.956464e+003;9.214015e-002
2.958393e+003;9.181632e-002
2.960321e+003;9.123539e-002
2.962250e+003;9.061095e-002
2.964178e+003;8.994233e-002
2.966107e+003;8.880109e-002
2.968035e+003;8.805715e-002
2.969964e+003;8.767626e-002
2.971892e+003;8.726013e-002
2.973821e+003;8.647192e-002
2.975750e+003;8.564717e-002
2.977678e+003;8.514553e-002
2.979607e+003;8.459564e-002
2.981535e+003;8.402392e-002
2.983464e+003;8.341056e-002
2.985392e+003;8.288247e-002
2.987321e+003;8.270979e-002
2.989249e+003;8.245228e-002
2.991178e+003;8.193392e-002
2.993106e+003;8.159493e-002
2.995035e+003;8.129101e-002
2.996964e+003;8.103174e-002
2.998892e+003;8.126955e-002
3.000821e+003;8.126808e-002
3.002749e+003;8.085736e-002
3.004678e+003;8.042750e-002
3.006606e+003;8.025180e-002
3.008535e+003;8.020632e-002
3.010463e+003;8.001124e-002
3.012392e+003;8.000761e-002
3.014321e+003;8.021473e-002
3.016249e+003;8.018576e-002
3.018177e+003;7.990636e-002
3.020106e+003;7.993317e-002
3.022035e+003;8.009618e-002
3.023963e+003;7.985590e-002
3.025892e+003;7.972829e-002
3.027820e+003;7.984929e-002
3.029749e+003;7.998829e-002
3.031677e+003;7.977881e-002
3.033606e+003;7.972308e-002
3.035534e+003;8.011578e-002
3.037463e+003;8.026866e-002
3.039392e+003;8.017962e-002
3.041320e+003;8.039404e-002
3.043249e+003;8.066190e-002
3.045177e+003;8.049621e-002
3.047106e+003;8.075898e-002
3.049034e+003;8.132005e-002
3.050963e+003;8.145845e-002
3.052891e+003;8.130228e-002
3.054820e+003;8.146328e-002
3.056749e+003;8.184201e-002
3.058677e+003;8.216858e-002
3.060606e+003;8.205982e-002
3.062534e+003;8.196612e-002
3.064463e+003;8.238434e-002
3.066391e+003;8.275874e-002
3.068320e+003;8.269596e-002
3.070248e+003;8.279025e-002
3.072177e+003;8.288163e-002
3.074105e+003;8.284446e-002
3.076034e+003;8.308993e-002
3.077963e+003;8.338435e-002
3.079891e+003;8.383492e-002
3.081820e+003;8.406539e-002
3.083748e+003;8.429287e-002
3.085677e+003;8.481209e-002
3.087605e+003;8.507527e-002
3.089534e+003;8.552208e-002
3.091462e+003;8.603291e-002
3.093391e+003;8.603764e-002
3.095320e+003;8.616877e-002
3.097248e+003;8.652518e-002
3.099177e+003;8.651333e-002
3.101105e+003;8.634478e-002
3.103034e+003;8.635298e-002
3.104962e+003;8.664829e-002
3.106891e+003;8.708210e-002
3.108819e+003;8.725705e-002
3.110748e+003;8.732871e-002
3.112677e+003;8.771401e-002
3.114605e+003;8.845520e-002
3.116533e+003;8.902546e-002
3.118462e+003;8.922318e-002
3.120391e+003;8.938072e-002
3.122319e+003;8.947638e-002
3.124248e+003;8.981233e-002
3.126176e+003;9.015644e-002
3.128105e+003;9.028132e-002
3.130033e+003;9.059107e-002
3.131962e+003;9.097155e-002
3.133890e+003;9.130657e-002
3.135819e+003;9.175868e-002
3.137748e+003;9.238593e-002
3.139676e+003;9.282070e-002
3.141605e+003;9.278288e-002
3.143533e+003;9.288127e-002
3.145462e+003;9.349900e-002
3.147390e+003;9.397738e-002
3.149319e+003;9.441825e-002
3.151247e+003;9.515778e-002
3.153176e+003;9.572167e-002
3.155104e+003;9.593725e-002
3.157033e+003;9.624834e-002
3.158962e+003;9.671871e-002
3.160890e+003;9.712299e-002
3.162819e+003;9.738483e-002
3.164747e+003;9.759548e-002
3.166676e+003;9.790061e-002
3.168604e+003;9.801362e-002
3.170533e+003;9.833587e-002
3.172461e+003;9.913602e-002
3.174390e+003;9.993026e-002
3.176319e+003;1.001795e-001
3.178247e+003;1.003623e-001
3.180176e+003;1.007357e-001
3.182104e+003;1.012200e-001
3.184033e+003;1.018484e-001
3.185961e+003;1.027020e-001
3.187890e+003;1.031403e-001
3.189818e+003;1.036628e-001
3.191747e+003;1.041062e-001
3.193676e+003;1.042837e-001
3.195604e+003;1.047877e-001
3.197532e+003;1.054088e-001
3.199461e+003;1.055483e-001
3.201390e+003;1.059271e-001
3.203318e+003;1.067437e-001
3.205247e+003;1.071995e-001
3.207175e+003;1.075547e-001
3.209104e+003;1.078994e-001
3.211032e+003;1.086351e-001
3.212961e+003;1.095669e-001
3.214889e+003;1.098245e-001
3.216818e+003;1.102201e-001
3.218747e+003;1.108761e-001
3.220675e+003;1.116569e-001
3.222604e+003;1.121547e-001
3.224532e+003;1.123459e-001
3.226461e+003;1.127868e-001
3.228389e+003;1.137062e-001
3.230318e+003;1.145902e-001
3.232246e+003;1.150110e-001
3.234175e+003;1.154936e-001
3.236104e+003;1.160731e-001
3.238032e+003;1.167556e-001
3.239961e+003;1.175539e-001
3.241889e+003;1.183850e-001
3.243818e+003;1.190737e-001
3.245746e+003;1.194364e-001
3.247675e+003;1.199962e-001
3.249603e+003;1.206195e-001
3.251532e+003;1.214968e-001
3.253460e+003;1.223078e-001
3.255389e+003;1.228768e-001
3.257318e+003;1.235771e-001
3.259246e+003;1.241655e-001
3.261175e+003;1.247310e-001
3.263103e+003;1.251242e-001
3.265032e+003;1.259557e-001
3.266960e+003;1.264666e-001
3.268889e+003;1.267772e-001
3.270817e+003;1.274108e-001
3.272746e+003;1.279744e-001
3.274675e+003;1.284836e-001
3.276603e+003;1.291728e-001
3.278531e+003;1.301889e-001
3.280460e+003;1.307456e-001
3.282389e+003;1.309091e-001
3.284317e+003;1.312203e-001
3.286246e+003;1.319588e-001
3.288174e+003;1.320588e-001
3.290103e+003;1.318369e-001
3.292031e+003;1.324108e-001
3.293960e+003;1.329401e-001
3.295888e+003;1.330396e-001
3.297817e+003;1.330525e-001
3.299746e+003;1.335093e-001
3.301674e+003;1.337306e-001
3.303603e+003;1.339339e-001
3.305531e+003;1.345356e-001
3.307460e+003;1.350810e-001
3.309388e+003;1.351842e-001
3.311317e+003;1.350968e-001
3.313245e+003;1.353973e-001
3.315174e+003;1.357268e-001
3.317103e+003;1.359875e-001
3.319031e+003;1.366379e-001
3.320960e+003;1.373502e-001
3.322888e+003;1.374394e-001
3.324817e+003;1.372993e-001
3.326745e+003;1.377248e-001
3.328674e+003;1.381797e-001
3.330602e+003;1.379910e-001
3.332531e+003;1.380834e-001
3.334459e+003;1.382834e-001
3.336388e+003;1.381021e-001
3.338317e+003;1.386224e-001
3.340245e+003;1.389462e-001
3.342174e+003;1.386961e-001
3.344102e+003;1.385291e-001
3.346031e+003;1.387136e-001
3.347959e+003;1.385320e-001
3.349888e+003;1.381178e-001
3.351816e+003;1.376786e-001
3.353745e+003;1.372692e-001
3.355674e+003;1.369130e-001
3.357602e+003;1.367274e-001
3.359531e+003;1.366324e-001
3.361459e+003;1.368008e-001
3.363388e+003;1.365836e-001
3.365316e+003;1.362680e-001
3.367245e+003;1.362953e-001
3.369173e+003;1.363642e-001
3.371102e+003;1.361051e-001
3.373031e+003;1.354648e-001
3.374959e+003;1.352814e-001
3.376887e+003;1.353675e-001
3.378816e+003;1.346614e-001
3.380745e+003;1.339811e-001
3.382673e+003;1.335663e-001
3.384602e+003;1.332330e-001
3.386530e+003;1.334381e-001
3.388459e+003;1.334237e-001
3.390387e+003;1.328492e-001
3.392316e+003;1.323987e-001
3.394244e+003;1.324223e-001
3.396173e+003;1.320923e-001
3.398102e+003;1.317944e-001
3.400030e+003;1.313513e-001
3.401959e+003;1.308947e-001
3.403887e+003;1.305164e-001
3.405816e+003;1.303713e-001
3.407744e+003;1.303678e-001
3.409673e+003;1.302482e-001
3.411601e+003;1.297148e-001
3.413530e+003;1.289679e-001
3.415458e+003;1.282552e-001
3.417387e+003;1.273383e-001
3.419316e+003;1.266998e-001
3.421244e+003;1.265554e-001
3.423173e+003;1.262368e-001
3.425101e+003;1.257704e-001
3.427030e+003;1.249745e-001
3.428958e+003;1.245256e-001
3.430887e+003;1.241004e-001
3.432815e+003;1.234653e-001
3.434744e+003;1.233944e-001
3.436673e+003;1.229440e-001
3.438601e+003;1.215022e-001
3.440530e+003;1.199879e-001
3.442458e+003;1.194647e-001
3.444387e+003;1.196976e-001
3.446315e+003;1.190977e-001
3.448244e+003;1.186167e-001
3.450172e+003;1.185527e-001
3.452101e+003;1.180366e-001
3.454030e+003;1.170375e-001
3.455958e+003;1.159801e-001
3.457886e+003;1.153242e-001
3.459815e+003;1.148433e-001
3.461744e+003;1.143580e-001
3.463672e+003;1.135617e-001
3.465601e+003;1.131247e-001
3.467529e+003;1.129372e-001
3.469458e+003;1.120079e-001
3.471386e+003;1.113525e-001
3.473315e+003;1.109000e-001
3.475243e+003;1.095868e-001
3.477172e+003;1.083116e-001
3.479101e+003;1.076421e-001
3.481029e+003;1.074490e-001
3.482958e+003;1.067986e-001
3.484886e+003;1.060281e-001
3.486815e+003;1.050037e-001
3.488743e+003;1.040393e-001
3.490672e+003;1.036918e-001
3.492600e+003;1.033043e-001
3.494529e+003;1.022752e-001
3.496458e+003;1.009090e-001
3.498386e+003;9.996642e-002
3.500315e+003;9.953765e-002
3.502243e+003;9.933581e-002
3.504172e+003;9.850116e-002
3.506100e+003;9.750170e-002
3.508029e+003;9.667582e-002
3.509957e+003;9.582887e-002
3.511886e+003;9.518645e-002
3.513814e+003;9.497013e-002
3.515743e+003;9.445754e-002
3.517672e+003;9.365650e-002
3.519600e+003;9.321990e-002
3.521529e+003;9.259485e-002
3.523457e+003;9.169914e-002
3.525386e+003;9.129128e-002
3.527314e+003;9.112769e-002
3.529243e+003;9.025130e-002
3.531171e+003;8.888227e-002
3.533100e+003;8.813065e-002
3.535029e+003;8.766320e-002
3.536957e+003;8.692461e-002
3.538885e+003;8.587003e-002
3.540814e+003;8.528253e-002
3.542743e+003;8.488617e-002
3.544671e+003;8.422034e-002
3.546600e+003;8.340775e-002
3.548528e+003;8.305273e-002
3.550457e+003;8.264446e-002
3.552385e+003;8.176173e-002
3.554314e+003;8.069766e-002
3.556242e+003;7.975962e-002
3.558171e+003;7.885889e-002
3.560100e+003;7.852742e-002
3.562028e+003;7.826107e-002
3.563957e+003;7.737374e-002
3.565885e+003;7.698919e-002
3.567814e+003;7.645628e-002
3.569742e+003;7.546751e-002
3.571671e+003;7.501978e-002
3.573599e+003;7.477368e-002
3.575528e+003;7.419210e-002
3.577457e+003;7.340703e-002
3.579385e+003;7.287156e-002
3.581314e+003;7.250821e-002
3.583242e+003;7.205293e-002
3.585171e+003;7.137823e-002
3.587099e+003;7.073949e-002
3.589028e+003;7.037164e-002
3.590956e+003;7.009700e-002
3.592885e+003;6.968030e-002
3.594813e+003;6.891956e-002
3.596742e+003;6.810520e-002
3.598671e+003;6.749567e-002
3.600599e+003;6.725943e-002
3.602528e+003;6.714197e-002
3.604456e+003;6.702751e-002
3.606385e+003;6.697245e-002
3.608313e+003;6.663428e-002
3.610242e+003;6.616119e-002
3.612170e+003;6.550093e-002
3.614099e+003;6.472714e-002
3.616028e+003;6.448137e-002
3.617956e+003;6.463461e-002
3.619885e+003;6.448506e-002
3.621813e+003;6.420413e-002
3.623742e+003;6.395537e-002
3.625670e+003;6.370056e-002
3.627599e+003;6.319845e-002
3.629527e+003;6.230045e-002
3.631456e+003;6.185532e-002
3.633385e+003;6.169866e-002
3.635313e+003;6.148973e-002
3.637241e+003;6.129558e-002
3.639170e+003;6.113699e-002
3.641099e+003;6.081267e-002
3.643027e+003;6.034108e-002
3.644956e+003;5.960830e-002
3.646884e+003;5.994800e-002
3.648813e+003;6.048429e-002
3.650741e+003;6.002728e-002
3.652670e+003;5.998033e-002
3.654598e+003;5.994670e-002
3.656527e+003;5.939687e-002
3.658456e+003;5.902313e-002
3.660384e+003;5.809227e-002
3.662313e+003;5.740967e-002
3.664241e+003;5.799369e-002
3.666170e+003;5.836355e-002
3.668098e+003;5.773876e-002
3.670027e+003;5.678127e-002
3.671955e+003;5.622626e-002
3.673884e+003;5.620506e-002
3.675813e+003;5.591753e-002
3.677741e+003;5.562311e-002
3.679669e+003;5.565482e-002
3.681598e+003;5.506513e-002
3.683527e+003;5.452249e-002
3.685455e+003;5.430920e-002
3.687384e+003;5.418659e-002
3.689312e+003;5.410796e-002
3.691241e+003;5.400394e-002
3.693169e+003;5.391764e-002
3.695098e+003;5.365843e-002
3.697026e+003;5.327000e-002
3.698955e+003;5.316180e-002
3.700884e+003;5.281797e-002
3.702812e+003;5.239680e-002
3.704741e+003;5.316154e-002
3.706669e+003;5.342286e-002
3.708598e+003;5.270808e-002
3.710526e+003;5.259463e-002
3.712455e+003;5.251535e-002
3.714383e+003;5.216213e-002
3.716312e+003;5.204700e-002
3.718240e+003;5.206414e-002
3.720169e+003;5.223492e-002
3.722098e+003;5.248114e-002
3.724026e+003;5.236308e-002
3.725955e+003;5.194462e-002
3.727883e+003;5.186192e-002
3.729812e+003;5.193704e-002
3.731740e+003;5.152106e-002
3.733669e+003;5.127985e-002
3.735597e+003;5.134112e-002
3.737526e+003;5.107844e-002
3.739455e+003;5.096739e-002
3.741383e+003;5.132721e-002
3.743312e+003;5.130622e-002
3.745240e+003;5.115593e-002
3.747169e+003;5.144387e-002
3.749097e+003;5.133165e-002
3.751026e+003;5.125573e-002
3.752954e+003;5.146401e-002
3.754883e+003;5.174959e-002
3.756812e+003;5.188865e-002
3.758740e+003;5.184187e-002
3.760668e+003;5.143768e-002
3.762597e+003;5.124969e-002
3.764526e+003;5.149621e-002
3.766454e+003;5.139885e-002
3.768383e+003;5.096840e-002
3.770311e+003;5.080244e-002
3.772240e+003;5.123161e-002
3.774168e+003;5.125409e-002
3.776097e+003;5.104151e-002
3.778025e+003;5.088494e-002
3.779954e+003;5.105772e-002
3.781883e+003;5.149595e-002
3.783811e+003;5.126483e-002
3.785740e+003;5.132893e-002
3.787668e+003;5.193701e-002
3.789597e+003;5.190501e-002
3.791525e+003;5.166139e-002
3.793454e+003;5.202675e-002
3.795382e+003;5.207946e-002
3.797311e+003;5.188891e-002
3.799240e+003;5.209970e-002
3.801168e+003;5.234009e-002
3.803097e+003;5.261180e-002
3.805025e+003;5.229285e-002
3.806954e+003;5.182425e-002
3.808882e+003;5.161012e-002
3.810811e+003;5.185240e-002
3.812739e+003;5.208487e-002
3.814668e+003;5.145074e-002
3.816596e+003;5.116462e-002
3.818525e+003;5.145234e-002
3.820454e+003;5.137394e-002
3.822382e+003;5.106074e-002
3.824311e+003;5.142116e-002
3.826239e+003;5.229277e-002
3.828168e+003;5.256752e-002
3.830096e+003;5.222831e-002
3.832025e+003;5.196718e-002
3.833953e+003;5.186625e-002
3.835882e+003;5.183470e-002
3.837811e+003;5.199564e-002
3.839739e+003;5.227368e-002
3.841667e+003;5.228657e-002
3.843596e+003;5.260110e-002
3.845525e+003;5.261371e-002
3.847453e+003;5.209137e-002
3.849382e+003;5.205746e-002
3.851310e+003;5.253977e-002
3.853239e+003;5.236072e-002
3.855167e+003;5.197110e-002
3.857096e+003;5.187364e-002
3.859024e+003;5.243661e-002
3.860953e+003;5.309331e-002
3.862882e+003;5.333357e-002
3.864810e+003;5.330308e-002
3.866739e+003;5.317558e-002
3.868667e+003;5.315775e-002
3.870596e+003;5.329334e-002
3.872524e+003;5.338569e-002
3.874453e+003;5.326764e-002
3.876381e+003;5.340210e-002
3.878310e+003;5.368144e-002
3.880239e+003;5.417341e-002
3.882167e+003;5.417105e-002
3.884096e+003;5.352974e-002
3.886024e+003;5.352258e-002
3.887953e+003;5.405118e-002
3.889881e+003;5.437075e-002
3.891810e+003;5.469341e-002
3.893738e+003;5.368126e-002
3.895667e+003;5.299934e-002
3.897595e+003;5.311589e-002
3.899524e+003;5.329379e-002
3.901453e+003;5.385688e-002
3.903381e+003;5.461341e-002
3.905310e+003;5.464434e-002
3.907238e+003;5.423449e-002
3.909167e+003;5.398011e-002
3.911095e+003;5.423629e-002
3.913024e+003;5.434116e-002
3.914952e+003;5.440808e-002
3.916881e+003;5.451595e-002
3.918810e+003;5.438682e-002
3.920738e+003;5.419192e-002
3.922667e+003;5.468732e-002
3.924595e+003;5.525407e-002
3.926524e+003;5.531789e-002
3.928452e+003;5.499288e-002
3.930381e+003;5.514590e-002
3.932309e+003;5.563312e-002
3.934238e+003;5.564262e-002
3.936167e+003;5.554079e-002
3.938095e+003;5.583365e-002
3.940023e+003;5.592816e-002
3.941952e+003;5.546721e-002
3.943881e+003;5.492591e-002
3.945809e+003;5.519484e-002
3.947738e+003;5.631953e-002
3.949666e+003;5.613926e-002
3.951595e+003;5.602194e-002
3.953523e+003;5.637394e-002
3.955452e+003;5.606962e-002
3.957380e+003;5.566958e-002
3.959309e+003;5.557159e-002
3.961238e+003;5.559772e-002
3.963166e+003;5.571087e-002
3.965095e+003;5.566521e-002
3.967023e+003;5.557991e-002
3.968952e+003;5.592895e-002
3.970880e+003;5.675835e-002
3.972809e+003;5.753588e-002
3.974737e+003;5.746655e-002
3.976666e+003;5.667125e-002
3.978594e+003;5.624014e-002
3.980523e+003;5.652736e-002
3.982452e+003;5.687353e-002
3.984380e+003;5.703975e-002
3.986309e+003;5.709908e-002
3.988237e+003;5.671738e-002
3.990166e+003;5.624402e-002
3.992094e+003;5.641419e-002
3.994023e+003;5.663912e-002
3.995951e+003;5.633459e-002
3.997880e+003;5.666940e-002
3.999809e+003;5.734508e-002
4.001737e+003;0.000000e+000
