3.992094e+002;0.000000e+000
4.011380e+002;0.000000e+000
4.030665e+002;0.000000e+000
4.049951e+002;0.000000e+000
4.069236e+002;0.000000e+000
4.088522e+002;0.000000e+000
4.107807e+002;0.000000e+000
4.127093e+002;0.000000e+000
4.146378e+002;0.000000e+000
4.165664e+002;0.000000e+000
4.184949e+002;0.000000e+000
4.204235e+002;0.000000e+000
4.223520e+002;0.000000e+000
4.242806e+002;0.000000e+000
4.262091e+002;0.000000e+000
4.281377e+002;0.000000e+000
4.300662e+002;0.000000e+000
4.319948e+002;0.000000e+000
4.339233e+002;0.000000e+000
4.358519e+002;0.000000e+000
4.377804e+002;0.000000e+000
4.397090e+002;0.000000e+000
4.416375e+002;0.000000e+000
4.435660e+002;0.000000e+000
4.454946e+002;0.000000e+000
4.474232e+002;0.000000e+000
4.493517e+002;0.000000e+000
4.512802e+002;0.000000e+000
4.532088e+002;0.000000e+000
4.551373e+002;0.000000e+000
4.570659e+002;0.000000e+000
4.589944e+002;0.000000e+000
4.609230e+002;0.000000e+000
4.628515e+002;0.000000e+000
4.647801e+002;0.000000e+000
4.667086e+002;0.000000e+000
4.686372e+002;0.000000e+000
4.705657e+002;0.000000e+000
4.724943e+002;0.000000e+000
4.744228e+002;0.000000e+000
4.763513e+002;0.000000e+000
4.782799e+002;0.000000e+000
4.802085e+002;0.000000e+000
4.821370e+002;0.000000e+000
4.840656e+002;0.000000e+000
4.859941e+002;0.000000e+000
4.879226e+002;0.000000e+000
4.898512e+002;0.000000e+000
4.917798e+002;0.000000e+000
4.937083e+002;0.000000e+000
4.956368e+002;0.000000e+000
4.975654e+002;0.000000e+000
4.994939e+002;0.000000e+000
5.014225e+002;0.000000e+000
5.033510e+002;0.000000e+000
5.052796e+002;0.000000e+000
5.072081e+002;0.000000e+000
5.091367e+002;0.000000e+000
5.110652e+002;0.000000e+000
5.129938e+002;0.000000e+000
5.149223e+002;0.000000e+000
5.168509e+002;0.000000e+000
5.187794e+002;0.000000e+000
5.207079e+002;0.000000e+000
5.226365e+002;0.000000e+000
5.245651e+002;0.000000e+000
5.264936e+002;0.000000e+000
5.284222e+002;0.000000e+000
5.303507e+002;0.000000e+000
5.322792e+002;0.000000e+000
5.342078e+002;0.000000e+000
5.361364e+002;0.000000e+000
5.380649e+002;0.000000e+000
5.399935e+002;0.000000e+000
5.419220e+002;0.000000e+000
5.438505e+002;0.000000e+000
5.457791e+002;0.000000e+000
5.477076e+002;0.000000e+000
5.496362e+002;0.000000e+000
5.515648e+002;0.000000e+000
5.534933e+002;0.000000e+000
5.554218e+002;0.000000e+000
5.573504e+002;0.000000e+000
5.592789e+002;0.000000e+000
5.612075e+002;0.000000e+000
5.631360e+002;0.000000e+000
5.650646e+002;0.000000e+000
5.669931e+002;0.000000e+000
5.689217e+002;0.000000e+000
5.708502e+002;0.000000e+000
5.727787e+002;0.000000e+000
5.747073e+002;0.000000e+000
5.766359e+002;0.000000e+000
5.785644e+002;0.000000e+000
5.804930e+002;0.000000e+000
5.824215e+002;0.000000e+000
5.843500e+002;0.000000e+000
5.862786e+002;0.000000e+000
5.882072e+002;0.000000e+000
5.901357e+002;0.000000e+000
5.920643e+002;0.000000e+000
5.939928e+002;0.000000e+000
5.959213e+002;0.000000e+000
5.978499e+002;0.000000e+000
5.997784e+002;1.434132e-001
6.017070e+002;1.539608e-001
6.036355e+002;1.564822e-001
6.055641e+002;1.476521e-001
6.074926e+002;1.443280e-001
6.094211e+002;1.428108e-001
6.113497e+002;1.433563e-001
6.132783e+002;1.424187e-001
6.152068e+002;1.419441e-001
6.171354e+002;1.422877e-001
6.190639e+002;1.379416e-001
6.209924e+002;1.351908e-001
6.229210e+002;1.390872e-001
6.248495e+002;1.376892e-001
6.267781e+002;1.322334e-001
6.287067e+002;1.300669e-001
6.306352e+002;1.294758e-001
6.325637e+002;1.299803e-001
6.344923e+002;1.285573e-001
6.364208e+002;1.291586e-001
6.383494e+002;1.317284e-001
6.402780e+002;1.298580e-001
6.422065e+002;1.269547e-001
6.441350e+002;1.264166e-001
6.460636e+002;1.233143e-001
6.479921e+002;1.199184e-001
6.499207e+002;1.222376e-001
6.518492e+002;1.234455e-001
6.537778e+002;1.238488e-001
6.557063e+002;1.249739e-001
6.576349e+002;1.270760e-001
6.595634e+002;1.264940e-001
6.614919e+002;1.250287e-001
6.634205e+002;1.227306e-001
6.653491e+002;1.216129e-001
6.672776e+002;1.195786e-001
6.692062e+002;1.203368e-001
6.711347e+002;1.203286e-001
6.730632e+002;1.175724e-001
6.749918e+002;1.150963e-001
6.769203e+002;1.116351e-001
6.788489e+002;1.089273e-001
6.807775e+002;1.073830e-001
6.827060e+002;1.054205e-001
6.846345e+002;1.054551e-001
6.865631e+002;1.055527e-001
6.884916e+002;1.036829e-001
6.904202e+002;1.025974e-001
6.923488e+002;1.033507e-001
6.942773e+002;1.035301e-001
6.962058e+002;1.029287e-001
6.981344e+002;1.010433e-001
7.000629e+002;1.004634e-001
7.019915e+002;9.953781e-002
7.039200e+002;9.871098e-002
7.058486e+002;9.854427e-002
7.077771e+002;9.676735e-002
7.097057e+002;9.534873e-002
7.116342e+002;9.497540e-002
7.135627e+002;9.370636e-002
7.154913e+002;9.188218e-002
7.174199e+002;9.163939e-002
7.193484e+002;9.175087e-002
7.212770e+002;8.982386e-002
7.232055e+002;8.745039e-002
7.251340e+002;8.623622e-002
7.270626e+002;8.558235e-002
7.289911e+002;8.508439e-002
7.309197e+002;8.380787e-002
7.328483e+002;8.325966e-002
7.347768e+002;8.413962e-002
7.367053e+002;8.383994e-002
7.386339e+002;8.140633e-002
7.405624e+002;7.899690e-002
7.424910e+002;7.855251e-002
7.444196e+002;7.856812e-002
7.463481e+002;7.856724e-002
7.482766e+002;7.857618e-002
7.502052e+002;7.858571e-002
7.521337e+002;7.822175e-002
7.540623e+002;7.789362e-002
7.559908e+002;7.755104e-002
7.579194e+002;7.642989e-002
7.598479e+002;7.581519e-002
7.617765e+002;7.496107e-002
7.637050e+002;7.502947e-002
7.656335e+002;7.576068e-002
7.675621e+002;7.601500e-002
7.694907e+002;7.596736e-002
7.714192e+002;7.576288e-002
7.733478e+002;7.575558e-002
7.752763e+002;7.613114e-002
7.772048e+002;7.707690e-002
7.791334e+002;7.682655e-002
7.810620e+002;7.594541e-002
7.829905e+002;7.634700e-002
7.849191e+002;7.640366e-002
7.868476e+002;7.553986e-002
7.887761e+002;7.472208e-002
7.907047e+002;7.375401e-002
7.926332e+002;7.272416e-002
7.945618e+002;7.351247e-002
7.964903e+002;7.397860e-002
7.984189e+002;7.375845e-002
8.003474e+002;7.399506e-002
8.022759e+002;7.411884e-002
8.042045e+002;7.380581e-002
8.061331e+002;7.386778e-002
8.080616e+002;7.369269e-002
8.099902e+002;7.424450e-002
8.119187e+002;7.485843e-002
8.138472e+002;7.460797e-002
8.157758e+002;7.459220e-002
8.177043e+002;7.522462e-002
8.196329e+002;7.546546e-002
8.215615e+002;7.570056e-002
8.234900e+002;7.560634e-002
8.254185e+002;7.515635e-002
8.273471e+002;7.630821e-002
8.292756e+002;7.676842e-002
8.312042e+002;7.595149e-002
8.331328e+002;7.630493e-002
8.350613e+002;7.703156e-002
8.369898e+002;7.754197e-002
8.389184e+002;7.770270e-002
8.408469e+002;7.778676e-002
8.427755e+002;7.775850e-002
8.447040e+002;7.770306e-002
8.466326e+002;7.700494e-002
8.485611e+002;7.675526e-002
8.504897e+002;7.748652e-002
8.524182e+002;7.831249e-002
8.543467e+002;7.865866e-002
8.562753e+002;7.831936e-002
8.582039e+002;7.880681e-002
8.601324e+002;8.059181e-002
8.620610e+002;8.244848e-002
8.639895e+002;8.344160e-002
8.659180e+002;8.444686e-002
8.678466e+002;8.582801e-002
8.697751e+002;8.683994e-002
8.717037e+002;8.689050e-002
8.736323e+002;8.739869e-002
8.755608e+002;8.823104e-002
8.774893e+002;8.916222e-002
8.794179e+002;9.066308e-002
8.813464e+002;9.228433e-002
8.832750e+002;9.445956e-002
8.852036e+002;9.643116e-002
8.871321e+002;9.781008e-002
8.890606e+002;9.939525e-002
8.909892e+002;1.007282e-001
8.929177e+002;1.012620e-001
8.948463e+002;1.016346e-001
8.967748e+002;1.023825e-001
8.987034e+002;1.019319e-001
9.006319e+002;1.007249e-001
9.025605e+002;9.965229e-002
9.044890e+002;9.831788e-002
9.064175e+002;9.793153e-002
9.083461e+002;9.801058e-002
9.102747e+002;9.749829e-002
9.122032e+002;9.739541e-002
9.141318e+002;9.766683e-002
9.160603e+002;9.836608e-002
9.179888e+002;9.879836e-002
9.199174e+002;9.890915e-002
9.218459e+002;9.906779e-002
9.237745e+002;1.001268e-001
9.257031e+002;1.017510e-001
9.276316e+002;1.028469e-001
9.295601e+002;1.034290e-001
9.314887e+002;1.043627e-001
9.334172e+002;1.061503e-001
9.353458e+002;1.078782e-001
9.372744e+002;1.092068e-001
9.392029e+002;1.108019e-001
9.411314e+002;1.126997e-001
9.430600e+002;1.148006e-001
9.449885e+002;1.172071e-001
9.469171e+002;1.200167e-001
9.488456e+002;1.228598e-001
9.507742e+002;1.257592e-001
9.527027e+002;1.291957e-001
9.546313e+002;1.325774e-001
9.565598e+002;1.363949e-001
9.584883e+002;1.400337e-001
9.604169e+002;1.433765e-001
9.623455e+002;1.469962e-001
9.642740e+002;1.507757e-001
9.662026e+002;1.547851e-001
9.681311e+002;1.591600e-001
9.700596e+002;1.633456e-001
9.719882e+002;1.679685e-001
9.739167e+002;1.734548e-001
9.758453e+002;1.794021e-001
9.777739e+002;1.858165e-001
9.797024e+002;1.920203e-001
9.816309e+002;1.972606e-001
9.835595e+002;2.008060e-001
9.854880e+002;2.027134e-001
9.874166e+002;2.036116e-001
9.893452e+002;2.034462e-001
9.912737e+002;2.025592e-001
9.932022e+002;2.017493e-001
9.951307e+002;2.023943e-001
9.970593e+002;2.042230e-001
9.989879e+002;2.063481e-001
1.000916e+003;2.082669e-001
1.002845e+003;2.101110e-001
1.004773e+003;2.122147e-001
1.006702e+003;2.143031e-001
1.008631e+003;2.153061e-001
1.010559e+003;2.153670e-001
1.012488e+003;2.158885e-001
1.014416e+003;2.166833e-001
1.016345e+003;2.178846e-001
1.018273e+003;2.195647e-001
1.020202e+003;2.200326e-001
1.022130e+003;2.202739e-001
1.024059e+003;2.209735e-001
1.025988e+003;2.221389e-001
1.027916e+003;2.231678e-001
1.029845e+003;2.236363e-001
1.031773e+003;2.225419e-001
1.033702e+003;2.200239e-001
1.035630e+003;2.171950e-001
1.037559e+003;2.141186e-001
1.039487e+003;2.114942e-001
1.041416e+003;2.097169e-001
1.043344e+003;2.081038e-001
1.045273e+003;2.066602e-001
1.047202e+003;2.050950e-001
1.049130e+003;2.027142e-001
1.051059e+003;1.997093e-001
1.052987e+003;1.965668e-001
1.054916e+003;1.927191e-001
1.056844e+003;1.868530e-001
1.058773e+003;1.799219e-001
1.060701e+003;1.732491e-001
1.062630e+003;1.668855e-001
1.064558e+003;1.596314e-001
1.066487e+003;1.519926e-001
1.068416e+003;1.468837e-001
1.070344e+003;1.431109e-001
1.072273e+003;1.388259e-001
1.074201e+003;1.352371e-001
1.076130e+003;1.330630e-001
1.078058e+003;1.314147e-001
1.079987e+003;1.306707e-001
1.081915e+003;1.310513e-001
1.083844e+003;1.298381e-001
1.085773e+003;1.278585e-001
1.087701e+003;1.277439e-001
1.089630e+003;1.292393e-001
1.091558e+003;1.295665e-001
1.093487e+003;1.303953e-001
1.095415e+003;1.315886e-001
1.097344e+003;1.328060e-001
1.099272e+003;1.341022e-001
1.101201e+003;1.335537e-001
1.103129e+003;1.323475e-001
1.105058e+003;1.316090e-001
1.106987e+003;1.296196e-001
1.108915e+003;1.255895e-001
1.110844e+003;1.216205e-001
1.112772e+003;1.177612e-001
1.114701e+003;1.129181e-001
1.116629e+003;1.090641e-001
1.118558e+003;1.066034e-001
1.120486e+003;1.041041e-001
1.122415e+003;1.017815e-001
1.124344e+003;9.921304e-002
1.126272e+003;9.604595e-002
1.128201e+003;9.256952e-002
1.130129e+003;8.880068e-002
1.132058e+003;8.581828e-002
1.133986e+003;8.379011e-002
1.135915e+003;8.189974e-002
1.137843e+003;8.003686e-002
1.139772e+003;7.890387e-002
1.141700e+003;7.860278e-002
1.143629e+003;7.869288e-002
1.145557e+003;7.904229e-002
1.147486e+003;7.867970e-002
1.149415e+003;7.826658e-002
1.151343e+003;7.767916e-002
1.153272e+003;7.664598e-002
1.155200e+003;7.565544e-002
1.157129e+003;7.429325e-002
1.159057e+003;7.240442e-002
1.160986e+003;7.070962e-002
1.162914e+003;6.903227e-002
1.164843e+003;6.706393e-002
1.166771e+003;6.550013e-002
1.168700e+003;6.437095e-002
1.170629e+003;6.272104e-002
1.172557e+003;6.059220e-002
1.174486e+003;5.902582e-002
1.176414e+003;5.844299e-002
1.178343e+003;5.877560e-002
1.180271e+003;5.896900e-002
1.182200e+003;5.909237e-002
1.184128e+003;5.962255e-002
1.186057e+003;6.044712e-002
1.187986e+003;6.165199e-002
1.189914e+003;6.343003e-002
1.191843e+003;6.492232e-002
1.193771e+003;6.610192e-002
1.195700e+003;6.766050e-002
1.197628e+003;6.934405e-002
1.199557e+003;7.090762e-002
1.201485e+003;7.218558e-002
1.203414e+003;7.322325e-002
1.205343e+003;7.446907e-002
1.207271e+003;7.560027e-002
1.209200e+003;7.680812e-002
1.211128e+003;7.810485e-002
1.213057e+003;7.973067e-002
1.214985e+003;8.153724e-002
1.216914e+003;8.373550e-002
1.218842e+003;8.649651e-002
1.220771e+003;8.898678e-002
1.222699e+003;9.099709e-002
1.224628e+003;9.260847e-002
1.226557e+003;9.429913e-002
1.228485e+003;9.573146e-002
1.230414e+003;9.678221e-002
1.232342e+003;9.742120e-002
1.234271e+003;9.807798e-002
1.236199e+003;9.810302e-002
1.238128e+003;9.773301e-002
1.240056e+003;9.729852e-002
1.241985e+003;9.661042e-002
1.243913e+003;9.572700e-002
1.245842e+003;9.439103e-002
1.247771e+003;9.287240e-002
1.249699e+003;9.144872e-002
1.251628e+003;9.036850e-002
1.253556e+003;8.937494e-002
1.255485e+003;8.786423e-002
1.257413e+003;8.599006e-002
1.259342e+003;8.449081e-002
1.261270e+003;8.340603e-002
1.263199e+003;8.206670e-002
1.265127e+003;8.019763e-002
1.267056e+003;7.857768e-002
1.268985e+003;7.720667e-002
1.270913e+003;7.561387e-002
1.272842e+003;7.422374e-002
1.274770e+003;7.300144e-002
1.276699e+003;7.145990e-002
1.278627e+003;6.984620e-002
1.280556e+003;6.849638e-002
1.282484e+003;6.683268e-002
1.284413e+003;6.546291e-002
1.286342e+003;6.480894e-002
1.288270e+003;6.422637e-002
1.290199e+003;6.354405e-002
1.292127e+003;6.296735e-002
1.294056e+003;6.285674e-002
1.295984e+003;6.320164e-002
1.297913e+003;6.351329e-002
1.299841e+003;6.424082e-002
1.301770e+003;6.553338e-002
1.303698e+003;6.663386e-002
1.305627e+003;6.818571e-002
1.307556e+003;7.025586e-002
1.309484e+003;7.194197e-002
1.311413e+003;7.322650e-002
1.313341e+003;7.443206e-002
1.315270e+003;7.540298e-002
1.317198e+003;7.567153e-002
1.319127e+003;7.543294e-002
1.321055e+003;7.507335e-002
1.322984e+003;7.433280e-002
1.324912e+003;7.348582e-002
1.326841e+003;7.250571e-002
1.328770e+003;7.169057e-002
1.330698e+003;7.142053e-002
1.332627e+003;7.095795e-002
1.334555e+003;6.994755e-002
1.336484e+003;6.854200e-002
1.338412e+003;6.695212e-002
1.340341e+003;6.551711e-002
1.342269e+003;6.416000e-002
1.344198e+003;6.278329e-002
1.346126e+003;6.185677e-002
1.348055e+003;6.107376e-002
1.349984e+003;6.070829e-002
1.351912e+003;6.100721e-002
1.353841e+003;6.162038e-002
1.355769e+003;6.218210e-002
1.357698e+003;6.291637e-002
1.359626e+003;6.373636e-002
1.361555e+003;6.422392e-002
1.363483e+003;6.459974e-002
1.365412e+003;6.510836e-002
1.367341e+003;6.506794e-002
1.369269e+003;6.447446e-002
1.371198e+003;6.377865e-002
1.373126e+003;6.245652e-002
1.375055e+003;6.056900e-002
1.376983e+003;5.882059e-002
1.378912e+003;5.713128e-002
1.380840e+003;5.489343e-002
1.382769e+003;5.252358e-002
1.384698e+003;5.070855e-002
1.386626e+003;4.924549e-002
1.388555e+003;4.803646e-002
1.390483e+003;4.710316e-002
1.392412e+003;4.617069e-002
1.394340e+003;4.546111e-002
1.396269e+003;4.506804e-002
1.398197e+003;4.462086e-002
1.400126e+003;4.481188e-002
1.402054e+003;4.528309e-002
1.403983e+003;4.546351e-002
1.405911e+003;4.586291e-002
1.407840e+003;4.634233e-002
1.409769e+003;4.703920e-002
1.411697e+003;4.824005e-002
1.413626e+003;4.946744e-002
1.415554e+003;5.060240e-002
1.417483e+003;5.173249e-002
1.419411e+003;5.261498e-002
1.421340e+003;5.320333e-002
1.423268e+003;5.322573e-002
1.425197e+003;5.252900e-002
1.427125e+003;5.125882e-002
1.429054e+003;5.010698e-002
1.430983e+003;4.909299e-002
1.432911e+003;4.784583e-002
1.434840e+003;4.623275e-002
1.436768e+003;4.503819e-002
1.438697e+003;4.494496e-002
1.440625e+003;4.525135e-002
1.442554e+003;4.544901e-002
1.444482e+003;4.569038e-002
1.446411e+003;4.599141e-002
1.448340e+003;4.630875e-002
1.450268e+003;4.696724e-002
1.452197e+003;4.754532e-002
1.454125e+003;4.770731e-002
1.456054e+003;4.693494e-002
1.457982e+003;4.644081e-002
1.459911e+003;4.658943e-002
1.461839e+003;4.633455e-002
1.463768e+003;4.526054e-002
1.465697e+003;4.372074e-002
1.467625e+003;4.211561e-002
1.469554e+003;4.012283e-002
1.471482e+003;3.766389e-002
1.473411e+003;3.546956e-002
1.475339e+003;3.387417e-002
1.477268e+003;3.271088e-002
1.479196e+003;3.176770e-002
1.481125e+003;3.078619e-002
1.483053e+003;2.995377e-002
1.484982e+003;2.923379e-002
1.486911e+003;2.862378e-002
1.488839e+003;2.842124e-002
1.490768e+003;2.897486e-002
1.492696e+003;2.968008e-002
1.494625e+003;2.982673e-002
1.496553e+003;3.022280e-002
1.498482e+003;3.139668e-002
1.500410e+003;3.260664e-002
1.502339e+003;3.339034e-002
1.504267e+003;3.304390e-002
1.506196e+003;3.171946e-002
1.508125e+003;3.111340e-002
1.510053e+003;3.077808e-002
1.511982e+003;2.996360e-002
1.513910e+003;2.857165e-002
1.515839e+003;2.686612e-002
1.517767e+003;2.549490e-002
1.519696e+003;2.371302e-002
1.521624e+003;2.171606e-002
1.523553e+003;2.064755e-002
1.525481e+003;1.993540e-002
1.527410e+003;1.942408e-002
1.529339e+003;1.893763e-002
1.531267e+003;1.834107e-002
1.533196e+003;1.798719e-002
1.535124e+003;1.836071e-002
1.537053e+003;1.807329e-002
1.538981e+003;1.654900e-002
1.540910e+003;1.619802e-002
1.542838e+003;1.709168e-002
1.544767e+003;1.770868e-002
1.546695e+003;1.807029e-002
1.548624e+003;1.804041e-002
1.550553e+003;1.842735e-002
1.552481e+003;1.870898e-002
1.554410e+003;1.873711e-002
1.556338e+003;1.850303e-002
1.558267e+003;1.811571e-002
1.560195e+003;1.903563e-002
1.562124e+003;2.057802e-002
1.564052e+003;2.166124e-002
1.565981e+003;2.263799e-002
1.567910e+003;2.335658e-002
1.569838e+003;2.412390e-002
1.571767e+003;2.538082e-002
1.573695e+003;2.686252e-002
1.575624e+003;2.844190e-002
1.577552e+003;3.049875e-002
1.579481e+003;3.256807e-002
1.581409e+003;3.461829e-002
1.583338e+003;3.664519e-002
1.585266e+003;3.862769e-002
1.587195e+003;4.030709e-002
1.589124e+003;4.176043e-002
1.591052e+003;4.288381e-002
1.592981e+003;4.351947e-002
1.594909e+003;4.372162e-002
1.596838e+003;4.348984e-002
1.598766e+003;4.278953e-002
1.600695e+003;4.242941e-002
1.602623e+003;4.226996e-002
1.604552e+003;4.154307e-002
1.606480e+003;4.077892e-002
1.608409e+003;4.048450e-002
1.610338e+003;4.035599e-002
1.612266e+003;4.006589e-002
1.614195e+003;3.952710e-002
1.616123e+003;3.883177e-002
1.618052e+003;3.906678e-002
1.619980e+003;3.969324e-002
1.621909e+003;3.908414e-002
1.623837e+003;3.851630e-002
1.625766e+003;3.861171e-002
1.627694e+003;3.871537e-002
1.629623e+003;3.869208e-002
1.631552e+003;3.849791e-002
1.633480e+003;3.799733e-002
1.635409e+003;3.763328e-002
1.637337e+003;3.789977e-002
1.639266e+003;3.824563e-002
1.641194e+003;3.834699e-002
1.643123e+003;3.823170e-002
1.645051e+003;3.772612e-002
1.646980e+003;3.711558e-002
1.648909e+003;3.760358e-002
1.650837e+003;3.714200e-002
1.652766e+003;3.609553e-002
1.654694e+003;3.680593e-002
1.656623e+003;3.762642e-002
1.658551e+003;3.781474e-002
1.660480e+003;3.780176e-002
1.662408e+003;3.755676e-002
1.664337e+003;3.744933e-002
1.666266e+003;3.722477e-002
1.668194e+003;3.668967e-002
1.670123e+003;3.644432e-002
1.672051e+003;3.661025e-002
1.673980e+003;3.675234e-002
1.675908e+003;3.676940e-002
1.677837e+003;3.670280e-002
1.679765e+003;3.646385e-002
1.681694e+003;3.595348e-002
1.683622e+003;3.510575e-002
1.685551e+003;3.517929e-002
1.687479e+003;3.591385e-002
1.689408e+003;3.632913e-002
1.691337e+003;3.677048e-002
1.693265e+003;3.695126e-002
1.695194e+003;3.665246e-002
1.697122e+003;3.736222e-002
1.699051e+003;3.819552e-002
1.700979e+003;3.936542e-002
1.702908e+003;4.112795e-002
1.704836e+003;4.242491e-002
1.706765e+003;4.384439e-002
1.708693e+003;4.533917e-002
1.710622e+003;4.673195e-002
1.712551e+003;4.838270e-002
1.714479e+003;4.971949e-002
1.716408e+003;5.036989e-002
1.718336e+003;5.164284e-002
1.720265e+003;5.368220e-002
1.722193e+003;5.500845e-002
1.724122e+003;5.577540e-002
1.726050e+003;5.643139e-002
1.727979e+003;5.667970e-002
1.729908e+003;5.664388e-002
1.731836e+003;5.633647e-002
1.733765e+003;5.580825e-002
1.735693e+003;5.567994e-002
1.737622e+003;5.529046e-002
1.739550e+003;5.429542e-002
1.741479e+003;5.304041e-002
1.743407e+003;5.148233e-002
1.745336e+003;4.981840e-002
1.747265e+003;4.790432e-002
1.749193e+003;4.610491e-002
1.751122e+003;4.424909e-002
1.753050e+003;4.259242e-002
1.754979e+003;4.056500e-002
1.756907e+003;3.837978e-002
1.758836e+003;3.622352e-002
1.760764e+003;3.352784e-002
1.762693e+003;3.123355e-002
1.764621e+003;2.919498e-002
1.766550e+003;2.666204e-002
1.768479e+003;2.461511e-002
1.770407e+003;2.291188e-002
1.772336e+003;2.096199e-002
1.774264e+003;1.958450e-002
1.776193e+003;1.849871e-002
1.778121e+003;1.727814e-002
1.780050e+003;1.620077e-002
1.781978e+003;1.506737e-002
1.783907e+003;1.387910e-002
1.785835e+003;1.278310e-002
1.787764e+003;1.185323e-002
1.789693e+003;1.071671e-002
1.791621e+003;9.562452e-003
1.793550e+003;8.950822e-003
1.795478e+003;8.458792e-003
1.797407e+003;7.695770e-003
1.799335e+003;6.810646e-003
1.801264e+003;5.977575e-003
1.803192e+003;5.600285e-003
1.805121e+003;5.516081e-003
1.807049e+003;5.052563e-003
1.808978e+003;4.388669e-003
1.810907e+003;4.021820e-003
1.812835e+003;3.828232e-003
1.814764e+003;3.396564e-003
1.816692e+003;3.047802e-003
1.818621e+003;2.808057e-003
1.820549e+003;2.309942e-003
1.822478e+003;2.028458e-003
1.824406e+003;1.934426e-003
1.826335e+003;1.739970e-003
1.828264e+003;1.536689e-003
1.830192e+003;1.544736e-003
1.832121e+003;1.547097e-003
1.834049e+003;9.315347e-004
1.835978e+003;6.197503e-004
1.837906e+003;5.404209e-004
1.839835e+003;6.157354e-004
1.841763e+003;6.642488e-004
1.843692e+003;2.918101e-004
1.845620e+003;5.805472e-005
1.847549e+003;2.770094e-005
1.849478e+003;2.571631e-004
1.851406e+003;7.893245e-005
1.853335e+003;-2.579050e-004
1.855263e+003;-2.801904e-004
1.857192e+003;-4.624374e-004
1.859120e+003;-5.403780e-004
1.861049e+003;-6.220104e-004
1.862977e+003;-8.257100e-004
1.864906e+003;-9.297062e-004
1.866834e+003;-1.243329e-003
1.868763e+003;-1.285155e-003
1.870692e+003;-9.313594e-004
1.872620e+003;-8.913843e-004
1.874549e+003;-1.023529e-003
1.876477e+003;-1.051626e-003
1.878406e+003;-1.245246e-003
1.880334e+003;-1.418502e-003
1.882263e+003;-1.391221e-003
1.884191e+003;-1.366483e-003
1.886120e+003;-1.422432e-003
1.888048e+003;-1.417412e-003
1.889977e+003;-1.212932e-003
1.891906e+003;-1.019430e-003
1.893834e+003;-1.249310e-003
1.895763e+003;-1.423323e-003
1.897691e+003;-1.217261e-003
1.899620e+003;-1.037347e-003
1.901548e+003;-1.071921e-003
1.903477e+003;-1.104146e-003
1.905405e+003;-1.138384e-003
1.907334e+003;-1.195420e-003
1.909262e+003;-1.181806e-003
1.911191e+003;-1.356276e-003
1.913120e+003;-1.467410e-003
1.915048e+003;-1.204870e-003
1.916977e+003;-1.006009e-003
1.918905e+003;-8.408894e-004
1.920834e+003;-5.819407e-004
1.922762e+003;-5.456398e-004
1.924691e+003;-4.979179e-004
1.926619e+003;-5.256846e-004
1.928548e+003;-3.816358e-004
1.930477e+003;-2.216764e-004
1.932405e+003;-3.963342e-004
1.934334e+003;-5.741976e-004
1.936262e+003;-4.343688e-004
1.938191e+003;-1.338078e-004
1.940119e+003;-2.434007e-004
1.942048e+003;-5.371019e-004
1.943976e+003;-6.167496e-004
1.945905e+003;-3.900444e-004
1.947833e+003;2.740272e-005
1.949762e+003;2.720162e-004
1.951691e+003;9.424343e-005
1.953619e+003;-6.894647e-005
1.955548e+003;8.622333e-005
1.957476e+003;4.896657e-004
1.959405e+003;4.196133e-004
1.961333e+003;1.082293e-004
1.963262e+003;5.318339e-005
1.965190e+003;2.890250e-004
1.967119e+003;4.387174e-004
1.969047e+003;3.808439e-004
1.970976e+003;5.532932e-004
1.972905e+003;6.505769e-004
1.974833e+003;4.113551e-004
1.976762e+003;4.529133e-004
1.978690e+003;7.279682e-004
1.980619e+003;8.346527e-004
1.982547e+003;1.025748e-003
1.984476e+003;1.231581e-003
1.986404e+003;1.089155e-003
1.988333e+003;1.112474e-003
1.990261e+003;1.311136e-003
1.992190e+003;1.298873e-003
1.994119e+003;1.525018e-003
1.996047e+003;1.685947e-003
1.997976e+003;1.506930e-003
1.999904e+003;1.566350e-003
2.001833e+003;1.844907e-003
2.003761e+003;2.075731e-003
2.005690e+003;2.093210e-003
2.007618e+003;2.000229e-003
2.009547e+003;1.978993e-003
2.011476e+003;2.179350e-003
2.013404e+003;2.515584e-003
2.015333e+003;2.739263e-003
2.017261e+003;2.805956e-003
2.019190e+003;3.032820e-003
2.021118e+003;3.203756e-003
2.023047e+003;3.433901e-003
2.024975e+003;3.803864e-003
2.026904e+003;3.871222e-003
2.028833e+003;4.011151e-003
2.030761e+003;4.326653e-003
2.032690e+003;4.391381e-003
2.034618e+003;4.112257e-003
2.036547e+003;4.106838e-003
2.038475e+003;4.551166e-003
2.040404e+003;4.682875e-003
2.042332e+003;4.648814e-003
2.044261e+003;4.672727e-003
2.046189e+003;4.450527e-003
2.048118e+003;4.383582e-003
2.050047e+003;4.527929e-003
2.051975e+003;4.835329e-003
2.053904e+003;5.019579e-003
2.055832e+003;4.785410e-003
2.057761e+003;4.625973e-003
2.059689e+003;4.712517e-003
2.061618e+003;4.640206e-003
2.063546e+003;4.387063e-003
2.065475e+003;4.550027e-003
2.067404e+003;4.629691e-003
2.069332e+003;4.809598e-003
2.071260e+003;5.234591e-003
2.073189e+003;5.383012e-003
2.075118e+003;5.293886e-003
2.077046e+003;5.267658e-003
2.078975e+003;5.296569e-003
2.080903e+003;5.375699e-003
2.082832e+003;5.655468e-003
2.084760e+003;5.476284e-003
2.086689e+003;5.081527e-003
2.088617e+003;5.101742e-003
2.090546e+003;5.523296e-003
2.092475e+003;5.597936e-003
2.094403e+003;5.700049e-003
2.096332e+003;5.846212e-003
2.098260e+003;5.701594e-003
2.100189e+003;5.726572e-003
2.102117e+003;5.783349e-003
2.104046e+003;5.985100e-003
2.105974e+003;6.286003e-003
2.107903e+003;6.143389e-003
2.109832e+003;5.955874e-003
2.111760e+003;6.017620e-003
2.113688e+003;6.351931e-003
2.115617e+003;6.406437e-003
2.117546e+003;6.378696e-003
2.119474e+003;6.518629e-003
2.121403e+003;6.675027e-003
2.123331e+003;6.727217e-003
2.125260e+003;6.914493e-003
2.127188e+003;7.068912e-003
2.129117e+003;7.088580e-003
2.131045e+003;7.000585e-003
2.132974e+003;6.880357e-003
2.134903e+003;6.753499e-003
2.136831e+003;6.872110e-003
2.138760e+003;7.099762e-003
2.140688e+003;6.755922e-003
2.142617e+003;6.549137e-003
2.144545e+003;6.850398e-003
2.146474e+003;7.079318e-003
2.148402e+003;6.957150e-003
2.150331e+003;6.831481e-003
2.152260e+003;6.822292e-003
2.154188e+003;6.777528e-003
2.156117e+003;6.773422e-003
2.158045e+003;6.808728e-003
2.159974e+003;6.840098e-003
2.161902e+003;6.889379e-003
2.163831e+003;6.675935e-003
2.165759e+003;6.179248e-003
2.167688e+003;5.841644e-003
2.169616e+003;5.853768e-003
2.171545e+003;5.993566e-003
2.173474e+003;5.902467e-003
2.175402e+003;5.601728e-003
2.177331e+003;5.466553e-003
2.179259e+003;5.372479e-003
2.181188e+003;5.214671e-003
2.183116e+003;5.113946e-003
2.185045e+003;5.008250e-003
2.186973e+003;4.876744e-003
2.188902e+003;4.899194e-003
2.190831e+003;4.753116e-003
2.192759e+003;4.579828e-003
2.194688e+003;4.777202e-003
2.196616e+003;4.951942e-003
2.198545e+003;4.739415e-003
2.200473e+003;4.758275e-003
2.202402e+003;5.088634e-003
2.204330e+003;5.137516e-003
2.206259e+003;4.771942e-003
2.208188e+003;4.320629e-003
2.210116e+003;4.543465e-003
2.212044e+003;4.943262e-003
2.213973e+003;5.087628e-003
2.215902e+003;4.954355e-003
2.217830e+003;4.900803e-003
2.219759e+003;4.980430e-003
2.221687e+003;5.055613e-003
2.223616e+003;5.089606e-003
2.225544e+003;5.107877e-003
2.227473e+003;5.099999e-003
2.229401e+003;5.223088e-003
2.231330e+003;5.561152e-003
2.233259e+003;5.503329e-003
2.235187e+003;5.379557e-003
2.237116e+003;5.375867e-003
2.239044e+003;5.193277e-003
2.240973e+003;5.135504e-003
2.242901e+003;5.432397e-003
2.244830e+003;5.673528e-003
2.246758e+003;5.867403e-003
2.248687e+003;5.874691e-003
2.250615e+003;5.839730e-003
2.252544e+003;5.836104e-003
2.254473e+003;5.616531e-003
2.256401e+003;5.562393e-003
2.258330e+003;5.549338e-003
2.260258e+003;5.555345e-003
2.262187e+003;5.558097e-003
2.264115e+003;5.512793e-003
2.266044e+003;5.516853e-003
2.267972e+003;5.565749e-003
2.269901e+003;5.595486e-003
2.271830e+003;5.517357e-003
2.273758e+003;5.421896e-003
2.275687e+003;5.325784e-003
2.277615e+003;5.489538e-003
2.279544e+003;5.788050e-003
2.281472e+003;5.697900e-003
2.283401e+003;5.532693e-003
2.285329e+003;5.796679e-003
2.287258e+003;5.917716e-003
2.289187e+003;5.849570e-003
2.291115e+003;5.920202e-003
2.293043e+003;5.929708e-003
2.294972e+003;5.940456e-003
2.296901e+003;5.994002e-003
2.298829e+003;6.038652e-003
2.300758e+003;5.850544e-003
2.302686e+003;5.666177e-003
2.304615e+003;5.834928e-003
2.306543e+003;6.042953e-003
2.308472e+003;5.971327e-003
2.310400e+003;5.699243e-003
2.312329e+003;5.548734e-003
2.314258e+003;5.459037e-003
2.316186e+003;5.277485e-003
2.318115e+003;5.136309e-003
2.320043e+003;4.902713e-003
2.321972e+003;4.713254e-003
2.323900e+003;4.530775e-003
2.325829e+003;4.338868e-003
2.327757e+003;4.364939e-003
2.329686e+003;4.277829e-003
2.331615e+003;4.238446e-003
2.333543e+003;4.198732e-003
2.335472e+003;4.118144e-003
2.337400e+003;4.503287e-003
2.339329e+003;4.804003e-003
2.341257e+003;4.721762e-003
2.343186e+003;5.015691e-003
2.345114e+003;5.654595e-003
2.347043e+003;6.237698e-003
2.348971e+003;6.476217e-003
2.350900e+003;6.248757e-003
2.352829e+003;5.655300e-003
2.354757e+003;5.263433e-003
2.356686e+003;5.051189e-003
2.358614e+003;4.645565e-003
2.360543e+003;4.566367e-003
2.362471e+003;4.448619e-003
2.364400e+003;4.513432e-003
2.366328e+003;5.012205e-003
2.368257e+003;5.781838e-003
2.370186e+003;6.565216e-003
2.372114e+003;7.299901e-003
2.374042e+003;7.874085e-003
2.375971e+003;8.488525e-003
2.377900e+003;8.967700e-003
2.379828e+003;9.262182e-003
2.381757e+003;9.654932e-003
2.383685e+003;9.778844e-003
2.385614e+003;9.694673e-003
2.387542e+003;9.711852e-003
2.389471e+003;9.923742e-003
2.391399e+003;1.010257e-002
2.393328e+003;1.022454e-002
2.395257e+003;1.041224e-002
2.397185e+003;1.053580e-002
2.399114e+003;1.037542e-002
2.401042e+003;1.044357e-002
2.402971e+003;1.090605e-002
2.404899e+003;1.105782e-002
2.406828e+003;1.122310e-002
2.408756e+003;1.172750e-002
2.410685e+003;1.182545e-002
2.412614e+003;1.162603e-002
2.414542e+003;1.186150e-002
2.416471e+003;1.216290e-002
2.418399e+003;1.212129e-002
2.420328e+003;1.234193e-002
2.422256e+003;1.276327e-002
2.424185e+003;1.302022e-002
2.426113e+003;1.289558e-002
2.428042e+003;1.268060e-002
2.429970e+003;1.275617e-002
2.431899e+003;1.293559e-002
2.433828e+003;1.317505e-002
2.435756e+003;1.350627e-002
2.437685e+003;1.360332e-002
2.439613e+003;1.381165e-002
2.441542e+003;1.392861e-002
2.443470e+003;1.386737e-002
2.445399e+003;1.416067e-002
2.447327e+003;1.446260e-002
2.449256e+003;1.454890e-002
2.451185e+003;1.461743e-002
2.453113e+003;1.467573e-002
2.455042e+003;1.465637e-002
2.456970e+003;1.468296e-002
2.458899e+003;1.471751e-002
2.460827e+003;1.502940e-002
2.462756e+003;1.540711e-002
2.464684e+003;1.558992e-002
2.466613e+003;1.534529e-002
2.468542e+003;1.511622e-002
2.470470e+003;1.523474e-002
2.472398e+003;1.540938e-002
2.474327e+003;1.555335e-002
2.476256e+003;1.559813e-002
2.478184e+003;1.573296e-002
2.480113e+003;1.613192e-002
2.482041e+003;1.658776e-002
2.483970e+003;1.682360e-002
2.485898e+003;1.676037e-002
2.487827e+003;1.679863e-002
2.489755e+003;1.701070e-002
2.491684e+003;1.690551e-002
2.493613e+003;1.681127e-002
2.495541e+003;1.690916e-002
2.497470e+003;1.721239e-002
2.499398e+003;1.749468e-002
2.501327e+003;1.744618e-002
2.503255e+003;1.762941e-002
2.505184e+003;1.796774e-002
2.507112e+003;1.803215e-002
2.509041e+003;1.818298e-002
2.510969e+003;1.829988e-002
2.512898e+003;1.838445e-002
2.514827e+003;1.860892e-002
2.516755e+003;1.880288e-002
2.518684e+003;1.878544e-002
2.520612e+003;1.870601e-002
2.522541e+003;1.899024e-002
2.524469e+003;1.909867e-002
2.526398e+003;1.936920e-002
2.528326e+003;1.983768e-002
2.530255e+003;1.976746e-002
2.532184e+003;1.936331e-002
2.534112e+003;1.949578e-002
2.536041e+003;1.979863e-002
2.537969e+003;1.969097e-002
2.539898e+003;1.964430e-002
2.541826e+003;1.995777e-002
2.543755e+003;2.031584e-002
2.545683e+003;2.012488e-002
2.547612e+003;1.985322e-002
2.549541e+003;1.994056e-002
2.551469e+003;2.004066e-002
2.553397e+003;2.028851e-002
2.555326e+003;2.046301e-002
2.557255e+003;2.066246e-002
2.559183e+003;2.094439e-002
2.561112e+003;2.079470e-002
2.563040e+003;2.074141e-002
2.564969e+003;2.090851e-002
2.566897e+003;2.108354e-002
2.568826e+003;2.094989e-002
2.570754e+003;2.079789e-002
2.572683e+003;2.104729e-002
2.574612e+003;2.113564e-002
2.576540e+003;2.107174e-002
2.578469e+003;2.094533e-002
2.580397e+003;2.119899e-002
2.582326e+003;2.167210e-002
2.584254e+003;2.178636e-002
2.586183e+003;2.175298e-002
2.588111e+003;2.177120e-002
2.590040e+003;2.166918e-002
2.591969e+003;2.162665e-002
2.593897e+003;2.195487e-002
2.595826e+003;2.230876e-002
2.597754e+003;2.252640e-002
2.599683e+003;2.263306e-002
2.601611e+003;2.258954e-002
2.603540e+003;2.253799e-002
2.605468e+003;2.273486e-002
2.607397e+003;2.302346e-002
2.609325e+003;2.315170e-002
2.611254e+003;2.315086e-002
2.613183e+003;2.315146e-002
2.615111e+003;2.312909e-002
2.617040e+003;2.313957e-002
2.618968e+003;2.319906e-002
2.620897e+003;2.342225e-002
2.622825e+003;2.348964e-002
2.624754e+003;2.340165e-002
2.626682e+003;2.343061e-002
2.628611e+003;2.350230e-002
2.630540e+003;2.402401e-002
2.632468e+003;2.459992e-002
2.634396e+003;2.444805e-002
2.636325e+003;2.415689e-002
2.638254e+003;2.415630e-002
2.640182e+003;2.448664e-002
2.642111e+003;2.480840e-002
2.644039e+003;2.461448e-002
2.645968e+003;2.446046e-002
2.647896e+003;2.468816e-002
2.649825e+003;2.484233e-002
2.651753e+003;2.460192e-002
2.653682e+003;2.464492e-002
2.655611e+003;2.513967e-002
2.657539e+003;2.544213e-002
2.659468e+003;2.530583e-002
2.661396e+003;2.538170e-002
2.663325e+003;2.564514e-002
2.665253e+003;2.584817e-002
2.667182e+003;2.593339e-002
2.669110e+003;2.598724e-002
2.671039e+003;2.608114e-002
2.672968e+003;2.598193e-002
2.674896e+003;2.579652e-002
2.676825e+003;2.586294e-002
2.678753e+003;2.609057e-002
2.680682e+003;2.621356e-002
2.682610e+003;2.634324e-002
2.684539e+003;2.632884e-002
2.686467e+003;2.636799e-002
2.688396e+003;2.658186e-002
2.690324e+003;2.674647e-002
2.692253e+003;2.681758e-002
2.694182e+003;2.679147e-002
2.696110e+003;2.667814e-002
2.698039e+003;2.705015e-002
2.699967e+003;2.743233e-002
2.701896e+003;2.775296e-002
2.703824e+003;2.784141e-002
2.705753e+003;2.767622e-002
2.707681e+003;2.788805e-002
2.709610e+003;2.798533e-002
2.711539e+003;2.799621e-002
2.713467e+003;2.813667e-002
2.715396e+003;2.798889e-002
2.717324e+003;2.795712e-002
2.719253e+003;2.835595e-002
2.721181e+003;2.878133e-002
2.723110e+003;2.875967e-002
2.725038e+003;2.853382e-002
2.726967e+003;2.846447e-002
2.728896e+003;2.845743e-002
2.730824e+003;2.877673e-002
2.732752e+003;2.911033e-002
2.734681e+003;2.920547e-002
2.736610e+003;2.921741e-002
2.738538e+003;2.932878e-002
2.740467e+003;2.945241e-002
2.742395e+003;2.931017e-002
2.744324e+003;2.907242e-002
2.746252e+003;2.937873e-002
2.748181e+003;2.964499e-002
2.750109e+003;2.955461e-002
2.752038e+003;2.944514e-002
2.753967e+003;2.942720e-002
2.755895e+003;2.958763e-002
2.757824e+003;2.983511e-002
2.759752e+003;2.996019e-002
2.761681e+003;3.006287e-002
2.763609e+003;2.974863e-002
2.765538e+003;2.966858e-002
2.767466e+003;3.022511e-002
2.769395e+003;3.079707e-002
2.771323e+003;3.101346e-002
2.773252e+003;3.086043e-002
2.775181e+003;3.066901e-002
2.777109e+003;3.077207e-002
2.779038e+003;3.094713e-002
2.780966e+003;3.109635e-002
2.782895e+003;3.141150e-002
2.784823e+003;3.143957e-002
2.786752e+003;3.136748e-002
2.788680e+003;3.172142e-002
2.790609e+003;3.204442e-002
2.792538e+003;3.241841e-002
2.794466e+003;3.252914e-002
2.796395e+003;3.250407e-002
2.798323e+003;3.238907e-002
2.800252e+003;3.241102e-002
2.802180e+003;3.258274e-002
2.804109e+003;3.278483e-002
2.806037e+003;3.326359e-002
2.807966e+003;3.355633e-002
2.809895e+003;3.379562e-002
2.811823e+003;3.391562e-002
2.813751e+003;3.401444e-002
2.815680e+003;3.447446e-002
2.817609e+003;3.462805e-002
2.819537e+003;3.479879e-002
2.821466e+003;3.525163e-002
2.823394e+003;3.545223e-002
2.825323e+003;3.566375e-002
2.827251e+003;3.590698e-002
2.829180e+003;3.631461e-002
2.831108e+003;3.714583e-002
2.833037e+003;3.761518e-002
2.834966e+003;3.751547e-002
2.836894e+003;3.774993e-002
2.838823e+003;3.809498e-002
2.840751e+003;3.851749e-002
2.842680e+003;3.857905e-002
2.844608e+003;3.806113e-002
2.846537e+003;3.786084e-002
2.848465e+003;3.808113e-002
2.850394e+003;3.826828e-002
2.852323e+003;3.856080e-002
2.854251e+003;3.911492e-002
2.856180e+003;3.972454e-002
2.858108e+003;4.068594e-002
2.860037e+003;4.138945e-002
2.861965e+003;4.192888e-002
2.863894e+003;4.233925e-002
2.865822e+003;4.268939e-002
2.867751e+003;4.367516e-002
2.869679e+003;4.432097e-002
2.871608e+003;4.430673e-002
2.873536e+003;4.471245e-002
2.875465e+003;4.512535e-002
2.877394e+003;4.504915e-002
2.879322e+003;4.513200e-002
2.881251e+003;4.522701e-002
2.883179e+003;4.534763e-002
2.885108e+003;4.584774e-002
2.887036e+003;4.600198e-002
2.888965e+003;4.554670e-002
2.890893e+003;4.519009e-002
2.892822e+003;4.529938e-002
2.894750e+003;4.532012e-002
2.896679e+003;4.537890e-002
2.898608e+003;4.579725e-002
2.900536e+003;4.615160e-002
2.902465e+003;4.576522e-002
2.904393e+003;4.483609e-002
2.906322e+003;4.412023e-002
2.908250e+003;4.351863e-002
2.910179e+003;4.285535e-002
2.912107e+003;4.190699e-002
2.914036e+003;4.115305e-002
2.915965e+003;4.073878e-002
2.917893e+003;3.999184e-002
2.919822e+003;3.911430e-002
2.921750e+003;3.896977e-002
2.923679e+003;3.900555e-002
2.925607e+003;3.931833e-002
2.927536e+003;3.954235e-002
2.929464e+003;3.968609e-002
2.931393e+003;4.011207e-002
2.933322e+003;3.996845e-002
2.935250e+003;4.007523e-002
2.937178e+003;4.082016e-002
2.939107e+003;4.119706e-002
2.941036e+003;4.153523e-002
2.942964e+003;4.164885e-002
2.944893e+003;4.134102e-002
2.946821e+003;4.100609e-002
2.948750e+003;4.042268e-002
2.950678e+003;3.962753e-002
2.952607e+003;3.939110e-002
2.954535e+003;3.887856e-002
2.956464e+003;3.827418e-002
2.958393e+003;3.798431e-002
2.960321e+003;3.825909e-002
2.962250e+003;3.859966e-002
2.964178e+003;3.845077e-002
2.966107e+003;3.808674e-002
2.968035e+003;3.821357e-002
2.969964e+003;3.857109e-002
2.971892e+003;3.817663e-002
2.973821e+003;3.773465e-002
2.975750e+003;3.782519e-002
2.977678e+003;3.811437e-002
2.979607e+003;3.805632e-002
2.981535e+003;3.754079e-002
2.983464e+003;3.709378e-002
2.985392e+003;3.691374e-002
2.987321e+003;3.702500e-002
2.989249e+003;3.737551e-002
2.991178e+003;3.726448e-002
2.993106e+003;3.668708e-002
2.995035e+003;3.658095e-002
2.996964e+003;3.681913e-002
2.998892e+003;3.657082e-002
3.000821e+003;3.636220e-002
3.002749e+003;3.638061e-002
3.004678e+003;3.667561e-002
3.006606e+003;3.703558e-002
3.008535e+003;3.681069e-002
3.010463e+003;3.646990e-002
3.012392e+003;3.630712e-002
3.014321e+003;3.640057e-002
3.016249e+003;3.626742e-002
3.018177e+003;3.636811e-002
3.020106e+003;3.647480e-002
3.022035e+003;3.645549e-002
3.023963e+003;3.676118e-002
3.025892e+003;3.680066e-002
3.027820e+003;3.652400e-002
3.029749e+003;3.627009e-002
3.031677e+003;3.631148e-002
3.033606e+003;3.678876e-002
3.035534e+003;3.703078e-002
3.037463e+003;3.697565e-002
3.039392e+003;3.697529e-002
3.041320e+003;3.671484e-002
3.043249e+003;3.678289e-002
3.045177e+003;3.704615e-002
3.047106e+003;3.712035e-002
3.049034e+003;3.706538e-002
3.050963e+003;3.712944e-002
3.052891e+003;3.742737e-002
3.054820e+003;3.745655e-002
3.056749e+003;3.763740e-002
3.058677e+003;3.750246e-002
3.060606e+003;3.730911e-002
3.062534e+003;3.751399e-002
3.064463e+003;3.787942e-002
3.066391e+003;3.843745e-002
3.068320e+003;3.834884e-002
3.070248e+003;3.800576e-002
3.072177e+003;3.821129e-002
3.074105e+003;3.831898e-002
3.076034e+003;3.862656e-002
3.077963e+003;3.899601e-002
3.079891e+003;3.899087e-002
3.081820e+003;3.884069e-002
3.083748e+003;3.873671e-002
3.085677e+003;3.899000e-002
3.087605e+003;3.896709e-002
3.089534e+003;3.891650e-002
3.091462e+003;3.965396e-002
3.093391e+003;4.026095e-002
3.095320e+003;4.025920e-002
3.097248e+003;4.013014e-002
3.099177e+003;4.012723e-002
3.101105e+003;4.025252e-002
3.103034e+003;4.026768e-002
3.104962e+003;3.988530e-002
3.106891e+003;3.958445e-002
3.108819e+003;3.988228e-002
3.110748e+003;4.045803e-002
3.112677e+003;4.058646e-002
3.114605e+003;4.045530e-002
3.116533e+003;4.040006e-002
3.118462e+003;4.075406e-002
3.120391e+003;4.120121e-002
3.122319e+003;4.104815e-002
3.124248e+003;4.111794e-002
3.126176e+003;4.146629e-002
3.128105e+003;4.182711e-002
3.130033e+003;4.203523e-002
3.131962e+003;4.223684e-002
3.133890e+003;4.244512e-002
3.135819e+003;4.230802e-002
3.137748e+003;4.196395e-002
3.139676e+003;4.201023e-002
3.141605e+003;4.242926e-002
3.143533e+003;4.260916e-002
3.145462e+003;4.293893e-002
3.147390e+003;4.298948e-002
3.149319e+003;4.323431e-002
3.151247e+003;4.355701e-002
3.153176e+003;4.334831e-002
3.155104e+003;4.355254e-002
3.157033e+003;4.406818e-002
3.158962e+003;4.440346e-002
3.160890e+003;4.482558e-002
3.162819e+003;4.491593e-002
3.164747e+003;4.483984e-002
3.166676e+003;4.524392e-002
3.168604e+003;4.522793e-002
3.170533e+003;4.501353e-002
3.172461e+003;4.568357e-002
3.174390e+003;4.659220e-002
3.176319e+003;4.657723e-002
3.178247e+003;4.646688e-002
3.180176e+003;4.670502e-002
3.182104e+003;4.725696e-002
3.184033e+003;4.736973e-002
3.185961e+003;4.726782e-002
3.187890e+003;4.753615e-002
3.189818e+003;4.764544e-002
3.191747e+003;4.747125e-002
3.193676e+003;4.785911e-002
3.195604e+003;4.859510e-002
3.197532e+003;4.887441e-002
3.199461e+003;4.875844e-002
3.201390e+003;4.901567e-002
3.203318e+003;4.938094e-002
3.205247e+003;4.949640e-002
3.207175e+003;4.987983e-002
3.209104e+003;5.012018e-002
3.211032e+003;5.023429e-002
3.212961e+003;5.016574e-002
3.214889e+003;5.033934e-002
3.216818e+003;5.087701e-002
3.218747e+003;5.126602e-002
3.220675e+003;5.137502e-002
3.222604e+003;5.138405e-002
3.224532e+003;5.135324e-002
3.226461e+003;5.228534e-002
3.228389e+003;5.296684e-002
3.230318e+003;5.285674e-002
3.232246e+003;5.258708e-002
3.234175e+003;5.298579e-002
3.236104e+003;5.335568e-002
3.238032e+003;5.331615e-002
3.239961e+003;5.336984e-002
3.241889e+003;5.411708e-002
3.243818e+003;5.472344e-002
3.245746e+003;5.501755e-002
3.247675e+003;5.557283e-002
3.249603e+003;5.569388e-002
3.251532e+003;5.571271e-002
3.253460e+003;5.596219e-002
3.255389e+003;5.634866e-002
3.257318e+003;5.644607e-002
3.259246e+003;5.673894e-002
3.261175e+003;5.711801e-002
3.263103e+003;5.733420e-002
3.265032e+003;5.761457e-002
3.266960e+003;5.823797e-002
3.268889e+003;5.874700e-002
3.270817e+003;5.950500e-002
3.272746e+003;5.983302e-002
3.274675e+003;5.958386e-002
3.276603e+003;5.967497e-002
3.278531e+003;5.940287e-002
3.280460e+003;5.965953e-002
3.282389e+003;6.007693e-002
3.284317e+003;6.018287e-002
3.286246e+003;6.012446e-002
3.288174e+003;5.996629e-002
3.290103e+003;6.016209e-002
3.292031e+003;6.066649e-002
3.293960e+003;6.109290e-002
3.295888e+003;6.077547e-002
3.297817e+003;6.023917e-002
3.299746e+003;6.053540e-002
3.301674e+003;6.073382e-002
3.303603e+003;6.062892e-002
3.305531e+003;6.065902e-002
3.307460e+003;6.064542e-002
3.309388e+003;6.074613e-002
3.311317e+003;6.170267e-002
3.313245e+003;6.222695e-002
3.315174e+003;6.197136e-002
3.317103e+003;6.209413e-002
3.319031e+003;6.200499e-002
3.320960e+003;6.174316e-002
3.322888e+003;6.240101e-002
3.324817e+003;6.290510e-002
3.326745e+003;6.201470e-002
3.328674e+003;6.137041e-002
3.330602e+003;6.129737e-002
3.332531e+003;6.128295e-002
3.334459e+003;6.143579e-002
3.336388e+003;6.210717e-002
3.338317e+003;6.222301e-002
3.340245e+003;6.140781e-002
3.342174e+003;6.096073e-002
3.344102e+003;6.095379e-002
3.346031e+003;6.086135e-002
3.347959e+003;6.136072e-002
3.349888e+003;6.158815e-002
3.351816e+003;6.111529e-002
3.353745e+003;6.050950e-002
3.355674e+003;5.996493e-002
3.357602e+003;6.013941e-002
3.359531e+003;6.101267e-002
3.361459e+003;6.127738e-002
3.363388e+003;6.070048e-002
3.365316e+003;6.039282e-002
3.367245e+003;5.987744e-002
3.369173e+003;5.938600e-002
3.371102e+003;5.961768e-002
3.373031e+003;5.963847e-002
3.374959e+003;5.904222e-002
3.376887e+003;5.862642e-002
3.378816e+003;5.816511e-002
3.380745e+003;5.809465e-002
3.382673e+003;5.793136e-002
3.384602e+003;5.761419e-002
3.386530e+003;5.750071e-002
3.388459e+003;5.727877e-002
3.390387e+003;5.701999e-002
3.392316e+003;5.682338e-002
3.394244e+003;5.686288e-002
3.396173e+003;5.686235e-002
3.398102e+003;5.668763e-002
3.400030e+003;5.642589e-002
3.401959e+003;5.616671e-002
3.403887e+003;5.606823e-002
3.405816e+003;5.599977e-002
3.407744e+003;5.587921e-002
3.409673e+003;5.533859e-002
3.411601e+003;5.501485e-002
3.413530e+003;5.463516e-002
3.415458e+003;5.382031e-002
3.417387e+003;5.350687e-002
3.419316e+003;5.342361e-002
3.421244e+003;5.282923e-002
3.423173e+003;5.221377e-002
3.425101e+003;5.243362e-002
3.427030e+003;5.227622e-002
3.428958e+003;5.162989e-002
3.430887e+003;5.084967e-002
3.432815e+003;5.039765e-002
3.434744e+003;5.034441e-002
3.436673e+003;5.007117e-002
3.438601e+003;4.952957e-002
3.440530e+003;4.932934e-002
3.442458e+003;4.941049e-002
3.444387e+003;4.917836e-002
3.446315e+003;4.873917e-002
3.448244e+003;4.844204e-002
3.450172e+003;4.818137e-002
3.452101e+003;4.730226e-002
3.454030e+003;4.679627e-002
3.455958e+003;4.662282e-002
3.457886e+003;4.621517e-002
3.459815e+003;4.573356e-002
3.461744e+003;4.572675e-002
3.463672e+003;4.534969e-002
3.465601e+003;4.471146e-002
3.467529e+003;4.482812e-002
3.469458e+003;4.510028e-002
3.471386e+003;4.495620e-002
3.473315e+003;4.425969e-002
3.475243e+003;4.294075e-002
3.477172e+003;4.204556e-002
3.479101e+003;4.232015e-002
3.481029e+003;4.266051e-002
3.482958e+003;4.212284e-002
3.484886e+003;4.128643e-002
3.486815e+003;4.085161e-002
3.488743e+003;4.082300e-002
3.490672e+003;4.080571e-002
3.492600e+003;4.027349e-002
3.494529e+003;3.987418e-002
3.496458e+003;3.970547e-002
3.498386e+003;3.925954e-002
3.500315e+003;3.896840e-002
3.502243e+003;3.810887e-002
3.504172e+003;3.744951e-002
3.506100e+003;3.757041e-002
3.508029e+003;3.769265e-002
3.509957e+003;3.783177e-002
3.511886e+003;3.756301e-002
3.513814e+003;3.682483e-002
3.515743e+003;3.627376e-002
3.517672e+003;3.610212e-002
3.519600e+003;3.580849e-002
3.521529e+003;3.592245e-002
3.523457e+003;3.589590e-002
3.525386e+003;3.503567e-002
3.527314e+003;3.468375e-002
3.529243e+003;3.492276e-002
3.531171e+003;3.445337e-002
3.533100e+003;3.425728e-002
3.535029e+003;3.401103e-002
3.536957e+003;3.313780e-002
3.538885e+003;3.260243e-002
3.540814e+003;3.311444e-002
3.542743e+003;3.327307e-002
3.544671e+003;3.211287e-002
3.546600e+003;3.121517e-002
3.548528e+003;3.137146e-002
3.550457e+003;3.138055e-002
3.552385e+003;3.132969e-002
3.554314e+003;3.105353e-002
3.556242e+003;3.060636e-002
3.558171e+003;3.019261e-002
3.560100e+003;3.024291e-002
3.562028e+003;3.013880e-002
3.563957e+003;2.970137e-002
3.565885e+003;2.964446e-002
3.567814e+003;2.954199e-002
3.569742e+003;2.900270e-002
3.571671e+003;2.877581e-002
3.573599e+003;2.892382e-002
3.575528e+003;2.864377e-002
3.577457e+003;2.832224e-002
3.579385e+003;2.816418e-002
3.581314e+003;2.821173e-002
3.583242e+003;2.815912e-002
3.585171e+003;2.745785e-002
3.587099e+003;2.671144e-002
3.589028e+003;2.688417e-002
3.590956e+003;2.708369e-002
3.592885e+003;2.666976e-002
3.594813e+003;2.603477e-002
3.596742e+003;2.560208e-002
3.598671e+003;2.557059e-002
3.600599e+003;2.550305e-002
3.602528e+003;2.516143e-002
3.604456e+003;2.462282e-002
3.606385e+003;2.418597e-002
3.608313e+003;2.385883e-002
3.610242e+003;2.353102e-002
3.612170e+003;2.295544e-002
3.614099e+003;2.312843e-002
3.616028e+003;2.357992e-002
3.617956e+003;2.318099e-002
3.619885e+003;2.241949e-002
3.621813e+003;2.215378e-002
3.623742e+003;2.232139e-002
3.625670e+003;2.206990e-002
3.627599e+003;2.117067e-002
3.629527e+003;2.014813e-002
3.631456e+003;1.971978e-002
3.633385e+003;1.959459e-002
3.635313e+003;1.946511e-002
3.637241e+003;1.914472e-002
3.639170e+003;1.883264e-002
3.641099e+003;1.874794e-002
3.643027e+003;1.867090e-002
3.644956e+003;1.802552e-002
3.646884e+003;1.692394e-002
3.648813e+003;1.577113e-002
3.650741e+003;1.536653e-002
3.652670e+003;1.515173e-002
3.654598e+003;1.407277e-002
3.656527e+003;1.325102e-002
3.658456e+003;1.305071e-002
3.660384e+003;1.265218e-002
3.662313e+003;1.237050e-002
3.664241e+003;1.178782e-002
3.666170e+003;1.077105e-002
3.668098e+003;9.659336e-003
3.670027e+003;9.105289e-003
3.671955e+003;8.581553e-003
3.673884e+003;7.642250e-003
3.675813e+003;7.145266e-003
3.677741e+003;7.080699e-003
3.679669e+003;6.691783e-003
3.681598e+003;6.588091e-003
3.683527e+003;6.621833e-003
3.685455e+003;5.674670e-003
3.687384e+003;4.393422e-003
3.689312e+003;4.127142e-003
3.691241e+003;4.835296e-003
3.693169e+003;5.562393e-003
3.695098e+003;5.467023e-003
3.697026e+003;5.314849e-003
3.698955e+003;4.950903e-003
3.700884e+003;4.202680e-003
3.702812e+003;4.024495e-003
3.704741e+003;3.895627e-003
3.706669e+003;3.265679e-003
3.708598e+003;2.530815e-003
3.710526e+003;2.170059e-003
3.712455e+003;2.427812e-003
3.714383e+003;3.032053e-003
3.716312e+003;2.948979e-003
3.718240e+003;2.294353e-003
3.720169e+003;1.565985e-003
3.722098e+003;1.733083e-003
3.724026e+003;1.913392e-003
3.725955e+003;1.737009e-003
3.727883e+003;1.515409e-003
3.729812e+003;1.188220e-003
3.731740e+003;6.525347e-004
3.733669e+003;3.456261e-004
3.735597e+003;2.733093e-004
3.737526e+003;3.650917e-004
3.739455e+003;3.378667e-004
3.741383e+003;2.821286e-004
3.743312e+003;-1.100573e-004
3.745240e+003;2.073692e-004
3.747169e+003;9.159949e-004
3.749097e+003;4.468435e-004
3.751026e+003;1.133663e-004
3.752954e+003;4.420673e-004
3.754883e+003;7.026120e-004
3.756812e+003;1.090247e-004
3.758740e+003;-1.843849e-004
3.760668e+003;4.041582e-004
3.762597e+003;1.119085e-003
3.764526e+003;7.683950e-004
3.766454e+003;5.804322e-004
3.768383e+003;4.730803e-004
3.770311e+003;-6.155868e-005
3.772240e+003;1.887725e-004
3.774168e+003;5.377338e-004
3.776097e+003;4.437589e-004
3.778025e+003;1.028006e-003
3.779954e+003;1.389543e-003
3.781883e+003;9.978506e-004
3.783811e+003;5.027686e-004
3.785740e+003;6.763282e-004
3.787668e+003;9.278822e-004
3.789597e+003;8.501896e-004
3.791525e+003;4.039227e-005
3.793454e+003;1.391521e-004
3.795382e+003;6.206130e-004
3.797311e+003;1.957006e-004
3.799240e+003;-2.512159e-004
3.801168e+003;-2.126353e-004
3.803097e+003;6.651116e-004
3.805025e+003;8.882041e-004
3.806954e+003;2.844495e-004
3.808882e+003;1.053790e-004
3.810811e+003;6.083836e-005
3.812739e+003;-2.031967e-004
3.814668e+003;-6.855982e-004
3.816596e+003;-6.954234e-004
3.818525e+003;-2.256505e-004
3.820454e+003;-2.201199e-004
3.822382e+003;3.273551e-004
3.824311e+003;7.517990e-004
3.826239e+003;6.048522e-004
3.828168e+003;5.023042e-004
3.830096e+003;4.528138e-004
3.832025e+003;4.237591e-004
3.833953e+003;3.154512e-004
3.835882e+003;4.027984e-004
3.837811e+003;6.219071e-004
3.839739e+003;1.138585e-003
3.841667e+003;8.788080e-004
3.843596e+003;3.588905e-004
3.845525e+003;2.916443e-004
3.847453e+003;7.815396e-004
3.849382e+003;1.320807e-003
3.851310e+003;6.571141e-004
3.853239e+003;-1.650093e-004
3.855167e+003;6.748681e-004
3.857096e+003;1.389908e-003
3.859024e+003;1.708500e-003
3.860953e+003;1.655779e-003
3.862882e+003;1.438442e-003
3.864810e+003;1.181675e-003
3.866739e+003;1.567813e-003
3.868667e+003;1.899980e-003
3.870596e+003;1.783352e-003
3.872524e+003;1.804413e-003
3.874453e+003;1.858616e-003
3.876381e+003;2.198632e-003
3.878310e+003;1.916221e-003
3.880239e+003;1.785814e-003
3.882167e+003;2.181681e-003
3.884096e+003;2.262177e-003
3.886024e+003;2.375402e-003
3.887953e+003;2.930031e-003
3.889881e+003;2.773375e-003
3.891810e+003;2.502121e-003
3.893738e+003;2.871224e-003
3.895667e+003;3.238839e-003
3.897595e+003;3.048970e-003
3.899524e+003;2.804555e-003
3.901453e+003;2.841440e-003
3.903381e+003;2.806689e-003
3.905310e+003;2.676015e-003
3.907238e+003;3.077533e-003
3.909167e+003;3.604059e-003
3.911095e+003;3.802694e-003
3.913024e+003;3.596040e-003
3.914952e+003;3.756335e-003
3.916881e+003;3.958886e-003
3.918810e+003;4.222653e-003
3.920738e+003;4.091552e-003
3.922667e+003;3.564770e-003
3.924595e+003;3.602923e-003
3.926524e+003;4.150993e-003
3.928452e+003;4.605244e-003
3.930381e+003;4.641312e-003
3.932309e+003;4.913403e-003
3.934238e+003;5.567193e-003
3.936167e+003;5.406563e-003
3.938095e+003;5.494806e-003
3.940023e+003;5.373451e-003
3.941952e+003;5.368721e-003
3.943881e+003;5.853466e-003
3.945809e+003;5.942169e-003
3.947738e+003;5.382542e-003
3.949666e+003;5.397203e-003
3.951595e+003;5.802992e-003
3.953523e+003;5.837648e-003
3.955452e+003;5.746481e-003
3.957380e+003;5.765855e-003
3.959309e+003;5.635160e-003
3.961238e+003;5.673797e-003
3.963166e+003;5.901493e-003
3.965095e+003;6.016713e-003
3.967023e+003;6.259480e-003
3.968952e+003;6.113649e-003
3.970880e+003;6.266304e-003
3.972809e+003;6.358084e-003
3.974737e+003;6.050983e-003
3.976666e+003;6.311351e-003
3.978594e+003;6.719511e-003
3.980523e+003;6.462899e-003
3.982452e+003;6.562727e-003
3.984380e+003;6.616047e-003
3.986309e+003;6.658001e-003
3.988237e+003;6.559464e-003
3.990166e+003;6.152497e-003
3.992094e+003;6.230438e-003
3.994023e+003;6.338113e-003
3.995951e+003;6.510590e-003
3.997880e+003;6.765379e-003
3.999809e+003;6.778067e-003
4.001737e+003;0.000000e+000
