3.992094e+002;0.000000e+000
4.011380e+002;0.000000e+000
4.030665e+002;0.000000e+000
4.049951e+002;0.000000e+000
4.069236e+002;0.000000e+000
4.088522e+002;0.000000e+000
4.107807e+002;0.000000e+000
4.127093e+002;0.000000e+000
4.146378e+002;0.000000e+000
4.165664e+002;0.000000e+000
4.184949e+002;0.000000e+000
4.204235e+002;0.000000e+000
4.223520e+002;0.000000e+000
4.242806e+002;0.000000e+000
4.262091e+002;0.000000e+000
4.281377e+002;0.000000e+000
4.300662e+002;0.000000e+000
4.319948e+002;0.000000e+000
4.339233e+002;0.000000e+000
4.358519e+002;0.000000e+000
4.377804e+002;0.000000e+000
4.397090e+002;0.000000e+000
4.416375e+002;0.000000e+000
4.435660e+002;0.000000e+000
4.454946e+002;0.000000e+000
4.474232e+002;0.000000e+000
4.493517e+002;0.000000e+000
4.512802e+002;0.000000e+000
4.532088e+002;0.000000e+000
4.551373e+002;0.000000e+000
4.570659e+002;0.000000e+000
4.589944e+002;0.000000e+000
4.609230e+002;0.000000e+000
4.628515e+002;0.000000e+000
4.647801e+002;0.000000e+000
4.667086e+002;0.000000e+000
4.686372e+002;0.000000e+000
4.705657e+002;0.000000e+000
4.724943e+002;0.000000e+000
4.744228e+002;0.000000e+000
4.763513e+002;0.000000e+000
4.782799e+002;0.000000e+000
4.802085e+002;0.000000e+000
4.821370e+002;0.000000e+000
4.840656e+002;0.000000e+000
4.859941e+002;0.000000e+000
4.879226e+002;0.000000e+000
4.898512e+002;0.000000e+000
4.917798e+002;0.000000e+000
4.937083e+002;0.000000e+000
4.956368e+002;0.000000e+000
4.975654e+002;0.000000e+000
4.994939e+002;0.000000e+000
5.014225e+002;0.000000e+000
5.033510e+002;0.000000e+000
5.052796e+002;0.000000e+000
5.072081e+002;0.000000e+000
5.091367e+002;0.000000e+000
5.110652e+002;0.000000e+000
5.129938e+002;0.000000e+000
5.149223e+002;0.000000e+000
5.168509e+002;0.000000e+000
5.187794e+002;0.000000e+000
5.207079e+002;0.000000e+000
5.226365e+002;0.000000e+000
5.245651e+002;0.000000e+000
5.264936e+002;0.000000e+000
5.284222e+002;0.000000e+000
5.303507e+002;0.000000e+000
5.322792e+002;0.000000e+000
5.342078e+002;0.000000e+000
5.361364e+002;0.000000e+000
5.380649e+002;0.000000e+000
5.399935e+002;0.000000e+000
5.419220e+002;0.000000e+000
5.438505e+002;0.000000e+000
5.457791e+002;0.000000e+000
5.477076e+002;0.000000e+000
5.496362e+002;0.000000e+000
5.515648e+002;0.000000e+000
5.534933e+002;0.000000e+000
5.554218e+002;0.000000e+000
5.573504e+002;0.000000e+000
5.592789e+002;0.000000e+000
5.612075e+002;0.000000e+000
5.631360e+002;0.000000e+000
5.650646e+002;0.000000e+000
5.669931e+002;0.000000e+000
5.689217e+002;0.000000e+000
5.708502e+002;0.000000e+000
5.727787e+002;0.000000e+000
5.747073e+002;0.000000e+000
5.766359e+002;0.000000e+000
5.785644e+002;0.000000e+000
5.804930e+002;0.000000e+000
5.824215e+002;0.000000e+000
5.843500e+002;0.000000e+000
5.862786e+002;0.000000e+000
5.882072e+002;0.000000e+000
5.901357e+002;0.000000e+000
5.920643e+002;0.000000e+000
5.939928e+002;0.000000e+000
5.959213e+002;0.000000e+000
5.978499e+002;0.000000e+000
5.997784e+002;2.380803e-001
6.017070e+002;2.407105e-001
6.036355e+002;2.433256e-001
6.055641e+002;2.425870e-001
6.074926e+002;2.443448e-001
6.094211e+002;2.473647e-001
6.113497e+002;2.435563e-001
6.132783e+002;2.414274e-001
6.152068e+002;2.416911e-001
6.171354e+002;2.373508e-001
6.190639e+002;2.338668e-001
6.209924e+002;2.370262e-001
6.229210e+002;2.348080e-001
6.248495e+002;2.318542e-001
6.267781e+002;2.293709e-001
6.287067e+002;2.273429e-001
6.306352e+002;2.235289e-001
6.325637e+002;2.170161e-001
6.344923e+002;2.139815e-001
6.364208e+002;2.157092e-001
6.383494e+002;2.150452e-001
6.402780e+002;2.145413e-001
6.422065e+002;2.110856e-001
6.441350e+002;2.053694e-001
6.460636e+002;2.074401e-001
6.479921e+002;2.130065e-001
6.499207e+002;2.114910e-001
6.518492e+002;2.096979e-001
6.537778e+002;2.126202e-001
6.557063e+002;2.162519e-001
6.576349e+002;2.190130e-001
6.595634e+002;2.170304e-001
6.614919e+002;2.130214e-001
6.634205e+002;2.125275e-001
6.653491e+002;2.157401e-001
6.672776e+002;2.184211e-001
6.692062e+002;2.150473e-001
6.711347e+002;2.093467e-001
6.730632e+002;2.069426e-001
6.749918e+002;2.052986e-001
6.769203e+002;2.029798e-001
6.788489e+002;1.973751e-001
6.807775e+002;1.918744e-001
6.827060e+002;1.877838e-001
6.846345e+002;1.852624e-001
6.865631e+002;1.834799e-001
6.884916e+002;1.831629e-001
6.904202e+002;1.831510e-001
6.923488e+002;1.815208e-001
6.942773e+002;1.807238e-001
6.962058e+002;1.802298e-001
6.981344e+002;1.799421e-001
7.000629e+002;1.799600e-001
7.019915e+002;1.795433e-001
7.039200e+002;1.792880e-001
7.058486e+002;1.800615e-001
7.077771e+002;1.787421e-001
7.097057e+002;1.774487e-001
7.116342e+002;1.767694e-001
7.135627e+002;1.743024e-001
7.154913e+002;1.719256e-001
7.174199e+002;1.696013e-001
7.193484e+002;1.660793e-001
7.212770e+002;1.644504e-001
7.232055e+002;1.635018e-001
7.251340e+002;1.609044e-001
7.270626e+002;1.584382e-001
7.289911e+002;1.577555e-001
7.309197e+002;1.576436e-001
7.328483e+002;1.565209e-001
7.347768e+002;1.538333e-001
7.367053e+002;1.512693e-001
7.386339e+002;1.499727e-001
7.405624e+002;1.486128e-001
7.424910e+002;1.473006e-001
7.444196e+002;1.462519e-001
7.463481e+002;1.450397e-001
7.482766e+002;1.439799e-001
7.502052e+002;1.434087e-001
7.521337e+002;1.426687e-001
7.540623e+002;1.418690e-001
7.559908e+002;1.407956e-001
7.579194e+002;1.396614e-001
7.598479e+002;1.387439e-001
7.617765e+002;1.376337e-001
7.637050e+002;1.365431e-001
7.656335e+002;1.355750e-001
7.675621e+002;1.347154e-001
7.694907e+002;1.344223e-001
7.714192e+002;1.338820e-001
7.733478e+002;1.319534e-001
7.752763e+002;1.305281e-001
7.772048e+002;1.306766e-001
7.791334e+002;1.306307e-001
7.810620e+002;1.304475e-001
7.829905e+002;1.296317e-001
7.849191e+002;1.282850e-001
7.868476e+002;1.281537e-001
7.887761e+002;1.283837e-001
7.907047e+002;1.281245e-001
7.926332e+002;1.268842e-001
7.945618e+002;1.257789e-001
7.964903e+002;1.267245e-001
7.984189e+002;1.269498e-001
8.003474e+002;1.266310e-001
8.022759e+002;1.268027e-001
8.042045e+002;1.267080e-001
8.061331e+002;1.256464e-001
8.080616e+002;1.255862e-001
8.099902e+002;1.268012e-001
8.119187e+002;1.271259e-001
8.138472e+002;1.266211e-001
8.157758e+002;1.264395e-001
8.177043e+002;1.262561e-001
8.196329e+002;1.260342e-001
8.215615e+002;1.256384e-001
8.234900e+002;1.263158e-001
8.254185e+002;1.273915e-001
8.273471e+002;1.285932e-001
8.292756e+002;1.288826e-001
8.312042e+002;1.279581e-001
8.331328e+002;1.278567e-001
8.350613e+002;1.282369e-001
8.369898e+002;1.283633e-001
8.389184e+002;1.286420e-001
8.408469e+002;1.284717e-001
8.427755e+002;1.279789e-001
8.447040e+002;1.278921e-001
8.466326e+002;1.284484e-001
8.485611e+002;1.277900e-001
8.504897e+002;1.273403e-001
8.524182e+002;1.286292e-001
8.543467e+002;1.295859e-001
8.562753e+002;1.299904e-001
8.582039e+002;1.305120e-001
8.601324e+002;1.312204e-001
8.620610e+002;1.321031e-001
8.639895e+002;1.335135e-001
8.659180e+002;1.348918e-001
8.678466e+002;1.371444e-001
8.697751e+002;1.397654e-001
8.717037e+002;1.424457e-001
8.736323e+002;1.446869e-001
8.755608e+002;1.461480e-001
8.774893e+002;1.475686e-001
8.794179e+002;1.503291e-001
8.813464e+002;1.532190e-001
8.832750e+002;1.553208e-001
8.852036e+002;1.572642e-001
8.871321e+002;1.600801e-001
8.890606e+002;1.632763e-001
8.909892e+002;1.666837e-001
8.929177e+002;1.694766e-001
8.948463e+002;1.710776e-001
8.967748e+002;1.720743e-001
8.987034e+002;1.722812e-001
9.006319e+002;1.710822e-001
9.025605e+002;1.688794e-001
9.044890e+002;1.660619e-001
9.064175e+002;1.638038e-001
9.083461e+002;1.627815e-001
9.102747e+002;1.616233e-001
9.122032e+002;1.596911e-001
9.141318e+002;1.589161e-001
9.160603e+002;1.590936e-001
9.179888e+002;1.589548e-001
9.199174e+002;1.589832e-001
9.218459e+002;1.595296e-001
9.237745e+002;1.607041e-001
9.257031e+002;1.621573e-001
9.276316e+002;1.635058e-001
9.295601e+002;1.646464e-001
9.314887e+002;1.652949e-001
9.334172e+002;1.670271e-001
9.353458e+002;1.694215e-001
9.372744e+002;1.712464e-001
9.392029e+002;1.731033e-001
9.411314e+002;1.758905e-001
9.430600e+002;1.792064e-001
9.449885e+002;1.822835e-001
9.469171e+002;1.858477e-001
9.488456e+002;1.902524e-001
9.507742e+002;1.951804e-001
9.527027e+002;2.002429e-001
9.546313e+002;2.054460e-001
9.565598e+002;2.110071e-001
9.584883e+002;2.170659e-001
9.604169e+002;2.232920e-001
9.623455e+002;2.290744e-001
9.642740e+002;2.346637e-001
9.662026e+002;2.404491e-001
9.681311e+002;2.462510e-001
9.700596e+002;2.529726e-001
9.719882e+002;2.607391e-001
9.739167e+002;2.684923e-001
9.758453e+002;2.770358e-001
9.777739e+002;2.877887e-001
9.797024e+002;2.995469e-001
9.816309e+002;3.101357e-001
9.835595e+002;3.195056e-001
9.854880e+002;3.272743e-001
9.874166e+002;3.328432e-001
9.893452e+002;3.372293e-001
9.912737e+002;3.410971e-001
9.932022e+002;3.445912e-001
9.951307e+002;3.485457e-001
9.970593e+002;3.531759e-001
9.989879e+002;3.577509e-001
1.000916e+003;3.620824e-001
1.002845e+003;3.657945e-001
1.004773e+003;3.690598e-001
1.006702e+003;3.722405e-001
1.008631e+003;3.760022e-001
1.010559e+003;3.805558e-001
1.012488e+003;3.862968e-001
1.014416e+003;3.928298e-001
1.016345e+003;3.992407e-001
1.018273e+003;4.060002e-001
1.020202e+003;4.113913e-001
1.022130e+003;4.161584e-001
1.024059e+003;4.212664e-001
1.025988e+003;4.244413e-001
1.027916e+003;4.259575e-001
1.029845e+003;4.266829e-001
1.031773e+003;4.260311e-001
1.033702e+003;4.245754e-001
1.035630e+003;4.218399e-001
1.037559e+003;4.178829e-001
1.039487e+003;4.137630e-001
1.041416e+003;4.096299e-001
1.043344e+003;4.056471e-001
1.045273e+003;4.032995e-001
1.047202e+003;4.016975e-001
1.049130e+003;4.008081e-001
1.051059e+003;4.005842e-001
1.052987e+003;3.983082e-001
1.054916e+003;3.941020e-001
1.056844e+003;3.880668e-001
1.058773e+003;3.792305e-001
1.060701e+003;3.691054e-001
1.062630e+003;3.587772e-001
1.064558e+003;3.471379e-001
1.066487e+003;3.349082e-001
1.068416e+003;3.234221e-001
1.070344e+003;3.142553e-001
1.072273e+003;3.077641e-001
1.074201e+003;3.021374e-001
1.076130e+003;2.960937e-001
1.078058e+003;2.900355e-001
1.079987e+003;2.853966e-001
1.081915e+003;2.824782e-001
1.083844e+003;2.799124e-001
1.085773e+003;2.784794e-001
1.087701e+003;2.776276e-001
1.089630e+003;2.759474e-001
1.091558e+003;2.744946e-001
1.093487e+003;2.742859e-001
1.095415e+003;2.742417e-001
1.097344e+003;2.731284e-001
1.099272e+003;2.713482e-001
1.101201e+003;2.708801e-001
1.103129e+003;2.697114e-001
1.105058e+003;2.664664e-001
1.106987e+003;2.624030e-001
1.108915e+003;2.574859e-001
1.110844e+003;2.518342e-001
1.112772e+003;2.454067e-001
1.114701e+003;2.383945e-001
1.116629e+003;2.312620e-001
1.118558e+003;2.238452e-001
1.120486e+003;2.168901e-001
1.122415e+003;2.108733e-001
1.124344e+003;2.049085e-001
1.126272e+003;1.979155e-001
1.128201e+003;1.904059e-001
1.130129e+003;1.839830e-001
1.132058e+003;1.774577e-001
1.133986e+003;1.710055e-001
1.135915e+003;1.660623e-001
1.137843e+003;1.626277e-001
1.139772e+003;1.606939e-001
1.141700e+003;1.594640e-001
1.143629e+003;1.592362e-001
1.145557e+003;1.597313e-001
1.147486e+003;1.604511e-001
1.149415e+003;1.607463e-001
1.151343e+003;1.608611e-001
1.153272e+003;1.611035e-001
1.155200e+003;1.604110e-001
1.157129e+003;1.597136e-001
1.159057e+003;1.585899e-001
1.160986e+003;1.562291e-001
1.162914e+003;1.530683e-001
1.164843e+003;1.487901e-001
1.166771e+003;1.425479e-001
1.168700e+003;1.354673e-001
1.170629e+003;1.287516e-001
1.172557e+003;1.229816e-001
1.174486e+003;1.180584e-001
1.176414e+003;1.136309e-001
1.178343e+003;1.107051e-001
1.180271e+003;1.087722e-001
1.182200e+003;1.069832e-001
1.184128e+003;1.062998e-001
1.186057e+003;1.068887e-001
1.187986e+003;1.080904e-001
1.189914e+003;1.095749e-001
1.191843e+003;1.111706e-001
1.193771e+003;1.131872e-001
1.195700e+003;1.155112e-001
1.197628e+003;1.178783e-001
1.199557e+003;1.198900e-001
1.201485e+003;1.205450e-001
1.203414e+003;1.204917e-001
1.205343e+003;1.206862e-001
1.207271e+003;1.203780e-001
1.209200e+003;1.190725e-001
1.211128e+003;1.177757e-001
1.213057e+003;1.175536e-001
1.214985e+003;1.182690e-001
1.216914e+003;1.196724e-001
1.218842e+003;1.214598e-001
1.220771e+003;1.232072e-001
1.222699e+003;1.249861e-001
1.224628e+003;1.268151e-001
1.226557e+003;1.282880e-001
1.228485e+003;1.294212e-001
1.230414e+003;1.304251e-001
1.232342e+003;1.313099e-001
1.234271e+003;1.314333e-001
1.236199e+003;1.309939e-001
1.238128e+003;1.308201e-001
1.240056e+003;1.307655e-001
1.241985e+003;1.306737e-001
1.243913e+003;1.307116e-001
1.245842e+003;1.307010e-001
1.247771e+003;1.302929e-001
1.249699e+003;1.295095e-001
1.251628e+003;1.289442e-001
1.253556e+003;1.286698e-001
1.255485e+003;1.285387e-001
1.257413e+003;1.285478e-001
1.259342e+003;1.288674e-001
1.261270e+003;1.289931e-001
1.263199e+003;1.284695e-001
1.265127e+003;1.275411e-001
1.267056e+003;1.268479e-001
1.268985e+003;1.267362e-001
1.270913e+003;1.265512e-001
1.272842e+003;1.259924e-001
1.274770e+003;1.251384e-001
1.276699e+003;1.246139e-001
1.278627e+003;1.236090e-001
1.280556e+003;1.226112e-001
1.282484e+003;1.218470e-001
1.284413e+003;1.209652e-001
1.286342e+003;1.207977e-001
1.288270e+003;1.211908e-001
1.290199e+003;1.214527e-001
1.292127e+003;1.219424e-001
1.294056e+003;1.232366e-001
1.295984e+003;1.251039e-001
1.297913e+003;1.276002e-001
1.299841e+003;1.299764e-001
1.301770e+003;1.323362e-001
1.303698e+003;1.350978e-001
1.305627e+003;1.381758e-001
1.307556e+003;1.412742e-001
1.309484e+003;1.445459e-001
1.311413e+003;1.476546e-001
1.313341e+003;1.499309e-001
1.315270e+003;1.512044e-001
1.317198e+003;1.516590e-001
1.319127e+003;1.514984e-001
1.321055e+003;1.507416e-001
1.322984e+003;1.495816e-001
1.324912e+003;1.487005e-001
1.326841e+003;1.482231e-001
1.328770e+003;1.477662e-001
1.330698e+003;1.471796e-001
1.332627e+003;1.463486e-001
1.334555e+003;1.455703e-001
1.336484e+003;1.446668e-001
1.338412e+003;1.429891e-001
1.340341e+003;1.411565e-001
1.342269e+003;1.395538e-001
1.344198e+003;1.380529e-001
1.346126e+003;1.365993e-001
1.348055e+003;1.350680e-001
1.349984e+003;1.341049e-001
1.351912e+003;1.341381e-001
1.353841e+003;1.344439e-001
1.355769e+003;1.349566e-001
1.357698e+003;1.358397e-001
1.359626e+003;1.365558e-001
1.361555e+003;1.368438e-001
1.363483e+003;1.366824e-001
1.365412e+003;1.362984e-001
1.367341e+003;1.358489e-001
1.369269e+003;1.353139e-001
1.371198e+003;1.342848e-001
1.373126e+003;1.327157e-001
1.375055e+003;1.308855e-001
1.376983e+003;1.289520e-001
1.378912e+003;1.269107e-001
1.380840e+003;1.249841e-001
1.382769e+003;1.232045e-001
1.384698e+003;1.215208e-001
1.386626e+003;1.197955e-001
1.388555e+003;1.186734e-001
1.390483e+003;1.183159e-001
1.392412e+003;1.182008e-001
1.394340e+003;1.181539e-001
1.396269e+003;1.183430e-001
1.398197e+003;1.191532e-001
1.400126e+003;1.201410e-001
1.402054e+003;1.209055e-001
1.403983e+003;1.218292e-001
1.405911e+003;1.231179e-001
1.407840e+003;1.244455e-001
1.409769e+003;1.254834e-001
1.411697e+003;1.267335e-001
1.413626e+003;1.283191e-001
1.415554e+003;1.301751e-001
1.417483e+003;1.316894e-001
1.419411e+003;1.325506e-001
1.421340e+003;1.328834e-001
1.423268e+003;1.326978e-001
1.425197e+003;1.315310e-001
1.427125e+003;1.297641e-001
1.429054e+003;1.276816e-001
1.430983e+003;1.252310e-001
1.432911e+003;1.228270e-001
1.434840e+003;1.207621e-001
1.436768e+003;1.191535e-001
1.438697e+003;1.181700e-001
1.440625e+003;1.178410e-001
1.442554e+003;1.179728e-001
1.444482e+003;1.183394e-001
1.446411e+003;1.191086e-001
1.448340e+003;1.196644e-001
1.450268e+003;1.202247e-001
1.452197e+003;1.209133e-001
1.454125e+003;1.212522e-001
1.456054e+003;1.209152e-001
1.457982e+003;1.204094e-001
1.459911e+003;1.195478e-001
1.461839e+003;1.184824e-001
1.463768e+003;1.165015e-001
1.465697e+003;1.137936e-001
1.467625e+003;1.106695e-001
1.469554e+003;1.069475e-001
1.471482e+003;1.033350e-001
1.473411e+003;9.994857e-002
1.475339e+003;9.657416e-002
1.477268e+003;9.362694e-002
1.479196e+003;9.122350e-002
1.481125e+003;8.908582e-002
1.483053e+003;8.743487e-002
1.484982e+003;8.605799e-002
1.486911e+003;8.502965e-002
1.488839e+003;8.459826e-002
1.490768e+003;8.473295e-002
1.492696e+003;8.539227e-002
1.494625e+003;8.657573e-002
1.496553e+003;8.782797e-002
1.498482e+003;8.859593e-002
1.500410e+003;8.909676e-002
1.502339e+003;8.966538e-002
1.504267e+003;8.963736e-002
1.506196e+003;8.859268e-002
1.508125e+003;8.721464e-002
1.510053e+003;8.558663e-002
1.511982e+003;8.332281e-002
1.513910e+003;8.112352e-002
1.515839e+003;7.916449e-002
1.517767e+003;7.735045e-002
1.519696e+003;7.576612e-002
1.521624e+003;7.441719e-002
1.523553e+003;7.344434e-002
1.525481e+003;7.285099e-002
1.527410e+003;7.244952e-002
1.529339e+003;7.197075e-002
1.531267e+003;7.194409e-002
1.533196e+003;7.198839e-002
1.535124e+003;7.176245e-002
1.537053e+003;7.214063e-002
1.538981e+003;7.244768e-002
1.540910e+003;7.241875e-002
1.542838e+003;7.253864e-002
1.544767e+003;7.282031e-002
1.546695e+003;7.338490e-002
1.548624e+003;7.399428e-002
1.550553e+003;7.455159e-002
1.552481e+003;7.511164e-002
1.554410e+003;7.544429e-002
1.556338e+003;7.576904e-002
1.558267e+003;7.628175e-002
1.560195e+003;7.692008e-002
1.562124e+003;7.782429e-002
1.564052e+003;7.867204e-002
1.565981e+003;7.950585e-002
1.567910e+003;8.050306e-002
1.569838e+003;8.173017e-002
1.571767e+003;8.294391e-002
1.573695e+003;8.439157e-002
1.575624e+003;8.620025e-002
1.577552e+003;8.797328e-002
1.579481e+003;8.998305e-002
1.581409e+003;9.257726e-002
1.583338e+003;9.530655e-002
1.585266e+003;9.787641e-002
1.587195e+003;1.001443e-001
1.589124e+003;1.021630e-001
1.591052e+003;1.038712e-001
1.592981e+003;1.047779e-001
1.594909e+003;1.047608e-001
1.596838e+003;1.042153e-001
1.598766e+003;1.035732e-001
1.600695e+003;1.028016e-001
1.602623e+003;1.018698e-001
1.604552e+003;1.010833e-001
1.606480e+003;1.003072e-001
1.608409e+003;9.914859e-002
1.610338e+003;9.798381e-002
1.612266e+003;9.683758e-002
1.614195e+003;9.585651e-002
1.616123e+003;9.481953e-002
1.618052e+003;9.379172e-002
1.619980e+003;9.281492e-002
1.621909e+003;9.179958e-002
1.623837e+003;9.109353e-002
1.625766e+003;9.025844e-002
1.627694e+003;8.928730e-002
1.629623e+003;8.846381e-002
1.631552e+003;8.795336e-002
1.633480e+003;8.789048e-002
1.635409e+003;8.775610e-002
1.637337e+003;8.733325e-002
1.639266e+003;8.673122e-002
1.641194e+003;8.635262e-002
1.643123e+003;8.633132e-002
1.645051e+003;8.595891e-002
1.646980e+003;8.540332e-002
1.648909e+003;8.510861e-002
1.650837e+003;8.471628e-002
1.652766e+003;8.399176e-002
1.654694e+003;8.347356e-002
1.656623e+003;8.288568e-002
1.658551e+003;8.197457e-002
1.660480e+003;8.110782e-002
1.662408e+003;8.008841e-002
1.664337e+003;7.936091e-002
1.666266e+003;7.889525e-002
1.668194e+003;7.801566e-002
1.670123e+003;7.682050e-002
1.672051e+003;7.571618e-002
1.673980e+003;7.463547e-002
1.675908e+003;7.348618e-002
1.677837e+003;7.236947e-002
1.679765e+003;7.157737e-002
1.681694e+003;7.099029e-002
1.683622e+003;7.006656e-002
1.685551e+003;6.886190e-002
1.687479e+003;6.781250e-002
1.689408e+003;6.696395e-002
1.691337e+003;6.629282e-002
1.693265e+003;6.576670e-002
1.695194e+003;6.526513e-002
1.697122e+003;6.486122e-002
1.699051e+003;6.435989e-002
1.700979e+003;6.353910e-002
1.702908e+003;6.299125e-002
1.704836e+003;6.261919e-002
1.706765e+003;6.219609e-002
1.708693e+003;6.208354e-002
1.710622e+003;6.200675e-002
1.712551e+003;6.156826e-002
1.714479e+003;6.147118e-002
1.716408e+003;6.167735e-002
1.718336e+003;6.185279e-002
1.720265e+003;6.182055e-002
1.722193e+003;6.157288e-002
1.724122e+003;6.154401e-002
1.726050e+003;6.151862e-002
1.727979e+003;6.115812e-002
1.729908e+003;6.077307e-002
1.731836e+003;6.079358e-002
1.733765e+003;6.110461e-002
1.735693e+003;6.113669e-002
1.737622e+003;6.077608e-002
1.739550e+003;6.022089e-002
1.741479e+003;5.966470e-002
1.743407e+003;5.921527e-002
1.745336e+003;5.895925e-002
1.747265e+003;5.857948e-002
1.749193e+003;5.800672e-002
1.751122e+003;5.740903e-002
1.753050e+003;5.669307e-002
1.754979e+003;5.596736e-002
1.756907e+003;5.554986e-002
1.758836e+003;5.534571e-002
1.760764e+003;5.492358e-002
1.762693e+003;5.427699e-002
1.764621e+003;5.363912e-002
1.766550e+003;5.320011e-002
1.768479e+003;5.270591e-002
1.770407e+003;5.221938e-002
1.772336e+003;5.166882e-002
1.774264e+003;5.120618e-002
1.776193e+003;5.115183e-002
1.778121e+003;5.078586e-002
1.780050e+003;5.048362e-002
1.781978e+003;5.047487e-002
1.783907e+003;5.063352e-002
1.785835e+003;5.047599e-002
1.787764e+003;4.991551e-002
1.789693e+003;4.944145e-002
1.791621e+003;4.943210e-002
1.793550e+003;4.943213e-002
1.795478e+003;4.908798e-002
1.797407e+003;4.893349e-002
1.799335e+003;4.878405e-002
1.801264e+003;4.854374e-002
1.803192e+003;4.842000e-002
1.805121e+003;4.818718e-002
1.807049e+003;4.816119e-002
1.808978e+003;4.802050e-002
1.810907e+003;4.783347e-002
1.812835e+003;4.797787e-002
1.814764e+003;4.819363e-002
1.816692e+003;4.825338e-002
1.818621e+003;4.820281e-002
1.820549e+003;4.806196e-002
1.822478e+003;4.806988e-002
1.824406e+003;4.816649e-002
1.826335e+003;4.820803e-002
1.828264e+003;4.799467e-002
1.830192e+003;4.771703e-002
1.832121e+003;4.760799e-002
1.834049e+003;4.760181e-002
1.835978e+003;4.764859e-002
1.837906e+003;4.760433e-002
1.839835e+003;4.735613e-002
1.841763e+003;4.711627e-002
1.843692e+003;4.686861e-002
1.845620e+003;4.686702e-002
1.847549e+003;4.680837e-002
1.849478e+003;4.680295e-002
1.851406e+003;4.696920e-002
1.853335e+003;4.693996e-002
1.855263e+003;4.674531e-002
1.857192e+003;4.673605e-002
1.859120e+003;4.696846e-002
1.861049e+003;4.700645e-002
1.862977e+003;4.676582e-002
1.864906e+003;4.676291e-002
1.866834e+003;4.663543e-002
1.868763e+003;4.643480e-002
1.870692e+003;4.653813e-002
1.872620e+003;4.673944e-002
1.874549e+003;4.668742e-002
1.876477e+003;4.661463e-002
1.878406e+003;4.666805e-002
1.880334e+003;4.657199e-002
1.882263e+003;4.640995e-002
1.884191e+003;4.651268e-002
1.886120e+003;4.652179e-002
1.888048e+003;4.652087e-002
1.889977e+003;4.647765e-002
1.891906e+003;4.633547e-002
1.893834e+003;4.644800e-002
1.895763e+003;4.656325e-002
1.897691e+003;4.673232e-002
1.899620e+003;4.680206e-002
1.901548e+003;4.693837e-002
1.903477e+003;4.699165e-002
1.905405e+003;4.668457e-002
1.907334e+003;4.655178e-002
1.909262e+003;4.667521e-002
1.911191e+003;4.685764e-002
1.913120e+003;4.712347e-002
1.915048e+003;4.739116e-002
1.916977e+003;4.746186e-002
1.918905e+003;4.743757e-002
1.920834e+003;4.749464e-002
1.922762e+003;4.770505e-002
1.924691e+003;4.794235e-002
1.926619e+003;4.815064e-002
1.928548e+003;4.839456e-002
1.930477e+003;4.857880e-002
1.932405e+003;4.848935e-002
1.934334e+003;4.838596e-002
1.936262e+003;4.839237e-002
1.938191e+003;4.837133e-002
1.940119e+003;4.847201e-002
1.942048e+003;4.858635e-002
1.943976e+003;4.854893e-002
1.945905e+003;4.870243e-002
1.947833e+003;4.915194e-002
1.949762e+003;4.947331e-002
1.951691e+003;4.951438e-002
1.953619e+003;4.941591e-002
1.955548e+003;4.933331e-002
1.957476e+003;4.933590e-002
1.959405e+003;4.932696e-002
1.961333e+003;4.959973e-002
1.963262e+003;4.976497e-002
1.965190e+003;4.967472e-002
1.967119e+003;4.956786e-002
1.969047e+003;4.953410e-002
1.970976e+003;4.943640e-002
1.972905e+003;4.952845e-002
1.974833e+003;4.977177e-002
1.976762e+003;4.990418e-002
1.978690e+003;4.989481e-002
1.980619e+003;5.017880e-002
1.982547e+003;5.018802e-002
1.984476e+003;5.019549e-002
1.986404e+003;5.047070e-002
1.988333e+003;5.081711e-002
1.990261e+003;5.098997e-002
1.992190e+003;5.086080e-002
1.994119e+003;5.075369e-002
1.996047e+003;5.079968e-002
1.997976e+003;5.090364e-002
1.999904e+003;5.092019e-002
2.001833e+003;5.116969e-002
2.003761e+003;5.152124e-002
2.005690e+003;5.156351e-002
2.007618e+003;5.147453e-002
2.009547e+003;5.154370e-002
2.011476e+003;5.178703e-002
2.013404e+003;5.206257e-002
2.015333e+003;5.246458e-002
2.017261e+003;5.284345e-002
2.019190e+003;5.296176e-002
2.021118e+003;5.297280e-002
2.023047e+003;5.323726e-002
2.024975e+003;5.338790e-002
2.026904e+003;5.339663e-002
2.028833e+003;5.335418e-002
2.030761e+003;5.329757e-002
2.032690e+003;5.336860e-002
2.034618e+003;5.338175e-002
2.036547e+003;5.325262e-002
2.038475e+003;5.338138e-002
2.040404e+003;5.376353e-002
2.042332e+003;5.394871e-002
2.044261e+003;5.415618e-002
2.046189e+003;5.435993e-002
2.048118e+003;5.447463e-002
2.050047e+003;5.491001e-002
2.051975e+003;5.495768e-002
2.053904e+003;5.442532e-002
2.055832e+003;5.447441e-002
2.057761e+003;5.467872e-002
2.059689e+003;5.464422e-002
2.061618e+003;5.455356e-002
2.063546e+003;5.449608e-002
2.065475e+003;5.457925e-002
2.067404e+003;5.476986e-002
2.069332e+003;5.497671e-002
2.071260e+003;5.527044e-002
2.073189e+003;5.529757e-002
2.075118e+003;5.499559e-002
2.077046e+003;5.458196e-002
2.078975e+003;5.440327e-002
2.080903e+003;5.459804e-002
2.082832e+003;5.464914e-002
2.084760e+003;5.450968e-002
2.086689e+003;5.460131e-002
2.088617e+003;5.460420e-002
2.090546e+003;5.444586e-002
2.092475e+003;5.433143e-002
2.094403e+003;5.460694e-002
2.096332e+003;5.518446e-002
2.098260e+003;5.532263e-002
2.100189e+003;5.526317e-002
2.102117e+003;5.518190e-002
2.104046e+003;5.481955e-002
2.105974e+003;5.458760e-002
2.107903e+003;5.509308e-002
2.109832e+003;5.561324e-002
2.111760e+003;5.561625e-002
2.113688e+003;5.547260e-002
2.115617e+003;5.536667e-002
2.117546e+003;5.548246e-002
2.119474e+003;5.555961e-002
2.121403e+003;5.572526e-002
2.123331e+003;5.566559e-002
2.125260e+003;5.541670e-002
2.127188e+003;5.534507e-002
2.129117e+003;5.542358e-002
2.131045e+003;5.554391e-002
2.132974e+003;5.574390e-002
2.134903e+003;5.587679e-002
2.136831e+003;5.578806e-002
2.138760e+003;5.558722e-002
2.140688e+003;5.564578e-002
2.142617e+003;5.570216e-002
2.144545e+003;5.536701e-002
2.146474e+003;5.509571e-002
2.148402e+003;5.506637e-002
2.150331e+003;5.524568e-002
2.152260e+003;5.530107e-002
2.154188e+003;5.508766e-002
2.156117e+003;5.496449e-002
2.158045e+003;5.515342e-002
2.159974e+003;5.545400e-002
2.161902e+003;5.537107e-002
2.163831e+003;5.491016e-002
2.165759e+003;5.467605e-002
2.167688e+003;5.488794e-002
2.169616e+003;5.527710e-002
2.171545e+003;5.532275e-002
2.173474e+003;5.503222e-002
2.175402e+003;5.475670e-002
2.177331e+003;5.479831e-002
2.179259e+003;5.504366e-002
2.181188e+003;5.490730e-002
2.183116e+003;5.465361e-002
2.185045e+003;5.444864e-002
2.186973e+003;5.462434e-002
2.188902e+003;5.484654e-002
2.190831e+003;5.455341e-002
2.192759e+003;5.413089e-002
2.194688e+003;5.392961e-002
2.196616e+003;5.411407e-002
2.198545e+003;5.413967e-002
2.200473e+003;5.407662e-002
2.202402e+003;5.417522e-002
2.204330e+003;5.426602e-002
2.206259e+003;5.422356e-002
2.208188e+003;5.400679e-002
2.210116e+003;5.406712e-002
2.212044e+003;5.422736e-002
2.213973e+003;5.417247e-002
2.215902e+003;5.439689e-002
2.217830e+003;5.461942e-002
2.219759e+003;5.462318e-002
2.221687e+003;5.439043e-002
2.223616e+003;5.421779e-002
2.225544e+003;5.436879e-002
2.227473e+003;5.460845e-002
2.229401e+003;5.465234e-002
2.231330e+003;5.453458e-002
2.233259e+003;5.438953e-002
2.235187e+003;5.437011e-002
2.237116e+003;5.457888e-002
2.239044e+003;5.470360e-002
2.240973e+003;5.458095e-002
2.242901e+003;5.456975e-002
2.244830e+003;5.458651e-002
2.246758e+003;5.429058e-002
2.248687e+003;5.402236e-002
2.250615e+003;5.402626e-002
2.252544e+003;5.413029e-002
2.254473e+003;5.413265e-002
2.256401e+003;5.419778e-002
2.258330e+003;5.417068e-002
2.260258e+003;5.404142e-002
2.262187e+003;5.396394e-002
2.264115e+003;5.403864e-002
2.266044e+003;5.405024e-002
2.267972e+003;5.387454e-002
2.269901e+003;5.384079e-002
2.271830e+003;5.370953e-002
2.273758e+003;5.356002e-002
2.275687e+003;5.364553e-002
2.277615e+003;5.390763e-002
2.279544e+003;5.404938e-002
2.281472e+003;5.411486e-002
2.283401e+003;5.433357e-002
2.285329e+003;5.443786e-002
2.287258e+003;5.406371e-002
2.289187e+003;5.371448e-002
2.291115e+003;5.386681e-002
2.293043e+003;5.424384e-002
2.294972e+003;5.441780e-002
2.296901e+003;5.406180e-002
2.298829e+003;5.376769e-002
2.300758e+003;5.391089e-002
2.302686e+003;5.392443e-002
2.304615e+003;5.373030e-002
2.306543e+003;5.337463e-002
2.308472e+003;5.332758e-002
2.310400e+003;5.355594e-002
2.312329e+003;5.367301e-002
2.314258e+003;5.393224e-002
2.316186e+003;5.403924e-002
2.318115e+003;5.407410e-002
2.320043e+003;5.419143e-002
2.321972e+003;5.436403e-002
2.323900e+003;5.409808e-002
2.325829e+003;5.380613e-002
2.327757e+003;5.392627e-002
2.329686e+003;5.431303e-002
2.331615e+003;5.423884e-002
2.333543e+003;5.392616e-002
2.335472e+003;5.394721e-002
2.337400e+003;5.433429e-002
2.339329e+003;5.455777e-002
2.341257e+003;5.453913e-002
2.343186e+003;5.449957e-002
2.345114e+003;5.464355e-002
2.347043e+003;5.528955e-002
2.348971e+003;5.559045e-002
2.350900e+003;5.526965e-002
2.352829e+003;5.516053e-002
2.354757e+003;5.549041e-002
2.356686e+003;5.562363e-002
2.358614e+003;5.581074e-002
2.360543e+003;5.613293e-002
2.362471e+003;5.619745e-002
2.364400e+003;5.616901e-002
2.366328e+003;5.619224e-002
2.368257e+003;5.621114e-002
2.370186e+003;5.626345e-002
2.372114e+003;5.652547e-002
2.374042e+003;5.643951e-002
2.375971e+003;5.610789e-002
2.377900e+003;5.607660e-002
2.379828e+003;5.633519e-002
2.381757e+003;5.667645e-002
2.383685e+003;5.703598e-002
2.385614e+003;5.704478e-002
2.387542e+003;5.707720e-002
2.389471e+003;5.706318e-002
2.391399e+003;5.687285e-002
2.393328e+003;5.675646e-002
2.395257e+003;5.719065e-002
2.397185e+003;5.755170e-002
2.399114e+003;5.739814e-002
2.401042e+003;5.734051e-002
2.402971e+003;5.762271e-002
2.404899e+003;5.798748e-002
2.406828e+003;5.800384e-002
2.408756e+003;5.807064e-002
2.410685e+003;5.837681e-002
2.412614e+003;5.836601e-002
2.414542e+003;5.842040e-002
2.416471e+003;5.885372e-002
2.418399e+003;5.897838e-002
2.420328e+003;5.889705e-002
2.422256e+003;5.910349e-002
2.424185e+003;5.926677e-002
2.426113e+003;5.936450e-002
2.428042e+003;5.963547e-002
2.429970e+003;5.977884e-002
2.431899e+003;5.989303e-002
2.433828e+003;6.000753e-002
2.435756e+003;6.028343e-002
2.437685e+003;6.062096e-002
2.439613e+003;6.060191e-002
2.441542e+003;6.058588e-002
2.443470e+003;6.076381e-002
2.445399e+003;6.050291e-002
2.447327e+003;6.039746e-002
2.449256e+003;6.075413e-002
2.451185e+003;6.086016e-002
2.453113e+003;6.073656e-002
2.455042e+003;6.073344e-002
2.456970e+003;6.095467e-002
2.458899e+003;6.101251e-002
2.460827e+003;6.107196e-002
2.462756e+003;6.153657e-002
2.464684e+003;6.175252e-002
2.466613e+003;6.169022e-002
2.468542e+003;6.174217e-002
2.470470e+003;6.201826e-002
2.472398e+003;6.223288e-002
2.474327e+003;6.203378e-002
2.476256e+003;6.202135e-002
2.478184e+003;6.205346e-002
2.480113e+003;6.210992e-002
2.482041e+003;6.213274e-002
2.483970e+003;6.223215e-002
2.485898e+003;6.242985e-002
2.487827e+003;6.213622e-002
2.489755e+003;6.186181e-002
2.491684e+003;6.203966e-002
2.493613e+003;6.250522e-002
2.495541e+003;6.278019e-002
2.497470e+003;6.283131e-002
2.499398e+003;6.325012e-002
2.501327e+003;6.340419e-002
2.503255e+003;6.321233e-002
2.505184e+003;6.313787e-002
2.507112e+003;6.295854e-002
2.509041e+003;6.284633e-002
2.510969e+003;6.312802e-002
2.512898e+003;6.347697e-002
2.514827e+003;6.364823e-002
2.516755e+003;6.362740e-002
2.518684e+003;6.370424e-002
2.520612e+003;6.405650e-002
2.522541e+003;6.414333e-002
2.524469e+003;6.425542e-002
2.526398e+003;6.445331e-002
2.528326e+003;6.434121e-002
2.530255e+003;6.404801e-002
2.532184e+003;6.415424e-002
2.534112e+003;6.459928e-002
2.536041e+003;6.475960e-002
2.537969e+003;6.476148e-002
2.539898e+003;6.476633e-002
2.541826e+003;6.476248e-002
2.543755e+003;6.467706e-002
2.545683e+003;6.463946e-002
2.547612e+003;6.484876e-002
2.549541e+003;6.505047e-002
2.551469e+003;6.514639e-002
2.553397e+003;6.522385e-002
2.555326e+003;6.519178e-002
2.557255e+003;6.507826e-002
2.559183e+003;6.532674e-002
2.561112e+003;6.562335e-002
2.563040e+003;6.559337e-002
2.564969e+003;6.535575e-002
2.566897e+003;6.523313e-002
2.568826e+003;6.568598e-002
2.570754e+003;6.605752e-002
2.572683e+003;6.573089e-002
2.574612e+003;6.550009e-002
2.576540e+003;6.553060e-002
2.578469e+003;6.573104e-002
2.580397e+003;6.603148e-002
2.582326e+003;6.618144e-002
2.584254e+003;6.613950e-002
2.586183e+003;6.613074e-002
2.588111e+003;6.603055e-002
2.590040e+003;6.595314e-002
2.591969e+003;6.599989e-002
2.593897e+003;6.621953e-002
2.595826e+003;6.663421e-002
2.597754e+003;6.670421e-002
2.599683e+003;6.631498e-002
2.601611e+003;6.643551e-002
2.603540e+003;6.685394e-002
2.605468e+003;6.689510e-002
2.607397e+003;6.676923e-002
2.609325e+003;6.709877e-002
2.611254e+003;6.724346e-002
2.613183e+003;6.730802e-002
2.615111e+003;6.757808e-002
2.617040e+003;6.751812e-002
2.618968e+003;6.776603e-002
2.620897e+003;6.818559e-002
2.622825e+003;6.843156e-002
2.624754e+003;6.864391e-002
2.626682e+003;6.846907e-002
2.628611e+003;6.809705e-002
2.630540e+003;6.826162e-002
2.632468e+003;6.845231e-002
2.634396e+003;6.870138e-002
2.636325e+003;6.881881e-002
2.638254e+003;6.906785e-002
2.640182e+003;6.936936e-002
2.642111e+003;6.940621e-002
2.644039e+003;6.927203e-002
2.645968e+003;6.929038e-002
2.647896e+003;6.946472e-002
2.649825e+003;6.994241e-002
2.651753e+003;7.021527e-002
2.653682e+003;7.017399e-002
2.655611e+003;6.992069e-002
2.657539e+003;6.979238e-002
2.659468e+003;6.993014e-002
2.661396e+003;7.031600e-002
2.663325e+003;7.072724e-002
2.665253e+003;7.094613e-002
2.667182e+003;7.095850e-002
2.669110e+003;7.097056e-002
2.671039e+003;7.080660e-002
2.672968e+003;7.089420e-002
2.674896e+003;7.126242e-002
2.676825e+003;7.141795e-002
2.678753e+003;7.136460e-002
2.680682e+003;7.160835e-002
2.682610e+003;7.204072e-002
2.684539e+003;7.185095e-002
2.686467e+003;7.190487e-002
2.688396e+003;7.241143e-002
2.690324e+003;7.261159e-002
2.692253e+003;7.255574e-002
2.694182e+003;7.252172e-002
2.696110e+003;7.262295e-002
2.698039e+003;7.279703e-002
2.699967e+003;7.303853e-002
2.701896e+003;7.323965e-002
2.703824e+003;7.338435e-002
2.705753e+003;7.356118e-002
2.707681e+003;7.369044e-002
2.709610e+003;7.363831e-002
2.711539e+003;7.366292e-002
2.713467e+003;7.403258e-002
2.715396e+003;7.437433e-002
2.717324e+003;7.425425e-002
2.719253e+003;7.385659e-002
2.721181e+003;7.382953e-002
2.723110e+003;7.401137e-002
2.725038e+003;7.439423e-002
2.726967e+003;7.464157e-002
2.728896e+003;7.465573e-002
2.730824e+003;7.475648e-002
2.732752e+003;7.468800e-002
2.734681e+003;7.460046e-002
2.736610e+003;7.471248e-002
2.738538e+003;7.462611e-002
2.740467e+003;7.438836e-002
2.742395e+003;7.467022e-002
2.744324e+003;7.500210e-002
2.746252e+003;7.516713e-002
2.748181e+003;7.540274e-002
2.750109e+003;7.573082e-002
2.752038e+003;7.578959e-002
2.753967e+003;7.555693e-002
2.755895e+003;7.570971e-002
2.757824e+003;7.606217e-002
2.759752e+003;7.586049e-002
2.761681e+003;7.584420e-002
2.763609e+003;7.659045e-002
2.765538e+003;7.705878e-002
2.767466e+003;7.675838e-002
2.769395e+003;7.651006e-002
2.771323e+003;7.666761e-002
2.773252e+003;7.673343e-002
2.775181e+003;7.710900e-002
2.777109e+003;7.747420e-002
2.779038e+003;7.766288e-002
2.780966e+003;7.796078e-002
2.782895e+003;7.839488e-002
2.784823e+003;7.844382e-002
2.786752e+003;7.833638e-002
2.788680e+003;7.842052e-002
2.790609e+003;7.884359e-002
2.792538e+003;7.954007e-002
2.794466e+003;7.972534e-002
2.796395e+003;7.977197e-002
2.798323e+003;8.020477e-002
2.800252e+003;8.047120e-002
2.802180e+003;8.085038e-002
2.804109e+003;8.124906e-002
2.806037e+003;8.147520e-002
2.807966e+003;8.179745e-002
2.809895e+003;8.203592e-002
2.811823e+003;8.222095e-002
2.813751e+003;8.252187e-002
2.815680e+003;8.306277e-002
2.817609e+003;8.373956e-002
2.819537e+003;8.420791e-002
2.821466e+003;8.471394e-002
2.823394e+003;8.536052e-002
2.825323e+003;8.606114e-002
2.827251e+003;8.664627e-002
2.829180e+003;8.737786e-002
2.831108e+003;8.818784e-002
2.833037e+003;8.918810e-002
2.834966e+003;9.006458e-002
2.836894e+003;9.086408e-002
2.838823e+003;9.201879e-002
2.840751e+003;9.302697e-002
2.842680e+003;9.411489e-002
2.844608e+003;9.526971e-002
2.846537e+003;9.621727e-002
2.848465e+003;9.759842e-002
2.850394e+003;9.936021e-002
2.852323e+003;1.006066e-001
2.854251e+003;1.012458e-001
2.856180e+003;1.018568e-001
2.858108e+003;1.024922e-001
2.860037e+003;1.033232e-001
2.861965e+003;1.044325e-001
2.863894e+003;1.055417e-001
2.865822e+003;1.062306e-001
2.867751e+003;1.068356e-001
2.869679e+003;1.080932e-001
2.871608e+003;1.090898e-001
2.873536e+003;1.094464e-001
2.875465e+003;1.098360e-001
2.877394e+003;1.103981e-001
2.879322e+003;1.108932e-001
2.881251e+003;1.112452e-001
2.883179e+003;1.115736e-001
2.885108e+003;1.117878e-001
2.887036e+003;1.124157e-001
2.888965e+003;1.129513e-001
2.890893e+003;1.129905e-001
2.892822e+003;1.132149e-001
2.894750e+003;1.136614e-001
2.896679e+003;1.135740e-001
2.898608e+003;1.132256e-001
2.900536e+003;1.130948e-001
2.902465e+003;1.130092e-001
2.904393e+003;1.126849e-001
2.906322e+003;1.121660e-001
2.908250e+003;1.118715e-001
2.910179e+003;1.111966e-001
2.912107e+003;1.106547e-001
2.914036e+003;1.105562e-001
2.915965e+003;1.100055e-001
2.917893e+003;1.092327e-001
2.919822e+003;1.088238e-001
2.921750e+003;1.086052e-001
2.923679e+003;1.082443e-001
2.925607e+003;1.076342e-001
2.927536e+003;1.062244e-001
2.929464e+003;1.047457e-001
2.931393e+003;1.039592e-001
2.933322e+003;1.030394e-001
2.935250e+003;1.020443e-001
2.937178e+003;1.011602e-001
2.939107e+003;1.000825e-001
2.941036e+003;9.913169e-002
2.942964e+003;9.841508e-002
2.944893e+003;9.769414e-002
2.946821e+003;9.657321e-002
2.948750e+003;9.507669e-002
2.950678e+003;9.392308e-002
2.952607e+003;9.294209e-002
2.954535e+003;9.190266e-002
2.956464e+003;9.088176e-002
2.958393e+003;8.969740e-002
2.960321e+003;8.866509e-002
2.962250e+003;8.775959e-002
2.964178e+003;8.716734e-002
2.966107e+003;8.631151e-002
2.968035e+003;8.576995e-002
2.969964e+003;8.552962e-002
2.971892e+003;8.494362e-002
2.973821e+003;8.416415e-002
2.975750e+003;8.318791e-002
2.977678e+003;8.247155e-002
2.979607e+003;8.206710e-002
2.981535e+003;8.143735e-002
2.983464e+003;8.040792e-002
2.985392e+003;7.986868e-002
2.987321e+003;8.001522e-002
2.989249e+003;7.983296e-002
2.991178e+003;7.949816e-002
2.993106e+003;7.921523e-002
2.995035e+003;7.848137e-002
2.996964e+003;7.796970e-002
2.998892e+003;7.849197e-002
3.000821e+003;7.899269e-002
3.002749e+003;7.848141e-002
3.004678e+003;7.806554e-002
3.006606e+003;7.787737e-002
3.008535e+003;7.787566e-002
3.010463e+003;7.805892e-002
3.012392e+003;7.784946e-002
3.014321e+003;7.810901e-002
3.016249e+003;7.841203e-002
3.018177e+003;7.818525e-002
3.020106e+003;7.818704e-002
3.022035e+003;7.843072e-002
3.023963e+003;7.847927e-002
3.025892e+003;7.842179e-002
3.027820e+003;7.835480e-002
3.029749e+003;7.846807e-002
3.031677e+003;7.859662e-002
3.033606e+003;7.868351e-002
3.035534e+003;7.895962e-002
3.037463e+003;7.938652e-002
3.039392e+003;8.004494e-002
3.041320e+003;8.019907e-002
3.043249e+003;7.984682e-002
3.045177e+003;8.001128e-002
3.047106e+003;8.052500e-002
3.049034e+003;8.081461e-002
3.050963e+003;8.118131e-002
3.052891e+003;8.147620e-002
3.054820e+003;8.163416e-002
3.056749e+003;8.177517e-002
3.058677e+003;8.211293e-002
3.060606e+003;8.252423e-002
3.062534e+003;8.300050e-002
3.064463e+003;8.365346e-002
3.066391e+003;8.385312e-002
3.068320e+003;8.383238e-002
3.070248e+003;8.397242e-002
3.072177e+003;8.411955e-002
3.074105e+003;8.439483e-002
3.076034e+003;8.471176e-002
3.077963e+003;8.498239e-002
3.079891e+003;8.495124e-002
3.081820e+003;8.514070e-002
3.083748e+003;8.555726e-002
3.085677e+003;8.649582e-002
3.087605e+003;8.730080e-002
3.089534e+003;8.756051e-002
3.091462e+003;8.742600e-002
3.093391e+003;8.736749e-002
3.095320e+003;8.760291e-002
3.097248e+003;8.815249e-002
3.099177e+003;8.857902e-002
3.101105e+003;8.904873e-002
3.103034e+003;8.942436e-002
3.104962e+003;8.950000e-002
3.106891e+003;8.984118e-002
3.108819e+003;9.029609e-002
3.110748e+003;9.061332e-002
3.112677e+003;9.099803e-002
3.114605e+003;9.130837e-002
3.116533e+003;9.165809e-002
3.118462e+003;9.217899e-002
3.120391e+003;9.280860e-002
3.122319e+003;9.323785e-002
3.124248e+003;9.337418e-002
3.126176e+003;9.373449e-002
3.128105e+003;9.460080e-002
3.130033e+003;9.538431e-002
3.131962e+003;9.579681e-002
3.133890e+003;9.556210e-002
3.135819e+003;9.603971e-002
3.137748e+003;9.692020e-002
3.139676e+003;9.719904e-002
3.141605e+003;9.759552e-002
3.143533e+003;9.800752e-002
3.145462e+003;9.831157e-002
3.147390e+003;9.898151e-002
3.149319e+003;9.972745e-002
3.151247e+003;1.002655e-001
3.153176e+003;1.009639e-001
3.155104e+003;1.015361e-001
3.157033e+003;1.021548e-001
3.158962e+003;1.024659e-001
3.160890e+003;1.026993e-001
3.162819e+003;1.029011e-001
3.164747e+003;1.035242e-001
3.166676e+003;1.039908e-001
3.168604e+003;1.045990e-001
3.170533e+003;1.054520e-001
3.172461e+003;1.060009e-001
3.174390e+003;1.063697e-001
3.176319e+003;1.073529e-001
3.178247e+003;1.082829e-001
3.180176e+003;1.086473e-001
3.182104e+003;1.088075e-001
3.184033e+003;1.091393e-001
3.185961e+003;1.095004e-001
3.187890e+003;1.102728e-001
3.189818e+003;1.109498e-001
3.191747e+003;1.111818e-001
3.193676e+003;1.116143e-001
3.195604e+003;1.124820e-001
3.197532e+003;1.134027e-001
3.199461e+003;1.136652e-001
3.201390e+003;1.143984e-001
3.203318e+003;1.152992e-001
3.205247e+003;1.159703e-001
3.207175e+003;1.164370e-001
3.209104e+003;1.165836e-001
3.211032e+003;1.173830e-001
3.212961e+003;1.185994e-001
3.214889e+003;1.190827e-001
3.216818e+003;1.195518e-001
3.218747e+003;1.201966e-001
3.220675e+003;1.209501e-001
3.222604e+003;1.215995e-001
3.224532e+003;1.222717e-001
3.226461e+003;1.229352e-001
3.228389e+003;1.232311e-001
3.230318e+003;1.235368e-001
3.232246e+003;1.243438e-001
3.234175e+003;1.254018e-001
3.236104e+003;1.267242e-001
3.238032e+003;1.277302e-001
3.239961e+003;1.280689e-001
3.241889e+003;1.286120e-001
3.243818e+003;1.289448e-001
3.245746e+003;1.295299e-001
3.247675e+003;1.304848e-001
3.249603e+003;1.317619e-001
3.251532e+003;1.327640e-001
3.253460e+003;1.332106e-001
3.255389e+003;1.339541e-001
3.257318e+003;1.349285e-001
3.259246e+003;1.359750e-001
3.261175e+003;1.367185e-001
3.263103e+003;1.372901e-001
3.265032e+003;1.380675e-001
3.266960e+003;1.388885e-001
3.268889e+003;1.395501e-001
3.270817e+003;1.397670e-001
3.272746e+003;1.399562e-001
3.274675e+003;1.405375e-001
3.276603e+003;1.413410e-001
3.278531e+003;1.427224e-001
3.280460e+003;1.432959e-001
3.282389e+003;1.432941e-001
3.284317e+003;1.435793e-001
3.286246e+003;1.440174e-001
3.288174e+003;1.444524e-001
3.290103e+003;1.447188e-001
3.292031e+003;1.453248e-001
3.293960e+003;1.455398e-001
3.295888e+003;1.453122e-001
3.297817e+003;1.456769e-001
3.299746e+003;1.459283e-001
3.301674e+003;1.460204e-001
3.303603e+003;1.465315e-001
3.305531e+003;1.469582e-001
3.307460e+003;1.468731e-001
3.309388e+003;1.468804e-001
3.311317e+003;1.469580e-001
3.313245e+003;1.472571e-001
3.315174e+003;1.479553e-001
3.317103e+003;1.483205e-001
3.319031e+003;1.485157e-001
3.320960e+003;1.489151e-001
3.322888e+003;1.496709e-001
3.324817e+003;1.499864e-001
3.326745e+003;1.501850e-001
3.328674e+003;1.503111e-001
3.330602e+003;1.500550e-001
3.332531e+003;1.502921e-001
3.334459e+003;1.507936e-001
3.336388e+003;1.504807e-001
3.338317e+003;1.503308e-001
3.340245e+003;1.504018e-001
3.342174e+003;1.499767e-001
3.344102e+003;1.500183e-001
3.346031e+003;1.499508e-001
3.347959e+003;1.493981e-001
3.349888e+003;1.486491e-001
3.351816e+003;1.483148e-001
3.353745e+003;1.481237e-001
3.355674e+003;1.477506e-001
3.357602e+003;1.473455e-001
3.359531e+003;1.470861e-001
3.361459e+003;1.473884e-001
3.363388e+003;1.469518e-001
3.365316e+003;1.459216e-001
3.367245e+003;1.457743e-001
3.369173e+003;1.454329e-001
3.371102e+003;1.445685e-001
3.373031e+003;1.440770e-001
3.374959e+003;1.433392e-001
3.376887e+003;1.427514e-001
3.378816e+003;1.428659e-001
3.380745e+003;1.427586e-001
3.382673e+003;1.421915e-001
3.384602e+003;1.413073e-001
3.386530e+003;1.405740e-001
3.388459e+003;1.405163e-001
3.390387e+003;1.401783e-001
3.392316e+003;1.394694e-001
3.394244e+003;1.388681e-001
3.396173e+003;1.378693e-001
3.398102e+003;1.373821e-001
3.400030e+003;1.373238e-001
3.401959e+003;1.376220e-001
3.403887e+003;1.370790e-001
3.405816e+003;1.358078e-001
3.407744e+003;1.353388e-001
3.409673e+003;1.348787e-001
3.411601e+003;1.343653e-001
3.413530e+003;1.337560e-001
3.415458e+003;1.327112e-001
3.417387e+003;1.320948e-001
3.419316e+003;1.315537e-001
3.421244e+003;1.307434e-001
3.423173e+003;1.298595e-001
3.425101e+003;1.291318e-001
3.427030e+003;1.283514e-001
3.428958e+003;1.274737e-001
3.430887e+003;1.268930e-001
3.432815e+003;1.263653e-001
3.434744e+003;1.255087e-001
3.436673e+003;1.245190e-001
3.438601e+003;1.239977e-001
3.440530e+003;1.235600e-001
3.442458e+003;1.224493e-001
3.444387e+003;1.212160e-001
3.446315e+003;1.206146e-001
3.448244e+003;1.201842e-001
3.450172e+003;1.189622e-001
3.452101e+003;1.178082e-001
3.454030e+003;1.176211e-001
3.455958e+003;1.173531e-001
3.457886e+003;1.162843e-001
3.459815e+003;1.149902e-001
3.461744e+003;1.136955e-001
3.463672e+003;1.126731e-001
3.465601e+003;1.118609e-001
3.467529e+003;1.114294e-001
3.469458e+003;1.108997e-001
3.471386e+003;1.095810e-001
3.473315e+003;1.079867e-001
3.475243e+003;1.075160e-001
3.477172e+003;1.072013e-001
3.479101e+003;1.060344e-001
3.481029e+003;1.051714e-001
3.482958e+003;1.043731e-001
3.484886e+003;1.033864e-001
3.486815e+003;1.028359e-001
3.488743e+003;1.017288e-001
3.490672e+003;1.002915e-001
3.492600e+003;9.932002e-002
3.494529e+003;9.876076e-002
3.496458e+003;9.830986e-002
3.498386e+003;9.751227e-002
3.500315e+003;9.654097e-002
3.502243e+003;9.553890e-002
3.504172e+003;9.426282e-002
3.506100e+003;9.329908e-002
3.508029e+003;9.265839e-002
3.509957e+003;9.202358e-002
3.511886e+003;9.157393e-002
3.513814e+003;9.070452e-002
3.515743e+003;8.949617e-002
3.517672e+003;8.850707e-002
3.519600e+003;8.776239e-002
3.521529e+003;8.731927e-002
3.523457e+003;8.642757e-002
3.525386e+003;8.538819e-002
3.527314e+003;8.439250e-002
3.529243e+003;8.330221e-002
3.531171e+003;8.266778e-002
3.533100e+003;8.191691e-002
3.535029e+003;8.097029e-002
3.536957e+003;8.030453e-002
3.538885e+003;7.960971e-002
3.540814e+003;7.926804e-002
3.542743e+003;7.868030e-002
3.544671e+003;7.766858e-002
3.546600e+003;7.668287e-002
3.548528e+003;7.598010e-002
3.550457e+003;7.539750e-002
3.552385e+003;7.468540e-002
3.554314e+003;7.396607e-002
3.556242e+003;7.305218e-002
3.558171e+003;7.251408e-002
3.560100e+003;7.230195e-002
3.562028e+003;7.183805e-002
3.563957e+003;7.106639e-002
3.565885e+003;7.020904e-002
3.567814e+003;6.943164e-002
3.569742e+003;6.913273e-002
3.571671e+003;6.857984e-002
3.573599e+003;6.816458e-002
3.575528e+003;6.781491e-002
3.577457e+003;6.710372e-002
3.579385e+003;6.596676e-002
3.581314e+003;6.462239e-002
3.583242e+003;6.409075e-002
3.585171e+003;6.398991e-002
3.587099e+003;6.371645e-002
3.589028e+003;6.315959e-002
3.590956e+003;6.263328e-002
3.592885e+003;6.171742e-002
3.594813e+003;6.099608e-002
3.596742e+003;6.122362e-002
3.598671e+003;6.065064e-002
3.600599e+003;5.993236e-002
3.602528e+003;5.919830e-002
3.604456e+003;5.885254e-002
3.606385e+003;5.900814e-002
3.608313e+003;5.859764e-002
3.610242e+003;5.824975e-002
3.612170e+003;5.790244e-002
3.614099e+003;5.722248e-002
3.616028e+003;5.697450e-002
3.617956e+003;5.697364e-002
3.619885e+003;5.647607e-002
3.621813e+003;5.603238e-002
3.623742e+003;5.541263e-002
3.625670e+003;5.467785e-002
3.627599e+003;5.442952e-002
3.629527e+003;5.427789e-002
3.631456e+003;5.424853e-002
3.633385e+003;5.409985e-002
3.635313e+003;5.334601e-002
3.637241e+003;5.286048e-002
3.639170e+003;5.309402e-002
3.641099e+003;5.343114e-002
3.643027e+003;5.305448e-002
3.644956e+003;5.219696e-002
3.646884e+003;5.162937e-002
3.648813e+003;5.141631e-002
3.650741e+003;5.106443e-002
3.652670e+003;5.075015e-002
3.654598e+003;5.033533e-002
3.656527e+003;4.980603e-002
3.658456e+003;4.956151e-002
3.660384e+003;4.935024e-002
3.662313e+003;4.923083e-002
3.664241e+003;4.885602e-002
3.666170e+003;4.818655e-002
3.668098e+003;4.806336e-002
3.670027e+003;4.763221e-002
3.671955e+003;4.733625e-002
3.673884e+003;4.718773e-002
3.675813e+003;4.656764e-002
3.677741e+003;4.662267e-002
3.679669e+003;4.638856e-002
3.681598e+003;4.616516e-002
3.683527e+003;4.646065e-002
3.685455e+003;4.646157e-002
3.687384e+003;4.561695e-002
3.689312e+003;4.522620e-002
3.691241e+003;4.547105e-002
3.693169e+003;4.540244e-002
3.695098e+003;4.537253e-002
3.697026e+003;4.528596e-002
3.698955e+003;4.492861e-002
3.700884e+003;4.415448e-002
3.702812e+003;4.363683e-002
3.704741e+003;4.373411e-002
3.706669e+003;4.378036e-002
3.708598e+003;4.361266e-002
3.710526e+003;4.352613e-002
3.712455e+003;4.288234e-002
3.714383e+003;4.273674e-002
3.716312e+003;4.303781e-002
3.718240e+003;4.247274e-002
3.720169e+003;4.196399e-002
3.722098e+003;4.181595e-002
3.724026e+003;4.164550e-002
3.725955e+003;4.145003e-002
3.727883e+003;4.141814e-002
3.729812e+003;4.168587e-002
3.731740e+003;4.175959e-002
3.733669e+003;4.184857e-002
3.735597e+003;4.164918e-002
3.737526e+003;4.134984e-002
3.739455e+003;4.133154e-002
3.741383e+003;4.141300e-002
3.743312e+003;4.099750e-002
3.745240e+003;4.079996e-002
3.747169e+003;4.088565e-002
3.749097e+003;4.075788e-002
3.751026e+003;4.121811e-002
3.752954e+003;4.192092e-002
3.754883e+003;4.210445e-002
3.756812e+003;4.202855e-002
3.758740e+003;4.212704e-002
3.760668e+003;4.175649e-002
3.762597e+003;4.108264e-002
3.764526e+003;4.099717e-002
3.766454e+003;4.127838e-002
3.768383e+003;4.120376e-002
3.770311e+003;4.146983e-002
3.772240e+003;4.184401e-002
3.774168e+003;4.132742e-002
3.776097e+003;4.076458e-002
3.778025e+003;4.084604e-002
3.779954e+003;4.100201e-002
3.781883e+003;4.118653e-002
3.783811e+003;4.115899e-002
3.785740e+003;4.100263e-002
3.787668e+003;4.094026e-002
3.789597e+003;4.069980e-002
3.791525e+003;4.063471e-002
3.793454e+003;4.103479e-002
3.795382e+003;4.164014e-002
3.797311e+003;4.203362e-002
3.799240e+003;4.172205e-002
3.801168e+003;4.123247e-002
3.803097e+003;4.130443e-002
3.805025e+003;4.150260e-002
3.806954e+003;4.108621e-002
3.808882e+003;4.118336e-002
3.810811e+003;4.201549e-002
3.812739e+003;4.233567e-002
3.814668e+003;4.225769e-002
3.816596e+003;4.198625e-002
3.818525e+003;4.173803e-002
3.820454e+003;4.172129e-002
3.822382e+003;4.183448e-002
3.824311e+003;4.193899e-002
3.826239e+003;4.182230e-002
3.828168e+003;4.181559e-002
3.830096e+003;4.156881e-002
3.832025e+003;4.158387e-002
3.833953e+003;4.214124e-002
3.835882e+003;4.234466e-002
3.837811e+003;4.219514e-002
3.839739e+003;4.212452e-002
3.841667e+003;4.202224e-002
3.843596e+003;4.208743e-002
3.845525e+003;4.214172e-002
3.847453e+003;4.233450e-002
3.849382e+003;4.262549e-002
3.851310e+003;4.264297e-002
3.853239e+003;4.229228e-002
3.855167e+003;4.268223e-002
3.857096e+003;4.335157e-002
3.859024e+003;4.328816e-002
3.860953e+003;4.289302e-002
3.862882e+003;4.262542e-002
3.864810e+003;4.255689e-002
3.866739e+003;4.238002e-002
3.868667e+003;4.230623e-002
3.870596e+003;4.276332e-002
3.872524e+003;4.349500e-002
3.874453e+003;4.345505e-002
3.876381e+003;4.335585e-002
3.878310e+003;4.357547e-002
3.880239e+003;4.351002e-002
3.882167e+003;4.350914e-002
3.884096e+003;4.400108e-002
3.886024e+003;4.437183e-002
3.887953e+003;4.467646e-002
3.889881e+003;4.457809e-002
3.891810e+003;4.434955e-002
3.893738e+003;4.464220e-002
3.895667e+003;4.465494e-002
3.897595e+003;4.423008e-002
3.899524e+003;4.429781e-002
3.901453e+003;4.447379e-002
3.903381e+003;4.433436e-002
3.905310e+003;4.427789e-002
3.907238e+003;4.455499e-002
3.909167e+003;4.454504e-002
3.911095e+003;4.451979e-002
3.913024e+003;4.488749e-002
3.914952e+003;4.522451e-002
3.916881e+003;4.500339e-002
3.918810e+003;4.449981e-002
3.920738e+003;4.423456e-002
3.922667e+003;4.424333e-002
3.924595e+003;4.499736e-002
3.926524e+003;4.562991e-002
3.928452e+003;4.572189e-002
3.930381e+003;4.581574e-002
3.932309e+003;4.535348e-002
3.934238e+003;4.568394e-002
3.936167e+003;4.620345e-002
3.938095e+003;4.612676e-002
3.940023e+003;4.633636e-002
3.941952e+003;4.638115e-002
3.943881e+003;4.612938e-002
3.945809e+003;4.636873e-002
3.947738e+003;4.676726e-002
3.949666e+003;4.644933e-002
3.951595e+003;4.631995e-002
3.953523e+003;4.619965e-002
3.955452e+003;4.613210e-002
3.957380e+003;4.660227e-002
3.959309e+003;4.684399e-002
3.961238e+003;4.655705e-002
3.963166e+003;4.623879e-002
3.965095e+003;4.614459e-002
3.967023e+003;4.643447e-002
3.968952e+003;4.655543e-002
3.970880e+003;4.641415e-002
3.972809e+003;4.663599e-002
3.974737e+003;4.659611e-002
3.976666e+003;4.605742e-002
3.978594e+003;4.598367e-002
3.980523e+003;4.638624e-002
3.982452e+003;4.661109e-002
3.984380e+003;4.655406e-002
3.986309e+003;4.660880e-002
3.988237e+003;4.702011e-002
3.990166e+003;4.754965e-002
3.992094e+003;4.747136e-002
3.994023e+003;4.725870e-002
3.995951e+003;4.743887e-002
3.997880e+003;4.746064e-002
3.999809e+003;4.773464e-002
4.001737e+003;0.000000e+000
