3.992094e+002;0.000000e+000
4.011380e+002;0.000000e+000
4.030665e+002;0.000000e+000
4.049951e+002;0.000000e+000
4.069236e+002;0.000000e+000
4.088522e+002;0.000000e+000
4.107807e+002;0.000000e+000
4.127093e+002;0.000000e+000
4.146378e+002;0.000000e+000
4.165664e+002;0.000000e+000
4.184949e+002;0.000000e+000
4.204235e+002;0.000000e+000
4.223520e+002;0.000000e+000
4.242806e+002;0.000000e+000
4.262091e+002;0.000000e+000
4.281377e+002;0.000000e+000
4.300662e+002;0.000000e+000
4.319948e+002;0.000000e+000
4.339233e+002;0.000000e+000
4.358519e+002;0.000000e+000
4.377804e+002;0.000000e+000
4.397090e+002;0.000000e+000
4.416375e+002;0.000000e+000
4.435660e+002;0.000000e+000
4.454946e+002;0.000000e+000
4.474232e+002;0.000000e+000
4.493517e+002;0.000000e+000
4.512802e+002;0.000000e+000
4.532088e+002;0.000000e+000
4.551373e+002;0.000000e+000
4.570659e+002;0.000000e+000
4.589944e+002;0.000000e+000
4.609230e+002;0.000000e+000
4.628515e+002;0.000000e+000
4.647801e+002;0.000000e+000
4.667086e+002;0.000000e+000
4.686372e+002;0.000000e+000
4.705657e+002;0.000000e+000
4.724943e+002;0.000000e+000
4.744228e+002;0.000000e+000
4.763513e+002;0.000000e+000
4.782799e+002;0.000000e+000
4.802085e+002;0.000000e+000
4.821370e+002;0.000000e+000
4.840656e+002;0.000000e+000
4.859941e+002;0.000000e+000
4.879226e+002;0.000000e+000
4.898512e+002;0.000000e+000
4.917798e+002;0.000000e+000
4.937083e+002;0.000000e+000
4.956368e+002;0.000000e+000
4.975654e+002;0.000000e+000
4.994939e+002;0.000000e+000
5.014225e+002;0.000000e+000
5.033510e+002;0.000000e+000
5.052796e+002;0.000000e+000
5.072081e+002;0.000000e+000
5.091367e+002;0.000000e+000
5.110652e+002;0.000000e+000
5.129938e+002;0.000000e+000
5.149223e+002;0.000000e+000
5.168509e+002;0.000000e+000
5.187794e+002;0.000000e+000
5.207079e+002;0.000000e+000
5.226365e+002;0.000000e+000
5.245651e+002;0.000000e+000
5.264936e+002;0.000000e+000
5.284222e+002;0.000000e+000
5.303507e+002;0.000000e+000
5.322792e+002;0.000000e+000
5.342078e+002;0.000000e+000
5.361364e+002;0.000000e+000
5.380649e+002;0.000000e+000
5.399935e+002;0.000000e+000
5.419220e+002;0.000000e+000
5.438505e+002;0.000000e+000
5.457791e+002;0.000000e+000
5.477076e+002;0.000000e+000
5.496362e+002;0.000000e+000
5.515648e+002;0.000000e+000
5.534933e+002;0.000000e+000
5.554218e+002;0.000000e+000
5.573504e+002;0.000000e+000
5.592789e+002;0.000000e+000
5.612075e+002;0.000000e+000
5.631360e+002;0.000000e+000
5.650646e+002;0.000000e+000
5.669931e+002;0.000000e+000
5.689217e+002;0.000000e+000
5.708502e+002;0.000000e+000
5.727787e+002;0.000000e+000
5.747073e+002;0.000000e+000
5.766359e+002;0.000000e+000
5.785644e+002;0.000000e+000
5.804930e+002;0.000000e+000
5.824215e+002;0.000000e+000
5.843500e+002;0.000000e+000
5.862786e+002;0.000000e+000
5.882072e+002;0.000000e+000
5.901357e+002;0.000000e+000
5.920643e+002;0.000000e+000
5.939928e+002;0.000000e+000
5.959213e+002;0.000000e+000
5.978499e+002;0.000000e+000
5.997784e+002;1.958749e-001
6.017070e+002;1.951028e-001
6.036355e+002;1.985988e-001
6.055641e+002;2.002524e-001
6.074926e+002;1.951051e-001
6.094211e+002;1.878705e-001
6.113497e+002;1.906326e-001
6.132783e+002;1.905717e-001
6.152068e+002;1.911687e-001
6.171354e+002;1.920137e-001
6.190639e+002;1.874345e-001
6.209924e+002;1.861321e-001
6.229210e+002;1.864005e-001
6.248495e+002;1.784669e-001
6.267781e+002;1.742457e-001
6.287067e+002;1.733716e-001
6.306352e+002;1.761688e-001
6.325637e+002;1.768157e-001
6.344923e+002;1.728525e-001
6.364208e+002;1.734959e-001
6.383494e+002;1.771427e-001
6.402780e+002;1.750291e-001
6.422065e+002;1.738336e-001
6.441350e+002;1.780993e-001
6.460636e+002;1.786340e-001
6.479921e+002;1.715223e-001
6.499207e+002;1.682557e-001
6.518492e+002;1.700879e-001
6.537778e+002;1.702353e-001
6.557063e+002;1.701349e-001
6.576349e+002;1.722481e-001
6.595634e+002;1.741602e-001
6.614919e+002;1.747935e-001
6.634205e+002;1.749455e-001
6.653491e+002;1.734382e-001
6.672776e+002;1.671034e-001
6.692062e+002;1.642731e-001
6.711347e+002;1.652567e-001
6.730632e+002;1.657182e-001
6.749918e+002;1.633743e-001
6.769203e+002;1.589219e-001
6.788489e+002;1.548955e-001
6.807775e+002;1.528089e-001
6.827060e+002;1.510961e-001
6.846345e+002;1.486671e-001
6.865631e+002;1.478491e-001
6.884916e+002;1.477082e-001
6.904202e+002;1.452923e-001
6.923488e+002;1.438720e-001
6.942773e+002;1.431921e-001
6.962058e+002;1.420295e-001
6.981344e+002;1.423420e-001
7.000629e+002;1.426032e-001
7.019915e+002;1.406196e-001
7.039200e+002;1.385411e-001
7.058486e+002;1.380699e-001
7.077771e+002;1.372394e-001
7.097057e+002;1.369619e-001
7.116342e+002;1.368472e-001
7.135627e+002;1.360744e-001
7.154913e+002;1.343182e-001
7.174199e+002;1.333252e-001
7.193484e+002;1.321905e-001
7.212770e+002;1.288365e-001
7.232055e+002;1.264915e-001
7.251340e+002;1.259044e-001
7.270626e+002;1.253459e-001
7.289911e+002;1.250993e-001
7.309197e+002;1.243872e-001
7.328483e+002;1.231561e-001
7.347768e+002;1.222661e-001
7.367053e+002;1.210809e-001
7.386339e+002;1.190895e-001
7.405624e+002;1.177725e-001
7.424910e+002;1.175481e-001
7.444196e+002;1.175955e-001
7.463481e+002;1.177985e-001
7.482766e+002;1.162801e-001
7.502052e+002;1.148302e-001
7.521337e+002;1.149632e-001
7.540623e+002;1.141374e-001
7.559908e+002;1.126992e-001
7.579194e+002;1.117331e-001
7.598479e+002;1.116621e-001
7.617765e+002;1.111691e-001
7.637050e+002;1.114620e-001
7.656335e+002;1.116487e-001
7.675621e+002;1.113718e-001
7.694907e+002;1.110990e-001
7.714192e+002;1.106332e-001
7.733478e+002;1.099027e-001
7.752763e+002;1.100129e-001
7.772048e+002;1.109700e-001
7.791334e+002;1.105423e-001
7.810620e+002;1.093548e-001
7.829905e+002;1.094367e-001
7.849191e+002;1.091489e-001
7.868476e+002;1.083968e-001
7.887761e+002;1.077736e-001
7.907047e+002;1.071384e-001
7.926332e+002;1.061932e-001
7.945618e+002;1.053939e-001
7.964903e+002;1.046415e-001
7.984189e+002;1.041677e-001
8.003474e+002;1.054222e-001
8.022759e+002;1.058802e-001
8.042045e+002;1.053540e-001
8.061331e+002;1.049036e-001
8.080616e+002;1.050114e-001
8.099902e+002;1.052882e-001
8.119187e+002;1.060025e-001
8.138472e+002;1.065175e-001
8.157758e+002;1.070589e-001
8.177043e+002;1.078774e-001
8.196329e+002;1.081967e-001
8.215615e+002;1.081349e-001
8.234900e+002;1.087087e-001
8.254185e+002;1.093936e-001
8.273471e+002;1.108046e-001
8.292756e+002;1.112911e-001
8.312042e+002;1.108596e-001
8.331328e+002;1.106086e-001
8.350613e+002;1.106524e-001
8.369898e+002;1.113347e-001
8.389184e+002;1.111611e-001
8.408469e+002;1.103018e-001
8.427755e+002;1.105620e-001
8.447040e+002;1.109992e-001
8.466326e+002;1.105099e-001
8.485611e+002;1.101875e-001
8.504897e+002;1.107678e-001
8.524182e+002;1.119882e-001
8.543467e+002;1.127693e-001
8.562753e+002;1.129877e-001
8.582039e+002;1.140812e-001
8.601324e+002;1.155698e-001
8.620610e+002;1.169520e-001
8.639895e+002;1.182479e-001
8.659180e+002;1.202682e-001
8.678466e+002;1.225934e-001
8.697751e+002;1.248726e-001
8.717037e+002;1.263316e-001
8.736323e+002;1.273988e-001
8.755608e+002;1.293125e-001
8.774893e+002;1.310268e-001
8.794179e+002;1.327531e-001
8.813464e+002;1.347693e-001
8.832750e+002;1.370192e-001
8.852036e+002;1.398911e-001
8.871321e+002;1.425991e-001
8.890606e+002;1.450259e-001
8.909892e+002;1.467156e-001
8.929177e+002;1.476960e-001
8.948463e+002;1.486928e-001
8.967748e+002;1.493593e-001
8.987034e+002;1.489791e-001
9.006319e+002;1.478871e-001
9.025605e+002;1.465691e-001
9.044890e+002;1.452637e-001
9.064175e+002;1.444024e-001
9.083461e+002;1.436792e-001
9.102747e+002;1.432610e-001
9.122032e+002;1.430667e-001
9.141318e+002;1.429431e-001
9.160603e+002;1.430386e-001
9.179888e+002;1.435764e-001
9.199174e+002;1.444432e-001
9.218459e+002;1.449503e-001
9.237745e+002;1.456910e-001
9.257031e+002;1.469039e-001
9.276316e+002;1.481207e-001
9.295601e+002;1.492008e-001
9.314887e+002;1.508691e-001
9.334172e+002;1.529785e-001
9.353458e+002;1.546192e-001
9.372744e+002;1.564634e-001
9.392029e+002;1.586345e-001
9.411314e+002;1.609683e-001
9.430600e+002;1.640458e-001
9.449885e+002;1.670972e-001
9.469171e+002;1.701658e-001
9.488456e+002;1.739090e-001
9.507742e+002;1.779189e-001
9.527027e+002;1.819064e-001
9.546313e+002;1.863643e-001
9.565598e+002;1.918472e-001
9.584883e+002;1.971612e-001
9.604169e+002;2.025383e-001
9.623455e+002;2.074079e-001
9.642740e+002;2.116958e-001
9.662026e+002;2.170185e-001
9.681311e+002;2.234401e-001
9.700596e+002;2.300532e-001
9.719882e+002;2.369571e-001
9.739167e+002;2.438480e-001
9.758453e+002;2.511552e-001
9.777739e+002;2.594017e-001
9.797024e+002;2.675398e-001
9.816309e+002;2.753663e-001
9.835595e+002;2.819718e-001
9.854880e+002;2.873943e-001
9.874166e+002;2.914908e-001
9.893452e+002;2.937488e-001
9.912737e+002;2.959554e-001
9.932022e+002;2.984093e-001
9.951307e+002;3.002291e-001
9.970593e+002;3.026846e-001
9.989879e+002;3.058023e-001
1.000916e+003;3.086773e-001
1.002845e+003;3.117224e-001
1.004773e+003;3.154449e-001
1.006702e+003;3.192258e-001
1.008631e+003;3.220044e-001
1.010559e+003;3.249574e-001
1.012488e+003;3.279532e-001
1.014416e+003;3.315130e-001
1.016345e+003;3.352336e-001
1.018273e+003;3.380315e-001
1.020202e+003;3.408246e-001
1.022130e+003;3.428918e-001
1.024059e+003;3.432346e-001
1.025988e+003;3.436560e-001
1.027916e+003;3.450903e-001
1.029845e+003;3.453417e-001
1.031773e+003;3.441278e-001
1.033702e+003;3.421575e-001
1.035630e+003;3.401899e-001
1.037559e+003;3.376853e-001
1.039487e+003;3.342909e-001
1.041416e+003;3.300099e-001
1.043344e+003;3.262974e-001
1.045273e+003;3.237450e-001
1.047202e+003;3.210693e-001
1.049130e+003;3.165647e-001
1.051059e+003;3.113715e-001
1.052987e+003;3.062935e-001
1.054916e+003;3.013786e-001
1.056844e+003;2.958192e-001
1.058773e+003;2.884318e-001
1.060701e+003;2.797498e-001
1.062630e+003;2.718560e-001
1.064558e+003;2.636786e-001
1.066487e+003;2.543437e-001
1.068416e+003;2.464995e-001
1.070344e+003;2.408223e-001
1.072273e+003;2.353503e-001
1.074201e+003;2.301551e-001
1.076130e+003;2.254220e-001
1.078058e+003;2.211625e-001
1.079987e+003;2.180332e-001
1.081915e+003;2.157800e-001
1.083844e+003;2.130708e-001
1.085773e+003;2.099770e-001
1.087701e+003;2.081503e-001
1.089630e+003;2.071102e-001
1.091558e+003;2.056340e-001
1.093487e+003;2.041641e-001
1.095415e+003;2.028918e-001
1.097344e+003;2.018396e-001
1.099272e+003;2.004854e-001
1.101201e+003;1.983915e-001
1.103129e+003;1.960114e-001
1.105058e+003;1.936462e-001
1.106987e+003;1.904025e-001
1.108915e+003;1.858278e-001
1.110844e+003;1.812254e-001
1.112772e+003;1.771373e-001
1.114701e+003;1.726218e-001
1.116629e+003;1.683602e-001
1.118558e+003;1.646960e-001
1.120486e+003;1.606264e-001
1.122415e+003;1.565779e-001
1.124344e+003;1.525264e-001
1.126272e+003;1.479636e-001
1.128201e+003;1.438380e-001
1.130129e+003;1.396130e-001
1.132058e+003;1.352444e-001
1.133986e+003;1.313393e-001
1.135915e+003;1.274478e-001
1.137843e+003;1.245196e-001
1.139772e+003;1.230154e-001
1.141700e+003;1.214131e-001
1.143629e+003;1.198343e-001
1.145557e+003;1.191498e-001
1.147486e+003;1.184518e-001
1.149415e+003;1.183793e-001
1.151343e+003;1.180874e-001
1.153272e+003;1.167175e-001
1.155200e+003;1.147844e-001
1.157129e+003;1.133919e-001
1.159057e+003;1.122533e-001
1.160986e+003;1.102905e-001
1.162914e+003;1.077399e-001
1.164843e+003;1.051687e-001
1.166771e+003;1.022639e-001
1.168700e+003;9.953769e-002
1.170629e+003;9.697980e-002
1.172557e+003;9.415214e-002
1.174486e+003;9.181567e-002
1.176414e+003;9.024253e-002
1.178343e+003;8.940966e-002
1.180271e+003;8.911548e-002
1.182200e+003;8.899699e-002
1.184128e+003;8.912707e-002
1.186057e+003;8.989196e-002
1.187986e+003;9.121165e-002
1.189914e+003;9.318142e-002
1.191843e+003;9.529541e-002
1.193771e+003;9.705661e-002
1.195700e+003;9.918527e-002
1.197628e+003;1.013886e-001
1.199557e+003;1.029589e-001
1.201485e+003;1.038515e-001
1.203414e+003;1.051062e-001
1.205343e+003;1.069455e-001
1.207271e+003;1.087261e-001
1.209200e+003;1.104750e-001
1.211128e+003;1.122133e-001
1.213057e+003;1.138976e-001
1.214985e+003;1.161218e-001
1.216914e+003;1.192416e-001
1.218842e+003;1.227548e-001
1.220771e+003;1.260462e-001
1.222699e+003;1.285044e-001
1.224628e+003;1.305329e-001
1.226557e+003;1.327822e-001
1.228485e+003;1.347484e-001
1.230414e+003;1.364963e-001
1.232342e+003;1.374579e-001
1.234271e+003;1.376864e-001
1.236199e+003;1.375143e-001
1.238128e+003;1.369973e-001
1.240056e+003;1.362651e-001
1.241985e+003;1.356881e-001
1.243913e+003;1.349963e-001
1.245842e+003;1.336876e-001
1.247771e+003;1.319906e-001
1.249699e+003;1.304317e-001
1.251628e+003;1.292109e-001
1.253556e+003;1.282697e-001
1.255485e+003;1.273462e-001
1.257413e+003;1.256033e-001
1.259342e+003;1.235262e-001
1.261270e+003;1.218132e-001
1.263199e+003;1.199544e-001
1.265127e+003;1.182847e-001
1.267056e+003;1.167286e-001
1.268985e+003;1.146769e-001
1.270913e+003;1.124364e-001
1.272842e+003;1.108402e-001
1.274770e+003;1.094473e-001
1.276699e+003;1.076934e-001
1.278627e+003;1.057972e-001
1.280556e+003;1.039654e-001
1.282484e+003;1.020387e-001
1.284413e+003;1.006182e-001
1.286342e+003;9.980595e-002
1.288270e+003;9.930316e-002
1.290199e+003;9.857587e-002
1.292127e+003;9.794544e-002
1.294056e+003;9.796499e-002
1.295984e+003;9.866323e-002
1.297913e+003;9.968743e-002
1.299841e+003;1.003958e-001
1.301770e+003;1.011529e-001
1.303698e+003;1.023829e-001
1.305627e+003;1.041629e-001
1.307556e+003;1.059535e-001
1.309484e+003;1.076147e-001
1.311413e+003;1.093317e-001
1.313341e+003;1.111582e-001
1.315270e+003;1.128001e-001
1.317198e+003;1.137440e-001
1.319127e+003;1.138264e-001
1.321055e+003;1.135188e-001
1.322984e+003;1.132124e-001
1.324912e+003;1.128203e-001
1.326841e+003;1.120617e-001
1.328770e+003;1.115066e-001
1.330698e+003;1.114190e-001
1.332627e+003;1.110287e-001
1.334555e+003;1.101752e-001
1.336484e+003;1.088063e-001
1.338412e+003;1.075502e-001
1.340341e+003;1.065662e-001
1.342269e+003;1.057648e-001
1.344198e+003;1.049099e-001
1.346126e+003;1.038307e-001
1.348055e+003;1.028067e-001
1.349984e+003;1.023248e-001
1.351912e+003;1.024698e-001
1.353841e+003;1.029074e-001
1.355769e+003;1.038435e-001
1.357698e+003;1.051550e-001
1.359626e+003;1.062387e-001
1.361555e+003;1.067537e-001
1.363483e+003;1.074121e-001
1.365412e+003;1.079505e-001
1.367341e+003;1.076988e-001
1.369269e+003;1.072444e-001
1.371198e+003;1.067202e-001
1.373126e+003;1.052955e-001
1.375055e+003;1.033478e-001
1.376983e+003;1.014562e-001
1.378912e+003;9.941112e-002
1.380840e+003;9.718702e-002
1.382769e+003;9.485828e-002
1.384698e+003;9.258272e-002
1.386626e+003;9.058928e-002
1.388555e+003;8.909168e-002
1.390483e+003;8.819828e-002
1.392412e+003;8.730821e-002
1.394340e+003;8.656166e-002
1.396269e+003;8.603360e-002
1.398197e+003;8.577544e-002
1.400126e+003;8.604224e-002
1.402054e+003;8.680203e-002
1.403983e+003;8.723587e-002
1.405911e+003;8.774073e-002
1.407840e+003;8.872487e-002
1.409769e+003;8.994730e-002
1.411697e+003;9.153548e-002
1.413626e+003;9.300969e-002
1.415554e+003;9.441338e-002
1.417483e+003;9.568351e-002
1.419411e+003;9.636965e-002
1.421340e+003;9.684305e-002
1.423268e+003;9.661021e-002
1.425197e+003;9.546368e-002
1.427125e+003;9.401602e-002
1.429054e+003;9.232925e-002
1.430983e+003;9.045798e-002
1.432911e+003;8.850037e-002
1.434840e+003;8.672819e-002
1.436768e+003;8.510441e-002
1.438697e+003;8.396643e-002
1.440625e+003;8.364952e-002
1.442554e+003;8.389629e-002
1.444482e+003;8.422834e-002
1.446411e+003;8.482853e-002
1.448340e+003;8.535044e-002
1.450268e+003;8.604079e-002
1.452197e+003;8.660986e-002
1.454125e+003;8.647653e-002
1.456054e+003;8.588025e-002
1.457982e+003;8.585405e-002
1.459911e+003;8.591090e-002
1.461839e+003;8.466268e-002
1.463768e+003;8.283880e-002
1.465697e+003;8.098319e-002
1.467625e+003;7.869603e-002
1.469554e+003;7.621856e-002
1.471482e+003;7.313745e-002
1.473411e+003;6.997522e-002
1.475339e+003;6.743730e-002
1.477268e+003;6.521758e-002
1.479196e+003;6.344713e-002
1.481125e+003;6.185792e-002
1.483053e+003;6.041250e-002
1.484982e+003;5.923866e-002
1.486911e+003;5.837772e-002
1.488839e+003;5.773778e-002
1.490768e+003;5.763031e-002
1.492696e+003;5.820262e-002
1.494625e+003;5.862779e-002
1.496553e+003;5.903664e-002
1.498482e+003;5.987291e-002
1.500410e+003;6.112593e-002
1.502339e+003;6.249746e-002
1.504267e+003;6.246570e-002
1.506196e+003;6.095776e-002
1.508125e+003;5.986984e-002
1.510053e+003;5.906150e-002
1.511982e+003;5.790459e-002
1.513910e+003;5.622607e-002
1.515839e+003;5.426633e-002
1.517767e+003;5.260039e-002
1.519696e+003;5.057373e-002
1.521624e+003;4.848550e-002
1.523553e+003;4.677904e-002
1.525481e+003;4.531630e-002
1.527410e+003;4.444820e-002
1.529339e+003;4.389571e-002
1.531267e+003;4.311442e-002
1.533196e+003;4.276543e-002
1.535124e+003;4.304882e-002
1.537053e+003;4.258160e-002
1.538981e+003;4.110271e-002
1.540910e+003;4.062765e-002
1.542838e+003;4.147453e-002
1.544767e+003;4.215344e-002
1.546695e+003;4.272225e-002
1.548624e+003;4.295279e-002
1.550553e+003;4.315251e-002
1.552481e+003;4.328549e-002
1.554410e+003;4.363577e-002
1.556338e+003;4.389428e-002
1.558267e+003;4.384476e-002
1.560195e+003;4.464745e-002
1.562124e+003;4.629349e-002
1.564052e+003;4.770583e-002
1.565981e+003;4.874090e-002
1.567910e+003;4.962929e-002
1.569838e+003;5.079097e-002
1.571767e+003;5.261786e-002
1.573695e+003;5.440849e-002
1.575624e+003;5.601756e-002
1.577552e+003;5.837768e-002
1.579481e+003;6.094979e-002
1.581409e+003;6.334871e-002
1.583338e+003;6.554524e-002
1.585266e+003;6.754536e-002
1.587195e+003;6.949097e-002
1.589124e+003;7.131091e-002
1.591052e+003;7.249494e-002
1.592981e+003;7.340837e-002
1.594909e+003;7.396316e-002
1.596838e+003;7.379792e-002
1.598766e+003;7.299118e-002
1.600695e+003;7.213370e-002
1.602623e+003;7.173286e-002
1.604552e+003;7.102233e-002
1.606480e+003;7.014140e-002
1.608409e+003;6.953802e-002
1.610338e+003;6.922000e-002
1.612266e+003;6.897490e-002
1.614195e+003;6.841539e-002
1.616123e+003;6.773656e-002
1.618052e+003;6.781789e-002
1.619980e+003;6.811094e-002
1.621909e+003;6.772292e-002
1.623837e+003;6.744786e-002
1.625766e+003;6.756766e-002
1.627694e+003;6.765082e-002
1.629623e+003;6.734064e-002
1.631552e+003;6.686998e-002
1.633480e+003;6.654108e-002
1.635409e+003;6.614505e-002
1.637337e+003;6.617693e-002
1.639266e+003;6.665032e-002
1.641194e+003;6.665773e-002
1.643123e+003;6.661439e-002
1.645051e+003;6.643226e-002
1.646980e+003;6.579631e-002
1.648909e+003;6.577267e-002
1.650837e+003;6.552733e-002
1.652766e+003;6.494575e-002
1.654694e+003;6.515159e-002
1.656623e+003;6.537184e-002
1.658551e+003;6.510836e-002
1.660480e+003;6.483179e-002
1.662408e+003;6.449728e-002
1.664337e+003;6.444044e-002
1.666266e+003;6.425165e-002
1.668194e+003;6.369976e-002
1.670123e+003;6.336895e-002
1.672051e+003;6.308579e-002
1.673980e+003;6.278215e-002
1.675908e+003;6.272081e-002
1.677837e+003;6.262600e-002
1.679765e+003;6.233063e-002
1.681694e+003;6.171956e-002
1.683622e+003;6.111712e-002
1.685551e+003;6.138602e-002
1.687479e+003;6.209451e-002
1.689408e+003;6.251957e-002
1.691337e+003;6.280734e-002
1.693265e+003;6.286979e-002
1.695194e+003;6.281994e-002
1.697122e+003;6.384788e-002
1.699051e+003;6.502645e-002
1.700979e+003;6.623725e-002
1.702908e+003;6.812690e-002
1.704836e+003;6.984110e-002
1.706765e+003;7.167392e-002
1.708693e+003;7.378130e-002
1.710622e+003;7.563651e-002
1.712551e+003;7.742367e-002
1.714479e+003;7.891563e-002
1.716408e+003;8.031347e-002
1.718336e+003;8.195164e-002
1.720265e+003;8.391434e-002
1.722193e+003;8.526193e-002
1.724122e+003;8.604099e-002
1.726050e+003;8.709460e-002
1.727979e+003;8.789506e-002
1.729908e+003;8.831955e-002
1.731836e+003;8.853763e-002
1.733765e+003;8.793916e-002
1.735693e+003;8.737600e-002
1.737622e+003;8.671398e-002
1.739550e+003;8.550698e-002
1.741479e+003;8.406952e-002
1.743407e+003;8.225706e-002
1.745336e+003;8.010857e-002
1.747265e+003;7.752426e-002
1.749193e+003;7.483634e-002
1.751122e+003;7.232860e-002
1.753050e+003;7.009533e-002
1.754979e+003;6.749172e-002
1.756907e+003;6.464218e-002
1.758836e+003;6.195657e-002
1.760764e+003;5.885011e-002
1.762693e+003;5.611140e-002
1.764621e+003;5.352910e-002
1.766550e+003;5.053711e-002
1.768479e+003;4.820266e-002
1.770407e+003;4.618568e-002
1.772336e+003;4.382324e-002
1.774264e+003;4.201216e-002
1.776193e+003;4.045203e-002
1.778121e+003;3.893049e-002
1.780050e+003;3.757829e-002
1.781978e+003;3.626379e-002
1.783907e+003;3.505636e-002
1.785835e+003;3.386891e-002
1.787764e+003;3.270720e-002
1.789693e+003;3.160228e-002
1.791621e+003;3.039273e-002
1.793550e+003;2.957994e-002
1.795478e+003;2.904503e-002
1.797407e+003;2.842694e-002
1.799335e+003;2.764433e-002
1.801264e+003;2.680338e-002
1.803192e+003;2.629578e-002
1.805121e+003;2.577321e-002
1.807049e+003;2.519507e-002
1.808978e+003;2.462486e-002
1.810907e+003;2.437069e-002
1.812835e+003;2.400986e-002
1.814764e+003;2.345226e-002
1.816692e+003;2.319035e-002
1.818621e+003;2.274768e-002
1.820549e+003;2.200987e-002
1.822478e+003;2.154061e-002
1.824406e+003;2.152038e-002
1.826335e+003;2.150165e-002
1.828264e+003;2.123539e-002
1.830192e+003;2.103303e-002
1.832121e+003;2.101686e-002
1.834049e+003;2.085205e-002
1.835978e+003;2.053200e-002
1.837906e+003;2.017326e-002
1.839835e+003;1.995975e-002
1.841763e+003;1.985315e-002
1.843692e+003;1.959397e-002
1.845620e+003;1.952894e-002
1.847549e+003;1.956055e-002
1.849478e+003;1.966933e-002
1.851406e+003;1.965228e-002
1.853335e+003;1.970639e-002
1.855263e+003;1.975778e-002
1.857192e+003;1.941189e-002
1.859120e+003;1.906921e-002
1.861049e+003;1.870241e-002
1.862977e+003;1.834329e-002
1.864906e+003;1.836420e-002
1.866834e+003;1.836648e-002
1.868763e+003;1.832255e-002
1.870692e+003;1.855704e-002
1.872620e+003;1.877727e-002
1.874549e+003;1.860321e-002
1.876477e+003;1.842417e-002
1.878406e+003;1.854128e-002
1.880334e+003;1.884135e-002
1.882263e+003;1.884845e-002
1.884191e+003;1.857530e-002
1.886120e+003;1.852198e-002
1.888048e+003;1.851320e-002
1.889977e+003;1.872320e-002
1.891906e+003;1.903154e-002
1.893834e+003;1.895701e-002
1.895763e+003;1.865070e-002
1.897691e+003;1.876122e-002
1.899620e+003;1.901794e-002
1.901548e+003;1.878703e-002
1.903477e+003;1.854225e-002
1.905405e+003;1.874579e-002
1.907334e+003;1.903306e-002
1.909262e+003;1.921194e-002
1.911191e+003;1.918036e-002
1.913120e+003;1.933740e-002
1.915048e+003;1.947194e-002
1.916977e+003;1.926303e-002
1.918905e+003;1.933851e-002
1.920834e+003;1.984042e-002
1.922762e+003;2.006530e-002
1.924691e+003;1.994969e-002
1.926619e+003;1.996370e-002
1.928548e+003;2.016410e-002
1.930477e+003;2.010392e-002
1.932405e+003;1.992957e-002
1.934334e+003;2.000166e-002
1.936262e+003;2.023630e-002
1.938191e+003;2.048222e-002
1.940119e+003;2.046812e-002
1.942048e+003;2.031122e-002
1.943976e+003;2.014765e-002
1.945905e+003;2.030487e-002
1.947833e+003;2.078006e-002
1.949762e+003;2.097211e-002
1.951691e+003;2.072063e-002
1.953619e+003;2.077485e-002
1.955548e+003;2.119290e-002
1.957476e+003;2.148187e-002
1.959405e+003;2.120592e-002
1.961333e+003;2.097346e-002
1.963262e+003;2.118696e-002
1.965190e+003;2.136627e-002
1.967119e+003;2.131218e-002
1.969047e+003;2.115126e-002
1.970976e+003;2.112333e-002
1.972905e+003;2.121482e-002
1.974833e+003;2.125306e-002
1.976762e+003;2.109087e-002
1.978690e+003;2.107456e-002
1.980619e+003;2.126124e-002
1.982547e+003;2.165841e-002
1.984476e+003;2.182771e-002
1.986404e+003;2.172181e-002
1.988333e+003;2.181172e-002
1.990261e+003;2.172121e-002
1.992190e+003;2.161404e-002
1.994119e+003;2.196020e-002
1.996047e+003;2.222840e-002
1.997976e+003;2.218966e-002
1.999904e+003;2.227381e-002
2.001833e+003;2.236430e-002
2.003761e+003;2.259523e-002
2.005690e+003;2.262779e-002
2.007618e+003;2.268745e-002
2.009547e+003;2.299355e-002
2.011476e+003;2.332312e-002
2.013404e+003;2.374227e-002
2.015333e+003;2.400139e-002
2.017261e+003;2.400752e-002
2.019190e+003;2.404881e-002
2.021118e+003;2.396942e-002
2.023047e+003;2.419326e-002
2.024975e+003;2.450403e-002
2.026904e+003;2.468430e-002
2.028833e+003;2.496500e-002
2.030761e+003;2.525519e-002
2.032690e+003;2.537454e-002
2.034618e+003;2.541725e-002
2.036547e+003;2.543366e-002
2.038475e+003;2.558736e-002
2.040404e+003;2.584687e-002
2.042332e+003;2.619118e-002
2.044261e+003;2.630628e-002
2.046189e+003;2.596561e-002
2.048118e+003;2.587835e-002
2.050047e+003;2.620335e-002
2.051975e+003;2.632008e-002
2.053904e+003;2.622915e-002
2.055832e+003;2.600828e-002
2.057761e+003;2.607431e-002
2.059689e+003;2.625228e-002
2.061618e+003;2.623436e-002
2.063546e+003;2.600029e-002
2.065475e+003;2.598650e-002
2.067404e+003;2.607217e-002
2.069332e+003;2.624186e-002
2.071260e+003;2.660835e-002
2.073189e+003;2.677501e-002
2.075118e+003;2.665070e-002
2.077046e+003;2.667695e-002
2.078975e+003;2.660321e-002
2.080903e+003;2.658056e-002
2.082832e+003;2.702293e-002
2.084760e+003;2.717268e-002
2.086689e+003;2.672155e-002
2.088617e+003;2.619195e-002
2.090546e+003;2.622525e-002
2.092475e+003;2.658792e-002
2.094403e+003;2.702163e-002
2.096332e+003;2.716344e-002
2.098260e+003;2.701034e-002
2.100189e+003;2.711198e-002
2.102117e+003;2.710411e-002
2.104046e+003;2.725445e-002
2.105974e+003;2.758984e-002
2.107903e+003;2.749643e-002
2.109832e+003;2.726740e-002
2.111760e+003;2.724827e-002
2.113688e+003;2.727569e-002
2.115617e+003;2.733197e-002
2.117546e+003;2.743343e-002
2.119474e+003;2.761181e-002
2.121403e+003;2.785639e-002
2.123331e+003;2.807814e-002
2.125260e+003;2.807481e-002
2.127188e+003;2.792384e-002
2.129117e+003;2.796822e-002
2.131045e+003;2.803275e-002
2.132974e+003;2.788352e-002
2.134903e+003;2.772022e-002
2.136831e+003;2.799497e-002
2.138760e+003;2.817800e-002
2.140688e+003;2.797388e-002
2.142617e+003;2.793013e-002
2.144545e+003;2.809355e-002
2.146474e+003;2.839595e-002
2.148402e+003;2.825781e-002
2.150331e+003;2.792811e-002
2.152260e+003;2.777023e-002
2.154188e+003;2.773074e-002
2.156117e+003;2.782195e-002
2.158045e+003;2.766135e-002
2.159974e+003;2.756082e-002
2.161902e+003;2.763490e-002
2.163831e+003;2.724295e-002
2.165759e+003;2.687966e-002
2.167688e+003;2.671817e-002
2.169616e+003;2.674749e-002
2.171545e+003;2.692023e-002
2.173474e+003;2.680574e-002
2.175402e+003;2.665482e-002
2.177331e+003;2.646891e-002
2.179259e+003;2.602277e-002
2.181188e+003;2.577648e-002
2.183116e+003;2.544483e-002
2.185045e+003;2.513173e-002
2.186973e+003;2.536888e-002
2.188902e+003;2.563899e-002
2.190831e+003;2.561867e-002
2.192759e+003;2.524683e-002
2.194688e+003;2.510052e-002
2.196616e+003;2.538637e-002
2.198545e+003;2.542027e-002
2.200473e+003;2.543816e-002
2.202402e+003;2.541279e-002
2.204330e+003;2.531630e-002
2.206259e+003;2.511600e-002
2.208188e+003;2.481205e-002
2.210116e+003;2.471520e-002
2.212044e+003;2.486457e-002
2.213973e+003;2.501133e-002
2.215902e+003;2.510691e-002
2.217830e+003;2.515459e-002
2.219759e+003;2.513247e-002
2.221687e+003;2.524392e-002
2.223616e+003;2.518355e-002
2.225544e+003;2.495816e-002
2.227473e+003;2.483840e-002
2.229401e+003;2.504063e-002
2.231330e+003;2.533720e-002
2.233259e+003;2.537204e-002
2.235187e+003;2.537162e-002
2.237116e+003;2.541543e-002
2.239044e+003;2.529737e-002
2.240973e+003;2.529101e-002
2.242901e+003;2.550934e-002
2.244830e+003;2.559431e-002
2.246758e+003;2.566363e-002
2.248687e+003;2.561899e-002
2.250615e+003;2.555249e-002
2.252544e+003;2.557864e-002
2.254473e+003;2.547009e-002
2.256401e+003;2.530829e-002
2.258330e+003;2.530994e-002
2.260258e+003;2.538876e-002
2.262187e+003;2.536723e-002
2.264115e+003;2.528363e-002
2.266044e+003;2.533902e-002
2.267972e+003;2.548422e-002
2.269901e+003;2.536020e-002
2.271830e+003;2.533140e-002
2.273758e+003;2.551387e-002
2.275687e+003;2.552392e-002
2.277615e+003;2.548527e-002
2.279544e+003;2.541311e-002
2.281472e+003;2.556560e-002
2.283401e+003;2.564936e-002
2.285329e+003;2.572711e-002
2.287258e+003;2.561435e-002
2.289187e+003;2.528135e-002
2.291115e+003;2.521902e-002
2.293043e+003;2.554891e-002
2.294972e+003;2.579648e-002
2.296901e+003;2.587142e-002
2.298829e+003;2.564753e-002
2.300758e+003;2.528767e-002
2.302686e+003;2.504369e-002
2.304615e+003;2.510396e-002
2.306543e+003;2.537829e-002
2.308472e+003;2.539515e-002
2.310400e+003;2.509589e-002
2.312329e+003;2.510737e-002
2.314258e+003;2.522123e-002
2.316186e+003;2.510207e-002
2.318115e+003;2.485513e-002
2.320043e+003;2.447848e-002
2.321972e+003;2.445618e-002
2.323900e+003;2.447851e-002
2.325829e+003;2.422930e-002
2.327757e+003;2.397114e-002
2.329686e+003;2.376600e-002
2.331615e+003;2.402790e-002
2.333543e+003;2.402751e-002
2.335472e+003;2.384125e-002
2.337400e+003;2.426739e-002
2.339329e+003;2.439183e-002
2.341257e+003;2.440210e-002
2.343186e+003;2.511081e-002
2.345114e+003;2.583601e-002
2.347043e+003;2.640922e-002
2.348971e+003;2.675866e-002
2.350900e+003;2.663044e-002
2.352829e+003;2.618417e-002
2.354757e+003;2.541051e-002
2.356686e+003;2.486454e-002
2.358614e+003;2.459109e-002
2.360543e+003;2.459105e-002
2.362471e+003;2.485931e-002
2.364400e+003;2.524139e-002
2.366328e+003;2.572300e-002
2.368257e+003;2.640352e-002
2.370186e+003;2.693447e-002
2.372114e+003;2.755683e-002
2.374042e+003;2.806230e-002
2.375971e+003;2.865425e-002
2.377900e+003;2.943404e-002
2.379828e+003;2.980583e-002
2.381757e+003;3.012271e-002
2.383685e+003;3.032131e-002
2.385614e+003;3.031517e-002
2.387542e+003;3.052360e-002
2.389471e+003;3.085203e-002
2.391399e+003;3.082446e-002
2.393328e+003;3.078153e-002
2.395257e+003;3.091454e-002
2.397185e+003;3.112667e-002
2.399114e+003;3.112258e-002
2.401042e+003;3.127407e-002
2.402971e+003;3.173194e-002
2.404899e+003;3.209479e-002
2.406828e+003;3.231193e-002
2.408756e+003;3.250921e-002
2.410685e+003;3.256953e-002
2.412614e+003;3.244687e-002
2.414542e+003;3.259056e-002
2.416471e+003;3.283822e-002
2.418399e+003;3.307847e-002
2.420328e+003;3.346628e-002
2.422256e+003;3.369420e-002
2.424185e+003;3.399394e-002
2.426113e+003;3.425853e-002
2.428042e+003;3.417443e-002
2.429970e+003;3.407342e-002
2.431899e+003;3.445326e-002
2.433828e+003;3.492240e-002
2.435756e+003;3.497314e-002
2.437685e+003;3.488991e-002
2.439613e+003;3.516015e-002
2.441542e+003;3.535675e-002
2.443470e+003;3.540374e-002
2.445399e+003;3.570217e-002
2.447327e+003;3.598224e-002
2.449256e+003;3.584821e-002
2.451185e+003;3.599304e-002
2.453113e+003;3.642767e-002
2.455042e+003;3.649376e-002
2.456970e+003;3.660380e-002
2.458899e+003;3.685927e-002
2.460827e+003;3.716727e-002
2.462756e+003;3.752934e-002
2.464684e+003;3.762309e-002
2.466613e+003;3.732181e-002
2.468542e+003;3.711667e-002
2.470470e+003;3.736186e-002
2.472398e+003;3.791076e-002
2.474327e+003;3.823727e-002
2.476256e+003;3.797780e-002
2.478184e+003;3.788896e-002
2.480113e+003;3.843046e-002
2.482041e+003;3.883015e-002
2.483970e+003;3.879391e-002
2.485898e+003;3.877794e-002
2.487827e+003;3.918186e-002
2.489755e+003;3.942735e-002
2.491684e+003;3.933052e-002
2.493613e+003;3.952108e-002
2.495541e+003;3.974287e-002
2.497470e+003;4.011647e-002
2.499398e+003;4.039864e-002
2.501327e+003;4.003577e-002
2.503255e+003;4.010826e-002
2.505184e+003;4.056471e-002
2.507112e+003;4.073776e-002
2.509041e+003;4.079555e-002
2.510969e+003;4.092460e-002
2.512898e+003;4.100398e-002
2.514827e+003;4.103377e-002
2.516755e+003;4.109459e-002
2.518684e+003;4.126424e-002
2.520612e+003;4.127962e-002
2.522541e+003;4.151769e-002
2.524469e+003;4.167978e-002
2.526398e+003;4.183915e-002
2.528326e+003;4.198088e-002
2.530255e+003;4.189188e-002
2.532184e+003;4.190812e-002
2.534112e+003;4.218207e-002
2.536041e+003;4.226701e-002
2.537969e+003;4.222015e-002
2.539898e+003;4.236003e-002
2.541826e+003;4.283129e-002
2.543755e+003;4.294927e-002
2.545683e+003;4.267868e-002
2.547612e+003;4.253764e-002
2.549541e+003;4.267945e-002
2.551469e+003;4.276496e-002
2.553397e+003;4.313363e-002
2.555326e+003;4.352778e-002
2.557255e+003;4.371095e-002
2.559183e+003;4.370480e-002
2.561112e+003;4.328856e-002
2.563040e+003;4.307048e-002
2.564969e+003;4.335596e-002
2.566897e+003;4.407038e-002
2.568826e+003;4.432596e-002
2.570754e+003;4.420452e-002
2.572683e+003;4.443176e-002
2.574612e+003;4.459248e-002
2.576540e+003;4.463753e-002
2.578469e+003;4.450073e-002
2.580397e+003;4.448297e-002
2.582326e+003;4.489091e-002
2.584254e+003;4.514101e-002
2.586183e+003;4.494345e-002
2.588111e+003;4.498207e-002
2.590040e+003;4.529519e-002
2.591969e+003;4.530534e-002
2.593897e+003;4.524370e-002
2.595826e+003;4.542547e-002
2.597754e+003;4.567083e-002
2.599683e+003;4.592897e-002
2.601611e+003;4.606014e-002
2.603540e+003;4.606788e-002
2.605468e+003;4.600905e-002
2.607397e+003;4.610856e-002
2.609325e+003;4.634303e-002
2.611254e+003;4.630672e-002
2.613183e+003;4.639999e-002
2.615111e+003;4.656767e-002
2.617040e+003;4.680981e-002
2.618968e+003;4.698795e-002
2.620897e+003;4.717152e-002
2.622825e+003;4.745646e-002
2.624754e+003;4.758643e-002
2.626682e+003;4.760588e-002
2.628611e+003;4.783598e-002
2.630540e+003;4.831341e-002
2.632468e+003;4.864420e-002
2.634396e+003;4.837426e-002
2.636325e+003;4.828316e-002
2.638254e+003;4.854630e-002
2.640182e+003;4.886403e-002
2.642111e+003;4.913484e-002
2.644039e+003;4.897154e-002
2.645968e+003;4.888595e-002
2.647896e+003;4.906423e-002
2.649825e+003;4.928832e-002
2.651753e+003;4.926609e-002
2.653682e+003;4.928657e-002
2.655611e+003;4.953599e-002
2.657539e+003;4.975571e-002
2.659468e+003;4.989240e-002
2.661396e+003;5.017719e-002
2.663325e+003;5.060203e-002
2.665253e+003;5.098006e-002
2.667182e+003;5.099020e-002
2.669110e+003;5.094429e-002
2.671039e+003;5.098606e-002
2.672968e+003;5.124182e-002
2.674896e+003;5.138315e-002
2.676825e+003;5.129865e-002
2.678753e+003;5.144182e-002
2.680682e+003;5.182249e-002
2.682610e+003;5.200883e-002
2.684539e+003;5.223799e-002
2.686467e+003;5.247620e-002
2.688396e+003;5.236495e-002
2.690324e+003;5.241770e-002
2.692253e+003;5.275642e-002
2.694182e+003;5.265466e-002
2.696110e+003;5.242988e-002
2.698039e+003;5.278463e-002
2.699967e+003;5.335834e-002
2.701896e+003;5.366952e-002
2.703824e+003;5.360287e-002
2.705753e+003;5.354117e-002
2.707681e+003;5.404217e-002
2.709610e+003;5.436568e-002
2.711539e+003;5.430853e-002
2.713467e+003;5.432937e-002
2.715396e+003;5.439290e-002
2.717324e+003;5.441476e-002
2.719253e+003;5.445912e-002
2.721181e+003;5.476790e-002
2.723110e+003;5.508796e-002
2.725038e+003;5.508161e-002
2.726967e+003;5.486880e-002
2.728896e+003;5.478395e-002
2.730824e+003;5.517310e-002
2.732752e+003;5.563267e-002
2.734681e+003;5.571938e-002
2.736610e+003;5.590193e-002
2.738538e+003;5.593072e-002
2.740467e+003;5.600550e-002
2.742395e+003;5.623580e-002
2.744324e+003;5.629494e-002
2.746252e+003;5.641438e-002
2.748181e+003;5.653117e-002
2.750109e+003;5.659375e-002
2.752038e+003;5.650438e-002
2.753967e+003;5.646147e-002
2.755895e+003;5.667846e-002
2.757824e+003;5.694020e-002
2.759752e+003;5.708808e-002
2.761681e+003;5.708718e-002
2.763609e+003;5.696257e-002
2.765538e+003;5.699706e-002
2.767466e+003;5.740653e-002
2.769395e+003;5.778365e-002
2.771323e+003;5.826422e-002
2.773252e+003;5.863192e-002
2.775181e+003;5.856704e-002
2.777109e+003;5.845641e-002
2.779038e+003;5.866135e-002
2.780966e+003;5.890771e-002
2.782895e+003;5.913660e-002
2.784823e+003;5.916796e-002
2.786752e+003;5.914267e-002
2.788680e+003;5.949200e-002
2.790609e+003;5.991905e-002
2.792538e+003;6.012191e-002
2.794466e+003;5.989600e-002
2.796395e+003;5.999886e-002
2.798323e+003;6.034016e-002
2.800252e+003;6.043988e-002
2.802180e+003;6.059765e-002
2.804109e+003;6.128791e-002
2.806037e+003;6.203416e-002
2.807966e+003;6.210048e-002
2.809895e+003;6.226538e-002
2.811823e+003;6.273762e-002
2.813751e+003;6.323192e-002
2.815680e+003;6.388112e-002
2.817609e+003;6.406783e-002
2.819537e+003;6.399733e-002
2.821466e+003;6.436443e-002
2.823394e+003;6.458582e-002
2.825323e+003;6.463650e-002
2.827251e+003;6.521230e-002
2.829180e+003;6.631845e-002
2.831108e+003;6.726172e-002
2.833037e+003;6.768567e-002
2.834966e+003;6.780434e-002
2.836894e+003;6.828810e-002
2.838823e+003;6.906536e-002
2.840751e+003;6.952779e-002
2.842680e+003;6.985845e-002
2.844608e+003;7.026513e-002
2.846537e+003;7.087291e-002
2.848465e+003;7.189619e-002
2.850394e+003;7.317603e-002
2.852323e+003;7.384446e-002
2.854251e+003;7.423436e-002
2.856180e+003;7.490367e-002
2.858108e+003;7.623037e-002
2.860037e+003;7.700838e-002
2.861965e+003;7.734590e-002
2.863894e+003;7.774633e-002
2.865822e+003;7.823298e-002
2.867751e+003;7.893268e-002
2.869679e+003;7.965735e-002
2.871608e+003;8.026368e-002
2.873536e+003;8.093644e-002
2.875465e+003;8.139674e-002
2.877394e+003;8.135135e-002
2.879322e+003;8.144142e-002
2.881251e+003;8.170474e-002
2.883179e+003;8.210173e-002
2.885108e+003;8.285064e-002
2.887036e+003;8.306661e-002
2.888965e+003;8.277341e-002
2.890893e+003;8.279727e-002
2.892822e+003;8.286455e-002
2.894750e+003;8.246811e-002
2.896679e+003;8.252560e-002
2.898608e+003;8.268502e-002
2.900536e+003;8.256643e-002
2.902465e+003;8.253253e-002
2.904393e+003;8.242452e-002
2.906322e+003;8.180317e-002
2.908250e+003;8.125561e-002
2.910179e+003;8.092459e-002
2.912107e+003;8.014471e-002
2.914036e+003;7.947294e-002
2.915965e+003;7.937022e-002
2.917893e+003;7.929902e-002
2.919822e+003;7.901900e-002
2.921750e+003;7.894254e-002
2.923679e+003;7.874008e-002
2.925607e+003;7.875882e-002
2.927536e+003;7.935029e-002
2.929464e+003;7.917487e-002
2.931393e+003;7.869380e-002
2.933322e+003;7.845525e-002
2.935250e+003;7.814927e-002
2.937178e+003;7.776468e-002
2.939107e+003;7.742351e-002
2.941036e+003;7.729914e-002
2.942964e+003;7.679380e-002
2.944893e+003;7.609335e-002
2.946821e+003;7.557968e-002
2.948750e+003;7.480285e-002
2.950678e+003;7.359693e-002
2.952607e+003;7.260446e-002
2.954535e+003;7.163907e-002
2.956464e+003;7.085098e-002
2.958393e+003;7.021944e-002
2.960321e+003;6.960274e-002
2.962250e+003;6.933605e-002
2.964178e+003;6.931661e-002
2.966107e+003;6.894682e-002
2.968035e+003;6.893025e-002
2.969964e+003;6.911758e-002
2.971892e+003;6.843943e-002
2.973821e+003;6.784609e-002
2.975750e+003;6.742689e-002
2.977678e+003;6.706857e-002
2.979607e+003;6.674037e-002
2.981535e+003;6.611723e-002
2.983464e+003;6.568217e-002
2.985392e+003;6.535802e-002
2.987321e+003;6.509688e-002
2.989249e+003;6.514762e-002
2.991178e+003;6.497419e-002
2.993106e+003;6.464722e-002
2.995035e+003;6.447503e-002
2.996964e+003;6.416357e-002
2.998892e+003;6.386907e-002
3.000821e+003;6.381872e-002
3.002749e+003;6.357960e-002
3.004678e+003;6.378544e-002
3.006606e+003;6.377400e-002
3.008535e+003;6.321409e-002
3.010463e+003;6.311277e-002
3.012392e+003;6.299883e-002
3.014321e+003;6.300481e-002
3.016249e+003;6.318945e-002
3.018177e+003;6.346405e-002
3.020106e+003;6.345108e-002
3.022035e+003;6.320868e-002
3.023963e+003;6.332176e-002
3.025892e+003;6.340998e-002
3.027820e+003;6.351804e-002
3.029749e+003;6.378897e-002
3.031677e+003;6.372466e-002
3.033606e+003;6.392400e-002
3.035534e+003;6.435620e-002
3.037463e+003;6.456029e-002
3.039392e+003;6.452585e-002
3.041320e+003;6.436753e-002
3.043249e+003;6.489193e-002
3.045177e+003;6.530714e-002
3.047106e+003;6.530510e-002
3.049034e+003;6.514851e-002
3.050963e+003;6.530753e-002
3.052891e+003;6.571497e-002
3.054820e+003;6.571316e-002
3.056749e+003;6.616211e-002
3.058677e+003;6.640037e-002
3.060606e+003;6.606982e-002
3.062534e+003;6.612164e-002
3.064463e+003;6.656252e-002
3.066391e+003;6.704696e-002
3.068320e+003;6.746668e-002
3.070248e+003;6.776521e-002
3.072177e+003;6.770282e-002
3.074105e+003;6.760901e-002
3.076034e+003;6.787785e-002
3.077963e+003;6.792291e-002
3.079891e+003;6.832215e-002
3.081820e+003;6.887635e-002
3.083748e+003;6.915852e-002
3.085677e+003;6.926049e-002
3.087605e+003;6.936283e-002
3.089534e+003;6.962954e-002
3.091462e+003;7.013614e-002
3.093391e+003;7.056042e-002
3.095320e+003;7.044727e-002
3.097248e+003;7.048223e-002
3.099177e+003;7.084018e-002
3.101105e+003;7.135597e-002
3.103034e+003;7.177972e-002
3.104962e+003;7.161402e-002
3.106891e+003;7.155209e-002
3.108819e+003;7.164188e-002
3.110748e+003;7.161085e-002
3.112677e+003;7.193533e-002
3.114605e+003;7.245938e-002
3.116533e+003;7.239851e-002
3.118462e+003;7.289280e-002
3.120391e+003;7.366944e-002
3.122319e+003;7.342069e-002
3.124248e+003;7.373776e-002
3.126176e+003;7.440775e-002
3.128105e+003;7.454541e-002
3.130033e+003;7.455836e-002
3.131962e+003;7.496576e-002
3.133890e+003;7.512365e-002
3.135819e+003;7.530390e-002
3.137748e+003;7.583772e-002
3.139676e+003;7.600836e-002
3.141605e+003;7.609924e-002
3.143533e+003;7.648153e-002
3.145462e+003;7.696957e-002
3.147390e+003;7.720746e-002
3.149319e+003;7.740097e-002
3.151247e+003;7.761739e-002
3.153176e+003;7.787507e-002
3.155104e+003;7.840691e-002
3.157033e+003;7.899690e-002
3.158962e+003;7.968000e-002
3.160890e+003;8.004893e-002
3.162819e+003;8.011176e-002
3.164747e+003;8.034018e-002
3.166676e+003;8.071548e-002
3.168604e+003;8.074626e-002
3.170533e+003;8.096678e-002
3.172461e+003;8.150302e-002
3.174390e+003;8.212706e-002
3.176319e+003;8.253381e-002
3.178247e+003;8.273625e-002
3.180176e+003;8.322415e-002
3.182104e+003;8.380421e-002
3.184033e+003;8.403241e-002
3.185961e+003;8.420385e-002
3.187890e+003;8.442985e-002
3.189818e+003;8.463578e-002
3.191747e+003;8.466449e-002
3.193676e+003;8.499665e-002
3.195604e+003;8.550997e-002
3.197532e+003;8.641589e-002
3.199461e+003;8.699557e-002
3.201390e+003;8.725547e-002
3.203318e+003;8.747568e-002
3.205247e+003;8.760145e-002
3.207175e+003;8.776368e-002
3.209104e+003;8.804685e-002
3.211032e+003;8.859975e-002
3.212961e+003;8.915038e-002
3.214889e+003;8.954173e-002
3.216818e+003;8.957301e-002
3.218747e+003;8.990504e-002
3.220675e+003;9.017149e-002
3.222604e+003;9.018894e-002
3.224532e+003;9.036173e-002
3.226461e+003;9.103203e-002
3.228389e+003;9.199074e-002
3.230318e+003;9.236363e-002
3.232246e+003;9.226577e-002
3.234175e+003;9.224086e-002
3.236104e+003;9.233499e-002
3.238032e+003;9.281643e-002
3.239961e+003;9.293183e-002
3.241889e+003;9.347405e-002
3.243818e+003;9.423906e-002
3.245746e+003;9.506138e-002
3.247675e+003;9.549278e-002
3.249603e+003;9.514804e-002
3.251532e+003;9.527446e-002
3.253460e+003;9.615885e-002
3.255389e+003;9.657102e-002
3.257318e+003;9.654486e-002
3.259246e+003;9.672756e-002
3.261175e+003;9.727423e-002
3.263103e+003;9.757444e-002
3.265032e+003;9.770866e-002
3.266960e+003;9.806959e-002
3.268889e+003;9.840706e-002
3.270817e+003;9.861013e-002
3.272746e+003;9.879112e-002
3.274675e+003;9.908503e-002
3.276603e+003;9.945473e-002
3.278531e+003;9.972774e-002
3.280460e+003;9.988088e-002
3.282389e+003;9.987839e-002
3.284317e+003;9.982434e-002
3.286246e+003;1.000548e-001
3.288174e+003;1.005129e-001
3.290103e+003;1.006765e-001
3.292031e+003;1.007308e-001
3.293960e+003;1.009586e-001
3.295888e+003;1.010223e-001
3.297817e+003;1.011671e-001
3.299746e+003;1.015471e-001
3.301674e+003;1.012595e-001
3.303603e+003;1.009625e-001
3.305531e+003;1.017452e-001
3.307460e+003;1.021465e-001
3.309388e+003;1.021445e-001
3.311317e+003;1.023459e-001
3.313245e+003;1.023629e-001
3.315174e+003;1.028530e-001
3.317103e+003;1.030641e-001
3.319031e+003;1.029387e-001
3.320960e+003;1.031604e-001
3.322888e+003;1.035573e-001
3.324817e+003;1.035176e-001
3.326745e+003;1.030032e-001
3.328674e+003;1.026929e-001
3.330602e+003;1.029229e-001
3.332531e+003;1.030077e-001
3.334459e+003;1.027013e-001
3.336388e+003;1.027870e-001
3.338317e+003;1.027036e-001
3.340245e+003;1.023971e-001
3.342174e+003;1.025241e-001
3.344102e+003;1.025820e-001
3.346031e+003;1.024232e-001
3.347959e+003;1.024170e-001
3.349888e+003;1.026832e-001
3.351816e+003;1.026859e-001
3.353745e+003;1.021018e-001
3.355674e+003;1.018567e-001
3.357602e+003;1.021457e-001
3.359531e+003;1.022709e-001
3.361459e+003;1.017681e-001
3.363388e+003;1.009946e-001
3.365316e+003;1.010052e-001
3.367245e+003;1.005432e-001
3.369173e+003;9.981767e-002
3.371102e+003;1.002721e-001
3.373031e+003;1.006796e-001
3.374959e+003;1.002233e-001
3.376887e+003;9.954540e-002
3.378816e+003;9.932531e-002
3.380745e+003;9.920734e-002
3.382673e+003;9.892584e-002
3.384602e+003;9.884753e-002
3.386530e+003;9.845756e-002
3.388459e+003;9.799091e-002
3.390387e+003;9.786429e-002
3.392316e+003;9.743078e-002
3.394244e+003;9.746333e-002
3.396173e+003;9.747072e-002
3.398102e+003;9.664742e-002
3.400030e+003;9.584118e-002
3.401959e+003;9.540061e-002
3.403887e+003;9.556305e-002
3.405816e+003;9.575617e-002
3.407744e+003;9.541080e-002
3.409673e+003;9.495904e-002
3.411601e+003;9.471023e-002
3.413530e+003;9.481673e-002
3.415458e+003;9.418465e-002
3.417387e+003;9.311178e-002
3.419316e+003;9.255061e-002
3.421244e+003;9.198492e-002
3.423173e+003;9.138917e-002
3.425101e+003;9.121054e-002
3.427030e+003;9.047749e-002
3.428958e+003;8.972343e-002
3.430887e+003;8.917801e-002
3.432815e+003;8.894453e-002
3.434744e+003;8.903843e-002
3.436673e+003;8.876336e-002
3.438601e+003;8.823393e-002
3.440530e+003;8.776685e-002
3.442458e+003;8.759627e-002
3.444387e+003;8.728658e-002
3.446315e+003;8.615285e-002
3.448244e+003;8.504070e-002
3.450172e+003;8.492231e-002
3.452101e+003;8.455772e-002
3.454030e+003;8.381511e-002
3.455958e+003;8.331442e-002
3.457886e+003;8.280019e-002
3.459815e+003;8.202256e-002
3.461744e+003;8.143228e-002
3.463672e+003;8.162840e-002
3.465601e+003;8.191231e-002
3.467529e+003;8.161872e-002
3.469458e+003;8.028158e-002
3.471386e+003;7.908625e-002
3.473315e+003;7.872923e-002
3.475243e+003;7.789576e-002
3.477172e+003;7.732867e-002
3.479101e+003;7.738078e-002
3.481029e+003;7.686471e-002
3.482958e+003;7.613098e-002
3.484886e+003;7.525007e-002
3.486815e+003;7.480414e-002
3.488743e+003;7.482210e-002
3.490672e+003;7.410394e-002
3.492600e+003;7.317125e-002
3.494529e+003;7.246510e-002
3.496458e+003;7.158139e-002
3.498386e+003;7.094246e-002
3.500315e+003;7.032839e-002
3.502243e+003;6.949692e-002
3.504172e+003;6.894178e-002
3.506100e+003;6.851799e-002
3.508029e+003;6.817846e-002
3.509957e+003;6.816442e-002
3.511886e+003;6.756321e-002
3.513814e+003;6.669351e-002
3.515743e+003;6.602658e-002
3.517672e+003;6.564458e-002
3.519600e+003;6.527622e-002
3.521529e+003;6.477568e-002
3.523457e+003;6.397775e-002
3.525386e+003;6.305170e-002
3.527314e+003;6.234061e-002
3.529243e+003;6.188909e-002
3.531171e+003;6.155906e-002
3.533100e+003;6.113581e-002
3.535029e+003;6.060934e-002
3.536957e+003;6.028903e-002
3.538885e+003;5.972230e-002
3.540814e+003;5.967709e-002
3.542743e+003;5.907745e-002
3.544671e+003;5.737450e-002
3.546600e+003;5.654789e-002
3.548528e+003;5.693624e-002
3.550457e+003;5.674774e-002
3.552385e+003;5.614544e-002
3.554314e+003;5.593208e-002
3.556242e+003;5.506084e-002
3.558171e+003;5.379165e-002
3.560100e+003;5.335418e-002
3.562028e+003;5.271814e-002
3.563957e+003;5.221396e-002
3.565885e+003;5.222465e-002
3.567814e+003;5.167177e-002
3.569742e+003;5.083607e-002
3.571671e+003;5.050308e-002
3.573599e+003;5.053844e-002
3.575528e+003;5.053580e-002
3.577457e+003;5.016875e-002
3.579385e+003;4.996213e-002
3.581314e+003;4.974765e-002
3.583242e+003;4.898712e-002
3.585171e+003;4.785126e-002
3.587099e+003;4.700597e-002
3.589028e+003;4.696322e-002
3.590956e+003;4.674128e-002
3.592885e+003;4.651416e-002
3.594813e+003;4.652518e-002
3.596742e+003;4.611342e-002
3.598671e+003;4.540148e-002
3.600599e+003;4.514318e-002
3.602528e+003;4.465876e-002
3.604456e+003;4.386913e-002
3.606385e+003;4.351697e-002
3.608313e+003;4.344106e-002
3.610242e+003;4.311625e-002
3.612170e+003;4.251878e-002
3.614099e+003;4.214110e-002
3.616028e+003;4.219550e-002
3.617956e+003;4.248465e-002
3.619885e+003;4.210853e-002
3.621813e+003;4.134474e-002
3.623742e+003;4.080877e-002
3.625670e+003;4.019200e-002
3.627599e+003;3.930052e-002
3.629527e+003;3.830490e-002
3.631456e+003;3.793933e-002
3.633385e+003;3.815804e-002
3.635313e+003;3.845924e-002
3.637241e+003;3.775850e-002
3.639170e+003;3.621037e-002
3.641099e+003;3.529917e-002
3.643027e+003;3.505920e-002
3.644956e+003;3.458740e-002
3.646884e+003;3.372224e-002
3.648813e+003;3.263446e-002
3.650741e+003;3.191709e-002
3.652670e+003;3.152671e-002
3.654598e+003;3.060615e-002
3.656527e+003;2.948613e-002
3.658456e+003;2.890718e-002
3.660384e+003;2.857363e-002
3.662313e+003;2.848337e-002
3.664241e+003;2.794235e-002
3.666170e+003;2.686911e-002
3.668098e+003;2.623602e-002
3.670027e+003;2.572391e-002
3.671955e+003;2.486597e-002
3.673884e+003;2.389779e-002
3.675813e+003;2.320853e-002
3.677741e+003;2.298503e-002
3.679669e+003;2.258441e-002
3.681598e+003;2.237375e-002
3.683527e+003;2.245382e-002
3.685455e+003;2.141047e-002
3.687384e+003;2.003875e-002
3.689312e+003;1.970577e-002
3.691241e+003;2.024661e-002
3.693169e+003;2.098553e-002
3.695098e+003;2.109474e-002
3.697026e+003;2.084409e-002
3.698955e+003;2.045360e-002
3.700884e+003;1.958849e-002
3.702812e+003;1.917246e-002
3.704741e+003;1.941944e-002
3.706669e+003;1.920304e-002
3.708598e+003;1.854221e-002
3.710526e+003;1.807478e-002
3.712455e+003;1.792240e-002
3.714383e+003;1.802138e-002
3.716312e+003;1.792689e-002
3.718240e+003;1.804362e-002
3.720169e+003;1.783277e-002
3.722098e+003;1.731279e-002
3.724026e+003;1.711629e-002
3.725955e+003;1.699905e-002
3.727883e+003;1.680486e-002
3.729812e+003;1.652405e-002
3.731740e+003;1.604836e-002
3.733669e+003;1.593238e-002
3.735597e+003;1.569922e-002
3.737526e+003;1.563262e-002
3.739455e+003;1.597132e-002
3.741383e+003;1.612442e-002
3.743312e+003;1.576797e-002
3.745240e+003;1.570771e-002
3.747169e+003;1.608608e-002
3.749097e+003;1.584408e-002
3.751026e+003;1.557918e-002
3.752954e+003;1.584264e-002
3.754883e+003;1.636926e-002
3.756812e+003;1.638664e-002
3.758740e+003;1.611294e-002
3.760668e+003;1.625116e-002
3.762597e+003;1.666987e-002
3.764526e+003;1.589350e-002
3.766454e+003;1.533602e-002
3.768383e+003;1.535280e-002
3.770311e+003;1.504199e-002
3.772240e+003;1.530060e-002
3.774168e+003;1.606913e-002
3.776097e+003;1.629653e-002
3.778025e+003;1.641771e-002
3.779954e+003;1.651527e-002
3.781883e+003;1.651107e-002
3.783811e+003;1.632794e-002
3.785740e+003;1.637287e-002
3.787668e+003;1.639982e-002
3.789597e+003;1.631975e-002
3.791525e+003;1.568858e-002
3.793454e+003;1.571458e-002
3.795382e+003;1.581701e-002
3.797311e+003;1.540608e-002
3.799240e+003;1.517222e-002
3.801168e+003;1.486376e-002
3.803097e+003;1.496046e-002
3.805025e+003;1.580707e-002
3.806954e+003;1.647043e-002
3.808882e+003;1.650928e-002
3.810811e+003;1.617518e-002
3.812739e+003;1.556822e-002
3.814668e+003;1.512432e-002
3.816596e+003;1.522434e-002
3.818525e+003;1.575835e-002
3.820454e+003;1.592203e-002
3.822382e+003;1.622333e-002
3.824311e+003;1.660577e-002
3.826239e+003;1.603258e-002
3.828168e+003;1.560998e-002
3.830096e+003;1.573657e-002
3.832025e+003;1.580893e-002
3.833953e+003;1.579185e-002
3.835882e+003;1.610073e-002
3.837811e+003;1.624435e-002
3.839739e+003;1.681802e-002
3.841667e+003;1.716723e-002
3.843596e+003;1.675503e-002
3.845525e+003;1.640043e-002
3.847453e+003;1.669260e-002
3.849382e+003;1.691051e-002
3.851310e+003;1.663007e-002
3.853239e+003;1.643199e-002
3.855167e+003;1.714235e-002
3.857096e+003;1.742414e-002
3.859024e+003;1.774123e-002
3.860953e+003;1.801547e-002
3.862882e+003;1.798007e-002
3.864810e+003;1.813471e-002
3.866739e+003;1.845712e-002
3.868667e+003;1.839417e-002
3.870596e+003;1.803543e-002
3.872524e+003;1.818691e-002
3.874453e+003;1.818729e-002
3.876381e+003;1.806079e-002
3.878310e+003;1.805060e-002
3.880239e+003;1.830119e-002
3.882167e+003;1.849110e-002
3.884096e+003;1.859308e-002
3.886024e+003;1.876790e-002
3.887953e+003;1.931987e-002
3.889881e+003;1.946279e-002
3.891810e+003;1.905075e-002
3.893738e+003;1.907821e-002
3.895667e+003;1.925648e-002
3.897595e+003;1.901399e-002
3.899524e+003;1.857817e-002
3.901453e+003;1.912834e-002
3.903381e+003;1.943576e-002
3.905310e+003;1.930996e-002
3.907238e+003;1.939297e-002
3.909167e+003;1.984195e-002
3.911095e+003;1.976194e-002
3.913024e+003;1.938112e-002
3.914952e+003;1.992634e-002
3.916881e+003;2.101585e-002
3.918810e+003;2.127512e-002
3.920738e+003;2.091501e-002
3.922667e+003;2.042547e-002
3.924595e+003;2.021707e-002
3.926524e+003;2.052890e-002
3.928452e+003;2.106628e-002
3.930381e+003;2.106576e-002
3.932309e+003;2.123034e-002
3.934238e+003;2.196480e-002
3.936167e+003;2.224347e-002
3.938095e+003;2.226872e-002
3.940023e+003;2.194208e-002
3.941952e+003;2.194612e-002
3.943881e+003;2.247291e-002
3.945809e+003;2.260846e-002
3.947738e+003;2.246111e-002
3.949666e+003;2.305043e-002
3.951595e+003;2.297982e-002
3.953523e+003;2.237996e-002
3.955452e+003;2.184830e-002
3.957380e+003;2.195020e-002
3.959309e+003;2.248090e-002
3.961238e+003;2.296540e-002
3.963166e+003;2.295031e-002
3.965095e+003;2.294265e-002
3.967023e+003;2.306682e-002
3.968952e+003;2.276712e-002
3.970880e+003;2.305955e-002
3.972809e+003;2.337760e-002
3.974737e+003;2.283931e-002
3.976666e+003;2.271517e-002
3.978594e+003;2.340613e-002
3.980523e+003;2.359189e-002
3.982452e+003;2.348335e-002
3.984380e+003;2.367558e-002
3.986309e+003;2.370458e-002
3.988237e+003;2.349405e-002
3.990166e+003;2.338414e-002
3.992094e+003;2.367306e-002
3.994023e+003;2.370077e-002
3.995951e+003;2.310648e-002
3.997880e+003;2.308614e-002
3.999809e+003;2.361116e-002
4.001737e+003;0.000000e+000
