3.992094e+002;0.000000e+000
4.011380e+002;0.000000e+000
4.030665e+002;0.000000e+000
4.049951e+002;0.000000e+000
4.069236e+002;0.000000e+000
4.088522e+002;0.000000e+000
4.107807e+002;0.000000e+000
4.127093e+002;0.000000e+000
4.146378e+002;0.000000e+000
4.165664e+002;0.000000e+000
4.184949e+002;0.000000e+000
4.204235e+002;0.000000e+000
4.223520e+002;0.000000e+000
4.242806e+002;0.000000e+000
4.262091e+002;0.000000e+000
4.281377e+002;0.000000e+000
4.300662e+002;0.000000e+000
4.319948e+002;0.000000e+000
4.339233e+002;0.000000e+000
4.358519e+002;0.000000e+000
4.377804e+002;0.000000e+000
4.397090e+002;0.000000e+000
4.416375e+002;0.000000e+000
4.435660e+002;0.000000e+000
4.454946e+002;0.000000e+000
4.474232e+002;0.000000e+000
4.493517e+002;0.000000e+000
4.512802e+002;0.000000e+000
4.532088e+002;0.000000e+000
4.551373e+002;0.000000e+000
4.570659e+002;0.000000e+000
4.589944e+002;0.000000e+000
4.609230e+002;0.000000e+000
4.628515e+002;0.000000e+000
4.647801e+002;0.000000e+000
4.667086e+002;0.000000e+000
4.686372e+002;0.000000e+000
4.705657e+002;0.000000e+000
4.724943e+002;0.000000e+000
4.744228e+002;0.000000e+000
4.763513e+002;0.000000e+000
4.782799e+002;0.000000e+000
4.802085e+002;0.000000e+000
4.821370e+002;0.000000e+000
4.840656e+002;0.000000e+000
4.859941e+002;0.000000e+000
4.879226e+002;0.000000e+000
4.898512e+002;0.000000e+000
4.917798e+002;0.000000e+000
4.937083e+002;0.000000e+000
4.956368e+002;0.000000e+000
4.975654e+002;0.000000e+000
4.994939e+002;0.000000e+000
5.014225e+002;0.000000e+000
5.033510e+002;0.000000e+000
5.052796e+002;0.000000e+000
5.072081e+002;0.000000e+000
5.091367e+002;0.000000e+000
5.110652e+002;0.000000e+000
5.129938e+002;0.000000e+000
5.149223e+002;0.000000e+000
5.168509e+002;0.000000e+000
5.187794e+002;0.000000e+000
5.207079e+002;0.000000e+000
5.226365e+002;0.000000e+000
5.245651e+002;0.000000e+000
5.264936e+002;0.000000e+000
5.284222e+002;0.000000e+000
5.303507e+002;0.000000e+000
5.322792e+002;0.000000e+000
5.342078e+002;0.000000e+000
5.361364e+002;0.000000e+000
5.380649e+002;0.000000e+000
5.399935e+002;0.000000e+000
5.419220e+002;0.000000e+000
5.438505e+002;0.000000e+000
5.457791e+002;0.000000e+000
5.477076e+002;0.000000e+000
5.496362e+002;0.000000e+000
5.515648e+002;0.000000e+000
5.534933e+002;0.000000e+000
5.554218e+002;0.000000e+000
5.573504e+002;0.000000e+000
5.592789e+002;0.000000e+000
5.612075e+002;0.000000e+000
5.631360e+002;0.000000e+000
5.650646e+002;0.000000e+000
5.669931e+002;0.000000e+000
5.689217e+002;0.000000e+000
5.708502e+002;0.000000e+000
5.727787e+002;0.000000e+000
5.747073e+002;0.000000e+000
5.766359e+002;0.000000e+000
5.785644e+002;0.000000e+000
5.804930e+002;0.000000e+000
5.824215e+002;0.000000e+000
5.843500e+002;0.000000e+000
5.862786e+002;0.000000e+000
5.882072e+002;0.000000e+000
5.901357e+002;0.000000e+000
5.920643e+002;0.000000e+000
5.939928e+002;0.000000e+000
5.959213e+002;0.000000e+000
5.978499e+002;0.000000e+000
5.997784e+002;1.476627e-001
6.017070e+002;1.442071e-001
6.036355e+002;1.510541e-001
6.055641e+002;1.550341e-001
6.074926e+002;1.543045e-001
6.094211e+002;1.515445e-001
6.113497e+002;1.478435e-001
6.132783e+002;1.464739e-001
6.152068e+002;1.505629e-001
6.171354e+002;1.539613e-001
6.190639e+002;1.522957e-001
6.209924e+002;1.523682e-001
6.229210e+002;1.529266e-001
6.248495e+002;1.490301e-001
6.267781e+002;1.427077e-001
6.287067e+002;1.424022e-001
6.306352e+002;1.479964e-001
6.325637e+002;1.494307e-001
6.344923e+002;1.442181e-001
6.364208e+002;1.396173e-001
6.383494e+002;1.402805e-001
6.402780e+002;1.411502e-001
6.422065e+002;1.429303e-001
6.441350e+002;1.422534e-001
6.460636e+002;1.366016e-001
6.479921e+002;1.328381e-001
6.499207e+002;1.349729e-001
6.518492e+002;1.385761e-001
6.537778e+002;1.364399e-001
6.557063e+002;1.367923e-001
6.576349e+002;1.394430e-001
6.595634e+002;1.410634e-001
6.614919e+002;1.452718e-001
6.634205e+002;1.454386e-001
6.653491e+002;1.442637e-001
6.672776e+002;1.465584e-001
6.692062e+002;1.483643e-001
6.711347e+002;1.450465e-001
6.730632e+002;1.403752e-001
6.749918e+002;1.359811e-001
6.769203e+002;1.338335e-001
6.788489e+002;1.315147e-001
6.807775e+002;1.282045e-001
6.827060e+002;1.258680e-001
6.846345e+002;1.231153e-001
6.865631e+002;1.214940e-001
6.884916e+002;1.219485e-001
6.904202e+002;1.212858e-001
6.923488e+002;1.205205e-001
6.942773e+002;1.201814e-001
6.962058e+002;1.202551e-001
6.981344e+002;1.194743e-001
7.000629e+002;1.177148e-001
7.019915e+002;1.162568e-001
7.039200e+002;1.168995e-001
7.058486e+002;1.175250e-001
7.077771e+002;1.158658e-001
7.097057e+002;1.142351e-001
7.116342e+002;1.147460e-001
7.135627e+002;1.147314e-001
7.154913e+002;1.131088e-001
7.174199e+002;1.119684e-001
7.193484e+002;1.108114e-001
7.212770e+002;1.093015e-001
7.232055e+002;1.085341e-001
7.251340e+002;1.080547e-001
7.270626e+002;1.058384e-001
7.289911e+002;1.036887e-001
7.309197e+002;1.040289e-001
7.328483e+002;1.044876e-001
7.347768e+002;1.018271e-001
7.367053e+002;9.846467e-002
7.386339e+002;9.848504e-002
7.405624e+002;9.821393e-002
7.424910e+002;9.666923e-002
7.444196e+002;9.511933e-002
7.463481e+002;9.377544e-002
7.482766e+002;9.407288e-002
7.502052e+002;9.500179e-002
7.521337e+002;9.430728e-002
7.540623e+002;9.325916e-002
7.559908e+002;9.253204e-002
7.579194e+002;9.063855e-002
7.598479e+002;8.864635e-002
7.617765e+002;8.714802e-002
7.637050e+002;8.567106e-002
7.656335e+002;8.454053e-002
7.675621e+002;8.377403e-002
7.694907e+002;8.228574e-002
7.714192e+002;8.099118e-002
7.733478e+002;8.131135e-002
7.752763e+002;8.145529e-002
7.772048e+002;7.996881e-002
7.791334e+002;7.894643e-002
7.810620e+002;7.863574e-002
7.829905e+002;7.789124e-002
7.849191e+002;7.685380e-002
7.868476e+002;7.556576e-002
7.887761e+002;7.469296e-002
7.907047e+002;7.508618e-002
7.926332e+002;7.555133e-002
7.945618e+002;7.509391e-002
7.964903e+002;7.425386e-002
7.984189e+002;7.391158e-002
8.003474e+002;7.418424e-002
8.022759e+002;7.371153e-002
8.042045e+002;7.302371e-002
8.061331e+002;7.315153e-002
8.080616e+002;7.265295e-002
8.099902e+002;7.232864e-002
8.119187e+002;7.225585e-002
8.138472e+002;7.184657e-002
8.157758e+002;7.010296e-002
8.177043e+002;6.866004e-002
8.196329e+002;6.850088e-002
8.215615e+002;6.815446e-002
8.234900e+002;6.705759e-002
8.254185e+002;6.647443e-002
8.273471e+002;6.716385e-002
8.292756e+002;6.660535e-002
8.312042e+002;6.507283e-002
8.331328e+002;6.503796e-002
8.350613e+002;6.581555e-002
8.369898e+002;6.596313e-002
8.389184e+002;6.524557e-002
8.408469e+002;6.433741e-002
8.427755e+002;6.364532e-002
8.447040e+002;6.300960e-002
8.466326e+002;6.285199e-002
8.485611e+002;6.284226e-002
8.504897e+002;6.227043e-002
8.524182e+002;6.186170e-002
8.543467e+002;6.212230e-002
8.562753e+002;6.240525e-002
8.582039e+002;6.226393e-002
8.601324e+002;6.247308e-002
8.620610e+002;6.415658e-002
8.639895e+002;6.603858e-002
8.659180e+002;6.708658e-002
8.678466e+002;6.805067e-002
8.697751e+002;6.983476e-002
8.717037e+002;7.185670e-002
8.736323e+002;7.392132e-002
8.755608e+002;7.627215e-002
8.774893e+002;7.854116e-002
8.794179e+002;8.100523e-002
8.813464e+002;8.354553e-002
8.832750e+002;8.663474e-002
8.852036e+002;8.984460e-002
8.871321e+002;9.216813e-002
8.890606e+002;9.454308e-002
8.909892e+002;9.704245e-002
8.929177e+002;1.001083e-001
8.948463e+002;1.025447e-001
8.967748e+002;1.035329e-001
8.987034e+002;1.038019e-001
9.006319e+002;1.032345e-001
9.025605e+002;1.020284e-001
9.044890e+002;1.007957e-001
9.064175e+002;9.956553e-002
9.083461e+002;9.766762e-002
9.102747e+002;9.502213e-002
9.122032e+002;9.269382e-002
9.141318e+002;9.083144e-002
9.160603e+002;8.904010e-002
9.179888e+002;8.807176e-002
9.199174e+002;8.806564e-002
9.218459e+002;8.801828e-002
9.237745e+002;8.770488e-002
9.257031e+002;8.820347e-002
9.276316e+002;8.981726e-002
9.295601e+002;9.098639e-002
9.314887e+002;9.179487e-002
9.334172e+002;9.314356e-002
9.353458e+002;9.437031e-002
9.372744e+002;9.554187e-002
9.392029e+002;9.709626e-002
9.411314e+002;9.869663e-002
9.430600e+002;1.004688e-001
9.449885e+002;1.021603e-001
9.469171e+002;1.041132e-001
9.488456e+002;1.064221e-001
9.507742e+002;1.095422e-001
9.527027e+002;1.124565e-001
9.546313e+002;1.155992e-001
9.565598e+002;1.194691e-001
9.584883e+002;1.237870e-001
9.604169e+002;1.280543e-001
9.623455e+002;1.322598e-001
9.642740e+002;1.364493e-001
9.662026e+002;1.414826e-001
9.681311e+002;1.467927e-001
9.700596e+002;1.527513e-001
9.719882e+002;1.601530e-001
9.739167e+002;1.684647e-001
9.758453e+002;1.774127e-001
9.777739e+002;1.872878e-001
9.797024e+002;1.985055e-001
9.816309e+002;2.107220e-001
9.835595e+002;2.226152e-001
9.854880e+002;2.329948e-001
9.874166e+002;2.414788e-001
9.893452e+002;2.475245e-001
9.912737e+002;2.529545e-001
9.932022e+002;2.577844e-001
9.951307e+002;2.608419e-001
9.970593e+002;2.633052e-001
9.989879e+002;2.657633e-001
1.000916e+003;2.685002e-001
1.002845e+003;2.718464e-001
1.004773e+003;2.746408e-001
1.006702e+003;2.772597e-001
1.008631e+003;2.803099e-001
1.010559e+003;2.838429e-001
1.012488e+003;2.874767e-001
1.014416e+003;2.907473e-001
1.016345e+003;2.933103e-001
1.018273e+003;2.961446e-001
1.020202e+003;2.995389e-001
1.022130e+003;3.020011e-001
1.024059e+003;3.029012e-001
1.025988e+003;3.037100e-001
1.027916e+003;3.043464e-001
1.029845e+003;3.044936e-001
1.031773e+003;3.039263e-001
1.033702e+003;3.032847e-001
1.035630e+003;3.024144e-001
1.037559e+003;3.004941e-001
1.039487e+003;2.977904e-001
1.041416e+003;2.956666e-001
1.043344e+003;2.938191e-001
1.045273e+003;2.922738e-001
1.047202e+003;2.909044e-001
1.049130e+003;2.898794e-001
1.051059e+003;2.893213e-001
1.052987e+003;2.884980e-001
1.054916e+003;2.867517e-001
1.056844e+003;2.842303e-001
1.058773e+003;2.813937e-001
1.060701e+003;2.773461e-001
1.062630e+003;2.721826e-001
1.064558e+003;2.664840e-001
1.066487e+003;2.602537e-001
1.068416e+003;2.538858e-001
1.070344e+003;2.475441e-001
1.072273e+003;2.415862e-001
1.074201e+003;2.362891e-001
1.076130e+003;2.313083e-001
1.078058e+003;2.268641e-001
1.079987e+003;2.228253e-001
1.081915e+003;2.191020e-001
1.083844e+003;2.154470e-001
1.085773e+003;2.125955e-001
1.087701e+003;2.099123e-001
1.089630e+003;2.076129e-001
1.091558e+003;2.055539e-001
1.093487e+003;2.028450e-001
1.095415e+003;2.005995e-001
1.097344e+003;1.983231e-001
1.099272e+003;1.955359e-001
1.101201e+003;1.935596e-001
1.103129e+003;1.918724e-001
1.105058e+003;1.895935e-001
1.106987e+003;1.868471e-001
1.108915e+003;1.835248e-001
1.110844e+003;1.806830e-001
1.112772e+003;1.771578e-001
1.114701e+003;1.727653e-001
1.116629e+003;1.684411e-001
1.118558e+003;1.637281e-001
1.120486e+003;1.591633e-001
1.122415e+003;1.549991e-001
1.124344e+003;1.507080e-001
1.126272e+003;1.462326e-001
1.128201e+003;1.416471e-001
1.130129e+003;1.377581e-001
1.132058e+003;1.342817e-001
1.133986e+003;1.306480e-001
1.135915e+003;1.272111e-001
1.137843e+003;1.238569e-001
1.139772e+003;1.215013e-001
1.141700e+003;1.196155e-001
1.143629e+003;1.181350e-001
1.145557e+003;1.175597e-001
1.147486e+003;1.177662e-001
1.149415e+003;1.178099e-001
1.151343e+003;1.170932e-001
1.153272e+003;1.165183e-001
1.155200e+003;1.161233e-001
1.157129e+003;1.149616e-001
1.159057e+003;1.138549e-001
1.160986e+003;1.124977e-001
1.162914e+003;1.102077e-001
1.164843e+003;1.074539e-001
1.166771e+003;1.041538e-001
1.168700e+003;1.001752e-001
1.170629e+003;9.555467e-002
1.172557e+003;9.102210e-002
1.174486e+003;8.706618e-002
1.176414e+003;8.406281e-002
1.178343e+003;8.097668e-002
1.180271e+003;7.776777e-002
1.182200e+003;7.518077e-002
1.184128e+003;7.377840e-002
1.186057e+003;7.332966e-002
1.187986e+003;7.334194e-002
1.189914e+003;7.392262e-002
1.191843e+003;7.544129e-002
1.193771e+003;7.764604e-002
1.195700e+003;7.956072e-002
1.197628e+003;8.077175e-002
1.199557e+003;8.181977e-002
1.201485e+003;8.228113e-002
1.203414e+003;8.199374e-002
1.205343e+003;8.123852e-002
1.207271e+003;7.977766e-002
1.209200e+003;7.761977e-002
1.211128e+003;7.584510e-002
1.213057e+003;7.434515e-002
1.214985e+003;7.343058e-002
1.216914e+003;7.304174e-002
1.218842e+003;7.334348e-002
1.220771e+003;7.447492e-002
1.222699e+003;7.602163e-002
1.224628e+003;7.767140e-002
1.226557e+003;7.943713e-002
1.228485e+003;8.100563e-002
1.230414e+003;8.208895e-002
1.232342e+003;8.299714e-002
1.234271e+003;8.332096e-002
1.236199e+003;8.350493e-002
1.238128e+003;8.411665e-002
1.240056e+003;8.429798e-002
1.241985e+003;8.443218e-002
1.243913e+003;8.505782e-002
1.245842e+003;8.530165e-002
1.247771e+003;8.564357e-002
1.249699e+003;8.614663e-002
1.251628e+003;8.656541e-002
1.253556e+003;8.719306e-002
1.255485e+003;8.735902e-002
1.257413e+003;8.722493e-002
1.259342e+003;8.730619e-002
1.261270e+003;8.724202e-002
1.263199e+003;8.712485e-002
1.265127e+003;8.712903e-002
1.267056e+003;8.691546e-002
1.268985e+003;8.672167e-002
1.270913e+003;8.617298e-002
1.272842e+003;8.556598e-002
1.274770e+003;8.550933e-002
1.276699e+003;8.542711e-002
1.278627e+003;8.509809e-002
1.280556e+003;8.472723e-002
1.282484e+003;8.405738e-002
1.284413e+003;8.351918e-002
1.286342e+003;8.351039e-002
1.288270e+003;8.403008e-002
1.290199e+003;8.474869e-002
1.292127e+003;8.580212e-002
1.294056e+003;8.667102e-002
1.295984e+003;8.749291e-002
1.297913e+003;8.910531e-002
1.299841e+003;9.118957e-002
1.301770e+003;9.325797e-002
1.303698e+003;9.484158e-002
1.305627e+003;9.644672e-002
1.307556e+003;9.867039e-002
1.309484e+003;1.008321e-001
1.311413e+003;1.027652e-001
1.313341e+003;1.044650e-001
1.315270e+003;1.057688e-001
1.317198e+003;1.065184e-001
1.319127e+003;1.068242e-001
1.321055e+003;1.067621e-001
1.322984e+003;1.065422e-001
1.324912e+003;1.060217e-001
1.326841e+003;1.055240e-001
1.328770e+003;1.055256e-001
1.330698e+003;1.058513e-001
1.332627e+003;1.060151e-001
1.334555e+003;1.061788e-001
1.336484e+003;1.063144e-001
1.338412e+003;1.063200e-001
1.340341e+003;1.060901e-001
1.342269e+003;1.054276e-001
1.344198e+003;1.048277e-001
1.346126e+003;1.044246e-001
1.348055e+003;1.041548e-001
1.349984e+003;1.039461e-001
1.351912e+003;1.040745e-001
1.353841e+003;1.043450e-001
1.355769e+003;1.047515e-001
1.357698e+003;1.054245e-001
1.359626e+003;1.059546e-001
1.361555e+003;1.060210e-001
1.363483e+003;1.056369e-001
1.365412e+003;1.052206e-001
1.367341e+003;1.047657e-001
1.369269e+003;1.042485e-001
1.371198e+003;1.036332e-001
1.373126e+003;1.025108e-001
1.375055e+003;1.010308e-001
1.376983e+003;9.923416e-002
1.378912e+003;9.774695e-002
1.380840e+003;9.660851e-002
1.382769e+003;9.497685e-002
1.384698e+003;9.297390e-002
1.386626e+003;9.119268e-002
1.388555e+003;8.974376e-002
1.390483e+003;8.866216e-002
1.392412e+003;8.794780e-002
1.394340e+003;8.774325e-002
1.396269e+003;8.762018e-002
1.398197e+003;8.728816e-002
1.400126e+003;8.728338e-002
1.402054e+003;8.744788e-002
1.403983e+003;8.742227e-002
1.405911e+003;8.721343e-002
1.407840e+003;8.738438e-002
1.409769e+003;8.776977e-002
1.411697e+003;8.768554e-002
1.413626e+003;8.747900e-002
1.415554e+003;8.749793e-002
1.417483e+003;8.771908e-002
1.419411e+003;8.805387e-002
1.421340e+003;8.834619e-002
1.423268e+003;8.851597e-002
1.425197e+003;8.865615e-002
1.427125e+003;8.821269e-002
1.429054e+003;8.794342e-002
1.430983e+003;8.786613e-002
1.432911e+003;8.721699e-002
1.434840e+003;8.589802e-002
1.436768e+003;8.465583e-002
1.438697e+003;8.383050e-002
1.440625e+003;8.270983e-002
1.442554e+003;8.141337e-002
1.444482e+003;8.025200e-002
1.446411e+003;7.896757e-002
1.448340e+003;7.772442e-002
1.450268e+003;7.710330e-002
1.452197e+003;7.665756e-002
1.454125e+003;7.558075e-002
1.456054e+003;7.409219e-002
1.457982e+003;7.291181e-002
1.459911e+003;7.191839e-002
1.461839e+003;7.054759e-002
1.463768e+003;6.888501e-002
1.465697e+003;6.704115e-002
1.467625e+003;6.533949e-002
1.469554e+003;6.364213e-002
1.471482e+003;6.155868e-002
1.473411e+003;5.959857e-002
1.475339e+003;5.751190e-002
1.477268e+003;5.537073e-002
1.479196e+003;5.320071e-002
1.481125e+003;5.104579e-002
1.483053e+003;4.886759e-002
1.484982e+003;4.641810e-002
1.486911e+003;4.397409e-002
1.488839e+003;4.175375e-002
1.490768e+003;4.001226e-002
1.492696e+003;3.844234e-002
1.494625e+003;3.647365e-002
1.496553e+003;3.494671e-002
1.498482e+003;3.416647e-002
1.500410e+003;3.338737e-002
1.502339e+003;3.272427e-002
1.504267e+003;3.195471e-002
1.506196e+003;3.076321e-002
1.508125e+003;3.006195e-002
1.510053e+003;2.973518e-002
1.511982e+003;2.930702e-002
1.513910e+003;2.901914e-002
1.515839e+003;2.838796e-002
1.517767e+003;2.784657e-002
1.519696e+003;2.732251e-002
1.521624e+003;2.662361e-002
1.523553e+003;2.637088e-002
1.525481e+003;2.613772e-002
1.527410e+003;2.591637e-002
1.529339e+003;2.612512e-002
1.531267e+003;2.639598e-002
1.533196e+003;2.598362e-002
1.535124e+003;2.567853e-002
1.537053e+003;2.523896e-002
1.538981e+003;2.471166e-002
1.540910e+003;2.466932e-002
1.542838e+003;2.504249e-002
1.544767e+003;2.563772e-002
1.546695e+003;2.585109e-002
1.548624e+003;2.584339e-002
1.550553e+003;2.574677e-002
1.552481e+003;2.566686e-002
1.554410e+003;2.592280e-002
1.556338e+003;2.601563e-002
1.558267e+003;2.560050e-002
1.560195e+003;2.555000e-002
1.562124e+003;2.621539e-002
1.564052e+003;2.653005e-002
1.565981e+003;2.682664e-002
1.567910e+003;2.737982e-002
1.569838e+003;2.764994e-002
1.571767e+003;2.804375e-002
1.573695e+003;2.843080e-002
1.575624e+003;2.862611e-002
1.577552e+003;2.919959e-002
1.579481e+003;2.988750e-002
1.581409e+003;3.054525e-002
1.583338e+003;3.073832e-002
1.585266e+003;3.078754e-002
1.587195e+003;3.117135e-002
1.589124e+003;3.175173e-002
1.591052e+003;3.237207e-002
1.592981e+003;3.332859e-002
1.594909e+003;3.423265e-002
1.596838e+003;3.474448e-002
1.598766e+003;3.513446e-002
1.600695e+003;3.563135e-002
1.602623e+003;3.605737e-002
1.604552e+003;3.633878e-002
1.606480e+003;3.688084e-002
1.608409e+003;3.727762e-002
1.610338e+003;3.744947e-002
1.612266e+003;3.774238e-002
1.614195e+003;3.786174e-002
1.616123e+003;3.764116e-002
1.618052e+003;3.777621e-002
1.619980e+003;3.813506e-002
1.621909e+003;3.817783e-002
1.623837e+003;3.811126e-002
1.625766e+003;3.843242e-002
1.627694e+003;3.857087e-002
1.629623e+003;3.851655e-002
1.631552e+003;3.860027e-002
1.633480e+003;3.808080e-002
1.635409e+003;3.754588e-002
1.637337e+003;3.772876e-002
1.639266e+003;3.765702e-002
1.641194e+003;3.750878e-002
1.643123e+003;3.726957e-002
1.645051e+003;3.658332e-002
1.646980e+003;3.582072e-002
1.648909e+003;3.538220e-002
1.650837e+003;3.490208e-002
1.652766e+003;3.407916e-002
1.654694e+003;3.381843e-002
1.656623e+003;3.373434e-002
1.658551e+003;3.305287e-002
1.660480e+003;3.225239e-002
1.662408e+003;3.137638e-002
1.664337e+003;3.064813e-002
1.666266e+003;3.017662e-002
1.668194e+003;2.946684e-002
1.670123e+003;2.853594e-002
1.672051e+003;2.754035e-002
1.673980e+003;2.675549e-002
1.675908e+003;2.610500e-002
1.677837e+003;2.553766e-002
1.679765e+003;2.479212e-002
1.681694e+003;2.382494e-002
1.683622e+003;2.265701e-002
1.685551e+003;2.196668e-002
1.687479e+003;2.148946e-002
1.689408e+003;2.079511e-002
1.691337e+003;2.012762e-002
1.693265e+003;1.920352e-002
1.695194e+003;1.825087e-002
1.697122e+003;1.812642e-002
1.699051e+003;1.797227e-002
1.700979e+003;1.766440e-002
1.702908e+003;1.754512e-002
1.704836e+003;1.693717e-002
1.706765e+003;1.646069e-002
1.708693e+003;1.615785e-002
1.710622e+003;1.594396e-002
1.712551e+003;1.557244e-002
1.714479e+003;1.527763e-002
1.716408e+003;1.506490e-002
1.718336e+003;1.482556e-002
1.720265e+003;1.453815e-002
1.722193e+003;1.417936e-002
1.724122e+003;1.410851e-002
1.726050e+003;1.419590e-002
1.727979e+003;1.405963e-002
1.729908e+003;1.379157e-002
1.731836e+003;1.350661e-002
1.733765e+003;1.304979e-002
1.735693e+003;1.294382e-002
1.737622e+003;1.275781e-002
1.739550e+003;1.219472e-002
1.741479e+003;1.208995e-002
1.743407e+003;1.199831e-002
1.745336e+003;1.159088e-002
1.747265e+003;1.139569e-002
1.749193e+003;1.109636e-002
1.751122e+003;1.072588e-002
1.753050e+003;1.065286e-002
1.754979e+003;1.070631e-002
1.756907e+003;1.071300e-002
1.758836e+003;1.061551e-002
1.760764e+003;1.044466e-002
1.762693e+003;1.012797e-002
1.764621e+003;9.714936e-003
1.766550e+003;9.639381e-003
1.768479e+003;9.602897e-003
1.770407e+003;9.127554e-003
1.772336e+003;8.754856e-003
1.774264e+003;8.838303e-003
1.776193e+003;8.796341e-003
1.778121e+003;8.639685e-003
1.780050e+003;8.623630e-003
1.781978e+003;8.419264e-003
1.783907e+003;8.318334e-003
1.785835e+003;8.341841e-003
1.787764e+003;8.178528e-003
1.789693e+003;8.091865e-003
1.791621e+003;7.919738e-003
1.793550e+003;8.194364e-003
1.795478e+003;8.679874e-003
1.797407e+003;8.342956e-003
1.799335e+003;7.801549e-003
1.801264e+003;7.720088e-003
1.803192e+003;7.850804e-003
1.805121e+003;7.823174e-003
1.807049e+003;7.646162e-003
1.808978e+003;7.670004e-003
1.810907e+003;7.677558e-003
1.812835e+003;7.642520e-003
1.814764e+003;7.641541e-003
1.816692e+003;7.765657e-003
1.818621e+003;7.497538e-003
1.820549e+003;7.175481e-003
1.822478e+003;7.182050e-003
1.824406e+003;7.059246e-003
1.826335e+003;7.042037e-003
1.828264e+003;7.000417e-003
1.830192e+003;7.098414e-003
1.832121e+003;7.391597e-003
1.834049e+003;7.402955e-003
1.835978e+003;7.328139e-003
1.837906e+003;7.493257e-003
1.839835e+003;7.331003e-003
1.841763e+003;7.094710e-003
1.843692e+003;7.044866e-003
1.845620e+003;6.930855e-003
1.847549e+003;6.933750e-003
1.849478e+003;6.981695e-003
1.851406e+003;6.813709e-003
1.853335e+003;6.798933e-003
1.855263e+003;6.734351e-003
1.857192e+003;6.623920e-003
1.859120e+003;6.546648e-003
1.861049e+003;6.550281e-003
1.862977e+003;6.519705e-003
1.864906e+003;6.349275e-003
1.866834e+003;6.481834e-003
1.868763e+003;6.767937e-003
1.870692e+003;6.698008e-003
1.872620e+003;6.601043e-003
1.874549e+003;6.545336e-003
1.876477e+003;6.505881e-003
1.878406e+003;6.425738e-003
1.880334e+003;6.399779e-003
1.882263e+003;6.441443e-003
1.884191e+003;6.532419e-003
1.886120e+003;6.695686e-003
1.888048e+003;6.766052e-003
1.889977e+003;6.668869e-003
1.891906e+003;6.582540e-003
1.893834e+003;6.349948e-003
1.895763e+003;6.367062e-003
1.897691e+003;6.510085e-003
1.899620e+003;6.341845e-003
1.901548e+003;6.367533e-003
1.903477e+003;6.746230e-003
1.905405e+003;6.753903e-003
1.907334e+003;6.555999e-003
1.909262e+003;6.419585e-003
1.911191e+003;6.580152e-003
1.913120e+003;6.846830e-003
1.915048e+003;6.873288e-003
1.916977e+003;6.887089e-003
1.918905e+003;6.813372e-003
1.920834e+003;6.757268e-003
1.922762e+003;6.850667e-003
1.924691e+003;6.882613e-003
1.926619e+003;6.750066e-003
1.928548e+003;6.574198e-003
1.930477e+003;6.812834e-003
1.932405e+003;6.945635e-003
1.934334e+003;6.856726e-003
1.936262e+003;6.896078e-003
1.938191e+003;6.918095e-003
1.940119e+003;7.014929e-003
1.942048e+003;7.086963e-003
1.943976e+003;7.203374e-003
1.945905e+003;7.126404e-003
1.947833e+003;7.155337e-003
1.949762e+003;7.759855e-003
1.951691e+003;7.914508e-003
1.953619e+003;7.585971e-003
1.955548e+003;7.418830e-003
1.957476e+003;7.481189e-003
1.959405e+003;7.743462e-003
1.961333e+003;7.765758e-003
1.963262e+003;7.698670e-003
1.965190e+003;7.777834e-003
1.967119e+003;7.883633e-003
1.969047e+003;7.819496e-003
1.970976e+003;7.720121e-003
1.972905e+003;7.666328e-003
1.974833e+003;7.656818e-003
1.976762e+003;7.997626e-003
1.978690e+003;8.108643e-003
1.980619e+003;8.094161e-003
1.982547e+003;8.068574e-003
1.984476e+003;8.152058e-003
1.986404e+003;8.160364e-003
1.988333e+003;8.035123e-003
1.990261e+003;8.159959e-003
1.992190e+003;8.328365e-003
1.994119e+003;8.286012e-003
1.996047e+003;8.294793e-003
1.997976e+003;8.360690e-003
1.999904e+003;8.369911e-003
2.001833e+003;8.502040e-003
2.003761e+003;8.738932e-003
2.005690e+003;9.073992e-003
2.007618e+003;9.248846e-003
2.009547e+003;9.314142e-003
2.011476e+003;9.415034e-003
2.013404e+003;9.298537e-003
2.015333e+003;9.387371e-003
2.017261e+003;9.381412e-003
2.019190e+003;8.988300e-003
2.021118e+003;8.957045e-003
2.023047e+003;9.188873e-003
2.024975e+003;9.412934e-003
2.026904e+003;9.559607e-003
2.028833e+003;9.608554e-003
2.030761e+003;9.602965e-003
2.032690e+003;9.647716e-003
2.034618e+003;9.838255e-003
2.036547e+003;1.014245e-002
2.038475e+003;1.041204e-002
2.040404e+003;1.047826e-002
2.042332e+003;1.037854e-002
2.044261e+003;1.031492e-002
2.046189e+003;1.001237e-002
2.048118e+003;9.903572e-003
2.050047e+003;1.000843e-002
2.051975e+003;1.008802e-002
2.053904e+003;1.032411e-002
2.055832e+003;1.042422e-002
2.057761e+003;1.028360e-002
2.059689e+003;1.030562e-002
2.061618e+003;1.049146e-002
2.063546e+003;1.057266e-002
2.065475e+003;1.036052e-002
2.067404e+003;1.023227e-002
2.069332e+003;1.034994e-002
2.071260e+003;1.055919e-002
2.073189e+003;1.074327e-002
2.075118e+003;1.047310e-002
2.077046e+003;1.025063e-002
2.078975e+003;1.021582e-002
2.080903e+003;1.015320e-002
2.082832e+003;1.030528e-002
2.084760e+003;1.045378e-002
2.086689e+003;1.066393e-002
2.088617e+003;1.077774e-002
2.090546e+003;1.065843e-002
2.092475e+003;1.061819e-002
2.094403e+003;1.079798e-002
2.096332e+003;1.068129e-002
2.098260e+003;1.053858e-002
2.100189e+003;1.085033e-002
2.102117e+003;1.096898e-002
2.104046e+003;1.080226e-002
2.105974e+003;1.087544e-002
2.107903e+003;1.089246e-002
2.109832e+003;1.080084e-002
2.111760e+003;1.077200e-002
2.113688e+003;1.078891e-002
2.115617e+003;1.102951e-002
2.117546e+003;1.118893e-002
2.119474e+003;1.087721e-002
2.121403e+003;1.072540e-002
2.123331e+003;1.089392e-002
2.125260e+003;1.073481e-002
2.127188e+003;1.058332e-002
2.129117e+003;1.066152e-002
2.131045e+003;1.093225e-002
2.132974e+003;1.113032e-002
2.134903e+003;1.113776e-002
2.136831e+003;1.102461e-002
2.138760e+003;1.089630e-002
2.140688e+003;1.099039e-002
2.142617e+003;1.112318e-002
2.144545e+003;1.106339e-002
2.146474e+003;1.098325e-002
2.148402e+003;1.086178e-002
2.150331e+003;1.088448e-002
2.152260e+003;1.080308e-002
2.154188e+003;1.068689e-002
2.156117e+003;1.057029e-002
2.158045e+003;1.068828e-002
2.159974e+003;1.059202e-002
2.161902e+003;1.025147e-002
2.163831e+003;1.027577e-002
2.165759e+003;1.030159e-002
2.167688e+003;1.025215e-002
2.169616e+003;1.032690e-002
2.171545e+003;1.020785e-002
2.173474e+003;1.019041e-002
2.175402e+003;1.034094e-002
2.177331e+003;1.030573e-002
2.179259e+003;1.008924e-002
2.181188e+003;9.770779e-003
2.183116e+003;9.357814e-003
2.185045e+003;9.223596e-003
2.186973e+003;9.316579e-003
2.188902e+003;9.389775e-003
2.190831e+003;9.627558e-003
2.192759e+003;9.643718e-003
2.194688e+003;9.011709e-003
2.196616e+003;8.768143e-003
2.198545e+003;9.015126e-003
2.200473e+003;9.067463e-003
2.202402e+003;9.100180e-003
2.204330e+003;9.117031e-003
2.206259e+003;9.028218e-003
2.208188e+003;8.999801e-003
2.210116e+003;9.025308e-003
2.212044e+003;9.259813e-003
2.213973e+003;9.297622e-003
2.215902e+003;8.858593e-003
2.217830e+003;8.584797e-003
2.219759e+003;8.757899e-003
2.221687e+003;9.126674e-003
2.223616e+003;9.124273e-003
2.225544e+003;8.916728e-003
2.227473e+003;8.883010e-003
2.229401e+003;8.931610e-003
2.231330e+003;9.034646e-003
2.233259e+003;9.008191e-003
2.235187e+003;9.011033e-003
2.237116e+003;9.109383e-003
2.239044e+003;9.065907e-003
2.240973e+003;9.037589e-003
2.242901e+003;9.001290e-003
2.244830e+003;8.942434e-003
2.246758e+003;8.989789e-003
2.248687e+003;8.899446e-003
2.250615e+003;8.883787e-003
2.252544e+003;8.929885e-003
2.254473e+003;8.990736e-003
2.256401e+003;8.954779e-003
2.258330e+003;8.672033e-003
2.260258e+003;8.690285e-003
2.262187e+003;8.979776e-003
2.264115e+003;8.963134e-003
2.266044e+003;8.776055e-003
2.267972e+003;8.699514e-003
2.269901e+003;8.773992e-003
2.271830e+003;8.717667e-003
2.273758e+003;8.473388e-003
2.275687e+003;8.464536e-003
2.277615e+003;8.441832e-003
2.279544e+003;8.325764e-003
2.281472e+003;8.566379e-003
2.283401e+003;8.863497e-003
2.285329e+003;8.947439e-003
2.287258e+003;8.848483e-003
2.289187e+003;8.592840e-003
2.291115e+003;8.515758e-003
2.293043e+003;8.684911e-003
2.294972e+003;8.647121e-003
2.296901e+003;8.517414e-003
2.298829e+003;8.558235e-003
2.300758e+003;8.601864e-003
2.302686e+003;8.406157e-003
2.304615e+003;8.406090e-003
2.306543e+003;8.723178e-003
2.308472e+003;8.739710e-003
2.310400e+003;8.461123e-003
2.312329e+003;8.452001e-003
2.314258e+003;8.480010e-003
2.316186e+003;8.526369e-003
2.318115e+003;8.765168e-003
2.320043e+003;8.896673e-003
2.321972e+003;8.790526e-003
2.323900e+003;8.529241e-003
2.325829e+003;8.708642e-003
2.327757e+003;8.923628e-003
2.329686e+003;8.828869e-003
2.331615e+003;8.763579e-003
2.333543e+003;8.865289e-003
2.335472e+003;8.966212e-003
2.337400e+003;8.785995e-003
2.339329e+003;8.754145e-003
2.341257e+003;8.681328e-003
2.343186e+003;8.687041e-003
2.345114e+003;8.995810e-003
2.347043e+003;9.256766e-003
2.348971e+003;9.178822e-003
2.350900e+003;9.105289e-003
2.352829e+003;9.098928e-003
2.354757e+003;9.110805e-003
2.356686e+003;9.165590e-003
2.358614e+003;9.128705e-003
2.360543e+003;9.005654e-003
2.362471e+003;8.839386e-003
2.364400e+003;9.132630e-003
2.366328e+003;9.480999e-003
2.368257e+003;9.481980e-003
2.370186e+003;9.464235e-003
2.372114e+003;9.697858e-003
2.374042e+003;9.915335e-003
2.375971e+003;1.007354e-002
2.377900e+003;1.015181e-002
2.379828e+003;9.993921e-003
2.381757e+003;1.015341e-002
2.383685e+003;1.046746e-002
2.385614e+003;1.035954e-002
2.387542e+003;1.015724e-002
2.389471e+003;1.021229e-002
2.391399e+003;1.043855e-002
2.393328e+003;1.075444e-002
2.395257e+003;1.086497e-002
2.397185e+003;1.082665e-002
2.399114e+003;1.073236e-002
2.401042e+003;1.054340e-002
2.402971e+003;1.085169e-002
2.404899e+003;1.126659e-002
2.406828e+003;1.140610e-002
2.408756e+003;1.137454e-002
2.410685e+003;1.124360e-002
2.412614e+003;1.138086e-002
2.414542e+003;1.139671e-002
2.416471e+003;1.110258e-002
2.418399e+003;1.126132e-002
2.420328e+003;1.158758e-002
2.422256e+003;1.132733e-002
2.424185e+003;1.136858e-002
2.426113e+003;1.181884e-002
2.428042e+003;1.185881e-002
2.429970e+003;1.196149e-002
2.431899e+003;1.236078e-002
2.433828e+003;1.247551e-002
2.435756e+003;1.241792e-002
2.437685e+003;1.258761e-002
2.439613e+003;1.297925e-002
2.441542e+003;1.330861e-002
2.443470e+003;1.332990e-002
2.445399e+003;1.327004e-002
2.447327e+003;1.327134e-002
2.449256e+003;1.355450e-002
2.451185e+003;1.365266e-002
2.453113e+003;1.367994e-002
2.455042e+003;1.390613e-002
2.456970e+003;1.399666e-002
2.458899e+003;1.389638e-002
2.460827e+003;1.384866e-002
2.462756e+003;1.389049e-002
2.464684e+003;1.372269e-002
2.466613e+003;1.379092e-002
2.468542e+003;1.394736e-002
2.470470e+003;1.402045e-002
2.472398e+003;1.449371e-002
2.474327e+003;1.505811e-002
2.476256e+003;1.518021e-002
2.478184e+003;1.513341e-002
2.480113e+003;1.511979e-002
2.482041e+003;1.523776e-002
2.483970e+003;1.536025e-002
2.485898e+003;1.526439e-002
2.487827e+003;1.525588e-002
2.489755e+003;1.519308e-002
2.491684e+003;1.514950e-002
2.493613e+003;1.549555e-002
2.495541e+003;1.600188e-002
2.497470e+003;1.626894e-002
2.499398e+003;1.638454e-002
2.501327e+003;1.649301e-002
2.503255e+003;1.653107e-002
2.505184e+003;1.672872e-002
2.507112e+003;1.674484e-002
2.509041e+003;1.658608e-002
2.510969e+003;1.688288e-002
2.512898e+003;1.730493e-002
2.514827e+003;1.764052e-002
2.516755e+003;1.773029e-002
2.518684e+003;1.775476e-002
2.520612e+003;1.794153e-002
2.522541e+003;1.799195e-002
2.524469e+003;1.785642e-002
2.526398e+003;1.795251e-002
2.528326e+003;1.796236e-002
2.530255e+003;1.811543e-002
2.532184e+003;1.836762e-002
2.534112e+003;1.841615e-002
2.536041e+003;1.848488e-002
2.537969e+003;1.875423e-002
2.539898e+003;1.884049e-002
2.541826e+003;1.882654e-002
2.543755e+003;1.896266e-002
2.545683e+003;1.901620e-002
2.547612e+003;1.887952e-002
2.549541e+003;1.884983e-002
2.551469e+003;1.902808e-002
2.553397e+003;1.919133e-002
2.555326e+003;1.927761e-002
2.557255e+003;1.957106e-002
2.559183e+003;1.992277e-002
2.561112e+003;2.008577e-002
2.563040e+003;2.008726e-002
2.564969e+003;1.981941e-002
2.566897e+003;1.955795e-002
2.568826e+003;1.942786e-002
2.570754e+003;1.939931e-002
2.572683e+003;1.988170e-002
2.574612e+003;2.017521e-002
2.576540e+003;2.029740e-002
2.578469e+003;2.032126e-002
2.580397e+003;2.022776e-002
2.582326e+003;2.023116e-002
2.584254e+003;2.043547e-002
2.586183e+003;2.070715e-002
2.588111e+003;2.097844e-002
2.590040e+003;2.107373e-002
2.591969e+003;2.113018e-002
2.593897e+003;2.137347e-002
2.595826e+003;2.163574e-002
2.597754e+003;2.171435e-002
2.599683e+003;2.162613e-002
2.601611e+003;2.158006e-002
2.603540e+003;2.185210e-002
2.605468e+003;2.202454e-002
2.607397e+003;2.190462e-002
2.609325e+003;2.206432e-002
2.611254e+003;2.257079e-002
2.613183e+003;2.295638e-002
2.615111e+003;2.326582e-002
2.617040e+003;2.372779e-002
2.618968e+003;2.384069e-002
2.620897e+003;2.356838e-002
2.622825e+003;2.362124e-002
2.624754e+003;2.396876e-002
2.626682e+003;2.414194e-002
2.628611e+003;2.415181e-002
2.630540e+003;2.433029e-002
2.632468e+003;2.468139e-002
2.634396e+003;2.506833e-002
2.636325e+003;2.522228e-002
2.638254e+003;2.537808e-002
2.640182e+003;2.570300e-002
2.642111e+003;2.585039e-002
2.644039e+003;2.617932e-002
2.645968e+003;2.666747e-002
2.647896e+003;2.676747e-002
2.649825e+003;2.675101e-002
2.651753e+003;2.704896e-002
2.653682e+003;2.746946e-002
2.655611e+003;2.769631e-002
2.657539e+003;2.763324e-002
2.659468e+003;2.791660e-002
2.661396e+003;2.855926e-002
2.663325e+003;2.866048e-002
2.665253e+003;2.877818e-002
2.667182e+003;2.911316e-002
2.669110e+003;2.915689e-002
2.671039e+003;2.920122e-002
2.672968e+003;2.952727e-002
2.674896e+003;2.998171e-002
2.676825e+003;3.034160e-002
2.678753e+003;3.063508e-002
2.680682e+003;3.072879e-002
2.682610e+003;3.094538e-002
2.684539e+003;3.108987e-002
2.686467e+003;3.113098e-002
2.688396e+003;3.172036e-002
2.690324e+003;3.227327e-002
2.692253e+003;3.251532e-002
2.694182e+003;3.253382e-002
2.696110e+003;3.262553e-002
2.698039e+003;3.274364e-002
2.699967e+003;3.301108e-002
2.701896e+003;3.357248e-002
2.703824e+003;3.385733e-002
2.705753e+003;3.410253e-002
2.707681e+003;3.439397e-002
2.709610e+003;3.456544e-002
2.711539e+003;3.464532e-002
2.713467e+003;3.462210e-002
2.715396e+003;3.501513e-002
2.717324e+003;3.557215e-002
2.719253e+003;3.549520e-002
2.721181e+003;3.514057e-002
2.723110e+003;3.559596e-002
2.725038e+003;3.609607e-002
2.726967e+003;3.626930e-002
2.728896e+003;3.678469e-002
2.730824e+003;3.700361e-002
2.732752e+003;3.689498e-002
2.734681e+003;3.713002e-002
2.736610e+003;3.756272e-002
2.738538e+003;3.773960e-002
2.740467e+003;3.769973e-002
2.742395e+003;3.771170e-002
2.744324e+003;3.784229e-002
2.746252e+003;3.804449e-002
2.748181e+003;3.833863e-002
2.750109e+003;3.853201e-002
2.752038e+003;3.878815e-002
2.753967e+003;3.891918e-002
2.755895e+003;3.891653e-002
2.757824e+003;3.902857e-002
2.759752e+003;3.917069e-002
2.761681e+003;3.941422e-002
2.763609e+003;3.978543e-002
2.765538e+003;3.989602e-002
2.767466e+003;4.001978e-002
2.769395e+003;4.016157e-002
2.771323e+003;4.044151e-002
2.773252e+003;4.094091e-002
2.775181e+003;4.154074e-002
2.777109e+003;4.196395e-002
2.779038e+003;4.205023e-002
2.780966e+003;4.238670e-002
2.782895e+003;4.269169e-002
2.784823e+003;4.297799e-002
2.786752e+003;4.330881e-002
2.788680e+003;4.371729e-002
2.790609e+003;4.421769e-002
2.792538e+003;4.432753e-002
2.794466e+003;4.436342e-002
2.796395e+003;4.455830e-002
2.798323e+003;4.502640e-002
2.800252e+003;4.553003e-002
2.802180e+003;4.602117e-002
2.804109e+003;4.635217e-002
2.806037e+003;4.685004e-002
2.807966e+003;4.746740e-002
2.809895e+003;4.792444e-002
2.811823e+003;4.853296e-002
2.813751e+003;4.903600e-002
2.815680e+003;4.948575e-002
2.817609e+003;5.022175e-002
2.819537e+003;5.096523e-002
2.821466e+003;5.185934e-002
2.823394e+003;5.252223e-002
2.825323e+003;5.263757e-002
2.827251e+003;5.269420e-002
2.829180e+003;5.313304e-002
2.831108e+003;5.407489e-002
2.833037e+003;5.512663e-002
2.834966e+003;5.648743e-002
2.836894e+003;5.735616e-002
2.838823e+003;5.790153e-002
2.840751e+003;5.914389e-002
2.842680e+003;6.050501e-002
2.844608e+003;6.149649e-002
2.846537e+003;6.268238e-002
2.848465e+003;6.413089e-002
2.850394e+003;6.564016e-002
2.852323e+003;6.722791e-002
2.854251e+003;6.882090e-002
2.856180e+003;7.064781e-002
2.858108e+003;7.198765e-002
2.860037e+003;7.320984e-002
2.861965e+003;7.512660e-002
2.863894e+003;7.661507e-002
2.865822e+003;7.780348e-002
2.867751e+003;7.889815e-002
2.869679e+003;8.002179e-002
2.871608e+003;8.087241e-002
2.873536e+003;8.183325e-002
2.875465e+003;8.251838e-002
2.877394e+003;8.308110e-002
2.879322e+003;8.365141e-002
2.881251e+003;8.395586e-002
2.883179e+003;8.416725e-002
2.885108e+003;8.440433e-002
2.887036e+003;8.512928e-002
2.888965e+003;8.560786e-002
2.890893e+003;8.582901e-002
2.892822e+003;8.600544e-002
2.894750e+003;8.595871e-002
2.896679e+003;8.567166e-002
2.898608e+003;8.561629e-002
2.900536e+003;8.568793e-002
2.902465e+003;8.524056e-002
2.904393e+003;8.470105e-002
2.906322e+003;8.453211e-002
2.908250e+003;8.433041e-002
2.910179e+003;8.355059e-002
2.912107e+003;8.232655e-002
2.914036e+003;8.098551e-002
2.915965e+003;8.003598e-002
2.917893e+003;7.972077e-002
2.919822e+003;7.941023e-002
2.921750e+003;7.871310e-002
2.923679e+003;7.780697e-002
2.925607e+003;7.692934e-002
2.927536e+003;7.661977e-002
2.929464e+003;7.626295e-002
2.931393e+003;7.522328e-002
2.933322e+003;7.422759e-002
2.935250e+003;7.366230e-002
2.937178e+003;7.331154e-002
2.939107e+003;7.255649e-002
2.941036e+003;7.130837e-002
2.942964e+003;7.024737e-002
2.944893e+003;6.942351e-002
2.946821e+003;6.832793e-002
2.948750e+003;6.694976e-002
2.950678e+003;6.546772e-002
2.952607e+003;6.410132e-002
2.954535e+003;6.334921e-002
2.956464e+003;6.227965e-002
2.958393e+003;6.076621e-002
2.960321e+003;5.920251e-002
2.962250e+003;5.808034e-002
2.964178e+003;5.756040e-002
2.966107e+003;5.700322e-002
2.968035e+003;5.609074e-002
2.969964e+003;5.487523e-002
2.971892e+003;5.371583e-002
2.973821e+003;5.284240e-002
2.975750e+003;5.188596e-002
2.977678e+003;5.075439e-002
2.979607e+003;4.999570e-002
2.981535e+003;4.927767e-002
2.983464e+003;4.833296e-002
2.985392e+003;4.766437e-002
2.987321e+003;4.708949e-002
2.989249e+003;4.650630e-002
2.991178e+003;4.587502e-002
2.993106e+003;4.546288e-002
2.995035e+003;4.493610e-002
2.996964e+003;4.478319e-002
2.998892e+003;4.490943e-002
3.000821e+003;4.454001e-002
3.002749e+003;4.411780e-002
3.004678e+003;4.394088e-002
3.006606e+003;4.361577e-002
3.008535e+003;4.368391e-002
3.010463e+003;4.433686e-002
3.012392e+003;4.451211e-002
3.014321e+003;4.415830e-002
3.016249e+003;4.424425e-002
3.018177e+003;4.422477e-002
3.020106e+003;4.435509e-002
3.022035e+003;4.486695e-002
3.023963e+003;4.521634e-002
3.025892e+003;4.556690e-002
3.027820e+003;4.597247e-002
3.029749e+003;4.592673e-002
3.031677e+003;4.602051e-002
3.033606e+003;4.669542e-002
3.035534e+003;4.752939e-002
3.037463e+003;4.757679e-002
3.039392e+003;4.749642e-002
3.041320e+003;4.780377e-002
3.043249e+003;4.842826e-002
3.045177e+003;4.901627e-002
3.047106e+003;4.959200e-002
3.049034e+003;5.004537e-002
3.050963e+003;5.021138e-002
3.052891e+003;5.069332e-002
3.054820e+003;5.167468e-002
3.056749e+003;5.219348e-002
3.058677e+003;5.234278e-002
3.060606e+003;5.267161e-002
3.062534e+003;5.305186e-002
3.064463e+003;5.353199e-002
3.066391e+003;5.429576e-002
3.068320e+003;5.526171e-002
3.070248e+003;5.600927e-002
3.072177e+003;5.649513e-002
3.074105e+003;5.684842e-002
3.076034e+003;5.740328e-002
3.077963e+003;5.805849e-002
3.079891e+003;5.889424e-002
3.081820e+003;5.925302e-002
3.083748e+003;5.947794e-002
3.085677e+003;5.995446e-002
3.087605e+003;6.048520e-002
3.089534e+003;6.133870e-002
3.091462e+003;6.198447e-002
3.093391e+003;6.253859e-002
3.095320e+003;6.356560e-002
3.097248e+003;6.423022e-002
3.099177e+003;6.448049e-002
3.101105e+003;6.485980e-002
3.103034e+003;6.574361e-002
3.104962e+003;6.708315e-002
3.106891e+003;6.780290e-002
3.108819e+003;6.786367e-002
3.110748e+003;6.818501e-002
3.112677e+003;6.880087e-002
3.114605e+003;6.935284e-002
3.116533e+003;6.993159e-002
3.118462e+003;7.015541e-002
3.120391e+003;7.071543e-002
3.122319e+003;7.165509e-002
3.124248e+003;7.245743e-002
3.126176e+003;7.309781e-002
3.128105e+003;7.391111e-002
3.130033e+003;7.499859e-002
3.131962e+003;7.588792e-002
3.133890e+003;7.613382e-002
3.135819e+003;7.661317e-002
3.137748e+003;7.729233e-002
3.139676e+003;7.777728e-002
3.141605e+003;7.836424e-002
3.143533e+003;7.862140e-002
3.145462e+003;7.896638e-002
3.147390e+003;7.994404e-002
3.149319e+003;8.118087e-002
3.151247e+003;8.207731e-002
3.153176e+003;8.275726e-002
3.155104e+003;8.299128e-002
3.157033e+003;8.325706e-002
3.158962e+003;8.405388e-002
3.160890e+003;8.514871e-002
3.162819e+003;8.578703e-002
3.164747e+003;8.632077e-002
3.166676e+003;8.736465e-002
3.168604e+003;8.831695e-002
3.170533e+003;8.853710e-002
3.172461e+003;8.907761e-002
3.174390e+003;9.022847e-002
3.176319e+003;9.092494e-002
3.178247e+003;9.106769e-002
3.180176e+003;9.140426e-002
3.182104e+003;9.211348e-002
3.184033e+003;9.257661e-002
3.185961e+003;9.255381e-002
3.187890e+003;9.310920e-002
3.189818e+003;9.400006e-002
3.191747e+003;9.486253e-002
3.193676e+003;9.591299e-002
3.195604e+003;9.664179e-002
3.197532e+003;9.705160e-002
3.199461e+003;9.772978e-002
3.201390e+003;9.838849e-002
3.203318e+003;9.920826e-002
3.205247e+003;1.001487e-001
3.207175e+003;1.012998e-001
3.209104e+003;1.023070e-001
3.211032e+003;1.024344e-001
3.212961e+003;1.025582e-001
3.214889e+003;1.032903e-001
3.216818e+003;1.040038e-001
3.218747e+003;1.046038e-001
3.220675e+003;1.054240e-001
3.222604e+003;1.063345e-001
3.224532e+003;1.064095e-001
3.226461e+003;1.064268e-001
3.228389e+003;1.075110e-001
3.230318e+003;1.085049e-001
3.232246e+003;1.088181e-001
3.234175e+003;1.091419e-001
3.236104e+003;1.102691e-001
3.238032e+003;1.110539e-001
3.239961e+003;1.110111e-001
3.241889e+003;1.117167e-001
3.243818e+003;1.121952e-001
3.245746e+003;1.121469e-001
3.247675e+003;1.130575e-001
3.249603e+003;1.140416e-001
3.251532e+003;1.146551e-001
3.253460e+003;1.157819e-001
3.255389e+003;1.163517e-001
3.257318e+003;1.166873e-001
3.259246e+003;1.174067e-001
3.261175e+003;1.178394e-001
3.263103e+003;1.182929e-001
3.265032e+003;1.187984e-001
3.266960e+003;1.193539e-001
3.268889e+003;1.199029e-001
3.270817e+003;1.198337e-001
3.272746e+003;1.198258e-001
3.274675e+003;1.201956e-001
3.276603e+003;1.208822e-001
3.278531e+003;1.212476e-001
3.280460e+003;1.215452e-001
3.282389e+003;1.221121e-001
3.284317e+003;1.223970e-001
3.286246e+003;1.223267e-001
3.288174e+003;1.226248e-001
3.290103e+003;1.234684e-001
3.292031e+003;1.239765e-001
3.293960e+003;1.241525e-001
3.295888e+003;1.238028e-001
3.297817e+003;1.238006e-001
3.299746e+003;1.244016e-001
3.301674e+003;1.248484e-001
3.303603e+003;1.249247e-001
3.305531e+003;1.248862e-001
3.307460e+003;1.251369e-001
3.309388e+003;1.251876e-001
3.311317e+003;1.250037e-001
3.313245e+003;1.256166e-001
3.315174e+003;1.262673e-001
3.317103e+003;1.261342e-001
3.319031e+003;1.258436e-001
3.320960e+003;1.253464e-001
3.322888e+003;1.254220e-001
3.324817e+003;1.259249e-001
3.326745e+003;1.261594e-001
3.328674e+003;1.262756e-001
3.330602e+003;1.262122e-001
3.332531e+003;1.262490e-001
3.334459e+003;1.262480e-001
3.336388e+003;1.258920e-001
3.338317e+003;1.252928e-001
3.340245e+003;1.249982e-001
3.342174e+003;1.250793e-001
3.344102e+003;1.253247e-001
3.346031e+003;1.251280e-001
3.347959e+003;1.244857e-001
3.349888e+003;1.242674e-001
3.351816e+003;1.240958e-001
3.353745e+003;1.236112e-001
3.355674e+003;1.231481e-001
3.357602e+003;1.233681e-001
3.359531e+003;1.234368e-001
3.361459e+003;1.225811e-001
3.363388e+003;1.218790e-001
3.365316e+003;1.211304e-001
3.367245e+003;1.206169e-001
3.369173e+003;1.209331e-001
3.371102e+003;1.211295e-001
3.373031e+003;1.206884e-001
3.374959e+003;1.200788e-001
3.376887e+003;1.196120e-001
3.378816e+003;1.193835e-001
3.380745e+003;1.192437e-001
3.382673e+003;1.189314e-001
3.384602e+003;1.183622e-001
3.386530e+003;1.183672e-001
3.388459e+003;1.182100e-001
3.390387e+003;1.175282e-001
3.392316e+003;1.167153e-001
3.394244e+003;1.164778e-001
3.396173e+003;1.162480e-001
3.398102e+003;1.157539e-001
3.400030e+003;1.158217e-001
3.401959e+003;1.155515e-001
3.403887e+003;1.145970e-001
3.405816e+003;1.135800e-001
3.407744e+003;1.133072e-001
3.409673e+003;1.129547e-001
3.411601e+003;1.120972e-001
3.413530e+003;1.118239e-001
3.415458e+003;1.113056e-001
3.417387e+003;1.100301e-001
3.419316e+003;1.093512e-001
3.421244e+003;1.092085e-001
3.423173e+003;1.089899e-001
3.425101e+003;1.081213e-001
3.427030e+003;1.071442e-001
3.428958e+003;1.069040e-001
3.430887e+003;1.067568e-001
3.432815e+003;1.058977e-001
3.434744e+003;1.048153e-001
3.436673e+003;1.040154e-001
3.438601e+003;1.032925e-001
3.440530e+003;1.025802e-001
3.442458e+003;1.022653e-001
3.444387e+003;1.013617e-001
3.446315e+003;1.003760e-001
3.448244e+003;1.000721e-001
3.450172e+003;9.962912e-002
3.452101e+003;9.874342e-002
3.454030e+003;9.793992e-002
3.455958e+003;9.711218e-002
3.457886e+003;9.639194e-002
3.459815e+003;9.585436e-002
3.461744e+003;9.464291e-002
3.463672e+003;9.324384e-002
3.465601e+003;9.255553e-002
3.467529e+003;9.252822e-002
3.469458e+003;9.217272e-002
3.471386e+003;9.100302e-002
3.473315e+003;8.982366e-002
3.475243e+003;8.929712e-002
3.477172e+003;8.836540e-002
3.479101e+003;8.720152e-002
3.481029e+003;8.645680e-002
3.482958e+003;8.541876e-002
3.484886e+003;8.463953e-002
3.486815e+003;8.442960e-002
3.488743e+003;8.394782e-002
3.490672e+003;8.287089e-002
3.492600e+003;8.180401e-002
3.494529e+003;8.104512e-002
3.496458e+003;8.045872e-002
3.498386e+003;7.971212e-002
3.500315e+003;7.853000e-002
3.502243e+003;7.714580e-002
3.504172e+003;7.578454e-002
3.506100e+003;7.459853e-002
3.508029e+003;7.388393e-002
3.509957e+003;7.282563e-002
3.511886e+003;7.185150e-002
3.513814e+003;7.121069e-002
3.515743e+003;7.015429e-002
3.517672e+003;6.905197e-002
3.519600e+003;6.825778e-002
3.521529e+003;6.785477e-002
3.523457e+003;6.727522e-002
3.525386e+003;6.623802e-002
3.527314e+003;6.510978e-002
3.529243e+003;6.377584e-002
3.531171e+003;6.310836e-002
3.533100e+003;6.221751e-002
3.535029e+003;6.081229e-002
3.536957e+003;5.980994e-002
3.538885e+003;5.870247e-002
3.540814e+003;5.765680e-002
3.542743e+003;5.687671e-002
3.544671e+003;5.604851e-002
3.546600e+003;5.540149e-002
3.548528e+003;5.429813e-002
3.550457e+003;5.306339e-002
3.552385e+003;5.171775e-002
3.554314e+003;5.092607e-002
3.556242e+003;5.033243e-002
3.558171e+003;4.913380e-002
3.560100e+003;4.779948e-002
3.562028e+003;4.632814e-002
3.563957e+003;4.545505e-002
3.565885e+003;4.536510e-002
3.567814e+003;4.495058e-002
3.569742e+003;4.389406e-002
3.571671e+003;4.260674e-002
3.573599e+003;4.152834e-002
3.575528e+003;4.049109e-002
3.577457e+003;3.929639e-002
3.579385e+003;3.802138e-002
3.581314e+003;3.691717e-002
3.583242e+003;3.615059e-002
3.585171e+003;3.508312e-002
3.587099e+003;3.366134e-002
3.589028e+003;3.291342e-002
3.590956e+003;3.246929e-002
3.592885e+003;3.138325e-002
3.594813e+003;3.017414e-002
3.596742e+003;2.940997e-002
3.598671e+003;2.802855e-002
3.600599e+003;2.674055e-002
3.602528e+003;2.613276e-002
3.604456e+003;2.559182e-002
3.606385e+003;2.494777e-002
3.608313e+003;2.372796e-002
3.610242e+003;2.278137e-002
3.612170e+003;2.160652e-002
3.614099e+003;2.047892e-002
3.616028e+003;1.998546e-002
3.617956e+003;1.916983e-002
3.619885e+003;1.816456e-002
3.621813e+003;1.741749e-002
3.623742e+003;1.696473e-002
3.625670e+003;1.672917e-002
3.627599e+003;1.621927e-002
3.629527e+003;1.512425e-002
3.631456e+003;1.411361e-002
3.633385e+003;1.341276e-002
3.635313e+003;1.337080e-002
3.637241e+003;1.359915e-002
3.639170e+003;1.332747e-002
3.641099e+003;1.238110e-002
3.643027e+003;1.172147e-002
3.644956e+003;1.145896e-002
3.646884e+003;1.035815e-002
3.648813e+003;9.050445e-003
3.650741e+003;8.820280e-003
3.652670e+003;9.031804e-003
3.654598e+003;8.738053e-003
3.656527e+003;7.826851e-003
3.658456e+003;7.246598e-003
3.660384e+003;7.295218e-003
3.662313e+003;7.268128e-003
3.664241e+003;6.853966e-003
3.666170e+003;6.331759e-003
3.668098e+003;5.907606e-003
3.670027e+003;5.427800e-003
3.671955e+003;5.115522e-003
3.673884e+003;5.035065e-003
3.675813e+003;5.301601e-003
3.677741e+003;5.420989e-003
3.679669e+003;4.924361e-003
3.681598e+003;4.586827e-003
3.683527e+003;4.792947e-003
3.685455e+003;4.994172e-003
3.687384e+003;4.386460e-003
3.689312e+003;3.628114e-003
3.691241e+003;3.724753e-003
3.693169e+003;4.422342e-003
3.695098e+003;4.697378e-003
3.697026e+003;3.989081e-003
3.698955e+003;3.200251e-003
3.700884e+003;3.227322e-003
3.702812e+003;3.581607e-003
3.704741e+003;3.272556e-003
3.706669e+003;3.360300e-003
3.708598e+003;3.553412e-003
3.710526e+003;2.986443e-003
3.712455e+003;2.933434e-003
3.714383e+003;3.620564e-003
3.716312e+003;3.807340e-003
3.718240e+003;3.427121e-003
3.720169e+003;3.270519e-003
3.722098e+003;3.285175e-003
3.724026e+003;3.468067e-003
3.725955e+003;3.130394e-003
3.727883e+003;2.665613e-003
3.729812e+003;2.633743e-003
3.731740e+003;2.427778e-003
3.733669e+003;2.164831e-003
3.735597e+003;1.990609e-003
3.737526e+003;2.200363e-003
3.739455e+003;2.321168e-003
3.741383e+003;2.151545e-003
3.743312e+003;1.915589e-003
3.745240e+003;2.099802e-003
3.747169e+003;2.456667e-003
3.749097e+003;2.514918e-003
3.751026e+003;2.447171e-003
3.752954e+003;2.431443e-003
3.754883e+003;2.770141e-003
3.756812e+003;2.776343e-003
3.758740e+003;2.721791e-003
3.760668e+003;2.722025e-003
3.762597e+003;2.489524e-003
3.764526e+003;2.341255e-003
3.766454e+003;2.549845e-003
3.768383e+003;2.405854e-003
3.770311e+003;2.463698e-003
3.772240e+003;2.951114e-003
3.774168e+003;3.269418e-003
3.776097e+003;2.883232e-003
3.778025e+003;2.730927e-003
3.779954e+003;2.994784e-003
3.781883e+003;2.938170e-003
3.783811e+003;2.659179e-003
3.785740e+003;2.597842e-003
3.787668e+003;2.671781e-003
3.789597e+003;2.861785e-003
3.791525e+003;3.134232e-003
3.793454e+003;2.886300e-003
3.795382e+003;2.476561e-003
3.797311e+003;1.987014e-003
3.799240e+003;2.442972e-003
3.801168e+003;2.743431e-003
3.803097e+003;2.469763e-003
3.805025e+003;2.633177e-003
3.806954e+003;3.089313e-003
3.808882e+003;3.299999e-003
3.810811e+003;3.229125e-003
3.812739e+003;3.173281e-003
3.814668e+003;2.452302e-003
3.816596e+003;2.310975e-003
3.818525e+003;3.173448e-003
3.820454e+003;3.409655e-003
3.822382e+003;3.036991e-003
3.824311e+003;2.786047e-003
3.826239e+003;3.200985e-003
3.828168e+003;3.610373e-003
3.830096e+003;3.496357e-003
3.832025e+003;3.368614e-003
3.833953e+003;3.129426e-003
3.835882e+003;2.688284e-003
3.837811e+003;2.344453e-003
3.839739e+003;2.362110e-003
3.841667e+003;2.667847e-003
3.843596e+003;3.005260e-003
3.845525e+003;3.423681e-003
3.847453e+003;3.445490e-003
3.849382e+003;3.476551e-003
3.851310e+003;2.956618e-003
3.853239e+003;2.189907e-003
3.855167e+003;2.437141e-003
3.857096e+003;3.104363e-003
3.859024e+003;3.461287e-003
3.860953e+003;2.866755e-003
3.862882e+003;2.653312e-003
3.864810e+003;3.046801e-003
3.866739e+003;3.350650e-003
3.868667e+003;3.680574e-003
3.870596e+003;4.011787e-003
3.872524e+003;4.242829e-003
3.874453e+003;4.083592e-003
3.876381e+003;4.060447e-003
3.878310e+003;4.481460e-003
3.880239e+003;4.445305e-003
3.882167e+003;4.214456e-003
3.884096e+003;3.899705e-003
3.886024e+003;3.673223e-003
3.887953e+003;4.306975e-003
3.889881e+003;4.435363e-003
3.891810e+003;4.102323e-003
3.893738e+003;4.429405e-003
3.895667e+003;4.489762e-003
3.897595e+003;4.322771e-003
3.899524e+003;3.975237e-003
3.901453e+003;4.030715e-003
3.903381e+003;4.404970e-003
3.905310e+003;4.295162e-003
3.907238e+003;4.475534e-003
3.909167e+003;4.753484e-003
3.911095e+003;4.718680e-003
3.913024e+003;5.199346e-003
3.914952e+003;5.522390e-003
3.916881e+003;4.629490e-003
3.918810e+003;3.673591e-003
3.920738e+003;4.198966e-003
3.922667e+003;4.623663e-003
3.924595e+003;4.648713e-003
3.926524e+003;4.914710e-003
3.928452e+003;5.128865e-003
3.930381e+003;4.933812e-003
3.932309e+003;4.743703e-003
3.934238e+003;5.531048e-003
3.936167e+003;6.099368e-003
3.938095e+003;5.749302e-003
3.940023e+003;5.551251e-003
3.941952e+003;5.527659e-003
3.943881e+003;5.397907e-003
3.945809e+003;5.572495e-003
3.947738e+003;6.055854e-003
3.949666e+003;6.745826e-003
3.951595e+003;6.833231e-003
3.953523e+003;6.227144e-003
3.955452e+003;5.953456e-003
3.957380e+003;5.817264e-003
3.959309e+003;5.635764e-003
3.961238e+003;6.189432e-003
3.963166e+003;6.401494e-003
3.965095e+003;5.676415e-003
3.967023e+003;5.408543e-003
3.968952e+003;6.150682e-003
3.970880e+003;6.201263e-003
3.972809e+003;5.556889e-003
3.974737e+003;5.427263e-003
3.976666e+003;5.619316e-003
3.978594e+003;5.825492e-003
3.980523e+003;5.949324e-003
3.982452e+003;5.974249e-003
3.984380e+003;5.827507e-003
3.986309e+003;5.560245e-003
3.988237e+003;5.891081e-003
3.990166e+003;6.361178e-003
3.992094e+003;6.154278e-003
3.994023e+003;6.161234e-003
3.995951e+003;6.384580e-003
3.997880e+003;6.337037e-003
3.999809e+003;6.555764e-003
4.001737e+003;0.000000e+000
