3.992094e+002;0.000000e+000
4.011380e+002;0.000000e+000
4.030665e+002;0.000000e+000
4.049951e+002;0.000000e+000
4.069236e+002;0.000000e+000
4.088522e+002;0.000000e+000
4.107807e+002;0.000000e+000
4.127093e+002;0.000000e+000
4.146378e+002;0.000000e+000
4.165664e+002;0.000000e+000
4.184949e+002;0.000000e+000
4.204235e+002;0.000000e+000
4.223520e+002;0.000000e+000
4.242806e+002;0.000000e+000
4.262091e+002;0.000000e+000
4.281377e+002;0.000000e+000
4.300662e+002;0.000000e+000
4.319948e+002;0.000000e+000
4.339233e+002;0.000000e+000
4.358519e+002;0.000000e+000
4.377804e+002;0.000000e+000
4.397090e+002;0.000000e+000
4.416375e+002;0.000000e+000
4.435660e+002;0.000000e+000
4.454946e+002;0.000000e+000
4.474232e+002;0.000000e+000
4.493517e+002;0.000000e+000
4.512802e+002;0.000000e+000
4.532088e+002;0.000000e+000
4.551373e+002;0.000000e+000
4.570659e+002;0.000000e+000
4.589944e+002;0.000000e+000
4.609230e+002;0.000000e+000
4.628515e+002;0.000000e+000
4.647801e+002;0.000000e+000
4.667086e+002;0.000000e+000
4.686372e+002;0.000000e+000
4.705657e+002;0.000000e+000
4.724943e+002;0.000000e+000
4.744228e+002;0.000000e+000
4.763513e+002;0.000000e+000
4.782799e+002;0.000000e+000
4.802085e+002;0.000000e+000
4.821370e+002;0.000000e+000
4.840656e+002;0.000000e+000
4.859941e+002;0.000000e+000
4.879226e+002;0.000000e+000
4.898512e+002;0.000000e+000
4.917798e+002;0.000000e+000
4.937083e+002;0.000000e+000
4.956368e+002;0.000000e+000
4.975654e+002;0.000000e+000
4.994939e+002;0.000000e+000
5.014225e+002;0.000000e+000
5.033510e+002;0.000000e+000
5.052796e+002;0.000000e+000
5.072081e+002;0.000000e+000
5.091367e+002;0.000000e+000
5.110652e+002;0.000000e+000
5.129938e+002;0.000000e+000
5.149223e+002;0.000000e+000
5.168509e+002;0.000000e+000
5.187794e+002;0.000000e+000
5.207079e+002;0.000000e+000
5.226365e+002;0.000000e+000
5.245651e+002;0.000000e+000
5.264936e+002;0.000000e+000
5.284222e+002;0.000000e+000
5.303507e+002;0.000000e+000
5.322792e+002;0.000000e+000
5.342078e+002;0.000000e+000
5.361364e+002;0.000000e+000
5.380649e+002;0.000000e+000
5.399935e+002;0.000000e+000
5.419220e+002;0.000000e+000
5.438505e+002;0.000000e+000
5.457791e+002;0.000000e+000
5.477076e+002;0.000000e+000
5.496362e+002;0.000000e+000
5.515648e+002;0.000000e+000
5.534933e+002;0.000000e+000
5.554218e+002;0.000000e+000
5.573504e+002;0.000000e+000
5.592789e+002;0.000000e+000
5.612075e+002;0.000000e+000
5.631360e+002;0.000000e+000
5.650646e+002;0.000000e+000
5.669931e+002;0.000000e+000
5.689217e+002;0.000000e+000
5.708502e+002;0.000000e+000
5.727787e+002;0.000000e+000
5.747073e+002;0.000000e+000
5.766359e+002;0.000000e+000
5.785644e+002;0.000000e+000
5.804930e+002;0.000000e+000
5.824215e+002;0.000000e+000
5.843500e+002;0.000000e+000
5.862786e+002;0.000000e+000
5.882072e+002;0.000000e+000
5.901357e+002;0.000000e+000
5.920643e+002;0.000000e+000
5.939928e+002;0.000000e+000
5.959213e+002;0.000000e+000
5.978499e+002;0.000000e+000
5.997784e+002;2.176554e-001
6.017070e+002;2.064832e-001
6.036355e+002;2.078548e-001
6.055641e+002;2.160816e-001
6.074926e+002;2.168914e-001
6.094211e+002;2.185124e-001
6.113497e+002;2.212944e-001
6.132783e+002;2.179061e-001
6.152068e+002;2.136963e-001
6.171354e+002;2.100316e-001
6.190639e+002;2.054273e-001
6.209924e+002;2.059231e-001
6.229210e+002;2.089393e-001
6.248495e+002;2.032740e-001
6.267781e+002;1.983310e-001
6.287067e+002;1.988322e-001
6.306352e+002;2.011366e-001
6.325637e+002;2.006965e-001
6.344923e+002;1.977706e-001
6.364208e+002;1.952482e-001
6.383494e+002;1.953986e-001
6.402780e+002;1.962192e-001
6.422065e+002;1.927599e-001
6.441350e+002;1.913284e-001
6.460636e+002;1.908332e-001
6.479921e+002;1.897603e-001
6.499207e+002;1.913873e-001
6.518492e+002;1.919805e-001
6.537778e+002;1.895161e-001
6.557063e+002;1.905341e-001
6.576349e+002;1.954667e-001
6.595634e+002;1.970248e-001
6.614919e+002;1.952667e-001
6.634205e+002;1.954336e-001
6.653491e+002;1.952504e-001
6.672776e+002;1.932813e-001
6.692062e+002;1.915746e-001
6.711347e+002;1.888569e-001
6.730632e+002;1.844949e-001
6.749918e+002;1.829792e-001
6.769203e+002;1.780393e-001
6.788489e+002;1.718111e-001
6.807775e+002;1.691240e-001
6.827060e+002;1.682192e-001
6.846345e+002;1.669906e-001
6.865631e+002;1.660149e-001
6.884916e+002;1.649614e-001
6.904202e+002;1.649340e-001
6.923488e+002;1.628387e-001
6.942773e+002;1.608004e-001
6.962058e+002;1.613787e-001
6.981344e+002;1.609840e-001
7.000629e+002;1.597950e-001
7.019915e+002;1.584826e-001
7.039200e+002;1.583527e-001
7.058486e+002;1.594201e-001
7.077771e+002;1.584661e-001
7.097057e+002;1.562415e-001
7.116342e+002;1.547152e-001
7.135627e+002;1.540548e-001
7.154913e+002;1.532463e-001
7.174199e+002;1.513951e-001
7.193484e+002;1.488060e-001
7.212770e+002;1.465359e-001
7.232055e+002;1.453012e-001
7.251340e+002;1.431868e-001
7.270626e+002;1.406912e-001
7.289911e+002;1.391461e-001
7.309197e+002;1.388134e-001
7.328483e+002;1.380512e-001
7.347768e+002;1.352798e-001
7.367053e+002;1.331805e-001
7.386339e+002;1.324652e-001
7.405624e+002;1.309157e-001
7.424910e+002;1.293197e-001
7.444196e+002;1.296303e-001
7.463481e+002;1.294016e-001
7.482766e+002;1.279403e-001
7.502052e+002;1.268981e-001
7.521337e+002;1.255080e-001
7.540623e+002;1.241851e-001
7.559908e+002;1.227628e-001
7.579194e+002;1.227667e-001
7.598479e+002;1.222304e-001
7.617765e+002;1.210921e-001
7.637050e+002;1.201162e-001
7.656335e+002;1.189583e-001
7.675621e+002;1.181130e-001
7.694907e+002;1.173591e-001
7.714192e+002;1.172642e-001
7.733478e+002;1.179790e-001
7.752763e+002;1.175974e-001
7.772048e+002;1.169183e-001
7.791334e+002;1.163223e-001
7.810620e+002;1.155543e-001
7.829905e+002;1.146448e-001
7.849191e+002;1.140693e-001
7.868476e+002;1.146518e-001
7.887761e+002;1.150912e-001
7.907047e+002;1.149802e-001
7.926332e+002;1.146703e-001
7.945618e+002;1.140712e-001
7.964903e+002;1.137503e-001
7.984189e+002;1.134862e-001
8.003474e+002;1.127648e-001
8.022759e+002;1.131254e-001
8.042045e+002;1.140814e-001
8.061331e+002;1.138473e-001
8.080616e+002;1.127530e-001
8.099902e+002;1.123582e-001
8.119187e+002;1.130066e-001
8.138472e+002;1.134255e-001
8.157758e+002;1.134261e-001
8.177043e+002;1.130135e-001
8.196329e+002;1.122254e-001
8.215615e+002;1.121008e-001
8.234900e+002;1.134556e-001
8.254185e+002;1.143855e-001
8.273471e+002;1.138868e-001
8.292756e+002;1.139026e-001
8.312042e+002;1.152757e-001
8.331328e+002;1.157991e-001
8.350613e+002;1.153556e-001
8.369898e+002;1.148827e-001
8.389184e+002;1.137682e-001
8.408469e+002;1.129155e-001
8.427755e+002;1.141289e-001
8.447040e+002;1.153088e-001
8.466326e+002;1.149870e-001
8.485611e+002;1.144060e-001
8.504897e+002;1.143641e-001
8.524182e+002;1.144905e-001
8.543467e+002;1.146679e-001
8.562753e+002;1.150482e-001
8.582039e+002;1.152804e-001
8.601324e+002;1.158229e-001
8.620610e+002;1.169949e-001
8.639895e+002;1.186494e-001
8.659180e+002;1.204163e-001
8.678466e+002;1.225422e-001
8.697751e+002;1.253878e-001
8.717037e+002;1.287445e-001
8.736323e+002;1.314450e-001
8.755608e+002;1.322470e-001
8.774893e+002;1.333072e-001
8.794179e+002;1.346336e-001
8.813464e+002;1.359546e-001
8.832750e+002;1.378260e-001
8.852036e+002;1.404029e-001
8.871321e+002;1.434529e-001
8.890606e+002;1.461935e-001
8.909892e+002;1.492990e-001
8.929177e+002;1.522835e-001
8.948463e+002;1.535482e-001
8.967748e+002;1.536262e-001
8.987034e+002;1.532177e-001
9.006319e+002;1.515596e-001
9.025605e+002;1.488987e-001
9.044890e+002;1.467348e-001
9.064175e+002;1.449335e-001
9.083461e+002;1.429187e-001
9.102747e+002;1.409041e-001
9.122032e+002;1.399729e-001
9.141318e+002;1.405504e-001
9.160603e+002;1.406020e-001
9.179888e+002;1.403595e-001
9.199174e+002;1.410325e-001
9.218459e+002;1.422257e-001
9.237745e+002;1.429747e-001
9.257031e+002;1.442709e-001
9.276316e+002;1.463735e-001
9.295601e+002;1.478676e-001
9.314887e+002;1.489489e-001
9.334172e+002;1.505988e-001
9.353458e+002;1.528401e-001
9.372744e+002;1.548498e-001
9.392029e+002;1.571043e-001
9.411314e+002;1.600610e-001
9.430600e+002;1.634085e-001
9.449885e+002;1.670455e-001
9.469171e+002;1.703216e-001
9.488456e+002;1.743309e-001
9.507742e+002;1.792050e-001
9.527027e+002;1.844223e-001
9.546313e+002;1.897067e-001
9.565598e+002;1.948587e-001
9.584883e+002;2.000559e-001
9.604169e+002;2.056194e-001
9.623455e+002;2.113989e-001
9.642740e+002;2.167589e-001
9.662026e+002;2.211194e-001
9.681311e+002;2.261372e-001
9.700596e+002;2.324079e-001
9.719882e+002;2.395077e-001
9.739167e+002;2.470186e-001
9.758453e+002;2.554604e-001
9.777739e+002;2.650862e-001
9.797024e+002;2.742708e-001
9.816309e+002;2.829451e-001
9.835595e+002;2.912961e-001
9.854880e+002;2.975733e-001
9.874166e+002;3.015771e-001
9.893452e+002;3.043969e-001
9.912737e+002;3.068297e-001
9.932022e+002;3.099751e-001
9.951307e+002;3.130236e-001
9.970593e+002;3.165801e-001
9.989879e+002;3.206915e-001
1.000916e+003;3.241904e-001
1.002845e+003;3.272940e-001
1.004773e+003;3.297567e-001
1.006702e+003;3.322599e-001
1.008631e+003;3.351340e-001
1.010559e+003;3.384776e-001
1.012488e+003;3.427381e-001
1.014416e+003;3.470476e-001
1.016345e+003;3.521275e-001
1.018273e+003;3.578083e-001
1.020202e+003;3.624285e-001
1.022130e+003;3.667178e-001
1.024059e+003;3.711380e-001
1.025988e+003;3.744698e-001
1.027916e+003;3.756880e-001
1.029845e+003;3.761407e-001
1.031773e+003;3.754953e-001
1.033702e+003;3.731331e-001
1.035630e+003;3.692579e-001
1.037559e+003;3.648198e-001
1.039487e+003;3.608626e-001
1.041416e+003;3.584732e-001
1.043344e+003;3.566246e-001
1.045273e+003;3.557956e-001
1.047202e+003;3.560636e-001
1.049130e+003;3.555656e-001
1.051059e+003;3.543648e-001
1.052987e+003;3.514726e-001
1.054916e+003;3.462716e-001
1.056844e+003;3.391203e-001
1.058773e+003;3.305789e-001
1.060701e+003;3.212248e-001
1.062630e+003;3.105914e-001
1.064558e+003;2.996706e-001
1.066487e+003;2.886734e-001
1.068416e+003;2.789605e-001
1.070344e+003;2.721880e-001
1.072273e+003;2.665784e-001
1.074201e+003;2.613756e-001
1.076130e+003;2.568638e-001
1.078058e+003;2.523670e-001
1.079987e+003;2.490513e-001
1.081915e+003;2.470818e-001
1.083844e+003;2.450874e-001
1.085773e+003;2.442939e-001
1.087701e+003;2.454348e-001
1.089630e+003;2.462240e-001
1.091558e+003;2.455168e-001
1.093487e+003;2.444815e-001
1.095415e+003;2.440641e-001
1.097344e+003;2.446061e-001
1.099272e+003;2.457839e-001
1.101201e+003;2.461399e-001
1.103129e+003;2.452064e-001
1.105058e+003;2.429383e-001
1.106987e+003;2.386556e-001
1.108915e+003;2.334171e-001
1.110844e+003;2.283168e-001
1.112772e+003;2.219989e-001
1.114701e+003;2.147166e-001
1.116629e+003;2.076958e-001
1.118558e+003;2.013765e-001
1.120486e+003;1.956294e-001
1.122415e+003;1.900671e-001
1.124344e+003;1.848882e-001
1.126272e+003;1.793590e-001
1.128201e+003;1.725125e-001
1.130129e+003;1.658108e-001
1.132058e+003;1.601494e-001
1.133986e+003;1.550132e-001
1.135915e+003;1.508592e-001
1.137843e+003;1.479958e-001
1.139772e+003;1.464341e-001
1.141700e+003;1.459810e-001
1.143629e+003;1.467178e-001
1.145557e+003;1.478986e-001
1.147486e+003;1.483063e-001
1.149415e+003;1.489972e-001
1.151343e+003;1.496016e-001
1.153272e+003;1.491208e-001
1.155200e+003;1.479461e-001
1.157129e+003;1.471459e-001
1.159057e+003;1.455629e-001
1.160986e+003;1.424831e-001
1.162914e+003;1.390082e-001
1.164843e+003;1.343793e-001
1.166771e+003;1.284712e-001
1.168700e+003;1.227590e-001
1.170629e+003;1.174719e-001
1.172557e+003;1.120407e-001
1.174486e+003;1.070298e-001
1.176414e+003;1.036323e-001
1.178343e+003;1.009209e-001
1.180271e+003;9.915571e-002
1.182200e+003;9.837727e-002
1.184128e+003;9.778456e-002
1.186057e+003;9.788745e-002
1.187986e+003;9.889214e-002
1.189914e+003;1.005313e-001
1.191843e+003;1.023678e-001
1.193771e+003;1.046009e-001
1.195700e+003;1.070359e-001
1.197628e+003;1.090705e-001
1.199557e+003;1.107216e-001
1.201485e+003;1.118501e-001
1.203414e+003;1.123775e-001
1.205343e+003;1.122815e-001
1.207271e+003;1.116247e-001
1.209200e+003;1.111996e-001
1.211128e+003;1.106906e-001
1.213057e+003;1.101996e-001
1.214985e+003;1.104270e-001
1.216914e+003;1.116835e-001
1.218842e+003;1.133061e-001
1.220771e+003;1.145895e-001
1.222699e+003;1.161131e-001
1.224628e+003;1.179801e-001
1.226557e+003;1.193498e-001
1.228485e+003;1.205267e-001
1.230414e+003;1.215376e-001
1.232342e+003;1.220719e-001
1.234271e+003;1.223160e-001
1.236199e+003;1.222306e-001
1.238128e+003;1.220979e-001
1.240056e+003;1.220421e-001
1.241985e+003;1.220808e-001
1.243913e+003;1.221267e-001
1.245842e+003;1.219522e-001
1.247771e+003;1.216051e-001
1.249699e+003;1.207182e-001
1.251628e+003;1.200930e-001
1.253556e+003;1.197735e-001
1.255485e+003;1.196445e-001
1.257413e+003;1.199993e-001
1.259342e+003;1.201606e-001
1.261270e+003;1.198478e-001
1.263199e+003;1.195557e-001
1.265127e+003;1.190440e-001
1.267056e+003;1.182011e-001
1.268985e+003;1.175666e-001
1.270913e+003;1.172590e-001
1.272842e+003;1.167637e-001
1.274770e+003;1.157668e-001
1.276699e+003;1.148024e-001
1.278627e+003;1.139647e-001
1.280556e+003;1.131682e-001
1.282484e+003;1.127250e-001
1.284413e+003;1.121510e-001
1.286342e+003;1.117899e-001
1.288270e+003;1.117639e-001
1.290199e+003;1.123013e-001
1.292127e+003;1.131881e-001
1.294056e+003;1.139125e-001
1.295984e+003;1.151878e-001
1.297913e+003;1.173191e-001
1.299841e+003;1.197808e-001
1.301770e+003;1.224616e-001
1.303698e+003;1.254440e-001
1.305627e+003;1.287415e-001
1.307556e+003;1.318513e-001
1.309484e+003;1.345343e-001
1.311413e+003;1.371513e-001
1.313341e+003;1.388524e-001
1.315270e+003;1.395325e-001
1.317198e+003;1.395945e-001
1.319127e+003;1.393456e-001
1.321055e+003;1.385406e-001
1.322984e+003;1.373630e-001
1.324912e+003;1.363246e-001
1.326841e+003;1.358900e-001
1.328770e+003;1.355446e-001
1.330698e+003;1.350410e-001
1.332627e+003;1.344802e-001
1.334555e+003;1.333287e-001
1.336484e+003;1.317869e-001
1.338412e+003;1.300952e-001
1.340341e+003;1.282015e-001
1.342269e+003;1.262334e-001
1.344198e+003;1.245275e-001
1.346126e+003;1.230017e-001
1.348055e+003;1.221585e-001
1.349984e+003;1.219766e-001
1.351912e+003;1.220691e-001
1.353841e+003;1.222598e-001
1.355769e+003;1.225056e-001
1.357698e+003;1.229920e-001
1.359626e+003;1.236162e-001
1.361555e+003;1.238526e-001
1.363483e+003;1.238292e-001
1.365412e+003;1.239461e-001
1.367341e+003;1.237470e-001
1.369269e+003;1.231418e-001
1.371198e+003;1.216411e-001
1.373126e+003;1.199077e-001
1.375055e+003;1.182763e-001
1.376983e+003;1.162859e-001
1.378912e+003;1.141943e-001
1.380840e+003;1.124978e-001
1.382769e+003;1.109365e-001
1.384698e+003;1.092354e-001
1.386626e+003;1.077143e-001
1.388555e+003;1.067742e-001
1.390483e+003;1.062440e-001
1.392412e+003;1.059746e-001
1.394340e+003;1.059147e-001
1.396269e+003;1.062542e-001
1.398197e+003;1.069511e-001
1.400126e+003;1.077448e-001
1.402054e+003;1.085119e-001
1.403983e+003;1.093694e-001
1.405911e+003;1.103955e-001
1.407840e+003;1.115156e-001
1.409769e+003;1.128627e-001
1.411697e+003;1.143698e-001
1.413626e+003;1.158235e-001
1.415554e+003;1.175802e-001
1.417483e+003;1.190017e-001
1.419411e+003;1.196106e-001
1.421340e+003;1.200024e-001
1.423268e+003;1.197731e-001
1.425197e+003;1.188487e-001
1.427125e+003;1.170844e-001
1.429054e+003;1.146816e-001
1.430983e+003;1.123786e-001
1.432911e+003;1.104261e-001
1.434840e+003;1.081666e-001
1.436768e+003;1.063106e-001
1.438697e+003;1.057876e-001
1.440625e+003;1.055218e-001
1.442554e+003;1.053661e-001
1.444482e+003;1.057257e-001
1.446411e+003;1.061327e-001
1.448340e+003;1.069155e-001
1.450268e+003;1.078920e-001
1.452197e+003;1.084806e-001
1.454125e+003;1.085895e-001
1.456054e+003;1.074281e-001
1.457982e+003;1.065345e-001
1.459911e+003;1.064112e-001
1.461839e+003;1.056033e-001
1.463768e+003;1.037037e-001
1.465697e+003;1.011445e-001
1.467625e+003;9.834991e-002
1.469554e+003;9.505458e-002
1.471482e+003;9.159042e-002
1.473411e+003;8.822280e-002
1.475339e+003;8.518524e-002
1.477268e+003;8.265961e-002
1.479196e+003;8.072331e-002
1.481125e+003;7.918799e-002
1.483053e+003;7.801927e-002
1.484982e+003;7.670445e-002
1.486911e+003;7.549136e-002
1.488839e+003;7.495973e-002
1.490768e+003;7.539167e-002
1.492696e+003;7.631971e-002
1.494625e+003;7.694311e-002
1.496553e+003;7.763534e-002
1.498482e+003;7.899885e-002
1.500410e+003;8.041310e-002
1.502339e+003;8.093312e-002
1.504267e+003;7.995974e-002
1.506196e+003;7.833459e-002
1.508125e+003;7.750791e-002
1.510053e+003;7.631674e-002
1.511982e+003;7.433127e-002
1.513910e+003;7.213112e-002
1.515839e+003;6.972574e-002
1.517767e+003;6.776893e-002
1.519696e+003;6.580148e-002
1.521624e+003;6.433072e-002
1.523553e+003;6.378429e-002
1.525481e+003;6.297842e-002
1.527410e+003;6.263851e-002
1.529339e+003;6.286482e-002
1.531267e+003;6.278908e-002
1.533196e+003;6.235430e-002
1.535124e+003;6.258199e-002
1.537053e+003;6.239019e-002
1.538981e+003;6.124243e-002
1.540910e+003;6.125994e-002
1.542838e+003;6.237232e-002
1.544767e+003;6.316450e-002
1.546695e+003;6.369496e-002
1.548624e+003;6.397875e-002
1.550553e+003;6.458593e-002
1.552481e+003;6.474694e-002
1.554410e+003;6.461827e-002
1.556338e+003;6.453315e-002
1.558267e+003;6.408711e-002
1.560195e+003;6.507687e-002
1.562124e+003;6.711617e-002
1.564052e+003;6.837986e-002
1.565981e+003;6.937434e-002
1.567910e+003;7.038641e-002
1.569838e+003;7.157764e-002
1.571767e+003;7.308142e-002
1.573695e+003;7.414171e-002
1.575624e+003;7.511943e-002
1.577552e+003;7.747020e-002
1.579481e+003;8.034245e-002
1.581409e+003;8.275685e-002
1.583338e+003;8.526067e-002
1.585266e+003;8.764771e-002
1.587195e+003;9.006295e-002
1.589124e+003;9.215339e-002
1.591052e+003;9.373888e-002
1.592981e+003;9.457809e-002
1.594909e+003;9.480997e-002
1.596838e+003;9.479892e-002
1.598766e+003;9.407880e-002
1.600695e+003;9.312849e-002
1.602623e+003;9.191244e-002
1.604552e+003;9.077031e-002
1.606480e+003;8.992598e-002
1.608409e+003;8.910669e-002
1.610338e+003;8.832638e-002
1.612266e+003;8.704168e-002
1.614195e+003;8.554108e-002
1.616123e+003;8.402835e-002
1.618052e+003;8.325192e-002
1.619980e+003;8.276740e-002
1.621909e+003;8.182717e-002
1.623837e+003;8.096746e-002
1.625766e+003;8.045158e-002
1.627694e+003;7.998785e-002
1.629623e+003;7.929381e-002
1.631552e+003;7.867279e-002
1.633480e+003;7.793636e-002
1.635409e+003;7.680231e-002
1.637337e+003;7.665294e-002
1.639266e+003;7.669389e-002
1.641194e+003;7.624593e-002
1.643123e+003;7.564770e-002
1.645051e+003;7.483855e-002
1.646980e+003;7.439549e-002
1.648909e+003;7.426278e-002
1.650837e+003;7.309812e-002
1.652766e+003;7.140494e-002
1.654694e+003;7.166525e-002
1.656623e+003;7.210534e-002
1.658551e+003;7.153295e-002
1.660480e+003;7.078309e-002
1.662408e+003;6.994272e-002
1.664337e+003;6.943000e-002
1.666266e+003;6.861922e-002
1.668194e+003;6.708709e-002
1.670123e+003;6.604984e-002
1.672051e+003;6.564944e-002
1.673980e+003;6.471618e-002
1.675908e+003;6.363315e-002
1.677837e+003;6.312051e-002
1.679765e+003;6.240970e-002
1.681694e+003;6.115618e-002
1.683622e+003;5.955155e-002
1.685551e+003;5.910975e-002
1.687479e+003;5.933502e-002
1.689408e+003;5.875694e-002
1.691337e+003;5.811466e-002
1.693265e+003;5.717943e-002
1.695194e+003;5.588222e-002
1.697122e+003;5.569546e-002
1.699051e+003;5.520534e-002
1.700979e+003;5.459834e-002
1.702908e+003;5.490068e-002
1.704836e+003;5.480226e-002
1.706765e+003;5.475324e-002
1.708693e+003;5.495562e-002
1.710622e+003;5.523066e-002
1.712551e+003;5.499048e-002
1.714479e+003;5.443932e-002
1.716408e+003;5.358776e-002
1.718336e+003;5.343946e-002
1.720265e+003;5.420626e-002
1.722193e+003;5.469942e-002
1.724122e+003;5.493433e-002
1.726050e+003;5.518491e-002
1.727979e+003;5.507645e-002
1.729908e+003;5.484575e-002
1.731836e+003;5.428964e-002
1.733765e+003;5.355759e-002
1.735693e+003;5.370811e-002
1.737622e+003;5.379544e-002
1.739550e+003;5.321164e-002
1.741479e+003;5.298189e-002
1.743407e+003;5.303285e-002
1.745336e+003;5.224830e-002
1.747265e+003;5.120752e-002
1.749193e+003;5.074493e-002
1.751122e+003;5.049408e-002
1.753050e+003;5.028730e-002
1.754979e+003;4.993049e-002
1.756907e+003;4.968865e-002
1.758836e+003;4.950940e-002
1.760764e+003;4.892403e-002
1.762693e+003;4.863105e-002
1.764621e+003;4.864572e-002
1.766550e+003;4.825342e-002
1.768479e+003;4.770213e-002
1.770407e+003;4.726605e-002
1.772336e+003;4.685185e-002
1.774264e+003;4.697245e-002
1.776193e+003;4.719328e-002
1.778121e+003;4.708259e-002
1.780050e+003;4.694904e-002
1.781978e+003;4.670841e-002
1.783907e+003;4.636526e-002
1.785835e+003;4.646006e-002
1.787764e+003;4.667912e-002
1.789693e+003;4.628284e-002
1.791621e+003;4.593973e-002
1.793550e+003;4.596017e-002
1.795478e+003;4.614054e-002
1.797407e+003;4.616081e-002
1.799335e+003;4.612146e-002
1.801264e+003;4.597247e-002
1.803192e+003;4.583153e-002
1.805121e+003;4.566966e-002
1.807049e+003;4.549279e-002
1.808978e+003;4.541484e-002
1.810907e+003;4.545861e-002
1.812835e+003;4.530228e-002
1.814764e+003;4.521973e-002
1.816692e+003;4.528625e-002
1.818621e+003;4.529853e-002
1.820549e+003;4.532465e-002
1.822478e+003;4.528272e-002
1.824406e+003;4.489105e-002
1.826335e+003;4.463988e-002
1.828264e+003;4.463919e-002
1.830192e+003;4.474962e-002
1.832121e+003;4.475876e-002
1.834049e+003;4.472641e-002
1.835978e+003;4.478833e-002
1.837906e+003;4.481835e-002
1.839835e+003;4.478437e-002
1.841763e+003;4.462160e-002
1.843692e+003;4.445044e-002
1.845620e+003;4.456531e-002
1.847549e+003;4.462843e-002
1.849478e+003;4.445074e-002
1.851406e+003;4.460412e-002
1.853335e+003;4.484439e-002
1.855263e+003;4.482992e-002
1.857192e+003;4.473357e-002
1.859120e+003;4.445210e-002
1.861049e+003;4.440933e-002
1.862977e+003;4.449544e-002
1.864906e+003;4.449365e-002
1.866834e+003;4.451281e-002
1.868763e+003;4.433822e-002
1.870692e+003;4.421233e-002
1.872620e+003;4.454453e-002
1.874549e+003;4.470099e-002
1.876477e+003;4.466390e-002
1.878406e+003;4.485446e-002
1.880334e+003;4.521101e-002
1.882263e+003;4.526599e-002
1.884191e+003;4.515612e-002
1.886120e+003;4.487132e-002
1.888048e+003;4.458958e-002
1.889977e+003;4.453260e-002
1.891906e+003;4.479245e-002
1.893834e+003;4.484109e-002
1.895763e+003;4.472233e-002
1.897691e+003;4.474147e-002
1.899620e+003;4.462365e-002
1.901548e+003;4.466926e-002
1.903477e+003;4.475851e-002
1.905405e+003;4.482345e-002
1.907334e+003;4.465846e-002
1.909262e+003;4.434464e-002
1.911191e+003;4.442460e-002
1.913120e+003;4.492240e-002
1.915048e+003;4.512333e-002
1.916977e+003;4.485380e-002
1.918905e+003;4.477305e-002
1.920834e+003;4.507300e-002
1.922762e+003;4.523076e-002
1.924691e+003;4.532273e-002
1.926619e+003;4.547524e-002
1.928548e+003;4.552631e-002
1.930477e+003;4.559204e-002
1.932405e+003;4.553584e-002
1.934334e+003;4.550482e-002
1.936262e+003;4.537007e-002
1.938191e+003;4.538419e-002
1.940119e+003;4.551262e-002
1.942048e+003;4.563668e-002
1.943976e+003;4.562597e-002
1.945905e+003;4.561305e-002
1.947833e+003;4.584722e-002
1.949762e+003;4.608236e-002
1.951691e+003;4.609382e-002
1.953619e+003;4.605024e-002
1.955548e+003;4.577457e-002
1.957476e+003;4.578219e-002
1.959405e+003;4.625928e-002
1.961333e+003;4.629721e-002
1.963262e+003;4.574921e-002
1.965190e+003;4.568781e-002
1.967119e+003;4.592095e-002
1.969047e+003;4.596470e-002
1.970976e+003;4.580498e-002
1.972905e+003;4.586346e-002
1.974833e+003;4.589992e-002
1.976762e+003;4.582822e-002
1.978690e+003;4.590202e-002
1.980619e+003;4.601631e-002
1.982547e+003;4.614916e-002
1.984476e+003;4.638584e-002
1.986404e+003;4.678878e-002
1.988333e+003;4.695875e-002
1.990261e+003;4.678346e-002
1.992190e+003;4.677819e-002
1.994119e+003;4.690884e-002
1.996047e+003;4.691988e-002
1.997976e+003;4.691833e-002
1.999904e+003;4.685292e-002
2.001833e+003;4.679797e-002
2.003761e+003;4.688846e-002
2.005690e+003;4.692601e-002
2.007618e+003;4.699238e-002
2.009547e+003;4.720048e-002
2.011476e+003;4.715830e-002
2.013404e+003;4.714844e-002
2.015333e+003;4.738000e-002
2.017261e+003;4.768793e-002
2.019190e+003;4.767347e-002
2.021118e+003;4.781264e-002
2.023047e+003;4.798864e-002
2.024975e+003;4.801381e-002
2.026904e+003;4.820355e-002
2.028833e+003;4.809630e-002
2.030761e+003;4.777518e-002
2.032690e+003;4.737616e-002
2.034618e+003;4.755453e-002
2.036547e+003;4.801192e-002
2.038475e+003;4.810741e-002
2.040404e+003;4.818637e-002
2.042332e+003;4.859525e-002
2.044261e+003;4.874506e-002
2.046189e+003;4.840345e-002
2.048118e+003;4.847309e-002
2.050047e+003;4.877924e-002
2.051975e+003;4.881657e-002
2.053904e+003;4.872800e-002
2.055832e+003;4.851080e-002
2.057761e+003;4.847868e-002
2.059689e+003;4.843371e-002
2.061618e+003;4.835026e-002
2.063546e+003;4.820155e-002
2.065475e+003;4.815757e-002
2.067404e+003;4.834593e-002
2.069332e+003;4.837430e-002
2.071260e+003;4.838033e-002
2.073189e+003;4.849483e-002
2.075118e+003;4.855200e-002
2.077046e+003;4.863245e-002
2.078975e+003;4.839826e-002
2.080903e+003;4.810211e-002
2.082832e+003;4.805507e-002
2.084760e+003;4.826993e-002
2.086689e+003;4.854089e-002
2.088617e+003;4.846223e-002
2.090546e+003;4.804804e-002
2.092475e+003;4.803020e-002
2.094403e+003;4.843986e-002
2.096332e+003;4.851191e-002
2.098260e+003;4.846627e-002
2.100189e+003;4.833989e-002
2.102117e+003;4.835233e-002
2.104046e+003;4.846157e-002
2.105974e+003;4.831145e-002
2.107903e+003;4.824379e-002
2.109832e+003;4.830100e-002
2.111760e+003;4.822646e-002
2.113688e+003;4.801136e-002
2.115617e+003;4.800722e-002
2.117546e+003;4.823617e-002
2.119474e+003;4.813509e-002
2.121403e+003;4.800511e-002
2.123331e+003;4.824098e-002
2.125260e+003;4.825231e-002
2.127188e+003;4.806114e-002
2.129117e+003;4.808142e-002
2.131045e+003;4.832626e-002
2.132974e+003;4.865495e-002
2.134903e+003;4.865414e-002
2.136831e+003;4.852181e-002
2.138760e+003;4.843712e-002
2.140688e+003;4.850006e-002
2.142617e+003;4.841093e-002
2.144545e+003;4.834830e-002
2.146474e+003;4.831456e-002
2.148402e+003;4.823842e-002
2.150331e+003;4.825598e-002
2.152260e+003;4.802691e-002
2.154188e+003;4.811292e-002
2.156117e+003;4.835581e-002
2.158045e+003;4.810937e-002
2.159974e+003;4.789732e-002
2.161902e+003;4.816071e-002
2.163831e+003;4.852888e-002
2.165759e+003;4.842927e-002
2.167688e+003;4.816256e-002
2.169616e+003;4.794250e-002
2.171545e+003;4.793295e-002
2.173474e+003;4.808590e-002
2.175402e+003;4.769311e-002
2.177331e+003;4.749235e-002
2.179259e+003;4.772177e-002
2.181188e+003;4.791009e-002
2.183116e+003;4.816419e-002
2.185045e+003;4.810793e-002
2.186973e+003;4.781742e-002
2.188902e+003;4.765717e-002
2.190831e+003;4.744475e-002
2.192759e+003;4.739013e-002
2.194688e+003;4.752640e-002
2.196616e+003;4.753386e-002
2.198545e+003;4.747808e-002
2.200473e+003;4.757120e-002
2.202402e+003;4.759834e-002
2.204330e+003;4.755941e-002
2.206259e+003;4.758396e-002
2.208188e+003;4.747709e-002
2.210116e+003;4.744386e-002
2.212044e+003;4.740280e-002
2.213973e+003;4.732819e-002
2.215902e+003;4.748607e-002
2.217830e+003;4.751213e-002
2.219759e+003;4.752610e-002
2.221687e+003;4.748045e-002
2.223616e+003;4.747901e-002
2.225544e+003;4.758995e-002
2.227473e+003;4.740272e-002
2.229401e+003;4.715519e-002
2.231330e+003;4.720173e-002
2.233259e+003;4.745569e-002
2.235187e+003;4.752558e-002
2.237116e+003;4.730806e-002
2.239044e+003;4.728537e-002
2.240973e+003;4.781616e-002
2.242901e+003;4.798327e-002
2.244830e+003;4.772687e-002
2.246758e+003;4.758688e-002
2.248687e+003;4.768101e-002
2.250615e+003;4.800085e-002
2.252544e+003;4.796152e-002
2.254473e+003;4.752621e-002
2.256401e+003;4.734700e-002
2.258330e+003;4.734700e-002
2.260258e+003;4.729808e-002
2.262187e+003;4.719933e-002
2.264115e+003;4.713942e-002
2.266044e+003;4.726860e-002
2.267972e+003;4.746315e-002
2.269901e+003;4.763727e-002
2.271830e+003;4.774137e-002
2.273758e+003;4.736163e-002
2.275687e+003;4.710737e-002
2.277615e+003;4.712768e-002
2.279544e+003;4.708595e-002
2.281472e+003;4.691596e-002
2.283401e+003;4.706697e-002
2.285329e+003;4.755194e-002
2.287258e+003;4.782640e-002
2.289187e+003;4.756983e-002
2.291115e+003;4.729882e-002
2.293043e+003;4.755013e-002
2.294972e+003;4.765402e-002
2.296901e+003;4.752573e-002
2.298829e+003;4.753457e-002
2.300758e+003;4.740202e-002
2.302686e+003;4.725885e-002
2.304615e+003;4.727495e-002
2.306543e+003;4.725962e-002
2.308472e+003;4.715113e-002
2.310400e+003;4.709359e-002
2.312329e+003;4.709363e-002
2.314258e+003;4.742460e-002
2.316186e+003;4.781505e-002
2.318115e+003;4.792096e-002
2.320043e+003;4.791034e-002
2.321972e+003;4.780007e-002
2.323900e+003;4.759368e-002
2.325829e+003;4.756192e-002
2.327757e+003;4.733802e-002
2.329686e+003;4.719132e-002
2.331615e+003;4.724655e-002
2.333543e+003;4.718260e-002
2.335472e+003;4.736363e-002
2.337400e+003;4.783761e-002
2.339329e+003;4.804238e-002
2.341257e+003;4.787098e-002
2.343186e+003;4.801303e-002
2.345114e+003;4.812592e-002
2.347043e+003;4.799145e-002
2.348971e+003;4.788974e-002
2.350900e+003;4.797643e-002
2.352829e+003;4.813302e-002
2.354757e+003;4.816778e-002
2.356686e+003;4.800344e-002
2.358614e+003;4.808531e-002
2.360543e+003;4.809930e-002
2.362471e+003;4.816912e-002
2.364400e+003;4.828060e-002
2.366328e+003;4.824979e-002
2.368257e+003;4.833626e-002
2.370186e+003;4.848590e-002
2.372114e+003;4.850851e-002
2.374042e+003;4.885932e-002
2.375971e+003;4.917201e-002
2.377900e+003;4.910979e-002
2.379828e+003;4.905615e-002
2.381757e+003;4.886103e-002
2.383685e+003;4.890041e-002
2.385614e+003;4.922912e-002
2.387542e+003;4.927670e-002
2.389471e+003;4.948768e-002
2.391399e+003;4.962491e-002
2.393328e+003;4.969215e-002
2.395257e+003;4.983843e-002
2.397185e+003;4.983988e-002
2.399114e+003;4.990027e-002
2.401042e+003;5.002202e-002
2.402971e+003;4.991358e-002
2.404899e+003;4.977192e-002
2.406828e+003;4.981956e-002
2.408756e+003;5.031103e-002
2.410685e+003;5.043542e-002
2.412614e+003;5.028164e-002
2.414542e+003;5.043304e-002
2.416471e+003;5.053182e-002
2.418399e+003;5.041990e-002
2.420328e+003;5.048541e-002
2.422256e+003;5.043766e-002
2.424185e+003;5.058401e-002
2.426113e+003;5.106733e-002
2.428042e+003;5.100477e-002
2.429970e+003;5.062269e-002
2.431899e+003;5.072717e-002
2.433828e+003;5.115936e-002
2.435756e+003;5.119671e-002
2.437685e+003;5.133978e-002
2.439613e+003;5.158437e-002
2.441542e+003;5.153240e-002
2.443470e+003;5.140874e-002
2.445399e+003;5.150087e-002
2.447327e+003;5.155485e-002
2.449256e+003;5.152758e-002
2.451185e+003;5.171226e-002
2.453113e+003;5.197768e-002
2.455042e+003;5.202694e-002
2.456970e+003;5.209500e-002
2.458899e+003;5.221620e-002
2.460827e+003;5.233822e-002
2.462756e+003;5.258188e-002
2.464684e+003;5.235661e-002
2.466613e+003;5.220062e-002
2.468542e+003;5.231389e-002
2.470470e+003;5.253891e-002
2.472398e+003;5.271332e-002
2.474327e+003;5.280222e-002
2.476256e+003;5.288196e-002
2.478184e+003;5.299964e-002
2.480113e+003;5.279948e-002
2.482041e+003;5.277464e-002
2.483970e+003;5.296190e-002
2.485898e+003;5.281853e-002
2.487827e+003;5.299529e-002
2.489755e+003;5.323857e-002
2.491684e+003;5.337935e-002
2.493613e+003;5.331551e-002
2.495541e+003;5.336448e-002
2.497470e+003;5.353873e-002
2.499398e+003;5.305950e-002
2.501327e+003;5.284233e-002
2.503255e+003;5.326674e-002
2.505184e+003;5.364264e-002
2.507112e+003;5.367192e-002
2.509041e+003;5.369359e-002
2.510969e+003;5.379109e-002
2.512898e+003;5.382953e-002
2.514827e+003;5.390759e-002
2.516755e+003;5.376574e-002
2.518684e+003;5.392789e-002
2.520612e+003;5.405647e-002
2.522541e+003;5.416902e-002
2.524469e+003;5.431195e-002
2.526398e+003;5.442055e-002
2.528326e+003;5.437950e-002
2.530255e+003;5.428780e-002
2.532184e+003;5.438494e-002
2.534112e+003;5.427868e-002
2.536041e+003;5.410056e-002
2.537969e+003;5.441318e-002
2.539898e+003;5.467898e-002
2.541826e+003;5.447681e-002
2.543755e+003;5.426054e-002
2.545683e+003;5.425626e-002
2.547612e+003;5.418332e-002
2.549541e+003;5.409287e-002
2.551469e+003;5.397257e-002
2.553397e+003;5.425078e-002
2.555326e+003;5.491899e-002
2.557255e+003;5.523981e-002
2.559183e+003;5.509011e-002
2.561112e+003;5.513875e-002
2.563040e+003;5.533419e-002
2.564969e+003;5.523860e-002
2.566897e+003;5.500210e-002
2.568826e+003;5.498841e-002
2.570754e+003;5.525708e-002
2.572683e+003;5.540232e-002
2.574612e+003;5.535078e-002
2.576540e+003;5.542031e-002
2.578469e+003;5.541105e-002
2.580397e+003;5.536050e-002
2.582326e+003;5.524236e-002
2.584254e+003;5.536170e-002
2.586183e+003;5.548367e-002
2.588111e+003;5.545743e-002
2.590040e+003;5.571328e-002
2.591969e+003;5.575931e-002
2.593897e+003;5.574096e-002
2.595826e+003;5.569373e-002
2.597754e+003;5.578794e-002
2.599683e+003;5.593004e-002
2.601611e+003;5.598352e-002
2.603540e+003;5.586387e-002
2.605468e+003;5.586541e-002
2.607397e+003;5.597847e-002
2.609325e+003;5.614209e-002
2.611254e+003;5.616298e-002
2.613183e+003;5.607762e-002
2.615111e+003;5.615551e-002
2.617040e+003;5.662564e-002
2.618968e+003;5.700541e-002
2.620897e+003;5.711340e-002
2.622825e+003;5.700409e-002
2.624754e+003;5.699887e-002
2.626682e+003;5.701210e-002
2.628611e+003;5.709696e-002
2.630540e+003;5.727820e-002
2.632468e+003;5.759717e-002
2.634396e+003;5.783502e-002
2.636325e+003;5.741584e-002
2.638254e+003;5.724667e-002
2.640182e+003;5.753373e-002
2.642111e+003;5.762305e-002
2.644039e+003;5.750623e-002
2.645968e+003;5.747313e-002
2.647896e+003;5.767144e-002
2.649825e+003;5.796862e-002
2.651753e+003;5.820921e-002
2.653682e+003;5.852655e-002
2.655611e+003;5.872856e-002
2.657539e+003;5.876847e-002
2.659468e+003;5.883452e-002
2.661396e+003;5.879950e-002
2.663325e+003;5.883767e-002
2.665253e+003;5.903729e-002
2.667182e+003;5.936412e-002
2.669110e+003;5.931679e-002
2.671039e+003;5.911454e-002
2.672968e+003;5.899398e-002
2.674896e+003;5.900259e-002
2.676825e+003;5.926202e-002
2.678753e+003;5.928941e-002
2.680682e+003;5.951872e-002
2.682610e+003;6.009257e-002
2.684539e+003;6.036723e-002
2.686467e+003;6.020061e-002
2.688396e+003;6.009713e-002
2.690324e+003;6.030076e-002
2.692253e+003;6.022078e-002
2.694182e+003;6.002762e-002
2.696110e+003;6.019064e-002
2.698039e+003;6.067773e-002
2.699967e+003;6.081698e-002
2.701896e+003;6.059464e-002
2.703824e+003;6.086348e-002
2.705753e+003;6.100641e-002
2.707681e+003;6.098735e-002
2.709610e+003;6.128230e-002
2.711539e+003;6.164665e-002
2.713467e+003;6.162366e-002
2.715396e+003;6.149034e-002
2.717324e+003;6.155516e-002
2.719253e+003;6.158403e-002
2.721181e+003;6.185417e-002
2.723110e+003;6.205384e-002
2.725038e+003;6.199063e-002
2.726967e+003;6.190231e-002
2.728896e+003;6.206084e-002
2.730824e+003;6.232531e-002
2.732752e+003;6.242939e-002
2.734681e+003;6.255107e-002
2.736610e+003;6.252964e-002
2.738538e+003;6.249612e-002
2.740467e+003;6.241998e-002
2.742395e+003;6.207112e-002
2.744324e+003;6.205999e-002
2.746252e+003;6.248835e-002
2.748181e+003;6.268100e-002
2.750109e+003;6.245051e-002
2.752038e+003;6.227705e-002
2.753967e+003;6.259389e-002
2.755895e+003;6.299956e-002
2.757824e+003;6.291123e-002
2.759752e+003;6.287382e-002
2.761681e+003;6.304557e-002
2.763609e+003;6.320632e-002
2.765538e+003;6.328255e-002
2.767466e+003;6.350140e-002
2.769395e+003;6.404367e-002
2.771323e+003;6.426629e-002
2.773252e+003;6.411722e-002
2.775181e+003;6.395797e-002
2.777109e+003;6.383790e-002
2.779038e+003;6.414041e-002
2.780966e+003;6.445051e-002
2.782895e+003;6.471452e-002
2.784823e+003;6.496942e-002
2.786752e+003;6.511428e-002
2.788680e+003;6.527984e-002
2.790609e+003;6.542323e-002
2.792538e+003;6.563102e-002
2.794466e+003;6.602731e-002
2.796395e+003;6.625091e-002
2.798323e+003;6.622968e-002
2.800252e+003;6.662841e-002
2.802180e+003;6.690214e-002
2.804109e+003;6.721568e-002
2.806037e+003;6.765474e-002
2.807966e+003;6.784295e-002
2.809895e+003;6.805768e-002
2.811823e+003;6.846504e-002
2.813751e+003;6.879935e-002
2.815680e+003;6.928999e-002
2.817609e+003;6.971289e-002
2.819537e+003;7.021894e-002
2.821466e+003;7.057367e-002
2.823394e+003;7.089097e-002
2.825323e+003;7.167740e-002
2.827251e+003;7.248671e-002
2.829180e+003;7.311071e-002
2.831108e+003;7.367898e-002
2.833037e+003;7.439544e-002
2.834966e+003;7.538331e-002
2.836894e+003;7.653539e-002
2.838823e+003;7.696961e-002
2.840751e+003;7.705060e-002
2.842680e+003;7.820624e-002
2.844608e+003;7.991090e-002
2.846537e+003;8.123076e-002
2.848465e+003;8.233924e-002
2.850394e+003;8.346059e-002
2.852323e+003;8.402429e-002
2.854251e+003;8.419226e-002
2.856180e+003;8.508894e-002
2.858108e+003;8.632052e-002
2.860037e+003;8.754292e-002
2.861965e+003;8.861401e-002
2.863894e+003;8.910612e-002
2.865822e+003;8.944186e-002
2.867751e+003;8.985540e-002
2.869679e+003;9.076165e-002
2.871608e+003;9.171813e-002
2.873536e+003;9.214752e-002
2.875465e+003;9.249715e-002
2.877394e+003;9.309191e-002
2.879322e+003;9.366529e-002
2.881251e+003;9.375393e-002
2.883179e+003;9.403161e-002
2.885108e+003;9.429822e-002
2.887036e+003;9.456228e-002
2.888965e+003;9.493920e-002
2.890893e+003;9.517577e-002
2.892822e+003;9.517799e-002
2.894750e+003;9.551875e-002
2.896679e+003;9.615675e-002
2.898608e+003;9.627157e-002
2.900536e+003;9.568747e-002
2.902465e+003;9.478883e-002
2.904393e+003;9.469701e-002
2.906322e+003;9.486525e-002
2.908250e+003;9.461707e-002
2.910179e+003;9.443233e-002
2.912107e+003;9.410773e-002
2.914036e+003;9.362444e-002
2.915965e+003;9.280594e-002
2.917893e+003;9.181002e-002
2.919822e+003;9.128061e-002
2.921750e+003;9.064969e-002
2.923679e+003;8.981840e-002
2.925607e+003;8.917056e-002
2.927536e+003;8.881983e-002
2.929464e+003;8.819873e-002
2.931393e+003;8.736874e-002
2.933322e+003;8.640194e-002
2.935250e+003;8.554326e-002
2.937178e+003;8.491006e-002
2.939107e+003;8.431858e-002
2.941036e+003;8.372284e-002
2.942964e+003;8.289053e-002
2.944893e+003;8.191067e-002
2.946821e+003;8.092686e-002
2.948750e+003;8.018392e-002
2.950678e+003;7.956334e-002
2.952607e+003;7.831178e-002
2.954535e+003;7.712871e-002
2.956464e+003;7.633089e-002
2.958393e+003;7.566865e-002
2.960321e+003;7.475019e-002
2.962250e+003;7.387485e-002
2.964178e+003;7.310282e-002
2.966107e+003;7.246303e-002
2.968035e+003;7.198362e-002
2.969964e+003;7.158925e-002
2.971892e+003;7.089218e-002
2.973821e+003;7.043286e-002
2.975750e+003;6.979351e-002
2.977678e+003;6.875479e-002
2.979607e+003;6.806942e-002
2.981535e+003;6.793755e-002
2.983464e+003;6.796541e-002
2.985392e+003;6.762864e-002
2.987321e+003;6.706795e-002
2.989249e+003;6.646466e-002
2.991178e+003;6.617535e-002
2.993106e+003;6.619055e-002
2.995035e+003;6.603464e-002
2.996964e+003;6.588044e-002
2.998892e+003;6.597126e-002
3.000821e+003;6.621996e-002
3.002749e+003;6.580120e-002
3.004678e+003;6.538613e-002
3.006606e+003;6.558547e-002
3.008535e+003;6.572141e-002
3.010463e+003;6.570992e-002
3.012392e+003;6.576154e-002
3.014321e+003;6.586012e-002
3.016249e+003;6.577441e-002
3.018177e+003;6.533610e-002
3.020106e+003;6.535374e-002
3.022035e+003;6.535039e-002
3.023963e+003;6.523044e-002
3.025892e+003;6.546449e-002
3.027820e+003;6.594627e-002
3.029749e+003;6.610524e-002
3.031677e+003;6.618862e-002
3.033606e+003;6.623987e-002
3.035534e+003;6.640697e-002
3.037463e+003;6.658183e-002
3.039392e+003;6.638072e-002
3.041320e+003;6.659029e-002
3.043249e+003;6.704719e-002
3.045177e+003;6.739605e-002
3.047106e+003;6.766600e-002
3.049034e+003;6.766651e-002
3.050963e+003;6.796111e-002
3.052891e+003;6.822053e-002
3.054820e+003;6.844231e-002
3.056749e+003;6.854022e-002
3.058677e+003;6.873795e-002
3.060606e+003;6.918724e-002
3.062534e+003;6.955875e-002
3.064463e+003;6.997090e-002
3.066391e+003;7.013283e-002
3.068320e+003;7.013220e-002
3.070248e+003;7.038956e-002
3.072177e+003;7.073843e-002
3.074105e+003;7.091519e-002
3.076034e+003;7.101804e-002
3.077963e+003;7.128877e-002
3.079891e+003;7.196141e-002
3.081820e+003;7.237154e-002
3.083748e+003;7.243562e-002
3.085677e+003;7.255704e-002
3.087605e+003;7.276820e-002
3.089534e+003;7.308220e-002
3.091462e+003;7.339691e-002
3.093391e+003;7.361326e-002
3.095320e+003;7.380326e-002
3.097248e+003;7.397927e-002
3.099177e+003;7.412501e-002
3.101105e+003;7.462496e-002
3.103034e+003;7.537330e-002
3.104962e+003;7.579898e-002
3.106891e+003;7.596744e-002
3.108819e+003;7.644221e-002
3.110748e+003;7.673177e-002
3.112677e+003;7.681101e-002
3.114605e+003;7.741404e-002
3.116533e+003;7.792538e-002
3.118462e+003;7.798330e-002
3.120391e+003;7.818525e-002
3.122319e+003;7.865973e-002
3.124248e+003;7.889660e-002
3.126176e+003;7.934950e-002
3.128105e+003;8.007853e-002
3.130033e+003;8.045278e-002
3.131962e+003;8.083345e-002
3.133890e+003;8.132701e-002
3.135819e+003;8.156867e-002
3.137748e+003;8.203732e-002
3.139676e+003;8.232170e-002
3.141605e+003;8.222999e-002
3.143533e+003;8.250384e-002
3.145462e+003;8.294860e-002
3.147390e+003;8.333553e-002
3.149319e+003;8.358059e-002
3.151247e+003;8.431070e-002
3.153176e+003;8.521241e-002
3.155104e+003;8.599373e-002
3.157033e+003;8.601683e-002
3.158962e+003;8.604980e-002
3.160890e+003;8.686196e-002
3.162819e+003;8.734707e-002
3.164747e+003;8.768258e-002
3.166676e+003;8.827452e-002
3.168604e+003;8.860499e-002
3.170533e+003;8.919327e-002
3.172461e+003;8.994563e-002
3.174390e+003;9.033477e-002
3.176319e+003;9.078088e-002
3.178247e+003;9.146389e-002
3.180176e+003;9.186459e-002
3.182104e+003;9.216047e-002
3.184033e+003;9.280380e-002
3.185961e+003;9.389441e-002
3.187890e+003;9.436686e-002
3.189818e+003;9.429950e-002
3.191747e+003;9.472148e-002
3.193676e+003;9.580053e-002
3.195604e+003;9.652603e-002
3.197532e+003;9.695826e-002
3.199461e+003;9.737567e-002
3.201390e+003;9.802537e-002
3.203318e+003;9.889571e-002
3.205247e+003;9.961341e-002
3.207175e+003;9.987901e-002
3.209104e+003;1.002423e-001
3.211032e+003;1.010569e-001
3.212961e+003;1.016227e-001
3.214889e+003;1.017839e-001
3.216818e+003;1.019581e-001
3.218747e+003;1.029834e-001
3.220675e+003;1.039200e-001
3.222604e+003;1.041280e-001
3.224532e+003;1.042879e-001
3.226461e+003;1.051655e-001
3.228389e+003;1.064963e-001
3.230318e+003;1.075918e-001
3.232246e+003;1.087364e-001
3.234175e+003;1.095778e-001
3.236104e+003;1.100672e-001
3.238032e+003;1.106862e-001
3.239961e+003;1.112317e-001
3.241889e+003;1.113111e-001
3.243818e+003;1.115151e-001
3.245746e+003;1.124159e-001
3.247675e+003;1.134694e-001
3.249603e+003;1.143954e-001
3.251532e+003;1.154620e-001
3.253460e+003;1.160995e-001
3.255389e+003;1.166259e-001
3.257318e+003;1.173151e-001
3.259246e+003;1.176062e-001
3.261175e+003;1.184895e-001
3.263103e+003;1.195935e-001
3.265032e+003;1.202164e-001
3.266960e+003;1.210147e-001
3.268889e+003;1.216739e-001
3.270817e+003;1.221966e-001
3.272746e+003;1.229412e-001
3.274675e+003;1.236342e-001
3.276603e+003;1.238643e-001
3.278531e+003;1.240625e-001
3.280460e+003;1.245239e-001
3.282389e+003;1.249648e-001
3.284317e+003;1.256066e-001
3.286246e+003;1.262441e-001
3.288174e+003;1.266617e-001
3.290103e+003;1.272061e-001
3.292031e+003;1.274323e-001
3.293960e+003;1.270868e-001
3.295888e+003;1.272440e-001
3.297817e+003;1.280212e-001
3.299746e+003;1.286895e-001
3.301674e+003;1.291225e-001
3.303603e+003;1.289659e-001
3.305531e+003;1.283758e-001
3.307460e+003;1.286108e-001
3.309388e+003;1.295581e-001
3.311317e+003;1.302010e-001
3.313245e+003;1.303434e-001
3.315174e+003;1.300737e-001
3.317103e+003;1.300756e-001
3.319031e+003;1.306586e-001
3.320960e+003;1.311604e-001
3.322888e+003;1.310023e-001
3.324817e+003;1.309158e-001
3.326745e+003;1.314702e-001
3.328674e+003;1.318241e-001
3.330602e+003;1.321482e-001
3.332531e+003;1.325074e-001
3.334459e+003;1.328223e-001
3.336388e+003;1.329741e-001
3.338317e+003;1.330042e-001
3.340245e+003;1.330923e-001
3.342174e+003;1.332059e-001
3.344102e+003;1.331510e-001
3.346031e+003;1.325925e-001
3.347959e+003;1.322097e-001
3.349888e+003;1.323202e-001
3.351816e+003;1.322716e-001
3.353745e+003;1.320332e-001
3.355674e+003;1.316411e-001
3.357602e+003;1.310317e-001
3.359531e+003;1.308622e-001
3.361459e+003;1.310295e-001
3.363388e+003;1.307168e-001
3.365316e+003;1.298212e-001
3.367245e+003;1.290816e-001
3.369173e+003;1.283859e-001
3.371102e+003;1.280295e-001
3.373031e+003;1.280702e-001
3.374959e+003;1.279307e-001
3.376887e+003;1.273359e-001
3.378816e+003;1.267571e-001
3.380745e+003;1.265507e-001
3.382673e+003;1.261915e-001
3.384602e+003;1.253969e-001
3.386530e+003;1.244542e-001
3.388459e+003;1.244352e-001
3.390387e+003;1.243595e-001
3.392316e+003;1.237289e-001
3.394244e+003;1.234500e-001
3.396173e+003;1.231327e-001
3.398102e+003;1.219883e-001
3.400030e+003;1.212463e-001
3.401959e+003;1.213481e-001
3.403887e+003;1.214136e-001
3.405816e+003;1.209720e-001
3.407744e+003;1.201511e-001
3.409673e+003;1.191719e-001
3.411601e+003;1.184158e-001
3.413530e+003;1.178171e-001
3.415458e+003;1.169652e-001
3.417387e+003;1.162843e-001
3.419316e+003;1.158139e-001
3.421244e+003;1.152339e-001
3.423173e+003;1.147102e-001
3.425101e+003;1.140532e-001
3.427030e+003;1.137743e-001
3.428958e+003;1.133533e-001
3.430887e+003;1.119563e-001
3.432815e+003;1.109707e-001
3.434744e+003;1.105082e-001
3.436673e+003;1.101245e-001
3.438601e+003;1.094453e-001
3.440530e+003;1.085224e-001
3.442458e+003;1.076533e-001
3.444387e+003;1.065954e-001
3.446315e+003;1.059474e-001
3.448244e+003;1.053949e-001
3.450172e+003;1.046824e-001
3.452101e+003;1.040689e-001
3.454030e+003;1.031857e-001
3.455958e+003;1.025415e-001
3.457886e+003;1.020180e-001
3.459815e+003;1.013138e-001
3.461744e+003;1.000582e-001
3.463672e+003;9.919085e-002
3.465601e+003;9.907091e-002
3.467529e+003;9.810054e-002
3.469458e+003;9.683684e-002
3.471386e+003;9.617271e-002
3.473315e+003;9.574286e-002
3.475243e+003;9.458374e-002
3.477172e+003;9.413712e-002
3.479101e+003;9.366986e-002
3.481029e+003;9.227315e-002
3.482958e+003;9.155237e-002
3.484886e+003;9.090525e-002
3.486815e+003;9.005035e-002
3.488743e+003;8.918460e-002
3.490672e+003;8.822930e-002
3.492600e+003;8.780035e-002
3.494529e+003;8.742539e-002
3.496458e+003;8.616614e-002
3.498386e+003;8.533797e-002
3.500315e+003;8.479819e-002
3.502243e+003;8.382744e-002
3.504172e+003;8.289871e-002
3.506100e+003;8.233356e-002
3.508029e+003;8.145589e-002
3.509957e+003;8.055695e-002
3.511886e+003;8.028221e-002
3.513814e+003;7.966973e-002
3.515743e+003;7.892612e-002
3.517672e+003;7.859766e-002
3.519600e+003;7.804263e-002
3.521529e+003;7.681543e-002
3.523457e+003;7.568987e-002
3.525386e+003;7.485390e-002
3.527314e+003;7.367172e-002
3.529243e+003;7.363929e-002
3.531171e+003;7.349873e-002
3.533100e+003;7.266137e-002
3.535029e+003;7.168721e-002
3.536957e+003;7.066321e-002
3.538885e+003;7.005445e-002
3.540814e+003;6.961892e-002
3.542743e+003;6.898993e-002
3.544671e+003;6.806020e-002
3.546600e+003;6.734966e-002
3.548528e+003;6.674087e-002
3.550457e+003;6.598218e-002
3.552385e+003;6.591141e-002
3.554314e+003;6.556397e-002
3.556242e+003;6.459908e-002
3.558171e+003;6.386515e-002
3.560100e+003;6.341508e-002
3.562028e+003;6.274512e-002
3.563957e+003;6.203848e-002
3.565885e+003;6.137934e-002
3.567814e+003;6.071061e-002
3.569742e+003;5.996379e-002
3.571671e+003;5.949463e-002
3.573599e+003;5.911678e-002
3.575528e+003;5.854134e-002
3.577457e+003;5.806716e-002
3.579385e+003;5.763084e-002
3.581314e+003;5.672195e-002
3.583242e+003;5.630460e-002
3.585171e+003;5.625956e-002
3.587099e+003;5.576187e-002
3.589028e+003;5.490358e-002
3.590956e+003;5.467534e-002
3.592885e+003;5.485763e-002
3.594813e+003;5.413366e-002
3.596742e+003;5.325449e-002
3.598671e+003;5.254116e-002
3.600599e+003;5.191378e-002
3.602528e+003;5.178441e-002
3.604456e+003;5.182578e-002
3.606385e+003;5.144764e-002
3.608313e+003;5.095785e-002
3.610242e+003;5.038809e-002
3.612170e+003;5.002741e-002
3.614099e+003;5.017002e-002
3.616028e+003;5.016574e-002
3.617956e+003;4.946232e-002
3.619885e+003;4.847953e-002
3.621813e+003;4.810278e-002
3.623742e+003;4.814535e-002
3.625670e+003;4.833430e-002
3.627599e+003;4.792751e-002
3.629527e+003;4.770413e-002
3.631456e+003;4.745365e-002
3.633385e+003;4.647820e-002
3.635313e+003;4.625925e-002
3.637241e+003;4.648019e-002
3.639170e+003;4.615255e-002
3.641099e+003;4.627967e-002
3.643027e+003;4.621745e-002
3.644956e+003;4.571272e-002
3.646884e+003;4.484035e-002
3.648813e+003;4.446913e-002
3.650741e+003;4.449670e-002
3.652670e+003;4.425720e-002
3.654598e+003;4.386415e-002
3.656527e+003;4.395528e-002
3.658456e+003;4.409397e-002
3.660384e+003;4.396185e-002
3.662313e+003;4.395939e-002
3.664241e+003;4.360895e-002
3.666170e+003;4.300868e-002
3.668098e+003;4.213956e-002
3.670027e+003;4.148419e-002
3.671955e+003;4.216224e-002
3.673884e+003;4.228443e-002
3.675813e+003;4.127798e-002
3.677741e+003;4.122194e-002
3.679669e+003;4.152779e-002
3.681598e+003;4.150669e-002
3.683527e+003;4.133712e-002
3.685455e+003;4.113950e-002
3.687384e+003;4.098723e-002
3.689312e+003;4.106265e-002
3.691241e+003;4.092482e-002
3.693169e+003;4.072538e-002
3.695098e+003;4.072513e-002
3.697026e+003;4.090312e-002
3.698955e+003;4.047443e-002
3.700884e+003;4.046479e-002
3.702812e+003;4.148160e-002
3.704741e+003;4.164170e-002
3.706669e+003;4.095202e-002
3.708598e+003;4.017986e-002
3.710526e+003;3.938022e-002
3.712455e+003;3.908407e-002
3.714383e+003;3.964597e-002
3.716312e+003;3.986540e-002
3.718240e+003;3.990749e-002
3.720169e+003;3.991171e-002
3.722098e+003;3.996558e-002
3.724026e+003;4.006346e-002
3.725955e+003;3.976248e-002
3.727883e+003;3.979335e-002
3.729812e+003;3.957138e-002
3.731740e+003;3.869339e-002
3.733669e+003;3.890142e-002
3.735597e+003;3.952521e-002
3.737526e+003;3.940319e-002
3.739455e+003;3.889033e-002
3.741383e+003;3.852517e-002
3.743312e+003;3.772597e-002
3.745240e+003;3.810566e-002
3.747169e+003;3.870654e-002
3.749097e+003;3.774610e-002
3.751026e+003;3.743860e-002
3.752954e+003;3.816838e-002
3.754883e+003;3.910948e-002
3.756812e+003;3.892730e-002
3.758740e+003;3.867882e-002
3.760668e+003;3.899961e-002
3.762597e+003;3.910089e-002
3.764526e+003;3.895031e-002
3.766454e+003;3.958249e-002
3.768383e+003;3.998832e-002
3.770311e+003;4.019861e-002
3.772240e+003;4.043886e-002
3.774168e+003;4.054430e-002
3.776097e+003;4.029414e-002
3.778025e+003;3.978819e-002
3.779954e+003;3.954587e-002
3.781883e+003;3.969440e-002
3.783811e+003;3.989010e-002
3.785740e+003;3.991999e-002
3.787668e+003;3.988810e-002
3.789597e+003;3.964376e-002
3.791525e+003;3.967832e-002
3.793454e+003;3.981176e-002
3.795382e+003;3.954761e-002
3.797311e+003;3.944400e-002
3.799240e+003;3.940547e-002
3.801168e+003;3.885102e-002
3.803097e+003;3.906116e-002
3.805025e+003;3.924800e-002
3.806954e+003;3.897771e-002
3.808882e+003;3.943388e-002
3.810811e+003;3.999159e-002
3.812739e+003;3.999813e-002
3.814668e+003;3.912551e-002
3.816596e+003;3.861881e-002
3.818525e+003;3.912736e-002
3.820454e+003;3.944553e-002
3.822382e+003;3.969328e-002
3.824311e+003;3.990579e-002
3.826239e+003;3.984259e-002
3.828168e+003;3.991646e-002
3.830096e+003;3.984894e-002
3.832025e+003;3.943693e-002
3.833953e+003;3.904339e-002
3.835882e+003;3.870596e-002
3.837811e+003;3.902146e-002
3.839739e+003;4.009187e-002
3.841667e+003;4.090218e-002
3.843596e+003;4.058297e-002
3.845525e+003;4.018796e-002
3.847453e+003;4.020152e-002
3.849382e+003;3.965552e-002
3.851310e+003;3.894843e-002
3.853239e+003;3.881873e-002
3.855167e+003;3.968816e-002
3.857096e+003;4.052724e-002
3.859024e+003;4.099979e-002
3.860953e+003;4.114915e-002
3.862882e+003;4.129077e-002
3.864810e+003;4.108024e-002
3.866739e+003;4.083556e-002
3.868667e+003;4.081747e-002
3.870596e+003;4.053746e-002
3.872524e+003;4.049814e-002
3.874453e+003;4.085954e-002
3.876381e+003;4.138504e-002
3.878310e+003;4.123855e-002
3.880239e+003;4.092871e-002
3.882167e+003;4.099254e-002
3.884096e+003;4.105718e-002
3.886024e+003;4.133708e-002
3.887953e+003;4.133486e-002
3.889881e+003;4.099648e-002
3.891810e+003;4.125575e-002
3.893738e+003;4.150406e-002
3.895667e+003;4.151317e-002
3.897595e+003;4.150162e-002
3.899524e+003;4.131948e-002
3.901453e+003;4.140083e-002
3.903381e+003;4.175794e-002
3.905310e+003;4.224100e-002
3.907238e+003;4.246865e-002
3.909167e+003;4.270241e-002
3.911095e+003;4.264962e-002
3.913024e+003;4.250493e-002
3.914952e+003;4.229089e-002
3.916881e+003;4.245509e-002
3.918810e+003;4.292104e-002
3.920738e+003;4.254407e-002
3.922667e+003;4.158420e-002
3.924595e+003;4.198625e-002
3.926524e+003;4.289781e-002
3.928452e+003;4.296127e-002
3.930381e+003;4.291318e-002
3.932309e+003;4.304984e-002
3.934238e+003;4.297144e-002
3.936167e+003;4.276558e-002
3.938095e+003;4.248092e-002
3.940023e+003;4.188250e-002
3.941952e+003;4.163131e-002
3.943881e+003;4.215607e-002
3.945809e+003;4.250442e-002
3.947738e+003;4.260386e-002
3.949666e+003;4.275743e-002
3.951595e+003;4.281867e-002
3.953523e+003;4.357514e-002
3.955452e+003;4.448098e-002
3.957380e+003;4.418922e-002
3.959309e+003;4.327989e-002
3.961238e+003;4.307798e-002
3.963166e+003;4.293647e-002
3.965095e+003;4.277242e-002
3.967023e+003;4.313704e-002
3.968952e+003;4.350829e-002
3.970880e+003;4.346167e-002
3.972809e+003;4.341147e-002
3.974737e+003;4.365358e-002
3.976666e+003;4.409059e-002
3.978594e+003;4.393226e-002
3.980523e+003;4.337884e-002
3.982452e+003;4.340444e-002
3.984380e+003;4.363368e-002
3.986309e+003;4.390425e-002
3.988237e+003;4.424568e-002
3.990166e+003;4.419329e-002
3.992094e+003;4.388222e-002
3.994023e+003;4.373455e-002
3.995951e+003;4.390095e-002
3.997880e+003;4.429653e-002
3.999809e+003;4.448935e-002
4.001737e+003;0.000000e+000
