3.992094e+002;0.000000e+000
4.011380e+002;0.000000e+000
4.030665e+002;0.000000e+000
4.049951e+002;0.000000e+000
4.069236e+002;0.000000e+000
4.088522e+002;0.000000e+000
4.107807e+002;0.000000e+000
4.127093e+002;0.000000e+000
4.146378e+002;0.000000e+000
4.165664e+002;0.000000e+000
4.184949e+002;0.000000e+000
4.204235e+002;0.000000e+000
4.223520e+002;0.000000e+000
4.242806e+002;0.000000e+000
4.262091e+002;0.000000e+000
4.281377e+002;0.000000e+000
4.300662e+002;0.000000e+000
4.319948e+002;0.000000e+000
4.339233e+002;0.000000e+000
4.358519e+002;0.000000e+000
4.377804e+002;0.000000e+000
4.397090e+002;0.000000e+000
4.416375e+002;0.000000e+000
4.435660e+002;0.000000e+000
4.454946e+002;0.000000e+000
4.474232e+002;0.000000e+000
4.493517e+002;0.000000e+000
4.512802e+002;0.000000e+000
4.532088e+002;0.000000e+000
4.551373e+002;0.000000e+000
4.570659e+002;0.000000e+000
4.589944e+002;0.000000e+000
4.609230e+002;0.000000e+000
4.628515e+002;0.000000e+000
4.647801e+002;0.000000e+000
4.667086e+002;0.000000e+000
4.686372e+002;0.000000e+000
4.705657e+002;0.000000e+000
4.724943e+002;0.000000e+000
4.744228e+002;0.000000e+000
4.763513e+002;0.000000e+000
4.782799e+002;0.000000e+000
4.802085e+002;0.000000e+000
4.821370e+002;0.000000e+000
4.840656e+002;0.000000e+000
4.859941e+002;0.000000e+000
4.879226e+002;0.000000e+000
4.898512e+002;0.000000e+000
4.917798e+002;0.000000e+000
4.937083e+002;0.000000e+000
4.956368e+002;0.000000e+000
4.975654e+002;0.000000e+000
4.994939e+002;0.000000e+000
5.014225e+002;0.000000e+000
5.033510e+002;0.000000e+000
5.052796e+002;0.000000e+000
5.072081e+002;0.000000e+000
5.091367e+002;0.000000e+000
5.110652e+002;0.000000e+000
5.129938e+002;0.000000e+000
5.149223e+002;0.000000e+000
5.168509e+002;0.000000e+000
5.187794e+002;0.000000e+000
5.207079e+002;0.000000e+000
5.226365e+002;0.000000e+000
5.245651e+002;0.000000e+000
5.264936e+002;0.000000e+000
5.284222e+002;0.000000e+000
5.303507e+002;0.000000e+000
5.322792e+002;0.000000e+000
5.342078e+002;0.000000e+000
5.361364e+002;0.000000e+000
5.380649e+002;0.000000e+000
5.399935e+002;0.000000e+000
5.419220e+002;0.000000e+000
5.438505e+002;0.000000e+000
5.457791e+002;0.000000e+000
5.477076e+002;0.000000e+000
5.496362e+002;0.000000e+000
5.515648e+002;0.000000e+000
5.534933e+002;0.000000e+000
5.554218e+002;0.000000e+000
5.573504e+002;0.000000e+000
5.592789e+002;0.000000e+000
5.612075e+002;0.000000e+000
5.631360e+002;0.000000e+000
5.650646e+002;0.000000e+000
5.669931e+002;0.000000e+000
5.689217e+002;0.000000e+000
5.708502e+002;0.000000e+000
5.727787e+002;0.000000e+000
5.747073e+002;0.000000e+000
5.766359e+002;0.000000e+000
5.785644e+002;0.000000e+000
5.804930e+002;0.000000e+000
5.824215e+002;0.000000e+000
5.843500e+002;0.000000e+000
5.862786e+002;0.000000e+000
5.882072e+002;0.000000e+000
5.901357e+002;0.000000e+000
5.920643e+002;0.000000e+000
5.939928e+002;0.000000e+000
5.959213e+002;0.000000e+000
5.978499e+002;0.000000e+000
5.997784e+002;1.589617e-001
6.017070e+002;1.613742e-001
6.036355e+002;1.600120e-001
6.055641e+002;1.606229e-001
6.074926e+002;1.627325e-001
6.094211e+002;1.645748e-001
6.113497e+002;1.613187e-001
6.132783e+002;1.560691e-001
6.152068e+002;1.582548e-001
6.171354e+002;1.620793e-001
6.190639e+002;1.579476e-001
6.209924e+002;1.470550e-001
6.229210e+002;1.430332e-001
6.248495e+002;1.449477e-001
6.267781e+002;1.450329e-001
6.287067e+002;1.419522e-001
6.306352e+002;1.381626e-001
6.325637e+002;1.399745e-001
6.344923e+002;1.411673e-001
6.364208e+002;1.410899e-001
6.383494e+002;1.395357e-001
6.402780e+002;1.314064e-001
6.422065e+002;1.241043e-001
6.441350e+002;1.322732e-001
6.460636e+002;1.424712e-001
6.479921e+002;1.443292e-001
6.499207e+002;1.400820e-001
6.518492e+002;1.375612e-001
6.537778e+002;1.367480e-001
6.557063e+002;1.349701e-001
6.576349e+002;1.381308e-001
6.595634e+002;1.404486e-001
6.614919e+002;1.439989e-001
6.634205e+002;1.459262e-001
6.653491e+002;1.427049e-001
6.672776e+002;1.407212e-001
6.692062e+002;1.434974e-001
6.711347e+002;1.412634e-001
6.730632e+002;1.346148e-001
6.749918e+002;1.311289e-001
6.769203e+002;1.267531e-001
6.788489e+002;1.210074e-001
6.807775e+002;1.183093e-001
6.827060e+002;1.185408e-001
6.846345e+002;1.149908e-001
6.865631e+002;1.102595e-001
6.884916e+002;1.103987e-001
6.904202e+002;1.117031e-001
6.923488e+002;1.110587e-001
6.942773e+002;1.086944e-001
6.962058e+002;1.078809e-001
6.981344e+002;1.085531e-001
7.000629e+002;1.082246e-001
7.019915e+002;1.063274e-001
7.039200e+002;1.048931e-001
7.058486e+002;1.038093e-001
7.077771e+002;1.028977e-001
7.097057e+002;1.023548e-001
7.116342e+002;1.015612e-001
7.135627e+002;9.918714e-002
7.154913e+002;9.714458e-002
7.174199e+002;9.563185e-002
7.193484e+002;9.315900e-002
7.212770e+002;9.145358e-002
7.232055e+002;9.137703e-002
7.251340e+002;8.981758e-002
7.270626e+002;8.733819e-002
7.289911e+002;8.679709e-002
7.309197e+002;8.658499e-002
7.328483e+002;8.593505e-002
7.347768e+002;8.347296e-002
7.367053e+002;8.152952e-002
7.386339e+002;7.998566e-002
7.405624e+002;7.830480e-002
7.424910e+002;7.759573e-002
7.444196e+002;7.613683e-002
7.463481e+002;7.480808e-002
7.482766e+002;7.405353e-002
7.502052e+002;7.352876e-002
7.521337e+002;7.256711e-002
7.540623e+002;7.124067e-002
7.559908e+002;7.092927e-002
7.579194e+002;7.094543e-002
7.598479e+002;6.947654e-002
7.617765e+002;6.751177e-002
7.637050e+002;6.630618e-002
7.656335e+002;6.557687e-002
7.675621e+002;6.507314e-002
7.694907e+002;6.536823e-002
7.714192e+002;6.501956e-002
7.733478e+002;6.371595e-002
7.752763e+002;6.241715e-002
7.772048e+002;6.243571e-002
7.791334e+002;6.213228e-002
7.810620e+002;6.154046e-002
7.829905e+002;6.112208e-002
7.849191e+002;6.149668e-002
7.868476e+002;6.240698e-002
7.887761e+002;6.238276e-002
7.907047e+002;6.183748e-002
7.926332e+002;6.173716e-002
7.945618e+002;6.142514e-002
7.964903e+002;6.086809e-002
7.984189e+002;6.070063e-002
8.003474e+002;6.072993e-002
8.022759e+002;6.111437e-002
8.042045e+002;6.105724e-002
8.061331e+002;6.038044e-002
8.080616e+002;6.045889e-002
8.099902e+002;6.072955e-002
8.119187e+002;6.170252e-002
8.138472e+002;6.219212e-002
8.157758e+002;6.211546e-002
8.177043e+002;6.328627e-002
8.196329e+002;6.382596e-002
8.215615e+002;6.378935e-002
8.234900e+002;6.449379e-002
8.254185e+002;6.486569e-002
8.273471e+002;6.508476e-002
8.292756e+002;6.579184e-002
8.312042e+002;6.642037e-002
8.331328e+002;6.670467e-002
8.350613e+002;6.697698e-002
8.369898e+002;6.758764e-002
8.389184e+002;6.731386e-002
8.408469e+002;6.627090e-002
8.427755e+002;6.653803e-002
8.447040e+002;6.705040e-002
8.466326e+002;6.764115e-002
8.485611e+002;6.776769e-002
8.504897e+002;6.673709e-002
8.524182e+002;6.659666e-002
8.543467e+002;6.742410e-002
8.562753e+002;6.824910e-002
8.582039e+002;6.978121e-002
8.601324e+002;7.094879e-002
8.620610e+002;7.207420e-002
8.639895e+002;7.347154e-002
8.659180e+002;7.487870e-002
8.678466e+002;7.693254e-002
8.697751e+002;7.897969e-002
8.717037e+002;8.099313e-002
8.736323e+002;8.303384e-002
8.755608e+002;8.509309e-002
8.774893e+002;8.710590e-002
8.794179e+002;8.872923e-002
8.813464e+002;9.048255e-002
8.832750e+002;9.313785e-002
8.852036e+002;9.586477e-002
8.871321e+002;9.802562e-002
8.890606e+002;1.003078e-001
8.909892e+002;1.029394e-001
8.929177e+002;1.053568e-001
8.948463e+002;1.070014e-001
8.967748e+002;1.071656e-001
8.987034e+002;1.070940e-001
9.006319e+002;1.060865e-001
9.025605e+002;1.044168e-001
9.044890e+002;1.032789e-001
9.064175e+002;1.014075e-001
9.083461e+002;9.965546e-002
9.102747e+002;9.902796e-002
9.122032e+002;9.864797e-002
9.141318e+002;9.838449e-002
9.160603e+002;9.825011e-002
9.179888e+002;9.823158e-002
9.199174e+002;9.851184e-002
9.218459e+002;9.942707e-002
9.237745e+002;9.972203e-002
9.257031e+002;1.005781e-001
9.276316e+002;1.021767e-001
9.295601e+002;1.034374e-001
9.314887e+002;1.043496e-001
9.334172e+002;1.054999e-001
9.353458e+002;1.070089e-001
9.372744e+002;1.079183e-001
9.392029e+002;1.095584e-001
9.411314e+002;1.123530e-001
9.430600e+002;1.155196e-001
9.449885e+002;1.189314e-001
9.469171e+002;1.221342e-001
9.488456e+002;1.255384e-001
9.507742e+002;1.297491e-001
9.527027e+002;1.340245e-001
9.546313e+002;1.380536e-001
9.565598e+002;1.427673e-001
9.584883e+002;1.478282e-001
9.604169e+002;1.532452e-001
9.623455e+002;1.591709e-001
9.642740e+002;1.648144e-001
9.662026e+002;1.700741e-001
9.681311e+002;1.752624e-001
9.700596e+002;1.813973e-001
9.719882e+002;1.891780e-001
9.739167e+002;1.973714e-001
9.758453e+002;2.054792e-001
9.777739e+002;2.143564e-001
9.797024e+002;2.241785e-001
9.816309e+002;2.335763e-001
9.835595e+002;2.418566e-001
9.854880e+002;2.483292e-001
9.874166e+002;2.532739e-001
9.893452e+002;2.567582e-001
9.912737e+002;2.593479e-001
9.932022e+002;2.617787e-001
9.951307e+002;2.641858e-001
9.970593e+002;2.672829e-001
9.989879e+002;2.712849e-001
1.000916e+003;2.749756e-001
1.002845e+003;2.779240e-001
1.004773e+003;2.808783e-001
1.006702e+003;2.843319e-001
1.008631e+003;2.882969e-001
1.010559e+003;2.924150e-001
1.012488e+003;2.958595e-001
1.014416e+003;2.996500e-001
1.016345e+003;3.047354e-001
1.018273e+003;3.097024e-001
1.020202e+003;3.143019e-001
1.022130e+003;3.182513e-001
1.024059e+003;3.209754e-001
1.025988e+003;3.231522e-001
1.027916e+003;3.246340e-001
1.029845e+003;3.252706e-001
1.031773e+003;3.259642e-001
1.033702e+003;3.258765e-001
1.035630e+003;3.236251e-001
1.037559e+003;3.206160e-001
1.039487e+003;3.175054e-001
1.041416e+003;3.146878e-001
1.043344e+003;3.125081e-001
1.045273e+003;3.104194e-001
1.047202e+003;3.082752e-001
1.049130e+003;3.061834e-001
1.051059e+003;3.041710e-001
1.052987e+003;3.008463e-001
1.054916e+003;2.962944e-001
1.056844e+003;2.918969e-001
1.058773e+003;2.861858e-001
1.060701e+003;2.776386e-001
1.062630e+003;2.680402e-001
1.064558e+003;2.595776e-001
1.066487e+003;2.508564e-001
1.068416e+003;2.429943e-001
1.070344e+003;2.367805e-001
1.072273e+003;2.306748e-001
1.074201e+003;2.249361e-001
1.076130e+003;2.206681e-001
1.078058e+003;2.166825e-001
1.079987e+003;2.128344e-001
1.081915e+003;2.105171e-001
1.083844e+003;2.082995e-001
1.085773e+003;2.054158e-001
1.087701e+003;2.043924e-001
1.089630e+003;2.034571e-001
1.091558e+003;2.019888e-001
1.093487e+003;2.014739e-001
1.095415e+003;2.011016e-001
1.097344e+003;2.012041e-001
1.099272e+003;2.011313e-001
1.101201e+003;1.996543e-001
1.103129e+003;1.972666e-001
1.105058e+003;1.945318e-001
1.106987e+003;1.912135e-001
1.108915e+003;1.869321e-001
1.110844e+003;1.819858e-001
1.112772e+003;1.768760e-001
1.114701e+003;1.712110e-001
1.116629e+003;1.652491e-001
1.118558e+003;1.602792e-001
1.120486e+003;1.561754e-001
1.122415e+003;1.520992e-001
1.124344e+003;1.476006e-001
1.126272e+003;1.426899e-001
1.128201e+003;1.370865e-001
1.130129e+003;1.314628e-001
1.132058e+003;1.252774e-001
1.133986e+003;1.194797e-001
1.135915e+003;1.158810e-001
1.137843e+003;1.125677e-001
1.139772e+003;1.097638e-001
1.141700e+003;1.086410e-001
1.143629e+003;1.086088e-001
1.145557e+003;1.083435e-001
1.147486e+003;1.081728e-001
1.149415e+003;1.088096e-001
1.151343e+003;1.088630e-001
1.153272e+003;1.082076e-001
1.155200e+003;1.070386e-001
1.157129e+003;1.060861e-001
1.159057e+003;1.044664e-001
1.160986e+003;1.016776e-001
1.162914e+003;9.832557e-002
1.164843e+003;9.438193e-002
1.166771e+003;9.017467e-002
1.168700e+003;8.553668e-002
1.170629e+003;8.057836e-002
1.172557e+003;7.624324e-002
1.174486e+003;7.297961e-002
1.176414e+003;7.036366e-002
1.178343e+003;6.830481e-002
1.180271e+003;6.695645e-002
1.182200e+003;6.654881e-002
1.184128e+003;6.633764e-002
1.186057e+003;6.661238e-002
1.187986e+003;6.794375e-002
1.189914e+003;6.922011e-002
1.191843e+003;7.102151e-002
1.193771e+003;7.370984e-002
1.195700e+003;7.636723e-002
1.197628e+003;7.888484e-002
1.199557e+003;8.121738e-002
1.201485e+003;8.341667e-002
1.203414e+003;8.460659e-002
1.205343e+003;8.467045e-002
1.207271e+003;8.504292e-002
1.209200e+003;8.660331e-002
1.211128e+003;8.839338e-002
1.213057e+003;9.023450e-002
1.214985e+003;9.328306e-002
1.216914e+003;9.671175e-002
1.218842e+003;9.976180e-002
1.220771e+003;1.031391e-001
1.222699e+003;1.066026e-001
1.224628e+003;1.096374e-001
1.226557e+003;1.123153e-001
1.228485e+003;1.149626e-001
1.230414e+003;1.166142e-001
1.232342e+003;1.178918e-001
1.234271e+003;1.188822e-001
1.236199e+003;1.190954e-001
1.238128e+003;1.188142e-001
1.240056e+003;1.182594e-001
1.241985e+003;1.173072e-001
1.243913e+003;1.159697e-001
1.245842e+003;1.147793e-001
1.247771e+003;1.135868e-001
1.249699e+003;1.120772e-001
1.251628e+003;1.095999e-001
1.253556e+003;1.072419e-001
1.255485e+003;1.056855e-001
1.257413e+003;1.040678e-001
1.259342e+003;1.020165e-001
1.261270e+003;9.996484e-002
1.263199e+003;9.788296e-002
1.265127e+003;9.568000e-002
1.267056e+003;9.340256e-002
1.268985e+003;9.137040e-002
1.270913e+003;8.918663e-002
1.272842e+003;8.657977e-002
1.274770e+003;8.446248e-002
1.276699e+003;8.297063e-002
1.278627e+003;8.121690e-002
1.280556e+003;7.937467e-002
1.282484e+003;7.775037e-002
1.284413e+003;7.624293e-002
1.286342e+003;7.509524e-002
1.288270e+003;7.424871e-002
1.290199e+003;7.403023e-002
1.292127e+003;7.425299e-002
1.294056e+003;7.465924e-002
1.295984e+003;7.562495e-002
1.297913e+003;7.682505e-002
1.299841e+003;7.817046e-002
1.301770e+003;7.988036e-002
1.303698e+003;8.221346e-002
1.305627e+003;8.451755e-002
1.307556e+003;8.668846e-002
1.309484e+003;8.905417e-002
1.311413e+003;9.116325e-002
1.313341e+003;9.271548e-002
1.315270e+003;9.366838e-002
1.317198e+003;9.413510e-002
1.319127e+003;9.420095e-002
1.321055e+003;9.381397e-002
1.322984e+003;9.274559e-002
1.324912e+003;9.183834e-002
1.326841e+003;9.170704e-002
1.328770e+003;9.171715e-002
1.330698e+003;9.104028e-002
1.332627e+003;9.017304e-002
1.334555e+003;8.998781e-002
1.336484e+003;8.917365e-002
1.338412e+003;8.759440e-002
1.340341e+003;8.612829e-002
1.342269e+003;8.451271e-002
1.344198e+003;8.311893e-002
1.346126e+003;8.212462e-002
1.348055e+003;8.126420e-002
1.349984e+003;8.088838e-002
1.351912e+003;8.103167e-002
1.353841e+003;8.207234e-002
1.355769e+003;8.348762e-002
1.357698e+003;8.499391e-002
1.359626e+003;8.644600e-002
1.361555e+003;8.753174e-002
1.363483e+003;8.805070e-002
1.365412e+003;8.859195e-002
1.367341e+003;8.893359e-002
1.369269e+003;8.877649e-002
1.371198e+003;8.790954e-002
1.373126e+003;8.641706e-002
1.375055e+003;8.481382e-002
1.376983e+003;8.255457e-002
1.378912e+003;7.962340e-002
1.380840e+003;7.691392e-002
1.382769e+003;7.446592e-002
1.384698e+003;7.204045e-002
1.386626e+003;6.946029e-002
1.388555e+003;6.747063e-002
1.390483e+003;6.631351e-002
1.392412e+003;6.510301e-002
1.394340e+003;6.445765e-002
1.396269e+003;6.466179e-002
1.398197e+003;6.491724e-002
1.400126e+003;6.512006e-002
1.402054e+003;6.545844e-002
1.403983e+003;6.591900e-002
1.405911e+003;6.661381e-002
1.407840e+003;6.752624e-002
1.409769e+003;6.874120e-002
1.411697e+003;7.006581e-002
1.413626e+003;7.153478e-002
1.415554e+003;7.327130e-002
1.417483e+003;7.488819e-002
1.419411e+003;7.597722e-002
1.421340e+003;7.659887e-002
1.423268e+003;7.648647e-002
1.425197e+003;7.579101e-002
1.427125e+003;7.477581e-002
1.429054e+003;7.339656e-002
1.430983e+003;7.203203e-002
1.432911e+003;7.010436e-002
1.434840e+003;6.824724e-002
1.436768e+003;6.693403e-002
1.438697e+003;6.595372e-002
1.440625e+003;6.527017e-002
1.442554e+003;6.518454e-002
1.444482e+003;6.579168e-002
1.446411e+003;6.641601e-002
1.448340e+003;6.705716e-002
1.450268e+003;6.759596e-002
1.452197e+003;6.784938e-002
1.454125e+003;6.786585e-002
1.456054e+003;6.762012e-002
1.457982e+003;6.712484e-002
1.459911e+003;6.694466e-002
1.461839e+003;6.627345e-002
1.463768e+003;6.463119e-002
1.465697e+003;6.251912e-002
1.467625e+003;6.020160e-002
1.469554e+003;5.736036e-002
1.471482e+003;5.440763e-002
1.473411e+003;5.113700e-002
1.475339e+003;4.818404e-002
1.477268e+003;4.579847e-002
1.479196e+003;4.383317e-002
1.481125e+003;4.212653e-002
1.483053e+003;4.090425e-002
1.484982e+003;4.000601e-002
1.486911e+003;3.938218e-002
1.488839e+003;3.925573e-002
1.490768e+003;3.969012e-002
1.492696e+003;4.059687e-002
1.494625e+003;4.145145e-002
1.496553e+003;4.238111e-002
1.498482e+003;4.351196e-002
1.500410e+003;4.438372e-002
1.502339e+003;4.507127e-002
1.504267e+003;4.546501e-002
1.506196e+003;4.516141e-002
1.508125e+003;4.422025e-002
1.510053e+003;4.296442e-002
1.511982e+003;4.119815e-002
1.513910e+003;3.925816e-002
1.515839e+003;3.768813e-002
1.517767e+003;3.591353e-002
1.519696e+003;3.394647e-002
1.521624e+003;3.257092e-002
1.523553e+003;3.168108e-002
1.525481e+003;3.105819e-002
1.527410e+003;3.051460e-002
1.529339e+003;2.997549e-002
1.531267e+003;2.945985e-002
1.533196e+003;2.862986e-002
1.535124e+003;2.846444e-002
1.537053e+003;2.856698e-002
1.538981e+003;2.814463e-002
1.540910e+003;2.776338e-002
1.542838e+003;2.751705e-002
1.544767e+003;2.795034e-002
1.546695e+003;2.825102e-002
1.548624e+003;2.785427e-002
1.550553e+003;2.784728e-002
1.552481e+003;2.807849e-002
1.554410e+003;2.796592e-002
1.556338e+003;2.780192e-002
1.558267e+003;2.753780e-002
1.560195e+003;2.747444e-002
1.562124e+003;2.790193e-002
1.564052e+003;2.858357e-002
1.565981e+003;2.906218e-002
1.567910e+003;2.989268e-002
1.569838e+003;3.099367e-002
1.571767e+003;3.179137e-002
1.573695e+003;3.241538e-002
1.575624e+003;3.336594e-002
1.577552e+003;3.484345e-002
1.579481e+003;3.695396e-002
1.581409e+003;3.910401e-002
1.583338e+003;4.105627e-002
1.585266e+003;4.295001e-002
1.587195e+003;4.480869e-002
1.589124e+003;4.658553e-002
1.591052e+003;4.787098e-002
1.592981e+003;4.845034e-002
1.594909e+003;4.809871e-002
1.596838e+003;4.741902e-002
1.598766e+003;4.684406e-002
1.600695e+003;4.598861e-002
1.602623e+003;4.515682e-002
1.604552e+003;4.471722e-002
1.606480e+003;4.420239e-002
1.608409e+003;4.351793e-002
1.610338e+003;4.325426e-002
1.612266e+003;4.276013e-002
1.614195e+003;4.219211e-002
1.616123e+003;4.216282e-002
1.618052e+003;4.242411e-002
1.619980e+003;4.277739e-002
1.621909e+003;4.277348e-002
1.623837e+003;4.287909e-002
1.625766e+003;4.339598e-002
1.627694e+003;4.387844e-002
1.629623e+003;4.417877e-002
1.631552e+003;4.474705e-002
1.633480e+003;4.536845e-002
1.635409e+003;4.556477e-002
1.637337e+003;4.617400e-002
1.639266e+003;4.697813e-002
1.641194e+003;4.764958e-002
1.643123e+003;4.819288e-002
1.645051e+003;4.826990e-002
1.646980e+003;4.824265e-002
1.648909e+003;4.827586e-002
1.650837e+003;4.801773e-002
1.652766e+003;4.762303e-002
1.654694e+003;4.764807e-002
1.656623e+003;4.751313e-002
1.658551e+003;4.692456e-002
1.660480e+003;4.605727e-002
1.662408e+003;4.558184e-002
1.664337e+003;4.534454e-002
1.666266e+003;4.437109e-002
1.668194e+003;4.312891e-002
1.670123e+003;4.227646e-002
1.672051e+003;4.128111e-002
1.673980e+003;3.994324e-002
1.675908e+003;3.907580e-002
1.677837e+003;3.861215e-002
1.679765e+003;3.782508e-002
1.681694e+003;3.702342e-002
1.683622e+003;3.600927e-002
1.685551e+003;3.553597e-002
1.687479e+003;3.542951e-002
1.689408e+003;3.516683e-002
1.691337e+003;3.485063e-002
1.693265e+003;3.445251e-002
1.695194e+003;3.426441e-002
1.697122e+003;3.458377e-002
1.699051e+003;3.503377e-002
1.700979e+003;3.557758e-002
1.702908e+003;3.654162e-002
1.704836e+003;3.769106e-002
1.706765e+003;3.915752e-002
1.708693e+003;4.095227e-002
1.710622e+003;4.268818e-002
1.712551e+003;4.454471e-002
1.714479e+003;4.647791e-002
1.716408e+003;4.821210e-002
1.718336e+003;5.032785e-002
1.720265e+003;5.261072e-002
1.722193e+003;5.434784e-002
1.724122e+003;5.610310e-002
1.726050e+003;5.772714e-002
1.727979e+003;5.877621e-002
1.729908e+003;5.959206e-002
1.731836e+003;6.002454e-002
1.733765e+003;6.012362e-002
1.735693e+003;6.045485e-002
1.737622e+003;6.040207e-002
1.739550e+003;5.962635e-002
1.741479e+003;5.850122e-002
1.743407e+003;5.718026e-002
1.745336e+003;5.561855e-002
1.747265e+003;5.382184e-002
1.749193e+003;5.152094e-002
1.751122e+003;4.914626e-002
1.753050e+003;4.669173e-002
1.754979e+003;4.409679e-002
1.756907e+003;4.139682e-002
1.758836e+003;3.857278e-002
1.760764e+003;3.579611e-002
1.762693e+003;3.314488e-002
1.764621e+003;3.033524e-002
1.766550e+003;2.753258e-002
1.768479e+003;2.525115e-002
1.770407e+003;2.295205e-002
1.772336e+003;2.086895e-002
1.774264e+003;1.935787e-002
1.776193e+003;1.806186e-002
1.778121e+003;1.682098e-002
1.780050e+003;1.555620e-002
1.781978e+003;1.451149e-002
1.783907e+003;1.351748e-002
1.785835e+003;1.267494e-002
1.787764e+003;1.218205e-002
1.789693e+003;1.173046e-002
1.791621e+003;1.114130e-002
1.793550e+003;1.063894e-002
1.795478e+003;1.024998e-002
1.797407e+003;9.993413e-003
1.799335e+003;9.874319e-003
1.801264e+003;9.565298e-003
1.803192e+003;8.839116e-003
1.805121e+003;8.437744e-003
1.807049e+003;8.415211e-003
1.808978e+003;8.339207e-003
1.810907e+003;8.154759e-003
1.812835e+003;7.706765e-003
1.814764e+003;7.484897e-003
1.816692e+003;7.415662e-003
1.818621e+003;7.024291e-003
1.820549e+003;6.754139e-003
1.822478e+003;6.572078e-003
1.824406e+003;6.452339e-003
1.826335e+003;6.314243e-003
1.828264e+003;6.175316e-003
1.830192e+003;6.158243e-003
1.832121e+003;5.998470e-003
1.834049e+003;6.000352e-003
1.835978e+003;6.019199e-003
1.837906e+003;5.576657e-003
1.839835e+003;5.114616e-003
1.841763e+003;5.194685e-003
1.843692e+003;5.223390e-003
1.845620e+003;5.034126e-003
1.847549e+003;4.979223e-003
1.849478e+003;4.874197e-003
1.851406e+003;4.597509e-003
1.853335e+003;4.435765e-003
1.855263e+003;4.269664e-003
1.857192e+003;4.276992e-003
1.859120e+003;4.667468e-003
1.861049e+003;4.937867e-003
1.862977e+003;4.934113e-003
1.864906e+003;4.805544e-003
1.866834e+003;4.675875e-003
1.868763e+003;4.841427e-003
1.870692e+003;4.902847e-003
1.872620e+003;4.736132e-003
1.874549e+003;4.561646e-003
1.876477e+003;4.354631e-003
1.878406e+003;4.182004e-003
1.880334e+003;4.253536e-003
1.882263e+003;4.369424e-003
1.884191e+003;4.357409e-003
1.886120e+003;4.407748e-003
1.888048e+003;4.623663e-003
1.889977e+003;4.698818e-003
1.891906e+003;4.690210e-003
1.893834e+003;4.498232e-003
1.895763e+003;4.564626e-003
1.897691e+003;4.695602e-003
1.899620e+003;4.770502e-003
1.901548e+003;4.745512e-003
1.903477e+003;4.421639e-003
1.905405e+003;4.251763e-003
1.907334e+003;4.630160e-003
1.909262e+003;4.789530e-003
1.911191e+003;4.752814e-003
1.913120e+003;4.653938e-003
1.915048e+003;4.880563e-003
1.916977e+003;5.222686e-003
1.918905e+003;5.243444e-003
1.920834e+003;5.394620e-003
1.922762e+003;5.411830e-003
1.924691e+003;5.389319e-003
1.926619e+003;5.455480e-003
1.928548e+003;5.381436e-003
1.930477e+003;5.760113e-003
1.932405e+003;6.040365e-003
1.934334e+003;5.807224e-003
1.936262e+003;5.796276e-003
1.938191e+003;5.889872e-003
1.940119e+003;5.723114e-003
1.942048e+003;5.730466e-003
1.943976e+003;5.759005e-003
1.945905e+003;5.970017e-003
1.947833e+003;6.429438e-003
1.949762e+003;6.616182e-003
1.951691e+003;6.512171e-003
1.953619e+003;6.476352e-003
1.955548e+003;6.507664e-003
1.957476e+003;6.550684e-003
1.959405e+003;6.630379e-003
1.961333e+003;6.811016e-003
1.963262e+003;6.741687e-003
1.965190e+003;6.780389e-003
1.967119e+003;6.783351e-003
1.969047e+003;6.914358e-003
1.970976e+003;7.155944e-003
1.972905e+003;6.950079e-003
1.974833e+003;6.816974e-003
1.976762e+003;7.079621e-003
1.978690e+003;7.154461e-003
1.980619e+003;7.173392e-003
1.982547e+003;7.264758e-003
1.984476e+003;7.549725e-003
1.986404e+003;7.888728e-003
1.988333e+003;7.971470e-003
1.990261e+003;7.900943e-003
1.992190e+003;7.904486e-003
1.994119e+003;8.187577e-003
1.996047e+003;8.509947e-003
1.997976e+003;8.493694e-003
1.999904e+003;8.406090e-003
2.001833e+003;8.490653e-003
2.003761e+003;8.589325e-003
2.005690e+003;8.677306e-003
2.007618e+003;8.762767e-003
2.009547e+003;9.060933e-003
2.011476e+003;9.372203e-003
2.013404e+003;9.273319e-003
2.015333e+003;9.460578e-003
2.017261e+003;9.974798e-003
2.019190e+003;1.017640e-002
2.021118e+003;1.023468e-002
2.023047e+003;1.025005e-002
2.024975e+003;1.020086e-002
2.026904e+003;1.018529e-002
2.028833e+003;1.018298e-002
2.030761e+003;1.036721e-002
2.032690e+003;1.040532e-002
2.034618e+003;1.048135e-002
2.036547e+003;1.074021e-002
2.038475e+003;1.103263e-002
2.040404e+003;1.115769e-002
2.042332e+003;1.127468e-002
2.044261e+003;1.137698e-002
2.046189e+003;1.129760e-002
2.048118e+003;1.126594e-002
2.050047e+003;1.127805e-002
2.051975e+003;1.130134e-002
2.053904e+003;1.156566e-002
2.055832e+003;1.181196e-002
2.057761e+003;1.167869e-002
2.059689e+003;1.143022e-002
2.061618e+003;1.140729e-002
2.063546e+003;1.153194e-002
2.065475e+003;1.130267e-002
2.067404e+003;1.111587e-002
2.069332e+003;1.154555e-002
2.071260e+003;1.185585e-002
2.073189e+003;1.166443e-002
2.075118e+003;1.159823e-002
2.077046e+003;1.147046e-002
2.078975e+003;1.127513e-002
2.080903e+003;1.141001e-002
2.082832e+003;1.148945e-002
2.084760e+003;1.157788e-002
2.086689e+003;1.158186e-002
2.088617e+003;1.134675e-002
2.090546e+003;1.141831e-002
2.092475e+003;1.165387e-002
2.094403e+003;1.176910e-002
2.096332e+003;1.171480e-002
2.098260e+003;1.155835e-002
2.100189e+003;1.161069e-002
2.102117e+003;1.169257e-002
2.104046e+003;1.181652e-002
2.105974e+003;1.191827e-002
2.107903e+003;1.195018e-002
2.109832e+003;1.192151e-002
2.111760e+003;1.184148e-002
2.113688e+003;1.194732e-002
2.115617e+003;1.223869e-002
2.117546e+003;1.227103e-002
2.119474e+003;1.233692e-002
2.121403e+003;1.236037e-002
2.123331e+003;1.224905e-002
2.125260e+003;1.241250e-002
2.127188e+003;1.270602e-002
2.129117e+003;1.258263e-002
2.131045e+003;1.238079e-002
2.132974e+003;1.243432e-002
2.134903e+003;1.266638e-002
2.136831e+003;1.275751e-002
2.138760e+003;1.253959e-002
2.140688e+003;1.252005e-002
2.142617e+003;1.254549e-002
2.144545e+003;1.249546e-002
2.146474e+003;1.246136e-002
2.148402e+003;1.233426e-002
2.150331e+003;1.216716e-002
2.152260e+003;1.218672e-002
2.154188e+003;1.209213e-002
2.156117e+003;1.222168e-002
2.158045e+003;1.237333e-002
2.159974e+003;1.211094e-002
2.161902e+003;1.169019e-002
2.163831e+003;1.179841e-002
2.165759e+003;1.200189e-002
2.167688e+003;1.179177e-002
2.169616e+003;1.176610e-002
2.171545e+003;1.186566e-002
2.173474e+003;1.152021e-002
2.175402e+003;1.142376e-002
2.177331e+003;1.147077e-002
2.179259e+003;1.120450e-002
2.181188e+003;1.101700e-002
2.183116e+003;1.085944e-002
2.185045e+003;1.053627e-002
2.186973e+003;1.062549e-002
2.188902e+003;1.088053e-002
2.190831e+003;1.077849e-002
2.192759e+003;1.044998e-002
2.194688e+003;1.023858e-002
2.196616e+003;1.048315e-002
2.198545e+003;1.078053e-002
2.200473e+003;1.080563e-002
2.202402e+003;1.040770e-002
2.204330e+003;9.992260e-003
2.206259e+003;1.005401e-002
2.208188e+003;1.045056e-002
2.210116e+003;1.074924e-002
2.212044e+003;1.082621e-002
2.213973e+003;1.072520e-002
2.215902e+003;1.076782e-002
2.217830e+003;1.077275e-002
2.219759e+003;1.087146e-002
2.221687e+003;1.069191e-002
2.223616e+003;1.046984e-002
2.225544e+003;1.045375e-002
2.227473e+003;1.076925e-002
2.229401e+003;1.088587e-002
2.231330e+003;1.099199e-002
2.233259e+003;1.116092e-002
2.235187e+003;1.144226e-002
2.237116e+003;1.123493e-002
2.239044e+003;1.083121e-002
2.240973e+003;1.076116e-002
2.242901e+003;1.084700e-002
2.244830e+003;1.100775e-002
2.246758e+003;1.108474e-002
2.248687e+003;1.106139e-002
2.250615e+003;1.111298e-002
2.252544e+003;1.097938e-002
2.254473e+003;1.089946e-002
2.256401e+003;1.064006e-002
2.258330e+003;1.052235e-002
2.260258e+003;1.100731e-002
2.262187e+003;1.111003e-002
2.264115e+003;1.082034e-002
2.266044e+003;1.069820e-002
2.267972e+003;1.074924e-002
2.269901e+003;1.096483e-002
2.271830e+003;1.108616e-002
2.273758e+003;1.062139e-002
2.275687e+003;1.018868e-002
2.277615e+003;1.023645e-002
2.279544e+003;1.026874e-002
2.281472e+003;1.027237e-002
2.283401e+003;1.048477e-002
2.285329e+003;1.058013e-002
2.287258e+003;1.042256e-002
2.289187e+003;1.044129e-002
2.291115e+003;1.053067e-002
2.293043e+003;1.069908e-002
2.294972e+003;1.082998e-002
2.296901e+003;1.068529e-002
2.298829e+003;1.042399e-002
2.300758e+003;1.036266e-002
2.302686e+003;1.057239e-002
2.304615e+003;1.083559e-002
2.306543e+003;1.085886e-002
2.308472e+003;1.065551e-002
2.310400e+003;1.052629e-002
2.312329e+003;1.072489e-002
2.314258e+003;1.071311e-002
2.316186e+003;1.026871e-002
2.318115e+003;1.014038e-002
2.320043e+003;1.010999e-002
2.321972e+003;1.006550e-002
2.323900e+003;9.764137e-003
2.325829e+003;9.584808e-003
2.327757e+003;9.554763e-003
2.329686e+003;9.796704e-003
2.331615e+003;9.541350e-003
2.333543e+003;9.144812e-003
2.335472e+003;9.464709e-003
2.337400e+003;9.630200e-003
2.339329e+003;9.888318e-003
2.341257e+003;1.029751e-002
2.343186e+003;1.023170e-002
2.345114e+003;1.026549e-002
2.347043e+003;1.096031e-002
2.348971e+003;1.155008e-002
2.350900e+003;1.127740e-002
2.352829e+003;1.071525e-002
2.354757e+003;1.030135e-002
2.356686e+003;1.003424e-002
2.358614e+003;1.013672e-002
2.360543e+003;1.041499e-002
2.362471e+003;1.033256e-002
2.364400e+003;1.024466e-002
2.366328e+003;1.042470e-002
2.368257e+003;1.073128e-002
2.370186e+003;1.121973e-002
2.372114e+003;1.168315e-002
2.374042e+003;1.215192e-002
2.375971e+003;1.262101e-002
2.377900e+003;1.296389e-002
2.379828e+003;1.311945e-002
2.381757e+003;1.343716e-002
2.383685e+003;1.362975e-002
2.385614e+003;1.366545e-002
2.387542e+003;1.387137e-002
2.389471e+003;1.404030e-002
2.391399e+003;1.399577e-002
2.393328e+003;1.418710e-002
2.395257e+003;1.445161e-002
2.397185e+003;1.447069e-002
2.399114e+003;1.437036e-002
2.401042e+003;1.420898e-002
2.402971e+003;1.448761e-002
2.404899e+003;1.480400e-002
2.406828e+003;1.485704e-002
2.408756e+003;1.519332e-002
2.410685e+003;1.557313e-002
2.412614e+003;1.548453e-002
2.414542e+003;1.543859e-002
2.416471e+003;1.558151e-002
2.418399e+003;1.573495e-002
2.420328e+003;1.606253e-002
2.422256e+003;1.648791e-002
2.424185e+003;1.665125e-002
2.426113e+003;1.656766e-002
2.428042e+003;1.668065e-002
2.429970e+003;1.695805e-002
2.431899e+003;1.689059e-002
2.433828e+003;1.689955e-002
2.435756e+003;1.687099e-002
2.437685e+003;1.667611e-002
2.439613e+003;1.678079e-002
2.441542e+003;1.722390e-002
2.443470e+003;1.723104e-002
2.445399e+003;1.710305e-002
2.447327e+003;1.732982e-002
2.449256e+003;1.741318e-002
2.451185e+003;1.760771e-002
2.453113e+003;1.774965e-002
2.455042e+003;1.782745e-002
2.456970e+003;1.799634e-002
2.458899e+003;1.801723e-002
2.460827e+003;1.821345e-002
2.462756e+003;1.845411e-002
2.464684e+003;1.850030e-002
2.466613e+003;1.857271e-002
2.468542e+003;1.872874e-002
2.470470e+003;1.890769e-002
2.472398e+003;1.876852e-002
2.474327e+003;1.850615e-002
2.476256e+003;1.896854e-002
2.478184e+003;1.926697e-002
2.480113e+003;1.933553e-002
2.482041e+003;1.946206e-002
2.483970e+003;1.943767e-002
2.485898e+003;1.953705e-002
2.487827e+003;1.993116e-002
2.489755e+003;2.008639e-002
2.491684e+003;1.996672e-002
2.493613e+003;2.019572e-002
2.495541e+003;2.028924e-002
2.497470e+003;2.009524e-002
2.499398e+003;2.002227e-002
2.501327e+003;2.034587e-002
2.503255e+003;2.075177e-002
2.505184e+003;2.072807e-002
2.507112e+003;2.070833e-002
2.509041e+003;2.084162e-002
2.510969e+003;2.079160e-002
2.512898e+003;2.068515e-002
2.514827e+003;2.081937e-002
2.516755e+003;2.101269e-002
2.518684e+003;2.100198e-002
2.520612e+003;2.104816e-002
2.522541e+003;2.118354e-002
2.524469e+003;2.135520e-002
2.526398e+003;2.133752e-002
2.528326e+003;2.134385e-002
2.530255e+003;2.159653e-002
2.532184e+003;2.167106e-002
2.534112e+003;2.169074e-002
2.536041e+003;2.170805e-002
2.537969e+003;2.171101e-002
2.539898e+003;2.132061e-002
2.541826e+003;2.136536e-002
2.543755e+003;2.167635e-002
2.545683e+003;2.149924e-002
2.547612e+003;2.150610e-002
2.549541e+003;2.161704e-002
2.551469e+003;2.152616e-002
2.553397e+003;2.160200e-002
2.555326e+003;2.161265e-002
2.557255e+003;2.190789e-002
2.559183e+003;2.219392e-002
2.561112e+003;2.190632e-002
2.563040e+003;2.171686e-002
2.564969e+003;2.173647e-002
2.566897e+003;2.201977e-002
2.568826e+003;2.236778e-002
2.570754e+003;2.228808e-002
2.572683e+003;2.213098e-002
2.574612e+003;2.227054e-002
2.576540e+003;2.229321e-002
2.578469e+003;2.270707e-002
2.580397e+003;2.337067e-002
2.582326e+003;2.335840e-002
2.584254e+003;2.308915e-002
2.586183e+003;2.296386e-002
2.588111e+003;2.287615e-002
2.590040e+003;2.276779e-002
2.591969e+003;2.278165e-002
2.593897e+003;2.266305e-002
2.595826e+003;2.255921e-002
2.597754e+003;2.280882e-002
2.599683e+003;2.329977e-002
2.601611e+003;2.343963e-002
2.603540e+003;2.343344e-002
2.605468e+003;2.357790e-002
2.607397e+003;2.361834e-002
2.609325e+003;2.379323e-002
2.611254e+003;2.397411e-002
2.613183e+003;2.418352e-002
2.615111e+003;2.423481e-002
2.617040e+003;2.430674e-002
2.618968e+003;2.468493e-002
2.620897e+003;2.470261e-002
2.622825e+003;2.441906e-002
2.624754e+003;2.454211e-002
2.626682e+003;2.481679e-002
2.628611e+003;2.490317e-002
2.630540e+003;2.519507e-002
2.632468e+003;2.529217e-002
2.634396e+003;2.493110e-002
2.636325e+003;2.483082e-002
2.638254e+003;2.479637e-002
2.640182e+003;2.495956e-002
2.642111e+003;2.523450e-002
2.644039e+003;2.547104e-002
2.645968e+003;2.574684e-002
2.647896e+003;2.598249e-002
2.649825e+003;2.603206e-002
2.651753e+003;2.597419e-002
2.653682e+003;2.573917e-002
2.655611e+003;2.578340e-002
2.657539e+003;2.597117e-002
2.659468e+003;2.593761e-002
2.661396e+003;2.601401e-002
2.663325e+003;2.611024e-002
2.665253e+003;2.628019e-002
2.667182e+003;2.650885e-002
2.669110e+003;2.668812e-002
2.671039e+003;2.693606e-002
2.672968e+003;2.711921e-002
2.674896e+003;2.697805e-002
2.676825e+003;2.712069e-002
2.678753e+003;2.753004e-002
2.680682e+003;2.745940e-002
2.682610e+003;2.715303e-002
2.684539e+003;2.727685e-002
2.686467e+003;2.791758e-002
2.688396e+003;2.793122e-002
2.690324e+003;2.795122e-002
2.692253e+003;2.834102e-002
2.694182e+003;2.841827e-002
2.696110e+003;2.836054e-002
2.698039e+003;2.824798e-002
2.699967e+003;2.849727e-002
2.701896e+003;2.910530e-002
2.703824e+003;2.928653e-002
2.705753e+003;2.910101e-002
2.707681e+003;2.889188e-002
2.709610e+003;2.908719e-002
2.711539e+003;2.962438e-002
2.713467e+003;2.958568e-002
2.715396e+003;2.930163e-002
2.717324e+003;2.950024e-002
2.719253e+003;2.981349e-002
2.721181e+003;3.013542e-002
2.723110e+003;2.996733e-002
2.725038e+003;2.957110e-002
2.726967e+003;2.973905e-002
2.728896e+003;3.035478e-002
2.730824e+003;3.074785e-002
2.732752e+003;3.056245e-002
2.734681e+003;3.031229e-002
2.736610e+003;3.044167e-002
2.738538e+003;3.053454e-002
2.740467e+003;3.055228e-002
2.742395e+003;3.078412e-002
2.744324e+003;3.100894e-002
2.746252e+003;3.119581e-002
2.748181e+003;3.105392e-002
2.750109e+003;3.079632e-002
2.752038e+003;3.083563e-002
2.753967e+003;3.089106e-002
2.755895e+003;3.105189e-002
2.757824e+003;3.158087e-002
2.759752e+003;3.183557e-002
2.761681e+003;3.181158e-002
2.763609e+003;3.149910e-002
2.765538e+003;3.144063e-002
2.767466e+003;3.172731e-002
2.769395e+003;3.220036e-002
2.771323e+003;3.243587e-002
2.773252e+003;3.238796e-002
2.775181e+003;3.258314e-002
2.777109e+003;3.281153e-002
2.779038e+003;3.278462e-002
2.780966e+003;3.282629e-002
2.782895e+003;3.306482e-002
2.784823e+003;3.330419e-002
2.786752e+003;3.345769e-002
2.788680e+003;3.363828e-002
2.790609e+003;3.380837e-002
2.792538e+003;3.411639e-002
2.794466e+003;3.447485e-002
2.796395e+003;3.466753e-002
2.798323e+003;3.472104e-002
2.800252e+003;3.466950e-002
2.802180e+003;3.472980e-002
2.804109e+003;3.519130e-002
2.806037e+003;3.567149e-002
2.807966e+003;3.595517e-002
2.809895e+003;3.636015e-002
2.811823e+003;3.703969e-002
2.813751e+003;3.720116e-002
2.815680e+003;3.728928e-002
2.817609e+003;3.798062e-002
2.819537e+003;3.859850e-002
2.821466e+003;3.880609e-002
2.823394e+003;3.877877e-002
2.825323e+003;3.946356e-002
2.827251e+003;4.031821e-002
2.829180e+003;4.077248e-002
2.831108e+003;4.107237e-002
2.833037e+003;4.171983e-002
2.834966e+003;4.264472e-002
2.836894e+003;4.336727e-002
2.838823e+003;4.440684e-002
2.840751e+003;4.524617e-002
2.842680e+003;4.580962e-002
2.844608e+003;4.673472e-002
2.846537e+003;4.801765e-002
2.848465e+003;4.902907e-002
2.850394e+003;4.969827e-002
2.852323e+003;5.051544e-002
2.854251e+003;5.137938e-002
2.856180e+003;5.220585e-002
2.858108e+003;5.286246e-002
2.860037e+003;5.347573e-002
2.861965e+003;5.420014e-002
2.863894e+003;5.530728e-002
2.865822e+003;5.639370e-002
2.867751e+003;5.692811e-002
2.869679e+003;5.742086e-002
2.871608e+003;5.779311e-002
2.873536e+003;5.835976e-002
2.875465e+003;5.889492e-002
2.877394e+003;5.927623e-002
2.879322e+003;5.983876e-002
2.881251e+003;6.016171e-002
2.883179e+003;6.030453e-002
2.885108e+003;6.042914e-002
2.887036e+003;6.020829e-002
2.888965e+003;6.022219e-002
2.890893e+003;6.067163e-002
2.892822e+003;6.078035e-002
2.894750e+003;6.095307e-002
2.896679e+003;6.102170e-002
2.898608e+003;6.091281e-002
2.900536e+003;6.090987e-002
2.902465e+003;6.034553e-002
2.904393e+003;5.965798e-002
2.906322e+003;5.967812e-002
2.908250e+003;5.995036e-002
2.910179e+003;5.968998e-002
2.912107e+003;5.907669e-002
2.914036e+003;5.900449e-002
2.915965e+003;5.876149e-002
2.917893e+003;5.827449e-002
2.919822e+003;5.771432e-002
2.921750e+003;5.725892e-002
2.923679e+003;5.685136e-002
2.925607e+003;5.647260e-002
2.927536e+003;5.588090e-002
2.929464e+003;5.500699e-002
2.931393e+003;5.460582e-002
2.933322e+003;5.456513e-002
2.935250e+003;5.430628e-002
2.937178e+003;5.360729e-002
2.939107e+003;5.280484e-002
2.941036e+003;5.223754e-002
2.942964e+003;5.170453e-002
2.944893e+003;5.099355e-002
2.946821e+003;5.017511e-002
2.948750e+003;4.940856e-002
2.950678e+003;4.810374e-002
2.952607e+003;4.668528e-002
2.954535e+003;4.632611e-002
2.956464e+003;4.599597e-002
2.958393e+003;4.541778e-002
2.960321e+003;4.450235e-002
2.962250e+003;4.353291e-002
2.964178e+003;4.305840e-002
2.966107e+003;4.258021e-002
2.968035e+003;4.202519e-002
2.969964e+003;4.151277e-002
2.971892e+003;4.066560e-002
2.973821e+003;3.989859e-002
2.975750e+003;3.931481e-002
2.977678e+003;3.914288e-002
2.979607e+003;3.885917e-002
2.981535e+003;3.820641e-002
2.983464e+003;3.818749e-002
2.985392e+003;3.791315e-002
2.987321e+003;3.718481e-002
2.989249e+003;3.642280e-002
2.991178e+003;3.603080e-002
2.993106e+003;3.588013e-002
2.995035e+003;3.543850e-002
2.996964e+003;3.506789e-002
2.998892e+003;3.510346e-002
3.000821e+003;3.528031e-002
3.002749e+003;3.547218e-002
3.004678e+003;3.511244e-002
3.006606e+003;3.440448e-002
3.008535e+003;3.433727e-002
3.010463e+003;3.484251e-002
3.012392e+003;3.466886e-002
3.014321e+003;3.410381e-002
3.016249e+003;3.407650e-002
3.018177e+003;3.415894e-002
3.020106e+003;3.425351e-002
3.022035e+003;3.458492e-002
3.023963e+003;3.477524e-002
3.025892e+003;3.475579e-002
3.027820e+003;3.464521e-002
3.029749e+003;3.453107e-002
3.031677e+003;3.487167e-002
3.033606e+003;3.520003e-002
3.035534e+003;3.541082e-002
3.037463e+003;3.561070e-002
3.039392e+003;3.531319e-002
3.041320e+003;3.487974e-002
3.043249e+003;3.525482e-002
3.045177e+003;3.571714e-002
3.047106e+003;3.595204e-002
3.049034e+003;3.624480e-002
3.050963e+003;3.644457e-002
3.052891e+003;3.676374e-002
3.054820e+003;3.712951e-002
3.056749e+003;3.723896e-002
3.058677e+003;3.732676e-002
3.060606e+003;3.749426e-002
3.062534e+003;3.778416e-002
3.064463e+003;3.804977e-002
3.066391e+003;3.808052e-002
3.068320e+003;3.815341e-002
3.070248e+003;3.804561e-002
3.072177e+003;3.837425e-002
3.074105e+003;3.906928e-002
3.076034e+003;3.937500e-002
3.077963e+003;3.988962e-002
3.079891e+003;4.007123e-002
3.081820e+003;4.006073e-002
3.083748e+003;4.038228e-002
3.085677e+003;4.056544e-002
3.087605e+003;4.095595e-002
3.089534e+003;4.160050e-002
3.091462e+003;4.210930e-002
3.093391e+003;4.204304e-002
3.095320e+003;4.185729e-002
3.097248e+003;4.242645e-002
3.099177e+003;4.298754e-002
3.101105e+003;4.277907e-002
3.103034e+003;4.272781e-002
3.104962e+003;4.285660e-002
3.106891e+003;4.320185e-002
3.108819e+003;4.364061e-002
3.110748e+003;4.412437e-002
3.112677e+003;4.453550e-002
3.114605e+003;4.496587e-002
3.116533e+003;4.560503e-002
3.118462e+003;4.557754e-002
3.120391e+003;4.547414e-002
3.122319e+003;4.569671e-002
3.124248e+003;4.631608e-002
3.126176e+003;4.698278e-002
3.128105e+003;4.712421e-002
3.130033e+003;4.752972e-002
3.131962e+003;4.840474e-002
3.133890e+003;4.862115e-002
3.135819e+003;4.850325e-002
3.137748e+003;4.864094e-002
3.139676e+003;4.904038e-002
3.141605e+003;4.940321e-002
3.143533e+003;4.983721e-002
3.145462e+003;5.029057e-002
3.147390e+003;5.105135e-002
3.149319e+003;5.153135e-002
3.151247e+003;5.169890e-002
3.153176e+003;5.196308e-002
3.155104e+003;5.217465e-002
3.157033e+003;5.252497e-002
3.158962e+003;5.316929e-002
3.160890e+003;5.378363e-002
3.162819e+003;5.427518e-002
3.164747e+003;5.461025e-002
3.166676e+003;5.475415e-002
3.168604e+003;5.524662e-002
3.170533e+003;5.600271e-002
3.172461e+003;5.653245e-002
3.174390e+003;5.757413e-002
3.176319e+003;5.846555e-002
3.178247e+003;5.837048e-002
3.180176e+003;5.789207e-002
3.182104e+003;5.814273e-002
3.184033e+003;5.881130e-002
3.185961e+003;5.928640e-002
3.187890e+003;6.004854e-002
3.189818e+003;6.068962e-002
3.191747e+003;6.121084e-002
3.193676e+003;6.186029e-002
3.195604e+003;6.252409e-002
3.197532e+003;6.331613e-002
3.199461e+003;6.328270e-002
3.201390e+003;6.351720e-002
3.203318e+003;6.427455e-002
3.205247e+003;6.467649e-002
3.207175e+003;6.487146e-002
3.209104e+003;6.549107e-002
3.211032e+003;6.626677e-002
3.212961e+003;6.695687e-002
3.214889e+003;6.741377e-002
3.216818e+003;6.789304e-002
3.218747e+003;6.870468e-002
3.220675e+003;6.944820e-002
3.222604e+003;6.975970e-002
3.224532e+003;6.968434e-002
3.226461e+003;6.991516e-002
3.228389e+003;7.141377e-002
3.230318e+003;7.263368e-002
3.232246e+003;7.314039e-002
3.234175e+003;7.371812e-002
3.236104e+003;7.384618e-002
3.238032e+003;7.421584e-002
3.239961e+003;7.488288e-002
3.241889e+003;7.528506e-002
3.243818e+003;7.591344e-002
3.245746e+003;7.662100e-002
3.247675e+003;7.743773e-002
3.249603e+003;7.825694e-002
3.251532e+003;7.902866e-002
3.253460e+003;7.986669e-002
3.255389e+003;8.046801e-002
3.257318e+003;8.109181e-002
3.259246e+003;8.187970e-002
3.261175e+003;8.230832e-002
3.263103e+003;8.258635e-002
3.265032e+003;8.249791e-002
3.266960e+003;8.316234e-002
3.268889e+003;8.426998e-002
3.270817e+003;8.476391e-002
3.272746e+003;8.557186e-002
3.274675e+003;8.640444e-002
3.276603e+003;8.657136e-002
3.278531e+003;8.710453e-002
3.280460e+003;8.714000e-002
3.282389e+003;8.699885e-002
3.284317e+003;8.738033e-002
3.286246e+003;8.791737e-002
3.288174e+003;8.845654e-002
3.290103e+003;8.922586e-002
3.292031e+003;8.961096e-002
3.293960e+003;8.978552e-002
3.295888e+003;9.075634e-002
3.297817e+003;9.117968e-002
3.299746e+003;9.075797e-002
3.301674e+003;9.067133e-002
3.303603e+003;9.080674e-002
3.305531e+003;9.077346e-002
3.307460e+003;9.081984e-002
3.309388e+003;9.086804e-002
3.311317e+003;9.116660e-002
3.313245e+003;9.130780e-002
3.315174e+003;9.182156e-002
3.317103e+003;9.282292e-002
3.319031e+003;9.303575e-002
3.320960e+003;9.330459e-002
3.322888e+003;9.354930e-002
3.324817e+003;9.371726e-002
3.326745e+003;9.364676e-002
3.328674e+003;9.347960e-002
3.330602e+003;9.353007e-002
3.332531e+003;9.399857e-002
3.334459e+003;9.415909e-002
3.336388e+003;9.369646e-002
3.338317e+003;9.352193e-002
3.340245e+003;9.329650e-002
3.342174e+003;9.348980e-002
3.344102e+003;9.454049e-002
3.346031e+003;9.467187e-002
3.347959e+003;9.382146e-002
3.349888e+003;9.357503e-002
3.351816e+003;9.347632e-002
3.353745e+003;9.292731e-002
3.355674e+003;9.259608e-002
3.357602e+003;9.280273e-002
3.359531e+003;9.310776e-002
3.361459e+003;9.307270e-002
3.363388e+003;9.302109e-002
3.365316e+003;9.277853e-002
3.367245e+003;9.223799e-002
3.369173e+003;9.182942e-002
3.371102e+003;9.168428e-002
3.373031e+003;9.151126e-002
3.374959e+003;9.144004e-002
3.376887e+003;9.130257e-002
3.378816e+003;9.114072e-002
3.380745e+003;9.069742e-002
3.382673e+003;8.996455e-002
3.384602e+003;8.971488e-002
3.386530e+003;8.972286e-002
3.388459e+003;8.950184e-002
3.390387e+003;8.930558e-002
3.392316e+003;8.890102e-002
3.394244e+003;8.836658e-002
3.396173e+003;8.825841e-002
3.398102e+003;8.789482e-002
3.400030e+003;8.763616e-002
3.401959e+003;8.724879e-002
3.403887e+003;8.680907e-002
3.405816e+003;8.645433e-002
3.407744e+003;8.588808e-002
3.409673e+003;8.514041e-002
3.411601e+003;8.447814e-002
3.413530e+003;8.417802e-002
3.415458e+003;8.402123e-002
3.417387e+003;8.404190e-002
3.419316e+003;8.375394e-002
3.421244e+003;8.259456e-002
3.423173e+003;8.196364e-002
3.425101e+003;8.181041e-002
3.427030e+003;8.132406e-002
3.428958e+003;8.100232e-002
3.430887e+003;8.098279e-002
3.432815e+003;8.009478e-002
3.434744e+003;7.853092e-002
3.436673e+003;7.787039e-002
3.438601e+003;7.777074e-002
3.440530e+003;7.744081e-002
3.442458e+003;7.700696e-002
3.444387e+003;7.630628e-002
3.446315e+003;7.573140e-002
3.448244e+003;7.578525e-002
3.450172e+003;7.544508e-002
3.452101e+003;7.445837e-002
3.454030e+003;7.324349e-002
3.455958e+003;7.270496e-002
3.457886e+003;7.222952e-002
3.459815e+003;7.137609e-002
3.461744e+003;7.083043e-002
3.463672e+003;7.026073e-002
3.465601e+003;6.974924e-002
3.467529e+003;6.922819e-002
3.469458e+003;6.807148e-002
3.471386e+003;6.734338e-002
3.473315e+003;6.713071e-002
3.475243e+003;6.687087e-002
3.477172e+003;6.624770e-002
3.479101e+003;6.520699e-002
3.481029e+003;6.451508e-002
3.482958e+003;6.369492e-002
3.484886e+003;6.316416e-002
3.486815e+003;6.322770e-002
3.488743e+003;6.262114e-002
3.490672e+003;6.149950e-002
3.492600e+003;6.047591e-002
3.494529e+003;5.959929e-002
3.496458e+003;5.945712e-002
3.498386e+003;5.953779e-002
3.500315e+003;5.902817e-002
3.502243e+003;5.793481e-002
3.504172e+003;5.659473e-002
3.506100e+003;5.607837e-002
3.508029e+003;5.615468e-002
3.509957e+003;5.526190e-002
3.511886e+003;5.452200e-002
3.513814e+003;5.383467e-002
3.515743e+003;5.300682e-002
3.517672e+003;5.268137e-002
3.519600e+003;5.197092e-002
3.521529e+003;5.110792e-002
3.523457e+003;5.059525e-002
3.525386e+003;4.962517e-002
3.527314e+003;4.857098e-002
3.529243e+003;4.858298e-002
3.531171e+003;4.844631e-002
3.533100e+003;4.753220e-002
3.535029e+003;4.665008e-002
3.536957e+003;4.626728e-002
3.538885e+003;4.533608e-002
3.540814e+003;4.395895e-002
3.542743e+003;4.330408e-002
3.544671e+003;4.292784e-002
3.546600e+003;4.270427e-002
3.548528e+003;4.243109e-002
3.550457e+003;4.160163e-002
3.552385e+003;4.052328e-002
3.554314e+003;3.973093e-002
3.556242e+003;3.942467e-002
3.558171e+003;3.888819e-002
3.560100e+003;3.829025e-002
3.562028e+003;3.777625e-002
3.563957e+003;3.729311e-002
3.565885e+003;3.678061e-002
3.567814e+003;3.610198e-002
3.569742e+003;3.539906e-002
3.571671e+003;3.458639e-002
3.573599e+003;3.395098e-002
3.575528e+003;3.377156e-002
3.577457e+003;3.349133e-002
3.579385e+003;3.267344e-002
3.581314e+003;3.201920e-002
3.583242e+003;3.199501e-002
3.585171e+003;3.173119e-002
3.587099e+003;3.124729e-002
3.589028e+003;3.064785e-002
3.590956e+003;2.958199e-002
3.592885e+003;2.887938e-002
3.594813e+003;2.884719e-002
3.596742e+003;2.860445e-002
3.598671e+003;2.817167e-002
3.600599e+003;2.765838e-002
3.602528e+003;2.711917e-002
3.604456e+003;2.692270e-002
3.606385e+003;2.642281e-002
3.608313e+003;2.595418e-002
3.610242e+003;2.589312e-002
3.612170e+003;2.541272e-002
3.614099e+003;2.489920e-002
3.616028e+003;2.470920e-002
3.617956e+003;2.430012e-002
3.619885e+003;2.407504e-002
3.621813e+003;2.368866e-002
3.623742e+003;2.315719e-002
3.625670e+003;2.287297e-002
3.627599e+003;2.258601e-002
3.629527e+003;2.195633e-002
3.631456e+003;2.188757e-002
3.633385e+003;2.193967e-002
3.635313e+003;2.117753e-002
3.637241e+003;2.072035e-002
3.639170e+003;2.029959e-002
3.641099e+003;1.961594e-002
3.643027e+003;1.950208e-002
3.644956e+003;1.937107e-002
3.646884e+003;1.856728e-002
3.648813e+003;1.772469e-002
3.650741e+003;1.764418e-002
3.652670e+003;1.762213e-002
3.654598e+003;1.743608e-002
3.656527e+003;1.703382e-002
3.658456e+003;1.619468e-002
3.660384e+003;1.572142e-002
3.662313e+003;1.586687e-002
3.664241e+003;1.536224e-002
3.666170e+003;1.428091e-002
3.668098e+003;1.348258e-002
3.670027e+003;1.304101e-002
3.671955e+003;1.274556e-002
3.673884e+003;1.228286e-002
3.675813e+003;1.184700e-002
3.677741e+003;1.230883e-002
3.679669e+003;1.227737e-002
3.681598e+003;1.148707e-002
3.683527e+003;1.097598e-002
3.685455e+003;1.058285e-002
3.687384e+003;1.014757e-002
3.689312e+003;1.014774e-002
3.691241e+003;1.008503e-002
3.693169e+003;9.452350e-003
3.695098e+003;9.078391e-003
3.697026e+003;9.292646e-003
3.698955e+003;9.131750e-003
3.700884e+003;9.144710e-003
3.702812e+003;8.992021e-003
3.704741e+003;8.198349e-003
3.706669e+003;8.259907e-003
3.708598e+003;8.255551e-003
3.710526e+003;7.904452e-003
3.712455e+003;7.918084e-003
3.714383e+003;7.609169e-003
3.716312e+003;7.471986e-003
3.718240e+003;7.641508e-003
3.720169e+003;7.385800e-003
3.722098e+003;7.100199e-003
3.724026e+003;7.106700e-003
3.725955e+003;6.442015e-003
3.727883e+003;6.261564e-003
3.729812e+003;6.743874e-003
3.731740e+003;6.762956e-003
3.733669e+003;6.732062e-003
3.735597e+003;6.240656e-003
3.737526e+003;5.871433e-003
3.739455e+003;6.029782e-003
3.741383e+003;6.329842e-003
3.743312e+003;6.164394e-003
3.745240e+003;5.705353e-003
3.747169e+003;5.581222e-003
3.749097e+003;5.576220e-003
3.751026e+003;5.805780e-003
3.752954e+003;6.085221e-003
3.754883e+003;6.257901e-003
3.756812e+003;6.258371e-003
3.758740e+003;5.900485e-003
3.760668e+003;6.183416e-003
3.762597e+003;6.955163e-003
3.764526e+003;6.978058e-003
3.766454e+003;6.343291e-003
3.768383e+003;5.716802e-003
3.770311e+003;5.512189e-003
3.772240e+003;5.271415e-003
3.774168e+003;5.467257e-003
3.776097e+003;6.016008e-003
3.778025e+003;5.967094e-003
3.779954e+003;5.974417e-003
3.781883e+003;6.072318e-003
3.783811e+003;5.790837e-003
3.785740e+003;5.766459e-003
3.787668e+003;5.689474e-003
3.789597e+003;6.036938e-003
3.791525e+003;6.566696e-003
3.793454e+003;6.607166e-003
3.795382e+003;6.224052e-003
3.797311e+003;5.960040e-003
3.799240e+003;5.690918e-003
3.801168e+003;5.127658e-003
3.803097e+003;4.767722e-003
3.805025e+003;5.132151e-003
3.806954e+003;5.835600e-003
3.808882e+003;5.954363e-003
3.810811e+003;5.666915e-003
3.812739e+003;5.810044e-003
3.814668e+003;6.179551e-003
3.816596e+003;6.389691e-003
3.818525e+003;6.058307e-003
3.820454e+003;5.496719e-003
3.822382e+003;5.719118e-003
3.824311e+003;6.030521e-003
3.826239e+003;6.623987e-003
3.828168e+003;6.807617e-003
3.830096e+003;6.280356e-003
3.832025e+003;6.309603e-003
3.833953e+003;6.327657e-003
3.835882e+003;6.047589e-003
3.837811e+003;6.167855e-003
3.839739e+003;6.531074e-003
3.841667e+003;6.683405e-003
3.843596e+003;6.921596e-003
3.845525e+003;7.176525e-003
3.847453e+003;7.130647e-003
3.849382e+003;6.892678e-003
3.851310e+003;6.376678e-003
3.853239e+003;6.231009e-003
3.855167e+003;6.668600e-003
3.857096e+003;7.195087e-003
3.859024e+003;7.420549e-003
3.860953e+003;6.887797e-003
3.862882e+003;6.888605e-003
3.864810e+003;7.206541e-003
3.866739e+003;7.088984e-003
3.868667e+003;6.405831e-003
3.870596e+003;6.248724e-003
3.872524e+003;7.200612e-003
3.874453e+003;7.811872e-003
3.876381e+003;7.871756e-003
3.878310e+003;7.791901e-003
3.880239e+003;7.168845e-003
3.882167e+003;7.299834e-003
3.884096e+003;7.716984e-003
3.886024e+003;7.937217e-003
3.887953e+003;8.460988e-003
3.889881e+003;8.365384e-003
3.891810e+003;8.332925e-003
3.893738e+003;8.292666e-003
3.895667e+003;8.237890e-003
3.897595e+003;8.486599e-003
3.899524e+003;9.216827e-003
3.901453e+003;9.495358e-003
3.903381e+003;8.955117e-003
3.905310e+003;8.873000e-003
3.907238e+003;9.138213e-003
3.909167e+003;9.424346e-003
3.911095e+003;9.226812e-003
3.913024e+003;8.459806e-003
3.914952e+003;8.610787e-003
3.916881e+003;8.980047e-003
3.918810e+003;9.083534e-003
3.920738e+003;8.927044e-003
3.922667e+003;8.989011e-003
3.924595e+003;9.226033e-003
3.926524e+003;9.511580e-003
3.928452e+003;9.872794e-003
3.930381e+003;9.862185e-003
3.932309e+003;1.017851e-002
3.934238e+003;1.031309e-002
3.936167e+003;1.007299e-002
3.938095e+003;9.935811e-003
3.940023e+003;1.016016e-002
3.941952e+003;1.054727e-002
3.943881e+003;1.066526e-002
3.945809e+003;1.077998e-002
3.947738e+003;1.062560e-002
3.949666e+003;1.025276e-002
3.951595e+003;1.049458e-002
3.953523e+003;1.150326e-002
3.955452e+003;1.181714e-002
3.957380e+003;1.149428e-002
3.959309e+003;1.108351e-002
3.961238e+003;1.063843e-002
3.963166e+003;1.094791e-002
3.965095e+003;1.170479e-002
3.967023e+003;1.154926e-002
3.968952e+003;1.152075e-002
3.970880e+003;1.195901e-002
3.972809e+003;1.208337e-002
3.974737e+003;1.212855e-002
3.976666e+003;1.193952e-002
3.978594e+003;1.120399e-002
3.980523e+003;1.105962e-002
3.982452e+003;1.151115e-002
3.984380e+003;1.179208e-002
3.986309e+003;1.159592e-002
3.988237e+003;1.140766e-002
3.990166e+003;1.132291e-002
3.992094e+003;1.113250e-002
3.994023e+003;1.116258e-002
3.995951e+003;1.107077e-002
3.997880e+003;1.113644e-002
3.999809e+003;1.120583e-002
4.001737e+003;0.000000e+000
