3.992094e+002;0.000000e+000
4.011380e+002;0.000000e+000
4.030665e+002;0.000000e+000
4.049951e+002;0.000000e+000
4.069236e+002;0.000000e+000
4.088522e+002;0.000000e+000
4.107807e+002;0.000000e+000
4.127093e+002;0.000000e+000
4.146378e+002;0.000000e+000
4.165664e+002;0.000000e+000
4.184949e+002;0.000000e+000
4.204235e+002;0.000000e+000
4.223520e+002;0.000000e+000
4.242806e+002;0.000000e+000
4.262091e+002;0.000000e+000
4.281377e+002;0.000000e+000
4.300662e+002;0.000000e+000
4.319948e+002;0.000000e+000
4.339233e+002;0.000000e+000
4.358519e+002;0.000000e+000
4.377804e+002;0.000000e+000
4.397090e+002;0.000000e+000
4.416375e+002;0.000000e+000
4.435660e+002;0.000000e+000
4.454946e+002;0.000000e+000
4.474232e+002;0.000000e+000
4.493517e+002;0.000000e+000
4.512802e+002;0.000000e+000
4.532088e+002;0.000000e+000
4.551373e+002;0.000000e+000
4.570659e+002;0.000000e+000
4.589944e+002;0.000000e+000
4.609230e+002;0.000000e+000
4.628515e+002;0.000000e+000
4.647801e+002;0.000000e+000
4.667086e+002;0.000000e+000
4.686372e+002;0.000000e+000
4.705657e+002;0.000000e+000
4.724943e+002;0.000000e+000
4.744228e+002;0.000000e+000
4.763513e+002;0.000000e+000
4.782799e+002;0.000000e+000
4.802085e+002;0.000000e+000
4.821370e+002;0.000000e+000
4.840656e+002;0.000000e+000
4.859941e+002;0.000000e+000
4.879226e+002;0.000000e+000
4.898512e+002;0.000000e+000
4.917798e+002;0.000000e+000
4.937083e+002;0.000000e+000
4.956368e+002;0.000000e+000
4.975654e+002;0.000000e+000
4.994939e+002;0.000000e+000
5.014225e+002;0.000000e+000
5.033510e+002;0.000000e+000
5.052796e+002;0.000000e+000
5.072081e+002;0.000000e+000
5.091367e+002;0.000000e+000
5.110652e+002;0.000000e+000
5.129938e+002;0.000000e+000
5.149223e+002;0.000000e+000
5.168509e+002;0.000000e+000
5.187794e+002;0.000000e+000
5.207079e+002;0.000000e+000
5.226365e+002;0.000000e+000
5.245651e+002;0.000000e+000
5.264936e+002;0.000000e+000
5.284222e+002;0.000000e+000
5.303507e+002;0.000000e+000
5.322792e+002;0.000000e+000
5.342078e+002;0.000000e+000
5.361364e+002;0.000000e+000
5.380649e+002;0.000000e+000
5.399935e+002;0.000000e+000
5.419220e+002;0.000000e+000
5.438505e+002;0.000000e+000
5.457791e+002;0.000000e+000
5.477076e+002;0.000000e+000
5.496362e+002;0.000000e+000
5.515648e+002;0.000000e+000
5.534933e+002;0.000000e+000
5.554218e+002;0.000000e+000
5.573504e+002;0.000000e+000
5.592789e+002;0.000000e+000
5.612075e+002;0.000000e+000
5.631360e+002;0.000000e+000
5.650646e+002;0.000000e+000
5.669931e+002;0.000000e+000
5.689217e+002;0.000000e+000
5.708502e+002;0.000000e+000
5.727787e+002;0.000000e+000
5.747073e+002;0.000000e+000
5.766359e+002;0.000000e+000
5.785644e+002;0.000000e+000
5.804930e+002;0.000000e+000
5.824215e+002;0.000000e+000
5.843500e+002;0.000000e+000
5.862786e+002;0.000000e+000
5.882072e+002;0.000000e+000
5.901357e+002;0.000000e+000
5.920643e+002;0.000000e+000
5.939928e+002;0.000000e+000
5.959213e+002;0.000000e+000
5.978499e+002;0.000000e+000
5.997784e+002;1.933367e-001
6.017070e+002;2.007411e-001
6.036355e+002;2.025963e-001
6.055641e+002;1.941035e-001
6.074926e+002;1.876171e-001
6.094211e+002;1.825280e-001
6.113497e+002;1.848209e-001
6.132783e+002;1.894541e-001
6.152068e+002;1.886732e-001
6.171354e+002;1.887998e-001
6.190639e+002;1.855475e-001
6.209924e+002;1.837618e-001
6.229210e+002;1.837272e-001
6.248495e+002;1.766159e-001
6.267781e+002;1.711934e-001
6.287067e+002;1.696696e-001
6.306352e+002;1.736924e-001
6.325637e+002;1.765503e-001
6.344923e+002;1.708075e-001
6.364208e+002;1.705233e-001
6.383494e+002;1.705001e-001
6.402780e+002;1.681721e-001
6.422065e+002;1.659233e-001
6.441350e+002;1.673649e-001
6.460636e+002;1.657594e-001
6.479921e+002;1.613456e-001
6.499207e+002;1.633210e-001
6.518492e+002;1.667669e-001
6.537778e+002;1.678863e-001
6.557063e+002;1.679455e-001
6.576349e+002;1.678106e-001
6.595634e+002;1.708588e-001
6.614919e+002;1.748723e-001
6.634205e+002;1.731280e-001
6.653491e+002;1.684996e-001
6.672776e+002;1.649988e-001
6.692062e+002;1.649715e-001
6.711347e+002;1.625933e-001
6.730632e+002;1.596403e-001
6.749918e+002;1.584194e-001
6.769203e+002;1.563674e-001
6.788489e+002;1.541677e-001
6.807775e+002;1.506442e-001
6.827060e+002;1.474007e-001
6.846345e+002;1.457158e-001
6.865631e+002;1.441007e-001
6.884916e+002;1.440447e-001
6.904202e+002;1.437770e-001
6.923488e+002;1.421046e-001
6.942773e+002;1.419031e-001
6.962058e+002;1.426767e-001
6.981344e+002;1.415213e-001
7.000629e+002;1.406432e-001
7.019915e+002;1.404127e-001
7.039200e+002;1.383606e-001
7.058486e+002;1.371125e-001
7.077771e+002;1.355503e-001
7.097057e+002;1.348243e-001
7.116342e+002;1.340160e-001
7.135627e+002;1.321464e-001
7.154913e+002;1.314776e-001
7.174199e+002;1.307275e-001
7.193484e+002;1.286304e-001
7.212770e+002;1.253482e-001
7.232055e+002;1.236847e-001
7.251340e+002;1.238587e-001
7.270626e+002;1.233241e-001
7.289911e+002;1.220498e-001
7.309197e+002;1.200841e-001
7.328483e+002;1.200392e-001
7.347768e+002;1.214913e-001
7.367053e+002;1.209174e-001
7.386339e+002;1.186521e-001
7.405624e+002;1.160034e-001
7.424910e+002;1.144069e-001
7.444196e+002;1.145369e-001
7.463481e+002;1.149777e-001
7.482766e+002;1.140422e-001
7.502052e+002;1.133782e-001
7.521337e+002;1.137338e-001
7.540623e+002;1.138576e-001
7.559908e+002;1.133616e-001
7.579194e+002;1.122679e-001
7.598479e+002;1.113589e-001
7.617765e+002;1.102902e-001
7.637050e+002;1.092362e-001
7.656335e+002;1.085573e-001
7.675621e+002;1.086578e-001
7.694907e+002;1.095080e-001
7.714192e+002;1.098218e-001
7.733478e+002;1.090300e-001
7.752763e+002;1.085444e-001
7.772048e+002;1.093247e-001
7.791334e+002;1.094797e-001
7.810620e+002;1.089450e-001
7.829905e+002;1.090102e-001
7.849191e+002;1.090560e-001
7.868476e+002;1.076338e-001
7.887761e+002;1.060447e-001
7.907047e+002;1.054625e-001
7.926332e+002;1.042457e-001
7.945618e+002;1.029637e-001
7.964903e+002;1.023063e-001
7.984189e+002;1.025653e-001
8.003474e+002;1.035693e-001
8.022759e+002;1.039616e-001
8.042045e+002;1.033810e-001
8.061331e+002;1.025212e-001
8.080616e+002;1.023555e-001
8.099902e+002;1.026621e-001
8.119187e+002;1.037135e-001
8.138472e+002;1.050205e-001
8.157758e+002;1.060200e-001
8.177043e+002;1.061471e-001
8.196329e+002;1.054209e-001
8.215615e+002;1.052313e-001
8.234900e+002;1.062979e-001
8.254185e+002;1.073573e-001
8.273471e+002;1.080182e-001
8.292756e+002;1.082899e-001
8.312042e+002;1.081933e-001
8.331328e+002;1.085781e-001
8.350613e+002;1.087081e-001
8.369898e+002;1.083023e-001
8.389184e+002;1.073837e-001
8.408469e+002;1.065955e-001
8.427755e+002;1.072299e-001
8.447040e+002;1.082547e-001
8.466326e+002;1.084968e-001
8.485611e+002;1.085432e-001
8.504897e+002;1.089766e-001
8.524182e+002;1.096433e-001
8.543467e+002;1.096071e-001
8.562753e+002;1.098067e-001
8.582039e+002;1.106518e-001
8.601324e+002;1.123030e-001
8.620610e+002;1.142279e-001
8.639895e+002;1.152666e-001
8.659180e+002;1.164336e-001
8.678466e+002;1.186499e-001
8.697751e+002;1.208914e-001
8.717037e+002;1.224714e-001
8.736323e+002;1.233729e-001
8.755608e+002;1.243916e-001
8.774893e+002;1.260677e-001
8.794179e+002;1.284805e-001
8.813464e+002;1.309473e-001
8.832750e+002;1.339615e-001
8.852036e+002;1.371060e-001
8.871321e+002;1.395475e-001
8.890606e+002;1.419129e-001
8.909892e+002;1.441718e-001
8.929177e+002;1.455743e-001
8.948463e+002;1.470034e-001
8.967748e+002;1.483711e-001
8.987034e+002;1.483631e-001
9.006319e+002;1.475305e-001
9.025605e+002;1.466810e-001
9.044890e+002;1.451953e-001
9.064175e+002;1.438355e-001
9.083461e+002;1.436998e-001
9.102747e+002;1.436841e-001
9.122032e+002;1.431600e-001
9.141318e+002;1.430171e-001
9.160603e+002;1.434737e-001
9.179888e+002;1.440048e-001
9.199174e+002;1.439245e-001
9.218459e+002;1.443097e-001
9.237745e+002;1.456121e-001
9.257031e+002;1.468852e-001
9.276316e+002;1.478219e-001
9.295601e+002;1.493277e-001
9.314887e+002;1.513027e-001
9.334172e+002;1.534400e-001
9.353458e+002;1.552354e-001
9.372744e+002;1.571305e-001
9.392029e+002;1.594795e-001
9.411314e+002;1.621821e-001
9.430600e+002;1.648435e-001
9.449885e+002;1.678599e-001
9.469171e+002;1.711581e-001
9.488456e+002;1.745891e-001
9.507742e+002;1.786675e-001
9.527027e+002;1.832771e-001
9.546313e+002;1.878498e-001
9.565598e+002;1.927518e-001
9.584883e+002;1.977931e-001
9.604169e+002;2.032810e-001
9.623455e+002;2.084398e-001
9.642740e+002;2.139478e-001
9.662026e+002;2.203646e-001
9.681311e+002;2.267621e-001
9.700596e+002;2.330930e-001
9.719882e+002;2.407716e-001
9.739167e+002;2.488639e-001
9.758453e+002;2.564546e-001
9.777739e+002;2.648349e-001
9.797024e+002;2.738824e-001
9.816309e+002;2.827692e-001
9.835595e+002;2.909531e-001
9.854880e+002;2.978625e-001
9.874166e+002;3.031274e-001
9.893452e+002;3.065099e-001
9.912737e+002;3.089865e-001
9.932022e+002;3.114121e-001
9.951307e+002;3.144215e-001
9.970593e+002;3.178275e-001
9.989879e+002;3.214070e-001
1.000916e+003;3.242439e-001
1.002845e+003;3.273410e-001
1.004773e+003;3.319507e-001
1.006702e+003;3.362428e-001
1.008631e+003;3.392465e-001
1.010559e+003;3.421750e-001
1.012488e+003;3.454590e-001
1.014416e+003;3.493721e-001
1.016345e+003;3.536730e-001
1.018273e+003;3.572908e-001
1.020202e+003;3.597488e-001
1.022130e+003;3.622581e-001
1.024059e+003;3.639567e-001
1.025988e+003;3.650079e-001
1.027916e+003;3.659183e-001
1.029845e+003;3.663038e-001
1.031773e+003;3.657979e-001
1.033702e+003;3.640073e-001
1.035630e+003;3.612769e-001
1.037559e+003;3.578205e-001
1.039487e+003;3.544081e-001
1.041416e+003;3.500779e-001
1.043344e+003;3.453077e-001
1.045273e+003;3.413900e-001
1.047202e+003;3.379674e-001
1.049130e+003;3.335700e-001
1.051059e+003;3.281098e-001
1.052987e+003;3.221616e-001
1.054916e+003;3.161216e-001
1.056844e+003;3.092523e-001
1.058773e+003;3.017145e-001
1.060701e+003;2.936728e-001
1.062630e+003;2.847447e-001
1.064558e+003;2.757815e-001
1.066487e+003;2.664694e-001
1.068416e+003;2.586626e-001
1.070344e+003;2.522750e-001
1.072273e+003;2.460029e-001
1.074201e+003;2.405375e-001
1.076130e+003;2.361925e-001
1.078058e+003;2.321084e-001
1.079987e+003;2.283909e-001
1.081915e+003;2.254671e-001
1.083844e+003;2.224748e-001
1.085773e+003;2.190727e-001
1.087701e+003;2.167274e-001
1.089630e+003;2.151378e-001
1.091558e+003;2.135145e-001
1.093487e+003;2.121151e-001
1.095415e+003;2.109168e-001
1.097344e+003;2.098371e-001
1.099272e+003;2.083492e-001
1.101201e+003;2.065483e-001
1.103129e+003;2.044721e-001
1.105058e+003;2.013412e-001
1.106987e+003;1.971284e-001
1.108915e+003;1.921368e-001
1.110844e+003;1.876711e-001
1.112772e+003;1.830799e-001
1.114701e+003;1.782558e-001
1.116629e+003;1.733691e-001
1.118558e+003;1.687463e-001
1.120486e+003;1.643149e-001
1.122415e+003;1.601773e-001
1.124344e+003;1.557264e-001
1.126272e+003;1.511895e-001
1.128201e+003;1.468715e-001
1.130129e+003;1.417307e-001
1.132058e+003;1.370856e-001
1.133986e+003;1.336053e-001
1.135915e+003;1.301456e-001
1.137843e+003;1.269579e-001
1.139772e+003;1.247289e-001
1.141700e+003;1.235317e-001
1.143629e+003;1.225388e-001
1.145557e+003;1.216383e-001
1.147486e+003;1.204162e-001
1.149415e+003;1.196469e-001
1.151343e+003;1.195370e-001
1.153272e+003;1.183806e-001
1.155200e+003;1.162332e-001
1.157129e+003;1.148948e-001
1.159057e+003;1.135520e-001
1.160986e+003;1.114731e-001
1.162914e+003;1.088659e-001
1.164843e+003;1.059581e-001
1.166771e+003;1.030493e-001
1.168700e+003;1.007703e-001
1.170629e+003;9.871264e-002
1.172557e+003;9.605232e-002
1.174486e+003;9.311860e-002
1.176414e+003;9.146054e-002
1.178343e+003;9.089251e-002
1.180271e+003;9.030670e-002
1.182200e+003;8.997212e-002
1.184128e+003;9.005178e-002
1.186057e+003;9.061997e-002
1.187986e+003;9.175443e-002
1.189914e+003;9.362481e-002
1.191843e+003;9.591316e-002
1.193771e+003;9.803052e-002
1.195700e+003;1.000658e-001
1.197628e+003;1.023193e-001
1.199557e+003;1.041655e-001
1.201485e+003;1.056022e-001
1.203414e+003;1.070574e-001
1.205343e+003;1.085107e-001
1.207271e+003;1.101262e-001
1.209200e+003;1.116839e-001
1.211128e+003;1.135422e-001
1.213057e+003;1.158716e-001
1.214985e+003;1.185177e-001
1.216914e+003;1.218010e-001
1.218842e+003;1.254160e-001
1.220771e+003;1.287563e-001
1.222699e+003;1.315937e-001
1.224628e+003;1.342526e-001
1.226557e+003;1.365113e-001
1.228485e+003;1.384986e-001
1.230414e+003;1.399941e-001
1.232342e+003;1.410513e-001
1.234271e+003;1.417446e-001
1.236199e+003;1.415201e-001
1.238128e+003;1.409521e-001
1.240056e+003;1.406531e-001
1.241985e+003;1.405038e-001
1.243913e+003;1.400897e-001
1.245842e+003;1.386034e-001
1.247771e+003;1.367198e-001
1.249699e+003;1.350597e-001
1.251628e+003;1.335836e-001
1.253556e+003;1.322131e-001
1.255485e+003;1.305376e-001
1.257413e+003;1.283178e-001
1.259342e+003;1.261657e-001
1.261270e+003;1.245291e-001
1.263199e+003;1.224696e-001
1.265127e+003;1.205557e-001
1.267056e+003;1.185598e-001
1.268985e+003;1.160733e-001
1.270913e+003;1.140195e-001
1.272842e+003;1.121038e-001
1.274770e+003;1.100814e-001
1.276699e+003;1.084431e-001
1.278627e+003;1.066706e-001
1.280556e+003;1.044409e-001
1.282484e+003;1.024255e-001
1.284413e+003;1.010505e-001
1.286342e+003;1.000167e-001
1.288270e+003;9.922607e-002
1.290199e+003;9.855300e-002
1.292127e+003;9.826553e-002
1.294056e+003;9.872823e-002
1.295984e+003;9.936479e-002
1.297913e+003;9.977689e-002
1.299841e+003;1.004175e-001
1.301770e+003;1.015102e-001
1.303698e+003;1.031030e-001
1.305627e+003;1.047673e-001
1.307556e+003;1.065784e-001
1.309484e+003;1.086639e-001
1.311413e+003;1.107461e-001
1.313341e+003;1.122800e-001
1.315270e+003;1.136627e-001
1.317198e+003;1.149883e-001
1.319127e+003;1.154644e-001
1.321055e+003;1.153606e-001
1.322984e+003;1.149799e-001
1.324912e+003;1.143331e-001
1.326841e+003;1.132774e-001
1.328770e+003;1.123612e-001
1.330698e+003;1.118199e-001
1.332627e+003;1.109468e-001
1.334555e+003;1.096906e-001
1.336484e+003;1.082935e-001
1.338412e+003;1.067438e-001
1.340341e+003;1.054933e-001
1.342269e+003;1.046025e-001
1.344198e+003;1.037751e-001
1.346126e+003;1.024756e-001
1.348055e+003;1.013624e-001
1.349984e+003;1.014273e-001
1.351912e+003;1.020492e-001
1.353841e+003;1.027531e-001
1.355769e+003;1.034468e-001
1.357698e+003;1.047416e-001
1.359626e+003;1.062247e-001
1.361555e+003;1.070345e-001
1.363483e+003;1.076888e-001
1.365412e+003;1.083002e-001
1.367341e+003;1.082845e-001
1.369269e+003;1.078118e-001
1.371198e+003;1.069742e-001
1.373126e+003;1.055403e-001
1.375055e+003;1.037020e-001
1.376983e+003;1.015824e-001
1.378912e+003;9.928837e-002
1.380840e+003;9.680731e-002
1.382769e+003;9.429576e-002
1.384698e+003;9.191015e-002
1.386626e+003;8.975048e-002
1.388555e+003;8.795470e-002
1.390483e+003;8.658818e-002
1.392412e+003;8.542675e-002
1.394340e+003;8.441053e-002
1.396269e+003;8.382632e-002
1.398197e+003;8.372807e-002
1.400126e+003;8.417381e-002
1.402054e+003;8.442517e-002
1.403983e+003;8.443982e-002
1.405911e+003;8.487461e-002
1.407840e+003;8.567896e-002
1.409769e+003;8.682097e-002
1.411697e+003;8.820352e-002
1.413626e+003;8.974030e-002
1.415554e+003;9.125371e-002
1.417483e+003;9.222697e-002
1.419411e+003;9.286736e-002
1.421340e+003;9.360762e-002
1.423268e+003;9.373050e-002
1.425197e+003;9.270042e-002
1.427125e+003;9.121063e-002
1.429054e+003;8.980332e-002
1.430983e+003;8.824164e-002
1.432911e+003;8.653383e-002
1.434840e+003;8.472545e-002
1.436768e+003;8.335344e-002
1.438697e+003;8.288929e-002
1.440625e+003;8.288801e-002
1.442554e+003;8.290730e-002
1.444482e+003;8.312880e-002
1.446411e+003;8.352143e-002
1.448340e+003;8.389070e-002
1.450268e+003;8.441914e-002
1.452197e+003;8.501470e-002
1.454125e+003;8.505943e-002
1.456054e+003;8.397110e-002
1.457982e+003;8.343983e-002
1.459911e+003;8.339370e-002
1.461839e+003;8.213687e-002
1.463768e+003;8.033324e-002
1.465697e+003;7.854358e-002
1.467625e+003;7.636964e-002
1.469554e+003;7.355847e-002
1.471482e+003;7.046707e-002
1.473411e+003;6.764413e-002
1.475339e+003;6.537881e-002
1.477268e+003;6.299496e-002
1.479196e+003;6.097858e-002
1.481125e+003;5.956713e-002
1.483053e+003;5.826286e-002
1.484982e+003;5.700994e-002
1.486911e+003;5.608791e-002
1.488839e+003;5.550998e-002
1.490768e+003;5.547693e-002
1.492696e+003;5.586587e-002
1.494625e+003;5.615329e-002
1.496553e+003;5.664403e-002
1.498482e+003;5.754485e-002
1.500410e+003;5.875610e-002
1.502339e+003;5.986147e-002
1.504267e+003;5.959267e-002
1.506196e+003;5.830765e-002
1.508125e+003;5.790656e-002
1.510053e+003;5.751077e-002
1.511982e+003;5.652525e-002
1.513910e+003;5.530355e-002
1.515839e+003;5.358259e-002
1.517767e+003;5.158620e-002
1.519696e+003;4.936349e-002
1.521624e+003;4.736082e-002
1.523553e+003;4.618119e-002
1.525481e+003;4.499170e-002
1.527410e+003;4.395968e-002
1.529339e+003;4.337160e-002
1.531267e+003;4.288000e-002
1.533196e+003;4.257082e-002
1.535124e+003;4.275852e-002
1.537053e+003;4.252477e-002
1.538981e+003;4.143804e-002
1.540910e+003;4.119615e-002
1.542838e+003;4.194337e-002
1.544767e+003;4.258990e-002
1.546695e+003;4.286833e-002
1.548624e+003;4.293109e-002
1.550553e+003;4.332107e-002
1.552481e+003;4.365218e-002
1.554410e+003;4.388277e-002
1.556338e+003;4.392940e-002
1.558267e+003;4.367025e-002
1.560195e+003;4.454108e-002
1.562124e+003;4.609235e-002
1.564052e+003;4.747243e-002
1.565981e+003;4.881994e-002
1.567910e+003;4.965600e-002
1.569838e+003;5.042203e-002
1.571767e+003;5.182999e-002
1.573695e+003;5.345186e-002
1.575624e+003;5.535557e-002
1.577552e+003;5.793803e-002
1.579481e+003;6.043288e-002
1.581409e+003;6.272671e-002
1.583338e+003;6.494471e-002
1.585266e+003;6.710263e-002
1.587195e+003;6.911956e-002
1.589124e+003;7.086772e-002
1.591052e+003;7.238751e-002
1.592981e+003;7.374118e-002
1.594909e+003;7.439072e-002
1.596838e+003;7.445856e-002
1.598766e+003;7.402708e-002
1.600695e+003;7.338930e-002
1.602623e+003;7.346146e-002
1.604552e+003;7.332578e-002
1.606480e+003;7.271821e-002
1.608409e+003;7.231040e-002
1.610338e+003;7.215940e-002
1.612266e+003;7.207299e-002
1.614195e+003;7.170922e-002
1.616123e+003;7.137870e-002
1.618052e+003;7.179579e-002
1.619980e+003;7.222369e-002
1.621909e+003;7.173513e-002
1.623837e+003;7.134516e-002
1.625766e+003;7.134453e-002
1.627694e+003;7.146665e-002
1.629623e+003;7.144509e-002
1.631552e+003;7.153431e-002
1.633480e+003;7.116166e-002
1.635409e+003;7.072435e-002
1.637337e+003;7.116272e-002
1.639266e+003;7.146111e-002
1.641194e+003;7.130728e-002
1.643123e+003;7.102226e-002
1.645051e+003;7.046894e-002
1.646980e+003;7.011834e-002
1.648909e+003;7.056747e-002
1.650837e+003;7.023218e-002
1.652766e+003;6.936870e-002
1.654694e+003;6.977044e-002
1.656623e+003;7.039985e-002
1.658551e+003;7.036856e-002
1.660480e+003;7.002416e-002
1.662408e+003;6.953837e-002
1.664337e+003;6.939268e-002
1.666266e+003;6.916113e-002
1.668194e+003;6.830388e-002
1.670123e+003;6.760142e-002
1.672051e+003;6.701324e-002
1.673980e+003;6.640060e-002
1.675908e+003;6.601975e-002
1.677837e+003;6.580526e-002
1.679765e+003;6.541152e-002
1.681694e+003;6.486673e-002
1.683622e+003;6.388972e-002
1.685551e+003;6.386965e-002
1.687479e+003;6.461469e-002
1.689408e+003;6.479998e-002
1.691337e+003;6.496949e-002
1.693265e+003;6.498231e-002
1.695194e+003;6.493140e-002
1.697122e+003;6.593096e-002
1.699051e+003;6.688104e-002
1.700979e+003;6.799056e-002
1.702908e+003;6.993992e-002
1.704836e+003;7.160022e-002
1.706765e+003;7.357021e-002
1.708693e+003;7.576241e-002
1.710622e+003;7.770468e-002
1.712551e+003;7.941143e-002
1.714479e+003;8.077849e-002
1.716408e+003;8.196905e-002
1.718336e+003;8.358156e-002
1.720265e+003;8.556501e-002
1.722193e+003;8.671536e-002
1.724122e+003;8.744609e-002
1.726050e+003;8.820173e-002
1.727979e+003;8.864956e-002
1.729908e+003;8.896632e-002
1.731836e+003;8.860470e-002
1.733765e+003;8.757093e-002
1.735693e+003;8.709299e-002
1.737622e+003;8.639313e-002
1.739550e+003;8.485007e-002
1.741479e+003;8.282834e-002
1.743407e+003;8.063868e-002
1.745336e+003;7.843584e-002
1.747265e+003;7.590710e-002
1.749193e+003;7.316219e-002
1.751122e+003;7.041676e-002
1.753050e+003;6.788123e-002
1.754979e+003;6.488992e-002
1.756907e+003;6.171776e-002
1.758836e+003;5.878596e-002
1.760764e+003;5.562774e-002
1.762693e+003;5.259475e-002
1.764621e+003;4.994038e-002
1.766550e+003;4.715782e-002
1.768479e+003;4.451527e-002
1.770407e+003;4.209280e-002
1.772336e+003;3.985174e-002
1.774264e+003;3.838134e-002
1.776193e+003;3.693142e-002
1.778121e+003;3.546158e-002
1.780050e+003;3.409779e-002
1.781978e+003;3.255732e-002
1.783907e+003;3.104470e-002
1.785835e+003;2.985026e-002
1.787764e+003;2.885902e-002
1.789693e+003;2.759302e-002
1.791621e+003;2.628998e-002
1.793550e+003;2.545073e-002
1.795478e+003;2.460599e-002
1.797407e+003;2.390731e-002
1.799335e+003;2.325271e-002
1.801264e+003;2.235024e-002
1.803192e+003;2.160649e-002
1.805121e+003;2.115550e-002
1.807049e+003;2.078156e-002
1.808978e+003;2.030636e-002
1.810907e+003;2.001890e-002
1.812835e+003;1.962770e-002
1.814764e+003;1.894102e-002
1.816692e+003;1.840008e-002
1.818621e+003;1.799945e-002
1.820549e+003;1.756937e-002
1.822478e+003;1.730041e-002
1.824406e+003;1.717919e-002
1.826335e+003;1.706631e-002
1.828264e+003;1.679870e-002
1.830192e+003;1.645439e-002
1.832121e+003;1.638856e-002
1.834049e+003;1.631005e-002
1.835978e+003;1.598944e-002
1.837906e+003;1.561823e-002
1.839835e+003;1.557763e-002
1.841763e+003;1.550283e-002
1.843692e+003;1.527688e-002
1.845620e+003;1.504909e-002
1.847549e+003;1.486578e-002
1.849478e+003;1.495926e-002
1.851406e+003;1.488080e-002
1.853335e+003;1.479399e-002
1.855263e+003;1.489314e-002
1.857192e+003;1.470668e-002
1.859120e+003;1.434526e-002
1.861049e+003;1.404290e-002
1.862977e+003;1.378863e-002
1.864906e+003;1.360240e-002
1.866834e+003;1.347370e-002
1.868763e+003;1.375945e-002
1.870692e+003;1.410522e-002
1.872620e+003;1.412196e-002
1.874549e+003;1.417183e-002
1.876477e+003;1.421829e-002
1.878406e+003;1.408106e-002
1.880334e+003;1.401651e-002
1.882263e+003;1.386282e-002
1.884191e+003;1.371229e-002
1.886120e+003;1.371646e-002
1.888048e+003;1.370008e-002
1.889977e+003;1.386402e-002
1.891906e+003;1.436372e-002
1.893834e+003;1.441420e-002
1.895763e+003;1.423404e-002
1.897691e+003;1.425047e-002
1.899620e+003;1.424359e-002
1.901548e+003;1.411888e-002
1.903477e+003;1.427420e-002
1.905405e+003;1.452591e-002
1.907334e+003;1.454442e-002
1.909262e+003;1.450361e-002
1.911191e+003;1.445048e-002
1.913120e+003;1.443219e-002
1.915048e+003;1.445610e-002
1.916977e+003;1.462772e-002
1.918905e+003;1.495329e-002
1.920834e+003;1.516045e-002
1.922762e+003;1.505838e-002
1.924691e+003;1.482004e-002
1.926619e+003;1.499911e-002
1.928548e+003;1.537511e-002
1.930477e+003;1.537814e-002
1.932405e+003;1.526264e-002
1.934334e+003;1.529960e-002
1.936262e+003;1.550101e-002
1.938191e+003;1.567799e-002
1.940119e+003;1.567329e-002
1.942048e+003;1.563444e-002
1.943976e+003;1.555864e-002
1.945905e+003;1.573152e-002
1.947833e+003;1.611249e-002
1.949762e+003;1.623138e-002
1.951691e+003;1.606033e-002
1.953619e+003;1.603241e-002
1.955548e+003;1.618945e-002
1.957476e+003;1.661844e-002
1.959405e+003;1.660832e-002
1.961333e+003;1.633826e-002
1.963262e+003;1.635715e-002
1.965190e+003;1.648406e-002
1.967119e+003;1.654267e-002
1.969047e+003;1.648058e-002
1.970976e+003;1.640233e-002
1.972905e+003;1.654267e-002
1.974833e+003;1.638557e-002
1.976762e+003;1.640935e-002
1.978690e+003;1.661537e-002
1.980619e+003;1.679570e-002
1.982547e+003;1.707576e-002
1.984476e+003;1.727307e-002
1.986404e+003;1.748244e-002
1.988333e+003;1.758010e-002
1.990261e+003;1.745070e-002
1.992190e+003;1.735445e-002
1.994119e+003;1.771179e-002
1.996047e+003;1.801471e-002
1.997976e+003;1.783474e-002
1.999904e+003;1.768266e-002
2.001833e+003;1.784993e-002
2.003761e+003;1.806355e-002
2.005690e+003;1.817886e-002
2.007618e+003;1.825295e-002
2.009547e+003;1.847828e-002
2.011476e+003;1.882243e-002
2.013404e+003;1.921547e-002
2.015333e+003;1.946192e-002
2.017261e+003;1.957227e-002
2.019190e+003;1.971968e-002
2.021118e+003;1.981580e-002
2.023047e+003;1.996096e-002
2.024975e+003;2.016289e-002
2.026904e+003;2.011048e-002
2.028833e+003;2.034209e-002
2.030761e+003;2.096661e-002
2.032690e+003;2.123490e-002
2.034618e+003;2.109213e-002
2.036547e+003;2.113863e-002
2.038475e+003;2.135367e-002
2.040404e+003;2.124586e-002
2.042332e+003;2.137030e-002
2.044261e+003;2.156606e-002
2.046189e+003;2.129318e-002
2.048118e+003;2.123814e-002
2.050047e+003;2.144372e-002
2.051975e+003;2.163316e-002
2.053904e+003;2.171167e-002
2.055832e+003;2.160025e-002
2.057761e+003;2.154088e-002
2.059689e+003;2.164239e-002
2.061618e+003;2.172093e-002
2.063546e+003;2.170773e-002
2.065475e+003;2.183932e-002
2.067404e+003;2.200112e-002
2.069332e+003;2.200757e-002
2.071260e+003;2.208321e-002
2.073189e+003;2.220912e-002
2.075118e+003;2.207704e-002
2.077046e+003;2.189308e-002
2.078975e+003;2.192110e-002
2.080903e+003;2.192058e-002
2.082832e+003;2.205090e-002
2.084760e+003;2.212962e-002
2.086689e+003;2.187371e-002
2.088617e+003;2.174354e-002
2.090546e+003;2.191057e-002
2.092475e+003;2.209204e-002
2.094403e+003;2.249290e-002
2.096332e+003;2.250065e-002
2.098260e+003;2.232819e-002
2.100189e+003;2.247758e-002
2.102117e+003;2.246055e-002
2.104046e+003;2.250906e-002
2.105974e+003;2.285785e-002
2.107903e+003;2.288296e-002
2.109832e+003;2.294629e-002
2.111760e+003;2.310596e-002
2.113688e+003;2.321367e-002
2.115617e+003;2.324439e-002
2.117546e+003;2.314415e-002
2.119474e+003;2.325558e-002
2.121403e+003;2.340990e-002
2.123331e+003;2.355037e-002
2.125260e+003;2.372754e-002
2.127188e+003;2.366001e-002
2.129117e+003;2.338609e-002
2.131045e+003;2.331903e-002
2.132974e+003;2.328411e-002
2.134903e+003;2.312343e-002
2.136831e+003;2.339725e-002
2.138760e+003;2.388028e-002
2.140688e+003;2.373395e-002
2.142617e+003;2.341697e-002
2.144545e+003;2.340095e-002
2.146474e+003;2.355575e-002
2.148402e+003;2.348457e-002
2.150331e+003;2.332183e-002
2.152260e+003;2.320818e-002
2.154188e+003;2.301497e-002
2.156117e+003;2.294255e-002
2.158045e+003;2.318127e-002
2.159974e+003;2.331536e-002
2.161902e+003;2.321797e-002
2.163831e+003;2.280222e-002
2.165759e+003;2.252050e-002
2.167688e+003;2.250623e-002
2.169616e+003;2.244967e-002
2.171545e+003;2.235533e-002
2.173474e+003;2.220462e-002
2.175402e+003;2.201349e-002
2.177331e+003;2.196400e-002
2.179259e+003;2.169582e-002
2.181188e+003;2.142060e-002
2.183116e+003;2.121315e-002
2.185045e+003;2.112305e-002
2.186973e+003;2.121121e-002
2.188902e+003;2.130261e-002
2.190831e+003;2.127119e-002
2.192759e+003;2.100320e-002
2.194688e+003;2.089485e-002
2.196616e+003;2.099544e-002
2.198545e+003;2.094749e-002
2.200473e+003;2.099923e-002
2.202402e+003;2.116605e-002
2.204330e+003;2.116577e-002
2.206259e+003;2.082292e-002
2.208188e+003;2.033317e-002
2.210116e+003;2.050257e-002
2.212044e+003;2.102705e-002
2.213973e+003;2.130721e-002
2.215902e+003;2.129750e-002
2.217830e+003;2.128991e-002
2.219759e+003;2.112542e-002
2.221687e+003;2.104316e-002
2.223616e+003;2.121865e-002
2.225544e+003;2.130870e-002
2.227473e+003;2.105237e-002
2.229401e+003;2.097329e-002
2.231330e+003;2.120063e-002
2.233259e+003;2.128525e-002
2.235187e+003;2.142739e-002
2.237116e+003;2.171547e-002
2.239044e+003;2.172748e-002
2.240973e+003;2.161471e-002
2.242901e+003;2.175183e-002
2.244830e+003;2.188318e-002
2.246758e+003;2.198624e-002
2.248687e+003;2.196606e-002
2.250615e+003;2.180959e-002
2.252544e+003;2.170073e-002
2.254473e+003;2.148908e-002
2.256401e+003;2.133804e-002
2.258330e+003;2.145813e-002
2.260258e+003;2.166130e-002
2.262187e+003;2.162394e-002
2.264115e+003;2.141649e-002
2.266044e+003;2.159764e-002
2.267972e+003;2.189636e-002
2.269901e+003;2.169756e-002
2.271830e+003;2.144664e-002
2.273758e+003;2.147640e-002
2.275687e+003;2.150265e-002
2.277615e+003;2.165253e-002
2.279544e+003;2.204549e-002
2.281472e+003;2.207544e-002
2.283401e+003;2.174602e-002
2.285329e+003;2.186381e-002
2.287258e+003;2.190730e-002
2.289187e+003;2.168199e-002
2.291115e+003;2.166486e-002
2.293043e+003;2.172923e-002
2.294972e+003;2.165511e-002
2.296901e+003;2.172431e-002
2.298829e+003;2.197481e-002
2.300758e+003;2.198202e-002
2.302686e+003;2.184862e-002
2.304615e+003;2.186123e-002
2.306543e+003;2.185099e-002
2.308472e+003;2.156766e-002
2.310400e+003;2.139140e-002
2.312329e+003;2.147348e-002
2.314258e+003;2.159245e-002
2.316186e+003;2.137305e-002
2.318115e+003;2.103627e-002
2.320043e+003;2.092690e-002
2.321972e+003;2.087190e-002
2.323900e+003;2.077495e-002
2.325829e+003;2.080359e-002
2.327757e+003;2.076369e-002
2.329686e+003;2.035358e-002
2.331615e+003;2.025091e-002
2.333543e+003;2.040258e-002
2.335472e+003;2.048055e-002
2.337400e+003;2.097593e-002
2.339329e+003;2.117885e-002
2.341257e+003;2.102733e-002
2.343186e+003;2.143908e-002
2.345114e+003;2.227340e-002
2.347043e+003;2.307168e-002
2.348971e+003;2.329253e-002
2.350900e+003;2.307646e-002
2.352829e+003;2.252417e-002
2.354757e+003;2.202671e-002
2.356686e+003;2.161304e-002
2.358614e+003;2.108896e-002
2.360543e+003;2.105971e-002
2.362471e+003;2.138318e-002
2.364400e+003;2.168805e-002
2.366328e+003;2.198125e-002
2.368257e+003;2.270208e-002
2.370186e+003;2.361624e-002
2.372114e+003;2.434017e-002
2.374042e+003;2.483461e-002
2.375971e+003;2.560563e-002
2.377900e+003;2.621398e-002
2.379828e+003;2.636986e-002
2.381757e+003;2.664196e-002
2.383685e+003;2.681646e-002
2.385614e+003;2.686820e-002
2.387542e+003;2.684733e-002
2.389471e+003;2.706356e-002
2.391399e+003;2.745361e-002
2.393328e+003;2.770538e-002
2.395257e+003;2.799289e-002
2.397185e+003;2.816814e-002
2.399114e+003;2.810171e-002
2.401042e+003;2.814473e-002
2.402971e+003;2.851715e-002
2.404899e+003;2.882000e-002
2.406828e+003;2.900989e-002
2.408756e+003;2.930149e-002
2.410685e+003;2.964797e-002
2.412614e+003;2.974040e-002
2.414542e+003;2.964556e-002
2.416471e+003;2.960445e-002
2.418399e+003;2.960005e-002
2.420328e+003;2.986844e-002
2.422256e+003;3.038478e-002
2.424185e+003;3.074255e-002
2.426113e+003;3.106848e-002
2.428042e+003;3.138315e-002
2.429970e+003;3.146700e-002
2.431899e+003;3.145813e-002
2.433828e+003;3.143173e-002
2.435756e+003;3.147722e-002
2.437685e+003;3.154869e-002
2.439613e+003;3.187797e-002
2.441542e+003;3.235426e-002
2.443470e+003;3.254060e-002
2.445399e+003;3.277922e-002
2.447327e+003;3.309767e-002
2.449256e+003;3.301337e-002
2.451185e+003;3.306632e-002
2.453113e+003;3.312331e-002
2.455042e+003;3.309145e-002
2.456970e+003;3.325529e-002
2.458899e+003;3.356983e-002
2.460827e+003;3.395306e-002
2.462756e+003;3.428456e-002
2.464684e+003;3.457882e-002
2.466613e+003;3.438744e-002
2.468542e+003;3.427940e-002
2.470470e+003;3.436334e-002
2.472398e+003;3.470115e-002
2.474327e+003;3.515350e-002
2.476256e+003;3.506735e-002
2.478184e+003;3.515379e-002
2.480113e+003;3.541226e-002
2.482041e+003;3.559124e-002
2.483970e+003;3.586300e-002
2.485898e+003;3.611192e-002
2.487827e+003;3.652472e-002
2.489755e+003;3.659392e-002
2.491684e+003;3.635463e-002
2.493613e+003;3.653870e-002
2.495541e+003;3.673438e-002
2.497470e+003;3.705463e-002
2.499398e+003;3.738602e-002
2.501327e+003;3.728788e-002
2.503255e+003;3.754368e-002
2.505184e+003;3.781966e-002
2.507112e+003;3.764947e-002
2.509041e+003;3.759296e-002
2.510969e+003;3.773898e-002
2.512898e+003;3.797083e-002
2.514827e+003;3.823311e-002
2.516755e+003;3.843850e-002
2.518684e+003;3.842344e-002
2.520612e+003;3.848476e-002
2.522541e+003;3.870552e-002
2.524469e+003;3.884453e-002
2.526398e+003;3.889443e-002
2.528326e+003;3.888185e-002
2.530255e+003;3.895426e-002
2.532184e+003;3.910053e-002
2.534112e+003;3.936829e-002
2.536041e+003;3.937358e-002
2.537969e+003;3.921997e-002
2.539898e+003;3.931848e-002
2.541826e+003;3.962557e-002
2.543755e+003;3.991857e-002
2.545683e+003;3.993699e-002
2.547612e+003;3.978706e-002
2.549541e+003;3.976909e-002
2.551469e+003;3.987760e-002
2.553397e+003;4.006789e-002
2.555326e+003;4.019145e-002
2.557255e+003;4.044035e-002
2.559183e+003;4.069482e-002
2.561112e+003;4.058530e-002
2.563040e+003;4.079832e-002
2.564969e+003;4.107190e-002
2.566897e+003;4.118554e-002
2.568826e+003;4.118416e-002
2.570754e+003;4.110694e-002
2.572683e+003;4.117214e-002
2.574612e+003;4.128293e-002
2.576540e+003;4.138333e-002
2.578469e+003;4.145940e-002
2.580397e+003;4.156112e-002
2.582326e+003;4.181617e-002
2.584254e+003;4.213266e-002
2.586183e+003;4.218594e-002
2.588111e+003;4.220105e-002
2.590040e+003;4.231909e-002
2.591969e+003;4.213212e-002
2.593897e+003;4.227833e-002
2.595826e+003;4.244000e-002
2.597754e+003;4.284935e-002
2.599683e+003;4.345303e-002
2.601611e+003;4.347973e-002
2.603540e+003;4.328388e-002
2.605468e+003;4.320119e-002
2.607397e+003;4.325521e-002
2.609325e+003;4.363676e-002
2.611254e+003;4.394337e-002
2.613183e+003;4.400280e-002
2.615111e+003;4.399510e-002
2.617040e+003;4.401673e-002
2.618968e+003;4.412103e-002
2.620897e+003;4.443004e-002
2.622825e+003;4.456964e-002
2.624754e+003;4.473541e-002
2.626682e+003;4.463114e-002
2.628611e+003;4.459880e-002
2.630540e+003;4.509116e-002
2.632468e+003;4.573029e-002
2.634396e+003;4.580270e-002
2.636325e+003;4.558618e-002
2.638254e+003;4.585466e-002
2.640182e+003;4.584884e-002
2.642111e+003;4.572855e-002
2.644039e+003;4.577711e-002
2.645968e+003;4.572833e-002
2.647896e+003;4.580664e-002
2.649825e+003;4.608774e-002
2.651753e+003;4.616689e-002
2.653682e+003;4.630492e-002
2.655611e+003;4.696406e-002
2.657539e+003;4.745147e-002
2.659468e+003;4.734612e-002
2.661396e+003;4.726136e-002
2.663325e+003;4.745794e-002
2.665253e+003;4.767972e-002
2.667182e+003;4.773190e-002
2.669110e+003;4.785718e-002
2.671039e+003;4.798971e-002
2.672968e+003;4.800418e-002
2.674896e+003;4.789355e-002
2.676825e+003;4.806358e-002
2.678753e+003;4.852462e-002
2.680682e+003;4.883441e-002
2.682610e+003;4.890389e-002
2.684539e+003;4.905555e-002
2.686467e+003;4.936222e-002
2.688396e+003;4.967461e-002
2.690324e+003;4.980855e-002
2.692253e+003;4.996217e-002
2.694182e+003;4.982925e-002
2.696110e+003;4.977389e-002
2.698039e+003;5.002492e-002
2.699967e+003;5.008590e-002
2.701896e+003;5.042869e-002
2.703824e+003;5.055479e-002
2.705753e+003;5.044015e-002
2.707681e+003;5.097309e-002
2.709610e+003;5.139434e-002
2.711539e+003;5.142951e-002
2.713467e+003;5.159728e-002
2.715396e+003;5.167669e-002
2.717324e+003;5.150132e-002
2.719253e+003;5.146375e-002
2.721181e+003;5.171178e-002
2.723110e+003;5.182193e-002
2.725038e+003;5.194739e-002
2.726967e+003;5.218511e-002
2.728896e+003;5.244383e-002
2.730824e+003;5.255765e-002
2.732752e+003;5.266888e-002
2.734681e+003;5.280528e-002
2.736610e+003;5.311372e-002
2.738538e+003;5.350076e-002
2.740467e+003;5.357097e-002
2.742395e+003;5.344287e-002
2.744324e+003;5.328079e-002
2.746252e+003;5.349031e-002
2.748181e+003;5.365250e-002
2.750109e+003;5.374185e-002
2.752038e+003;5.395250e-002
2.753967e+003;5.412402e-002
2.755895e+003;5.432775e-002
2.757824e+003;5.435272e-002
2.759752e+003;5.437454e-002
2.761681e+003;5.444684e-002
2.763609e+003;5.433752e-002
2.765538e+003;5.438558e-002
2.767466e+003;5.480425e-002
2.769395e+003;5.517754e-002
2.771323e+003;5.517509e-002
2.773252e+003;5.538188e-002
2.775181e+003;5.586145e-002
2.777109e+003;5.593785e-002
2.779038e+003;5.566292e-002
2.780966e+003;5.556327e-002
2.782895e+003;5.589944e-002
2.784823e+003;5.619273e-002
2.786752e+003;5.669564e-002
2.788680e+003;5.737280e-002
2.790609e+003;5.748384e-002
2.792538e+003;5.747079e-002
2.794466e+003;5.763444e-002
2.796395e+003;5.794143e-002
2.798323e+003;5.806777e-002
2.800252e+003;5.802978e-002
2.802180e+003;5.818265e-002
2.804109e+003;5.877317e-002
2.806037e+003;5.934125e-002
2.807966e+003;5.945959e-002
2.809895e+003;5.983143e-002
2.811823e+003;6.036083e-002
2.813751e+003;6.060111e-002
2.815680e+003;6.082780e-002
2.817609e+003;6.083810e-002
2.819537e+003;6.080966e-002
2.821466e+003;6.137736e-002
2.823394e+003;6.211902e-002
2.825323e+003;6.254016e-002
2.827251e+003;6.265368e-002
2.829180e+003;6.322823e-002
2.831108e+003;6.421650e-002
2.833037e+003;6.499385e-002
2.834966e+003;6.510039e-002
2.836894e+003;6.516898e-002
2.838823e+003;6.569257e-002
2.840751e+003;6.621791e-002
2.842680e+003;6.628333e-002
2.844608e+003;6.618129e-002
2.846537e+003;6.630587e-002
2.848465e+003;6.675107e-002
2.850394e+003;6.732791e-002
2.852323e+003;6.786484e-002
2.854251e+003;6.861150e-002
2.856180e+003;6.974145e-002
2.858108e+003;7.126679e-002
2.860037e+003;7.232633e-002
2.861965e+003;7.323376e-002
2.863894e+003;7.420421e-002
2.865822e+003;7.497033e-002
2.867751e+003;7.548171e-002
2.869679e+003;7.589885e-002
2.871608e+003;7.649887e-002
2.873536e+003;7.714362e-002
2.875465e+003;7.719654e-002
2.877394e+003;7.753515e-002
2.879322e+003;7.817502e-002
2.881251e+003;7.838754e-002
2.883179e+003;7.874376e-002
2.885108e+003;7.944206e-002
2.887036e+003;7.979482e-002
2.888965e+003;7.951070e-002
2.890893e+003;7.921805e-002
2.892822e+003;7.920934e-002
2.894750e+003;7.912502e-002
2.896679e+003;7.896689e-002
2.898608e+003;7.862625e-002
2.900536e+003;7.887653e-002
2.902465e+003;7.912354e-002
2.904393e+003;7.864523e-002
2.906322e+003;7.794350e-002
2.908250e+003;7.736910e-002
2.910179e+003;7.670006e-002
2.912107e+003;7.555491e-002
2.914036e+003;7.471071e-002
2.915965e+003;7.395762e-002
2.917893e+003;7.318019e-002
2.919822e+003;7.240493e-002
2.921750e+003;7.231773e-002
2.923679e+003;7.251518e-002
2.925607e+003;7.312592e-002
2.927536e+003;7.389195e-002
2.929464e+003;7.402732e-002
2.931393e+003;7.389174e-002
2.933322e+003;7.376034e-002
2.935250e+003;7.415634e-002
2.937178e+003;7.456556e-002
2.939107e+003;7.444102e-002
2.941036e+003;7.466026e-002
2.942964e+003;7.470815e-002
2.944893e+003;7.407550e-002
2.946821e+003;7.348312e-002
2.948750e+003;7.262585e-002
2.950678e+003;7.149646e-002
2.952607e+003;7.066797e-002
2.954535e+003;6.971033e-002
2.956464e+003;6.867471e-002
2.958393e+003;6.816570e-002
2.960321e+003;6.824433e-002
2.962250e+003;6.805222e-002
2.964178e+003;6.749725e-002
2.966107e+003;6.659778e-002
2.968035e+003;6.642137e-002
2.969964e+003;6.713849e-002
2.971892e+003;6.724884e-002
2.973821e+003;6.670587e-002
2.975750e+003;6.627981e-002
2.977678e+003;6.627310e-002
2.979607e+003;6.598172e-002
2.981535e+003;6.523979e-002
2.983464e+003;6.468518e-002
2.985392e+003;6.470129e-002
2.987321e+003;6.479494e-002
2.989249e+003;6.471594e-002
2.991178e+003;6.432311e-002
2.993106e+003;6.381622e-002
2.995035e+003;6.345438e-002
2.996964e+003;6.345922e-002
2.998892e+003;6.354535e-002
3.000821e+003;6.329631e-002
3.002749e+003;6.291927e-002
3.004678e+003;6.325296e-002
3.006606e+003;6.374434e-002
3.008535e+003;6.351616e-002
3.010463e+003;6.320934e-002
3.012392e+003;6.313641e-002
3.014321e+003;6.329707e-002
3.016249e+003;6.331574e-002
3.018177e+003;6.331582e-002
3.020106e+003;6.337103e-002
3.022035e+003;6.362633e-002
3.023963e+003;6.401173e-002
3.025892e+003;6.397188e-002
3.027820e+003;6.356407e-002
3.029749e+003;6.344031e-002
3.031677e+003;6.342509e-002
3.033606e+003;6.395095e-002
3.035534e+003;6.469310e-002
3.037463e+003;6.470890e-002
3.039392e+003;6.455049e-002
3.041320e+003;6.439678e-002
3.043249e+003;6.472009e-002
3.045177e+003;6.527503e-002
3.047106e+003;6.549111e-002
3.049034e+003;6.541672e-002
3.050963e+003;6.550898e-002
3.052891e+003;6.585526e-002
3.054820e+003;6.592294e-002
3.056749e+003;6.622015e-002
3.058677e+003;6.643353e-002
3.060606e+003;6.660508e-002
3.062534e+003;6.686163e-002
3.064463e+003;6.681839e-002
3.066391e+003;6.728648e-002
3.068320e+003;6.756433e-002
3.070248e+003;6.751854e-002
3.072177e+003;6.764134e-002
3.074105e+003;6.777126e-002
3.076034e+003;6.811318e-002
3.077963e+003;6.827702e-002
3.079891e+003;6.851923e-002
3.081820e+003;6.866610e-002
3.083748e+003;6.851333e-002
3.085677e+003;6.889176e-002
3.087605e+003;6.935303e-002
3.089534e+003;6.972001e-002
3.091462e+003;7.026392e-002
3.093391e+003;7.086939e-002
3.095320e+003;7.102694e-002
3.097248e+003;7.077770e-002
3.099177e+003;7.071948e-002
3.101105e+003;7.109952e-002
3.103034e+003;7.124855e-002
3.104962e+003;7.094909e-002
3.106891e+003;7.156033e-002
3.108819e+003;7.201745e-002
3.110748e+003;7.214915e-002
3.112677e+003;7.214551e-002
3.114605e+003;7.205456e-002
3.116533e+003;7.211801e-002
3.118462e+003;7.265624e-002
3.120391e+003;7.340260e-002
3.122319e+003;7.372350e-002
3.124248e+003;7.384811e-002
3.126176e+003;7.386610e-002
3.128105e+003;7.398929e-002
3.130033e+003;7.408245e-002
3.131962e+003;7.487024e-002
3.133890e+003;7.569421e-002
3.135819e+003;7.587060e-002
3.137748e+003;7.571354e-002
3.139676e+003;7.608376e-002
3.141605e+003;7.649678e-002
3.143533e+003;7.692574e-002
3.145462e+003;7.741582e-002
3.147390e+003;7.738961e-002
3.149319e+003;7.756890e-002
3.151247e+003;7.784779e-002
3.153176e+003;7.794036e-002
3.155104e+003;7.827032e-002
3.157033e+003;7.896665e-002
3.158962e+003;7.985336e-002
3.160890e+003;8.021330e-002
3.162819e+003;8.010116e-002
3.164747e+003;8.013969e-002
3.166676e+003;8.041928e-002
3.168604e+003;8.044580e-002
3.170533e+003;8.087812e-002
3.172461e+003;8.184281e-002
3.174390e+003;8.225622e-002
3.176319e+003;8.279434e-002
3.178247e+003;8.336331e-002
3.180176e+003;8.351734e-002
3.182104e+003;8.405923e-002
3.184033e+003;8.459061e-002
3.185961e+003;8.479413e-002
3.187890e+003;8.510131e-002
3.189818e+003;8.572800e-002
3.191747e+003;8.592596e-002
3.193676e+003;8.584924e-002
3.195604e+003;8.589236e-002
3.197532e+003;8.643929e-002
3.199461e+003;8.709036e-002
3.201390e+003;8.772480e-002
3.203318e+003;8.805362e-002
3.205247e+003;8.796180e-002
3.207175e+003;8.826904e-002
3.209104e+003;8.912378e-002
3.211032e+003;8.969162e-002
3.212961e+003;8.957545e-002
3.214889e+003;8.959154e-002
3.216818e+003;9.013573e-002
3.218747e+003;9.044962e-002
3.220675e+003;9.069023e-002
3.222604e+003;9.109961e-002
3.224532e+003;9.153286e-002
3.226461e+003;9.229077e-002
3.228389e+003;9.296364e-002
3.230318e+003;9.335959e-002
3.232246e+003;9.323850e-002
3.234175e+003;9.305513e-002
3.236104e+003;9.362308e-002
3.238032e+003;9.443447e-002
3.239961e+003;9.408012e-002
3.241889e+003;9.426092e-002
3.243818e+003;9.512602e-002
3.245746e+003;9.603826e-002
3.247675e+003;9.650551e-002
3.249603e+003;9.631149e-002
3.251532e+003;9.624709e-002
3.253460e+003;9.690040e-002
3.255389e+003;9.737198e-002
3.257318e+003;9.759415e-002
3.259246e+003;9.813542e-002
3.261175e+003;9.867388e-002
3.263103e+003;9.865604e-002
3.265032e+003;9.882603e-002
3.266960e+003;9.931298e-002
3.268889e+003;9.951536e-002
3.270817e+003;9.990957e-002
3.272746e+003;1.004583e-001
3.274675e+003;1.005840e-001
3.276603e+003;1.003996e-001
3.278531e+003;1.002515e-001
3.280460e+003;1.005767e-001
3.282389e+003;1.009575e-001
3.284317e+003;1.011434e-001
3.286246e+003;1.012929e-001
3.288174e+003;1.015240e-001
3.290103e+003;1.016492e-001
3.292031e+003;1.015144e-001
3.293960e+003;1.015968e-001
3.295888e+003;1.019811e-001
3.297817e+003;1.020220e-001
3.299746e+003;1.020522e-001
3.301674e+003;1.023298e-001
3.303603e+003;1.027028e-001
3.305531e+003;1.029311e-001
3.307460e+003;1.030001e-001
3.309388e+003;1.028506e-001
3.311317e+003;1.033970e-001
3.313245e+003;1.035390e-001
3.315174e+003;1.034770e-001
3.317103e+003;1.036665e-001
3.319031e+003;1.034776e-001
3.320960e+003;1.032037e-001
3.322888e+003;1.037050e-001
3.324817e+003;1.040872e-001
3.326745e+003;1.032911e-001
3.328674e+003;1.028266e-001
3.330602e+003;1.029570e-001
3.332531e+003;1.033457e-001
3.334459e+003;1.035020e-001
3.336388e+003;1.035514e-001
3.338317e+003;1.033224e-001
3.340245e+003;1.028125e-001
3.342174e+003;1.026692e-001
3.344102e+003;1.026023e-001
3.346031e+003;1.020906e-001
3.347959e+003;1.023265e-001
3.349888e+003;1.028956e-001
3.351816e+003;1.024237e-001
3.353745e+003;1.018680e-001
3.355674e+003;1.017547e-001
3.357602e+003;1.017535e-001
3.359531e+003;1.021214e-001
3.361459e+003;1.020212e-001
3.363388e+003;1.015394e-001
3.365316e+003;1.012169e-001
3.367245e+003;1.005542e-001
3.369173e+003;9.966313e-002
3.371102e+003;9.973033e-002
3.373031e+003;9.998962e-002
3.374959e+003;9.977235e-002
3.376887e+003;9.935497e-002
3.378816e+003;9.895272e-002
3.380745e+003;9.910313e-002
3.382673e+003;9.896582e-002
3.384602e+003;9.858015e-002
3.386530e+003;9.839310e-002
3.388459e+003;9.847826e-002
3.390387e+003;9.791219e-002
3.392316e+003;9.667449e-002
3.394244e+003;9.658037e-002
3.396173e+003;9.683737e-002
3.398102e+003;9.637978e-002
3.400030e+003;9.603988e-002
3.401959e+003;9.604640e-002
3.403887e+003;9.592630e-002
3.405816e+003;9.543264e-002
3.407744e+003;9.455297e-002
3.409673e+003;9.417737e-002
3.411601e+003;9.398928e-002
3.413530e+003;9.398487e-002
3.415458e+003;9.376253e-002
3.417387e+003;9.333847e-002
3.419316e+003;9.287150e-002
3.421244e+003;9.228408e-002
3.423173e+003;9.138091e-002
3.425101e+003;9.070877e-002
3.427030e+003;9.048618e-002
3.428958e+003;9.022810e-002
3.430887e+003;8.936476e-002
3.432815e+003;8.866785e-002
3.434744e+003;8.816937e-002
3.436673e+003;8.778571e-002
3.438601e+003;8.717094e-002
3.440530e+003;8.667325e-002
3.442458e+003;8.645324e-002
3.444387e+003;8.629163e-002
3.446315e+003;8.577455e-002
3.448244e+003;8.532786e-002
3.450172e+003;8.510510e-002
3.452101e+003;8.442328e-002
3.454030e+003;8.353641e-002
3.455958e+003;8.276772e-002
3.457886e+003;8.218563e-002
3.459815e+003;8.120256e-002
3.461744e+003;8.070515e-002
3.463672e+003;8.088618e-002
3.465601e+003;8.036545e-002
3.467529e+003;7.985494e-002
3.469458e+003;7.918799e-002
3.471386e+003;7.805369e-002
3.473315e+003;7.700585e-002
3.475243e+003;7.661286e-002
3.477172e+003;7.665839e-002
3.479101e+003;7.607520e-002
3.481029e+003;7.525531e-002
3.482958e+003;7.480540e-002
3.484886e+003;7.420680e-002
3.486815e+003;7.365770e-002
3.488743e+003;7.313329e-002
3.490672e+003;7.226501e-002
3.492600e+003;7.172848e-002
3.494529e+003;7.115331e-002
3.496458e+003;7.069425e-002
3.498386e+003;7.008649e-002
3.500315e+003;6.927203e-002
3.502243e+003;6.856936e-002
3.504172e+003;6.787933e-002
3.506100e+003;6.732551e-002
3.508029e+003;6.669427e-002
3.509957e+003;6.657133e-002
3.511886e+003;6.608737e-002
3.513814e+003;6.520283e-002
3.515743e+003;6.436703e-002
3.517672e+003;6.396086e-002
3.519600e+003;6.357849e-002
3.521529e+003;6.306365e-002
3.523457e+003;6.243774e-002
3.525386e+003;6.140518e-002
3.527314e+003;6.060725e-002
3.529243e+003;6.060702e-002
3.531171e+003;6.047088e-002
3.533100e+003;5.997154e-002
3.535029e+003;5.945982e-002
3.536957e+003;5.878941e-002
3.538885e+003;5.823346e-002
3.540814e+003;5.789964e-002
3.542743e+003;5.702759e-002
3.544671e+003;5.581349e-002
3.546600e+003;5.518792e-002
3.548528e+003;5.495475e-002
3.550457e+003;5.447092e-002
3.552385e+003;5.394064e-002
3.554314e+003;5.333784e-002
3.556242e+003;5.278059e-002
3.558171e+003;5.203434e-002
3.560100e+003;5.166602e-002
3.562028e+003;5.160795e-002
3.563957e+003;5.111869e-002
3.565885e+003;5.023541e-002
3.567814e+003;4.995436e-002
3.569742e+003;4.975494e-002
3.571671e+003;4.922783e-002
3.573599e+003;4.892948e-002
3.575528e+003;4.877646e-002
3.577457e+003;4.844568e-002
3.579385e+003;4.786880e-002
3.581314e+003;4.733377e-002
3.583242e+003;4.695945e-002
3.585171e+003;4.638514e-002
3.587099e+003;4.563127e-002
3.589028e+003;4.537566e-002
3.590956e+003;4.539880e-002
3.592885e+003;4.493110e-002
3.594813e+003;4.427654e-002
3.596742e+003;4.414440e-002
3.598671e+003;4.395239e-002
3.600599e+003;4.360646e-002
3.602528e+003;4.299317e-002
3.604456e+003;4.216195e-002
3.606385e+003;4.174853e-002
3.608313e+003;4.141023e-002
3.610242e+003;4.084979e-002
3.612170e+003;4.037886e-002
3.614099e+003;4.051131e-002
3.616028e+003;4.090651e-002
3.617956e+003;4.099684e-002
3.619885e+003;4.063027e-002
3.621813e+003;3.987927e-002
3.623742e+003;3.944633e-002
3.625670e+003;3.891969e-002
3.627599e+003;3.786799e-002
3.629527e+003;3.713590e-002
3.631456e+003;3.703673e-002
3.633385e+003;3.675072e-002
3.635313e+003;3.632769e-002
3.637241e+003;3.577553e-002
3.639170e+003;3.480223e-002
3.641099e+003;3.416966e-002
3.643027e+003;3.404870e-002
3.644956e+003;3.333750e-002
3.646884e+003;3.211109e-002
3.648813e+003;3.132046e-002
3.650741e+003;3.090301e-002
3.652670e+003;3.058119e-002
3.654598e+003;2.948783e-002
3.656527e+003;2.801293e-002
3.658456e+003;2.730257e-002
3.660384e+003;2.678562e-002
3.662313e+003;2.660539e-002
3.664241e+003;2.609919e-002
3.666170e+003;2.517878e-002
3.668098e+003;2.415857e-002
3.670027e+003;2.347901e-002
3.671955e+003;2.319049e-002
3.673884e+003;2.252839e-002
3.675813e+003;2.157389e-002
3.677741e+003;2.120463e-002
3.679669e+003;2.088605e-002
3.681598e+003;2.038473e-002
3.683527e+003;2.013661e-002
3.685455e+003;1.956950e-002
3.687384e+003;1.826853e-002
3.689312e+003;1.733558e-002
3.691241e+003;1.741207e-002
3.693169e+003;1.801347e-002
3.695098e+003;1.838888e-002
3.697026e+003;1.850310e-002
3.698955e+003;1.815599e-002
3.700884e+003;1.702307e-002
3.702812e+003;1.649548e-002
3.704741e+003;1.662081e-002
3.706669e+003;1.624627e-002
3.708598e+003;1.571864e-002
3.710526e+003;1.497761e-002
3.712455e+003;1.452112e-002
3.714383e+003;1.458827e-002
3.716312e+003;1.434355e-002
3.718240e+003;1.405874e-002
3.720169e+003;1.369201e-002
3.722098e+003;1.347291e-002
3.724026e+003;1.369113e-002
3.725955e+003;1.353160e-002
3.727883e+003;1.311084e-002
3.729812e+003;1.308151e-002
3.731740e+003;1.304043e-002
3.733669e+003;1.289002e-002
3.735597e+003;1.221469e-002
3.737526e+003;1.214657e-002
3.739455e+003;1.242662e-002
3.741383e+003;1.221814e-002
3.743312e+003;1.157907e-002
3.745240e+003;1.166793e-002
3.747169e+003;1.217053e-002
3.749097e+003;1.167174e-002
3.751026e+003;1.107787e-002
3.752954e+003;1.134100e-002
3.754883e+003;1.227434e-002
3.756812e+003;1.257864e-002
3.758740e+003;1.211669e-002
3.760668e+003;1.210283e-002
3.762597e+003;1.243855e-002
3.764526e+003;1.210807e-002
3.766454e+003;1.187822e-002
3.768383e+003;1.155542e-002
3.770311e+003;1.133831e-002
3.772240e+003;1.171375e-002
3.774168e+003;1.184063e-002
3.776097e+003;1.185752e-002
3.778025e+003;1.245355e-002
3.779954e+003;1.269445e-002
3.781883e+003;1.262486e-002
3.783811e+003;1.239900e-002
3.785740e+003;1.262199e-002
3.787668e+003;1.286261e-002
3.789597e+003;1.265965e-002
3.791525e+003;1.166667e-002
3.793454e+003;1.144954e-002
3.795382e+003;1.160704e-002
3.797311e+003;1.149156e-002
3.799240e+003;1.146648e-002
3.801168e+003;1.151313e-002
3.803097e+003;1.206954e-002
3.805025e+003;1.228490e-002
3.806954e+003;1.199596e-002
3.808882e+003;1.203105e-002
3.810811e+003;1.198421e-002
3.812739e+003;1.161872e-002
3.814668e+003;1.121946e-002
3.816596e+003;1.133559e-002
3.818525e+003;1.191146e-002
3.820454e+003;1.206372e-002
3.822382e+003;1.214010e-002
3.824311e+003;1.249945e-002
3.826239e+003;1.231125e-002
3.828168e+003;1.218597e-002
3.830096e+003;1.244458e-002
3.832025e+003;1.235724e-002
3.833953e+003;1.187192e-002
3.835882e+003;1.189195e-002
3.837811e+003;1.217874e-002
3.839739e+003;1.292511e-002
3.841667e+003;1.326854e-002
3.843596e+003;1.324558e-002
3.845525e+003;1.298765e-002
3.847453e+003;1.265041e-002
3.849382e+003;1.264857e-002
3.851310e+003;1.216433e-002
3.853239e+003;1.167944e-002
3.855167e+003;1.278723e-002
3.857096e+003;1.367540e-002
3.859024e+003;1.391571e-002
3.860953e+003;1.396405e-002
3.862882e+003;1.412928e-002
3.864810e+003;1.438307e-002
3.866739e+003;1.449645e-002
3.868667e+003;1.431136e-002
3.870596e+003;1.419546e-002
3.872524e+003;1.456049e-002
3.874453e+003;1.453955e-002
3.876381e+003;1.448915e-002
3.878310e+003;1.446463e-002
3.880239e+003;1.476091e-002
3.882167e+003;1.493930e-002
3.884096e+003;1.470839e-002
3.886024e+003;1.478840e-002
3.887953e+003;1.542510e-002
3.889881e+003;1.568720e-002
3.891810e+003;1.592217e-002
3.893738e+003;1.634679e-002
3.895667e+003;1.632006e-002
3.897595e+003;1.579443e-002
3.899524e+003;1.547866e-002
3.901453e+003;1.590876e-002
3.903381e+003;1.590265e-002
3.905310e+003;1.570132e-002
3.907238e+003;1.619355e-002
3.909167e+003;1.674614e-002
3.911095e+003;1.680724e-002
3.913024e+003;1.624789e-002
3.914952e+003;1.616325e-002
3.916881e+003;1.653888e-002
3.918810e+003;1.664677e-002
3.920738e+003;1.674604e-002
3.922667e+003;1.674156e-002
3.924595e+003;1.639586e-002
3.926524e+003;1.660594e-002
3.928452e+003;1.748323e-002
3.930381e+003;1.765067e-002
3.932309e+003;1.772269e-002
3.934238e+003;1.832524e-002
3.936167e+003;1.832925e-002
3.938095e+003;1.819531e-002
3.940023e+003;1.844319e-002
3.941952e+003;1.895418e-002
3.943881e+003;1.928911e-002
3.945809e+003;1.911927e-002
3.947738e+003;1.884585e-002
3.949666e+003;1.890676e-002
3.951595e+003;1.911546e-002
3.953523e+003;1.944259e-002
3.955452e+003;1.910255e-002
3.957380e+003;1.868179e-002
3.959309e+003;1.891929e-002
3.961238e+003;1.923400e-002
3.963166e+003;1.957504e-002
3.965095e+003;2.006943e-002
3.967023e+003;2.021103e-002
3.968952e+003;1.980158e-002
3.970880e+003;2.003462e-002
3.972809e+003;2.013134e-002
3.974737e+003;1.944283e-002
3.976666e+003;1.950510e-002
3.978594e+003;2.058101e-002
3.980523e+003;2.085014e-002
3.982452e+003;2.110075e-002
3.984380e+003;2.069415e-002
3.986309e+003;2.007054e-002
3.988237e+003;2.007939e-002
3.990166e+003;2.022637e-002
3.992094e+003;2.020128e-002
3.994023e+003;2.006294e-002
3.995951e+003;2.018361e-002
3.997880e+003;2.042290e-002
3.999809e+003;2.059130e-002
4.001737e+003;0.000000e+000
