3.992094e+002;0.000000e+000
4.011380e+002;0.000000e+000
4.030665e+002;0.000000e+000
4.049951e+002;0.000000e+000
4.069236e+002;0.000000e+000
4.088522e+002;0.000000e+000
4.107807e+002;0.000000e+000
4.127093e+002;0.000000e+000
4.146378e+002;0.000000e+000
4.165664e+002;0.000000e+000
4.184949e+002;0.000000e+000
4.204235e+002;0.000000e+000
4.223520e+002;0.000000e+000
4.242806e+002;0.000000e+000
4.262091e+002;0.000000e+000
4.281377e+002;0.000000e+000
4.300662e+002;0.000000e+000
4.319948e+002;0.000000e+000
4.339233e+002;0.000000e+000
4.358519e+002;0.000000e+000
4.377804e+002;0.000000e+000
4.397090e+002;0.000000e+000
4.416375e+002;0.000000e+000
4.435660e+002;0.000000e+000
4.454946e+002;0.000000e+000
4.474232e+002;0.000000e+000
4.493517e+002;0.000000e+000
4.512802e+002;0.000000e+000
4.532088e+002;0.000000e+000
4.551373e+002;0.000000e+000
4.570659e+002;0.000000e+000
4.589944e+002;0.000000e+000
4.609230e+002;0.000000e+000
4.628515e+002;0.000000e+000
4.647801e+002;0.000000e+000
4.667086e+002;0.000000e+000
4.686372e+002;0.000000e+000
4.705657e+002;0.000000e+000
4.724943e+002;0.000000e+000
4.744228e+002;0.000000e+000
4.763513e+002;0.000000e+000
4.782799e+002;0.000000e+000
4.802085e+002;0.000000e+000
4.821370e+002;0.000000e+000
4.840656e+002;0.000000e+000
4.859941e+002;0.000000e+000
4.879226e+002;0.000000e+000
4.898512e+002;0.000000e+000
4.917798e+002;0.000000e+000
4.937083e+002;0.000000e+000
4.956368e+002;0.000000e+000
4.975654e+002;0.000000e+000
4.994939e+002;0.000000e+000
5.014225e+002;0.000000e+000
5.033510e+002;0.000000e+000
5.052796e+002;0.000000e+000
5.072081e+002;0.000000e+000
5.091367e+002;0.000000e+000
5.110652e+002;0.000000e+000
5.129938e+002;0.000000e+000
5.149223e+002;0.000000e+000
5.168509e+002;0.000000e+000
5.187794e+002;0.000000e+000
5.207079e+002;0.000000e+000
5.226365e+002;0.000000e+000
5.245651e+002;0.000000e+000
5.264936e+002;0.000000e+000
5.284222e+002;0.000000e+000
5.303507e+002;0.000000e+000
5.322792e+002;0.000000e+000
5.342078e+002;0.000000e+000
5.361364e+002;0.000000e+000
5.380649e+002;0.000000e+000
5.399935e+002;0.000000e+000
5.419220e+002;0.000000e+000
5.438505e+002;0.000000e+000
5.457791e+002;0.000000e+000
5.477076e+002;0.000000e+000
5.496362e+002;0.000000e+000
5.515648e+002;0.000000e+000
5.534933e+002;0.000000e+000
5.554218e+002;0.000000e+000
5.573504e+002;0.000000e+000
5.592789e+002;0.000000e+000
5.612075e+002;0.000000e+000
5.631360e+002;0.000000e+000
5.650646e+002;0.000000e+000
5.669931e+002;0.000000e+000
5.689217e+002;0.000000e+000
5.708502e+002;0.000000e+000
5.727787e+002;0.000000e+000
5.747073e+002;0.000000e+000
5.766359e+002;0.000000e+000
5.785644e+002;0.000000e+000
5.804930e+002;0.000000e+000
5.824215e+002;0.000000e+000
5.843500e+002;0.000000e+000
5.862786e+002;0.000000e+000
5.882072e+002;0.000000e+000
5.901357e+002;0.000000e+000
5.920643e+002;0.000000e+000
5.939928e+002;0.000000e+000
5.959213e+002;0.000000e+000
5.978499e+002;0.000000e+000
5.997784e+002;2.532974e-001
6.017070e+002;2.589506e-001
6.036355e+002;2.519013e-001
6.055641e+002;2.456782e-001
6.074926e+002;2.443043e-001
6.094211e+002;2.442947e-001
6.113497e+002;2.431604e-001
6.132783e+002;2.408749e-001
6.152068e+002;2.427952e-001
6.171354e+002;2.435101e-001
6.190639e+002;2.382544e-001
6.209924e+002;2.344285e-001
6.229210e+002;2.351806e-001
6.248495e+002;2.281588e-001
6.267781e+002;2.152183e-001
6.287067e+002;2.115303e-001
6.306352e+002;2.160042e-001
6.325637e+002;2.197402e-001
6.344923e+002;2.201206e-001
6.364208e+002;2.203066e-001
6.383494e+002;2.160893e-001
6.402780e+002;2.135506e-001
6.422065e+002;2.131319e-001
6.441350e+002;2.053434e-001
6.460636e+002;2.040474e-001
6.479921e+002;2.080832e-001
6.499207e+002;2.074120e-001
6.518492e+002;2.113786e-001
6.537778e+002;2.162917e-001
6.557063e+002;2.170429e-001
6.576349e+002;2.165759e-001
6.595634e+002;2.191364e-001
6.614919e+002;2.229259e-001
6.634205e+002;2.247031e-001
6.653491e+002;2.228004e-001
6.672776e+002;2.196743e-001
6.692062e+002;2.199759e-001
6.711347e+002;2.188131e-001
6.730632e+002;2.138011e-001
6.749918e+002;2.082285e-001
6.769203e+002;2.017515e-001
6.788489e+002;1.957269e-001
6.807775e+002;1.929417e-001
6.827060e+002;1.910465e-001
6.846345e+002;1.893491e-001
6.865631e+002;1.894968e-001
6.884916e+002;1.881867e-001
6.904202e+002;1.864923e-001
6.923488e+002;1.857595e-001
6.942773e+002;1.851239e-001
6.962058e+002;1.842967e-001
6.981344e+002;1.840544e-001
7.000629e+002;1.843116e-001
7.019915e+002;1.827818e-001
7.039200e+002;1.813564e-001
7.058486e+002;1.817050e-001
7.077771e+002;1.824302e-001
7.097057e+002;1.805476e-001
7.116342e+002;1.780773e-001
7.135627e+002;1.771611e-001
7.154913e+002;1.768678e-001
7.174199e+002;1.753946e-001
7.193484e+002;1.730602e-001
7.212770e+002;1.719975e-001
7.232055e+002;1.722160e-001
7.251340e+002;1.707549e-001
7.270626e+002;1.680646e-001
7.289911e+002;1.660710e-001
7.309197e+002;1.639080e-001
7.328483e+002;1.617376e-001
7.347768e+002;1.603955e-001
7.367053e+002;1.597526e-001
7.386339e+002;1.586536e-001
7.405624e+002;1.581309e-001
7.424910e+002;1.580655e-001
7.444196e+002;1.568597e-001
7.463481e+002;1.549518e-001
7.482766e+002;1.528463e-001
7.502052e+002;1.519960e-001
7.521337e+002;1.519646e-001
7.540623e+002;1.513803e-001
7.559908e+002;1.503576e-001
7.579194e+002;1.496904e-001
7.598479e+002;1.485340e-001
7.617765e+002;1.477521e-001
7.637050e+002;1.478271e-001
7.656335e+002;1.474944e-001
7.675621e+002;1.462030e-001
7.694907e+002;1.443937e-001
7.714192e+002;1.443616e-001
7.733478e+002;1.437493e-001
7.752763e+002;1.416840e-001
7.772048e+002;1.407390e-001
7.791334e+002;1.407144e-001
7.810620e+002;1.406792e-001
7.829905e+002;1.395828e-001
7.849191e+002;1.385200e-001
7.868476e+002;1.390356e-001
7.887761e+002;1.393064e-001
7.907047e+002;1.394408e-001
7.926332e+002;1.397623e-001
7.945618e+002;1.387169e-001
7.964903e+002;1.381915e-001
7.984189e+002;1.394000e-001
8.003474e+002;1.399623e-001
8.022759e+002;1.399256e-001
8.042045e+002;1.398855e-001
8.061331e+002;1.399652e-001
8.080616e+002;1.411345e-001
8.099902e+002;1.417608e-001
8.119187e+002;1.412105e-001
8.138472e+002;1.411007e-001
8.157758e+002;1.421452e-001
8.177043e+002;1.425042e-001
8.196329e+002;1.425451e-001
8.215615e+002;1.432676e-001
8.234900e+002;1.438710e-001
8.254185e+002;1.443307e-001
8.273471e+002;1.450949e-001
8.292756e+002;1.461199e-001
8.312042e+002;1.465713e-001
8.331328e+002;1.466554e-001
8.350613e+002;1.477286e-001
8.369898e+002;1.479858e-001
8.389184e+002;1.474987e-001
8.408469e+002;1.475745e-001
8.427755e+002;1.475006e-001
8.447040e+002;1.471151e-001
8.466326e+002;1.471949e-001
8.485611e+002;1.476779e-001
8.504897e+002;1.474374e-001
8.524182e+002;1.468612e-001
8.543467e+002;1.473269e-001
8.562753e+002;1.476948e-001
8.582039e+002;1.475910e-001
8.601324e+002;1.489331e-001
8.620610e+002;1.506567e-001
8.639895e+002;1.519380e-001
8.659180e+002;1.536539e-001
8.678466e+002;1.558059e-001
8.697751e+002;1.578516e-001
8.717037e+002;1.602090e-001
8.736323e+002;1.626049e-001
8.755608e+002;1.642842e-001
8.774893e+002;1.659187e-001
8.794179e+002;1.681819e-001
8.813464e+002;1.703149e-001
8.832750e+002;1.728649e-001
8.852036e+002;1.756903e-001
8.871321e+002;1.784086e-001
8.890606e+002;1.811805e-001
8.909892e+002;1.836267e-001
8.929177e+002;1.859684e-001
8.948463e+002;1.878486e-001
8.967748e+002;1.884401e-001
8.987034e+002;1.877449e-001
9.006319e+002;1.867417e-001
9.025605e+002;1.852374e-001
9.044890e+002;1.839217e-001
9.064175e+002;1.820713e-001
9.083461e+002;1.799634e-001
9.102747e+002;1.786575e-001
9.122032e+002;1.778874e-001
9.141318e+002;1.776094e-001
9.160603e+002;1.771467e-001
9.179888e+002;1.771271e-001
9.199174e+002;1.780921e-001
9.218459e+002;1.787484e-001
9.237745e+002;1.794298e-001
9.257031e+002;1.804141e-001
9.276316e+002;1.813970e-001
9.295601e+002;1.826286e-001
9.314887e+002;1.837815e-001
9.334172e+002;1.847888e-001
9.353458e+002;1.858251e-001
9.372744e+002;1.871023e-001
9.392029e+002;1.888860e-001
9.411314e+002;1.910075e-001
9.430600e+002;1.934263e-001
9.449885e+002;1.964674e-001
9.469171e+002;2.001132e-001
9.488456e+002;2.040305e-001
9.507742e+002;2.084897e-001
9.527027e+002;2.136221e-001
9.546313e+002;2.186910e-001
9.565598e+002;2.237416e-001
9.584883e+002;2.285687e-001
9.604169e+002;2.336532e-001
9.623455e+002;2.390350e-001
9.642740e+002;2.441124e-001
9.662026e+002;2.499761e-001
9.681311e+002;2.567953e-001
9.700596e+002;2.633687e-001
9.719882e+002;2.705116e-001
9.739167e+002;2.795496e-001
9.758453e+002;2.902498e-001
9.777739e+002;3.011450e-001
9.797024e+002;3.122092e-001
9.816309e+002;3.231603e-001
9.835595e+002;3.330464e-001
9.854880e+002;3.410614e-001
9.874166e+002;3.472126e-001
9.893452e+002;3.517571e-001
9.912737e+002;3.556550e-001
9.932022e+002;3.594923e-001
9.951307e+002;3.628179e-001
9.970593e+002;3.663619e-001
9.989879e+002;3.707238e-001
1.000916e+003;3.754725e-001
1.002845e+003;3.805667e-001
1.004773e+003;3.853064e-001
1.006702e+003;3.897747e-001
1.008631e+003;3.948098e-001
1.010559e+003;3.999826e-001
1.012488e+003;4.058074e-001
1.014416e+003;4.120139e-001
1.016345e+003;4.179627e-001
1.018273e+003;4.236515e-001
1.020202e+003;4.287911e-001
1.022130e+003;4.328432e-001
1.024059e+003;4.358428e-001
1.025988e+003;4.387913e-001
1.027916e+003;4.405659e-001
1.029845e+003;4.406343e-001
1.031773e+003;4.393358e-001
1.033702e+003;4.371211e-001
1.035630e+003;4.331033e-001
1.037559e+003;4.290130e-001
1.039487e+003;4.253120e-001
1.041416e+003;4.217121e-001
1.043344e+003;4.191570e-001
1.045273e+003;4.168860e-001
1.047202e+003;4.143918e-001
1.049130e+003;4.113670e-001
1.051059e+003;4.082582e-001
1.052987e+003;4.040956e-001
1.054916e+003;3.980832e-001
1.056844e+003;3.916781e-001
1.058773e+003;3.846442e-001
1.060701e+003;3.758298e-001
1.062630e+003;3.642828e-001
1.064558e+003;3.523555e-001
1.066487e+003;3.431230e-001
1.068416e+003;3.347138e-001
1.070344e+003;3.263124e-001
1.072273e+003;3.190757e-001
1.074201e+003;3.131467e-001
1.076130e+003;3.079040e-001
1.078058e+003;3.035097e-001
1.079987e+003;2.994726e-001
1.081915e+003;2.953292e-001
1.083844e+003;2.921583e-001
1.085773e+003;2.906613e-001
1.087701e+003;2.894198e-001
1.089630e+003;2.881327e-001
1.091558e+003;2.877638e-001
1.093487e+003;2.874821e-001
1.095415e+003;2.869205e-001
1.097344e+003;2.857773e-001
1.099272e+003;2.846036e-001
1.101201e+003;2.834454e-001
1.103129e+003;2.808697e-001
1.105058e+003;2.768987e-001
1.106987e+003;2.719927e-001
1.108915e+003;2.659522e-001
1.110844e+003;2.608400e-001
1.112772e+003;2.556902e-001
1.114701e+003;2.490313e-001
1.116629e+003;2.423067e-001
1.118558e+003;2.362168e-001
1.120486e+003;2.308320e-001
1.122415e+003;2.259527e-001
1.124344e+003;2.208945e-001
1.126272e+003;2.150203e-001
1.128201e+003;2.084576e-001
1.130129e+003;2.013150e-001
1.132058e+003;1.946229e-001
1.133986e+003;1.887998e-001
1.135915e+003;1.838328e-001
1.137843e+003;1.798980e-001
1.139772e+003;1.769102e-001
1.141700e+003;1.751862e-001
1.143629e+003;1.747328e-001
1.145557e+003;1.749843e-001
1.147486e+003;1.756925e-001
1.149415e+003;1.762539e-001
1.151343e+003;1.758946e-001
1.153272e+003;1.756083e-001
1.155200e+003;1.752506e-001
1.157129e+003;1.737349e-001
1.159057e+003;1.711980e-001
1.160986e+003;1.681384e-001
1.162914e+003;1.642342e-001
1.164843e+003;1.592577e-001
1.166771e+003;1.537238e-001
1.168700e+003;1.482395e-001
1.170629e+003;1.431665e-001
1.172557e+003;1.387093e-001
1.174486e+003;1.348927e-001
1.176414e+003;1.317607e-001
1.178343e+003;1.297075e-001
1.180271e+003;1.283605e-001
1.182200e+003;1.274528e-001
1.184128e+003;1.277155e-001
1.186057e+003;1.286552e-001
1.187986e+003;1.300466e-001
1.189914e+003;1.318504e-001
1.191843e+003;1.339294e-001
1.193771e+003;1.372046e-001
1.195700e+003;1.404928e-001
1.197628e+003;1.431581e-001
1.199557e+003;1.455059e-001
1.201485e+003;1.474793e-001
1.203414e+003;1.489743e-001
1.205343e+003;1.506182e-001
1.207271e+003;1.521045e-001
1.209200e+003;1.530575e-001
1.211128e+003;1.547143e-001
1.213057e+003;1.580402e-001
1.214985e+003;1.621132e-001
1.216914e+003;1.659632e-001
1.218842e+003;1.699483e-001
1.220771e+003;1.741732e-001
1.222699e+003;1.781905e-001
1.224628e+003;1.817763e-001
1.226557e+003;1.847911e-001
1.228485e+003;1.868026e-001
1.230414e+003;1.879419e-001
1.232342e+003;1.889095e-001
1.234271e+003;1.892603e-001
1.236199e+003;1.887834e-001
1.238128e+003;1.882168e-001
1.240056e+003;1.872376e-001
1.241985e+003;1.855845e-001
1.243913e+003;1.841979e-001
1.245842e+003;1.826719e-001
1.247771e+003;1.801365e-001
1.249699e+003;1.775630e-001
1.251628e+003;1.756030e-001
1.253556e+003;1.733739e-001
1.255485e+003;1.710472e-001
1.257413e+003;1.688567e-001
1.259342e+003;1.670593e-001
1.261270e+003;1.650611e-001
1.263199e+003;1.623722e-001
1.265127e+003;1.595282e-001
1.267056e+003;1.569225e-001
1.268985e+003;1.540764e-001
1.270913e+003;1.508968e-001
1.272842e+003;1.482139e-001
1.274770e+003;1.457697e-001
1.276699e+003;1.436181e-001
1.278627e+003;1.418272e-001
1.280556e+003;1.396601e-001
1.282484e+003;1.379734e-001
1.284413e+003;1.368034e-001
1.286342e+003;1.358179e-001
1.288270e+003;1.350418e-001
1.290199e+003;1.347767e-001
1.292127e+003;1.350979e-001
1.294056e+003;1.359504e-001
1.295984e+003;1.369770e-001
1.297913e+003;1.385533e-001
1.299841e+003;1.405367e-001
1.301770e+003;1.425141e-001
1.303698e+003;1.446334e-001
1.305627e+003;1.471186e-001
1.307556e+003;1.503755e-001
1.309484e+003;1.534483e-001
1.311413e+003;1.557759e-001
1.313341e+003;1.575505e-001
1.315270e+003;1.587107e-001
1.317198e+003;1.592486e-001
1.319127e+003;1.590753e-001
1.321055e+003;1.587809e-001
1.322984e+003;1.584245e-001
1.324912e+003;1.577520e-001
1.326841e+003;1.571489e-001
1.328770e+003;1.568178e-001
1.330698e+003;1.563099e-001
1.332627e+003;1.552665e-001
1.334555e+003;1.540111e-001
1.336484e+003;1.529316e-001
1.338412e+003;1.514298e-001
1.340341e+003;1.495399e-001
1.342269e+003;1.478069e-001
1.344198e+003;1.461818e-001
1.346126e+003;1.450975e-001
1.348055e+003;1.446104e-001
1.349984e+003;1.443019e-001
1.351912e+003;1.445354e-001
1.353841e+003;1.454744e-001
1.355769e+003;1.466602e-001
1.357698e+003;1.481740e-001
1.359626e+003;1.501507e-001
1.361555e+003;1.517286e-001
1.363483e+003;1.524481e-001
1.365412e+003;1.532450e-001
1.367341e+003;1.534119e-001
1.369269e+003;1.527301e-001
1.371198e+003;1.516996e-001
1.373126e+003;1.500294e-001
1.375055e+003;1.476712e-001
1.376983e+003;1.451509e-001
1.378912e+003;1.421776e-001
1.380840e+003;1.385983e-001
1.382769e+003;1.349881e-001
1.384698e+003;1.320332e-001
1.386626e+003;1.297466e-001
1.388555e+003;1.280168e-001
1.390483e+003;1.266772e-001
1.392412e+003;1.257344e-001
1.394340e+003;1.250067e-001
1.396269e+003;1.244846e-001
1.398197e+003;1.247729e-001
1.400126e+003;1.253997e-001
1.402054e+003;1.260962e-001
1.403983e+003;1.270101e-001
1.405911e+003;1.278057e-001
1.407840e+003;1.291273e-001
1.409769e+003;1.307499e-001
1.411697e+003;1.323677e-001
1.413626e+003;1.344295e-001
1.415554e+003;1.363423e-001
1.417483e+003;1.380332e-001
1.419411e+003;1.393967e-001
1.421340e+003;1.401017e-001
1.423268e+003;1.401424e-001
1.425197e+003;1.393045e-001
1.427125e+003;1.374833e-001
1.429054e+003;1.351124e-001
1.430983e+003;1.332435e-001
1.432911e+003;1.311901e-001
1.434840e+003;1.291758e-001
1.436768e+003;1.277418e-001
1.438697e+003;1.266841e-001
1.440625e+003;1.261336e-001
1.442554e+003;1.262268e-001
1.444482e+003;1.268271e-001
1.446411e+003;1.278317e-001
1.448340e+003;1.289608e-001
1.450268e+003;1.299989e-001
1.452197e+003;1.308749e-001
1.454125e+003;1.313333e-001
1.456054e+003;1.309863e-001
1.457982e+003;1.303114e-001
1.459911e+003;1.298886e-001
1.461839e+003;1.289375e-001
1.463768e+003;1.270117e-001
1.465697e+003;1.242936e-001
1.467625e+003;1.209874e-001
1.469554e+003;1.173133e-001
1.471482e+003;1.133212e-001
1.473411e+003;1.091507e-001
1.475339e+003;1.053293e-001
1.477268e+003;1.023577e-001
1.479196e+003;1.001527e-001
1.481125e+003;9.838033e-002
1.483053e+003;9.686363e-002
1.484982e+003;9.593655e-002
1.486911e+003;9.573878e-002
1.488839e+003;9.607675e-002
1.490768e+003;9.672620e-002
1.492696e+003;9.784341e-002
1.494625e+003;9.921275e-002
1.496553e+003;1.005957e-001
1.498482e+003;1.022348e-001
1.500410e+003;1.036337e-001
1.502339e+003;1.044637e-001
1.504267e+003;1.043064e-001
1.506196e+003;1.030932e-001
1.508125e+003;1.016841e-001
1.510053e+003;9.988631e-002
1.511982e+003;9.745889e-002
1.513910e+003;9.517705e-002
1.515839e+003;9.311293e-002
1.517767e+003;9.082009e-002
1.519696e+003;8.884451e-002
1.521624e+003;8.703606e-002
1.523553e+003;8.565919e-002
1.525481e+003;8.468297e-002
1.527410e+003;8.408408e-002
1.529339e+003;8.366973e-002
1.531267e+003;8.306617e-002
1.533196e+003;8.268237e-002
1.535124e+003;8.259732e-002
1.537053e+003;8.246157e-002
1.538981e+003;8.201363e-002
1.540910e+003;8.164935e-002
1.542838e+003;8.188566e-002
1.544767e+003;8.236744e-002
1.546695e+003;8.234937e-002
1.548624e+003;8.238342e-002
1.550553e+003;8.249723e-002
1.552481e+003;8.222915e-002
1.554410e+003;8.241394e-002
1.556338e+003;8.277385e-002
1.558267e+003;8.289430e-002
1.560195e+003;8.311921e-002
1.562124e+003;8.353312e-002
1.564052e+003;8.418003e-002
1.565981e+003;8.507910e-002
1.567910e+003;8.607068e-002
1.569838e+003;8.657189e-002
1.571767e+003;8.739772e-002
1.573695e+003;8.933069e-002
1.575624e+003;9.133483e-002
1.577552e+003;9.329132e-002
1.579481e+003;9.560149e-002
1.581409e+003;9.835187e-002
1.583338e+003;1.010417e-001
1.585266e+003;1.035448e-001
1.587195e+003;1.060266e-001
1.589124e+003;1.079933e-001
1.591052e+003;1.093332e-001
1.592981e+003;1.097740e-001
1.594909e+003;1.093076e-001
1.596838e+003;1.082980e-001
1.598766e+003;1.066743e-001
1.600695e+003;1.051480e-001
1.602623e+003;1.040198e-001
1.604552e+003;1.028207e-001
1.606480e+003;1.015163e-001
1.608409e+003;1.006611e-001
1.610338e+003;1.002031e-001
1.612266e+003;9.974258e-002
1.614195e+003;9.940862e-002
1.616123e+003;9.914156e-002
1.618052e+003;9.902076e-002
1.619980e+003;9.895875e-002
1.621909e+003;9.870906e-002
1.623837e+003;9.862747e-002
1.625766e+003;9.880169e-002
1.627694e+003;9.894931e-002
1.629623e+003;9.905397e-002
1.631552e+003;9.915059e-002
1.633480e+003;9.949077e-002
1.635409e+003;9.989168e-002
1.637337e+003;1.002203e-001
1.639266e+003;1.005709e-001
1.641194e+003;1.007731e-001
1.643123e+003;1.009209e-001
1.645051e+003;1.011602e-001
1.646980e+003;1.013442e-001
1.648909e+003;1.016478e-001
1.650837e+003;1.018815e-001
1.652766e+003;1.018052e-001
1.654694e+003;1.015908e-001
1.656623e+003;1.012611e-001
1.658551e+003;1.010168e-001
1.660480e+003;1.005689e-001
1.662408e+003;9.959107e-002
1.664337e+003;9.890674e-002
1.666266e+003;9.867729e-002
1.668194e+003;9.803006e-002
1.670123e+003;9.683800e-002
1.672051e+003;9.557379e-002
1.673980e+003;9.457526e-002
1.675908e+003;9.352953e-002
1.677837e+003;9.270571e-002
1.679765e+003;9.195355e-002
1.681694e+003;9.126692e-002
1.683622e+003;9.040951e-002
1.685551e+003;8.964151e-002
1.687479e+003;8.943746e-002
1.689408e+003;8.919819e-002
1.691337e+003;8.866651e-002
1.693265e+003;8.846658e-002
1.695194e+003;8.863413e-002
1.697122e+003;8.926317e-002
1.699051e+003;8.964856e-002
1.700979e+003;9.029838e-002
1.702908e+003;9.160003e-002
1.704836e+003;9.312114e-002
1.706765e+003;9.477732e-002
1.708693e+003;9.627005e-002
1.710622e+003;9.792352e-002
1.712551e+003;9.998799e-002
1.714479e+003;1.022983e-001
1.716408e+003;1.046348e-001
1.718336e+003;1.071339e-001
1.720265e+003;1.092581e-001
1.722193e+003;1.110237e-001
1.724122e+003;1.129918e-001
1.726050e+003;1.151094e-001
1.727979e+003;1.163101e-001
1.729908e+003;1.172685e-001
1.731836e+003;1.181789e-001
1.733765e+003;1.186335e-001
1.735693e+003;1.190150e-001
1.737622e+003;1.189824e-001
1.739550e+003;1.183618e-001
1.741479e+003;1.173611e-001
1.743407e+003;1.159643e-001
1.745336e+003;1.140981e-001
1.747265e+003;1.117739e-001
1.749193e+003;1.088891e-001
1.751122e+003;1.061719e-001
1.753050e+003;1.035079e-001
1.754979e+003;1.002951e-001
1.756907e+003;9.670980e-002
1.758836e+003;9.322397e-002
1.760764e+003;8.994787e-002
1.762693e+003;8.661391e-002
1.764621e+003;8.333043e-002
1.766550e+003;8.052827e-002
1.768479e+003;7.820445e-002
1.770407e+003;7.609620e-002
1.772336e+003;7.398685e-002
1.774264e+003;7.199840e-002
1.776193e+003;7.056376e-002
1.778121e+003;6.958912e-002
1.780050e+003;6.860028e-002
1.781978e+003;6.769644e-002
1.783907e+003;6.696568e-002
1.785835e+003;6.631498e-002
1.787764e+003;6.584963e-002
1.789693e+003;6.546664e-002
1.791621e+003;6.483545e-002
1.793550e+003;6.411091e-002
1.795478e+003;6.380375e-002
1.797407e+003;6.378755e-002
1.799335e+003;6.368414e-002
1.801264e+003;6.309806e-002
1.803192e+003;6.281714e-002
1.805121e+003;6.276036e-002
1.807049e+003;6.243391e-002
1.808978e+003;6.223613e-002
1.810907e+003;6.202449e-002
1.812835e+003;6.194003e-002
1.814764e+003;6.192050e-002
1.816692e+003;6.139068e-002
1.818621e+003;6.100515e-002
1.820549e+003;6.084412e-002
1.822478e+003;6.069233e-002
1.824406e+003;6.085338e-002
1.826335e+003;6.085711e-002
1.828264e+003;6.061224e-002
1.830192e+003;6.068185e-002
1.832121e+003;6.072570e-002
1.834049e+003;6.053369e-002
1.835978e+003;6.037770e-002
1.837906e+003;6.024583e-002
1.839835e+003;6.014904e-002
1.841763e+003;6.015966e-002
1.843692e+003;6.006315e-002
1.845620e+003;5.994199e-002
1.847549e+003;5.967029e-002
1.849478e+003;5.952062e-002
1.851406e+003;5.941047e-002
1.853335e+003;5.936104e-002
1.855263e+003;5.919067e-002
1.857192e+003;5.904154e-002
1.859120e+003;5.921554e-002
1.861049e+003;5.946039e-002
1.862977e+003;5.953255e-002
1.864906e+003;5.921637e-002
1.866834e+003;5.887675e-002
1.868763e+003;5.893621e-002
1.870692e+003;5.888131e-002
1.872620e+003;5.878926e-002
1.874549e+003;5.914544e-002
1.876477e+003;5.937122e-002
1.878406e+003;5.914100e-002
1.880334e+003;5.886059e-002
1.882263e+003;5.882086e-002
1.884191e+003;5.906712e-002
1.886120e+003;5.879373e-002
1.888048e+003;5.851688e-002
1.889977e+003;5.893659e-002
1.891906e+003;5.932488e-002
1.893834e+003;5.951180e-002
1.895763e+003;5.969660e-002
1.897691e+003;5.959819e-002
1.899620e+003;5.933510e-002
1.901548e+003;5.949573e-002
1.903477e+003;5.968964e-002
1.905405e+003;5.949801e-002
1.907334e+003;5.948205e-002
1.909262e+003;5.965611e-002
1.911191e+003;5.960050e-002
1.913120e+003;5.961061e-002
1.915048e+003;5.962707e-002
1.916977e+003;5.945629e-002
1.918905e+003;5.952179e-002
1.920834e+003;5.962175e-002
1.922762e+003;5.964627e-002
1.924691e+003;5.975252e-002
1.926619e+003;6.014303e-002
1.928548e+003;6.028442e-002
1.930477e+003;6.034073e-002
1.932405e+003;6.053906e-002
1.934334e+003;6.045116e-002
1.936262e+003;6.035855e-002
1.938191e+003;6.055167e-002
1.940119e+003;6.062965e-002
1.942048e+003;6.081942e-002
1.943976e+003;6.108653e-002
1.945905e+003;6.106376e-002
1.947833e+003;6.108726e-002
1.949762e+003;6.118765e-002
1.951691e+003;6.123351e-002
1.953619e+003;6.148446e-002
1.955548e+003;6.130401e-002
1.957476e+003;6.093336e-002
1.959405e+003;6.076770e-002
1.961333e+003;6.095410e-002
1.963262e+003;6.118567e-002
1.965190e+003;6.106403e-002
1.967119e+003;6.102750e-002
1.969047e+003;6.128066e-002
1.970976e+003;6.150717e-002
1.972905e+003;6.156910e-002
1.974833e+003;6.160109e-002
1.976762e+003;6.167273e-002
1.978690e+003;6.172448e-002
1.980619e+003;6.169920e-002
1.982547e+003;6.175702e-002
1.984476e+003;6.170699e-002
1.986404e+003;6.178128e-002
1.988333e+003;6.204731e-002
1.990261e+003;6.203106e-002
1.992190e+003;6.198810e-002
1.994119e+003;6.204646e-002
1.996047e+003;6.208457e-002
1.997976e+003;6.205724e-002
1.999904e+003;6.183499e-002
2.001833e+003;6.181493e-002
2.003761e+003;6.217950e-002
2.005690e+003;6.267384e-002
2.007618e+003;6.283851e-002
2.009547e+003;6.306603e-002
2.011476e+003;6.328493e-002
2.013404e+003;6.344134e-002
2.015333e+003;6.350930e-002
2.017261e+003;6.362103e-002
2.019190e+003;6.392876e-002
2.021118e+003;6.414467e-002
2.023047e+003;6.422172e-002
2.024975e+003;6.425880e-002
2.026904e+003;6.427705e-002
2.028833e+003;6.431873e-002
2.030761e+003;6.454469e-002
2.032690e+003;6.479090e-002
2.034618e+003;6.493186e-002
2.036547e+003;6.495383e-002
2.038475e+003;6.476867e-002
2.040404e+003;6.465280e-002
2.042332e+003;6.458351e-002
2.044261e+003;6.457467e-002
2.046189e+003;6.484426e-002
2.048118e+003;6.507914e-002
2.050047e+003;6.499901e-002
2.051975e+003;6.514235e-002
2.053904e+003;6.546926e-002
2.055832e+003;6.541333e-002
2.057761e+003;6.509724e-002
2.059689e+003;6.490505e-002
2.061618e+003;6.478018e-002
2.063546e+003;6.489246e-002
2.065475e+003;6.503730e-002
2.067404e+003;6.500509e-002
2.069332e+003;6.512926e-002
2.071260e+003;6.512734e-002
2.073189e+003;6.504569e-002
2.075118e+003;6.532077e-002
2.077046e+003;6.541467e-002
2.078975e+003;6.540251e-002
2.080903e+003;6.554852e-002
2.082832e+003;6.532990e-002
2.084760e+003;6.509188e-002
2.086689e+003;6.501406e-002
2.088617e+003;6.492582e-002
2.090546e+003;6.491332e-002
2.092475e+003;6.539303e-002
2.094403e+003;6.570294e-002
2.096332e+003;6.533903e-002
2.098260e+003;6.512922e-002
2.100189e+003;6.528931e-002
2.102117e+003;6.552659e-002
2.104046e+003;6.563033e-002
2.105974e+003;6.533980e-002
2.107903e+003;6.526752e-002
2.109832e+003;6.562227e-002
2.111760e+003;6.567076e-002
2.113688e+003;6.554605e-002
2.115617e+003;6.548664e-002
2.117546e+003;6.534034e-002
2.119474e+003;6.544850e-002
2.121403e+003;6.556466e-002
2.123331e+003;6.550613e-002
2.125260e+003;6.575097e-002
2.127188e+003;6.612904e-002
2.129117e+003;6.604548e-002
2.131045e+003;6.585688e-002
2.132974e+003;6.602060e-002
2.134903e+003;6.623679e-002
2.136831e+003;6.621128e-002
2.138760e+003;6.600177e-002
2.140688e+003;6.599792e-002
2.142617e+003;6.608032e-002
2.144545e+003;6.583938e-002
2.146474e+003;6.562246e-002
2.148402e+003;6.562173e-002
2.150331e+003;6.555387e-002
2.152260e+003;6.553418e-002
2.154188e+003;6.518658e-002
2.156117e+003;6.490716e-002
2.158045e+003;6.517291e-002
2.159974e+003;6.538155e-002
2.161902e+003;6.536002e-002
2.163831e+003;6.537732e-002
2.165759e+003;6.543949e-002
2.167688e+003;6.533168e-002
2.169616e+003;6.508611e-002
2.171545e+003;6.486411e-002
2.173474e+003;6.454795e-002
2.175402e+003;6.449536e-002
2.177331e+003;6.458382e-002
2.179259e+003;6.457863e-002
2.181188e+003;6.438018e-002
2.183116e+003;6.417594e-002
2.185045e+003;6.416208e-002
2.186973e+003;6.413868e-002
2.188902e+003;6.391656e-002
2.190831e+003;6.368284e-002
2.192759e+003;6.340200e-002
2.194688e+003;6.323808e-002
2.196616e+003;6.313745e-002
2.198545e+003;6.296957e-002
2.200473e+003;6.296937e-002
2.202402e+003;6.314779e-002
2.204330e+003;6.315074e-002
2.206259e+003;6.325939e-002
2.208188e+003;6.310434e-002
2.210116e+003;6.310545e-002
2.212044e+003;6.334676e-002
2.213973e+003;6.330493e-002
2.215902e+003;6.320424e-002
2.217830e+003;6.312511e-002
2.219759e+003;6.312951e-002
2.221687e+003;6.332736e-002
2.223616e+003;6.325603e-002
2.225544e+003;6.318565e-002
2.227473e+003;6.322164e-002
2.229401e+003;6.306174e-002
2.231330e+003;6.312105e-002
2.233259e+003;6.304955e-002
2.235187e+003;6.292843e-002
2.237116e+003;6.296210e-002
2.239044e+003;6.301174e-002
2.240973e+003;6.335462e-002
2.242901e+003;6.364631e-002
2.244830e+003;6.348360e-002
2.246758e+003;6.330225e-002
2.248687e+003;6.333537e-002
2.250615e+003;6.317370e-002
2.252544e+003;6.301297e-002
2.254473e+003;6.274267e-002
2.256401e+003;6.282783e-002
2.258330e+003;6.301443e-002
2.260258e+003;6.289289e-002
2.262187e+003;6.290599e-002
2.264115e+003;6.281921e-002
2.266044e+003;6.277104e-002
2.267972e+003;6.283300e-002
2.269901e+003;6.296991e-002
2.271830e+003;6.308001e-002
2.273758e+003;6.294578e-002
2.275687e+003;6.275148e-002
2.277615e+003;6.247504e-002
2.279544e+003;6.234184e-002
2.281472e+003;6.272943e-002
2.283401e+003;6.288496e-002
2.285329e+003;6.277702e-002
2.287258e+003;6.260128e-002
2.289187e+003;6.235163e-002
2.291115e+003;6.253763e-002
2.293043e+003;6.271304e-002
2.294972e+003;6.254379e-002
2.296901e+003;6.237228e-002
2.298829e+003;6.243865e-002
2.300758e+003;6.264215e-002
2.302686e+003;6.252424e-002
2.304615e+003;6.227016e-002
2.306543e+003;6.228114e-002
2.308472e+003;6.245840e-002
2.310400e+003;6.276412e-002
2.312329e+003;6.258444e-002
2.314258e+003;6.223636e-002
2.316186e+003;6.214708e-002
2.318115e+003;6.236375e-002
2.320043e+003;6.252838e-002
2.321972e+003;6.241467e-002
2.323900e+003;6.242022e-002
2.325829e+003;6.264315e-002
2.327757e+003;6.279428e-002
2.329686e+003;6.283146e-002
2.331615e+003;6.296685e-002
2.333543e+003;6.318746e-002
2.335472e+003;6.333414e-002
2.337400e+003;6.305496e-002
2.339329e+003;6.285038e-002
2.341257e+003;6.276213e-002
2.343186e+003;6.290223e-002
2.345114e+003;6.314622e-002
2.347043e+003;6.340392e-002
2.348971e+003;6.350639e-002
2.350900e+003;6.354658e-002
2.352829e+003;6.349775e-002
2.354757e+003;6.346811e-002
2.356686e+003;6.339119e-002
2.358614e+003;6.356230e-002
2.360543e+003;6.387283e-002
2.362471e+003;6.415985e-002
2.364400e+003;6.447011e-002
2.366328e+003;6.479283e-002
2.368257e+003;6.467656e-002
2.370186e+003;6.421435e-002
2.372114e+003;6.416964e-002
2.374042e+003;6.440612e-002
2.375971e+003;6.460901e-002
2.377900e+003;6.474540e-002
2.379828e+003;6.470133e-002
2.381757e+003;6.458555e-002
2.383685e+003;6.498870e-002
2.385614e+003;6.544229e-002
2.387542e+003;6.557160e-002
2.389471e+003;6.557572e-002
2.391399e+003;6.565554e-002
2.393328e+003;6.585588e-002
2.395257e+003;6.581061e-002
2.397185e+003;6.587925e-002
2.399114e+003;6.577742e-002
2.401042e+003;6.590188e-002
2.402971e+003;6.650189e-002
2.404899e+003;6.653003e-002
2.406828e+003;6.625014e-002
2.408756e+003;6.649069e-002
2.410685e+003;6.679752e-002
2.412614e+003;6.673183e-002
2.414542e+003;6.675269e-002
2.416471e+003;6.695819e-002
2.418399e+003;6.720103e-002
2.420328e+003;6.755446e-002
2.422256e+003;6.781863e-002
2.424185e+003;6.786662e-002
2.426113e+003;6.798805e-002
2.428042e+003;6.802431e-002
2.429970e+003;6.812330e-002
2.431899e+003;6.817346e-002
2.433828e+003;6.809392e-002
2.435756e+003;6.834352e-002
2.437685e+003;6.815156e-002
2.439613e+003;6.815799e-002
2.441542e+003;6.860618e-002
2.443470e+003;6.891836e-002
2.445399e+003;6.894232e-002
2.447327e+003;6.881799e-002
2.449256e+003;6.877032e-002
2.451185e+003;6.885212e-002
2.453113e+003;6.887133e-002
2.455042e+003;6.887386e-002
2.456970e+003;6.889389e-002
2.458899e+003;6.879481e-002
2.460827e+003;6.879206e-002
2.462756e+003;6.892081e-002
2.464684e+003;6.916875e-002
2.466613e+003;6.923985e-002
2.468542e+003;6.928221e-002
2.470470e+003;6.962588e-002
2.472398e+003;6.983756e-002
2.474327e+003;6.980857e-002
2.476256e+003;6.961133e-002
2.478184e+003;6.959923e-002
2.480113e+003;6.972865e-002
2.482041e+003;6.967539e-002
2.483970e+003;6.960168e-002
2.485898e+003;6.985554e-002
2.487827e+003;6.992890e-002
2.489755e+003;6.998059e-002
2.491684e+003;7.034098e-002
2.493613e+003;7.039276e-002
2.495541e+003;7.026941e-002
2.497470e+003;7.042775e-002
2.499398e+003;7.043476e-002
2.501327e+003;7.030416e-002
2.503255e+003;7.049673e-002
2.505184e+003;7.059097e-002
2.507112e+003;7.084564e-002
2.509041e+003;7.109968e-002
2.510969e+003;7.113945e-002
2.512898e+003;7.127506e-002
2.514827e+003;7.141975e-002
2.516755e+003;7.153205e-002
2.518684e+003;7.153463e-002
2.520612e+003;7.128830e-002
2.522541e+003;7.115123e-002
2.524469e+003;7.132356e-002
2.526398e+003;7.147540e-002
2.528326e+003;7.170081e-002
2.530255e+003;7.193275e-002
2.532184e+003;7.200810e-002
2.534112e+003;7.199171e-002
2.536041e+003;7.204154e-002
2.537969e+003;7.222952e-002
2.539898e+003;7.234618e-002
2.541826e+003;7.232720e-002
2.543755e+003;7.213785e-002
2.545683e+003;7.211766e-002
2.547612e+003;7.228602e-002
2.549541e+003;7.235369e-002
2.551469e+003;7.234677e-002
2.553397e+003;7.242846e-002
2.555326e+003;7.263055e-002
2.557255e+003;7.267218e-002
2.559183e+003;7.266881e-002
2.561112e+003;7.264891e-002
2.563040e+003;7.279977e-002
2.564969e+003;7.315302e-002
2.566897e+003;7.313415e-002
2.568826e+003;7.295735e-002
2.570754e+003;7.319909e-002
2.572683e+003;7.327189e-002
2.574612e+003;7.321011e-002
2.576540e+003;7.326200e-002
2.578469e+003;7.342073e-002
2.580397e+003;7.355988e-002
2.582326e+003;7.308534e-002
2.584254e+003;7.275151e-002
2.586183e+003;7.297648e-002
2.588111e+003;7.318854e-002
2.590040e+003;7.357091e-002
2.591969e+003;7.378563e-002
2.593897e+003;7.368978e-002
2.595826e+003;7.370101e-002
2.597754e+003;7.375441e-002
2.599683e+003;7.393028e-002
2.601611e+003;7.409494e-002
2.603540e+003;7.416498e-002
2.605468e+003;7.430288e-002
2.607397e+003;7.430512e-002
2.609325e+003;7.439261e-002
2.611254e+003;7.447949e-002
2.613183e+003;7.426227e-002
2.615111e+003;7.454082e-002
2.617040e+003;7.476986e-002
2.618968e+003;7.492595e-002
2.620897e+003;7.526375e-002
2.622825e+003;7.520626e-002
2.624754e+003;7.491882e-002
2.626682e+003;7.486177e-002
2.628611e+003;7.533471e-002
2.630540e+003;7.563331e-002
2.632468e+003;7.590836e-002
2.634396e+003;7.603387e-002
2.636325e+003;7.586396e-002
2.638254e+003;7.593681e-002
2.640182e+003;7.591771e-002
2.642111e+003;7.602084e-002
2.644039e+003;7.626797e-002
2.645968e+003;7.641393e-002
2.647896e+003;7.657132e-002
2.649825e+003;7.677858e-002
2.651753e+003;7.695501e-002
2.653682e+003;7.684881e-002
2.655611e+003;7.670251e-002
2.657539e+003;7.691589e-002
2.659468e+003;7.693096e-002
2.661396e+003;7.683521e-002
2.663325e+003;7.689849e-002
2.665253e+003;7.696320e-002
2.667182e+003;7.706536e-002
2.669110e+003;7.725480e-002
2.671039e+003;7.743178e-002
2.672968e+003;7.740477e-002
2.674896e+003;7.757097e-002
2.676825e+003;7.788898e-002
2.678753e+003;7.790881e-002
2.680682e+003;7.780772e-002
2.682610e+003;7.797470e-002
2.684539e+003;7.802965e-002
2.686467e+003;7.793568e-002
2.688396e+003;7.815114e-002
2.690324e+003;7.841758e-002
2.692253e+003;7.853254e-002
2.694182e+003;7.857086e-002
2.696110e+003;7.850388e-002
2.698039e+003;7.883894e-002
2.699967e+003;7.900707e-002
2.701896e+003;7.890419e-002
2.703824e+003;7.887033e-002
2.705753e+003;7.899607e-002
2.707681e+003;7.943781e-002
2.709610e+003;7.976619e-002
2.711539e+003;7.979430e-002
2.713467e+003;7.970420e-002
2.715396e+003;7.982289e-002
2.717324e+003;7.994702e-002
2.719253e+003;7.980553e-002
2.721181e+003;7.982659e-002
2.723110e+003;8.016930e-002
2.725038e+003;8.028441e-002
2.726967e+003;8.022574e-002
2.728896e+003;8.025008e-002
2.730824e+003;8.010857e-002
2.732752e+003;8.001698e-002
2.734681e+003;8.015192e-002
2.736610e+003;7.995619e-002
2.738538e+003;7.994743e-002
2.740467e+003;8.021449e-002
2.742395e+003;8.027089e-002
2.744324e+003;8.027931e-002
2.746252e+003;8.054869e-002
2.748181e+003;8.080950e-002
2.750109e+003;8.078137e-002
2.752038e+003;8.083876e-002
2.753967e+003;8.087014e-002
2.755895e+003;8.110291e-002
2.757824e+003;8.162604e-002
2.759752e+003;8.201707e-002
2.761681e+003;8.211617e-002
2.763609e+003;8.197953e-002
2.765538e+003;8.181269e-002
2.767466e+003;8.203548e-002
2.769395e+003;8.237673e-002
2.771323e+003;8.247227e-002
2.773252e+003;8.257553e-002
2.775181e+003;8.263344e-002
2.777109e+003;8.272426e-002
2.779038e+003;8.270069e-002
2.780966e+003;8.277698e-002
2.782895e+003;8.295418e-002
2.784823e+003;8.306686e-002
2.786752e+003;8.314638e-002
2.788680e+003;8.326440e-002
2.790609e+003;8.350702e-002
2.792538e+003;8.385549e-002
2.794466e+003;8.417746e-002
2.796395e+003;8.477926e-002
2.798323e+003;8.518895e-002
2.800252e+003;8.528092e-002
2.802180e+003;8.509603e-002
2.804109e+003;8.507189e-002
2.806037e+003;8.557420e-002
2.807966e+003;8.592463e-002
2.809895e+003;8.604652e-002
2.811823e+003;8.667426e-002
2.813751e+003;8.728614e-002
2.815680e+003;8.762606e-002
2.817609e+003;8.820124e-002
2.819537e+003;8.870744e-002
2.821466e+003;8.891188e-002
2.823394e+003;8.955562e-002
2.825323e+003;9.034843e-002
2.827251e+003;9.079207e-002
2.829180e+003;9.137805e-002
2.831108e+003;9.227949e-002
2.833037e+003;9.306256e-002
2.834966e+003;9.386472e-002
2.836894e+003;9.497413e-002
2.838823e+003;9.576578e-002
2.840751e+003;9.623907e-002
2.842680e+003;9.707920e-002
2.844608e+003;9.810054e-002
2.846537e+003;9.914760e-002
2.848465e+003;1.002143e-001
2.850394e+003;1.012630e-001
2.852323e+003;1.023827e-001
2.854251e+003;1.034271e-001
2.856180e+003;1.045367e-001
2.858108e+003;1.055813e-001
2.860037e+003;1.064839e-001
2.861965e+003;1.073102e-001
2.863894e+003;1.083417e-001
2.865822e+003;1.092273e-001
2.867751e+003;1.095994e-001
2.869679e+003;1.102832e-001
2.871608e+003;1.113671e-001
2.873536e+003;1.116240e-001
2.875465e+003;1.115482e-001
2.877394e+003;1.118666e-001
2.879322e+003;1.123930e-001
2.881251e+003;1.128134e-001
2.883179e+003;1.129171e-001
2.885108e+003;1.131497e-001
2.887036e+003;1.135594e-001
2.888965e+003;1.139395e-001
2.890893e+003;1.144284e-001
2.892822e+003;1.149290e-001
2.894750e+003;1.150007e-001
2.896679e+003;1.147127e-001
2.898608e+003;1.145018e-001
2.900536e+003;1.144098e-001
2.902465e+003;1.140381e-001
2.904393e+003;1.139056e-001
2.906322e+003;1.139378e-001
2.908250e+003;1.137944e-001
2.910179e+003;1.132269e-001
2.912107e+003;1.124128e-001
2.914036e+003;1.117982e-001
2.915965e+003;1.115589e-001
2.917893e+003;1.115269e-001
2.919822e+003;1.110474e-001
2.921750e+003;1.102522e-001
2.923679e+003;1.093672e-001
2.925607e+003;1.087994e-001
2.927536e+003;1.087255e-001
2.929464e+003;1.084357e-001
2.931393e+003;1.080850e-001
2.933322e+003;1.074470e-001
2.935250e+003;1.063673e-001
2.937178e+003;1.057310e-001
2.939107e+003;1.052770e-001
2.941036e+003;1.047527e-001
2.942964e+003;1.040967e-001
2.944893e+003;1.031491e-001
2.946821e+003;1.021552e-001
2.948750e+003;1.010316e-001
2.950678e+003;1.000108e-001
2.952607e+003;9.890237e-002
2.954535e+003;9.769247e-002
2.956464e+003;9.669971e-002
2.958393e+003;9.595436e-002
2.960321e+003;9.497883e-002
2.962250e+003;9.440371e-002
2.964178e+003;9.392313e-002
2.966107e+003;9.289403e-002
2.968035e+003;9.217907e-002
2.969964e+003;9.164672e-002
2.971892e+003;9.076549e-002
2.973821e+003;8.997616e-002
2.975750e+003;8.958132e-002
2.977678e+003;8.891684e-002
2.979607e+003;8.793750e-002
2.981535e+003;8.724336e-002
2.983464e+003;8.676764e-002
2.985392e+003;8.621843e-002
2.987321e+003;8.597971e-002
2.989249e+003;8.577617e-002
2.991178e+003;8.540497e-002
2.993106e+003;8.494951e-002
2.995035e+003;8.470105e-002
2.996964e+003;8.457136e-002
2.998892e+003;8.427328e-002
3.000821e+003;8.421423e-002
3.002749e+003;8.424359e-002
3.004678e+003;8.411883e-002
3.006606e+003;8.413652e-002
3.008535e+003;8.388351e-002
3.010463e+003;8.361662e-002
3.012392e+003;8.371031e-002
3.014321e+003;8.363172e-002
3.016249e+003;8.313350e-002
3.018177e+003;8.278993e-002
3.020106e+003;8.290429e-002
3.022035e+003;8.301358e-002
3.023963e+003;8.287754e-002
3.025892e+003;8.299766e-002
3.027820e+003;8.305009e-002
3.029749e+003;8.277942e-002
3.031677e+003;8.244251e-002
3.033606e+003;8.251110e-002
3.035534e+003;8.271977e-002
3.037463e+003;8.297472e-002
3.039392e+003;8.310529e-002
3.041320e+003;8.311560e-002
3.043249e+003;8.330269e-002
3.045177e+003;8.352163e-002
3.047106e+003;8.363454e-002
3.049034e+003;8.367170e-002
3.050963e+003;8.387237e-002
3.052891e+003;8.403482e-002
3.054820e+003;8.397073e-002
3.056749e+003;8.463365e-002
3.058677e+003;8.520871e-002
3.060606e+003;8.496345e-002
3.062534e+003;8.501051e-002
3.064463e+003;8.536334e-002
3.066391e+003;8.578662e-002
3.068320e+003;8.602908e-002
3.070248e+003;8.608074e-002
3.072177e+003;8.609476e-002
3.074105e+003;8.623945e-002
3.076034e+003;8.641216e-002
3.077963e+003;8.663441e-002
3.079891e+003;8.699181e-002
3.081820e+003;8.732442e-002
3.083748e+003;8.770606e-002
3.085677e+003;8.805808e-002
3.087605e+003;8.844236e-002
3.089534e+003;8.881161e-002
3.091462e+003;8.891102e-002
3.093391e+003;8.910986e-002
3.095320e+003;8.941259e-002
3.097248e+003;8.966114e-002
3.099177e+003;9.004620e-002
3.101105e+003;9.025559e-002
3.103034e+003;9.031788e-002
3.104962e+003;9.054993e-002
3.106891e+003;9.069963e-002
3.108819e+003;9.097834e-002
3.110748e+003;9.138537e-002
3.112677e+003;9.112062e-002
3.114605e+003;9.108078e-002
3.116533e+003;9.189443e-002
3.118462e+003;9.263291e-002
3.120391e+003;9.295206e-002
3.122319e+003;9.313268e-002
3.124248e+003;9.338186e-002
3.126176e+003;9.393658e-002
3.128105e+003;9.431840e-002
3.130033e+003;9.415416e-002
3.131962e+003;9.444004e-002
3.133890e+003;9.501697e-002
3.135819e+003;9.550314e-002
3.137748e+003;9.603214e-002
3.139676e+003;9.657975e-002
3.141605e+003;9.677323e-002
3.143533e+003;9.693292e-002
3.145462e+003;9.738774e-002
3.147390e+003;9.786735e-002
3.149319e+003;9.821326e-002
3.151247e+003;9.859528e-002
3.153176e+003;9.915904e-002
3.155104e+003;9.935851e-002
3.157033e+003;9.981883e-002
3.158962e+003;1.007683e-001
3.160890e+003;1.012476e-001
3.162819e+003;1.014624e-001
3.164747e+003;1.019854e-001
3.166676e+003;1.023045e-001
3.168604e+003;1.024395e-001
3.170533e+003;1.031706e-001
3.172461e+003;1.039656e-001
3.174390e+003;1.044551e-001
3.176319e+003;1.048033e-001
3.178247e+003;1.051308e-001
3.180176e+003;1.055862e-001
3.182104e+003;1.060352e-001
3.184033e+003;1.066077e-001
3.185961e+003;1.072673e-001
3.187890e+003;1.074854e-001
3.189818e+003;1.082265e-001
3.191747e+003;1.091981e-001
3.193676e+003;1.095868e-001
3.195604e+003;1.101356e-001
3.197532e+003;1.105134e-001
3.199461e+003;1.106660e-001
3.201390e+003;1.111253e-001
3.203318e+003;1.117306e-001
3.205247e+003;1.123278e-001
3.207175e+003;1.129832e-001
3.209104e+003;1.133968e-001
3.211032e+003;1.139308e-001
3.212961e+003;1.148826e-001
3.214889e+003;1.157119e-001
3.216818e+003;1.161724e-001
3.218747e+003;1.168433e-001
3.220675e+003;1.177631e-001
3.222604e+003;1.181819e-001
3.224532e+003;1.181964e-001
3.226461e+003;1.189426e-001
3.228389e+003;1.199156e-001
3.230318e+003;1.201723e-001
3.232246e+003;1.204678e-001
3.234175e+003;1.210417e-001
3.236104e+003;1.217361e-001
3.238032e+003;1.225921e-001
3.239961e+003;1.236108e-001
3.241889e+003;1.246971e-001
3.243818e+003;1.258059e-001
3.245746e+003;1.263504e-001
3.247675e+003;1.266418e-001
3.249603e+003;1.271861e-001
3.251532e+003;1.279196e-001
3.253460e+003;1.288856e-001
3.255389e+003;1.295888e-001
3.257318e+003;1.298349e-001
3.259246e+003;1.305996e-001
3.261175e+003;1.315034e-001
3.263103e+003;1.323004e-001
3.265032e+003;1.329209e-001
3.266960e+003;1.332855e-001
3.268889e+003;1.338254e-001
3.270817e+003;1.347147e-001
3.272746e+003;1.355035e-001
3.274675e+003;1.361620e-001
3.276603e+003;1.361066e-001
3.278531e+003;1.364258e-001
3.280460e+003;1.371302e-001
3.282389e+003;1.377762e-001
3.284317e+003;1.385776e-001
3.286246e+003;1.391004e-001
3.288174e+003;1.396151e-001
3.290103e+003;1.399855e-001
3.292031e+003;1.402425e-001
3.293960e+003;1.405520e-001
3.295888e+003;1.406827e-001
3.297817e+003;1.410304e-001
3.299746e+003;1.414450e-001
3.301674e+003;1.413751e-001
3.303603e+003;1.418774e-001
3.305531e+003;1.427391e-001
3.307460e+003;1.427348e-001
3.309388e+003;1.429593e-001
3.311317e+003;1.432501e-001
3.313245e+003;1.431969e-001
3.315174e+003;1.438245e-001
3.317103e+003;1.441616e-001
3.319031e+003;1.442670e-001
3.320960e+003;1.450882e-001
3.322888e+003;1.455224e-001
3.324817e+003;1.451981e-001
3.326745e+003;1.452376e-001
3.328674e+003;1.458200e-001
3.330602e+003;1.463262e-001
3.332531e+003;1.465901e-001
3.334459e+003;1.465725e-001
3.336388e+003;1.463986e-001
3.338317e+003;1.463662e-001
3.340245e+003;1.463148e-001
3.342174e+003;1.460431e-001
3.344102e+003;1.461914e-001
3.346031e+003;1.465179e-001
3.347959e+003;1.463354e-001
3.349888e+003;1.459219e-001
3.351816e+003;1.454918e-001
3.353745e+003;1.455228e-001
3.355674e+003;1.455927e-001
3.357602e+003;1.451943e-001
3.359531e+003;1.450199e-001
3.361459e+003;1.449997e-001
3.363388e+003;1.448313e-001
3.365316e+003;1.445766e-001
3.367245e+003;1.444519e-001
3.369173e+003;1.442937e-001
3.371102e+003;1.436343e-001
3.373031e+003;1.432289e-001
3.374959e+003;1.431043e-001
3.376887e+003;1.428671e-001
3.378816e+003;1.424215e-001
3.380745e+003;1.420888e-001
3.382673e+003;1.416961e-001
3.384602e+003;1.417142e-001
3.386530e+003;1.414615e-001
3.388459e+003;1.412537e-001
3.390387e+003;1.409386e-001
3.392316e+003;1.403710e-001
3.394244e+003;1.402404e-001
3.396173e+003;1.400281e-001
3.398102e+003;1.391050e-001
3.400030e+003;1.384808e-001
3.401959e+003;1.385317e-001
3.403887e+003;1.384091e-001
3.405816e+003;1.381017e-001
3.407744e+003;1.376612e-001
3.409673e+003;1.368922e-001
3.411601e+003;1.358777e-001
3.413530e+003;1.355573e-001
3.415458e+003;1.353431e-001
3.417387e+003;1.343358e-001
3.419316e+003;1.337854e-001
3.421244e+003;1.338471e-001
3.423173e+003;1.337635e-001
3.425101e+003;1.332667e-001
3.427030e+003;1.323337e-001
3.428958e+003;1.316317e-001
3.430887e+003;1.311849e-001
3.432815e+003;1.305861e-001
3.434744e+003;1.301751e-001
3.436673e+003;1.298555e-001
3.438601e+003;1.286041e-001
3.440530e+003;1.271636e-001
3.442458e+003;1.264851e-001
3.444387e+003;1.263518e-001
3.446315e+003;1.259264e-001
3.448244e+003;1.252329e-001
3.450172e+003;1.243824e-001
3.452101e+003;1.239073e-001
3.454030e+003;1.235760e-001
3.455958e+003;1.226742e-001
3.457886e+003;1.216391e-001
3.459815e+003;1.210340e-001
3.461744e+003;1.206454e-001
3.463672e+003;1.200046e-001
3.465601e+003;1.190655e-001
3.467529e+003;1.184539e-001
3.469458e+003;1.176599e-001
3.471386e+003;1.170457e-001
3.473315e+003;1.164543e-001
3.475243e+003;1.156122e-001
3.477172e+003;1.148988e-001
3.479101e+003;1.139774e-001
3.481029e+003;1.131176e-001
3.482958e+003;1.121252e-001
3.484886e+003;1.113703e-001
3.486815e+003;1.105580e-001
3.488743e+003;1.098366e-001
3.490672e+003;1.092403e-001
3.492600e+003;1.081790e-001
3.494529e+003;1.073825e-001
3.496458e+003;1.064498e-001
3.498386e+003;1.052622e-001
3.500315e+003;1.048560e-001
3.502243e+003;1.046251e-001
3.504172e+003;1.036615e-001
3.506100e+003;1.027140e-001
3.508029e+003;1.016509e-001
3.509957e+003;1.008822e-001
3.511886e+003;1.004547e-001
3.513814e+003;1.001535e-001
3.515743e+003;9.926597e-002
3.517672e+003;9.775107e-002
3.519600e+003;9.710115e-002
3.521529e+003;9.683596e-002
3.523457e+003;9.619813e-002
3.525386e+003;9.571370e-002
3.527314e+003;9.530837e-002
3.529243e+003;9.437402e-002
3.531171e+003;9.297915e-002
3.533100e+003;9.207727e-002
3.535029e+003;9.164848e-002
3.536957e+003;9.096972e-002
3.538885e+003;9.029128e-002
3.540814e+003;8.963370e-002
3.542743e+003;8.850021e-002
3.544671e+003;8.760040e-002
3.546600e+003;8.692478e-002
3.548528e+003;8.641839e-002
3.550457e+003;8.580043e-002
3.552385e+003;8.485958e-002
3.554314e+003;8.374157e-002
3.556242e+003;8.287766e-002
3.558171e+003;8.243950e-002
3.560100e+003;8.200826e-002
3.562028e+003;8.106560e-002
3.563957e+003;8.020577e-002
3.565885e+003;8.001331e-002
3.567814e+003;7.926251e-002
3.569742e+003;7.817783e-002
3.571671e+003;7.764489e-002
3.573599e+003;7.760547e-002
3.575528e+003;7.710283e-002
3.577457e+003;7.630122e-002
3.579385e+003;7.539371e-002
3.581314e+003;7.452110e-002
3.583242e+003;7.408877e-002
3.585171e+003;7.390082e-002
3.587099e+003;7.373890e-002
3.589028e+003;7.330742e-002
3.590956e+003;7.227659e-002
3.592885e+003;7.154643e-002
3.594813e+003;7.099704e-002
3.596742e+003;7.035773e-002
3.598671e+003;7.011133e-002
3.600599e+003;7.028075e-002
3.602528e+003;7.006313e-002
3.604456e+003;6.905216e-002
3.606385e+003;6.835856e-002
3.608313e+003;6.821963e-002
3.610242e+003;6.789234e-002
3.612170e+003;6.739385e-002
3.614099e+003;6.670795e-002
3.616028e+003;6.611477e-002
3.617956e+003;6.576219e-002
3.619885e+003;6.560300e-002
3.621813e+003;6.556285e-002
3.623742e+003;6.562358e-002
3.625670e+003;6.565820e-002
3.627599e+003;6.516691e-002
3.629527e+003;6.432723e-002
3.631456e+003;6.377884e-002
3.633385e+003;6.338157e-002
3.635313e+003;6.287991e-002
3.637241e+003;6.228967e-002
3.639170e+003;6.187056e-002
3.641099e+003;6.177402e-002
3.643027e+003;6.169416e-002
3.644956e+003;6.138778e-002
3.646884e+003;6.131668e-002
3.648813e+003;6.132683e-002
3.650741e+003;6.086558e-002
3.652670e+003;6.095021e-002
3.654598e+003;6.086394e-002
3.656527e+003;5.988136e-002
3.658456e+003;5.935797e-002
3.660384e+003;5.848166e-002
3.662313e+003;5.780083e-002
3.664241e+003;5.795950e-002
3.666170e+003;5.808371e-002
3.668098e+003;5.759864e-002
3.670027e+003;5.700303e-002
3.671955e+003;5.659371e-002
3.673884e+003;5.639910e-002
3.675813e+003;5.621460e-002
3.677741e+003;5.588712e-002
3.679669e+003;5.572066e-002
3.681598e+003;5.517494e-002
3.683527e+003;5.467939e-002
3.685455e+003;5.435171e-002
3.687384e+003;5.425240e-002
3.689312e+003;5.416944e-002
3.691241e+003;5.417233e-002
3.693169e+003;5.409189e-002
3.695098e+003;5.358600e-002
3.697026e+003;5.345186e-002
3.698955e+003;5.321936e-002
3.700884e+003;5.261045e-002
3.702812e+003;5.255118e-002
3.704741e+003;5.306983e-002
3.706669e+003;5.285868e-002
3.708598e+003;5.192947e-002
3.710526e+003;5.186730e-002
3.712455e+003;5.204140e-002
3.714383e+003;5.192924e-002
3.716312e+003;5.218437e-002
3.718240e+003;5.233811e-002
3.720169e+003;5.179266e-002
3.722098e+003;5.132945e-002
3.724026e+003;5.129906e-002
3.725955e+003;5.088114e-002
3.727883e+003;5.063609e-002
3.729812e+003;5.075343e-002
3.731740e+003;5.063583e-002
3.733669e+003;5.072654e-002
3.735597e+003;5.058416e-002
3.737526e+003;5.050774e-002
3.739455e+003;5.079346e-002
3.741383e+003;5.087515e-002
3.743312e+003;5.055490e-002
3.745240e+003;5.085432e-002
3.747169e+003;5.122229e-002
3.749097e+003;5.079097e-002
3.751026e+003;5.043636e-002
3.752954e+003;5.051574e-002
3.754883e+003;5.062991e-002
3.756812e+003;5.045485e-002
3.758740e+003;5.021673e-002
3.760668e+003;5.022879e-002
3.762597e+003;5.013580e-002
3.764526e+003;4.988868e-002
3.766454e+003;5.014800e-002
3.768383e+003;5.041697e-002
3.770311e+003;5.032592e-002
3.772240e+003;5.024073e-002
3.774168e+003;4.999094e-002
3.776097e+003;5.002763e-002
3.778025e+003;5.029530e-002
3.779954e+003;5.046151e-002
3.781883e+003;5.063256e-002
3.783811e+003;5.054887e-002
3.785740e+003;5.051019e-002
3.787668e+003;5.063349e-002
3.789597e+003;5.049713e-002
3.791525e+003;5.055333e-002
3.793454e+003;5.114542e-002
3.795382e+003;5.138364e-002
3.797311e+003;5.133012e-002
3.799240e+003;5.120786e-002
3.801168e+003;5.115630e-002
3.803097e+003;5.142470e-002
3.805025e+003;5.125010e-002
3.806954e+003;5.110554e-002
3.808882e+003;5.116671e-002
3.810811e+003;5.102485e-002
3.812739e+003;5.092850e-002
3.814668e+003;5.067883e-002
3.816596e+003;5.062645e-002
3.818525e+003;5.058788e-002
3.820454e+003;5.047409e-002
3.822382e+003;5.085008e-002
3.824311e+003;5.131476e-002
3.826239e+003;5.150699e-002
3.828168e+003;5.147125e-002
3.830096e+003;5.121766e-002
3.832025e+003;5.083611e-002
3.833953e+003;5.073201e-002
3.835882e+003;5.106718e-002
3.837811e+003;5.173063e-002
3.839739e+003;5.205794e-002
3.841667e+003;5.170494e-002
3.843596e+003;5.185292e-002
3.845525e+003;5.178001e-002
3.847453e+003;5.177389e-002
3.849382e+003;5.183052e-002
3.851310e+003;5.149423e-002
3.853239e+003;5.141280e-002
3.855167e+003;5.164699e-002
3.857096e+003;5.146763e-002
3.859024e+003;5.136782e-002
3.860953e+003;5.144768e-002
3.862882e+003;5.182708e-002
3.864810e+003;5.266521e-002
3.866739e+003;5.276207e-002
3.868667e+003;5.266215e-002
3.870596e+003;5.308178e-002
3.872524e+003;5.307770e-002
3.874453e+003;5.305179e-002
3.876381e+003;5.321846e-002
3.878310e+003;5.341607e-002
3.880239e+003;5.329008e-002
3.882167e+003;5.308574e-002
3.884096e+003;5.341450e-002
3.886024e+003;5.322235e-002
3.887953e+003;5.290389e-002
3.889881e+003;5.286063e-002
3.891810e+003;5.338104e-002
3.893738e+003;5.333788e-002
3.895667e+003;5.298144e-002
3.897595e+003;5.326131e-002
3.899524e+003;5.378097e-002
3.901453e+003;5.398405e-002
3.903381e+003;5.400682e-002
3.905310e+003;5.389000e-002
3.907238e+003;5.394244e-002
3.909167e+003;5.385380e-002
3.911095e+003;5.372171e-002
3.913024e+003;5.370342e-002
3.914952e+003;5.424526e-002
3.916881e+003;5.486621e-002
3.918810e+003;5.447287e-002
3.920738e+003;5.381048e-002
3.922667e+003;5.415262e-002
3.924595e+003;5.486760e-002
3.926524e+003;5.527458e-002
3.928452e+003;5.509060e-002
3.930381e+003;5.488820e-002
3.932309e+003;5.482887e-002
3.934238e+003;5.484151e-002
3.936167e+003;5.525245e-002
3.938095e+003;5.552200e-002
3.940023e+003;5.571938e-002
3.941952e+003;5.550716e-002
3.943881e+003;5.528831e-002
3.945809e+003;5.550648e-002
3.947738e+003;5.559663e-002
3.949666e+003;5.518717e-002
3.951595e+003;5.545513e-002
3.953523e+003;5.556617e-002
3.955452e+003;5.493866e-002
3.957380e+003;5.475719e-002
3.959309e+003;5.501774e-002
3.961238e+003;5.539750e-002
3.963166e+003;5.566333e-002
3.965095e+003;5.546014e-002
3.967023e+003;5.573871e-002
3.968952e+003;5.604256e-002
3.970880e+003;5.608768e-002
3.972809e+003;5.650294e-002
3.974737e+003;5.677886e-002
3.976666e+003;5.665501e-002
3.978594e+003;5.621042e-002
3.980523e+003;5.602910e-002
3.982452e+003;5.660730e-002
3.984380e+003;5.705804e-002
3.986309e+003;5.702309e-002
3.988237e+003;5.676107e-002
3.990166e+003;5.679286e-002
3.992094e+003;5.685514e-002
3.994023e+003;5.601726e-002
3.995951e+003;5.570518e-002
3.997880e+003;5.626375e-002
3.999809e+003;5.669205e-002
4.001737e+003;0.000000e+000
