3.992094e+002;0.000000e+000
4.011380e+002;0.000000e+000
4.030665e+002;0.000000e+000
4.049951e+002;0.000000e+000
4.069236e+002;0.000000e+000
4.088522e+002;0.000000e+000
4.107807e+002;0.000000e+000
4.127093e+002;0.000000e+000
4.146378e+002;0.000000e+000
4.165664e+002;0.000000e+000
4.184949e+002;0.000000e+000
4.204235e+002;0.000000e+000
4.223520e+002;0.000000e+000
4.242806e+002;0.000000e+000
4.262091e+002;0.000000e+000
4.281377e+002;0.000000e+000
4.300662e+002;0.000000e+000
4.319948e+002;0.000000e+000
4.339233e+002;0.000000e+000
4.358519e+002;0.000000e+000
4.377804e+002;0.000000e+000
4.397090e+002;0.000000e+000
4.416375e+002;0.000000e+000
4.435660e+002;0.000000e+000
4.454946e+002;0.000000e+000
4.474232e+002;0.000000e+000
4.493517e+002;0.000000e+000
4.512802e+002;0.000000e+000
4.532088e+002;0.000000e+000
4.551373e+002;0.000000e+000
4.570659e+002;0.000000e+000
4.589944e+002;0.000000e+000
4.609230e+002;0.000000e+000
4.628515e+002;0.000000e+000
4.647801e+002;0.000000e+000
4.667086e+002;0.000000e+000
4.686372e+002;0.000000e+000
4.705657e+002;0.000000e+000
4.724943e+002;0.000000e+000
4.744228e+002;0.000000e+000
4.763513e+002;0.000000e+000
4.782799e+002;0.000000e+000
4.802085e+002;0.000000e+000
4.821370e+002;0.000000e+000
4.840656e+002;0.000000e+000
4.859941e+002;0.000000e+000
4.879226e+002;0.000000e+000
4.898512e+002;0.000000e+000
4.917798e+002;0.000000e+000
4.937083e+002;0.000000e+000
4.956368e+002;0.000000e+000
4.975654e+002;0.000000e+000
4.994939e+002;0.000000e+000
5.014225e+002;0.000000e+000
5.033510e+002;0.000000e+000
5.052796e+002;0.000000e+000
5.072081e+002;0.000000e+000
5.091367e+002;0.000000e+000
5.110652e+002;0.000000e+000
5.129938e+002;0.000000e+000
5.149223e+002;0.000000e+000
5.168509e+002;0.000000e+000
5.187794e+002;0.000000e+000
5.207079e+002;0.000000e+000
5.226365e+002;0.000000e+000
5.245651e+002;0.000000e+000
5.264936e+002;0.000000e+000
5.284222e+002;0.000000e+000
5.303507e+002;0.000000e+000
5.322792e+002;0.000000e+000
5.342078e+002;0.000000e+000
5.361364e+002;0.000000e+000
5.380649e+002;0.000000e+000
5.399935e+002;0.000000e+000
5.419220e+002;0.000000e+000
5.438505e+002;0.000000e+000
5.457791e+002;0.000000e+000
5.477076e+002;0.000000e+000
5.496362e+002;0.000000e+000
5.515648e+002;0.000000e+000
5.534933e+002;0.000000e+000
5.554218e+002;0.000000e+000
5.573504e+002;0.000000e+000
5.592789e+002;0.000000e+000
5.612075e+002;0.000000e+000
5.631360e+002;0.000000e+000
5.650646e+002;0.000000e+000
5.669931e+002;0.000000e+000
5.689217e+002;0.000000e+000
5.708502e+002;0.000000e+000
5.727787e+002;0.000000e+000
5.747073e+002;0.000000e+000
5.766359e+002;0.000000e+000
5.785644e+002;0.000000e+000
5.804930e+002;0.000000e+000
5.824215e+002;0.000000e+000
5.843500e+002;0.000000e+000
5.862786e+002;0.000000e+000
5.882072e+002;0.000000e+000
5.901357e+002;0.000000e+000
5.920643e+002;0.000000e+000
5.939928e+002;0.000000e+000
5.959213e+002;0.000000e+000
5.978499e+002;0.000000e+000
5.997784e+002;2.277068e-001
6.017070e+002;2.412356e-001
6.036355e+002;2.381458e-001
6.055641e+002;2.380621e-001
6.074926e+002;2.415462e-001
6.094211e+002;2.404427e-001
6.113497e+002;2.356001e-001
6.132783e+002;2.292707e-001
6.152068e+002;2.279421e-001
6.171354e+002;2.281636e-001
6.190639e+002;2.279361e-001
6.209924e+002;2.257473e-001
6.229210e+002;2.190266e-001
6.248495e+002;2.141074e-001
6.267781e+002;2.158350e-001
6.287067e+002;2.166012e-001
6.306352e+002;2.163144e-001
6.325637e+002;2.126030e-001
6.344923e+002;2.073929e-001
6.364208e+002;2.071688e-001
6.383494e+002;2.108421e-001
6.402780e+002;2.111490e-001
6.422065e+002;2.066062e-001
6.441350e+002;2.068064e-001
6.460636e+002;2.095294e-001
6.479921e+002;2.060979e-001
6.499207e+002;2.050866e-001
6.518492e+002;2.096505e-001
6.537778e+002;2.091007e-001
6.557063e+002;2.087411e-001
6.576349e+002;2.107370e-001
6.595634e+002;2.131749e-001
6.614919e+002;2.165429e-001
6.634205e+002;2.164085e-001
6.653491e+002;2.110880e-001
6.672776e+002;2.074203e-001
6.692062e+002;2.086812e-001
6.711347e+002;2.089918e-001
6.730632e+002;2.061451e-001
6.749918e+002;2.018056e-001
6.769203e+002;1.964905e-001
6.788489e+002;1.908903e-001
6.807775e+002;1.862157e-001
6.827060e+002;1.849769e-001
6.846345e+002;1.851605e-001
6.865631e+002;1.839255e-001
6.884916e+002;1.830327e-001
6.904202e+002;1.822373e-001
6.923488e+002;1.814091e-001
6.942773e+002;1.804787e-001
6.962058e+002;1.802508e-001
6.981344e+002;1.794473e-001
7.000629e+002;1.773433e-001
7.019915e+002;1.763768e-001
7.039200e+002;1.766163e-001
7.058486e+002;1.755678e-001
7.077771e+002;1.741234e-001
7.097057e+002;1.728730e-001
7.116342e+002;1.717942e-001
7.135627e+002;1.710915e-001
7.154913e+002;1.693621e-001
7.174199e+002;1.668062e-001
7.193484e+002;1.644241e-001
7.212770e+002;1.639201e-001
7.232055e+002;1.632544e-001
7.251340e+002;1.602869e-001
7.270626e+002;1.566761e-001
7.289911e+002;1.549964e-001
7.309197e+002;1.543008e-001
7.328483e+002;1.526242e-001
7.347768e+002;1.500543e-001
7.367053e+002;1.483646e-001
7.386339e+002;1.473389e-001
7.405624e+002;1.462848e-001
7.424910e+002;1.443526e-001
7.444196e+002;1.423378e-001
7.463481e+002;1.410897e-001
7.482766e+002;1.401102e-001
7.502052e+002;1.386019e-001
7.521337e+002;1.367598e-001
7.540623e+002;1.358999e-001
7.559908e+002;1.355832e-001
7.579194e+002;1.343280e-001
7.598479e+002;1.332169e-001
7.617765e+002;1.318558e-001
7.637050e+002;1.307862e-001
7.656335e+002;1.307802e-001
7.675621e+002;1.304032e-001
7.694907e+002;1.296645e-001
7.714192e+002;1.291181e-001
7.733478e+002;1.286938e-001
7.752763e+002;1.280193e-001
7.772048e+002;1.276494e-001
7.791334e+002;1.281629e-001
7.810620e+002;1.278202e-001
7.829905e+002;1.261412e-001
7.849191e+002;1.254811e-001
7.868476e+002;1.253839e-001
7.887761e+002;1.255853e-001
7.907047e+002;1.253804e-001
7.926332e+002;1.243283e-001
7.945618e+002;1.233935e-001
7.964903e+002;1.235405e-001
7.984189e+002;1.243195e-001
8.003474e+002;1.243096e-001
8.022759e+002;1.235267e-001
8.042045e+002;1.228695e-001
8.061331e+002;1.230022e-001
8.080616e+002;1.226958e-001
8.099902e+002;1.217871e-001
8.119187e+002;1.213076e-001
8.138472e+002;1.220229e-001
8.157758e+002;1.227531e-001
8.177043e+002;1.230708e-001
8.196329e+002;1.228424e-001
8.215615e+002;1.225273e-001
8.234900e+002;1.223520e-001
8.254185e+002;1.231973e-001
8.273471e+002;1.242474e-001
8.292756e+002;1.244466e-001
8.312042e+002;1.240706e-001
8.331328e+002;1.241157e-001
8.350613e+002;1.247963e-001
8.369898e+002;1.247908e-001
8.389184e+002;1.242965e-001
8.408469e+002;1.242287e-001
8.427755e+002;1.242571e-001
8.447040e+002;1.244265e-001
8.466326e+002;1.247237e-001
8.485611e+002;1.248336e-001
8.504897e+002;1.243752e-001
8.524182e+002;1.243163e-001
8.543467e+002;1.245981e-001
8.562753e+002;1.250946e-001
8.582039e+002;1.264686e-001
8.601324e+002;1.275264e-001
8.620610e+002;1.284531e-001
8.639895e+002;1.297327e-001
8.659180e+002;1.311825e-001
8.678466e+002;1.335150e-001
8.697751e+002;1.365729e-001
8.717037e+002;1.400924e-001
8.736323e+002;1.430227e-001
8.755608e+002;1.448046e-001
8.774893e+002;1.462377e-001
8.794179e+002;1.475659e-001
8.813464e+002;1.485722e-001
8.832750e+002;1.498766e-001
8.852036e+002;1.522399e-001
8.871321e+002;1.552398e-001
8.890606e+002;1.578382e-001
8.909892e+002;1.604021e-001
8.929177e+002;1.633010e-001
8.948463e+002;1.654059e-001
8.967748e+002;1.657148e-001
8.987034e+002;1.654614e-001
9.006319e+002;1.639857e-001
9.025605e+002;1.618001e-001
9.044890e+002;1.597774e-001
9.064175e+002;1.577257e-001
9.083461e+002;1.556671e-001
9.102747e+002;1.541053e-001
9.122032e+002;1.529125e-001
9.141318e+002;1.522723e-001
9.160603e+002;1.526132e-001
9.179888e+002;1.528547e-001
9.199174e+002;1.529680e-001
9.218459e+002;1.533623e-001
9.237745e+002;1.538750e-001
9.257031e+002;1.553447e-001
9.276316e+002;1.567780e-001
9.295601e+002;1.576623e-001
9.314887e+002;1.593796e-001
9.334172e+002;1.617636e-001
9.353458e+002;1.637290e-001
9.372744e+002;1.657962e-001
9.392029e+002;1.687960e-001
9.411314e+002;1.720247e-001
9.430600e+002;1.752839e-001
9.449885e+002;1.785911e-001
9.469171e+002;1.820188e-001
9.488456e+002;1.860275e-001
9.507742e+002;1.912324e-001
9.527027e+002;1.963128e-001
9.546313e+002;2.011186e-001
9.565598e+002;2.069093e-001
9.584883e+002;2.132128e-001
9.604169e+002;2.193510e-001
9.623455e+002;2.246482e-001
9.642740e+002;2.290426e-001
9.662026e+002;2.341624e-001
9.681311e+002;2.407265e-001
9.700596e+002;2.476568e-001
9.719882e+002;2.544819e-001
9.739167e+002;2.618612e-001
9.758453e+002;2.705294e-001
9.777739e+002;2.801319e-001
9.797024e+002;2.901695e-001
9.816309e+002;2.994786e-001
9.835595e+002;3.074171e-001
9.854880e+002;3.126806e-001
9.874166e+002;3.155955e-001
9.893452e+002;3.177301e-001
9.912737e+002;3.191971e-001
9.932022e+002;3.211468e-001
9.951307e+002;3.240921e-001
9.970593e+002;3.278225e-001
9.989879e+002;3.321310e-001
1.000916e+003;3.360240e-001
1.002845e+003;3.387813e-001
1.004773e+003;3.412330e-001
1.006702e+003;3.441398e-001
1.008631e+003;3.464607e-001
1.010559e+003;3.488278e-001
1.012488e+003;3.526892e-001
1.014416e+003;3.577569e-001
1.016345e+003;3.625368e-001
1.018273e+003;3.676301e-001
1.020202e+003;3.732921e-001
1.022130e+003;3.787637e-001
1.024059e+003;3.824869e-001
1.025988e+003;3.847659e-001
1.027916e+003;3.861703e-001
1.029845e+003;3.866949e-001
1.031773e+003;3.867163e-001
1.033702e+003;3.849694e-001
1.035630e+003;3.808360e-001
1.037559e+003;3.756310e-001
1.039487e+003;3.713291e-001
1.041416e+003;3.686987e-001
1.043344e+003;3.670115e-001
1.045273e+003;3.674990e-001
1.047202e+003;3.680424e-001
1.049130e+003;3.679418e-001
1.051059e+003;3.669564e-001
1.052987e+003;3.641624e-001
1.054916e+003;3.597000e-001
1.056844e+003;3.534803e-001
1.058773e+003;3.459613e-001
1.060701e+003;3.364794e-001
1.062630e+003;3.237004e-001
1.064558e+003;3.109500e-001
1.066487e+003;3.001125e-001
1.068416e+003;2.908160e-001
1.070344e+003;2.825431e-001
1.072273e+003;2.750285e-001
1.074201e+003;2.695380e-001
1.076130e+003;2.657382e-001
1.078058e+003;2.624108e-001
1.079987e+003;2.586677e-001
1.081915e+003;2.551890e-001
1.083844e+003;2.531790e-001
1.085773e+003;2.528534e-001
1.087701e+003;2.522082e-001
1.089630e+003;2.517884e-001
1.091558e+003;2.520327e-001
1.093487e+003;2.523661e-001
1.095415e+003;2.536066e-001
1.097344e+003;2.551037e-001
1.099272e+003;2.555992e-001
1.101201e+003;2.550545e-001
1.103129e+003;2.545492e-001
1.105058e+003;2.530143e-001
1.106987e+003;2.489995e-001
1.108915e+003;2.442374e-001
1.110844e+003;2.392585e-001
1.112772e+003;2.328999e-001
1.114701e+003;2.252501e-001
1.116629e+003;2.163772e-001
1.118558e+003;2.079170e-001
1.120486e+003;2.011384e-001
1.122415e+003;1.956719e-001
1.124344e+003;1.902188e-001
1.126272e+003;1.837313e-001
1.128201e+003;1.769303e-001
1.130129e+003;1.706432e-001
1.132058e+003;1.647124e-001
1.133986e+003;1.597029e-001
1.135915e+003;1.558418e-001
1.137843e+003;1.529179e-001
1.139772e+003;1.511075e-001
1.141700e+003;1.508181e-001
1.143629e+003;1.515322e-001
1.145557e+003;1.527546e-001
1.147486e+003;1.538060e-001
1.149415e+003;1.539446e-001
1.151343e+003;1.537869e-001
1.153272e+003;1.539858e-001
1.155200e+003;1.537208e-001
1.157129e+003;1.526002e-001
1.159057e+003;1.510359e-001
1.160986e+003;1.483017e-001
1.162914e+003;1.446544e-001
1.164843e+003;1.402960e-001
1.166771e+003;1.350017e-001
1.168700e+003;1.287296e-001
1.170629e+003;1.227044e-001
1.172557e+003;1.171832e-001
1.174486e+003;1.120883e-001
1.176414e+003;1.079104e-001
1.178343e+003;1.051530e-001
1.180271e+003;1.035471e-001
1.182200e+003;1.026374e-001
1.184128e+003;1.021181e-001
1.186057e+003;1.019518e-001
1.187986e+003;1.028189e-001
1.189914e+003;1.043809e-001
1.191843e+003;1.062954e-001
1.193771e+003;1.086197e-001
1.195700e+003;1.111316e-001
1.197628e+003;1.134452e-001
1.199557e+003;1.147900e-001
1.201485e+003;1.152240e-001
1.203414e+003;1.154460e-001
1.205343e+003;1.154237e-001
1.207271e+003;1.145259e-001
1.209200e+003;1.126227e-001
1.211128e+003;1.111758e-001
1.213057e+003;1.106490e-001
1.214985e+003;1.106157e-001
1.216914e+003;1.116171e-001
1.218842e+003;1.133055e-001
1.220771e+003;1.148503e-001
1.222699e+003;1.163522e-001
1.224628e+003;1.178841e-001
1.226557e+003;1.190517e-001
1.228485e+003;1.203218e-001
1.230414e+003;1.215977e-001
1.232342e+003;1.225819e-001
1.234271e+003;1.233432e-001
1.236199e+003;1.235124e-001
1.238128e+003;1.229617e-001
1.240056e+003;1.224520e-001
1.241985e+003;1.227579e-001
1.243913e+003;1.231322e-001
1.245842e+003;1.232087e-001
1.247771e+003;1.227475e-001
1.249699e+003;1.219150e-001
1.251628e+003;1.211936e-001
1.253556e+003;1.209123e-001
1.255485e+003;1.210032e-001
1.257413e+003;1.213832e-001
1.259342e+003;1.215338e-001
1.261270e+003;1.210890e-001
1.263199e+003;1.206233e-001
1.265127e+003;1.199654e-001
1.267056e+003;1.194475e-001
1.268985e+003;1.195661e-001
1.270913e+003;1.194011e-001
1.272842e+003;1.190704e-001
1.274770e+003;1.190832e-001
1.276699e+003;1.189932e-001
1.278627e+003;1.185733e-001
1.280556e+003;1.178582e-001
1.282484e+003;1.167919e-001
1.284413e+003;1.161124e-001
1.286342e+003;1.160948e-001
1.288270e+003;1.163328e-001
1.290199e+003;1.167937e-001
1.292127e+003;1.177325e-001
1.294056e+003;1.190580e-001
1.295984e+003;1.205239e-001
1.297913e+003;1.226005e-001
1.299841e+003;1.253226e-001
1.301770e+003;1.283264e-001
1.303698e+003;1.317058e-001
1.305627e+003;1.352396e-001
1.307556e+003;1.387301e-001
1.309484e+003;1.420223e-001
1.311413e+003;1.449819e-001
1.313341e+003;1.472115e-001
1.315270e+003;1.478201e-001
1.317198e+003;1.474927e-001
1.319127e+003;1.465612e-001
1.321055e+003;1.453557e-001
1.322984e+003;1.439707e-001
1.324912e+003;1.424561e-001
1.326841e+003;1.415446e-001
1.328770e+003;1.411411e-001
1.330698e+003;1.409646e-001
1.332627e+003;1.407177e-001
1.334555e+003;1.400417e-001
1.336484e+003;1.388605e-001
1.338412e+003;1.371694e-001
1.340341e+003;1.351889e-001
1.342269e+003;1.333059e-001
1.344198e+003;1.316718e-001
1.346126e+003;1.302962e-001
1.348055e+003;1.290378e-001
1.349984e+003;1.283603e-001
1.351912e+003;1.285204e-001
1.353841e+003;1.289609e-001
1.355769e+003;1.297368e-001
1.357698e+003;1.304326e-001
1.359626e+003;1.311329e-001
1.361555e+003;1.316837e-001
1.363483e+003;1.318305e-001
1.365412e+003;1.319923e-001
1.367341e+003;1.318687e-001
1.369269e+003;1.314162e-001
1.371198e+003;1.306693e-001
1.373126e+003;1.291123e-001
1.375055e+003;1.269305e-001
1.376983e+003;1.252416e-001
1.378912e+003;1.234263e-001
1.380840e+003;1.215312e-001
1.382769e+003;1.198460e-001
1.384698e+003;1.177905e-001
1.386626e+003;1.159778e-001
1.388555e+003;1.151699e-001
1.390483e+003;1.147144e-001
1.392412e+003;1.145049e-001
1.394340e+003;1.148318e-001
1.396269e+003;1.153081e-001
1.398197e+003;1.158656e-001
1.400126e+003;1.164144e-001
1.402054e+003;1.168388e-001
1.403983e+003;1.175270e-001
1.405911e+003;1.186450e-001
1.407840e+003;1.197961e-001
1.409769e+003;1.209824e-001
1.411697e+003;1.223854e-001
1.413626e+003;1.237509e-001
1.415554e+003;1.254764e-001
1.417483e+003;1.268969e-001
1.419411e+003;1.279833e-001
1.421340e+003;1.286436e-001
1.423268e+003;1.282087e-001
1.425197e+003;1.273512e-001
1.427125e+003;1.260696e-001
1.429054e+003;1.241935e-001
1.430983e+003;1.220811e-001
1.432911e+003;1.199019e-001
1.434840e+003;1.179576e-001
1.436768e+003;1.165773e-001
1.438697e+003;1.156005e-001
1.440625e+003;1.152074e-001
1.442554e+003;1.154145e-001
1.444482e+003;1.158437e-001
1.446411e+003;1.163170e-001
1.448340e+003;1.167641e-001
1.450268e+003;1.173715e-001
1.452197e+003;1.176935e-001
1.454125e+003;1.176363e-001
1.456054e+003;1.171566e-001
1.457982e+003;1.163937e-001
1.459911e+003;1.155548e-001
1.461839e+003;1.145239e-001
1.463768e+003;1.129471e-001
1.465697e+003;1.107588e-001
1.467625e+003;1.074689e-001
1.469554e+003;1.038247e-001
1.471482e+003;1.005527e-001
1.473411e+003;9.734263e-002
1.475339e+003;9.433474e-002
1.477268e+003;9.176175e-002
1.479196e+003;8.975912e-002
1.481125e+003;8.824842e-002
1.483053e+003;8.671888e-002
1.484982e+003;8.527640e-002
1.486911e+003;8.441318e-002
1.488839e+003;8.399783e-002
1.490768e+003;8.367825e-002
1.492696e+003;8.352135e-002
1.494625e+003;8.426286e-002
1.496553e+003;8.529184e-002
1.498482e+003;8.597042e-002
1.500410e+003;8.661286e-002
1.502339e+003;8.670901e-002
1.504267e+003;8.596308e-002
1.506196e+003;8.464395e-002
1.508125e+003;8.345003e-002
1.510053e+003;8.203188e-002
1.511982e+003;8.028711e-002
1.513910e+003;7.869519e-002
1.515839e+003;7.712337e-002
1.517767e+003;7.574170e-002
1.519696e+003;7.445058e-002
1.521624e+003;7.338596e-002
1.523553e+003;7.295833e-002
1.525481e+003;7.256315e-002
1.527410e+003;7.230633e-002
1.529339e+003;7.226677e-002
1.531267e+003;7.221500e-002
1.533196e+003;7.203481e-002
1.535124e+003;7.210565e-002
1.537053e+003;7.247771e-002
1.538981e+003;7.268280e-002
1.540910e+003;7.303096e-002
1.542838e+003;7.327808e-002
1.544767e+003;7.359034e-002
1.546695e+003;7.391826e-002
1.548624e+003;7.403455e-002
1.550553e+003;7.449656e-002
1.552481e+003;7.519739e-002
1.554410e+003;7.552984e-002
1.556338e+003;7.566281e-002
1.558267e+003;7.573424e-002
1.560195e+003;7.640614e-002
1.562124e+003;7.742703e-002
1.564052e+003;7.826365e-002
1.565981e+003;7.896137e-002
1.567910e+003;7.957067e-002
1.569838e+003;8.037031e-002
1.571767e+003;8.165675e-002
1.573695e+003;8.318675e-002
1.575624e+003;8.457813e-002
1.577552e+003;8.597693e-002
1.579481e+003;8.815481e-002
1.581409e+003;9.048398e-002
1.583338e+003;9.238002e-002
1.585266e+003;9.461180e-002
1.587195e+003;9.714007e-002
1.589124e+003;9.891348e-002
1.591052e+003;9.984911e-002
1.592981e+003;1.007645e-001
1.594909e+003;1.010137e-001
1.596838e+003;1.008431e-001
1.598766e+003;1.007390e-001
1.600695e+003;1.000048e-001
1.602623e+003;9.888577e-002
1.604552e+003;9.783731e-002
1.606480e+003;9.718304e-002
1.608409e+003;9.657230e-002
1.610338e+003;9.571920e-002
1.612266e+003;9.507190e-002
1.614195e+003;9.404280e-002
1.616123e+003;9.273750e-002
1.618052e+003;9.189779e-002
1.619980e+003;9.123029e-002
1.621909e+003;9.010796e-002
1.623837e+003;8.922663e-002
1.625766e+003;8.857224e-002
1.627694e+003;8.765513e-002
1.629623e+003;8.694611e-002
1.631552e+003;8.682611e-002
1.633480e+003;8.664910e-002
1.635409e+003;8.585522e-002
1.637337e+003;8.527305e-002
1.639266e+003;8.500958e-002
1.641194e+003;8.456001e-002
1.643123e+003;8.402461e-002
1.645051e+003;8.341622e-002
1.646980e+003;8.317262e-002
1.648909e+003;8.315933e-002
1.650837e+003;8.250292e-002
1.652766e+003;8.141593e-002
1.654694e+003;8.107559e-002
1.656623e+003;8.109216e-002
1.658551e+003;8.067044e-002
1.660480e+003;7.990831e-002
1.662408e+003;7.905795e-002
1.664337e+003;7.855617e-002
1.666266e+003;7.786821e-002
1.668194e+003;7.666559e-002
1.670123e+003;7.587923e-002
1.672051e+003;7.540932e-002
1.673980e+003;7.445813e-002
1.675908e+003;7.348653e-002
1.677837e+003;7.287493e-002
1.679765e+003;7.211383e-002
1.681694e+003;7.121233e-002
1.683622e+003;7.054295e-002
1.685551e+003;6.994171e-002
1.687479e+003;6.919257e-002
1.689408e+003;6.854965e-002
1.691337e+003;6.814078e-002
1.693265e+003;6.777753e-002
1.695194e+003;6.729928e-002
1.697122e+003;6.696252e-002
1.699051e+003;6.641732e-002
1.700979e+003;6.589325e-002
1.702908e+003;6.578047e-002
1.704836e+003;6.583032e-002
1.706765e+003;6.591739e-002
1.708693e+003;6.551068e-002
1.710622e+003;6.496365e-002
1.712551e+003;6.479017e-002
1.714479e+003;6.486180e-002
1.716408e+003;6.483491e-002
1.718336e+003;6.488754e-002
1.720265e+003;6.513626e-002
1.722193e+003;6.522124e-002
1.724122e+003;6.516583e-002
1.726050e+003;6.504504e-002
1.727979e+003;6.480387e-002
1.729908e+003;6.459947e-002
1.731836e+003;6.463499e-002
1.733765e+003;6.439601e-002
1.735693e+003;6.429975e-002
1.737622e+003;6.433068e-002
1.739550e+003;6.410865e-002
1.741479e+003;6.374734e-002
1.743407e+003;6.323739e-002
1.745336e+003;6.272285e-002
1.747265e+003;6.213718e-002
1.749193e+003;6.171383e-002
1.751122e+003;6.139724e-002
1.753050e+003;6.097022e-002
1.754979e+003;6.054195e-002
1.756907e+003;6.027483e-002
1.758836e+003;6.006205e-002
1.760764e+003;5.969895e-002
1.762693e+003;5.918497e-002
1.764621e+003;5.867850e-002
1.766550e+003;5.845330e-002
1.768479e+003;5.804413e-002
1.770407e+003;5.755869e-002
1.772336e+003;5.738751e-002
1.774264e+003;5.734335e-002
1.776193e+003;5.709356e-002
1.778121e+003;5.674038e-002
1.780050e+003;5.655362e-002
1.781978e+003;5.642766e-002
1.783907e+003;5.623463e-002
1.785835e+003;5.597274e-002
1.787764e+003;5.622679e-002
1.789693e+003;5.632187e-002
1.791621e+003;5.589115e-002
1.793550e+003;5.559422e-002
1.795478e+003;5.546157e-002
1.797407e+003;5.535353e-002
1.799335e+003;5.519025e-002
1.801264e+003;5.507333e-002
1.803192e+003;5.513634e-002
1.805121e+003;5.520846e-002
1.807049e+003;5.537149e-002
1.808978e+003;5.553352e-002
1.810907e+003;5.512317e-002
1.812835e+003;5.471713e-002
1.814764e+003;5.473392e-002
1.816692e+003;5.461476e-002
1.818621e+003;5.448038e-002
1.820549e+003;5.472539e-002
1.822478e+003;5.480166e-002
1.824406e+003;5.456306e-002
1.826335e+003;5.442299e-002
1.828264e+003;5.455472e-002
1.830192e+003;5.483102e-002
1.832121e+003;5.470232e-002
1.834049e+003;5.463069e-002
1.835978e+003;5.480876e-002
1.837906e+003;5.477433e-002
1.839835e+003;5.450750e-002
1.841763e+003;5.418513e-002
1.843692e+003;5.399061e-002
1.845620e+003;5.397261e-002
1.847549e+003;5.409062e-002
1.849478e+003;5.424125e-002
1.851406e+003;5.407925e-002
1.853335e+003;5.385459e-002
1.855263e+003;5.370994e-002
1.857192e+003;5.367410e-002
1.859120e+003;5.376529e-002
1.861049e+003;5.396158e-002
1.862977e+003;5.416936e-002
1.864906e+003;5.411633e-002
1.866834e+003;5.380883e-002
1.868763e+003;5.383025e-002
1.870692e+003;5.395535e-002
1.872620e+003;5.378202e-002
1.874549e+003;5.387762e-002
1.876477e+003;5.399497e-002
1.878406e+003;5.382334e-002
1.880334e+003;5.381633e-002
1.882263e+003;5.378637e-002
1.884191e+003;5.368696e-002
1.886120e+003;5.380433e-002
1.888048e+003;5.383921e-002
1.889977e+003;5.370072e-002
1.891906e+003;5.358409e-002
1.893834e+003;5.351081e-002
1.895763e+003;5.367162e-002
1.897691e+003;5.376293e-002
1.899620e+003;5.367571e-002
1.901548e+003;5.385699e-002
1.903477e+003;5.399380e-002
1.905405e+003;5.401940e-002
1.907334e+003;5.432914e-002
1.909262e+003;5.447178e-002
1.911191e+003;5.428840e-002
1.913120e+003;5.421351e-002
1.915048e+003;5.419961e-002
1.916977e+003;5.408746e-002
1.918905e+003;5.420619e-002
1.920834e+003;5.461912e-002
1.922762e+003;5.469499e-002
1.924691e+003;5.477429e-002
1.926619e+003;5.485808e-002
1.928548e+003;5.488354e-002
1.930477e+003;5.504591e-002
1.932405e+003;5.501932e-002
1.934334e+003;5.507363e-002
1.936262e+003;5.491798e-002
1.938191e+003;5.483790e-002
1.940119e+003;5.492614e-002
1.942048e+003;5.483530e-002
1.943976e+003;5.499540e-002
1.945905e+003;5.536407e-002
1.947833e+003;5.558477e-002
1.949762e+003;5.555690e-002
1.951691e+003;5.538892e-002
1.953619e+003;5.565516e-002
1.955548e+003;5.607882e-002
1.957476e+003;5.615906e-002
1.959405e+003;5.629400e-002
1.961333e+003;5.626665e-002
1.963262e+003;5.632878e-002
1.965190e+003;5.642936e-002
1.967119e+003;5.614190e-002
1.969047e+003;5.577077e-002
1.970976e+003;5.574763e-002
1.972905e+003;5.589085e-002
1.974833e+003;5.615763e-002
1.976762e+003;5.634964e-002
1.978690e+003;5.632644e-002
1.980619e+003;5.660300e-002
1.982547e+003;5.693076e-002
1.984476e+003;5.684996e-002
1.986404e+003;5.688430e-002
1.988333e+003;5.696529e-002
1.990261e+003;5.700998e-002
1.992190e+003;5.705109e-002
1.994119e+003;5.718045e-002
1.996047e+003;5.705717e-002
1.997976e+003;5.687844e-002
1.999904e+003;5.695293e-002
2.001833e+003;5.715172e-002
2.003761e+003;5.720717e-002
2.005690e+003;5.727109e-002
2.007618e+003;5.765059e-002
2.009547e+003;5.788131e-002
2.011476e+003;5.816901e-002
2.013404e+003;5.840880e-002
2.015333e+003;5.844963e-002
2.017261e+003;5.852317e-002
2.019190e+003;5.850202e-002
2.021118e+003;5.853822e-002
2.023047e+003;5.851896e-002
2.024975e+003;5.867486e-002
2.026904e+003;5.890354e-002
2.028833e+003;5.907544e-002
2.030761e+003;5.906564e-002
2.032690e+003;5.914111e-002
2.034618e+003;5.920437e-002
2.036547e+003;5.908523e-002
2.038475e+003;5.923198e-002
2.040404e+003;5.948672e-002
2.042332e+003;5.974541e-002
2.044261e+003;5.990821e-002
2.046189e+003;5.985002e-002
2.048118e+003;5.978138e-002
2.050047e+003;5.982796e-002
2.051975e+003;5.976956e-002
2.053904e+003;5.989102e-002
2.055832e+003;6.022257e-002
2.057761e+003;6.010634e-002
2.059689e+003;5.972412e-002
2.061618e+003;5.950739e-002
2.063546e+003;5.962414e-002
2.065475e+003;5.977789e-002
2.067404e+003;5.986752e-002
2.069332e+003;6.011277e-002
2.071260e+003;6.003747e-002
2.073189e+003;5.974386e-002
2.075118e+003;5.983610e-002
2.077046e+003;5.984196e-002
2.078975e+003;5.975157e-002
2.080903e+003;5.989714e-002
2.082832e+003;6.002629e-002
2.084760e+003;6.001103e-002
2.086689e+003;6.003081e-002
2.088617e+003;5.990821e-002
2.090546e+003;5.982842e-002
2.092475e+003;5.972777e-002
2.094403e+003;5.963148e-002
2.096332e+003;5.945545e-002
2.098260e+003;5.930042e-002
2.100189e+003;5.955220e-002
2.102117e+003;6.019806e-002
2.104046e+003;6.051670e-002
2.105974e+003;6.017507e-002
2.107903e+003;5.984744e-002
2.109832e+003;5.995218e-002
2.111760e+003;6.021320e-002
2.113688e+003;6.008910e-002
2.115617e+003;5.989566e-002
2.117546e+003;5.966425e-002
2.119474e+003;5.972739e-002
2.121403e+003;5.988851e-002
2.123331e+003;5.980758e-002
2.125260e+003;5.979066e-002
2.127188e+003;5.988520e-002
2.129117e+003;6.005581e-002
2.131045e+003;6.030049e-002
2.132974e+003;6.042355e-002
2.134903e+003;6.041875e-002
2.136831e+003;6.045527e-002
2.138760e+003;6.053891e-002
2.140688e+003;6.050051e-002
2.142617e+003;6.032996e-002
2.144545e+003;6.030464e-002
2.146474e+003;6.022649e-002
2.148402e+003;6.001655e-002
2.150331e+003;5.992339e-002
2.152260e+003;5.973484e-002
2.154188e+003;5.960750e-002
2.156117e+003;5.965455e-002
2.158045e+003;5.980169e-002
2.159974e+003;5.964904e-002
2.161902e+003;5.922792e-002
2.163831e+003;5.924299e-002
2.165759e+003;5.954114e-002
2.167688e+003;5.950097e-002
2.169616e+003;5.917996e-002
2.171545e+003;5.906587e-002
2.173474e+003;5.923342e-002
2.175402e+003;5.945864e-002
2.177331e+003;5.948870e-002
2.179259e+003;5.918573e-002
2.181188e+003;5.880007e-002
2.183116e+003;5.878839e-002
2.185045e+003;5.871923e-002
2.186973e+003;5.865574e-002
2.188902e+003;5.891967e-002
2.190831e+003;5.906260e-002
2.192759e+003;5.889785e-002
2.194688e+003;5.845133e-002
2.196616e+003;5.791046e-002
2.198545e+003;5.793292e-002
2.200473e+003;5.848211e-002
2.202402e+003;5.888369e-002
2.204330e+003;5.903767e-002
2.206259e+003;5.882701e-002
2.208188e+003;5.843541e-002
2.210116e+003;5.847010e-002
2.212044e+003;5.872690e-002
2.213973e+003;5.878050e-002
2.215902e+003;5.873293e-002
2.217830e+003;5.863314e-002
2.219759e+003;5.887645e-002
2.221687e+003;5.918683e-002
2.223616e+003;5.878107e-002
2.225544e+003;5.853023e-002
2.227473e+003;5.891333e-002
2.229401e+003;5.896931e-002
2.231330e+003;5.865608e-002
2.233259e+003;5.838799e-002
2.235187e+003;5.850407e-002
2.237116e+003;5.856947e-002
2.239044e+003;5.853007e-002
2.240973e+003;5.844527e-002
2.242901e+003;5.847669e-002
2.244830e+003;5.853038e-002
2.246758e+003;5.856932e-002
2.248687e+003;5.848970e-002
2.250615e+003;5.859939e-002
2.252544e+003;5.845425e-002
2.254473e+003;5.821550e-002
2.256401e+003;5.817163e-002
2.258330e+003;5.805326e-002
2.260258e+003;5.824607e-002
2.262187e+003;5.850816e-002
2.264115e+003;5.834009e-002
2.266044e+003;5.812159e-002
2.267972e+003;5.792735e-002
2.269901e+003;5.779243e-002
2.271830e+003;5.768957e-002
2.273758e+003;5.785580e-002
2.275687e+003;5.799418e-002
2.277615e+003;5.803500e-002
2.279544e+003;5.793807e-002
2.281472e+003;5.787556e-002
2.283401e+003;5.829355e-002
2.285329e+003;5.837829e-002
2.287258e+003;5.786742e-002
2.289187e+003;5.778830e-002
2.291115e+003;5.796309e-002
2.293043e+003;5.793515e-002
2.294972e+003;5.787079e-002
2.296901e+003;5.767390e-002
2.298829e+003;5.755590e-002
2.300758e+003;5.749571e-002
2.302686e+003;5.770569e-002
2.304615e+003;5.779830e-002
2.306543e+003;5.750029e-002
2.308472e+003;5.757731e-002
2.310400e+003;5.774982e-002
2.312329e+003;5.778952e-002
2.314258e+003;5.778009e-002
2.316186e+003;5.728973e-002
2.318115e+003;5.707909e-002
2.320043e+003;5.705830e-002
2.321972e+003;5.657880e-002
2.323900e+003;5.634851e-002
2.325829e+003;5.642053e-002
2.327757e+003;5.631214e-002
2.329686e+003;5.638574e-002
2.331615e+003;5.650600e-002
2.333543e+003;5.642230e-002
2.335472e+003;5.610846e-002
2.337400e+003;5.593999e-002
2.339329e+003;5.621725e-002
2.341257e+003;5.654585e-002
2.343186e+003;5.687300e-002
2.345114e+003;5.714163e-002
2.347043e+003;5.777631e-002
2.348971e+003;5.829886e-002
2.350900e+003;5.823134e-002
2.352829e+003;5.766769e-002
2.354757e+003;5.707909e-002
2.356686e+003;5.660658e-002
2.358614e+003;5.641932e-002
2.360543e+003;5.642268e-002
2.362471e+003;5.656193e-002
2.364400e+003;5.700121e-002
2.366328e+003;5.721473e-002
2.368257e+003;5.742034e-002
2.370186e+003;5.770622e-002
2.372114e+003;5.809488e-002
2.374042e+003;5.875994e-002
2.375971e+003;5.930923e-002
2.377900e+003;5.972655e-002
2.379828e+003;5.986729e-002
2.381757e+003;6.008910e-002
2.383685e+003;6.050131e-002
2.385614e+003;6.051838e-002
2.387542e+003;6.054024e-002
2.389471e+003;6.071740e-002
2.391399e+003;6.075017e-002
2.393328e+003;6.062470e-002
2.395257e+003;6.051404e-002
2.397185e+003;6.073996e-002
2.399114e+003;6.092657e-002
2.401042e+003;6.080711e-002
2.402971e+003;6.089893e-002
2.404899e+003;6.100603e-002
2.406828e+003;6.088837e-002
2.408756e+003;6.102208e-002
2.410685e+003;6.138434e-002
2.412614e+003;6.162641e-002
2.414542e+003;6.154417e-002
2.416471e+003;6.152168e-002
2.418399e+003;6.197010e-002
2.420328e+003;6.213645e-002
2.422256e+003;6.194324e-002
2.424185e+003;6.217594e-002
2.426113e+003;6.255072e-002
2.428042e+003;6.243747e-002
2.429970e+003;6.208951e-002
2.431899e+003;6.234619e-002
2.433828e+003;6.284001e-002
2.435756e+003;6.297263e-002
2.437685e+003;6.300718e-002
2.439613e+003;6.289913e-002
2.441542e+003;6.291686e-002
2.443470e+003;6.319236e-002
2.445399e+003;6.337935e-002
2.447327e+003;6.332475e-002
2.449256e+003;6.310714e-002
2.451185e+003;6.292786e-002
2.453113e+003;6.320482e-002
2.455042e+003;6.354171e-002
2.456970e+003;6.365767e-002
2.458899e+003;6.344230e-002
2.460827e+003;6.329980e-002
2.462756e+003;6.332939e-002
2.464684e+003;6.346723e-002
2.466613e+003;6.360281e-002
2.468542e+003;6.351493e-002
2.470470e+003;6.370804e-002
2.472398e+003;6.401307e-002
2.474327e+003;6.423264e-002
2.476256e+003;6.428846e-002
2.478184e+003;6.417675e-002
2.480113e+003;6.384159e-002
2.482041e+003;6.373498e-002
2.483970e+003;6.405570e-002
2.485898e+003;6.428266e-002
2.487827e+003;6.418443e-002
2.489755e+003;6.412321e-002
2.491684e+003;6.426356e-002
2.493613e+003;6.461588e-002
2.495541e+003;6.473702e-002
2.497470e+003;6.475763e-002
2.499398e+003;6.501729e-002
2.501327e+003;6.526779e-002
2.503255e+003;6.520691e-002
2.505184e+003;6.511721e-002
2.507112e+003;6.511128e-002
2.509041e+003;6.509712e-002
2.510969e+003;6.503950e-002
2.512898e+003;6.529590e-002
2.514827e+003;6.519293e-002
2.516755e+003;6.501187e-002
2.518684e+003;6.548121e-002
2.520612e+003;6.589093e-002
2.522541e+003;6.587446e-002
2.524469e+003;6.557314e-002
2.526398e+003;6.552690e-002
2.528326e+003;6.568664e-002
2.530255e+003;6.585257e-002
2.532184e+003;6.610655e-002
2.534112e+003;6.602723e-002
2.536041e+003;6.557965e-002
2.537969e+003;6.552348e-002
2.539898e+003;6.542562e-002
2.541826e+003;6.546483e-002
2.543755e+003;6.569400e-002
2.545683e+003;6.565349e-002
2.547612e+003;6.576423e-002
2.549541e+003;6.584775e-002
2.551469e+003;6.567338e-002
2.553397e+003;6.555499e-002
2.555326e+003;6.607175e-002
2.557255e+003;6.636261e-002
2.559183e+003;6.627642e-002
2.561112e+003;6.640053e-002
2.563040e+003;6.657522e-002
2.564969e+003;6.644029e-002
2.566897e+003;6.624994e-002
2.568826e+003;6.630155e-002
2.570754e+003;6.634590e-002
2.572683e+003;6.635339e-002
2.574612e+003;6.642918e-002
2.576540e+003;6.653289e-002
2.578469e+003;6.654935e-002
2.580397e+003;6.659237e-002
2.582326e+003;6.677955e-002
2.584254e+003;6.692135e-002
2.586183e+003;6.682202e-002
2.588111e+003;6.681433e-002
2.590040e+003;6.677376e-002
2.591969e+003;6.660512e-002
2.593897e+003;6.657966e-002
2.595826e+003;6.671780e-002
2.597754e+003;6.715538e-002
2.599683e+003;6.712715e-002
2.601611e+003;6.687234e-002
2.603540e+003;6.693650e-002
2.605468e+003;6.716660e-002
2.607397e+003;6.731232e-002
2.609325e+003;6.743904e-002
2.611254e+003;6.750623e-002
2.613183e+003;6.747659e-002
2.615111e+003;6.735321e-002
2.617040e+003;6.758276e-002
2.618968e+003;6.780240e-002
2.620897e+003;6.775468e-002
2.622825e+003;6.776530e-002
2.624754e+003;6.786023e-002
2.626682e+003;6.798785e-002
2.628611e+003;6.806741e-002
2.630540e+003;6.795821e-002
2.632468e+003;6.799219e-002
2.634396e+003;6.828965e-002
2.636325e+003;6.829155e-002
2.638254e+003;6.822812e-002
2.640182e+003;6.826352e-002
2.642111e+003;6.835698e-002
2.644039e+003;6.855182e-002
2.645968e+003;6.876493e-002
2.647896e+003;6.891090e-002
2.649825e+003;6.890625e-002
2.651753e+003;6.895393e-002
2.653682e+003;6.902287e-002
2.655611e+003;6.926955e-002
2.657539e+003;6.935120e-002
2.659468e+003;6.944069e-002
2.661396e+003;6.968170e-002
2.663325e+003;6.967621e-002
2.665253e+003;6.935824e-002
2.667182e+003;6.935129e-002
2.669110e+003;6.983767e-002
2.671039e+003;7.017247e-002
2.672968e+003;7.003572e-002
2.674896e+003;7.000232e-002
2.676825e+003;7.012161e-002
2.678753e+003;7.007228e-002
2.680682e+003;7.013150e-002
2.682610e+003;7.046875e-002
2.684539e+003;7.075204e-002
2.686467e+003;7.073262e-002
2.688396e+003;7.062575e-002
2.690324e+003;7.055955e-002
2.692253e+003;7.083055e-002
2.694182e+003;7.134398e-002
2.696110e+003;7.141260e-002
2.698039e+003;7.107759e-002
2.699967e+003;7.086686e-002
2.701896e+003;7.104731e-002
2.703824e+003;7.131735e-002
2.705753e+003;7.149088e-002
2.707681e+003;7.163011e-002
2.709610e+003;7.166572e-002
2.711539e+003;7.160093e-002
2.713467e+003;7.202402e-002
2.715396e+003;7.237323e-002
2.717324e+003;7.230344e-002
2.719253e+003;7.183715e-002
2.721181e+003;7.165743e-002
2.723110e+003;7.234007e-002
2.725038e+003;7.294378e-002
2.726967e+003;7.292517e-002
2.728896e+003;7.268252e-002
2.730824e+003;7.276161e-002
2.732752e+003;7.327059e-002
2.734681e+003;7.325718e-002
2.736610e+003;7.292192e-002
2.738538e+003;7.263701e-002
2.740467e+003;7.243139e-002
2.742395e+003;7.277047e-002
2.744324e+003;7.319529e-002
2.746252e+003;7.336073e-002
2.748181e+003;7.310749e-002
2.750109e+003;7.314737e-002
2.752038e+003;7.359552e-002
2.753967e+003;7.348473e-002
2.755895e+003;7.329240e-002
2.757824e+003;7.344266e-002
2.759752e+003;7.331484e-002
2.761681e+003;7.320258e-002
2.763609e+003;7.361252e-002
2.765538e+003;7.400327e-002
2.767466e+003;7.393830e-002
2.769395e+003;7.394328e-002
2.771323e+003;7.413036e-002
2.773252e+003;7.413653e-002
2.775181e+003;7.427788e-002
2.777109e+003;7.462020e-002
2.779038e+003;7.504220e-002
2.780966e+003;7.512254e-002
2.782895e+003;7.503046e-002
2.784823e+003;7.517939e-002
2.786752e+003;7.505881e-002
2.788680e+003;7.499439e-002
2.790609e+003;7.540992e-002
2.792538e+003;7.596641e-002
2.794466e+003;7.616036e-002
2.796395e+003;7.647094e-002
2.798323e+003;7.677048e-002
2.800252e+003;7.711098e-002
2.802180e+003;7.730029e-002
2.804109e+003;7.725093e-002
2.806037e+003;7.758229e-002
2.807966e+003;7.786809e-002
2.809895e+003;7.806249e-002
2.811823e+003;7.857205e-002
2.813751e+003;7.876581e-002
2.815680e+003;7.899535e-002
2.817609e+003;7.953577e-002
2.819537e+003;7.990986e-002
2.821466e+003;8.017878e-002
2.823394e+003;8.074753e-002
2.825323e+003;8.129536e-002
2.827251e+003;8.171749e-002
2.829180e+003;8.238795e-002
2.831108e+003;8.316973e-002
2.833037e+003;8.398461e-002
2.834966e+003;8.511397e-002
2.836894e+003;8.577023e-002
2.838823e+003;8.661544e-002
2.840751e+003;8.797937e-002
2.842680e+003;8.928100e-002
2.844608e+003;9.070861e-002
2.846537e+003;9.215322e-002
2.848465e+003;9.327970e-002
2.850394e+003;9.454094e-002
2.852323e+003;9.587672e-002
2.854251e+003;9.671129e-002
2.856180e+003;9.707936e-002
2.858108e+003;9.774534e-002
2.860037e+003;9.848811e-002
2.861965e+003;9.913743e-002
2.863894e+003;9.956606e-002
2.865822e+003;1.005121e-001
2.867751e+003;1.015646e-001
2.869679e+003;1.020227e-001
2.871608e+003;1.022585e-001
2.873536e+003;1.025752e-001
2.875465e+003;1.029060e-001
2.877394e+003;1.029398e-001
2.879322e+003;1.029109e-001
2.881251e+003;1.031217e-001
2.883179e+003;1.032940e-001
2.885108e+003;1.037247e-001
2.887036e+003;1.045732e-001
2.888965e+003;1.053998e-001
2.890893e+003;1.055839e-001
2.892822e+003;1.057098e-001
2.894750e+003;1.063148e-001
2.896679e+003;1.066488e-001
2.898608e+003;1.064830e-001
2.900536e+003;1.062483e-001
2.902465e+003;1.063946e-001
2.904393e+003;1.063762e-001
2.906322e+003;1.055920e-001
2.908250e+003;1.050473e-001
2.910179e+003;1.051267e-001
2.912107e+003;1.052521e-001
2.914036e+003;1.049843e-001
2.915965e+003;1.046205e-001
2.917893e+003;1.044543e-001
2.919822e+003;1.044441e-001
2.921750e+003;1.040961e-001
2.923679e+003;1.033143e-001
2.925607e+003;1.022758e-001
2.927536e+003;1.015147e-001
2.929464e+003;1.007295e-001
2.931393e+003;9.947249e-002
2.933322e+003;9.853076e-002
2.935250e+003;9.777389e-002
2.937178e+003;9.638970e-002
2.939107e+003;9.501594e-002
2.941036e+003;9.367865e-002
2.942964e+003;9.240372e-002
2.944893e+003;9.196379e-002
2.946821e+003;9.177388e-002
2.948750e+003;9.110362e-002
2.950678e+003;9.014058e-002
2.952607e+003;8.885410e-002
2.954535e+003;8.807042e-002
2.956464e+003;8.734950e-002
2.958393e+003;8.630330e-002
2.960321e+003;8.513787e-002
2.962250e+003;8.410221e-002
2.964178e+003;8.378907e-002
2.966107e+003;8.329105e-002
2.968035e+003;8.174445e-002
2.969964e+003;8.071130e-002
2.971892e+003;8.045198e-002
2.973821e+003;7.976512e-002
2.975750e+003;7.846723e-002
2.977678e+003;7.762556e-002
2.979607e+003;7.711343e-002
2.981535e+003;7.633235e-002
2.983464e+003;7.576269e-002
2.985392e+003;7.537550e-002
2.987321e+003;7.503467e-002
2.989249e+003;7.527915e-002
2.991178e+003;7.522962e-002
2.993106e+003;7.488941e-002
2.995035e+003;7.445428e-002
2.996964e+003;7.391500e-002
2.998892e+003;7.383790e-002
3.000821e+003;7.394470e-002
3.002749e+003;7.393759e-002
3.004678e+003;7.387674e-002
3.006606e+003;7.383189e-002
3.008535e+003;7.390243e-002
3.010463e+003;7.377490e-002
3.012392e+003;7.381123e-002
3.014321e+003;7.412556e-002
3.016249e+003;7.428896e-002
3.018177e+003;7.416498e-002
3.020106e+003;7.425154e-002
3.022035e+003;7.467077e-002
3.023963e+003;7.454392e-002
3.025892e+003;7.408198e-002
3.027820e+003;7.396862e-002
3.029749e+003;7.425170e-002
3.031677e+003;7.469591e-002
3.033606e+003;7.474467e-002
3.035534e+003;7.481343e-002
3.037463e+003;7.502703e-002
3.039392e+003;7.508890e-002
3.041320e+003;7.537922e-002
3.043249e+003;7.578485e-002
3.045177e+003;7.605936e-002
3.047106e+003;7.630233e-002
3.049034e+003;7.646170e-002
3.050963e+003;7.649275e-002
3.052891e+003;7.690177e-002
3.054820e+003;7.697206e-002
3.056749e+003;7.688583e-002
3.058677e+003;7.748576e-002
3.060606e+003;7.808728e-002
3.062534e+003;7.820973e-002
3.064463e+003;7.817327e-002
3.066391e+003;7.826718e-002
3.068320e+003;7.857347e-002
3.070248e+003;7.871322e-002
3.072177e+003;7.882556e-002
3.074105e+003;7.927126e-002
3.076034e+003;7.935084e-002
3.077963e+003;7.918108e-002
3.079891e+003;7.993054e-002
3.081820e+003;8.092103e-002
3.083748e+003;8.126201e-002
3.085677e+003;8.082471e-002
3.087605e+003;8.075009e-002
3.089534e+003;8.119901e-002
3.091462e+003;8.181245e-002
3.093391e+003;8.226892e-002
3.095320e+003;8.228586e-002
3.097248e+003;8.225030e-002
3.099177e+003;8.222739e-002
3.101105e+003;8.241134e-002
3.103034e+003;8.320151e-002
3.104962e+003;8.406007e-002
3.106891e+003;8.412497e-002
3.108819e+003;8.403165e-002
3.110748e+003;8.453412e-002
3.112677e+003;8.521084e-002
3.114605e+003;8.563905e-002
3.116533e+003;8.589915e-002
3.118462e+003;8.633459e-002
3.120391e+003;8.654936e-002
3.122319e+003;8.657043e-002
3.124248e+003;8.726601e-002
3.126176e+003;8.782902e-002
3.128105e+003;8.794808e-002
3.130033e+003;8.817595e-002
3.131962e+003;8.844627e-002
3.133890e+003;8.852227e-002
3.135819e+003;8.868984e-002
3.137748e+003;8.936907e-002
3.139676e+003;8.989403e-002
3.141605e+003;9.040457e-002
3.143533e+003;9.088229e-002
3.145462e+003;9.126565e-002
3.147390e+003;9.156583e-002
3.149319e+003;9.229298e-002
3.151247e+003;9.274030e-002
3.153176e+003;9.292620e-002
3.155104e+003;9.330603e-002
3.157033e+003;9.373872e-002
3.158962e+003;9.433532e-002
3.160890e+003;9.505347e-002
3.162819e+003;9.580846e-002
3.164747e+003;9.627062e-002
3.166676e+003;9.642615e-002
3.168604e+003;9.659349e-002
3.170533e+003;9.732530e-002
3.172461e+003;9.790073e-002
3.174390e+003;9.803343e-002
3.176319e+003;9.834044e-002
3.178247e+003;9.902638e-002
3.180176e+003;9.977034e-002
3.182104e+003;1.005177e-001
3.184033e+003;1.010361e-001
3.185961e+003;1.015133e-001
3.187890e+003;1.021076e-001
3.189818e+003;1.028213e-001
3.191747e+003;1.033548e-001
3.193676e+003;1.038058e-001
3.195604e+003;1.046330e-001
3.197532e+003;1.054175e-001
3.199461e+003;1.060461e-001
3.201390e+003;1.060328e-001
3.203318e+003;1.062860e-001
3.205247e+003;1.070851e-001
3.207175e+003;1.081337e-001
3.209104e+003;1.089219e-001
3.211032e+003;1.091414e-001
3.212961e+003;1.096243e-001
3.214889e+003;1.104417e-001
3.216818e+003;1.113313e-001
3.218747e+003;1.124047e-001
3.220675e+003;1.126947e-001
3.222604e+003;1.129693e-001
3.224532e+003;1.137419e-001
3.226461e+003;1.142470e-001
3.228389e+003;1.153270e-001
3.230318e+003;1.165083e-001
3.232246e+003;1.170714e-001
3.234175e+003;1.173796e-001
3.236104e+003;1.181059e-001
3.238032e+003;1.193934e-001
3.239961e+003;1.197413e-001
3.241889e+003;1.200238e-001
3.243818e+003;1.207300e-001
3.245746e+003;1.215578e-001
3.247675e+003;1.226327e-001
3.249603e+003;1.231534e-001
3.251532e+003;1.238446e-001
3.253460e+003;1.252522e-001
3.255389e+003;1.264524e-001
3.257318e+003;1.268485e-001
3.259246e+003;1.271849e-001
3.261175e+003;1.279070e-001
3.263103e+003;1.289186e-001
3.265032e+003;1.299025e-001
3.266960e+003;1.310512e-001
3.268889e+003;1.320702e-001
3.270817e+003;1.323683e-001
3.272746e+003;1.324466e-001
3.274675e+003;1.326920e-001
3.276603e+003;1.331432e-001
3.278531e+003;1.337690e-001
3.280460e+003;1.341021e-001
3.282389e+003;1.345888e-001
3.284317e+003;1.351163e-001
3.286246e+003;1.356969e-001
3.288174e+003;1.362547e-001
3.290103e+003;1.363952e-001
3.292031e+003;1.364671e-001
3.293960e+003;1.365846e-001
3.295888e+003;1.371822e-001
3.297817e+003;1.377951e-001
3.299746e+003;1.376410e-001
3.301674e+003;1.374672e-001
3.303603e+003;1.377446e-001
3.305531e+003;1.377770e-001
3.307460e+003;1.377401e-001
3.309388e+003;1.387175e-001
3.311317e+003;1.394980e-001
3.313245e+003;1.393633e-001
3.315174e+003;1.396614e-001
3.317103e+003;1.404192e-001
3.319031e+003;1.406300e-001
3.320960e+003;1.404657e-001
3.322888e+003;1.407916e-001
3.324817e+003;1.410903e-001
3.326745e+003;1.414276e-001
3.328674e+003;1.417317e-001
3.330602e+003;1.415173e-001
3.332531e+003;1.414877e-001
3.334459e+003;1.417459e-001
3.336388e+003;1.416869e-001
3.338317e+003;1.414650e-001
3.340245e+003;1.416256e-001
3.342174e+003;1.419241e-001
3.344102e+003;1.414044e-001
3.346031e+003;1.407503e-001
3.347959e+003;1.408784e-001
3.349888e+003;1.406760e-001
3.351816e+003;1.403524e-001
3.353745e+003;1.403330e-001
3.355674e+003;1.397891e-001
3.357602e+003;1.391878e-001
3.359531e+003;1.387413e-001
3.361459e+003;1.382019e-001
3.363388e+003;1.377761e-001
3.365316e+003;1.376549e-001
3.367245e+003;1.371816e-001
3.369173e+003;1.363682e-001
3.371102e+003;1.357608e-001
3.373031e+003;1.360104e-001
3.374959e+003;1.358675e-001
3.376887e+003;1.350898e-001
3.378816e+003;1.344844e-001
3.380745e+003;1.334281e-001
3.382673e+003;1.330707e-001
3.384602e+003;1.331421e-001
3.386530e+003;1.324220e-001
3.388459e+003;1.320248e-001
3.390387e+003;1.320973e-001
3.392316e+003;1.315261e-001
3.394244e+003;1.308390e-001
3.396173e+003;1.299779e-001
3.398102e+003;1.294458e-001
3.400030e+003;1.291357e-001
3.401959e+003;1.288455e-001
3.403887e+003;1.281946e-001
3.405816e+003;1.278445e-001
3.407744e+003;1.274968e-001
3.409673e+003;1.263327e-001
3.411601e+003;1.254807e-001
3.413530e+003;1.250647e-001
3.415458e+003;1.245534e-001
3.417387e+003;1.235668e-001
3.419316e+003;1.225462e-001
3.421244e+003;1.217838e-001
3.423173e+003;1.210692e-001
3.425101e+003;1.209346e-001
3.427030e+003;1.206442e-001
3.428958e+003;1.194586e-001
3.430887e+003;1.183104e-001
3.432815e+003;1.177503e-001
3.434744e+003;1.171648e-001
3.436673e+003;1.165802e-001
3.438601e+003;1.160784e-001
3.440530e+003;1.153099e-001
3.442458e+003;1.143974e-001
3.444387e+003;1.136451e-001
3.446315e+003;1.128774e-001
3.448244e+003;1.123564e-001
3.450172e+003;1.117289e-001
3.452101e+003;1.106184e-001
3.454030e+003;1.094248e-001
3.455958e+003;1.085858e-001
3.457886e+003;1.080658e-001
3.459815e+003;1.072090e-001
3.461744e+003;1.064245e-001
3.463672e+003;1.058754e-001
3.465601e+003;1.051691e-001
3.467529e+003;1.046326e-001
3.469458e+003;1.036477e-001
3.471386e+003;1.025067e-001
3.473315e+003;1.016748e-001
3.475243e+003;1.006049e-001
3.477172e+003;9.935463e-002
3.479101e+003;9.848537e-002
3.481029e+003;9.806120e-002
3.482958e+003;9.812379e-002
3.484886e+003;9.790156e-002
3.486815e+003;9.676487e-002
3.488743e+003;9.535785e-002
3.490672e+003;9.451507e-002
3.492600e+003;9.413172e-002
3.494529e+003;9.333326e-002
3.496458e+003;9.183388e-002
3.498386e+003;9.085420e-002
3.500315e+003;9.039257e-002
3.502243e+003;8.976661e-002
3.504172e+003;8.923603e-002
3.506100e+003;8.826482e-002
3.508029e+003;8.756116e-002
3.509957e+003;8.714915e-002
3.511886e+003;8.618134e-002
3.513814e+003;8.507100e-002
3.515743e+003;8.445661e-002
3.517672e+003;8.400318e-002
3.519600e+003;8.338294e-002
3.521529e+003;8.276258e-002
3.523457e+003;8.235126e-002
3.525386e+003;8.186457e-002
3.527314e+003;8.098543e-002
3.529243e+003;7.992946e-002
3.531171e+003;7.901160e-002
3.533100e+003;7.855390e-002
3.535029e+003;7.855073e-002
3.536957e+003;7.790262e-002
3.538885e+003;7.668947e-002
3.540814e+003;7.596727e-002
3.542743e+003;7.553659e-002
3.544671e+003;7.442183e-002
3.546600e+003;7.347574e-002
3.548528e+003;7.314125e-002
3.550457e+003;7.281361e-002
3.552385e+003;7.201526e-002
3.554314e+003;7.121151e-002
3.556242e+003;7.078207e-002
3.558171e+003;7.049116e-002
3.560100e+003;7.023876e-002
3.562028e+003;6.960456e-002
3.563957e+003;6.898931e-002
3.565885e+003;6.839781e-002
3.567814e+003;6.752961e-002
3.569742e+003;6.680463e-002
3.571671e+003;6.594373e-002
3.573599e+003;6.554855e-002
3.575528e+003;6.525484e-002
3.577457e+003;6.492162e-002
3.579385e+003;6.428919e-002
3.581314e+003;6.379826e-002
3.583242e+003;6.338330e-002
3.585171e+003;6.258336e-002
3.587099e+003;6.152355e-002
3.589028e+003;6.097244e-002
3.590956e+003;6.116526e-002
3.592885e+003;6.129638e-002
3.594813e+003;6.084301e-002
3.596742e+003;6.012506e-002
3.598671e+003;5.951131e-002
3.600599e+003;5.910649e-002
3.602528e+003;5.905023e-002
3.604456e+003;5.886605e-002
3.606385e+003;5.859124e-002
3.608313e+003;5.814837e-002
3.610242e+003;5.801164e-002
3.612170e+003;5.810170e-002
3.614099e+003;5.759497e-002
3.616028e+003;5.656121e-002
3.617956e+003;5.599246e-002
3.619885e+003;5.624387e-002
3.621813e+003;5.607509e-002
3.623742e+003;5.517776e-002
3.625670e+003;5.504245e-002
3.627599e+003;5.477583e-002
3.629527e+003;5.378314e-002
3.631456e+003;5.362199e-002
3.633385e+003;5.360707e-002
3.635313e+003;5.355680e-002
3.637241e+003;5.349451e-002
3.639170e+003;5.326090e-002
3.641099e+003;5.314562e-002
3.643027e+003;5.288353e-002
3.644956e+003;5.262459e-002
3.646884e+003;5.244270e-002
3.648813e+003;5.226605e-002
3.650741e+003;5.192409e-002
3.652670e+003;5.135470e-002
3.654598e+003;5.152117e-002
3.656527e+003;5.144615e-002
3.658456e+003;5.076731e-002
3.660384e+003;5.023663e-002
3.662313e+003;5.000789e-002
3.664241e+003;5.012494e-002
3.666170e+003;5.003830e-002
3.668098e+003;4.929552e-002
3.670027e+003;4.874280e-002
3.671955e+003;4.900878e-002
3.673884e+003;4.901924e-002
3.675813e+003;4.863468e-002
3.677741e+003;4.838156e-002
3.679669e+003;4.802809e-002
3.681598e+003;4.737841e-002
3.683527e+003;4.692988e-002
3.685455e+003;4.682461e-002
3.687384e+003;4.681147e-002
3.689312e+003;4.686270e-002
3.691241e+003;4.692062e-002
3.693169e+003;4.708421e-002
3.695098e+003;4.675350e-002
3.697026e+003;4.628085e-002
3.698955e+003;4.606180e-002
3.700884e+003;4.596990e-002
3.702812e+003;4.630584e-002
3.704741e+003;4.608693e-002
3.706669e+003;4.527731e-002
3.708598e+003;4.489172e-002
3.710526e+003;4.482481e-002
3.712455e+003;4.479410e-002
3.714383e+003;4.495859e-002
3.716312e+003;4.506804e-002
3.718240e+003;4.476692e-002
3.720169e+003;4.486324e-002
3.722098e+003;4.507153e-002
3.724026e+003;4.471686e-002
3.725955e+003;4.495091e-002
3.727883e+003;4.518928e-002
3.729812e+003;4.483488e-002
3.731740e+003;4.456329e-002
3.733669e+003;4.445782e-002
3.735597e+003;4.405968e-002
3.737526e+003;4.386382e-002
3.739455e+003;4.430082e-002
3.741383e+003;4.457992e-002
3.743312e+003;4.433212e-002
3.745240e+003;4.380422e-002
3.747169e+003;4.394758e-002
3.749097e+003;4.410753e-002
3.751026e+003;4.419549e-002
3.752954e+003;4.458778e-002
3.754883e+003;4.466889e-002
3.756812e+003;4.447085e-002
3.758740e+003;4.448847e-002
3.760668e+003;4.421475e-002
3.762597e+003;4.393823e-002
3.764526e+003;4.444538e-002
3.766454e+003;4.459174e-002
3.768383e+003;4.399275e-002
3.770311e+003;4.363709e-002
3.772240e+003;4.371469e-002
3.774168e+003;4.372675e-002
3.776097e+003;4.376105e-002
3.778025e+003;4.400595e-002
3.779954e+003;4.424839e-002
3.781883e+003;4.456230e-002
3.783811e+003;4.444318e-002
3.785740e+003;4.376215e-002
3.787668e+003;4.357741e-002
3.789597e+003;4.385880e-002
3.791525e+003;4.417308e-002
3.793454e+003;4.433385e-002
3.795382e+003;4.405667e-002
3.797311e+003;4.386990e-002
3.799240e+003;4.400126e-002
3.801168e+003;4.401732e-002
3.803097e+003;4.419759e-002
3.805025e+003;4.422591e-002
3.806954e+003;4.369787e-002
3.808882e+003;4.365083e-002
3.810811e+003;4.430930e-002
3.812739e+003;4.473247e-002
3.814668e+003;4.426428e-002
3.816596e+003;4.361478e-002
3.818525e+003;4.378139e-002
3.820454e+003;4.403408e-002
3.822382e+003;4.382863e-002
3.824311e+003;4.381133e-002
3.826239e+003;4.413684e-002
3.828168e+003;4.444134e-002
3.830096e+003;4.432706e-002
3.832025e+003;4.409000e-002
3.833953e+003;4.363266e-002
3.835882e+003;4.364618e-002
3.837811e+003;4.390033e-002
3.839739e+003;4.381734e-002
3.841667e+003;4.412184e-002
3.843596e+003;4.427096e-002
3.845525e+003;4.441928e-002
3.847453e+003;4.483198e-002
3.849382e+003;4.460794e-002
3.851310e+003;4.384190e-002
3.853239e+003;4.371590e-002
3.855167e+003;4.415797e-002
3.857096e+003;4.484050e-002
3.859024e+003;4.539287e-002
3.860953e+003;4.540681e-002
3.862882e+003;4.501375e-002
3.864810e+003;4.520285e-002
3.866739e+003;4.557084e-002
3.868667e+003;4.519884e-002
3.870596e+003;4.456392e-002
3.872524e+003;4.467088e-002
3.874453e+003;4.515483e-002
3.876381e+003;4.537584e-002
3.878310e+003;4.556852e-002
3.880239e+003;4.556098e-002
3.882167e+003;4.587561e-002
3.884096e+003;4.631888e-002
3.886024e+003;4.620739e-002
3.887953e+003;4.581659e-002
3.889881e+003;4.562902e-002
3.891810e+003;4.583757e-002
3.893738e+003;4.654872e-002
3.895667e+003;4.618432e-002
3.897595e+003;4.520362e-002
3.899524e+003;4.531210e-002
3.901453e+003;4.576379e-002
3.903381e+003;4.614946e-002
3.905310e+003;4.600028e-002
3.907238e+003;4.550891e-002
3.909167e+003;4.564364e-002
3.911095e+003;4.609942e-002
3.913024e+003;4.628509e-002
3.914952e+003;4.666159e-002
3.916881e+003;4.706612e-002
3.918810e+003;4.661865e-002
3.920738e+003;4.614986e-002
3.922667e+003;4.660415e-002
3.924595e+003;4.682306e-002
3.926524e+003;4.624649e-002
3.928452e+003;4.625648e-002
3.930381e+003;4.673265e-002
3.932309e+003;4.710216e-002
3.934238e+003;4.707683e-002
3.936167e+003;4.726354e-002
3.938095e+003;4.754554e-002
3.940023e+003;4.739023e-002
3.941952e+003;4.734682e-002
3.943881e+003;4.770069e-002
3.945809e+003;4.795034e-002
3.947738e+003;4.771234e-002
3.949666e+003;4.760732e-002
3.951595e+003;4.765446e-002
3.953523e+003;4.739160e-002
3.955452e+003;4.724632e-002
3.957380e+003;4.739907e-002
3.959309e+003;4.732697e-002
3.961238e+003;4.689175e-002
3.963166e+003;4.685506e-002
3.965095e+003;4.741858e-002
3.967023e+003;4.776781e-002
3.968952e+003;4.786488e-002
3.970880e+003;4.796141e-002
3.972809e+003;4.793332e-002
3.974737e+003;4.773926e-002
3.976666e+003;4.801007e-002
3.978594e+003;4.845801e-002
3.980523e+003;4.805848e-002
3.982452e+003;4.785600e-002
3.984380e+003;4.805592e-002
3.986309e+003;4.799971e-002
3.988237e+003;4.842052e-002
3.990166e+003;4.850191e-002
3.992094e+003;4.795641e-002
3.994023e+003;4.742106e-002
3.995951e+003;4.767983e-002
3.997880e+003;4.806691e-002
3.999809e+003;4.827331e-002
4.001737e+003;0.000000e+000
