3.992094e+002;0.000000e+000
4.011380e+002;0.000000e+000
4.030665e+002;0.000000e+000
4.049951e+002;0.000000e+000
4.069236e+002;0.000000e+000
4.088522e+002;0.000000e+000
4.107807e+002;0.000000e+000
4.127093e+002;0.000000e+000
4.146378e+002;0.000000e+000
4.165664e+002;0.000000e+000
4.184949e+002;0.000000e+000
4.204235e+002;0.000000e+000
4.223520e+002;0.000000e+000
4.242806e+002;0.000000e+000
4.262091e+002;0.000000e+000
4.281377e+002;0.000000e+000
4.300662e+002;0.000000e+000
4.319948e+002;0.000000e+000
4.339233e+002;0.000000e+000
4.358519e+002;0.000000e+000
4.377804e+002;0.000000e+000
4.397090e+002;0.000000e+000
4.416375e+002;0.000000e+000
4.435660e+002;0.000000e+000
4.454946e+002;0.000000e+000
4.474232e+002;0.000000e+000
4.493517e+002;0.000000e+000
4.512802e+002;0.000000e+000
4.532088e+002;0.000000e+000
4.551373e+002;0.000000e+000
4.570659e+002;0.000000e+000
4.589944e+002;0.000000e+000
4.609230e+002;0.000000e+000
4.628515e+002;0.000000e+000
4.647801e+002;0.000000e+000
4.667086e+002;0.000000e+000
4.686372e+002;0.000000e+000
4.705657e+002;0.000000e+000
4.724943e+002;0.000000e+000
4.744228e+002;0.000000e+000
4.763513e+002;0.000000e+000
4.782799e+002;0.000000e+000
4.802085e+002;0.000000e+000
4.821370e+002;0.000000e+000
4.840656e+002;0.000000e+000
4.859941e+002;0.000000e+000
4.879226e+002;0.000000e+000
4.898512e+002;0.000000e+000
4.917798e+002;0.000000e+000
4.937083e+002;0.000000e+000
4.956368e+002;0.000000e+000
4.975654e+002;0.000000e+000
4.994939e+002;0.000000e+000
5.014225e+002;0.000000e+000
5.033510e+002;0.000000e+000
5.052796e+002;0.000000e+000
5.072081e+002;0.000000e+000
5.091367e+002;0.000000e+000
5.110652e+002;0.000000e+000
5.129938e+002;0.000000e+000
5.149223e+002;0.000000e+000
5.168509e+002;0.000000e+000
5.187794e+002;0.000000e+000
5.207079e+002;0.000000e+000
5.226365e+002;0.000000e+000
5.245651e+002;0.000000e+000
5.264936e+002;0.000000e+000
5.284222e+002;0.000000e+000
5.303507e+002;0.000000e+000
5.322792e+002;0.000000e+000
5.342078e+002;0.000000e+000
5.361364e+002;0.000000e+000
5.380649e+002;0.000000e+000
5.399935e+002;0.000000e+000
5.419220e+002;0.000000e+000
5.438505e+002;0.000000e+000
5.457791e+002;0.000000e+000
5.477076e+002;0.000000e+000
5.496362e+002;0.000000e+000
5.515648e+002;0.000000e+000
5.534933e+002;0.000000e+000
5.554218e+002;0.000000e+000
5.573504e+002;0.000000e+000
5.592789e+002;0.000000e+000
5.612075e+002;0.000000e+000
5.631360e+002;0.000000e+000
5.650646e+002;0.000000e+000
5.669931e+002;0.000000e+000
5.689217e+002;0.000000e+000
5.708502e+002;0.000000e+000
5.727787e+002;0.000000e+000
5.747073e+002;0.000000e+000
5.766359e+002;0.000000e+000
5.785644e+002;0.000000e+000
5.804930e+002;0.000000e+000
5.824215e+002;0.000000e+000
5.843500e+002;0.000000e+000
5.862786e+002;0.000000e+000
5.882072e+002;0.000000e+000
5.901357e+002;0.000000e+000
5.920643e+002;0.000000e+000
5.939928e+002;0.000000e+000
5.959213e+002;0.000000e+000
5.978499e+002;0.000000e+000
5.997784e+002;1.137456e-001
6.017070e+002;1.236351e-001
6.036355e+002;1.288740e-001
6.055641e+002;1.210597e-001
6.074926e+002;1.191913e-001
6.094211e+002;1.231435e-001
6.113497e+002;1.235683e-001
6.132783e+002;1.229706e-001
6.152068e+002;1.237146e-001
6.171354e+002;1.271560e-001
6.190639e+002;1.286442e-001
6.209924e+002;1.235478e-001
6.229210e+002;1.219418e-001
6.248495e+002;1.248892e-001
6.267781e+002;1.285283e-001
6.287067e+002;1.295712e-001
6.306352e+002;1.284037e-001
6.325637e+002;1.228179e-001
6.344923e+002;1.187845e-001
6.364208e+002;1.258479e-001
6.383494e+002;1.268265e-001
6.402780e+002;1.255757e-001
6.422065e+002;1.279894e-001
6.441350e+002;1.284484e-001
6.460636e+002;1.280414e-001
6.479921e+002;1.252754e-001
6.499207e+002;1.237716e-001
6.518492e+002;1.245497e-001
6.537778e+002;1.248388e-001
6.557063e+002;1.236428e-001
6.576349e+002;1.237925e-001
6.595634e+002;1.251032e-001
6.614919e+002;1.256940e-001
6.634205e+002;1.253521e-001
6.653491e+002;1.236258e-001
6.672776e+002;1.204704e-001
6.692062e+002;1.231965e-001
6.711347e+002;1.267869e-001
6.730632e+002;1.261475e-001
6.749918e+002;1.232647e-001
6.769203e+002;1.201695e-001
6.788489e+002;1.203153e-001
6.807775e+002;1.193689e-001
6.827060e+002;1.166972e-001
6.846345e+002;1.161637e-001
6.865631e+002;1.169545e-001
6.884916e+002;1.167384e-001
6.904202e+002;1.148993e-001
6.923488e+002;1.141000e-001
6.942773e+002;1.142528e-001
6.962058e+002;1.153648e-001
6.981344e+002;1.157853e-001
7.000629e+002;1.147371e-001
7.019915e+002;1.141585e-001
7.039200e+002;1.140247e-001
7.058486e+002;1.137805e-001
7.077771e+002;1.138160e-001
7.097057e+002;1.133877e-001
7.116342e+002;1.127865e-001
7.135627e+002;1.125136e-001
7.154913e+002;1.124927e-001
7.174199e+002;1.120985e-001
7.193484e+002;1.113295e-001
7.212770e+002;1.098037e-001
7.232055e+002;1.080015e-001
7.251340e+002;1.063622e-001
7.270626e+002;1.047562e-001
7.289911e+002;1.037493e-001
7.309197e+002;1.023454e-001
7.328483e+002;1.009520e-001
7.347768e+002;1.004862e-001
7.367053e+002;1.000451e-001
7.386339e+002;9.871659e-002
7.405624e+002;9.754226e-002
7.424910e+002;9.763538e-002
7.444196e+002;9.720525e-002
7.463481e+002;9.573935e-002
7.482766e+002;9.456100e-002
7.502052e+002;9.360170e-002
7.521337e+002;9.131708e-002
7.540623e+002;8.935638e-002
7.559908e+002;8.943783e-002
7.579194e+002;8.836488e-002
7.598479e+002;8.561040e-002
7.617765e+002;8.390015e-002
7.637050e+002;8.369753e-002
7.656335e+002;8.336359e-002
7.675621e+002;8.270314e-002
7.694907e+002;8.175477e-002
7.714192e+002;8.045122e-002
7.733478e+002;7.951328e-002
7.752763e+002;7.884626e-002
7.772048e+002;7.831325e-002
7.791334e+002;7.761502e-002
7.810620e+002;7.684977e-002
7.829905e+002;7.680539e-002
7.849191e+002;7.679135e-002
7.868476e+002;7.602218e-002
7.887761e+002;7.624964e-002
7.907047e+002;7.637399e-002
7.926332e+002;7.560156e-002
7.945618e+002;7.490508e-002
7.964903e+002;7.468033e-002
7.984189e+002;7.468348e-002
8.003474e+002;7.445652e-002
8.022759e+002;7.384571e-002
8.042045e+002;7.388024e-002
8.061331e+002;7.447438e-002
8.080616e+002;7.389100e-002
8.099902e+002;7.352566e-002
8.119187e+002;7.300399e-002
8.138472e+002;7.238865e-002
8.157758e+002;7.249204e-002
8.177043e+002;7.290397e-002
8.196329e+002;7.272287e-002
8.215615e+002;7.229209e-002
8.234900e+002;7.230552e-002
8.254185e+002;7.253969e-002
8.273471e+002;7.268178e-002
8.292756e+002;7.192399e-002
8.312042e+002;7.191362e-002
8.331328e+002;7.293171e-002
8.350613e+002;7.231142e-002
8.369898e+002;7.183762e-002
8.389184e+002;7.186389e-002
8.408469e+002;7.123481e-002
8.427755e+002;7.104797e-002
8.447040e+002;7.076920e-002
8.466326e+002;6.936356e-002
8.485611e+002;6.817090e-002
8.504897e+002;6.834833e-002
8.524182e+002;6.741942e-002
8.543467e+002;6.688792e-002
8.562753e+002;6.703845e-002
8.582039e+002;6.691911e-002
8.601324e+002;6.713044e-002
8.620610e+002;6.745642e-002
8.639895e+002;6.791760e-002
8.659180e+002;6.850740e-002
8.678466e+002;6.828558e-002
8.697751e+002;6.763487e-002
8.717037e+002;6.705194e-002
8.736323e+002;6.604467e-002
8.755608e+002;6.619094e-002
8.774893e+002;6.754714e-002
8.794179e+002;6.947639e-002
8.813464e+002;7.217768e-002
8.832750e+002;7.487402e-002
8.852036e+002;7.697883e-002
8.871321e+002;7.930718e-002
8.890606e+002;8.224289e-002
8.909892e+002;8.513010e-002
8.929177e+002;8.700707e-002
8.948463e+002;8.873113e-002
8.967748e+002;9.004094e-002
8.987034e+002;9.008949e-002
9.006319e+002;8.993683e-002
9.025605e+002;9.017537e-002
9.044890e+002;8.989733e-002
9.064175e+002;8.873666e-002
9.083461e+002;8.760077e-002
9.102747e+002;8.611552e-002
9.122032e+002;8.434936e-002
9.141318e+002;8.279907e-002
9.160603e+002;8.125190e-002
9.179888e+002;8.074370e-002
9.199174e+002;8.041916e-002
9.218459e+002;7.973414e-002
9.237745e+002;7.956494e-002
9.257031e+002;7.930240e-002
9.276316e+002;7.891710e-002
9.295601e+002;7.894731e-002
9.314887e+002;7.873821e-002
9.334172e+002;7.858174e-002
9.353458e+002;7.869908e-002
9.372744e+002;7.849252e-002
9.392029e+002;7.861747e-002
9.411314e+002;7.893101e-002
9.430600e+002;7.883223e-002
9.449885e+002;7.889990e-002
9.469171e+002;7.944934e-002
9.488456e+002;8.023219e-002
9.507742e+002;8.094219e-002
9.527027e+002;8.171173e-002
9.546313e+002;8.278821e-002
9.565598e+002;8.416817e-002
9.584883e+002;8.511498e-002
9.604169e+002;8.622462e-002
9.623455e+002;8.722331e-002
9.642740e+002;8.786776e-002
9.662026e+002;8.955118e-002
9.681311e+002;9.179229e-002
9.700596e+002;9.354585e-002
9.719882e+002;9.572316e-002
9.739167e+002;9.869009e-002
9.758453e+002;1.016764e-001
9.777739e+002;1.058636e-001
9.797024e+002;1.112923e-001
9.816309e+002;1.166425e-001
9.835595e+002;1.220084e-001
9.854880e+002;1.280497e-001
9.874166e+002;1.333953e-001
9.893452e+002;1.379657e-001
9.912737e+002;1.422202e-001
9.932022e+002;1.449249e-001
9.951307e+002;1.471916e-001
9.970593e+002;1.496031e-001
9.989879e+002;1.517832e-001
1.000916e+003;1.538545e-001
1.002845e+003;1.556984e-001
1.004773e+003;1.575275e-001
1.006702e+003;1.591153e-001
1.008631e+003;1.602456e-001
1.010559e+003;1.608975e-001
1.012488e+003;1.623270e-001
1.014416e+003;1.645879e-001
1.016345e+003;1.673719e-001
1.018273e+003;1.704187e-001
1.020202e+003;1.729797e-001
1.022130e+003;1.755112e-001
1.024059e+003;1.779477e-001
1.025988e+003;1.799111e-001
1.027916e+003;1.819483e-001
1.029845e+003;1.839065e-001
1.031773e+003;1.852325e-001
1.033702e+003;1.865640e-001
1.035630e+003;1.874025e-001
1.037559e+003;1.870290e-001
1.039487e+003;1.863370e-001
1.041416e+003;1.868535e-001
1.043344e+003;1.866754e-001
1.045273e+003;1.858660e-001
1.047202e+003;1.857577e-001
1.049130e+003;1.857380e-001
1.051059e+003;1.863304e-001
1.052987e+003;1.879389e-001
1.054916e+003;1.889560e-001
1.056844e+003;1.891096e-001
1.058773e+003;1.887965e-001
1.060701e+003;1.880607e-001
1.062630e+003;1.869304e-001
1.064558e+003;1.850408e-001
1.066487e+003;1.819995e-001
1.068416e+003;1.784662e-001
1.070344e+003;1.754347e-001
1.072273e+003;1.729207e-001
1.074201e+003;1.694158e-001
1.076130e+003;1.664310e-001
1.078058e+003;1.646255e-001
1.079987e+003;1.628104e-001
1.081915e+003;1.608419e-001
1.083844e+003;1.586139e-001
1.085773e+003;1.575987e-001
1.087701e+003;1.571239e-001
1.089630e+003;1.562062e-001
1.091558e+003;1.544061e-001
1.093487e+003;1.523476e-001
1.095415e+003;1.510913e-001
1.097344e+003;1.500367e-001
1.099272e+003;1.493316e-001
1.101201e+003;1.485816e-001
1.103129e+003;1.472742e-001
1.105058e+003;1.458681e-001
1.106987e+003;1.440523e-001
1.108915e+003;1.420304e-001
1.110844e+003;1.401163e-001
1.112772e+003;1.376252e-001
1.114701e+003;1.347229e-001
1.116629e+003;1.324837e-001
1.118558e+003;1.298426e-001
1.120486e+003;1.266681e-001
1.122415e+003;1.239804e-001
1.124344e+003;1.209835e-001
1.126272e+003;1.180297e-001
1.128201e+003;1.146831e-001
1.130129e+003;1.111991e-001
1.132058e+003;1.083734e-001
1.133986e+003;1.060052e-001
1.135915e+003;1.030492e-001
1.137843e+003;9.981417e-002
1.139772e+003;9.746860e-002
1.141700e+003;9.573279e-002
1.143629e+003;9.469738e-002
1.145557e+003;9.378720e-002
1.147486e+003;9.247845e-002
1.149415e+003;9.163617e-002
1.151343e+003;9.100007e-002
1.153272e+003;9.012879e-002
1.155200e+003;8.953425e-002
1.157129e+003;8.895084e-002
1.159057e+003;8.823169e-002
1.160986e+003;8.756591e-002
1.162914e+003;8.658580e-002
1.164843e+003;8.487344e-002
1.166771e+003;8.208779e-002
1.168700e+003;7.923277e-002
1.170629e+003;7.630940e-002
1.172557e+003;7.339024e-002
1.174486e+003;7.001544e-002
1.176414e+003;6.659812e-002
1.178343e+003;6.395222e-002
1.180271e+003;6.175470e-002
1.182200e+003;5.985219e-002
1.184128e+003;5.869932e-002
1.186057e+003;5.785406e-002
1.187986e+003;5.750169e-002
1.189914e+003;5.785194e-002
1.191843e+003;5.905870e-002
1.193771e+003;6.022242e-002
1.195700e+003;6.115011e-002
1.197628e+003;6.256090e-002
1.199557e+003;6.404217e-002
1.201485e+003;6.499216e-002
1.203414e+003;6.521561e-002
1.205343e+003;6.508549e-002
1.207271e+003;6.434970e-002
1.209200e+003;6.316726e-002
1.211128e+003;6.182246e-002
1.213057e+003;6.049488e-002
1.214985e+003;5.925522e-002
1.216914e+003;5.840319e-002
1.218842e+003;5.821523e-002
1.220771e+003;5.898733e-002
1.222699e+003;6.014805e-002
1.224628e+003;6.112608e-002
1.226557e+003;6.209387e-002
1.228485e+003;6.318512e-002
1.230414e+003;6.408230e-002
1.232342e+003;6.505058e-002
1.234271e+003;6.598480e-002
1.236199e+003;6.665298e-002
1.238128e+003;6.694973e-002
1.240056e+003;6.654888e-002
1.241985e+003;6.673967e-002
1.243913e+003;6.765740e-002
1.245842e+003;6.836481e-002
1.247771e+003;6.885934e-002
1.249699e+003;6.904225e-002
1.251628e+003;6.898496e-002
1.253556e+003;6.954016e-002
1.255485e+003;7.000909e-002
1.257413e+003;7.021103e-002
1.259342e+003;7.092503e-002
1.261270e+003;7.124149e-002
1.263199e+003;7.071617e-002
1.265127e+003;7.018922e-002
1.267056e+003;6.959321e-002
1.268985e+003;6.898267e-002
1.270913e+003;6.873565e-002
1.272842e+003;6.846178e-002
1.274770e+003;6.811822e-002
1.276699e+003;6.809802e-002
1.278627e+003;6.774074e-002
1.280556e+003;6.708798e-002
1.282484e+003;6.684954e-002
1.284413e+003;6.652683e-002
1.286342e+003;6.574272e-002
1.288270e+003;6.544330e-002
1.290199e+003;6.559476e-002
1.292127e+003;6.619035e-002
1.294056e+003;6.696801e-002
1.295984e+003;6.756027e-002
1.297913e+003;6.818005e-002
1.299841e+003;6.917655e-002
1.301770e+003;7.069694e-002
1.303698e+003;7.243429e-002
1.305627e+003;7.425126e-002
1.307556e+003;7.583915e-002
1.309484e+003;7.758147e-002
1.311413e+003;7.935045e-002
1.313341e+003;8.083533e-002
1.315270e+003;8.179413e-002
1.317198e+003;8.251651e-002
1.319127e+003;8.309671e-002
1.321055e+003;8.303797e-002
1.322984e+003;8.241098e-002
1.324912e+003;8.201879e-002
1.326841e+003;8.180817e-002
1.328770e+003;8.151018e-002
1.330698e+003;8.150246e-002
1.332627e+003;8.136138e-002
1.334555e+003;8.148263e-002
1.336484e+003;8.194280e-002
1.338412e+003;8.220097e-002
1.340341e+003;8.216462e-002
1.342269e+003;8.220413e-002
1.344198e+003;8.172189e-002
1.346126e+003;8.097018e-002
1.348055e+003;8.025419e-002
1.349984e+003;7.960784e-002
1.351912e+003;7.942082e-002
1.353841e+003;7.956784e-002
1.355769e+003;7.974000e-002
1.357698e+003;8.009869e-002
1.359626e+003;8.042447e-002
1.361555e+003;8.045927e-002
1.363483e+003;8.042374e-002
1.365412e+003;8.051535e-002
1.367341e+003;8.001817e-002
1.369269e+003;7.930443e-002
1.371198e+003;7.870273e-002
1.373126e+003;7.769307e-002
1.375055e+003;7.649805e-002
1.376983e+003;7.551628e-002
1.378912e+003;7.439426e-002
1.380840e+003;7.316431e-002
1.382769e+003;7.185318e-002
1.384698e+003;7.019202e-002
1.386626e+003;6.810175e-002
1.388555e+003;6.710105e-002
1.390483e+003;6.667136e-002
1.392412e+003;6.530368e-002
1.394340e+003;6.358601e-002
1.396269e+003;6.315871e-002
1.398197e+003;6.270600e-002
1.400126e+003;6.247121e-002
1.402054e+003;6.274677e-002
1.403983e+003;6.249145e-002
1.405911e+003;6.210981e-002
1.407840e+003;6.218076e-002
1.409769e+003;6.198164e-002
1.411697e+003;6.172662e-002
1.413626e+003;6.148725e-002
1.415554e+003;6.106621e-002
1.417483e+003;6.007061e-002
1.419411e+003;5.953339e-002
1.421340e+003;6.115213e-002
1.423268e+003;6.189116e-002
1.425197e+003;6.167873e-002
1.427125e+003;6.162026e-002
1.429054e+003;6.114359e-002
1.430983e+003;6.119215e-002
1.432911e+003;6.106075e-002
1.434840e+003;5.960567e-002
1.436768e+003;5.815094e-002
1.438697e+003;5.861998e-002
1.440625e+003;5.864505e-002
1.442554e+003;5.798702e-002
1.444482e+003;5.713290e-002
1.446411e+003;5.617848e-002
1.448340e+003;5.539076e-002
1.450268e+003;5.508977e-002
1.452197e+003;5.475945e-002
1.454125e+003;5.331585e-002
1.456054e+003;5.017820e-002
1.457982e+003;5.035308e-002
1.459911e+003;5.259340e-002
1.461839e+003;5.267483e-002
1.463768e+003;5.079070e-002
1.465697e+003;4.927963e-002
1.467625e+003;4.891413e-002
1.469554e+003;4.708469e-002
1.471482e+003;4.373170e-002
1.473411e+003;4.223275e-002
1.475339e+003;4.193475e-002
1.477268e+003;4.109269e-002
1.479196e+003;4.019948e-002
1.481125e+003;3.848824e-002
1.483053e+003;3.678032e-002
1.484982e+003;3.520013e-002
1.486911e+003;3.314845e-002
1.488839e+003;3.109969e-002
1.490768e+003;3.022653e-002
1.492696e+003;2.978422e-002
1.494625e+003;2.797098e-002
1.496553e+003;2.632518e-002
1.498482e+003;2.638915e-002
1.500410e+003;2.666511e-002
1.502339e+003;2.631180e-002
1.504267e+003;2.371172e-002
1.506196e+003;2.052713e-002
1.508125e+003;2.186496e-002
1.510053e+003;2.418138e-002
1.511982e+003;2.416180e-002
1.513910e+003;2.367414e-002
1.515839e+003;2.277261e-002
1.517767e+003;2.215127e-002
1.519696e+003;2.078420e-002
1.521624e+003;1.994136e-002
1.523553e+003;2.133908e-002
1.525481e+003;2.178294e-002
1.527410e+003;2.212913e-002
1.529339e+003;2.301228e-002
1.531267e+003;2.300809e-002
1.533196e+003;2.193567e-002
1.535124e+003;2.223848e-002
1.537053e+003;2.123733e-002
1.538981e+003;1.782966e-002
1.540910e+003;1.829749e-002
1.542838e+003;2.145447e-002
1.544767e+003;2.345796e-002
1.546695e+003;2.506556e-002
1.548624e+003;2.594619e-002
1.550553e+003;2.646845e-002
1.552481e+003;2.639436e-002
1.554410e+003;2.608230e-002
1.556338e+003;2.537668e-002
1.558267e+003;2.285820e-002
1.560195e+003;2.477500e-002
1.562124e+003;2.984036e-002
1.564052e+003;3.204674e-002
1.565981e+003;3.308906e-002
1.567910e+003;3.329796e-002
1.569838e+003;3.356113e-002
1.571767e+003;3.527693e-002
1.573695e+003;3.531826e-002
1.575624e+003;3.370477e-002
1.577552e+003;3.552950e-002
1.579481e+003;3.831428e-002
1.581409e+003;3.943744e-002
1.583338e+003;4.004918e-002
1.585266e+003;4.052939e-002
1.587195e+003;4.129503e-002
1.589124e+003;4.170666e-002
1.591052e+003;4.219970e-002
1.592981e+003;4.261746e-002
1.594909e+003;4.300908e-002
1.596838e+003;4.349519e-002
1.598766e+003;4.371136e-002
1.600695e+003;4.407746e-002
1.602623e+003;4.457313e-002
1.604552e+003;4.493662e-002
1.606480e+003;4.524253e-002
1.608409e+003;4.516443e-002
1.610338e+003;4.509142e-002
1.612266e+003;4.526992e-002
1.614195e+003;4.440144e-002
1.616123e+003;4.256080e-002
1.618052e+003;4.340960e-002
1.619980e+003;4.480879e-002
1.621909e+003;4.393644e-002
1.623837e+003;4.323120e-002
1.625766e+003;4.359533e-002
1.627694e+003;4.355613e-002
1.629623e+003;4.344780e-002
1.631552e+003;4.302518e-002
1.633480e+003;4.098169e-002
1.635409e+003;3.864402e-002
1.637337e+003;3.953519e-002
1.639266e+003;4.065428e-002
1.641194e+003;4.023921e-002
1.643123e+003;3.899692e-002
1.645051e+003;3.647671e-002
1.646980e+003;3.522572e-002
1.648909e+003;3.563422e-002
1.650837e+003;3.243676e-002
1.652766e+003;2.813293e-002
1.654694e+003;3.093222e-002
1.656623e+003;3.415206e-002
1.658551e+003;3.425269e-002
1.660480e+003;3.310114e-002
1.662408e+003;3.167491e-002
1.664337e+003;3.181076e-002
1.666266e+003;3.140691e-002
1.668194e+003;2.929408e-002
1.670123e+003;2.863450e-002
1.672051e+003;2.889932e-002
1.673980e+003;2.758547e-002
1.675908e+003;2.709187e-002
1.677837e+003;2.778916e-002
1.679765e+003;2.698365e-002
1.681694e+003;2.494359e-002
1.683622e+003;2.106434e-002
1.685551e+003;2.110266e-002
1.687479e+003;2.363765e-002
1.689408e+003;2.397930e-002
1.691337e+003;2.367747e-002
1.693265e+003;2.179395e-002
1.695194e+003;1.810493e-002
1.697122e+003;1.759035e-002
1.699051e+003;1.660539e-002
1.700979e+003;1.641361e-002
1.702908e+003;1.848187e-002
1.704836e+003;1.816428e-002
1.706765e+003;1.808434e-002
1.708693e+003;1.791981e-002
1.710622e+003;1.764791e-002
1.712551e+003;1.685794e-002
1.714479e+003;1.503910e-002
1.716408e+003;1.247647e-002
1.718336e+003;1.249017e-002
1.720265e+003;1.430060e-002
1.722193e+003;1.462055e-002
1.724122e+003;1.456782e-002
1.726050e+003;1.428376e-002
1.727979e+003;1.354261e-002
1.729908e+003;1.293241e-002
1.731836e+003;1.125387e-002
1.733765e+003;9.389640e-003
1.735693e+003;1.125003e-002
1.737622e+003;1.313881e-002
1.739550e+003;1.299434e-002
1.741479e+003;1.357156e-002
1.743407e+003;1.428934e-002
1.745336e+003;1.457755e-002
1.747265e+003;1.458913e-002
1.749193e+003;1.454503e-002
1.751122e+003;1.449830e-002
1.753050e+003;1.578007e-002
1.754979e+003;1.658239e-002
1.756907e+003;1.659269e-002
1.758836e+003;1.671739e-002
1.760764e+003;1.611448e-002
1.762693e+003;1.603086e-002
1.764621e+003;1.666254e-002
1.766550e+003;1.603351e-002
1.768479e+003;1.529291e-002
1.770407e+003;1.463817e-002
1.772336e+003;1.387072e-002
1.774264e+003;1.482776e-002
1.776193e+003;1.574475e-002
1.778121e+003;1.571015e-002
1.780050e+003;1.538315e-002
1.781978e+003;1.521267e-002
1.783907e+003;1.499150e-002
1.785835e+003;1.489715e-002
1.787764e+003;1.516473e-002
1.789693e+003;1.450022e-002
1.791621e+003;1.311098e-002
1.793550e+003;1.337545e-002
1.795478e+003;1.446236e-002
1.797407e+003;1.437879e-002
1.799335e+003;1.402832e-002
1.801264e+003;1.425441e-002
1.803192e+003;1.498656e-002
1.805121e+003;1.509605e-002
1.807049e+003;1.512212e-002
1.808978e+003;1.533255e-002
1.810907e+003;1.524184e-002
1.812835e+003;1.518007e-002
1.814764e+003;1.536032e-002
1.816692e+003;1.540742e-002
1.818621e+003;1.534659e-002
1.820549e+003;1.519538e-002
1.822478e+003;1.501571e-002
1.824406e+003;1.471182e-002
1.826335e+003;1.492781e-002
1.828264e+003;1.474527e-002
1.830192e+003;1.456617e-002
1.832121e+003;1.532795e-002
1.834049e+003;1.568751e-002
1.835978e+003;1.526284e-002
1.837906e+003;1.495552e-002
1.839835e+003;1.517101e-002
1.841763e+003;1.495384e-002
1.843692e+003;1.395256e-002
1.845620e+003;1.439423e-002
1.847549e+003;1.524067e-002
1.849478e+003;1.534882e-002
1.851406e+003;1.563729e-002
1.853335e+003;1.575155e-002
1.855263e+003;1.571462e-002
1.857192e+003;1.562413e-002
1.859120e+003;1.560414e-002
1.861049e+003;1.560246e-002
1.862977e+003;1.546991e-002
1.864906e+003;1.518141e-002
1.866834e+003;1.468635e-002
1.868763e+003;1.437845e-002
1.870692e+003;1.476152e-002
1.872620e+003;1.518865e-002
1.874549e+003;1.530801e-002
1.876477e+003;1.547203e-002
1.878406e+003;1.551897e-002
1.880334e+003;1.552086e-002
1.882263e+003;1.550953e-002
1.884191e+003;1.541871e-002
1.886120e+003;1.515887e-002
1.888048e+003;1.487202e-002
1.889977e+003;1.478312e-002
1.891906e+003;1.495531e-002
1.893834e+003;1.495675e-002
1.895763e+003;1.525557e-002
1.897691e+003;1.544326e-002
1.899620e+003;1.523618e-002
1.901548e+003;1.504871e-002
1.903477e+003;1.522856e-002
1.905405e+003;1.533938e-002
1.907334e+003;1.532799e-002
1.909262e+003;1.536674e-002
1.911191e+003;1.564337e-002
1.913120e+003;1.576618e-002
1.915048e+003;1.567604e-002
1.916977e+003;1.530945e-002
1.918905e+003;1.521634e-002
1.920834e+003;1.527098e-002
1.922762e+003;1.515177e-002
1.924691e+003;1.539472e-002
1.926619e+003;1.584848e-002
1.928548e+003;1.588086e-002
1.930477e+003;1.577323e-002
1.932405e+003;1.586518e-002
1.934334e+003;1.585168e-002
1.936262e+003;1.572121e-002
1.938191e+003;1.564227e-002
1.940119e+003;1.541089e-002
1.942048e+003;1.522702e-002
1.943976e+003;1.555414e-002
1.945905e+003;1.578821e-002
1.947833e+003;1.584714e-002
1.949762e+003;1.590385e-002
1.951691e+003;1.592506e-002
1.953619e+003;1.592072e-002
1.955548e+003;1.583649e-002
1.957476e+003;1.586735e-002
1.959405e+003;1.616517e-002
1.961333e+003;1.631759e-002
1.963262e+003;1.590519e-002
1.965190e+003;1.559614e-002
1.967119e+003;1.560916e-002
1.969047e+003;1.585106e-002
1.970976e+003;1.609523e-002
1.972905e+003;1.628903e-002
1.974833e+003;1.637920e-002
1.976762e+003;1.648172e-002
1.978690e+003;1.660959e-002
1.980619e+003;1.665221e-002
1.982547e+003;1.665493e-002
1.984476e+003;1.665503e-002
1.986404e+003;1.659458e-002
1.988333e+003;1.671932e-002
1.990261e+003;1.677011e-002
1.992190e+003;1.676973e-002
1.994119e+003;1.691901e-002
1.996047e+003;1.692566e-002
1.997976e+003;1.702924e-002
1.999904e+003;1.710967e-002
2.001833e+003;1.727172e-002
2.003761e+003;1.741231e-002
2.005690e+003;1.748685e-002
2.007618e+003;1.767210e-002
2.009547e+003;1.778399e-002
2.011476e+003;1.776366e-002
2.013404e+003;1.771762e-002
2.015333e+003;1.785480e-002
2.017261e+003;1.790780e-002
2.019190e+003;1.787054e-002
2.021118e+003;1.795738e-002
2.023047e+003;1.824116e-002
2.024975e+003;1.834204e-002
2.026904e+003;1.834308e-002
2.028833e+003;1.813675e-002
2.030761e+003;1.801285e-002
2.032690e+003;1.843752e-002
2.034618e+003;1.886689e-002
2.036547e+003;1.889942e-002
2.038475e+003;1.885118e-002
2.040404e+003;1.895847e-002
2.042332e+003;1.904452e-002
2.044261e+003;1.916862e-002
2.046189e+003;1.924986e-002
2.048118e+003;1.926763e-002
2.050047e+003;1.937142e-002
2.051975e+003;1.964551e-002
2.053904e+003;1.975230e-002
2.055832e+003;1.966340e-002
2.057761e+003;1.954998e-002
2.059689e+003;1.955473e-002
2.061618e+003;1.963841e-002
2.063546e+003;1.966950e-002
2.065475e+003;1.982783e-002
2.067404e+003;1.975366e-002
2.069332e+003;1.975778e-002
2.071260e+003;1.964843e-002
2.073189e+003;1.972030e-002
2.075118e+003;2.010715e-002
2.077046e+003;2.022249e-002
2.078975e+003;2.003414e-002
2.080903e+003;1.980002e-002
2.082832e+003;1.979555e-002
2.084760e+003;1.994167e-002
2.086689e+003;1.999434e-002
2.088617e+003;2.008757e-002
2.090546e+003;2.022714e-002
2.092475e+003;2.012044e-002
2.094403e+003;1.994788e-002
2.096332e+003;1.986814e-002
2.098260e+003;1.982960e-002
2.100189e+003;2.001922e-002
2.102117e+003;2.016035e-002
2.104046e+003;2.023915e-002
2.105974e+003;2.029435e-002
2.107903e+003;2.031066e-002
2.109832e+003;2.050507e-002
2.111760e+003;2.046044e-002
2.113688e+003;2.031407e-002
2.115617e+003;2.029848e-002
2.117546e+003;2.043981e-002
2.119474e+003;2.039938e-002
2.121403e+003;2.011718e-002
2.123331e+003;2.008893e-002
2.125260e+003;2.042630e-002
2.127188e+003;2.090608e-002
2.129117e+003;2.100459e-002
2.131045e+003;2.095927e-002
2.132974e+003;2.092836e-002
2.134903e+003;2.100535e-002
2.136831e+003;2.096216e-002
2.138760e+003;2.096331e-002
2.140688e+003;2.110941e-002
2.142617e+003;2.112121e-002
2.144545e+003;2.102684e-002
2.146474e+003;2.095479e-002
2.148402e+003;2.090305e-002
2.150331e+003;2.089791e-002
2.152260e+003;2.098581e-002
2.154188e+003;2.131716e-002
2.156117e+003;2.121395e-002
2.158045e+003;2.084527e-002
2.159974e+003;2.078701e-002
2.161902e+003;2.099541e-002
2.163831e+003;2.092085e-002
2.165759e+003;2.061510e-002
2.167688e+003;2.070103e-002
2.169616e+003;2.089641e-002
2.171545e+003;2.112444e-002
2.173474e+003;2.119652e-002
2.175402e+003;2.083032e-002
2.177331e+003;2.055437e-002
2.179259e+003;2.067281e-002
2.181188e+003;2.070266e-002
2.183116e+003;2.055204e-002
2.185045e+003;2.070933e-002
2.186973e+003;2.089380e-002
2.188902e+003;2.074325e-002
2.190831e+003;2.047454e-002
2.192759e+003;2.061482e-002
2.194688e+003;2.089502e-002
2.196616e+003;2.108534e-002
2.198545e+003;2.126180e-002
2.200473e+003;2.138969e-002
2.202402e+003;2.126837e-002
2.204330e+003;2.096366e-002
2.206259e+003;2.067365e-002
2.208188e+003;2.070607e-002
2.210116e+003;2.084218e-002
2.212044e+003;2.077568e-002
2.213973e+003;2.069109e-002
2.215902e+003;2.076866e-002
2.217830e+003;2.079445e-002
2.219759e+003;2.090736e-002
2.221687e+003;2.093421e-002
2.223616e+003;2.099499e-002
2.225544e+003;2.118337e-002
2.227473e+003;2.113623e-002
2.229401e+003;2.104069e-002
2.231330e+003;2.124099e-002
2.233259e+003;2.124273e-002
2.235187e+003;2.124189e-002
2.237116e+003;2.122223e-002
2.239044e+003;2.133940e-002
2.240973e+003;2.157240e-002
2.242901e+003;2.152400e-002
2.244830e+003;2.146916e-002
2.246758e+003;2.158284e-002
2.248687e+003;2.148546e-002
2.250615e+003;2.135945e-002
2.252544e+003;2.132050e-002
2.254473e+003;2.142467e-002
2.256401e+003;2.167040e-002
2.258330e+003;2.192985e-002
2.260258e+003;2.200436e-002
2.262187e+003;2.186214e-002
2.264115e+003;2.171637e-002
2.266044e+003;2.152661e-002
2.267972e+003;2.153726e-002
2.269901e+003;2.195689e-002
2.271830e+003;2.204358e-002
2.273758e+003;2.160335e-002
2.275687e+003;2.149259e-002
2.277615e+003;2.166733e-002
2.279544e+003;2.179907e-002
2.281472e+003;2.186527e-002
2.283401e+003;2.186364e-002
2.285329e+003;2.186761e-002
2.287258e+003;2.181597e-002
2.289187e+003;2.208140e-002
2.291115e+003;2.233461e-002
2.293043e+003;2.211794e-002
2.294972e+003;2.185482e-002
2.296901e+003;2.190169e-002
2.298829e+003;2.208510e-002
2.300758e+003;2.213244e-002
2.302686e+003;2.186078e-002
2.304615e+003;2.139119e-002
2.306543e+003;2.122658e-002
2.308472e+003;2.089276e-002
2.310400e+003;2.054005e-002
2.312329e+003;2.048597e-002
2.314258e+003;2.025078e-002
2.316186e+003;1.962281e-002
2.318115e+003;1.884585e-002
2.320043e+003;1.829165e-002
2.321972e+003;1.792302e-002
2.323900e+003;1.727862e-002
2.325829e+003;1.636472e-002
2.327757e+003;1.554834e-002
2.329686e+003;1.479683e-002
2.331615e+003;1.416708e-002
2.333543e+003;1.396416e-002
2.335472e+003;1.386166e-002
2.337400e+003;1.408879e-002
2.339329e+003;1.444510e-002
2.341257e+003;1.509979e-002
2.343186e+003;1.636217e-002
2.345114e+003;1.772849e-002
2.347043e+003;1.926268e-002
2.348971e+003;2.021124e-002
2.350900e+003;1.895553e-002
2.352829e+003;1.684933e-002
2.354757e+003;1.517180e-002
2.356686e+003;1.351304e-002
2.358614e+003;1.210787e-002
2.360543e+003;1.154416e-002
2.362471e+003;1.170588e-002
2.364400e+003;1.251613e-002
2.366328e+003;1.351389e-002
2.368257e+003;1.430204e-002
2.370186e+003;1.567027e-002
2.372114e+003;1.745919e-002
2.374042e+003;1.894615e-002
2.375971e+003;2.030469e-002
2.377900e+003;2.151585e-002
2.379828e+003;2.254214e-002
2.381757e+003;2.329585e-002
2.383685e+003;2.349982e-002
2.385614e+003;2.351185e-002
2.387542e+003;2.367533e-002
2.389471e+003;2.396998e-002
2.391399e+003;2.419518e-002
2.393328e+003;2.441875e-002
2.395257e+003;2.454908e-002
2.397185e+003;2.444679e-002
2.399114e+003;2.444076e-002
2.401042e+003;2.420825e-002
2.402971e+003;2.410348e-002
2.404899e+003;2.421284e-002
2.406828e+003;2.420650e-002
2.408756e+003;2.444349e-002
2.410685e+003;2.481675e-002
2.412614e+003;2.496760e-002
2.414542e+003;2.504825e-002
2.416471e+003;2.499683e-002
2.418399e+003;2.508016e-002
2.420328e+003;2.520683e-002
2.422256e+003;2.513401e-002
2.424185e+003;2.506966e-002
2.426113e+003;2.517804e-002
2.428042e+003;2.529572e-002
2.429970e+003;2.556529e-002
2.431899e+003;2.580664e-002
2.433828e+003;2.585081e-002
2.435756e+003;2.569066e-002
2.437685e+003;2.562444e-002
2.439613e+003;2.588246e-002
2.441542e+003;2.615049e-002
2.443470e+003;2.613526e-002
2.445399e+003;2.617119e-002
2.447327e+003;2.625502e-002
2.449256e+003;2.616696e-002
2.451185e+003;2.627452e-002
2.453113e+003;2.639926e-002
2.455042e+003;2.651423e-002
2.456970e+003;2.654805e-002
2.458899e+003;2.663872e-002
2.460827e+003;2.680891e-002
2.462756e+003;2.696916e-002
2.464684e+003;2.687112e-002
2.466613e+003;2.669086e-002
2.468542e+003;2.664203e-002
2.470470e+003;2.671049e-002
2.472398e+003;2.698365e-002
2.474327e+003;2.729181e-002
2.476256e+003;2.744380e-002
2.478184e+003;2.756368e-002
2.480113e+003;2.774692e-002
2.482041e+003;2.778107e-002
2.483970e+003;2.778941e-002
2.485898e+003;2.804848e-002
2.487827e+003;2.804244e-002
2.489755e+003;2.796659e-002
2.491684e+003;2.805212e-002
2.493613e+003;2.817938e-002
2.495541e+003;2.819271e-002
2.497470e+003;2.826566e-002
2.499398e+003;2.825434e-002
2.501327e+003;2.846430e-002
2.503255e+003;2.865680e-002
2.505184e+003;2.878760e-002
2.507112e+003;2.875875e-002
2.509041e+003;2.884230e-002
2.510969e+003;2.897203e-002
2.512898e+003;2.901648e-002
2.514827e+003;2.906197e-002
2.516755e+003;2.911943e-002
2.518684e+003;2.911922e-002
2.520612e+003;2.907879e-002
2.522541e+003;2.911376e-002
2.524469e+003;2.935214e-002
2.526398e+003;2.964049e-002
2.528326e+003;2.987763e-002
2.530255e+003;2.974930e-002
2.532184e+003;2.951347e-002
2.534112e+003;2.971534e-002
2.536041e+003;3.008734e-002
2.537969e+003;3.016089e-002
2.539898e+003;3.028255e-002
2.541826e+003;3.021218e-002
2.543755e+003;2.996605e-002
2.545683e+003;3.004089e-002
2.547612e+003;3.035844e-002
2.549541e+003;3.085285e-002
2.551469e+003;3.097232e-002
2.553397e+003;3.106673e-002
2.555326e+003;3.112094e-002
2.557255e+003;3.090148e-002
2.559183e+003;3.067800e-002
2.561112e+003;3.099317e-002
2.563040e+003;3.128706e-002
2.564969e+003;3.123661e-002
2.566897e+003;3.119694e-002
2.568826e+003;3.130223e-002
2.570754e+003;3.153693e-002
2.572683e+003;3.153900e-002
2.574612e+003;3.135572e-002
2.576540e+003;3.148410e-002
2.578469e+003;3.183875e-002
2.580397e+003;3.206764e-002
2.582326e+003;3.221999e-002
2.584254e+003;3.203247e-002
2.586183e+003;3.200860e-002
2.588111e+003;3.236565e-002
2.590040e+003;3.250164e-002
2.591969e+003;3.241620e-002
2.593897e+003;3.235273e-002
2.595826e+003;3.236179e-002
2.597754e+003;3.247019e-002
2.599683e+003;3.281635e-002
2.601611e+003;3.287842e-002
2.603540e+003;3.242605e-002
2.605468e+003;3.246047e-002
2.607397e+003;3.287896e-002
2.609325e+003;3.294234e-002
2.611254e+003;3.305820e-002
2.613183e+003;3.334841e-002
2.615111e+003;3.351685e-002
2.617040e+003;3.381188e-002
2.618968e+003;3.418006e-002
2.620897e+003;3.429224e-002
2.622825e+003;3.406292e-002
2.624754e+003;3.389832e-002
2.626682e+003;3.398459e-002
2.628611e+003;3.413202e-002
2.630540e+003;3.438834e-002
2.632468e+003;3.460344e-002
2.634396e+003;3.477797e-002
2.636325e+003;3.504200e-002
2.638254e+003;3.511358e-002
2.640182e+003;3.499602e-002
2.642111e+003;3.500130e-002
2.644039e+003;3.502989e-002
2.645968e+003;3.538310e-002
2.647896e+003;3.594394e-002
2.649825e+003;3.623634e-002
2.651753e+003;3.625428e-002
2.653682e+003;3.625629e-002
2.655611e+003;3.635392e-002
2.657539e+003;3.655413e-002
2.659468e+003;3.665052e-002
2.661396e+003;3.692121e-002
2.663325e+003;3.737374e-002
2.665253e+003;3.736980e-002
2.667182e+003;3.739642e-002
2.669110e+003;3.753472e-002
2.671039e+003;3.778047e-002
2.672968e+003;3.800138e-002
2.674896e+003;3.796312e-002
2.676825e+003;3.810649e-002
2.678753e+003;3.830070e-002
2.680682e+003;3.864333e-002
2.682610e+003;3.901178e-002
2.684539e+003;3.915252e-002
2.686467e+003;3.920213e-002
2.688396e+003;3.944974e-002
2.690324e+003;3.989071e-002
2.692253e+003;4.008039e-002
2.694182e+003;4.026150e-002
2.696110e+003;4.024281e-002
2.698039e+003;4.018760e-002
2.699967e+003;4.037948e-002
2.701896e+003;4.055791e-002
2.703824e+003;4.064631e-002
2.705753e+003;4.077055e-002
2.707681e+003;4.099411e-002
2.709610e+003;4.122835e-002
2.711539e+003;4.130727e-002
2.713467e+003;4.149126e-002
2.715396e+003;4.192326e-002
2.717324e+003;4.226043e-002
2.719253e+003;4.224856e-002
2.721181e+003;4.187447e-002
2.723110e+003;4.177907e-002
2.725038e+003;4.228979e-002
2.726967e+003;4.266376e-002
2.728896e+003;4.297477e-002
2.730824e+003;4.310835e-002
2.732752e+003;4.299412e-002
2.734681e+003;4.322337e-002
2.736610e+003;4.360452e-002
2.738538e+003;4.354892e-002
2.740467e+003;4.353899e-002
2.742395e+003;4.370916e-002
2.744324e+003;4.384952e-002
2.746252e+003;4.412111e-002
2.748181e+003;4.411439e-002
2.750109e+003;4.414399e-002
2.752038e+003;4.446193e-002
2.753967e+003;4.446546e-002
2.755895e+003;4.409657e-002
2.757824e+003;4.424649e-002
2.759752e+003;4.470554e-002
2.761681e+003;4.507675e-002
2.763609e+003;4.513689e-002
2.765538e+003;4.539773e-002
2.767466e+003;4.566572e-002
2.769395e+003;4.562210e-002
2.771323e+003;4.572381e-002
2.773252e+003;4.590408e-002
2.775181e+003;4.593991e-002
2.777109e+003;4.598643e-002
2.779038e+003;4.618093e-002
2.780966e+003;4.664938e-002
2.782895e+003;4.699356e-002
2.784823e+003;4.733710e-002
2.786752e+003;4.736034e-002
2.788680e+003;4.760965e-002
2.790609e+003;4.797391e-002
2.792538e+003;4.801810e-002
2.794466e+003;4.826105e-002
2.796395e+003;4.864120e-002
2.798323e+003;4.875180e-002
2.800252e+003;4.879722e-002
2.802180e+003;4.898204e-002
2.804109e+003;4.930725e-002
2.806037e+003;4.958286e-002
2.807966e+003;5.000101e-002
2.809895e+003;5.064249e-002
2.811823e+003;5.118695e-002
2.813751e+003;5.131677e-002
2.815680e+003;5.148800e-002
2.817609e+003;5.184672e-002
2.819537e+003;5.241153e-002
2.821466e+003;5.294735e-002
2.823394e+003;5.332473e-002
2.825323e+003;5.367308e-002
2.827251e+003;5.391689e-002
2.829180e+003;5.454800e-002
2.831108e+003;5.524635e-002
2.833037e+003;5.569196e-002
2.834966e+003;5.630844e-002
2.836894e+003;5.681658e-002
2.838823e+003;5.700639e-002
2.840751e+003;5.701591e-002
2.842680e+003;5.764049e-002
2.844608e+003;5.854547e-002
2.846537e+003;5.909863e-002
2.848465e+003;5.980758e-002
2.850394e+003;6.088906e-002
2.852323e+003;6.221804e-002
2.854251e+003;6.350182e-002
2.856180e+003;6.470506e-002
2.858108e+003;6.567565e-002
2.860037e+003;6.647358e-002
2.861965e+003;6.734660e-002
2.863894e+003;6.861460e-002
2.865822e+003;6.966723e-002
2.867751e+003;7.014233e-002
2.869679e+003;7.086257e-002
2.871608e+003;7.161827e-002
2.873536e+003;7.248452e-002
2.875465e+003;7.336435e-002
2.877394e+003;7.375040e-002
2.879322e+003;7.434314e-002
2.881251e+003;7.499832e-002
2.883179e+003;7.540822e-002
2.885108e+003;7.575721e-002
2.887036e+003;7.609122e-002
2.888965e+003;7.628831e-002
2.890893e+003;7.610307e-002
2.892822e+003;7.601424e-002
2.894750e+003;7.636450e-002
2.896679e+003;7.650208e-002
2.898608e+003;7.638090e-002
2.900536e+003;7.624834e-002
2.902465e+003;7.612790e-002
2.904393e+003;7.587888e-002
2.906322e+003;7.543933e-002
2.908250e+003;7.480446e-002
2.910179e+003;7.424638e-002
2.912107e+003;7.345478e-002
2.914036e+003;7.255296e-002
2.915965e+003;7.174881e-002
2.917893e+003;7.066084e-002
2.919822e+003;7.008146e-002
2.921750e+003;6.990734e-002
2.923679e+003;6.957275e-002
2.925607e+003;6.917515e-002
2.927536e+003;6.903142e-002
2.929464e+003;6.879354e-002
2.931393e+003;6.836380e-002
2.933322e+003;6.816590e-002
2.935250e+003;6.795697e-002
2.937178e+003;6.743498e-002
2.939107e+003;6.686036e-002
2.941036e+003;6.656557e-002
2.942964e+003;6.567716e-002
2.944893e+003;6.470767e-002
2.946821e+003;6.374204e-002
2.948750e+003;6.247163e-002
2.950678e+003;6.191175e-002
2.952607e+003;6.121763e-002
2.954535e+003;6.038566e-002
2.956464e+003;5.977644e-002
2.958393e+003;5.891234e-002
2.960321e+003;5.794855e-002
2.962250e+003;5.756459e-002
2.964178e+003;5.738864e-002
2.966107e+003;5.683913e-002
2.968035e+003;5.634398e-002
2.969964e+003;5.588697e-002
2.971892e+003;5.517505e-002
2.973821e+003;5.483816e-002
2.975750e+003;5.445262e-002
2.977678e+003;5.353424e-002
2.979607e+003;5.279230e-002
2.981535e+003;5.217745e-002
2.983464e+003;5.151650e-002
2.985392e+003;5.126460e-002
2.987321e+003;5.132483e-002
2.989249e+003;5.089590e-002
2.991178e+003;5.040394e-002
2.993106e+003;5.019464e-002
2.995035e+003;4.987155e-002
2.996964e+003;4.979867e-002
2.998892e+003;5.011743e-002
3.000821e+003;5.009538e-002
3.002749e+003;4.964307e-002
3.004678e+003;4.940930e-002
3.006606e+003;4.965058e-002
3.008535e+003;4.973699e-002
3.010463e+003;4.985163e-002
3.012392e+003;4.995247e-002
3.014321e+003;5.002849e-002
3.016249e+003;5.027655e-002
3.018177e+003;5.020513e-002
3.020106e+003;5.013640e-002
3.022035e+003;5.012353e-002
3.023963e+003;5.017221e-002
3.025892e+003;5.039520e-002
3.027820e+003;5.082612e-002
3.029749e+003;5.141758e-002
3.031677e+003;5.205873e-002
3.033606e+003;5.226303e-002
3.035534e+003;5.193895e-002
3.037463e+003;5.217428e-002
3.039392e+003;5.269428e-002
3.041320e+003;5.313244e-002
3.043249e+003;5.318929e-002
3.045177e+003;5.337516e-002
3.047106e+003;5.377838e-002
3.049034e+003;5.438137e-002
3.050963e+003;5.480609e-002
3.052891e+003;5.496904e-002
3.054820e+003;5.535730e-002
3.056749e+003;5.592654e-002
3.058677e+003;5.624059e-002
3.060606e+003;5.658767e-002
3.062534e+003;5.704451e-002
3.064463e+003;5.745032e-002
3.066391e+003;5.756123e-002
3.068320e+003;5.759725e-002
3.070248e+003;5.815129e-002
3.072177e+003;5.878759e-002
3.074105e+003;5.895599e-002
3.076034e+003;5.902882e-002
3.077963e+003;5.982108e-002
3.079891e+003;6.082712e-002
3.081820e+003;6.131313e-002
3.083748e+003;6.131909e-002
3.085677e+003;6.116812e-002
3.087605e+003;6.135034e-002
3.089534e+003;6.202865e-002
3.091462e+003;6.303316e-002
3.093391e+003;6.381445e-002
3.095320e+003;6.388381e-002
3.097248e+003;6.405251e-002
3.099177e+003;6.447615e-002
3.101105e+003;6.505251e-002
3.103034e+003;6.593756e-002
3.104962e+003;6.640740e-002
3.106891e+003;6.644756e-002
3.108819e+003;6.650401e-002
3.110748e+003;6.689163e-002
3.112677e+003;6.766739e-002
3.114605e+003;6.812222e-002
3.116533e+003;6.854507e-002
3.118462e+003;6.900815e-002
3.120391e+003;6.943051e-002
3.122319e+003;6.973861e-002
3.124248e+003;7.016562e-002
3.126176e+003;7.053305e-002
3.128105e+003;7.092803e-002
3.130033e+003;7.153908e-002
3.131962e+003;7.205606e-002
3.133890e+003;7.270195e-002
3.135819e+003;7.343905e-002
3.137748e+003;7.357625e-002
3.139676e+003;7.391033e-002
3.141605e+003;7.466782e-002
3.143533e+003;7.525720e-002
3.145462e+003;7.539923e-002
3.147390e+003;7.549988e-002
3.149319e+003;7.609770e-002
3.151247e+003;7.658562e-002
3.153176e+003;7.713761e-002
3.155104e+003;7.759870e-002
3.157033e+003;7.782528e-002
3.158962e+003;7.794254e-002
3.160890e+003;7.812452e-002
3.162819e+003;7.887025e-002
3.164747e+003;7.952399e-002
3.166676e+003;7.984558e-002
3.168604e+003;8.045429e-002
3.170533e+003;8.104049e-002
3.172461e+003;8.134539e-002
3.174390e+003;8.183817e-002
3.176319e+003;8.246558e-002
3.178247e+003;8.265187e-002
3.180176e+003;8.292928e-002
3.182104e+003;8.320881e-002
3.184033e+003;8.321291e-002
3.185961e+003;8.387262e-002
3.187890e+003;8.500971e-002
3.189818e+003;8.580107e-002
3.191747e+003;8.641944e-002
3.193676e+003;8.719718e-002
3.195604e+003;8.767921e-002
3.197532e+003;8.788203e-002
3.199461e+003;8.809701e-002
3.201390e+003;8.850655e-002
3.203318e+003;8.886430e-002
3.205247e+003;8.928112e-002
3.207175e+003;8.951128e-002
3.209104e+003;8.977094e-002
3.211032e+003;9.044272e-002
3.212961e+003;9.101764e-002
3.214889e+003;9.117012e-002
3.216818e+003;9.134771e-002
3.218747e+003;9.186831e-002
3.220675e+003;9.240942e-002
3.222604e+003;9.287520e-002
3.224532e+003;9.339126e-002
3.226461e+003;9.413210e-002
3.228389e+003;9.470838e-002
3.230318e+003;9.491834e-002
3.232246e+003;9.525061e-002
3.234175e+003;9.600602e-002
3.236104e+003;9.696759e-002
3.238032e+003;9.739184e-002
3.239961e+003;9.748258e-002
3.241889e+003;9.747424e-002
3.243818e+003;9.759071e-002
3.245746e+003;9.789749e-002
3.247675e+003;9.865279e-002
3.249603e+003;9.943436e-002
3.251532e+003;9.983264e-002
3.253460e+003;1.001454e-001
3.255389e+003;1.005936e-001
3.257318e+003;1.011098e-001
3.259246e+003;1.018038e-001
3.261175e+003;1.022486e-001
3.263103e+003;1.023683e-001
3.265032e+003;1.022552e-001
3.266960e+003;1.025736e-001
3.268889e+003;1.033252e-001
3.270817e+003;1.037909e-001
3.272746e+003;1.036449e-001
3.274675e+003;1.034059e-001
3.276603e+003;1.039019e-001
3.278531e+003;1.044111e-001
3.280460e+003;1.044386e-001
3.282389e+003;1.044999e-001
3.284317e+003;1.046877e-001
3.286246e+003;1.047095e-001
3.288174e+003;1.045962e-001
3.290103e+003;1.048745e-001
3.292031e+003;1.049532e-001
3.293960e+003;1.051188e-001
3.295888e+003;1.050352e-001
3.297817e+003;1.049472e-001
3.299746e+003;1.056071e-001
3.301674e+003;1.062342e-001
3.303603e+003;1.056737e-001
3.305531e+003;1.054322e-001
3.307460e+003;1.057897e-001
3.309388e+003;1.058872e-001
3.311317e+003;1.058857e-001
3.313245e+003;1.060427e-001
3.315174e+003;1.063265e-001
3.317103e+003;1.068057e-001
3.319031e+003;1.074684e-001
3.320960e+003;1.075883e-001
3.322888e+003;1.071808e-001
3.324817e+003;1.073083e-001
3.326745e+003;1.070357e-001
3.328674e+003;1.063780e-001
3.330602e+003;1.062392e-001
3.332531e+003;1.064208e-001
3.334459e+003;1.066941e-001
3.336388e+003;1.070029e-001
3.338317e+003;1.069264e-001
3.340245e+003;1.067550e-001
3.342174e+003;1.063874e-001
3.344102e+003;1.060711e-001
3.346031e+003;1.057980e-001
3.347959e+003;1.052220e-001
3.349888e+003;1.049464e-001
3.351816e+003;1.052616e-001
3.353745e+003;1.054224e-001
3.355674e+003;1.050681e-001
3.357602e+003;1.048646e-001
3.359531e+003;1.046397e-001
3.361459e+003;1.040471e-001
3.363388e+003;1.034334e-001
3.365316e+003;1.031893e-001
3.367245e+003;1.035733e-001
3.369173e+003;1.037950e-001
3.371102e+003;1.034160e-001
3.373031e+003;1.029686e-001
3.374959e+003;1.028711e-001
3.376887e+003;1.028671e-001
3.378816e+003;1.029401e-001
3.380745e+003;1.026232e-001
3.382673e+003;1.018321e-001
3.384602e+003;1.016663e-001
3.386530e+003;1.022473e-001
3.388459e+003;1.020713e-001
3.390387e+003;1.013920e-001
3.392316e+003;1.010944e-001
3.394244e+003;1.005884e-001
3.396173e+003;9.984060e-002
3.398102e+003;9.983497e-002
3.400030e+003;1.000222e-001
3.401959e+003;9.961199e-002
3.403887e+003;9.924340e-002
3.405816e+003;9.914435e-002
3.407744e+003;9.855247e-002
3.409673e+003;9.787662e-002
3.411601e+003;9.764866e-002
3.413530e+003;9.743327e-002
3.415458e+003;9.662673e-002
3.417387e+003;9.611275e-002
3.419316e+003;9.539764e-002
3.421244e+003;9.491228e-002
3.423173e+003;9.462555e-002
3.425101e+003;9.450177e-002
3.427030e+003;9.430831e-002
3.428958e+003;9.367286e-002
3.430887e+003;9.306404e-002
3.432815e+003;9.276433e-002
3.434744e+003;9.238949e-002
3.436673e+003;9.226769e-002
3.438601e+003;9.180936e-002
3.440530e+003;9.118005e-002
3.442458e+003;9.062308e-002
3.444387e+003;9.077558e-002
3.446315e+003;9.071591e-002
3.448244e+003;8.983588e-002
3.450172e+003;8.928365e-002
3.452101e+003;8.873320e-002
3.454030e+003;8.811413e-002
3.455958e+003;8.784253e-002
3.457886e+003;8.712874e-002
3.459815e+003;8.667377e-002
3.461744e+003;8.640966e-002
3.463672e+003;8.557695e-002
3.465601e+003;8.498053e-002
3.467529e+003;8.441133e-002
3.469458e+003;8.359843e-002
3.471386e+003;8.298165e-002
3.473315e+003;8.285958e-002
3.475243e+003;8.269199e-002
3.477172e+003;8.226920e-002
3.479101e+003;8.144386e-002
3.481029e+003;8.051614e-002
3.482958e+003;7.977610e-002
3.484886e+003;7.869221e-002
3.486815e+003;7.781062e-002
3.488743e+003;7.765785e-002
3.490672e+003;7.726973e-002
3.492600e+003;7.667507e-002
3.494529e+003;7.610690e-002
3.496458e+003;7.538182e-002
3.498386e+003;7.416204e-002
3.500315e+003;7.322811e-002
3.502243e+003;7.290220e-002
3.504172e+003;7.270399e-002
3.506100e+003;7.240462e-002
3.508029e+003;7.156619e-002
3.509957e+003;7.059967e-002
3.511886e+003;7.008123e-002
3.513814e+003;6.895855e-002
3.515743e+003;6.779283e-002
3.517672e+003;6.755144e-002
3.519600e+003;6.729267e-002
3.521529e+003;6.629240e-002
3.523457e+003;6.567527e-002
3.525386e+003;6.512383e-002
3.527314e+003;6.445489e-002
3.529243e+003;6.384259e-002
3.531171e+003;6.282063e-002
3.533100e+003;6.161770e-002
3.535029e+003;6.085468e-002
3.536957e+003;6.056938e-002
3.538885e+003;6.043752e-002
3.540814e+003;5.962004e-002
3.542743e+003;5.813985e-002
3.544671e+003;5.674808e-002
3.546600e+003;5.606114e-002
3.548528e+003;5.558319e-002
3.550457e+003;5.473013e-002
3.552385e+003;5.396311e-002
3.554314e+003;5.373019e-002
3.556242e+003;5.326165e-002
3.558171e+003;5.262860e-002
3.560100e+003;5.166755e-002
3.562028e+003;5.060195e-002
3.563957e+003;4.939107e-002
3.565885e+003;4.805359e-002
3.567814e+003;4.717562e-002
3.569742e+003;4.709145e-002
3.571671e+003;4.709921e-002
3.573599e+003;4.634889e-002
3.575528e+003;4.536216e-002
3.577457e+003;4.450896e-002
3.579385e+003;4.379806e-002
3.581314e+003;4.354800e-002
3.583242e+003;4.292608e-002
3.585171e+003;4.115050e-002
3.587099e+003;3.971680e-002
3.589028e+003;3.966111e-002
3.590956e+003;3.968997e-002
3.592885e+003;3.876276e-002
3.594813e+003;3.802366e-002
3.596742e+003;3.752092e-002
3.598671e+003;3.715286e-002
3.600599e+003;3.645347e-002
3.602528e+003;3.566879e-002
3.604456e+003;3.513769e-002
3.606385e+003;3.412762e-002
3.608313e+003;3.284608e-002
3.610242e+003;3.289594e-002
3.612170e+003;3.283457e-002
3.614099e+003;3.277726e-002
3.616028e+003;3.250375e-002
3.617956e+003;3.068440e-002
3.619885e+003;2.945798e-002
3.621813e+003;2.991944e-002
3.623742e+003;3.020333e-002
3.625670e+003;2.902860e-002
3.627599e+003;2.652297e-002
3.629527e+003;2.636373e-002
3.631456e+003;2.767353e-002
3.633385e+003;2.788476e-002
3.635313e+003;2.821057e-002
3.637241e+003;2.820505e-002
3.639170e+003;2.788801e-002
3.641099e+003;2.744553e-002
3.643027e+003;2.690317e-002
3.644956e+003;2.566654e-002
3.646884e+003;2.396140e-002
3.648813e+003;2.305627e-002
3.650741e+003;2.374168e-002
3.652670e+003;2.502796e-002
3.654598e+003;2.481928e-002
3.656527e+003;2.420940e-002
3.658456e+003;2.438468e-002
3.660384e+003;2.455325e-002
3.662313e+003;2.436446e-002
3.664241e+003;2.432755e-002
3.666170e+003;2.407224e-002
3.668098e+003;2.218757e-002
3.670027e+003;2.039775e-002
3.671955e+003;2.096282e-002
3.673884e+003;1.958021e-002
3.675813e+003;1.857551e-002
3.677741e+003;2.142342e-002
3.679669e+003;2.335896e-002
3.681598e+003;2.340134e-002
3.683527e+003;2.283504e-002
3.685455e+003;2.215650e-002
3.687384e+003;2.053137e-002
3.689312e+003;2.008188e-002
3.691241e+003;2.134626e-002
3.693169e+003;2.269932e-002
3.695098e+003;2.262249e-002
3.697026e+003;2.229840e-002
3.698955e+003;2.229900e-002
3.700884e+003;2.194145e-002
3.702812e+003;2.187026e-002
3.704741e+003;2.258245e-002
3.706669e+003;2.246778e-002
3.708598e+003;2.143028e-002
3.710526e+003;2.054943e-002
3.712455e+003;2.065877e-002
3.714383e+003;2.162627e-002
3.716312e+003;2.189562e-002
3.718240e+003;2.207910e-002
3.720169e+003;2.188228e-002
3.722098e+003;2.162972e-002
3.724026e+003;2.155798e-002
3.725955e+003;2.154175e-002
3.727883e+003;2.214322e-002
3.729812e+003;2.186040e-002
3.731740e+003;2.041043e-002
3.733669e+003;1.982457e-002
3.735597e+003;1.970061e-002
3.737526e+003;2.107779e-002
3.739455e+003;2.167336e-002
3.741383e+003;2.042963e-002
3.743312e+003;1.757482e-002
3.745240e+003;1.816380e-002
3.747169e+003;1.956572e-002
3.749097e+003;1.778016e-002
3.751026e+003;1.730393e-002
3.752954e+003;1.925766e-002
3.754883e+003;2.185904e-002
3.756812e+003;2.199112e-002
3.758740e+003;2.153162e-002
3.760668e+003;2.162714e-002
3.762597e+003;2.169516e-002
3.764526e+003;2.150373e-002
3.766454e+003;2.158295e-002
3.768383e+003;2.106642e-002
3.770311e+003;2.142690e-002
3.772240e+003;2.196107e-002
3.774168e+003;2.211822e-002
3.776097e+003;2.201015e-002
3.778025e+003;2.144072e-002
3.779954e+003;2.161788e-002
3.781883e+003;2.286365e-002
3.783811e+003;2.297193e-002
3.785740e+003;2.258280e-002
3.787668e+003;2.232121e-002
3.789597e+003;2.214259e-002
3.791525e+003;2.212801e-002
3.793454e+003;2.212407e-002
3.795382e+003;2.214510e-002
3.797311e+003;2.213987e-002
3.799240e+003;2.042870e-002
3.801168e+003;1.916671e-002
3.803097e+003;2.122345e-002
3.805025e+003;2.193270e-002
3.806954e+003;2.114813e-002
3.808882e+003;2.224427e-002
3.810811e+003;2.276817e-002
3.812739e+003;2.216693e-002
3.814668e+003;2.009330e-002
3.816596e+003;2.005843e-002
3.818525e+003;2.089001e-002
3.820454e+003;1.985003e-002
3.822382e+003;2.066885e-002
3.824311e+003;2.189228e-002
3.826239e+003;2.199523e-002
3.828168e+003;2.234162e-002
3.830096e+003;2.213673e-002
3.832025e+003;2.193208e-002
3.833953e+003;2.152584e-002
3.835882e+003;2.002848e-002
3.837811e+003;1.946688e-002
3.839739e+003;2.111609e-002
3.841667e+003;2.201189e-002
3.843596e+003;2.203329e-002
3.845525e+003;2.221934e-002
3.847453e+003;2.258964e-002
3.849382e+003;2.162798e-002
3.851310e+003;1.837094e-002
3.853239e+003;1.605521e-002
3.855167e+003;1.875022e-002
3.857096e+003;2.196013e-002
3.859024e+003;2.294080e-002
3.860953e+003;2.299907e-002
3.862882e+003;2.217896e-002
3.864810e+003;2.116869e-002
3.866739e+003;2.155223e-002
3.868667e+003;2.074426e-002
3.870596e+003;2.098650e-002
3.872524e+003;2.245260e-002
3.874453e+003;2.293109e-002
3.876381e+003;2.327138e-002
3.878310e+003;2.282607e-002
3.880239e+003;2.225132e-002
3.882167e+003;2.238777e-002
3.884096e+003;2.198188e-002
3.886024e+003;2.181134e-002
3.887953e+003;2.268288e-002
3.889881e+003;2.248781e-002
3.891810e+003;2.218485e-002
3.893738e+003;2.281940e-002
3.895667e+003;2.302206e-002
3.897595e+003;2.246680e-002
3.899524e+003;2.200600e-002
3.901453e+003;2.192221e-002
3.903381e+003;2.165235e-002
3.905310e+003;2.194790e-002
3.907238e+003;2.297399e-002
3.909167e+003;2.361057e-002
3.911095e+003;2.385725e-002
3.913024e+003;2.394253e-002
3.914952e+003;2.372919e-002
3.916881e+003;2.326369e-002
3.918810e+003;2.346768e-002
3.920738e+003;2.362950e-002
3.922667e+003;2.351591e-002
3.924595e+003;2.326103e-002
3.926524e+003;2.327662e-002
3.928452e+003;2.297783e-002
3.930381e+003;2.257792e-002
3.932309e+003;2.284056e-002
3.934238e+003;2.331225e-002
3.936167e+003;2.361281e-002
3.938095e+003;2.350755e-002
3.940023e+003;2.323684e-002
3.941952e+003;2.331669e-002
3.943881e+003;2.315450e-002
3.945809e+003;2.320332e-002
3.947738e+003;2.343459e-002
3.949666e+003;2.374595e-002
3.951595e+003;2.462777e-002
3.953523e+003;2.481798e-002
3.955452e+003;2.394908e-002
3.957380e+003;2.333980e-002
3.959309e+003;2.367747e-002
3.961238e+003;2.438040e-002
3.963166e+003;2.449208e-002
3.965095e+003;2.436730e-002
3.967023e+003;2.420541e-002
3.968952e+003;2.453376e-002
3.970880e+003;2.483457e-002
3.972809e+003;2.441345e-002
3.974737e+003;2.350668e-002
3.976666e+003;2.329973e-002
3.978594e+003;2.343222e-002
3.980523e+003;2.391165e-002
3.982452e+003;2.405024e-002
3.984380e+003;2.405690e-002
3.986309e+003;2.464653e-002
3.988237e+003;2.507960e-002
3.990166e+003;2.452949e-002
3.992094e+003;2.401613e-002
3.994023e+003;2.423092e-002
3.995951e+003;2.442579e-002
3.997880e+003;2.484948e-002
3.999809e+003;2.466659e-002
4.001737e+003;0.000000e+000
