3.992094e+002;0.000000e+000
4.011380e+002;0.000000e+000
4.030665e+002;0.000000e+000
4.049951e+002;0.000000e+000
4.069236e+002;0.000000e+000
4.088522e+002;0.000000e+000
4.107807e+002;0.000000e+000
4.127093e+002;0.000000e+000
4.146378e+002;0.000000e+000
4.165664e+002;0.000000e+000
4.184949e+002;0.000000e+000
4.204235e+002;0.000000e+000
4.223520e+002;0.000000e+000
4.242806e+002;0.000000e+000
4.262091e+002;0.000000e+000
4.281377e+002;0.000000e+000
4.300662e+002;0.000000e+000
4.319948e+002;0.000000e+000
4.339233e+002;0.000000e+000
4.358519e+002;0.000000e+000
4.377804e+002;0.000000e+000
4.397090e+002;0.000000e+000
4.416375e+002;0.000000e+000
4.435660e+002;0.000000e+000
4.454946e+002;0.000000e+000
4.474232e+002;0.000000e+000
4.493517e+002;0.000000e+000
4.512802e+002;0.000000e+000
4.532088e+002;0.000000e+000
4.551373e+002;0.000000e+000
4.570659e+002;0.000000e+000
4.589944e+002;0.000000e+000
4.609230e+002;0.000000e+000
4.628515e+002;0.000000e+000
4.647801e+002;0.000000e+000
4.667086e+002;0.000000e+000
4.686372e+002;0.000000e+000
4.705657e+002;0.000000e+000
4.724943e+002;0.000000e+000
4.744228e+002;0.000000e+000
4.763513e+002;0.000000e+000
4.782799e+002;0.000000e+000
4.802085e+002;0.000000e+000
4.821370e+002;0.000000e+000
4.840656e+002;0.000000e+000
4.859941e+002;0.000000e+000
4.879226e+002;0.000000e+000
4.898512e+002;0.000000e+000
4.917798e+002;0.000000e+000
4.937083e+002;0.000000e+000
4.956368e+002;0.000000e+000
4.975654e+002;0.000000e+000
4.994939e+002;0.000000e+000
5.014225e+002;0.000000e+000
5.033510e+002;0.000000e+000
5.052796e+002;0.000000e+000
5.072081e+002;0.000000e+000
5.091367e+002;0.000000e+000
5.110652e+002;0.000000e+000
5.129938e+002;0.000000e+000
5.149223e+002;0.000000e+000
5.168509e+002;0.000000e+000
5.187794e+002;0.000000e+000
5.207079e+002;0.000000e+000
5.226365e+002;0.000000e+000
5.245651e+002;0.000000e+000
5.264936e+002;0.000000e+000
5.284222e+002;0.000000e+000
5.303507e+002;0.000000e+000
5.322792e+002;0.000000e+000
5.342078e+002;0.000000e+000
5.361364e+002;0.000000e+000
5.380649e+002;0.000000e+000
5.399935e+002;0.000000e+000
5.419220e+002;0.000000e+000
5.438505e+002;0.000000e+000
5.457791e+002;0.000000e+000
5.477076e+002;0.000000e+000
5.496362e+002;0.000000e+000
5.515648e+002;0.000000e+000
5.534933e+002;0.000000e+000
5.554218e+002;0.000000e+000
5.573504e+002;0.000000e+000
5.592789e+002;0.000000e+000
5.612075e+002;0.000000e+000
5.631360e+002;0.000000e+000
5.650646e+002;0.000000e+000
5.669931e+002;0.000000e+000
5.689217e+002;0.000000e+000
5.708502e+002;0.000000e+000
5.727787e+002;0.000000e+000
5.747073e+002;0.000000e+000
5.766359e+002;0.000000e+000
5.785644e+002;0.000000e+000
5.804930e+002;0.000000e+000
5.824215e+002;0.000000e+000
5.843500e+002;0.000000e+000
5.862786e+002;0.000000e+000
5.882072e+002;0.000000e+000
5.901357e+002;0.000000e+000
5.920643e+002;0.000000e+000
5.939928e+002;0.000000e+000
5.959213e+002;0.000000e+000
5.978499e+002;0.000000e+000
5.997784e+002;2.110458e-001
6.017070e+002;2.156272e-001
6.036355e+002;2.138235e-001
6.055641e+002;2.149172e-001
6.074926e+002;2.094334e-001
6.094211e+002;2.010563e-001
6.113497e+002;2.021246e-001
6.132783e+002;2.003280e-001
6.152068e+002;1.944712e-001
6.171354e+002;1.907863e-001
6.190639e+002;1.937424e-001
6.209924e+002;1.941166e-001
6.229210e+002;1.900902e-001
6.248495e+002;1.843539e-001
6.267781e+002;1.829207e-001
6.287067e+002;1.828722e-001
6.306352e+002;1.837439e-001
6.325637e+002;1.826816e-001
6.344923e+002;1.769145e-001
6.364208e+002;1.775915e-001
6.383494e+002;1.773710e-001
6.402780e+002;1.758954e-001
6.422065e+002;1.759242e-001
6.441350e+002;1.741772e-001
6.460636e+002;1.693121e-001
6.479921e+002;1.693418e-001
6.499207e+002;1.721125e-001
6.518492e+002;1.737504e-001
6.537778e+002;1.769357e-001
6.557063e+002;1.801825e-001
6.576349e+002;1.799997e-001
6.595634e+002;1.799908e-001
6.614919e+002;1.822794e-001
6.634205e+002;1.808234e-001
6.653491e+002;1.779149e-001
6.672776e+002;1.761001e-001
6.692062e+002;1.746210e-001
6.711347e+002;1.734692e-001
6.730632e+002;1.711435e-001
6.749918e+002;1.651719e-001
6.769203e+002;1.592365e-001
6.788489e+002;1.554385e-001
6.807775e+002;1.546014e-001
6.827060e+002;1.528947e-001
6.846345e+002;1.515042e-001
6.865631e+002;1.515762e-001
6.884916e+002;1.502031e-001
6.904202e+002;1.481177e-001
6.923488e+002;1.486008e-001
6.942773e+002;1.491344e-001
6.962058e+002;1.490807e-001
6.981344e+002;1.479754e-001
7.000629e+002;1.471240e-001
7.019915e+002;1.445680e-001
7.039200e+002;1.417932e-001
7.058486e+002;1.406812e-001
7.077771e+002;1.393680e-001
7.097057e+002;1.392460e-001
7.116342e+002;1.384518e-001
7.135627e+002;1.371649e-001
7.154913e+002;1.366245e-001
7.174199e+002;1.353976e-001
7.193484e+002;1.338770e-001
7.212770e+002;1.308981e-001
7.232055e+002;1.278594e-001
7.251340e+002;1.255227e-001
7.270626e+002;1.247394e-001
7.289911e+002;1.235086e-001
7.309197e+002;1.214467e-001
7.328483e+002;1.202574e-001
7.347768e+002;1.203125e-001
7.367053e+002;1.207915e-001
7.386339e+002;1.189089e-001
7.405624e+002;1.158222e-001
7.424910e+002;1.140204e-001
7.444196e+002;1.148736e-001
7.463481e+002;1.153998e-001
7.482766e+002;1.134214e-001
7.502052e+002;1.134498e-001
7.521337e+002;1.136469e-001
7.540623e+002;1.128179e-001
7.559908e+002;1.119729e-001
7.579194e+002;1.112060e-001
7.598479e+002;1.096555e-001
7.617765e+002;1.085317e-001
7.637050e+002;1.086035e-001
7.656335e+002;1.089362e-001
7.675621e+002;1.092506e-001
7.694907e+002;1.087263e-001
7.714192e+002;1.077474e-001
7.733478e+002;1.070313e-001
7.752763e+002;1.065458e-001
7.772048e+002;1.070220e-001
7.791334e+002;1.073194e-001
7.810620e+002;1.072652e-001
7.829905e+002;1.072268e-001
7.849191e+002;1.061902e-001
7.868476e+002;1.052069e-001
7.887761e+002;1.046047e-001
7.907047e+002;1.038445e-001
7.926332e+002;1.031418e-001
7.945618e+002;1.024772e-001
7.964903e+002;1.020215e-001
7.984189e+002;1.016990e-001
8.003474e+002;1.019115e-001
8.022759e+002;1.026511e-001
8.042045e+002;1.023689e-001
8.061331e+002;1.016349e-001
8.080616e+002;1.015934e-001
8.099902e+002;1.018102e-001
8.119187e+002;1.018068e-001
8.138472e+002;1.018014e-001
8.157758e+002;1.026595e-001
8.177043e+002;1.032814e-001
8.196329e+002;1.038183e-001
8.215615e+002;1.042082e-001
8.234900e+002;1.045939e-001
8.254185e+002;1.056007e-001
8.273471e+002;1.067695e-001
8.292756e+002;1.072957e-001
8.312042e+002;1.079379e-001
8.331328e+002;1.079445e-001
8.350613e+002;1.069202e-001
8.369898e+002;1.067369e-001
8.389184e+002;1.065043e-001
8.408469e+002;1.066220e-001
8.427755e+002;1.076485e-001
8.447040e+002;1.076356e-001
8.466326e+002;1.072828e-001
8.485611e+002;1.068946e-001
8.504897e+002;1.071518e-001
8.524182e+002;1.084000e-001
8.543467e+002;1.094664e-001
8.562753e+002;1.091577e-001
8.582039e+002;1.097212e-001
8.601324e+002;1.119012e-001
8.620610e+002;1.137609e-001
8.639895e+002;1.148839e-001
8.659180e+002;1.167816e-001
8.678466e+002;1.192318e-001
8.697751e+002;1.214874e-001
8.717037e+002;1.228392e-001
8.736323e+002;1.237818e-001
8.755608e+002;1.256547e-001
8.774893e+002;1.273171e-001
8.794179e+002;1.286763e-001
8.813464e+002;1.306324e-001
8.832750e+002;1.328458e-001
8.852036e+002;1.355816e-001
8.871321e+002;1.386380e-001
8.890606e+002;1.411927e-001
8.909892e+002;1.432050e-001
8.929177e+002;1.446920e-001
8.948463e+002;1.458945e-001
8.967748e+002;1.471828e-001
8.987034e+002;1.476446e-001
9.006319e+002;1.468851e-001
9.025605e+002;1.452053e-001
9.044890e+002;1.433735e-001
9.064175e+002;1.424468e-001
9.083461e+002;1.418431e-001
9.102747e+002;1.416350e-001
9.122032e+002;1.415300e-001
9.141318e+002;1.414790e-001
9.160603e+002;1.417835e-001
9.179888e+002;1.425945e-001
9.199174e+002;1.434786e-001
9.218459e+002;1.441876e-001
9.237745e+002;1.454339e-001
9.257031e+002;1.466279e-001
9.276316e+002;1.474444e-001
9.295601e+002;1.489799e-001
9.314887e+002;1.510634e-001
9.334172e+002;1.532131e-001
9.353458e+002;1.553402e-001
9.372744e+002;1.575067e-001
9.392029e+002;1.593963e-001
9.411314e+002;1.619502e-001
9.430600e+002;1.654870e-001
9.449885e+002;1.688713e-001
9.469171e+002;1.723137e-001
9.488456e+002;1.762950e-001
9.507742e+002;1.808587e-001
9.527027e+002;1.859457e-001
9.546313e+002;1.907893e-001
9.565598e+002;1.962450e-001
9.584883e+002;2.017432e-001
9.604169e+002;2.073482e-001
9.623455e+002;2.129963e-001
9.642740e+002;2.191573e-001
9.662026e+002;2.264647e-001
9.681311e+002;2.335503e-001
9.700596e+002;2.404796e-001
9.719882e+002;2.485451e-001
9.739167e+002;2.577708e-001
9.758453e+002;2.674300e-001
9.777739e+002;2.769711e-001
9.797024e+002;2.859439e-001
9.816309e+002;2.940888e-001
9.835595e+002;3.006950e-001
9.854880e+002;3.054743e-001
9.874166e+002;3.084635e-001
9.893452e+002;3.110617e-001
9.912737e+002;3.137427e-001
9.932022e+002;3.161321e-001
9.951307e+002;3.183437e-001
9.970593e+002;3.208730e-001
9.989879e+002;3.241250e-001
1.000916e+003;3.280623e-001
1.002845e+003;3.315719e-001
1.004773e+003;3.341230e-001
1.006702e+003;3.360870e-001
1.008631e+003;3.382911e-001
1.010559e+003;3.411683e-001
1.012488e+003;3.442367e-001
1.014416e+003;3.471216e-001
1.016345e+003;3.501980e-001
1.018273e+003;3.537793e-001
1.020202e+003;3.569789e-001
1.022130e+003;3.601626e-001
1.024059e+003;3.629185e-001
1.025988e+003;3.640060e-001
1.027916e+003;3.652347e-001
1.029845e+003;3.665020e-001
1.031773e+003;3.653590e-001
1.033702e+003;3.631954e-001
1.035630e+003;3.603590e-001
1.037559e+003;3.566256e-001
1.039487e+003;3.528803e-001
1.041416e+003;3.495112e-001
1.043344e+003;3.462660e-001
1.045273e+003;3.427554e-001
1.047202e+003;3.396997e-001
1.049130e+003;3.362643e-001
1.051059e+003;3.310259e-001
1.052987e+003;3.244748e-001
1.054916e+003;3.177574e-001
1.056844e+003;3.098706e-001
1.058773e+003;2.990754e-001
1.060701e+003;2.868088e-001
1.062630e+003;2.748557e-001
1.064558e+003;2.634310e-001
1.066487e+003;2.527716e-001
1.068416e+003;2.436858e-001
1.070344e+003;2.370888e-001
1.072273e+003;2.322650e-001
1.074201e+003;2.275060e-001
1.076130e+003;2.232446e-001
1.078058e+003;2.202020e-001
1.079987e+003;2.176716e-001
1.081915e+003;2.159501e-001
1.083844e+003;2.146791e-001
1.085773e+003;2.129607e-001
1.087701e+003;2.117828e-001
1.089630e+003;2.117122e-001
1.091558e+003;2.113612e-001
1.093487e+003;2.119446e-001
1.095415e+003;2.134868e-001
1.097344e+003;2.150512e-001
1.099272e+003;2.153234e-001
1.101201e+003;2.140287e-001
1.103129e+003;2.117972e-001
1.105058e+003;2.097114e-001
1.106987e+003;2.059937e-001
1.108915e+003;1.999860e-001
1.110844e+003;1.934186e-001
1.112772e+003;1.865566e-001
1.114701e+003;1.805451e-001
1.116629e+003;1.747941e-001
1.118558e+003;1.694842e-001
1.120486e+003;1.649378e-001
1.122415e+003;1.602894e-001
1.124344e+003;1.550241e-001
1.126272e+003;1.495544e-001
1.128201e+003;1.445615e-001
1.130129e+003;1.391966e-001
1.132058e+003;1.341536e-001
1.133986e+003;1.306319e-001
1.135915e+003;1.277650e-001
1.137843e+003;1.253938e-001
1.139772e+003;1.237837e-001
1.141700e+003;1.225195e-001
1.143629e+003;1.218664e-001
1.145557e+003;1.216116e-001
1.147486e+003;1.210235e-001
1.149415e+003;1.199447e-001
1.151343e+003;1.188495e-001
1.153272e+003;1.174476e-001
1.155200e+003;1.151820e-001
1.157129e+003;1.131382e-001
1.159057e+003;1.111308e-001
1.160986e+003;1.089884e-001
1.162914e+003;1.066236e-001
1.164843e+003;1.031457e-001
1.166771e+003;9.973412e-002
1.168700e+003;9.738189e-002
1.170629e+003;9.497260e-002
1.172557e+003;9.215760e-002
1.174486e+003;8.941051e-002
1.176414e+003;8.756813e-002
1.178343e+003;8.699833e-002
1.180271e+003;8.662637e-002
1.182200e+003;8.665213e-002
1.184128e+003;8.719557e-002
1.186057e+003;8.810370e-002
1.187986e+003;8.977493e-002
1.189914e+003;9.216711e-002
1.191843e+003;9.447545e-002
1.193771e+003;9.643836e-002
1.195700e+003;9.877078e-002
1.197628e+003;1.015709e-001
1.199557e+003;1.036472e-001
1.201485e+003;1.054633e-001
1.203414e+003;1.069123e-001
1.205343e+003;1.080460e-001
1.207271e+003;1.091366e-001
1.209200e+003;1.102049e-001
1.211128e+003;1.116156e-001
1.213057e+003;1.132663e-001
1.214985e+003;1.154947e-001
1.216914e+003;1.189781e-001
1.218842e+003;1.228347e-001
1.220771e+003;1.268114e-001
1.222699e+003;1.304545e-001
1.224628e+003;1.332118e-001
1.226557e+003;1.359118e-001
1.228485e+003;1.382348e-001
1.230414e+003;1.400871e-001
1.232342e+003;1.413633e-001
1.234271e+003;1.423241e-001
1.236199e+003;1.430717e-001
1.238128e+003;1.430055e-001
1.240056e+003;1.425548e-001
1.241985e+003;1.421314e-001
1.243913e+003;1.413072e-001
1.245842e+003;1.398207e-001
1.247771e+003;1.380971e-001
1.249699e+003;1.366341e-001
1.251628e+003;1.352039e-001
1.253556e+003;1.334915e-001
1.255485e+003;1.313473e-001
1.257413e+003;1.289717e-001
1.259342e+003;1.266373e-001
1.261270e+003;1.243235e-001
1.263199e+003;1.220882e-001
1.265127e+003;1.202716e-001
1.267056e+003;1.186644e-001
1.268985e+003;1.164359e-001
1.270913e+003;1.141760e-001
1.272842e+003;1.120359e-001
1.274770e+003;1.099157e-001
1.276699e+003;1.081382e-001
1.278627e+003;1.064770e-001
1.280556e+003;1.045462e-001
1.282484e+003;1.024009e-001
1.284413e+003;1.006701e-001
1.286342e+003;9.952644e-002
1.288270e+003;9.877465e-002
1.290199e+003;9.790135e-002
1.292127e+003;9.724463e-002
1.294056e+003;9.717840e-002
1.295984e+003;9.759116e-002
1.297913e+003;9.837464e-002
1.299841e+003;9.969410e-002
1.301770e+003;1.014844e-001
1.303698e+003;1.039088e-001
1.305627e+003;1.066220e-001
1.307556e+003;1.093960e-001
1.309484e+003;1.121354e-001
1.311413e+003;1.144947e-001
1.313341e+003;1.162787e-001
1.315270e+003;1.175820e-001
1.317198e+003;1.178778e-001
1.319127e+003;1.173966e-001
1.321055e+003;1.162079e-001
1.322984e+003;1.148143e-001
1.324912e+003;1.136759e-001
1.326841e+003;1.125176e-001
1.328770e+003;1.118258e-001
1.330698e+003;1.118718e-001
1.332627e+003;1.114757e-001
1.334555e+003;1.103175e-001
1.336484e+003;1.087925e-001
1.338412e+003;1.071415e-001
1.340341e+003;1.054709e-001
1.342269e+003;1.038201e-001
1.344198e+003;1.021577e-001
1.346126e+003;1.004155e-001
1.348055e+003;9.925901e-002
1.349984e+003;9.916258e-002
1.351912e+003;9.942545e-002
1.353841e+003;9.973153e-002
1.355769e+003;1.006902e-001
1.357698e+003;1.024853e-001
1.359626e+003;1.038375e-001
1.361555e+003;1.046006e-001
1.363483e+003;1.053134e-001
1.365412e+003;1.060292e-001
1.367341e+003;1.059130e-001
1.369269e+003;1.049966e-001
1.371198e+003;1.039741e-001
1.373126e+003;1.022085e-001
1.375055e+003;9.977055e-002
1.376983e+003;9.715768e-002
1.378912e+003;9.448744e-002
1.380840e+003;9.163526e-002
1.382769e+003;8.872430e-002
1.384698e+003;8.591574e-002
1.386626e+003;8.337989e-002
1.388555e+003;8.157006e-002
1.390483e+003;8.008415e-002
1.392412e+003;7.866099e-002
1.394340e+003;7.755809e-002
1.396269e+003;7.708383e-002
1.398197e+003;7.703758e-002
1.400126e+003;7.738660e-002
1.402054e+003;7.752466e-002
1.403983e+003;7.768289e-002
1.405911e+003;7.851920e-002
1.407840e+003;7.953382e-002
1.409769e+003;8.072263e-002
1.411697e+003;8.213723e-002
1.413626e+003;8.392077e-002
1.415554e+003;8.583903e-002
1.417483e+003;8.709056e-002
1.419411e+003;8.805463e-002
1.421340e+003;8.942175e-002
1.423268e+003;8.998085e-002
1.425197e+003;8.925153e-002
1.427125e+003;8.771133e-002
1.429054e+003;8.614134e-002
1.430983e+003;8.461178e-002
1.432911e+003;8.270369e-002
1.434840e+003;8.073855e-002
1.436768e+003;7.913774e-002
1.438697e+003;7.858225e-002
1.440625e+003;7.895298e-002
1.442554e+003;7.918561e-002
1.444482e+003;7.942317e-002
1.446411e+003;7.987525e-002
1.448340e+003;8.012427e-002
1.450268e+003;8.068907e-002
1.452197e+003;8.113961e-002
1.454125e+003;8.110910e-002
1.456054e+003;8.037809e-002
1.457982e+003;7.989756e-002
1.459911e+003;7.983097e-002
1.461839e+003;7.857991e-002
1.463768e+003;7.653266e-002
1.465697e+003;7.448720e-002
1.467625e+003;7.223304e-002
1.469554e+003;6.970640e-002
1.471482e+003;6.657750e-002
1.473411e+003;6.352947e-002
1.475339e+003;6.125174e-002
1.477268e+003;5.953270e-002
1.479196e+003;5.772616e-002
1.481125e+003;5.593313e-002
1.483053e+003;5.460210e-002
1.484982e+003;5.344309e-002
1.486911e+003;5.237605e-002
1.488839e+003;5.141553e-002
1.490768e+003;5.097071e-002
1.492696e+003;5.154433e-002
1.494625e+003;5.201282e-002
1.496553e+003;5.238087e-002
1.498482e+003;5.342938e-002
1.500410e+003;5.452843e-002
1.502339e+003;5.544500e-002
1.504267e+003;5.521885e-002
1.506196e+003;5.371838e-002
1.508125e+003;5.311514e-002
1.510053e+003;5.283563e-002
1.511982e+003;5.173234e-002
1.513910e+003;5.022867e-002
1.515839e+003;4.841541e-002
1.517767e+003;4.657387e-002
1.519696e+003;4.472222e-002
1.521624e+003;4.283326e-002
1.523553e+003;4.151813e-002
1.525481e+003;4.032286e-002
1.527410e+003;3.951963e-002
1.529339e+003;3.923941e-002
1.531267e+003;3.877283e-002
1.533196e+003;3.825974e-002
1.535124e+003;3.847365e-002
1.537053e+003;3.839622e-002
1.538981e+003;3.713633e-002
1.540910e+003;3.664731e-002
1.542838e+003;3.742954e-002
1.544767e+003;3.806109e-002
1.546695e+003;3.848853e-002
1.548624e+003;3.883783e-002
1.550553e+003;3.946995e-002
1.552481e+003;3.977937e-002
1.554410e+003;4.016430e-002
1.556338e+003;4.023703e-002
1.558267e+003;3.976662e-002
1.560195e+003;4.068379e-002
1.562124e+003;4.253164e-002
1.564052e+003;4.381855e-002
1.565981e+003;4.498439e-002
1.567910e+003;4.558501e-002
1.569838e+003;4.644442e-002
1.571767e+003;4.820207e-002
1.573695e+003;4.980090e-002
1.575624e+003;5.151311e-002
1.577552e+003;5.402532e-002
1.579481e+003;5.676065e-002
1.581409e+003;5.938873e-002
1.583338e+003;6.196574e-002
1.585266e+003;6.429737e-002
1.587195e+003;6.642960e-002
1.589124e+003;6.830826e-002
1.591052e+003;6.976409e-002
1.592981e+003;7.095733e-002
1.594909e+003;7.174888e-002
1.596838e+003;7.183254e-002
1.598766e+003;7.133184e-002
1.600695e+003;7.089565e-002
1.602623e+003;7.065756e-002
1.604552e+003;6.991232e-002
1.606480e+003;6.919159e-002
1.608409e+003;6.875685e-002
1.610338e+003;6.859031e-002
1.612266e+003;6.824414e-002
1.614195e+003;6.758478e-002
1.616123e+003;6.689993e-002
1.618052e+003;6.691783e-002
1.619980e+003;6.718567e-002
1.621909e+003;6.679419e-002
1.623837e+003;6.627395e-002
1.625766e+003;6.618325e-002
1.627694e+003;6.637698e-002
1.629623e+003;6.631409e-002
1.631552e+003;6.587366e-002
1.633480e+003;6.525069e-002
1.635409e+003;6.485219e-002
1.637337e+003;6.503549e-002
1.639266e+003;6.524079e-002
1.641194e+003;6.523964e-002
1.643123e+003;6.498627e-002
1.645051e+003;6.426825e-002
1.646980e+003;6.385057e-002
1.648909e+003;6.440181e-002
1.650837e+003;6.410692e-002
1.652766e+003;6.312020e-002
1.654694e+003;6.342375e-002
1.656623e+003;6.391774e-002
1.658551e+003;6.390581e-002
1.660480e+003;6.386339e-002
1.662408e+003;6.362993e-002
1.664337e+003;6.346865e-002
1.666266e+003;6.324824e-002
1.668194e+003;6.238517e-002
1.670123e+003;6.171726e-002
1.672051e+003;6.179668e-002
1.673980e+003;6.165123e-002
1.675908e+003;6.133011e-002
1.677837e+003;6.137076e-002
1.679765e+003;6.131680e-002
1.681694e+003;6.072479e-002
1.683622e+003;5.954228e-002
1.685551e+003;5.970504e-002
1.687479e+003;6.065190e-002
1.689408e+003;6.109176e-002
1.691337e+003;6.156784e-002
1.693265e+003;6.161774e-002
1.695194e+003;6.146858e-002
1.697122e+003;6.260327e-002
1.699051e+003;6.380869e-002
1.700979e+003;6.520067e-002
1.702908e+003;6.725425e-002
1.704836e+003;6.912686e-002
1.706765e+003;7.136030e-002
1.708693e+003;7.361240e-002
1.710622e+003;7.544126e-002
1.712551e+003;7.727496e-002
1.714479e+003;7.878071e-002
1.716408e+003;8.013212e-002
1.718336e+003;8.212046e-002
1.720265e+003;8.441877e-002
1.722193e+003;8.590852e-002
1.724122e+003;8.679993e-002
1.726050e+003;8.746604e-002
1.727979e+003;8.795222e-002
1.729908e+003;8.833060e-002
1.731836e+003;8.821943e-002
1.733765e+003;8.731644e-002
1.735693e+003;8.692931e-002
1.737622e+003;8.654665e-002
1.739550e+003;8.502099e-002
1.741479e+003;8.303624e-002
1.743407e+003;8.081880e-002
1.745336e+003;7.842001e-002
1.747265e+003;7.587904e-002
1.749193e+003;7.295837e-002
1.751122e+003;7.006196e-002
1.753050e+003;6.756979e-002
1.754979e+003;6.487554e-002
1.756907e+003;6.190315e-002
1.758836e+003;5.892893e-002
1.760764e+003;5.561490e-002
1.762693e+003;5.259923e-002
1.764621e+003;4.991147e-002
1.766550e+003;4.693376e-002
1.768479e+003;4.426688e-002
1.770407e+003;4.185893e-002
1.772336e+003;3.948668e-002
1.774264e+003;3.794551e-002
1.776193e+003;3.651910e-002
1.778121e+003;3.503826e-002
1.780050e+003;3.343912e-002
1.781978e+003;3.181643e-002
1.783907e+003;3.046107e-002
1.785835e+003;2.932212e-002
1.787764e+003;2.831743e-002
1.789693e+003;2.692527e-002
1.791621e+003;2.567505e-002
1.793550e+003;2.496296e-002
1.795478e+003;2.441762e-002
1.797407e+003;2.385249e-002
1.799335e+003;2.297867e-002
1.801264e+003;2.192877e-002
1.803192e+003;2.125344e-002
1.805121e+003;2.085466e-002
1.807049e+003;2.029942e-002
1.808978e+003;1.974142e-002
1.810907e+003;1.954804e-002
1.812835e+003;1.926535e-002
1.814764e+003;1.863631e-002
1.816692e+003;1.813955e-002
1.818621e+003;1.768293e-002
1.820549e+003;1.697038e-002
1.822478e+003;1.653114e-002
1.824406e+003;1.625639e-002
1.826335e+003;1.613959e-002
1.828264e+003;1.621594e-002
1.830192e+003;1.606982e-002
1.832121e+003;1.583539e-002
1.834049e+003;1.562935e-002
1.835978e+003;1.547485e-002
1.837906e+003;1.514038e-002
1.839835e+003;1.489805e-002
1.841763e+003;1.477616e-002
1.843692e+003;1.433916e-002
1.845620e+003;1.413541e-002
1.847549e+003;1.425835e-002
1.849478e+003;1.462730e-002
1.851406e+003;1.460232e-002
1.853335e+003;1.451790e-002
1.855263e+003;1.451793e-002
1.857192e+003;1.419296e-002
1.859120e+003;1.382009e-002
1.861049e+003;1.366093e-002
1.862977e+003;1.351441e-002
1.864906e+003;1.333369e-002
1.866834e+003;1.309394e-002
1.868763e+003;1.316460e-002
1.870692e+003;1.347599e-002
1.872620e+003;1.345938e-002
1.874549e+003;1.331620e-002
1.876477e+003;1.330537e-002
1.878406e+003;1.315244e-002
1.880334e+003;1.309052e-002
1.882263e+003;1.302852e-002
1.884191e+003;1.296252e-002
1.886120e+003;1.294382e-002
1.888048e+003;1.289033e-002
1.889977e+003;1.305382e-002
1.891906e+003;1.348757e-002
1.893834e+003;1.340237e-002
1.895763e+003;1.319503e-002
1.897691e+003;1.335122e-002
1.899620e+003;1.342999e-002
1.901548e+003;1.322649e-002
1.903477e+003;1.306874e-002
1.905405e+003;1.324343e-002
1.907334e+003;1.350254e-002
1.909262e+003;1.349803e-002
1.911191e+003;1.353239e-002
1.913120e+003;1.357136e-002
1.915048e+003;1.372419e-002
1.916977e+003;1.380740e-002
1.918905e+003;1.387199e-002
1.920834e+003;1.411169e-002
1.922762e+003;1.407490e-002
1.924691e+003;1.392601e-002
1.926619e+003;1.406049e-002
1.928548e+003;1.433245e-002
1.930477e+003;1.436711e-002
1.932405e+003;1.428085e-002
1.934334e+003;1.410926e-002
1.936262e+003;1.409153e-002
1.938191e+003;1.436365e-002
1.940119e+003;1.434437e-002
1.942048e+003;1.419837e-002
1.943976e+003;1.414417e-002
1.945905e+003;1.438119e-002
1.947833e+003;1.501187e-002
1.949762e+003;1.526480e-002
1.951691e+003;1.493566e-002
1.953619e+003;1.474452e-002
1.955548e+003;1.488985e-002
1.957476e+003;1.508277e-002
1.959405e+003;1.491485e-002
1.961333e+003;1.466959e-002
1.963262e+003;1.470140e-002
1.965190e+003;1.485422e-002
1.967119e+003;1.497229e-002
1.969047e+003;1.495796e-002
1.970976e+003;1.491852e-002
1.972905e+003;1.491608e-002
1.974833e+003;1.473362e-002
1.976762e+003;1.479001e-002
1.978690e+003;1.506905e-002
1.980619e+003;1.537999e-002
1.982547e+003;1.575189e-002
1.984476e+003;1.603919e-002
1.986404e+003;1.606514e-002
1.988333e+003;1.595774e-002
1.990261e+003;1.585958e-002
1.992190e+003;1.594740e-002
1.994119e+003;1.620184e-002
1.996047e+003;1.621587e-002
1.997976e+003;1.608299e-002
1.999904e+003;1.616528e-002
2.001833e+003;1.634187e-002
2.003761e+003;1.654691e-002
2.005690e+003;1.644124e-002
2.007618e+003;1.655382e-002
2.009547e+003;1.705511e-002
2.011476e+003;1.732524e-002
2.013404e+003;1.739773e-002
2.015333e+003;1.770906e-002
2.017261e+003;1.796222e-002
2.019190e+003;1.800045e-002
2.021118e+003;1.799762e-002
2.023047e+003;1.823453e-002
2.024975e+003;1.856756e-002
2.026904e+003;1.856859e-002
2.028833e+003;1.865668e-002
2.030761e+003;1.909514e-002
2.032690e+003;1.947550e-002
2.034618e+003;1.933147e-002
2.036547e+003;1.913537e-002
2.038475e+003;1.936820e-002
2.040404e+003;1.924540e-002
2.042332e+003;1.926039e-002
2.044261e+003;1.953258e-002
2.046189e+003;1.949259e-002
2.048118e+003;1.938136e-002
2.050047e+003;1.964555e-002
2.051975e+003;1.997522e-002
2.053904e+003;1.997113e-002
2.055832e+003;1.980612e-002
2.057761e+003;1.956076e-002
2.059689e+003;1.943021e-002
2.061618e+003;1.948112e-002
2.063546e+003;1.958218e-002
2.065475e+003;1.975144e-002
2.067404e+003;1.971753e-002
2.069332e+003;1.984195e-002
2.071260e+003;2.026088e-002
2.073189e+003;2.018326e-002
2.075118e+003;1.995000e-002
2.077046e+003;2.003615e-002
2.078975e+003;2.011100e-002
2.080903e+003;2.010392e-002
2.082832e+003;2.017611e-002
2.084760e+003;2.028841e-002
2.086689e+003;2.002466e-002
2.088617e+003;1.957913e-002
2.090546e+003;1.964940e-002
2.092475e+003;1.986727e-002
2.094403e+003;2.011232e-002
2.096332e+003;2.016674e-002
2.098260e+003;2.013120e-002
2.100189e+003;2.026800e-002
2.102117e+003;2.033973e-002
2.104046e+003;2.044630e-002
2.105974e+003;2.055232e-002
2.107903e+003;2.034862e-002
2.109832e+003;2.039300e-002
2.111760e+003;2.065314e-002
2.113688e+003;2.084819e-002
2.115617e+003;2.090410e-002
2.117546e+003;2.097437e-002
2.119474e+003;2.123420e-002
2.121403e+003;2.144344e-002
2.123331e+003;2.145875e-002
2.125260e+003;2.147902e-002
2.127188e+003;2.155882e-002
2.129117e+003;2.172700e-002
2.131045e+003;2.175246e-002
2.132974e+003;2.131601e-002
2.134903e+003;2.092252e-002
2.136831e+003;2.111387e-002
2.138760e+003;2.140831e-002
2.140688e+003;2.134149e-002
2.142617e+003;2.133456e-002
2.144545e+003;2.151474e-002
2.146474e+003;2.147456e-002
2.148402e+003;2.132753e-002
2.150331e+003;2.102267e-002
2.152260e+003;2.085542e-002
2.154188e+003;2.080026e-002
2.156117e+003;2.069933e-002
2.158045e+003;2.073877e-002
2.159974e+003;2.093772e-002
2.161902e+003;2.095670e-002
2.163831e+003;2.079212e-002
2.165759e+003;2.059147e-002
2.167688e+003;2.027150e-002
2.169616e+003;2.027831e-002
2.171545e+003;2.035969e-002
2.173474e+003;1.989301e-002
2.175402e+003;1.949342e-002
2.177331e+003;1.974540e-002
2.179259e+003;1.964916e-002
2.181188e+003;1.916643e-002
2.183116e+003;1.881838e-002
2.185045e+003;1.856773e-002
2.186973e+003;1.879212e-002
2.188902e+003;1.901091e-002
2.190831e+003;1.888887e-002
2.192759e+003;1.852980e-002
2.194688e+003;1.847786e-002
2.196616e+003;1.860536e-002
2.198545e+003;1.829946e-002
2.200473e+003;1.836565e-002
2.202402e+003;1.875351e-002
2.204330e+003;1.866391e-002
2.206259e+003;1.830734e-002
2.208188e+003;1.807398e-002
2.210116e+003;1.808465e-002
2.212044e+003;1.844319e-002
2.213973e+003;1.873109e-002
2.215902e+003;1.866796e-002
2.217830e+003;1.848509e-002
2.219759e+003;1.852973e-002
2.221687e+003;1.882734e-002
2.223616e+003;1.887046e-002
2.225544e+003;1.868038e-002
2.227473e+003;1.861909e-002
2.229401e+003;1.858405e-002
2.231330e+003;1.872666e-002
2.233259e+003;1.872258e-002
2.235187e+003;1.865648e-002
2.237116e+003;1.872068e-002
2.239044e+003;1.877644e-002
2.240973e+003;1.868833e-002
2.242901e+003;1.887305e-002
2.244830e+003;1.914431e-002
2.246758e+003;1.942034e-002
2.248687e+003;1.941483e-002
2.250615e+003;1.915736e-002
2.252544e+003;1.896089e-002
2.254473e+003;1.899890e-002
2.256401e+003;1.892175e-002
2.258330e+003;1.885810e-002
2.260258e+003;1.897962e-002
2.262187e+003;1.914126e-002
2.264115e+003;1.895217e-002
2.266044e+003;1.881343e-002
2.267972e+003;1.901752e-002
2.269901e+003;1.893047e-002
2.271830e+003;1.884710e-002
2.273758e+003;1.884962e-002
2.275687e+003;1.865613e-002
2.277615e+003;1.865634e-002
2.279544e+003;1.903476e-002
2.281472e+003;1.906737e-002
2.283401e+003;1.899000e-002
2.285329e+003;1.921980e-002
2.287258e+003;1.923861e-002
2.289187e+003;1.894950e-002
2.291115e+003;1.890202e-002
2.293043e+003;1.886430e-002
2.294972e+003;1.877745e-002
2.296901e+003;1.893659e-002
2.298829e+003;1.917447e-002
2.300758e+003;1.912744e-002
2.302686e+003;1.874074e-002
2.304615e+003;1.883084e-002
2.306543e+003;1.918337e-002
2.308472e+003;1.893825e-002
2.310400e+003;1.837571e-002
2.312329e+003;1.837685e-002
2.314258e+003;1.871075e-002
2.316186e+003;1.874354e-002
2.318115e+003;1.862192e-002
2.320043e+003;1.831052e-002
2.321972e+003;1.776083e-002
2.323900e+003;1.760263e-002
2.325829e+003;1.766623e-002
2.327757e+003;1.767241e-002
2.329686e+003;1.738569e-002
2.331615e+003;1.742818e-002
2.333543e+003;1.748575e-002
2.335472e+003;1.740604e-002
2.337400e+003;1.767303e-002
2.339329e+003;1.777650e-002
2.341257e+003;1.777668e-002
2.343186e+003;1.827648e-002
2.345114e+003;1.899367e-002
2.347043e+003;1.961848e-002
2.348971e+003;1.978601e-002
2.350900e+003;1.977110e-002
2.352829e+003;1.938618e-002
2.354757e+003;1.874347e-002
2.356686e+003;1.812842e-002
2.358614e+003;1.770902e-002
2.360543e+003;1.793860e-002
2.362471e+003;1.803340e-002
2.364400e+003;1.806745e-002
2.366328e+003;1.835576e-002
2.368257e+003;1.895847e-002
2.370186e+003;1.981115e-002
2.372114e+003;2.070089e-002
2.374042e+003;2.127662e-002
2.375971e+003;2.179580e-002
2.377900e+003;2.245180e-002
2.379828e+003;2.282670e-002
2.381757e+003;2.292998e-002
2.383685e+003;2.310718e-002
2.385614e+003;2.318700e-002
2.387542e+003;2.318092e-002
2.389471e+003;2.331571e-002
2.391399e+003;2.357615e-002
2.393328e+003;2.355698e-002
2.395257e+003;2.382459e-002
2.397185e+003;2.419725e-002
2.399114e+003;2.404303e-002
2.401042e+003;2.389572e-002
2.402971e+003;2.440578e-002
2.404899e+003;2.486373e-002
2.406828e+003;2.493103e-002
2.408756e+003;2.522474e-002
2.410685e+003;2.549430e-002
2.412614e+003;2.539252e-002
2.414542e+003;2.529438e-002
2.416471e+003;2.566208e-002
2.418399e+003;2.602457e-002
2.420328e+003;2.623031e-002
2.422256e+003;2.637764e-002
2.424185e+003;2.649483e-002
2.426113e+003;2.676261e-002
2.428042e+003;2.694603e-002
2.429970e+003;2.705188e-002
2.431899e+003;2.735889e-002
2.433828e+003;2.771573e-002
2.435756e+003;2.785890e-002
2.437685e+003;2.786685e-002
2.439613e+003;2.796080e-002
2.441542e+003;2.813777e-002
2.443470e+003;2.819671e-002
2.445399e+003;2.833327e-002
2.447327e+003;2.862509e-002
2.449256e+003;2.870664e-002
2.451185e+003;2.878048e-002
2.453113e+003;2.883607e-002
2.455042e+003;2.896264e-002
2.456970e+003;2.921755e-002
2.458899e+003;2.934534e-002
2.460827e+003;2.975693e-002
2.462756e+003;3.012232e-002
2.464684e+003;3.025690e-002
2.466613e+003;3.015443e-002
2.468542e+003;3.023268e-002
2.470470e+003;3.056028e-002
2.472398e+003;3.089340e-002
2.474327e+003;3.100516e-002
2.476256e+003;3.076364e-002
2.478184e+003;3.077972e-002
2.480113e+003;3.137207e-002
2.482041e+003;3.178973e-002
2.483970e+003;3.179447e-002
2.485898e+003;3.177090e-002
2.487827e+003;3.194690e-002
2.489755e+003;3.211787e-002
2.491684e+003;3.219166e-002
2.493613e+003;3.242277e-002
2.495541e+003;3.238839e-002
2.497470e+003;3.262071e-002
2.499398e+003;3.330351e-002
2.501327e+003;3.329460e-002
2.503255e+003;3.324516e-002
2.505184e+003;3.328755e-002
2.507112e+003;3.334741e-002
2.509041e+003;3.356800e-002
2.510969e+003;3.379419e-002
2.512898e+003;3.396485e-002
2.514827e+003;3.410872e-002
2.516755e+003;3.400096e-002
2.518684e+003;3.405880e-002
2.520612e+003;3.448343e-002
2.522541e+003;3.502468e-002
2.524469e+003;3.501527e-002
2.526398e+003;3.490998e-002
2.528326e+003;3.510335e-002
2.530255e+003;3.511998e-002
2.532184e+003;3.480155e-002
2.534112e+003;3.487490e-002
2.536041e+003;3.514344e-002
2.537969e+003;3.517850e-002
2.539898e+003;3.523923e-002
2.541826e+003;3.547510e-002
2.543755e+003;3.572689e-002
2.545683e+003;3.561372e-002
2.547612e+003;3.547618e-002
2.549541e+003;3.546003e-002
2.551469e+003;3.559355e-002
2.553397e+003;3.609557e-002
2.555326e+003;3.655499e-002
2.557255e+003;3.681318e-002
2.559183e+003;3.686501e-002
2.561112e+003;3.675169e-002
2.563040e+003;3.676976e-002
2.564969e+003;3.698163e-002
2.566897e+003;3.708090e-002
2.568826e+003;3.694296e-002
2.570754e+003;3.680247e-002
2.572683e+003;3.701324e-002
2.574612e+003;3.731250e-002
2.576540e+003;3.749018e-002
2.578469e+003;3.738974e-002
2.580397e+003;3.747577e-002
2.582326e+003;3.788846e-002
2.584254e+003;3.816903e-002
2.586183e+003;3.811788e-002
2.588111e+003;3.814762e-002
2.590040e+003;3.828442e-002
2.591969e+003;3.824415e-002
2.593897e+003;3.848299e-002
2.595826e+003;3.864387e-002
2.597754e+003;3.866318e-002
2.599683e+003;3.883663e-002
2.601611e+003;3.911398e-002
2.603540e+003;3.917094e-002
2.605468e+003;3.920909e-002
2.607397e+003;3.910249e-002
2.609325e+003;3.890537e-002
2.611254e+003;3.901668e-002
2.613183e+003;3.924579e-002
2.615111e+003;3.927423e-002
2.617040e+003;3.946258e-002
2.618968e+003;3.969117e-002
2.620897e+003;3.972196e-002
2.622825e+003;3.996819e-002
2.624754e+003;4.045177e-002
2.626682e+003;4.049538e-002
2.628611e+003;4.066272e-002
2.630540e+003;4.115083e-002
2.632468e+003;4.132564e-002
2.634396e+003;4.084698e-002
2.636325e+003;4.064780e-002
2.638254e+003;4.095548e-002
2.640182e+003;4.117582e-002
2.642111e+003;4.107918e-002
2.644039e+003;4.081128e-002
2.645968e+003;4.106847e-002
2.647896e+003;4.137925e-002
2.649825e+003;4.158788e-002
2.651753e+003;4.146997e-002
2.653682e+003;4.140651e-002
2.655611e+003;4.189414e-002
2.657539e+003;4.243840e-002
2.659468e+003;4.238929e-002
2.661396e+003;4.244281e-002
2.663325e+003;4.268544e-002
2.665253e+003;4.263957e-002
2.667182e+003;4.273571e-002
2.669110e+003;4.317114e-002
2.671039e+003;4.351665e-002
2.672968e+003;4.346699e-002
2.674896e+003;4.321513e-002
2.676825e+003;4.326155e-002
2.678753e+003;4.363299e-002
2.680682e+003;4.405329e-002
2.682610e+003;4.417891e-002
2.684539e+003;4.425129e-002
2.686467e+003;4.431866e-002
2.688396e+003;4.430218e-002
2.690324e+003;4.430626e-002
2.692253e+003;4.450624e-002
2.694182e+003;4.477243e-002
2.696110e+003;4.470672e-002
2.698039e+003;4.486622e-002
2.699967e+003;4.523094e-002
2.701896e+003;4.569726e-002
2.703824e+003;4.593848e-002
2.705753e+003;4.580775e-002
2.707681e+003;4.595402e-002
2.709610e+003;4.597155e-002
2.711539e+003;4.586585e-002
2.713467e+003;4.580300e-002
2.715396e+003;4.576364e-002
2.717324e+003;4.594941e-002
2.719253e+003;4.636500e-002
2.721181e+003;4.671406e-002
2.723110e+003;4.678833e-002
2.725038e+003;4.671376e-002
2.726967e+003;4.663584e-002
2.728896e+003;4.676262e-002
2.730824e+003;4.713307e-002
2.732752e+003;4.748001e-002
2.734681e+003;4.745121e-002
2.736610e+003;4.747834e-002
2.738538e+003;4.775616e-002
2.740467e+003;4.794490e-002
2.742395e+003;4.792589e-002
2.744324e+003;4.788655e-002
2.746252e+003;4.804963e-002
2.748181e+003;4.811729e-002
2.750109e+003;4.819381e-002
2.752038e+003;4.817600e-002
2.753967e+003;4.817111e-002
2.755895e+003;4.838696e-002
2.757824e+003;4.861092e-002
2.759752e+003;4.881075e-002
2.761681e+003;4.879136e-002
2.763609e+003;4.846486e-002
2.765538e+003;4.844256e-002
2.767466e+003;4.908979e-002
2.769395e+003;4.955891e-002
2.771323e+003;4.969337e-002
2.773252e+003;4.968122e-002
2.775181e+003;4.962142e-002
2.777109e+003;4.973290e-002
2.779038e+003;4.977251e-002
2.780966e+003;4.987158e-002
2.782895e+003;5.011349e-002
2.784823e+003;5.026293e-002
2.786752e+003;5.045351e-002
2.788680e+003;5.085335e-002
2.790609e+003;5.104643e-002
2.792538e+003;5.132031e-002
2.794466e+003;5.168401e-002
2.796395e+003;5.185408e-002
2.798323e+003;5.172103e-002
2.800252e+003;5.170215e-002
2.802180e+003;5.201532e-002
2.804109e+003;5.257814e-002
2.806037e+003;5.325970e-002
2.807966e+003;5.341937e-002
2.809895e+003;5.343990e-002
2.811823e+003;5.356279e-002
2.813751e+003;5.389285e-002
2.815680e+003;5.457707e-002
2.817609e+003;5.496013e-002
2.819537e+003;5.490343e-002
2.821466e+003;5.519537e-002
2.823394e+003;5.572401e-002
2.825323e+003;5.579156e-002
2.827251e+003;5.600252e-002
2.829180e+003;5.674393e-002
2.831108e+003;5.754318e-002
2.833037e+003;5.811666e-002
2.834966e+003;5.855434e-002
2.836894e+003;5.899337e-002
2.838823e+003;5.950963e-002
2.840751e+003;5.986318e-002
2.842680e+003;5.988938e-002
2.844608e+003;5.995188e-002
2.846537e+003;5.974001e-002
2.848465e+003;5.983070e-002
2.850394e+003;6.029474e-002
2.852323e+003;6.092024e-002
2.854251e+003;6.182472e-002
2.856180e+003;6.286773e-002
2.858108e+003;6.432161e-002
2.860037e+003;6.542323e-002
2.861965e+003;6.630641e-002
2.863894e+003;6.697679e-002
2.865822e+003;6.741188e-002
2.867751e+003;6.832952e-002
2.869679e+003;6.896706e-002
2.871608e+003;6.917045e-002
2.873536e+003;6.970745e-002
2.875465e+003;7.031098e-002
2.877394e+003;7.081866e-002
2.879322e+003;7.126558e-002
2.881251e+003;7.126894e-002
2.883179e+003;7.156900e-002
2.885108e+003;7.244322e-002
2.887036e+003;7.277650e-002
2.888965e+003;7.261394e-002
2.890893e+003;7.241938e-002
2.892822e+003;7.219192e-002
2.894750e+003;7.204326e-002
2.896679e+003;7.232054e-002
2.898608e+003;7.279821e-002
2.900536e+003;7.299317e-002
2.902465e+003;7.256600e-002
2.904393e+003;7.196297e-002
2.906322e+003;7.135472e-002
2.908250e+003;7.067772e-002
2.910179e+003;6.954359e-002
2.912107e+003;6.788184e-002
2.914036e+003;6.726091e-002
2.915965e+003;6.718826e-002
2.917893e+003;6.638960e-002
2.919822e+003;6.556929e-002
2.921750e+003;6.456064e-002
2.923679e+003;6.398416e-002
2.925607e+003;6.457064e-002
2.927536e+003;6.533248e-002
2.929464e+003;6.545844e-002
2.931393e+003;6.558963e-002
2.933322e+003;6.580476e-002
2.935250e+003;6.601277e-002
2.937178e+003;6.604104e-002
2.939107e+003;6.615073e-002
2.941036e+003;6.658828e-002
2.942964e+003;6.646794e-002
2.944893e+003;6.611419e-002
2.946821e+003;6.595109e-002
2.948750e+003;6.533059e-002
2.950678e+003;6.412701e-002
2.952607e+003;6.327745e-002
2.954535e+003;6.238770e-002
2.956464e+003;6.135301e-002
2.958393e+003;6.089409e-002
2.960321e+003;6.095154e-002
2.962250e+003;6.122832e-002
2.964178e+003;6.110171e-002
2.966107e+003;6.030928e-002
2.968035e+003;6.011011e-002
2.969964e+003;6.021534e-002
2.971892e+003;5.989498e-002
2.973821e+003;5.936993e-002
2.975750e+003;5.918577e-002
2.977678e+003;5.927004e-002
2.979607e+003;5.900586e-002
2.981535e+003;5.855392e-002
2.983464e+003;5.804193e-002
2.985392e+003;5.785262e-002
2.987321e+003;5.789210e-002
2.989249e+003;5.781787e-002
2.991178e+003;5.758639e-002
2.993106e+003;5.707486e-002
2.995035e+003;5.676870e-002
2.996964e+003;5.690779e-002
2.998892e+003;5.668061e-002
3.000821e+003;5.655408e-002
3.002749e+003;5.646196e-002
3.004678e+003;5.664577e-002
3.006606e+003;5.704674e-002
3.008535e+003;5.698293e-002
3.010463e+003;5.678342e-002
3.012392e+003;5.652000e-002
3.014321e+003;5.640019e-002
3.016249e+003;5.618202e-002
3.018177e+003;5.635352e-002
3.020106e+003;5.639004e-002
3.022035e+003;5.621314e-002
3.023963e+003;5.664961e-002
3.025892e+003;5.705426e-002
3.027820e+003;5.688396e-002
3.029749e+003;5.668103e-002
3.031677e+003;5.666045e-002
3.033606e+003;5.694092e-002
3.035534e+003;5.734807e-002
3.037463e+003;5.761896e-002
3.039392e+003;5.734799e-002
3.041320e+003;5.717187e-002
3.043249e+003;5.742396e-002
3.045177e+003;5.782434e-002
3.047106e+003;5.795764e-002
3.049034e+003;5.771496e-002
3.050963e+003;5.784315e-002
3.052891e+003;5.833444e-002
3.054820e+003;5.845448e-002
3.056749e+003;5.902920e-002
3.058677e+003;5.921656e-002
3.060606e+003;5.895477e-002
3.062534e+003;5.902229e-002
3.064463e+003;5.910759e-002
3.066391e+003;5.975138e-002
3.068320e+003;5.997558e-002
3.070248e+003;5.989897e-002
3.072177e+003;6.002241e-002
3.074105e+003;6.021747e-002
3.076034e+003;6.046970e-002
3.077963e+003;6.039438e-002
3.079891e+003;6.044350e-002
3.081820e+003;6.074247e-002
3.083748e+003;6.093770e-002
3.085677e+003;6.125254e-002
3.087605e+003;6.136312e-002
3.089534e+003;6.160522e-002
3.091462e+003;6.223976e-002
3.093391e+003;6.265907e-002
3.095320e+003;6.268529e-002
3.097248e+003;6.237175e-002
3.099177e+003;6.257181e-002
3.101105e+003;6.332287e-002
3.103034e+003;6.384700e-002
3.104962e+003;6.366016e-002
3.106891e+003;6.347977e-002
3.108819e+003;6.349710e-002
3.110748e+003;6.362111e-002
3.112677e+003;6.373260e-002
3.114605e+003;6.409774e-002
3.116533e+003;6.431705e-002
3.118462e+003;6.473144e-002
3.120391e+003;6.555869e-002
3.122319e+003;6.561318e-002
3.124248e+003;6.539811e-002
3.126176e+003;6.562894e-002
3.128105e+003;6.612901e-002
3.130033e+003;6.667423e-002
3.131962e+003;6.722009e-002
3.133890e+003;6.743138e-002
3.135819e+003;6.716505e-002
3.137748e+003;6.720752e-002
3.139676e+003;6.802312e-002
3.141605e+003;6.847093e-002
3.143533e+003;6.845569e-002
3.145462e+003;6.883142e-002
3.147390e+003;6.910371e-002
3.149319e+003;6.914268e-002
3.151247e+003;6.927452e-002
3.153176e+003;6.981654e-002
3.155104e+003;7.048710e-002
3.157033e+003;7.079627e-002
3.158962e+003;7.137464e-002
3.160890e+003;7.228372e-002
3.162819e+003;7.271256e-002
3.164747e+003;7.276502e-002
3.166676e+003;7.296170e-002
3.168604e+003;7.316349e-002
3.170533e+003;7.323780e-002
3.172461e+003;7.371546e-002
3.174390e+003;7.429408e-002
3.176319e+003;7.500348e-002
3.178247e+003;7.544255e-002
3.180176e+003;7.573610e-002
3.182104e+003;7.635190e-002
3.184033e+003;7.672197e-002
3.185961e+003;7.683841e-002
3.187890e+003;7.720263e-002
3.189818e+003;7.774601e-002
3.191747e+003;7.783055e-002
3.193676e+003;7.804017e-002
3.195604e+003;7.833324e-002
3.197532e+003;7.873122e-002
3.199461e+003;7.893864e-002
3.201390e+003;7.957226e-002
3.203318e+003;8.044656e-002
3.205247e+003;8.052740e-002
3.207175e+003;8.071624e-002
3.209104e+003;8.128985e-002
3.211032e+003;8.196504e-002
3.212961e+003;8.228173e-002
3.214889e+003;8.255008e-002
3.216818e+003;8.334026e-002
3.218747e+003;8.415823e-002
3.220675e+003;8.442755e-002
3.222604e+003;8.449259e-002
3.224532e+003;8.480174e-002
3.226461e+003;8.564914e-002
3.228389e+003;8.646056e-002
3.230318e+003;8.668741e-002
3.232246e+003;8.681704e-002
3.234175e+003;8.754028e-002
3.236104e+003;8.812100e-002
3.238032e+003;8.846458e-002
3.239961e+003;8.831038e-002
3.241889e+003;8.833490e-002
3.243818e+003;8.911763e-002
3.245746e+003;9.018234e-002
3.247675e+003;9.076288e-002
3.249603e+003;9.108110e-002
3.251532e+003;9.162757e-002
3.253460e+003;9.219476e-002
3.255389e+003;9.264054e-002
3.257318e+003;9.285890e-002
3.259246e+003;9.341711e-002
3.261175e+003;9.407436e-002
3.263103e+003;9.418527e-002
3.265032e+003;9.443929e-002
3.266960e+003;9.537485e-002
3.268889e+003;9.601016e-002
3.270817e+003;9.623903e-002
3.272746e+003;9.637936e-002
3.274675e+003;9.679563e-002
3.276603e+003;9.690057e-002
3.278531e+003;9.656171e-002
3.280460e+003;9.720240e-002
3.282389e+003;9.784383e-002
3.284317e+003;9.771343e-002
3.286246e+003;9.784594e-002
3.288174e+003;9.820969e-002
3.290103e+003;9.847468e-002
3.292031e+003;9.835931e-002
3.293960e+003;9.828809e-002
3.295888e+003;9.831115e-002
3.297817e+003;9.823994e-002
3.299746e+003;9.823591e-002
3.301674e+003;9.848533e-002
3.303603e+003;9.904016e-002
3.305531e+003;9.912936e-002
3.307460e+003;9.855758e-002
3.309388e+003;9.864822e-002
3.311317e+003;9.915368e-002
3.313245e+003;9.952648e-002
3.315174e+003;1.000584e-001
3.317103e+003;9.974662e-002
3.319031e+003;9.939562e-002
3.320960e+003;9.962529e-002
3.322888e+003;1.005293e-001
3.324817e+003;1.012298e-001
3.326745e+003;1.007718e-001
3.328674e+003;1.001479e-001
3.330602e+003;9.996834e-002
3.332531e+003;9.976109e-002
3.334459e+003;9.982659e-002
3.336388e+003;9.996942e-002
3.338317e+003;9.935022e-002
3.340245e+003;9.878176e-002
3.342174e+003;9.885690e-002
3.344102e+003;9.867317e-002
3.346031e+003;9.812056e-002
3.347959e+003;9.831592e-002
3.349888e+003;9.870270e-002
3.351816e+003;9.848653e-002
3.353745e+003;9.774314e-002
3.355674e+003;9.721599e-002
3.357602e+003;9.721085e-002
3.359531e+003;9.709047e-002
3.361459e+003;9.658066e-002
3.363388e+003;9.585448e-002
3.365316e+003;9.547965e-002
3.367245e+003;9.511270e-002
3.369173e+003;9.467133e-002
3.371102e+003;9.461790e-002
3.373031e+003;9.467628e-002
3.374959e+003;9.443579e-002
3.376887e+003;9.386703e-002
3.378816e+003;9.284253e-002
3.380745e+003;9.261426e-002
3.382673e+003;9.238540e-002
3.384602e+003;9.179802e-002
3.386530e+003;9.133981e-002
3.388459e+003;9.098324e-002
3.390387e+003;9.084734e-002
3.392316e+003;9.070820e-002
3.394244e+003;9.034044e-002
3.396173e+003;8.964188e-002
3.398102e+003;8.950212e-002
3.400030e+003;8.919066e-002
3.401959e+003;8.870008e-002
3.403887e+003;8.878235e-002
3.405816e+003;8.822901e-002
3.407744e+003;8.742592e-002
3.409673e+003;8.673882e-002
3.411601e+003;8.629724e-002
3.413530e+003;8.593727e-002
3.415458e+003;8.553071e-002
3.417387e+003;8.512598e-002
3.419316e+003;8.454938e-002
3.421244e+003;8.377359e-002
3.423173e+003;8.285136e-002
3.425101e+003;8.252323e-002
3.427030e+003;8.208035e-002
3.428958e+003;8.113565e-002
3.430887e+003;8.031147e-002
3.432815e+003;7.965369e-002
3.434744e+003;7.943745e-002
3.436673e+003;7.909524e-002
3.438601e+003;7.863768e-002
3.440530e+003;7.793529e-002
3.442458e+003;7.733596e-002
3.444387e+003;7.691906e-002
3.446315e+003;7.611957e-002
3.448244e+003;7.580549e-002
3.450172e+003;7.551154e-002
3.452101e+003;7.468592e-002
3.454030e+003;7.443485e-002
3.455958e+003;7.398744e-002
3.457886e+003;7.333457e-002
3.459815e+003;7.246134e-002
3.461744e+003;7.158573e-002
3.463672e+003;7.119706e-002
3.465601e+003;7.061542e-002
3.467529e+003;6.993786e-002
3.469458e+003;6.907659e-002
3.471386e+003;6.838726e-002
3.473315e+003;6.825340e-002
3.475243e+003;6.747001e-002
3.477172e+003;6.661427e-002
3.479101e+003;6.658917e-002
3.481029e+003;6.626430e-002
3.482958e+003;6.583256e-002
3.484886e+003;6.523252e-002
3.486815e+003;6.485499e-002
3.488743e+003;6.449579e-002
3.490672e+003;6.353622e-002
3.492600e+003;6.301128e-002
3.494529e+003;6.254701e-002
3.496458e+003;6.177036e-002
3.498386e+003;6.128623e-002
3.500315e+003;6.075741e-002
3.502243e+003;5.982922e-002
3.504172e+003;5.911435e-002
3.506100e+003;5.890392e-002
3.508029e+003;5.835320e-002
3.509957e+003;5.776279e-002
3.511886e+003;5.763841e-002
3.513814e+003;5.726512e-002
3.515743e+003;5.627880e-002
3.517672e+003;5.535541e-002
3.519600e+003;5.492595e-002
3.521529e+003;5.480478e-002
3.523457e+003;5.455134e-002
3.525386e+003;5.382244e-002
3.527314e+003;5.297875e-002
3.529243e+003;5.282193e-002
3.531171e+003;5.256666e-002
3.533100e+003;5.245112e-002
3.535029e+003;5.226643e-002
3.536957e+003;5.150669e-002
3.538885e+003;5.092466e-002
3.540814e+003;5.114706e-002
3.542743e+003;5.069492e-002
3.544671e+003;4.916296e-002
3.546600e+003;4.817763e-002
3.548528e+003;4.809427e-002
3.550457e+003;4.786643e-002
3.552385e+003;4.762252e-002
3.554314e+003;4.745624e-002
3.556242e+003;4.688400e-002
3.558171e+003;4.606394e-002
3.560100e+003;4.560860e-002
3.562028e+003;4.501739e-002
3.563957e+003;4.415316e-002
3.565885e+003;4.371191e-002
3.567814e+003;4.394480e-002
3.569742e+003;4.374097e-002
3.571671e+003;4.322967e-002
3.573599e+003;4.298728e-002
3.575528e+003;4.292682e-002
3.577457e+003;4.262111e-002
3.579385e+003;4.219660e-002
3.581314e+003;4.184988e-002
3.583242e+003;4.158660e-002
3.585171e+003;4.102754e-002
3.587099e+003;4.022089e-002
3.589028e+003;4.010314e-002
3.590956e+003;4.012352e-002
3.592885e+003;3.967327e-002
3.594813e+003;3.931946e-002
3.596742e+003;3.900236e-002
3.598671e+003;3.859382e-002
3.600599e+003;3.812052e-002
3.602528e+003;3.778619e-002
3.604456e+003;3.761970e-002
3.606385e+003;3.752186e-002
3.608313e+003;3.668527e-002
3.610242e+003;3.614976e-002
3.612170e+003;3.574836e-002
3.614099e+003;3.533451e-002
3.616028e+003;3.546748e-002
3.617956e+003;3.551163e-002
3.619885e+003;3.504763e-002
3.621813e+003;3.468885e-002
3.623742e+003;3.448221e-002
3.625670e+003;3.407869e-002
3.627599e+003;3.297540e-002
3.629527e+003;3.182495e-002
3.631456e+003;3.176773e-002
3.633385e+003;3.168846e-002
3.635313e+003;3.151666e-002
3.637241e+003;3.128208e-002
3.639170e+003;3.059189e-002
3.641099e+003;2.986102e-002
3.643027e+003;2.912287e-002
3.644956e+003;2.821859e-002
3.646884e+003;2.756591e-002
3.648813e+003;2.705343e-002
3.650741e+003;2.629149e-002
3.652670e+003;2.569590e-002
3.654598e+003;2.481366e-002
3.656527e+003;2.403315e-002
3.658456e+003;2.341963e-002
3.660384e+003;2.238174e-002
3.662313e+003;2.161255e-002
3.664241e+003;2.103150e-002
3.666170e+003;2.059498e-002
3.668098e+003;2.003226e-002
3.670027e+003;1.901153e-002
3.671955e+003;1.809084e-002
3.673884e+003;1.686504e-002
3.675813e+003;1.602237e-002
3.677741e+003;1.597455e-002
3.679669e+003;1.592567e-002
3.681598e+003;1.591103e-002
3.683527e+003;1.581484e-002
3.685455e+003;1.471185e-002
3.687384e+003;1.337398e-002
3.689312e+003;1.276395e-002
3.691241e+003;1.316477e-002
3.693169e+003;1.348812e-002
3.695098e+003;1.310890e-002
3.697026e+003;1.302398e-002
3.698955e+003;1.285149e-002
3.700884e+003;1.215264e-002
3.702812e+003;1.197883e-002
3.704741e+003;1.191807e-002
3.706669e+003;1.139093e-002
3.708598e+003;1.047449e-002
3.710526e+003;9.560996e-003
3.712455e+003;9.295456e-003
3.714383e+003;9.564789e-003
3.716312e+003;9.623764e-003
3.718240e+003;9.131175e-003
3.720169e+003;8.239578e-003
3.722098e+003;8.288140e-003
3.724026e+003;8.659965e-003
3.725955e+003;8.619202e-003
3.727883e+003;8.617411e-003
3.729812e+003;8.233803e-003
3.731740e+003;7.487357e-003
3.733669e+003;6.972604e-003
3.735597e+003;6.588158e-003
3.737526e+003;7.274024e-003
3.739455e+003;7.967049e-003
3.741383e+003;7.694421e-003
3.743312e+003;6.736403e-003
3.745240e+003;6.512272e-003
3.747169e+003;6.969809e-003
3.749097e+003;6.481598e-003
3.751026e+003;6.268556e-003
3.752954e+003;7.026345e-003
3.754883e+003;7.549153e-003
3.756812e+003;7.165712e-003
3.758740e+003;6.731860e-003
3.760668e+003;6.757841e-003
3.762597e+003;6.937689e-003
3.764526e+003;6.691649e-003
3.766454e+003;6.927993e-003
3.768383e+003;6.782880e-003
3.770311e+003;6.379402e-003
3.772240e+003;6.727553e-003
3.774168e+003;7.143447e-003
3.776097e+003;7.079924e-003
3.778025e+003;7.023887e-003
3.779954e+003;6.682328e-003
3.781883e+003;6.561179e-003
3.783811e+003;6.561819e-003
3.785740e+003;7.120172e-003
3.787668e+003;7.522013e-003
3.789597e+003;7.161199e-003
3.791525e+003;6.494782e-003
3.793454e+003;6.634214e-003
3.795382e+003;6.489367e-003
3.797311e+003;5.959368e-003
3.799240e+003;5.946166e-003
3.801168e+003;6.007071e-003
3.803097e+003;6.519470e-003
3.805025e+003;6.860530e-003
3.806954e+003;6.593541e-003
3.808882e+003;6.530569e-003
3.810811e+003;6.707430e-003
3.812739e+003;6.577965e-003
3.814668e+003;5.839965e-003
3.816596e+003;5.583034e-003
3.818525e+003;6.377989e-003
3.820454e+003;6.756932e-003
3.822382e+003;6.980247e-003
3.824311e+003;7.288782e-003
3.826239e+003;6.835116e-003
3.828168e+003;6.278339e-003
3.830096e+003;6.445714e-003
3.832025e+003;6.771201e-003
3.833953e+003;6.742023e-003
3.835882e+003;6.602792e-003
3.837811e+003;6.412556e-003
3.839739e+003;7.059549e-003
3.841667e+003;7.618476e-003
3.843596e+003;7.711082e-003
3.845525e+003;7.665283e-003
3.847453e+003;7.422470e-003
3.849382e+003;7.580272e-003
3.851310e+003;7.151295e-003
3.853239e+003;6.388212e-003
3.855167e+003;7.183195e-003
3.857096e+003;7.774022e-003
3.859024e+003;8.160600e-003
3.860953e+003;8.435615e-003
3.862882e+003;8.202198e-003
3.864810e+003;8.219453e-003
3.866739e+003;8.636237e-003
3.868667e+003;8.582735e-003
3.870596e+003;8.198484e-003
3.872524e+003;8.492647e-003
3.874453e+003;9.208975e-003
3.876381e+003;9.651374e-003
3.878310e+003;9.546668e-003
3.880239e+003;9.395836e-003
3.882167e+003;9.227962e-003
3.884096e+003;9.014179e-003
3.886024e+003;9.309910e-003
3.887953e+003;1.019153e-002
3.889881e+003;9.961000e-003
3.891810e+003;9.926014e-003
3.893738e+003;1.027410e-002
3.895667e+003;1.032937e-002
3.897595e+003;9.835069e-003
3.899524e+003;9.884827e-003
3.901453e+003;1.040233e-002
3.903381e+003;1.033229e-002
3.905310e+003;1.027203e-002
3.907238e+003;1.069653e-002
3.909167e+003;1.110153e-002
3.911095e+003;1.136739e-002
3.913024e+003;1.124010e-002
3.914952e+003;1.137032e-002
3.916881e+003;1.182705e-002
3.918810e+003;1.210341e-002
3.920738e+003;1.194524e-002
3.922667e+003;1.169424e-002
3.924595e+003;1.211564e-002
3.926524e+003;1.272236e-002
3.928452e+003;1.287999e-002
3.930381e+003;1.245928e-002
3.932309e+003;1.250661e-002
3.934238e+003;1.322082e-002
3.936167e+003;1.357016e-002
3.938095e+003;1.367341e-002
3.940023e+003;1.328549e-002
3.941952e+003;1.303681e-002
3.943881e+003;1.321641e-002
3.945809e+003;1.350883e-002
3.947738e+003;1.350733e-002
3.949666e+003;1.372029e-002
3.951595e+003;1.407863e-002
3.953523e+003;1.396087e-002
3.955452e+003;1.377303e-002
3.957380e+003;1.365820e-002
3.959309e+003;1.371004e-002
3.961238e+003;1.403616e-002
3.963166e+003;1.423955e-002
3.965095e+003;1.443051e-002
3.967023e+003;1.481480e-002
3.968952e+003;1.462549e-002
3.970880e+003;1.427650e-002
3.972809e+003;1.425448e-002
3.974737e+003;1.427071e-002
3.976666e+003;1.438588e-002
3.978594e+003;1.503739e-002
3.980523e+003;1.541154e-002
3.982452e+003;1.559099e-002
3.984380e+003;1.537978e-002
3.986309e+003;1.514243e-002
3.988237e+003;1.525334e-002
3.990166e+003;1.509890e-002
3.992094e+003;1.500460e-002
3.994023e+003;1.510936e-002
3.995951e+003;1.483005e-002
3.997880e+003;1.458793e-002
3.999809e+003;1.493580e-002
4.001737e+003;0.000000e+000
