3.992094e+002;0.000000e+000
4.011380e+002;0.000000e+000
4.030665e+002;0.000000e+000
4.049951e+002;0.000000e+000
4.069236e+002;0.000000e+000
4.088522e+002;0.000000e+000
4.107807e+002;0.000000e+000
4.127093e+002;0.000000e+000
4.146378e+002;0.000000e+000
4.165664e+002;0.000000e+000
4.184949e+002;0.000000e+000
4.204235e+002;0.000000e+000
4.223520e+002;0.000000e+000
4.242806e+002;0.000000e+000
4.262091e+002;0.000000e+000
4.281377e+002;0.000000e+000
4.300662e+002;0.000000e+000
4.319948e+002;0.000000e+000
4.339233e+002;0.000000e+000
4.358519e+002;0.000000e+000
4.377804e+002;0.000000e+000
4.397090e+002;0.000000e+000
4.416375e+002;0.000000e+000
4.435660e+002;0.000000e+000
4.454946e+002;0.000000e+000
4.474232e+002;0.000000e+000
4.493517e+002;0.000000e+000
4.512802e+002;0.000000e+000
4.532088e+002;0.000000e+000
4.551373e+002;0.000000e+000
4.570659e+002;0.000000e+000
4.589944e+002;0.000000e+000
4.609230e+002;0.000000e+000
4.628515e+002;0.000000e+000
4.647801e+002;0.000000e+000
4.667086e+002;0.000000e+000
4.686372e+002;0.000000e+000
4.705657e+002;0.000000e+000
4.724943e+002;0.000000e+000
4.744228e+002;0.000000e+000
4.763513e+002;0.000000e+000
4.782799e+002;0.000000e+000
4.802085e+002;0.000000e+000
4.821370e+002;0.000000e+000
4.840656e+002;0.000000e+000
4.859941e+002;0.000000e+000
4.879226e+002;0.000000e+000
4.898512e+002;0.000000e+000
4.917798e+002;0.000000e+000
4.937083e+002;0.000000e+000
4.956368e+002;0.000000e+000
4.975654e+002;0.000000e+000
4.994939e+002;0.000000e+000
5.014225e+002;0.000000e+000
5.033510e+002;0.000000e+000
5.052796e+002;0.000000e+000
5.072081e+002;0.000000e+000
5.091367e+002;0.000000e+000
5.110652e+002;0.000000e+000
5.129938e+002;0.000000e+000
5.149223e+002;0.000000e+000
5.168509e+002;0.000000e+000
5.187794e+002;0.000000e+000
5.207079e+002;0.000000e+000
5.226365e+002;0.000000e+000
5.245651e+002;0.000000e+000
5.264936e+002;0.000000e+000
5.284222e+002;0.000000e+000
5.303507e+002;0.000000e+000
5.322792e+002;0.000000e+000
5.342078e+002;0.000000e+000
5.361364e+002;0.000000e+000
5.380649e+002;0.000000e+000
5.399935e+002;0.000000e+000
5.419220e+002;0.000000e+000
5.438505e+002;0.000000e+000
5.457791e+002;0.000000e+000
5.477076e+002;0.000000e+000
5.496362e+002;0.000000e+000
5.515648e+002;0.000000e+000
5.534933e+002;0.000000e+000
5.554218e+002;0.000000e+000
5.573504e+002;0.000000e+000
5.592789e+002;0.000000e+000
5.612075e+002;0.000000e+000
5.631360e+002;0.000000e+000
5.650646e+002;0.000000e+000
5.669931e+002;0.000000e+000
5.689217e+002;0.000000e+000
5.708502e+002;0.000000e+000
5.727787e+002;0.000000e+000
5.747073e+002;0.000000e+000
5.766359e+002;0.000000e+000
5.785644e+002;0.000000e+000
5.804930e+002;0.000000e+000
5.824215e+002;0.000000e+000
5.843500e+002;0.000000e+000
5.862786e+002;0.000000e+000
5.882072e+002;0.000000e+000
5.901357e+002;0.000000e+000
5.920643e+002;0.000000e+000
5.939928e+002;0.000000e+000
5.959213e+002;0.000000e+000
5.978499e+002;0.000000e+000
5.997784e+002;2.055130e-001
6.017070e+002;2.149517e-001
6.036355e+002;2.184184e-001
6.055641e+002;2.200400e-001
6.074926e+002;2.198431e-001
6.094211e+002;2.184725e-001
6.113497e+002;2.164949e-001
6.132783e+002;2.190007e-001
6.152068e+002;2.236848e-001
6.171354e+002;2.208348e-001
6.190639e+002;2.131149e-001
6.209924e+002;2.085501e-001
6.229210e+002;2.044256e-001
6.248495e+002;1.995370e-001
6.267781e+002;1.937302e-001
6.287067e+002;1.881868e-001
6.306352e+002;1.890364e-001
6.325637e+002;1.933023e-001
6.344923e+002;1.899477e-001
6.364208e+002;1.917353e-001
6.383494e+002;1.971758e-001
6.402780e+002;1.922337e-001
6.422065e+002;1.890492e-001
6.441350e+002;1.865260e-001
6.460636e+002;1.869417e-001
6.479921e+002;1.855388e-001
6.499207e+002;1.855877e-001
6.518492e+002;1.925223e-001
6.537778e+002;1.957346e-001
6.557063e+002;1.947964e-001
6.576349e+002;1.956541e-001
6.595634e+002;1.979128e-001
6.614919e+002;1.961512e-001
6.634205e+002;1.944622e-001
6.653491e+002;1.948376e-001
6.672776e+002;1.942965e-001
6.692062e+002;1.911836e-001
6.711347e+002;1.868228e-001
6.730632e+002;1.824837e-001
6.749918e+002;1.808202e-001
6.769203e+002;1.771218e-001
6.788489e+002;1.724834e-001
6.807775e+002;1.699565e-001
6.827060e+002;1.677526e-001
6.846345e+002;1.646722e-001
6.865631e+002;1.636660e-001
6.884916e+002;1.633416e-001
6.904202e+002;1.613851e-001
6.923488e+002;1.585114e-001
6.942773e+002;1.573898e-001
6.962058e+002;1.584293e-001
6.981344e+002;1.581032e-001
7.000629e+002;1.577404e-001
7.019915e+002;1.568772e-001
7.039200e+002;1.549170e-001
7.058486e+002;1.535624e-001
7.077771e+002;1.535461e-001
7.097057e+002;1.530265e-001
7.116342e+002;1.496757e-001
7.135627e+002;1.476273e-001
7.154913e+002;1.466121e-001
7.174199e+002;1.439425e-001
7.193484e+002;1.409688e-001
7.212770e+002;1.394799e-001
7.232055e+002;1.396535e-001
7.251340e+002;1.390093e-001
7.270626e+002;1.372507e-001
7.289911e+002;1.356187e-001
7.309197e+002;1.342877e-001
7.328483e+002;1.311032e-001
7.347768e+002;1.289736e-001
7.367053e+002;1.297160e-001
7.386339e+002;1.289771e-001
7.405624e+002;1.267191e-001
7.424910e+002;1.252344e-001
7.444196e+002;1.238526e-001
7.463481e+002;1.222055e-001
7.482766e+002;1.205637e-001
7.502052e+002;1.194493e-001
7.521337e+002;1.198934e-001
7.540623e+002;1.198278e-001
7.559908e+002;1.178867e-001
7.579194e+002;1.159383e-001
7.598479e+002;1.147069e-001
7.617765e+002;1.141172e-001
7.637050e+002;1.136869e-001
7.656335e+002;1.129395e-001
7.675621e+002;1.115041e-001
7.694907e+002;1.103757e-001
7.714192e+002;1.099201e-001
7.733478e+002;1.092088e-001
7.752763e+002;1.082682e-001
7.772048e+002;1.073969e-001
7.791334e+002;1.073486e-001
7.810620e+002;1.067187e-001
7.829905e+002;1.054086e-001
7.849191e+002;1.054333e-001
7.868476e+002;1.057648e-001
7.887761e+002;1.059816e-001
7.907047e+002;1.053495e-001
7.926332e+002;1.044006e-001
7.945618e+002;1.041761e-001
7.964903e+002;1.045315e-001
7.984189e+002;1.044898e-001
8.003474e+002;1.043499e-001
8.022759e+002;1.045483e-001
8.042045e+002;1.045158e-001
8.061331e+002;1.042142e-001
8.080616e+002;1.038909e-001
8.099902e+002;1.040347e-001
8.119187e+002;1.041860e-001
8.138472e+002;1.041906e-001
8.157758e+002;1.043844e-001
8.177043e+002;1.048289e-001
8.196329e+002;1.053540e-001
8.215615e+002;1.058516e-001
8.234900e+002;1.068218e-001
8.254185e+002;1.068965e-001
8.273471e+002;1.061607e-001
8.292756e+002;1.067274e-001
8.312042e+002;1.079169e-001
8.331328e+002;1.082061e-001
8.350613e+002;1.074039e-001
8.369898e+002;1.073562e-001
8.389184e+002;1.073847e-001
8.408469e+002;1.061044e-001
8.427755e+002;1.057333e-001
8.447040e+002;1.063991e-001
8.466326e+002;1.063144e-001
8.485611e+002;1.062267e-001
8.504897e+002;1.057001e-001
8.524182e+002;1.047659e-001
8.543467e+002;1.051749e-001
8.562753e+002;1.058489e-001
8.582039e+002;1.070553e-001
8.601324e+002;1.081470e-001
8.620610e+002;1.087816e-001
8.639895e+002;1.087406e-001
8.659180e+002;1.101639e-001
8.678466e+002;1.131541e-001
8.697751e+002;1.156658e-001
8.717037e+002;1.176738e-001
8.736323e+002;1.199676e-001
8.755608e+002;1.217689e-001
8.774893e+002;1.235062e-001
8.794179e+002;1.255635e-001
8.813464e+002;1.277491e-001
8.832750e+002;1.305925e-001
8.852036e+002;1.338603e-001
8.871321e+002;1.363545e-001
8.890606e+002;1.393248e-001
8.909892e+002;1.421481e-001
8.929177e+002;1.442838e-001
8.948463e+002;1.464157e-001
8.967748e+002;1.469898e-001
8.987034e+002;1.458756e-001
9.006319e+002;1.442395e-001
9.025605e+002;1.415761e-001
9.044890e+002;1.387410e-001
9.064175e+002;1.367431e-001
9.083461e+002;1.350482e-001
9.102747e+002;1.339355e-001
9.122032e+002;1.327912e-001
9.141318e+002;1.319170e-001
9.160603e+002;1.317001e-001
9.179888e+002;1.321769e-001
9.199174e+002;1.333017e-001
9.218459e+002;1.342210e-001
9.237745e+002;1.349483e-001
9.257031e+002;1.360278e-001
9.276316e+002;1.368876e-001
9.295601e+002;1.377104e-001
9.314887e+002;1.393099e-001
9.334172e+002;1.413477e-001
9.353458e+002;1.429112e-001
9.372744e+002;1.450062e-001
9.392029e+002;1.472832e-001
9.411314e+002;1.500246e-001
9.430600e+002;1.538170e-001
9.449885e+002;1.574557e-001
9.469171e+002;1.612641e-001
9.488456e+002;1.653894e-001
9.507742e+002;1.700113e-001
9.527027e+002;1.756630e-001
9.546313e+002;1.812588e-001
9.565598e+002;1.865292e-001
9.584883e+002;1.922483e-001
9.604169e+002;1.983843e-001
9.623455e+002;2.041794e-001
9.642740e+002;2.100698e-001
9.662026e+002;2.164045e-001
9.681311e+002;2.225041e-001
9.700596e+002;2.289741e-001
9.719882e+002;2.361292e-001
9.739167e+002;2.442648e-001
9.758453e+002;2.535065e-001
9.777739e+002;2.630685e-001
9.797024e+002;2.727046e-001
9.816309e+002;2.824079e-001
9.835595e+002;2.911849e-001
9.854880e+002;2.984636e-001
9.874166e+002;3.042903e-001
9.893452e+002;3.086708e-001
9.912737e+002;3.125928e-001
9.932022e+002;3.163185e-001
9.951307e+002;3.201947e-001
9.970593e+002;3.241690e-001
9.989879e+002;3.282311e-001
1.000916e+003;3.322682e-001
1.002845e+003;3.357598e-001
1.004773e+003;3.392821e-001
1.006702e+003;3.435830e-001
1.008631e+003;3.476259e-001
1.010559e+003;3.519213e-001
1.012488e+003;3.575951e-001
1.014416e+003;3.644355e-001
1.016345e+003;3.710754e-001
1.018273e+003;3.772146e-001
1.020202e+003;3.819061e-001
1.022130e+003;3.864010e-001
1.024059e+003;3.906819e-001
1.025988e+003;3.931989e-001
1.027916e+003;3.940534e-001
1.029845e+003;3.933991e-001
1.031773e+003;3.920761e-001
1.033702e+003;3.904431e-001
1.035630e+003;3.873770e-001
1.037559e+003;3.836278e-001
1.039487e+003;3.798716e-001
1.041416e+003;3.755331e-001
1.043344e+003;3.718552e-001
1.045273e+003;3.702809e-001
1.047202e+003;3.681791e-001
1.049130e+003;3.657401e-001
1.051059e+003;3.626626e-001
1.052987e+003;3.587642e-001
1.054916e+003;3.537445e-001
1.056844e+003;3.467145e-001
1.058773e+003;3.398897e-001
1.060701e+003;3.328435e-001
1.062630e+003;3.244094e-001
1.064558e+003;3.147850e-001
1.066487e+003;3.055980e-001
1.068416e+003;2.970873e-001
1.070344e+003;2.891833e-001
1.072273e+003;2.829794e-001
1.074201e+003;2.782263e-001
1.076130e+003;2.730128e-001
1.078058e+003;2.686832e-001
1.079987e+003;2.653940e-001
1.081915e+003;2.628971e-001
1.083844e+003;2.606981e-001
1.085773e+003;2.580668e-001
1.087701e+003;2.562570e-001
1.089630e+003;2.557682e-001
1.091558e+003;2.555829e-001
1.093487e+003;2.538561e-001
1.095415e+003;2.519069e-001
1.097344e+003;2.506172e-001
1.099272e+003;2.491928e-001
1.101201e+003;2.470833e-001
1.103129e+003;2.448716e-001
1.105058e+003;2.417733e-001
1.106987e+003;2.378111e-001
1.108915e+003;2.331375e-001
1.110844e+003;2.274728e-001
1.112772e+003;2.207263e-001
1.114701e+003;2.153619e-001
1.116629e+003;2.105525e-001
1.118558e+003;2.042539e-001
1.120486e+003;1.978878e-001
1.122415e+003;1.922505e-001
1.124344e+003;1.867123e-001
1.126272e+003;1.807329e-001
1.128201e+003;1.741557e-001
1.130129e+003;1.673136e-001
1.132058e+003;1.608215e-001
1.133986e+003;1.546854e-001
1.135915e+003;1.494976e-001
1.137843e+003;1.460545e-001
1.139772e+003;1.437880e-001
1.141700e+003;1.419939e-001
1.143629e+003;1.419904e-001
1.145557e+003;1.420680e-001
1.147486e+003;1.410103e-001
1.149415e+003;1.402431e-001
1.151343e+003;1.404071e-001
1.153272e+003;1.401106e-001
1.155200e+003;1.391735e-001
1.157129e+003;1.382581e-001
1.159057e+003;1.365373e-001
1.160986e+003;1.338204e-001
1.162914e+003;1.303781e-001
1.164843e+003;1.260299e-001
1.166771e+003;1.203401e-001
1.168700e+003;1.138293e-001
1.170629e+003;1.072785e-001
1.172557e+003;1.015201e-001
1.174486e+003;9.679654e-002
1.176414e+003;9.313864e-002
1.178343e+003;9.049879e-002
1.180271e+003;8.863810e-002
1.182200e+003;8.716308e-002
1.184128e+003;8.641273e-002
1.186057e+003;8.706468e-002
1.187986e+003;8.848563e-002
1.189914e+003;9.013063e-002
1.191843e+003;9.205057e-002
1.193771e+003;9.393966e-002
1.195700e+003;9.581904e-002
1.197628e+003;9.810381e-002
1.199557e+003;1.001438e-001
1.201485e+003;1.012740e-001
1.203414e+003;1.017973e-001
1.205343e+003;1.023313e-001
1.207271e+003;1.026833e-001
1.209200e+003;1.022069e-001
1.211128e+003;1.021356e-001
1.213057e+003;1.029134e-001
1.214985e+003;1.033986e-001
1.216914e+003;1.043083e-001
1.218842e+003;1.060045e-001
1.220771e+003;1.077350e-001
1.222699e+003;1.095632e-001
1.224628e+003;1.114247e-001
1.226557e+003;1.126562e-001
1.228485e+003;1.134527e-001
1.230414e+003;1.142063e-001
1.232342e+003;1.147713e-001
1.234271e+003;1.152965e-001
1.236199e+003;1.155190e-001
1.238128e+003;1.151115e-001
1.240056e+003;1.142773e-001
1.241985e+003;1.136385e-001
1.243913e+003;1.133614e-001
1.245842e+003;1.127837e-001
1.247771e+003;1.122758e-001
1.249699e+003;1.119932e-001
1.251628e+003;1.116297e-001
1.253556e+003;1.114242e-001
1.255485e+003;1.112275e-001
1.257413e+003;1.109739e-001
1.259342e+003;1.109483e-001
1.261270e+003;1.111748e-001
1.263199e+003;1.112333e-001
1.265127e+003;1.105322e-001
1.267056e+003;1.093663e-001
1.268985e+003;1.087837e-001
1.270913e+003;1.082090e-001
1.272842e+003;1.071570e-001
1.274770e+003;1.061877e-001
1.276699e+003;1.051180e-001
1.278627e+003;1.038830e-001
1.280556e+003;1.023624e-001
1.282484e+003;1.013494e-001
1.284413e+003;1.007672e-001
1.286342e+003;1.002805e-001
1.288270e+003;1.001715e-001
1.290199e+003;1.005239e-001
1.292127e+003;1.011799e-001
1.294056e+003;1.020827e-001
1.295984e+003;1.033633e-001
1.297913e+003;1.050315e-001
1.299841e+003;1.070609e-001
1.301770e+003;1.094826e-001
1.303698e+003;1.121796e-001
1.305627e+003;1.152142e-001
1.307556e+003;1.181628e-001
1.309484e+003;1.209703e-001
1.311413e+003;1.234203e-001
1.313341e+003;1.254088e-001
1.315270e+003;1.267366e-001
1.317198e+003;1.273300e-001
1.319127e+003;1.273903e-001
1.321055e+003;1.268580e-001
1.322984e+003;1.260735e-001
1.324912e+003;1.254146e-001
1.326841e+003;1.251610e-001
1.328770e+003;1.248660e-001
1.330698e+003;1.245466e-001
1.332627e+003;1.238080e-001
1.334555e+003;1.225470e-001
1.336484e+003;1.210687e-001
1.338412e+003;1.194331e-001
1.340341e+003;1.177968e-001
1.342269e+003;1.161197e-001
1.344198e+003;1.142323e-001
1.346126e+003;1.129273e-001
1.348055e+003;1.120543e-001
1.349984e+003;1.114324e-001
1.351912e+003;1.109485e-001
1.353841e+003;1.109029e-001
1.355769e+003;1.111237e-001
1.357698e+003;1.114236e-001
1.359626e+003;1.118954e-001
1.361555e+003;1.124538e-001
1.363483e+003;1.127091e-001
1.365412e+003;1.124682e-001
1.367341e+003;1.120820e-001
1.369269e+003;1.115560e-001
1.371198e+003;1.105184e-001
1.373126e+003;1.092687e-001
1.375055e+003;1.079524e-001
1.376983e+003;1.059737e-001
1.378912e+003;1.038368e-001
1.380840e+003;1.021534e-001
1.382769e+003;1.006333e-001
1.384698e+003;9.916954e-002
1.386626e+003;9.812662e-002
1.388555e+003;9.744749e-002
1.390483e+003;9.719506e-002
1.392412e+003;9.723137e-002
1.394340e+003;9.702563e-002
1.396269e+003;9.736070e-002
1.398197e+003;9.813347e-002
1.400126e+003;9.893794e-002
1.402054e+003;9.981634e-002
1.403983e+003;1.007283e-001
1.405911e+003;1.020756e-001
1.407840e+003;1.036740e-001
1.409769e+003;1.052766e-001
1.411697e+003;1.069667e-001
1.413626e+003;1.089649e-001
1.415554e+003;1.109823e-001
1.417483e+003;1.121463e-001
1.419411e+003;1.126366e-001
1.421340e+003;1.126302e-001
1.423268e+003;1.117399e-001
1.425197e+003;1.098622e-001
1.427125e+003;1.077923e-001
1.429054e+003;1.052388e-001
1.430983e+003;1.021350e-001
1.432911e+003;9.950581e-002
1.434840e+003;9.755607e-002
1.436768e+003;9.574336e-002
1.438697e+003;9.437831e-002
1.440625e+003;9.391762e-002
1.442554e+003;9.437381e-002
1.444482e+003;9.524656e-002
1.446411e+003;9.592109e-002
1.448340e+003;9.686110e-002
1.450268e+003;9.789397e-002
1.452197e+003;9.868444e-002
1.454125e+003;9.907503e-002
1.456054e+003;9.886688e-002
1.457982e+003;9.832045e-002
1.459911e+003;9.758767e-002
1.461839e+003;9.663190e-002
1.463768e+003;9.478450e-002
1.465697e+003;9.198820e-002
1.467625e+003;8.885760e-002
1.469554e+003;8.486031e-002
1.471482e+003;8.089085e-002
1.473411e+003;7.714216e-002
1.475339e+003;7.343728e-002
1.477268e+003;7.033256e-002
1.479196e+003;6.791621e-002
1.481125e+003;6.603607e-002
1.483053e+003;6.446704e-002
1.484982e+003;6.338671e-002
1.486911e+003;6.281898e-002
1.488839e+003;6.270918e-002
1.490768e+003;6.300289e-002
1.492696e+003;6.368226e-002
1.494625e+003;6.465672e-002
1.496553e+003;6.611091e-002
1.498482e+003;6.789490e-002
1.500410e+003;6.935902e-002
1.502339e+003;7.010327e-002
1.504267e+003;6.993871e-002
1.506196e+003;6.895413e-002
1.508125e+003;6.779504e-002
1.510053e+003;6.605173e-002
1.511982e+003;6.352825e-002
1.513910e+003;6.078248e-002
1.515839e+003;5.800698e-002
1.517767e+003;5.551055e-002
1.519696e+003;5.320610e-002
1.521624e+003;5.115377e-002
1.523553e+003;4.960433e-002
1.525481e+003;4.842267e-002
1.527410e+003;4.758307e-002
1.529339e+003;4.702491e-002
1.531267e+003;4.669306e-002
1.533196e+003;4.670656e-002
1.535124e+003;4.696170e-002
1.537053e+003;4.710345e-002
1.538981e+003;4.702070e-002
1.540910e+003;4.724824e-002
1.542838e+003;4.766378e-002
1.544767e+003;4.804723e-002
1.546695e+003;4.854900e-002
1.548624e+003;4.879803e-002
1.550553e+003;4.933060e-002
1.552481e+003;4.993276e-002
1.554410e+003;5.032011e-002
1.556338e+003;5.053539e-002
1.558267e+003;5.074259e-002
1.560195e+003;5.199228e-002
1.562124e+003;5.351609e-002
1.564052e+003;5.443760e-002
1.565981e+003;5.524424e-002
1.567910e+003;5.637367e-002
1.569838e+003;5.803546e-002
1.571767e+003;5.987010e-002
1.573695e+003;6.184401e-002
1.575624e+003;6.379627e-002
1.577552e+003;6.621004e-002
1.579481e+003;6.899001e-002
1.581409e+003;7.193568e-002
1.583338e+003;7.506599e-002
1.585266e+003;7.835226e-002
1.587195e+003;8.145226e-002
1.589124e+003;8.407604e-002
1.591052e+003;8.588627e-002
1.592981e+003;8.664914e-002
1.594909e+003;8.688952e-002
1.596838e+003;8.713619e-002
1.598766e+003;8.648090e-002
1.600695e+003;8.525785e-002
1.602623e+003;8.433190e-002
1.604552e+003;8.350682e-002
1.606480e+003;8.279875e-002
1.608409e+003;8.176609e-002
1.610338e+003;8.038244e-002
1.612266e+003;7.894234e-002
1.614195e+003;7.762607e-002
1.616123e+003;7.666010e-002
1.618052e+003;7.560421e-002
1.619980e+003;7.437374e-002
1.621909e+003;7.320391e-002
1.623837e+003;7.230274e-002
1.625766e+003;7.158452e-002
1.627694e+003;7.069207e-002
1.629623e+003;6.990481e-002
1.631552e+003;6.933076e-002
1.633480e+003;6.847462e-002
1.635409e+003;6.784543e-002
1.637337e+003;6.750847e-002
1.639266e+003;6.690357e-002
1.641194e+003;6.617685e-002
1.643123e+003;6.542785e-002
1.645051e+003;6.448153e-002
1.646980e+003;6.381238e-002
1.648909e+003;6.354834e-002
1.650837e+003;6.295639e-002
1.652766e+003;6.196139e-002
1.654694e+003;6.160056e-002
1.656623e+003;6.113261e-002
1.658551e+003;6.039198e-002
1.660480e+003;5.969196e-002
1.662408e+003;5.863852e-002
1.664337e+003;5.779428e-002
1.666266e+003;5.681949e-002
1.668194e+003;5.560913e-002
1.670123e+003;5.472584e-002
1.672051e+003;5.384199e-002
1.673980e+003;5.242068e-002
1.675908e+003;5.129895e-002
1.677837e+003;5.063110e-002
1.679765e+003;4.977849e-002
1.681694e+003;4.849821e-002
1.683622e+003;4.695362e-002
1.685551e+003;4.607787e-002
1.687479e+003;4.554339e-002
1.689408e+003;4.500100e-002
1.691337e+003;4.437113e-002
1.693265e+003;4.372726e-002
1.695194e+003;4.291080e-002
1.697122e+003;4.216158e-002
1.699051e+003;4.164616e-002
1.700979e+003;4.141810e-002
1.702908e+003;4.134434e-002
1.704836e+003;4.099542e-002
1.706765e+003;4.074802e-002
1.708693e+003;4.046370e-002
1.710622e+003;4.029930e-002
1.712551e+003;4.016270e-002
1.714479e+003;3.998283e-002
1.716408e+003;3.949143e-002
1.718336e+003;3.930299e-002
1.720265e+003;3.956089e-002
1.722193e+003;3.965483e-002
1.724122e+003;3.981034e-002
1.726050e+003;3.973144e-002
1.727979e+003;3.950145e-002
1.729908e+003;3.949139e-002
1.731836e+003;3.935153e-002
1.733765e+003;3.893962e-002
1.735693e+003;3.884605e-002
1.737622e+003;3.873841e-002
1.739550e+003;3.838008e-002
1.741479e+003;3.804514e-002
1.743407e+003;3.753960e-002
1.745336e+003;3.713897e-002
1.747265e+003;3.669977e-002
1.749193e+003;3.644522e-002
1.751122e+003;3.630852e-002
1.753050e+003;3.599552e-002
1.754979e+003;3.533515e-002
1.756907e+003;3.463534e-002
1.758836e+003;3.412027e-002
1.760764e+003;3.359639e-002
1.762693e+003;3.326652e-002
1.764621e+003;3.311566e-002
1.766550e+003;3.227681e-002
1.768479e+003;3.153565e-002
1.770407e+003;3.121969e-002
1.772336e+003;3.079252e-002
1.774264e+003;3.033919e-002
1.776193e+003;2.992015e-002
1.778121e+003;2.961456e-002
1.780050e+003;2.932701e-002
1.781978e+003;2.923808e-002
1.783907e+003;2.928582e-002
1.785835e+003;2.907600e-002
1.787764e+003;2.850767e-002
1.789693e+003;2.811500e-002
1.791621e+003;2.803947e-002
1.793550e+003;2.794023e-002
1.795478e+003;2.794677e-002
1.797407e+003;2.778330e-002
1.799335e+003;2.747829e-002
1.801264e+003;2.747910e-002
1.803192e+003;2.773749e-002
1.805121e+003;2.783219e-002
1.807049e+003;2.766855e-002
1.808978e+003;2.724432e-002
1.810907e+003;2.703848e-002
1.812835e+003;2.699712e-002
1.814764e+003;2.696553e-002
1.816692e+003;2.697505e-002
1.818621e+003;2.703926e-002
1.820549e+003;2.706842e-002
1.822478e+003;2.701140e-002
1.824406e+003;2.672807e-002
1.826335e+003;2.671496e-002
1.828264e+003;2.686580e-002
1.830192e+003;2.698013e-002
1.832121e+003;2.711159e-002
1.834049e+003;2.705090e-002
1.835978e+003;2.699148e-002
1.837906e+003;2.693274e-002
1.839835e+003;2.701722e-002
1.841763e+003;2.701338e-002
1.843692e+003;2.671937e-002
1.845620e+003;2.672856e-002
1.847549e+003;2.686767e-002
1.849478e+003;2.670531e-002
1.851406e+003;2.652892e-002
1.853335e+003;2.642774e-002
1.855263e+003;2.647715e-002
1.857192e+003;2.648528e-002
1.859120e+003;2.648338e-002
1.861049e+003;2.639735e-002
1.862977e+003;2.631849e-002
1.864906e+003;2.611795e-002
1.866834e+003;2.609799e-002
1.868763e+003;2.623376e-002
1.870692e+003;2.648627e-002
1.872620e+003;2.685371e-002
1.874549e+003;2.706370e-002
1.876477e+003;2.693768e-002
1.878406e+003;2.668181e-002
1.880334e+003;2.655284e-002
1.882263e+003;2.643996e-002
1.884191e+003;2.641971e-002
1.886120e+003;2.619909e-002
1.888048e+003;2.604796e-002
1.889977e+003;2.638884e-002
1.891906e+003;2.664679e-002
1.893834e+003;2.668505e-002
1.895763e+003;2.683711e-002
1.897691e+003;2.691339e-002
1.899620e+003;2.696557e-002
1.901548e+003;2.692523e-002
1.903477e+003;2.695379e-002
1.905405e+003;2.707636e-002
1.907334e+003;2.701179e-002
1.909262e+003;2.718312e-002
1.911191e+003;2.749417e-002
1.913120e+003;2.741977e-002
1.915048e+003;2.721952e-002
1.916977e+003;2.725103e-002
1.918905e+003;2.744084e-002
1.920834e+003;2.762342e-002
1.922762e+003;2.776635e-002
1.924691e+003;2.791317e-002
1.926619e+003;2.790260e-002
1.928548e+003;2.780774e-002
1.930477e+003;2.799292e-002
1.932405e+003;2.829197e-002
1.934334e+003;2.850106e-002
1.936262e+003;2.860615e-002
1.938191e+003;2.846221e-002
1.940119e+003;2.834969e-002
1.942048e+003;2.864841e-002
1.943976e+003;2.878951e-002
1.945905e+003;2.891136e-002
1.947833e+003;2.934920e-002
1.949762e+003;2.958504e-002
1.951691e+003;2.945241e-002
1.953619e+003;2.945684e-002
1.955548e+003;2.965741e-002
1.957476e+003;2.968139e-002
1.959405e+003;2.962073e-002
1.961333e+003;2.964318e-002
1.963262e+003;2.955699e-002
1.965190e+003;2.962715e-002
1.967119e+003;2.959430e-002
1.969047e+003;2.966851e-002
1.970976e+003;3.006270e-002
1.972905e+003;3.009189e-002
1.974833e+003;3.008056e-002
1.976762e+003;3.023388e-002
1.978690e+003;3.032426e-002
1.980619e+003;3.017364e-002
1.982547e+003;3.012775e-002
1.984476e+003;3.051329e-002
1.986404e+003;3.076286e-002
1.988333e+003;3.082692e-002
1.990261e+003;3.092546e-002
1.992190e+003;3.109784e-002
1.994119e+003;3.128557e-002
1.996047e+003;3.133233e-002
1.997976e+003;3.130187e-002
1.999904e+003;3.143212e-002
2.001833e+003;3.163756e-002
2.003761e+003;3.169712e-002
2.005690e+003;3.184260e-002
2.007618e+003;3.205409e-002
2.009547e+003;3.219801e-002
2.011476e+003;3.254960e-002
2.013404e+003;3.286041e-002
2.015333e+003;3.293908e-002
2.017261e+003;3.296403e-002
2.019190e+003;3.309417e-002
2.021118e+003;3.305920e-002
2.023047e+003;3.337653e-002
2.024975e+003;3.366746e-002
2.026904e+003;3.367830e-002
2.028833e+003;3.362424e-002
2.030761e+003;3.370799e-002
2.032690e+003;3.416289e-002
2.034618e+003;3.448286e-002
2.036547e+003;3.427986e-002
2.038475e+003;3.428625e-002
2.040404e+003;3.458234e-002
2.042332e+003;3.455877e-002
2.044261e+003;3.436478e-002
2.046189e+003;3.442033e-002
2.048118e+003;3.469502e-002
2.050047e+003;3.497300e-002
2.051975e+003;3.509250e-002
2.053904e+003;3.519122e-002
2.055832e+003;3.519776e-002
2.057761e+003;3.500115e-002
2.059689e+003;3.500338e-002
2.061618e+003;3.505740e-002
2.063546e+003;3.498018e-002
2.065475e+003;3.497706e-002
2.067404e+003;3.493206e-002
2.069332e+003;3.500083e-002
2.071260e+003;3.511136e-002
2.073189e+003;3.510777e-002
2.075118e+003;3.517826e-002
2.077046e+003;3.532994e-002
2.078975e+003;3.514049e-002
2.080903e+003;3.486104e-002
2.082832e+003;3.474552e-002
2.084760e+003;3.479268e-002
2.086689e+003;3.500331e-002
2.088617e+003;3.513449e-002
2.090546e+003;3.510424e-002
2.092475e+003;3.483979e-002
2.094403e+003;3.468658e-002
2.096332e+003;3.490879e-002
2.098260e+003;3.531790e-002
2.100189e+003;3.564285e-002
2.102117e+003;3.561887e-002
2.104046e+003;3.547071e-002
2.105974e+003;3.560790e-002
2.107903e+003;3.568771e-002
2.109832e+003;3.572063e-002
2.111760e+003;3.579891e-002
2.113688e+003;3.569451e-002
2.115617e+003;3.566732e-002
2.117546e+003;3.572923e-002
2.119474e+003;3.560987e-002
2.121403e+003;3.562826e-002
2.123331e+003;3.580284e-002
2.125260e+003;3.602378e-002
2.127188e+003;3.592756e-002
2.129117e+003;3.567829e-002
2.131045e+003;3.566242e-002
2.132974e+003;3.585491e-002
2.134903e+003;3.604070e-002
2.136831e+003;3.605190e-002
2.138760e+003;3.609348e-002
2.140688e+003;3.574099e-002
2.142617e+003;3.524254e-002
2.144545e+003;3.538964e-002
2.146474e+003;3.556237e-002
2.148402e+003;3.558376e-002
2.150331e+003;3.575358e-002
2.152260e+003;3.578798e-002
2.154188e+003;3.563200e-002
2.156117e+003;3.547046e-002
2.158045e+003;3.537034e-002
2.159974e+003;3.526442e-002
2.161902e+003;3.535722e-002
2.163831e+003;3.562088e-002
2.165759e+003;3.553191e-002
2.167688e+003;3.546654e-002
2.169616e+003;3.552382e-002
2.171545e+003;3.550901e-002
2.173474e+003;3.511811e-002
2.175402e+003;3.490093e-002
2.177331e+003;3.503592e-002
2.179259e+003;3.497580e-002
2.181188e+003;3.504049e-002
2.183116e+003;3.512961e-002
2.185045e+003;3.501750e-002
2.186973e+003;3.495109e-002
2.188902e+003;3.494463e-002
2.190831e+003;3.473654e-002
2.192759e+003;3.458230e-002
2.194688e+003;3.441072e-002
2.196616e+003;3.454890e-002
2.198545e+003;3.492495e-002
2.200473e+003;3.494639e-002
2.202402e+003;3.478866e-002
2.204330e+003;3.457236e-002
2.206259e+003;3.437977e-002
2.208188e+003;3.433982e-002
2.210116e+003;3.442514e-002
2.212044e+003;3.447794e-002
2.213973e+003;3.437062e-002
2.215902e+003;3.425527e-002
2.217830e+003;3.435499e-002
2.219759e+003;3.449448e-002
2.221687e+003;3.429166e-002
2.223616e+003;3.430529e-002
2.225544e+003;3.469613e-002
2.227473e+003;3.453577e-002
2.229401e+003;3.427105e-002
2.231330e+003;3.460351e-002
2.233259e+003;3.491544e-002
2.235187e+003;3.471641e-002
2.237116e+003;3.442374e-002
2.239044e+003;3.442783e-002
2.240973e+003;3.449419e-002
2.242901e+003;3.450369e-002
2.244830e+003;3.452522e-002
2.246758e+003;3.472488e-002
2.248687e+003;3.490542e-002
2.250615e+003;3.466247e-002
2.252544e+003;3.431669e-002
2.254473e+003;3.431594e-002
2.256401e+003;3.451518e-002
2.258330e+003;3.461955e-002
2.260258e+003;3.468382e-002
2.262187e+003;3.461671e-002
2.264115e+003;3.450420e-002
2.266044e+003;3.446373e-002
2.267972e+003;3.446901e-002
2.269901e+003;3.444214e-002
2.271830e+003;3.433433e-002
2.273758e+003;3.403178e-002
2.275687e+003;3.398480e-002
2.277615e+003;3.413661e-002
2.279544e+003;3.427531e-002
2.281472e+003;3.423490e-002
2.283401e+003;3.414027e-002
2.285329e+003;3.422788e-002
2.287258e+003;3.408048e-002
2.289187e+003;3.405884e-002
2.291115e+003;3.423569e-002
2.293043e+003;3.412041e-002
2.294972e+003;3.420182e-002
2.296901e+003;3.444354e-002
2.298829e+003;3.431296e-002
2.300758e+003;3.416572e-002
2.302686e+003;3.411604e-002
2.304615e+003;3.423559e-002
2.306543e+003;3.440380e-002
2.308472e+003;3.436191e-002
2.310400e+003;3.412453e-002
2.312329e+003;3.379336e-002
2.314258e+003;3.370480e-002
2.316186e+003;3.390767e-002
2.318115e+003;3.391458e-002
2.320043e+003;3.383814e-002
2.321972e+003;3.396585e-002
2.323900e+003;3.398405e-002
2.325829e+003;3.407267e-002
2.327757e+003;3.405547e-002
2.329686e+003;3.375956e-002
2.331615e+003;3.344470e-002
2.333543e+003;3.347276e-002
2.335472e+003;3.379970e-002
2.337400e+003;3.403451e-002
2.339329e+003;3.418145e-002
2.341257e+003;3.454671e-002
2.343186e+003;3.473611e-002
2.345114e+003;3.508337e-002
2.347043e+003;3.529619e-002
2.348971e+003;3.538177e-002
2.350900e+003;3.539457e-002
2.352829e+003;3.511509e-002
2.354757e+003;3.469448e-002
2.356686e+003;3.432806e-002
2.358614e+003;3.422677e-002
2.360543e+003;3.456494e-002
2.362471e+003;3.494865e-002
2.364400e+003;3.474462e-002
2.366328e+003;3.480654e-002
2.368257e+003;3.529403e-002
2.370186e+003;3.558722e-002
2.372114e+003;3.587970e-002
2.374042e+003;3.618120e-002
2.375971e+003;3.633706e-002
2.377900e+003;3.644172e-002
2.379828e+003;3.655352e-002
2.381757e+003;3.666790e-002
2.383685e+003;3.665030e-002
2.385614e+003;3.661595e-002
2.387542e+003;3.687013e-002
2.389471e+003;3.707181e-002
2.391399e+003;3.702201e-002
2.393328e+003;3.718582e-002
2.395257e+003;3.752038e-002
2.397185e+003;3.771842e-002
2.399114e+003;3.780397e-002
2.401042e+003;3.785371e-002
2.402971e+003;3.780661e-002
2.404899e+003;3.786026e-002
2.406828e+003;3.795058e-002
2.408756e+003;3.801823e-002
2.410685e+003;3.818177e-002
2.412614e+003;3.834012e-002
2.414542e+003;3.842623e-002
2.416471e+003;3.873033e-002
2.418399e+003;3.887594e-002
2.420328e+003;3.860150e-002
2.422256e+003;3.858977e-002
2.424185e+003;3.909853e-002
2.426113e+003;3.946019e-002
2.428042e+003;3.939045e-002
2.429970e+003;3.929004e-002
2.431899e+003;3.935784e-002
2.433828e+003;3.953280e-002
2.435756e+003;3.960129e-002
2.437685e+003;3.989100e-002
2.439613e+003;4.020185e-002
2.441542e+003;4.014827e-002
2.443470e+003;3.999697e-002
2.445399e+003;4.022732e-002
2.447327e+003;4.067488e-002
2.449256e+003;4.083483e-002
2.451185e+003;4.076538e-002
2.453113e+003;4.078554e-002
2.455042e+003;4.084116e-002
2.456970e+003;4.070635e-002
2.458899e+003;4.080025e-002
2.460827e+003;4.096512e-002
2.462756e+003;4.087950e-002
2.464684e+003;4.099083e-002
2.466613e+003;4.114034e-002
2.468542e+003;4.110326e-002
2.470470e+003;4.141154e-002
2.472398e+003;4.178742e-002
2.474327e+003;4.182770e-002
2.476256e+003;4.148364e-002
2.478184e+003;4.136387e-002
2.480113e+003;4.173092e-002
2.482041e+003;4.209105e-002
2.483970e+003;4.234268e-002
2.485898e+003;4.239309e-002
2.487827e+003;4.213982e-002
2.489755e+003;4.177706e-002
2.491684e+003;4.194114e-002
2.493613e+003;4.225247e-002
2.495541e+003;4.229644e-002
2.497470e+003;4.235781e-002
2.499398e+003;4.234524e-002
2.501327e+003;4.244556e-002
2.503255e+003;4.259790e-002
2.505184e+003;4.281589e-002
2.507112e+003;4.317806e-002
2.509041e+003;4.323721e-002
2.510969e+003;4.312869e-002
2.512898e+003;4.341147e-002
2.514827e+003;4.358573e-002
2.516755e+003;4.360463e-002
2.518684e+003;4.360881e-002
2.520612e+003;4.370795e-002
2.522541e+003;4.385355e-002
2.524469e+003;4.400775e-002
2.526398e+003;4.388915e-002
2.528326e+003;4.368842e-002
2.530255e+003;4.394491e-002
2.532184e+003;4.414792e-002
2.534112e+003;4.406800e-002
2.536041e+003;4.411480e-002
2.537969e+003;4.432287e-002
2.539898e+003;4.430420e-002
2.541826e+003;4.413303e-002
2.543755e+003;4.418860e-002
2.545683e+003;4.406881e-002
2.547612e+003;4.397479e-002
2.549541e+003;4.417700e-002
2.551469e+003;4.423812e-002
2.553397e+003;4.425034e-002
2.555326e+003;4.449247e-002
2.557255e+003;4.477067e-002
2.559183e+003;4.487177e-002
2.561112e+003;4.469600e-002
2.563040e+003;4.468163e-002
2.564969e+003;4.491016e-002
2.566897e+003;4.475487e-002
2.568826e+003;4.468615e-002
2.570754e+003;4.479025e-002
2.572683e+003;4.451042e-002
2.574612e+003;4.469001e-002
2.576540e+003;4.515362e-002
2.578469e+003;4.524050e-002
2.580397e+003;4.530431e-002
2.582326e+003;4.533185e-002
2.584254e+003;4.532185e-002
2.586183e+003;4.551682e-002
2.588111e+003;4.555203e-002
2.590040e+003;4.543536e-002
2.591969e+003;4.545780e-002
2.593897e+003;4.565247e-002
2.595826e+003;4.579773e-002
2.597754e+003;4.585727e-002
2.599683e+003;4.596139e-002
2.601611e+003;4.606711e-002
2.603540e+003;4.589708e-002
2.605468e+003;4.565519e-002
2.607397e+003;4.564842e-002
2.609325e+003;4.603712e-002
2.611254e+003;4.629231e-002
2.613183e+003;4.656778e-002
2.615111e+003;4.670070e-002
2.617040e+003;4.685122e-002
2.618968e+003;4.715660e-002
2.620897e+003;4.726457e-002
2.622825e+003;4.711246e-002
2.624754e+003;4.708890e-002
2.626682e+003;4.733023e-002
2.628611e+003;4.743329e-002
2.630540e+003;4.713008e-002
2.632468e+003;4.724023e-002
2.634396e+003;4.755205e-002
2.636325e+003;4.772931e-002
2.638254e+003;4.818600e-002
2.640182e+003;4.854697e-002
2.642111e+003;4.844112e-002
2.644039e+003;4.821239e-002
2.645968e+003;4.826938e-002
2.647896e+003;4.852721e-002
2.649825e+003;4.865528e-002
2.651753e+003;4.864828e-002
2.653682e+003;4.879778e-002
2.655611e+003;4.881405e-002
2.657539e+003;4.894298e-002
2.659468e+003;4.942890e-002
2.661396e+003;4.957636e-002
2.663325e+003;4.931716e-002
2.665253e+003;4.916018e-002
2.667182e+003;4.926379e-002
2.669110e+003;4.921372e-002
2.671039e+003;4.936976e-002
2.672968e+003;4.938851e-002
2.674896e+003;4.910794e-002
2.676825e+003;4.942188e-002
2.678753e+003;4.989329e-002
2.680682e+003;5.027156e-002
2.682610e+003;5.041908e-002
2.684539e+003;5.021502e-002
2.686467e+003;5.014990e-002
2.688396e+003;5.054198e-002
2.690324e+003;5.085760e-002
2.692253e+003;5.083898e-002
2.694182e+003;5.096732e-002
2.696110e+003;5.111523e-002
2.698039e+003;5.110927e-002
2.699967e+003;5.119824e-002
2.701896e+003;5.132934e-002
2.703824e+003;5.172234e-002
2.705753e+003;5.182466e-002
2.707681e+003;5.175574e-002
2.709610e+003;5.178195e-002
2.711539e+003;5.181521e-002
2.713467e+003;5.187674e-002
2.715396e+003;5.208435e-002
2.717324e+003;5.231239e-002
2.719253e+003;5.231486e-002
2.721181e+003;5.246312e-002
2.723110e+003;5.265800e-002
2.725038e+003;5.256438e-002
2.726967e+003;5.264094e-002
2.728896e+003;5.301001e-002
2.730824e+003;5.303194e-002
2.732752e+003;5.275410e-002
2.734681e+003;5.273075e-002
2.736610e+003;5.304168e-002
2.738538e+003;5.326352e-002
2.740467e+003;5.328925e-002
2.742395e+003;5.316082e-002
2.744324e+003;5.322374e-002
2.746252e+003;5.345400e-002
2.748181e+003;5.356392e-002
2.750109e+003;5.372963e-002
2.752038e+003;5.366004e-002
2.753967e+003;5.371515e-002
2.755895e+003;5.380399e-002
2.757824e+003;5.380804e-002
2.759752e+003;5.354529e-002
2.761681e+003;5.349410e-002
2.763609e+003;5.393963e-002
2.765538e+003;5.418862e-002
2.767466e+003;5.436328e-002
2.769395e+003;5.468101e-002
2.771323e+003;5.475817e-002
2.773252e+003;5.468154e-002
2.775181e+003;5.469510e-002
2.777109e+003;5.494212e-002
2.779038e+003;5.497991e-002
2.780966e+003;5.480621e-002
2.782895e+003;5.525640e-002
2.784823e+003;5.601364e-002
2.786752e+003;5.613157e-002
2.788680e+003;5.593358e-002
2.790609e+003;5.629238e-002
2.792538e+003;5.655544e-002
2.794466e+003;5.649132e-002
2.796395e+003;5.660496e-002
2.798323e+003;5.662746e-002
2.800252e+003;5.687040e-002
2.802180e+003;5.750010e-002
2.804109e+003;5.780049e-002
2.806037e+003;5.801323e-002
2.807966e+003;5.859961e-002
2.809895e+003;5.893508e-002
2.811823e+003;5.925515e-002
2.813751e+003;5.944941e-002
2.815680e+003;5.967276e-002
2.817609e+003;5.996827e-002
2.819537e+003;6.047534e-002
2.821466e+003;6.113631e-002
2.823394e+003;6.155184e-002
2.825323e+003;6.228852e-002
2.827251e+003;6.314895e-002
2.829180e+003;6.344150e-002
2.831108e+003;6.377804e-002
2.833037e+003;6.457783e-002
2.834966e+003;6.559341e-002
2.836894e+003;6.644068e-002
2.838823e+003;6.728686e-002
2.840751e+003;6.818904e-002
2.842680e+003;6.877828e-002
2.844608e+003;6.955416e-002
2.846537e+003;7.038009e-002
2.848465e+003;7.145904e-002
2.850394e+003;7.235961e-002
2.852323e+003;7.315239e-002
2.854251e+003;7.426565e-002
2.856180e+003;7.541059e-002
2.858108e+003;7.633962e-002
2.860037e+003;7.717057e-002
2.861965e+003;7.800554e-002
2.863894e+003;7.897111e-002
2.865822e+003;7.974943e-002
2.867751e+003;8.038579e-002
2.869679e+003;8.143838e-002
2.871608e+003;8.219837e-002
2.873536e+003;8.233523e-002
2.875465e+003;8.258566e-002
2.877394e+003;8.275020e-002
2.879322e+003;8.320918e-002
2.881251e+003;8.401922e-002
2.883179e+003;8.452125e-002
2.885108e+003;8.444127e-002
2.887036e+003;8.440860e-002
2.888965e+003;8.460659e-002
2.890893e+003;8.493455e-002
2.892822e+003;8.503312e-002
2.894750e+003;8.497126e-002
2.896679e+003;8.510555e-002
2.898608e+003;8.514339e-002
2.900536e+003;8.517311e-002
2.902465e+003;8.518568e-002
2.904393e+003;8.426668e-002
2.906322e+003;8.358489e-002
2.908250e+003;8.366595e-002
2.910179e+003;8.325084e-002
2.912107e+003;8.267648e-002
2.914036e+003;8.216897e-002
2.915965e+003;8.147816e-002
2.917893e+003;8.127495e-002
2.919822e+003;8.112758e-002
2.921750e+003;8.048101e-002
2.923679e+003;7.989740e-002
2.925607e+003;7.938334e-002
2.927536e+003;7.873960e-002
2.929464e+003;7.788898e-002
2.931393e+003;7.743175e-002
2.933322e+003;7.700869e-002
2.935250e+003;7.659373e-002
2.937178e+003;7.582857e-002
2.939107e+003;7.517982e-002
2.941036e+003;7.465452e-002
2.942964e+003;7.414214e-002
2.944893e+003;7.332245e-002
2.946821e+003;7.249568e-002
2.948750e+003;7.160456e-002
2.950678e+003;7.020090e-002
2.952607e+003;6.916152e-002
2.954535e+003;6.796785e-002
2.956464e+003;6.670119e-002
2.958393e+003;6.591723e-002
2.960321e+003;6.539773e-002
2.962250e+003;6.459224e-002
2.964178e+003;6.397802e-002
2.966107e+003;6.380635e-002
2.968035e+003;6.332019e-002
2.969964e+003;6.222519e-002
2.971892e+003;6.140312e-002
2.973821e+003;6.101221e-002
2.975750e+003;6.080631e-002
2.977678e+003;6.058378e-002
2.979607e+003;6.007347e-002
2.981535e+003;5.944527e-002
2.983464e+003;5.915611e-002
2.985392e+003;5.878577e-002
2.987321e+003;5.809803e-002
2.989249e+003;5.755196e-002
2.991178e+003;5.762327e-002
2.993106e+003;5.757303e-002
2.995035e+003;5.735726e-002
2.996964e+003;5.723034e-002
2.998892e+003;5.698629e-002
3.000821e+003;5.677319e-002
3.002749e+003;5.679419e-002
3.004678e+003;5.665554e-002
3.006606e+003;5.648724e-002
3.008535e+003;5.669092e-002
3.010463e+003;5.672565e-002
3.012392e+003;5.627424e-002
3.014321e+003;5.626605e-002
3.016249e+003;5.679902e-002
3.018177e+003;5.692098e-002
3.020106e+003;5.716480e-002
3.022035e+003;5.743187e-002
3.023963e+003;5.705985e-002
3.025892e+003;5.684740e-002
3.027820e+003;5.681737e-002
3.029749e+003;5.669035e-002
3.031677e+003;5.720831e-002
3.033606e+003;5.765578e-002
3.035534e+003;5.783168e-002
3.037463e+003;5.791414e-002
3.039392e+003;5.814291e-002
3.041320e+003;5.834467e-002
3.043249e+003;5.822035e-002
3.045177e+003;5.843068e-002
3.047106e+003;5.864990e-002
3.049034e+003;5.897363e-002
3.050963e+003;5.918429e-002
3.052891e+003;5.948216e-002
3.054820e+003;6.023604e-002
3.056749e+003;6.069030e-002
3.058677e+003;6.071945e-002
3.060606e+003;6.058309e-002
3.062534e+003;6.059970e-002
3.064463e+003;6.108665e-002
3.066391e+003;6.137522e-002
3.068320e+003;6.189937e-002
3.070248e+003;6.226056e-002
3.072177e+003;6.205957e-002
3.074105e+003;6.224611e-002
3.076034e+003;6.318017e-002
3.077963e+003;6.346915e-002
3.079891e+003;6.334560e-002
3.081820e+003;6.373294e-002
3.083748e+003;6.396807e-002
3.085677e+003;6.407811e-002
3.087605e+003;6.455018e-002
3.089534e+003;6.535802e-002
3.091462e+003;6.599206e-002
3.093391e+003;6.599583e-002
3.095320e+003;6.599645e-002
3.097248e+003;6.671452e-002
3.099177e+003;6.714758e-002
3.101105e+003;6.700207e-002
3.103034e+003;6.706382e-002
3.104962e+003;6.743262e-002
3.106891e+003;6.779372e-002
3.108819e+003;6.809702e-002
3.110748e+003;6.867918e-002
3.112677e+003;6.940609e-002
3.114605e+003;6.957749e-002
3.116533e+003;6.953611e-002
3.118462e+003;7.019611e-002
3.120391e+003;7.101781e-002
3.122319e+003;7.138034e-002
3.124248e+003;7.182655e-002
3.126176e+003;7.220487e-002
3.128105e+003;7.238857e-002
3.130033e+003;7.263622e-002
3.131962e+003;7.306417e-002
3.133890e+003;7.337905e-002
3.135819e+003;7.378151e-002
3.137748e+003;7.397790e-002
3.139676e+003;7.398099e-002
3.141605e+003;7.448429e-002
3.143533e+003;7.490917e-002
3.145462e+003;7.531273e-002
3.147390e+003;7.586937e-002
3.149319e+003;7.623898e-002
3.151247e+003;7.661606e-002
3.153176e+003;7.734372e-002
3.155104e+003;7.798512e-002
3.157033e+003;7.844620e-002
3.158962e+003;7.881436e-002
3.160890e+003;7.941035e-002
3.162819e+003;7.986367e-002
3.164747e+003;8.052145e-002
3.166676e+003;8.139854e-002
3.168604e+003;8.178749e-002
3.170533e+003;8.182977e-002
3.172461e+003;8.217246e-002
3.174390e+003;8.287473e-002
3.176319e+003;8.342197e-002
3.178247e+003;8.426701e-002
3.180176e+003;8.473013e-002
3.182104e+003;8.518762e-002
3.184033e+003;8.533705e-002
3.185961e+003;8.524612e-002
3.187890e+003;8.572187e-002
3.189818e+003;8.692619e-002
3.191747e+003;8.802315e-002
3.193676e+003;8.857305e-002
3.195604e+003;8.864006e-002
3.197532e+003;8.867094e-002
3.199461e+003;8.926391e-002
3.201390e+003;8.998382e-002
3.203318e+003;9.052887e-002
3.205247e+003;9.129868e-002
3.207175e+003;9.213478e-002
3.209104e+003;9.252646e-002
3.211032e+003;9.259880e-002
3.212961e+003;9.285743e-002
3.214889e+003;9.349547e-002
3.216818e+003;9.445284e-002
3.218747e+003;9.493001e-002
3.220675e+003;9.541287e-002
3.222604e+003;9.624908e-002
3.224532e+003;9.656295e-002
3.226461e+003;9.709204e-002
3.228389e+003;9.822381e-002
3.230318e+003;9.890632e-002
3.232246e+003;9.908623e-002
3.234175e+003;9.923965e-002
3.236104e+003;1.001082e-001
3.238032e+003;1.012958e-001
3.239961e+003;1.014662e-001
3.241889e+003;1.015700e-001
3.243818e+003;1.027418e-001
3.245746e+003;1.037855e-001
3.247675e+003;1.047492e-001
3.249603e+003;1.051422e-001
3.251532e+003;1.052322e-001
3.253460e+003;1.056958e-001
3.255389e+003;1.065658e-001
3.257318e+003;1.073635e-001
3.259246e+003;1.078444e-001
3.261175e+003;1.082835e-001
3.263103e+003;1.085548e-001
3.265032e+003;1.091348e-001
3.266960e+003;1.102874e-001
3.268889e+003;1.108814e-001
3.270817e+003;1.110202e-001
3.272746e+003;1.116851e-001
3.274675e+003;1.119992e-001
3.276603e+003;1.122622e-001
3.278531e+003;1.130193e-001
3.280460e+003;1.137060e-001
3.282389e+003;1.144532e-001
3.284317e+003;1.147685e-001
3.286246e+003;1.150538e-001
3.288174e+003;1.152971e-001
3.290103e+003;1.154219e-001
3.292031e+003;1.154537e-001
3.293960e+003;1.157106e-001
3.295888e+003;1.156008e-001
3.297817e+003;1.155707e-001
3.299746e+003;1.162371e-001
3.301674e+003;1.169232e-001
3.303603e+003;1.171489e-001
3.305531e+003;1.174903e-001
3.307460e+003;1.181673e-001
3.309388e+003;1.184117e-001
3.311317e+003;1.184140e-001
3.313245e+003;1.184135e-001
3.315174e+003;1.184981e-001
3.317103e+003;1.190343e-001
3.319031e+003;1.194818e-001
3.320960e+003;1.194472e-001
3.322888e+003;1.194547e-001
3.324817e+003;1.198847e-001
3.326745e+003;1.202511e-001
3.328674e+003;1.208014e-001
3.330602e+003;1.213650e-001
3.332531e+003;1.214552e-001
3.334459e+003;1.212335e-001
3.336388e+003;1.209455e-001
3.338317e+003;1.208110e-001
3.340245e+003;1.208020e-001
3.342174e+003;1.209087e-001
3.344102e+003;1.208128e-001
3.346031e+003;1.208443e-001
3.347959e+003;1.208600e-001
3.349888e+003;1.205317e-001
3.351816e+003;1.200756e-001
3.353745e+003;1.199760e-001
3.355674e+003;1.202806e-001
3.357602e+003;1.200498e-001
3.359531e+003;1.192798e-001
3.361459e+003;1.184081e-001
3.363388e+003;1.179765e-001
3.365316e+003;1.182390e-001
3.367245e+003;1.182307e-001
3.369173e+003;1.179400e-001
3.371102e+003;1.182174e-001
3.373031e+003;1.182942e-001
3.374959e+003;1.183032e-001
3.376887e+003;1.177945e-001
3.378816e+003;1.170814e-001
3.380745e+003;1.165196e-001
3.382673e+003;1.155031e-001
3.384602e+003;1.151000e-001
3.386530e+003;1.150100e-001
3.388459e+003;1.145405e-001
3.390387e+003;1.143490e-001
3.392316e+003;1.144237e-001
3.394244e+003;1.141799e-001
3.396173e+003;1.136940e-001
3.398102e+003;1.132595e-001
3.400030e+003;1.129528e-001
3.401959e+003;1.127683e-001
3.403887e+003;1.124122e-001
3.405816e+003;1.122656e-001
3.407744e+003;1.118883e-001
3.409673e+003;1.109075e-001
3.411601e+003;1.102387e-001
3.413530e+003;1.093037e-001
3.415458e+003;1.087298e-001
3.417387e+003;1.083745e-001
3.419316e+003;1.076474e-001
3.421244e+003;1.070766e-001
3.423173e+003;1.064283e-001
3.425101e+003;1.062413e-001
3.427030e+003;1.060092e-001
3.428958e+003;1.051415e-001
3.430887e+003;1.044316e-001
3.432815e+003;1.040276e-001
3.434744e+003;1.030665e-001
3.436673e+003;1.018689e-001
3.438601e+003;1.017890e-001
3.440530e+003;1.015781e-001
3.442458e+003;1.006904e-001
3.444387e+003;9.977510e-002
3.446315e+003;9.889217e-002
3.448244e+003;9.824783e-002
3.450172e+003;9.769712e-002
3.452101e+003;9.688044e-002
3.454030e+003;9.631533e-002
3.455958e+003;9.605120e-002
3.457886e+003;9.533230e-002
3.459815e+003;9.429768e-002
3.461744e+003;9.326327e-002
3.463672e+003;9.259539e-002
3.465601e+003;9.178779e-002
3.467529e+003;9.088989e-002
3.469458e+003;9.057132e-002
3.471386e+003;8.991189e-002
3.473315e+003;8.883076e-002
3.475243e+003;8.805695e-002
3.477172e+003;8.745789e-002
3.479101e+003;8.691365e-002
3.481029e+003;8.596522e-002
3.482958e+003;8.516726e-002
3.484886e+003;8.466090e-002
3.486815e+003;8.376507e-002
3.488743e+003;8.228514e-002
3.490672e+003;8.133256e-002
3.492600e+003;8.079235e-002
3.494529e+003;8.020441e-002
3.496458e+003;7.957891e-002
3.498386e+003;7.853151e-002
3.500315e+003;7.766902e-002
3.502243e+003;7.715265e-002
3.504172e+003;7.659843e-002
3.506100e+003;7.601476e-002
3.508029e+003;7.550421e-002
3.509957e+003;7.460986e-002
3.511886e+003;7.380793e-002
3.513814e+003;7.331260e-002
3.515743e+003;7.248449e-002
3.517672e+003;7.168400e-002
3.519600e+003;7.074795e-002
3.521529e+003;6.970301e-002
3.523457e+003;6.902547e-002
3.525386e+003;6.812349e-002
3.527314e+003;6.708840e-002
3.529243e+003;6.641234e-002
3.531171e+003;6.577345e-002
3.533100e+003;6.526729e-002
3.535029e+003;6.442745e-002
3.536957e+003;6.330060e-002
3.538885e+003;6.299508e-002
3.540814e+003;6.216440e-002
3.542743e+003;6.091868e-002
3.544671e+003;6.015026e-002
3.546600e+003;5.928298e-002
3.548528e+003;5.916192e-002
3.550457e+003;5.891507e-002
3.552385e+003;5.798869e-002
3.554314e+003;5.711627e-002
3.556242e+003;5.658223e-002
3.558171e+003;5.591176e-002
3.560100e+003;5.499409e-002
3.562028e+003;5.446810e-002
3.563957e+003;5.383171e-002
3.565885e+003;5.296336e-002
3.567814e+003;5.235687e-002
3.569742e+003;5.176694e-002
3.571671e+003;5.105802e-002
3.573599e+003;5.052438e-002
3.575528e+003;5.027588e-002
3.577457e+003;4.973112e-002
3.579385e+003;4.903218e-002
3.581314e+003;4.814627e-002
3.583242e+003;4.761180e-002
3.585171e+003;4.746437e-002
3.587099e+003;4.666093e-002
3.589028e+003;4.568953e-002
3.590956e+003;4.517961e-002
3.592885e+003;4.448194e-002
3.594813e+003;4.381086e-002
3.596742e+003;4.376493e-002
3.598671e+003;4.339580e-002
3.600599e+003;4.261537e-002
3.602528e+003;4.253760e-002
3.604456e+003;4.212011e-002
3.606385e+003;4.113615e-002
3.608313e+003;4.099426e-002
3.610242e+003;4.113957e-002
3.612170e+003;4.060636e-002
3.614099e+003;4.016183e-002
3.616028e+003;4.024550e-002
3.617956e+003;4.015492e-002
3.619885e+003;3.922940e-002
3.621813e+003;3.896238e-002
3.623742e+003;3.910716e-002
3.625670e+003;3.865355e-002
3.627599e+003;3.787223e-002
3.629527e+003;3.720120e-002
3.631456e+003;3.717167e-002
3.633385e+003;3.706690e-002
3.635313e+003;3.678112e-002
3.637241e+003;3.680957e-002
3.639170e+003;3.657211e-002
3.641099e+003;3.618556e-002
3.643027e+003;3.608574e-002
3.644956e+003;3.598174e-002
3.646884e+003;3.516819e-002
3.648813e+003;3.444917e-002
3.650741e+003;3.384186e-002
3.652670e+003;3.323651e-002
3.654598e+003;3.282307e-002
3.656527e+003;3.253249e-002
3.658456e+003;3.251207e-002
3.660384e+003;3.194245e-002
3.662313e+003;3.113988e-002
3.664241e+003;3.130672e-002
3.666170e+003;3.136495e-002
3.668098e+003;3.070001e-002
3.670027e+003;3.022038e-002
3.671955e+003;3.007303e-002
3.673884e+003;2.965305e-002
3.675813e+003;2.891196e-002
3.677741e+003;2.849922e-002
3.679669e+003;2.846854e-002
3.681598e+003;2.822701e-002
3.683527e+003;2.805187e-002
3.685455e+003;2.804859e-002
3.687384e+003;2.726937e-002
3.689312e+003;2.693426e-002
3.691241e+003;2.752926e-002
3.693169e+003;2.780552e-002
3.695098e+003;2.782869e-002
3.697026e+003;2.732367e-002
3.698955e+003;2.608459e-002
3.700884e+003;2.548295e-002
3.702812e+003;2.601334e-002
3.704741e+003;2.587792e-002
3.706669e+003;2.522481e-002
3.708598e+003;2.523261e-002
3.710526e+003;2.528676e-002
3.712455e+003;2.479619e-002
3.714383e+003;2.468111e-002
3.716312e+003;2.473326e-002
3.718240e+003;2.444573e-002
3.720169e+003;2.447325e-002
3.722098e+003;2.459922e-002
3.724026e+003;2.440063e-002
3.725955e+003;2.434217e-002
3.727883e+003;2.417182e-002
3.729812e+003;2.402146e-002
3.731740e+003;2.409913e-002
3.733669e+003;2.366095e-002
3.735597e+003;2.300980e-002
3.737526e+003;2.305889e-002
3.739455e+003;2.340214e-002
3.741383e+003;2.349258e-002
3.743312e+003;2.322391e-002
3.745240e+003;2.318987e-002
3.747169e+003;2.328201e-002
3.749097e+003;2.321702e-002
3.751026e+003;2.353784e-002
3.752954e+003;2.334766e-002
3.754883e+003;2.301913e-002
3.756812e+003;2.319749e-002
3.758740e+003;2.365847e-002
3.760668e+003;2.365549e-002
3.762597e+003;2.343991e-002
3.764526e+003;2.354151e-002
3.766454e+003;2.357335e-002
3.768383e+003;2.304970e-002
3.770311e+003;2.263984e-002
3.772240e+003;2.284119e-002
3.774168e+003;2.268602e-002
3.776097e+003;2.233894e-002
3.778025e+003;2.231386e-002
3.779954e+003;2.279597e-002
3.781883e+003;2.318987e-002
3.783811e+003;2.335651e-002
3.785740e+003;2.326096e-002
3.787668e+003;2.337298e-002
3.789597e+003;2.318557e-002
3.791525e+003;2.283190e-002
3.793454e+003;2.303642e-002
3.795382e+003;2.335018e-002
3.797311e+003;2.341368e-002
3.799240e+003;2.296302e-002
3.801168e+003;2.284287e-002
3.803097e+003;2.289836e-002
3.805025e+003;2.311958e-002
3.806954e+003;2.311902e-002
3.808882e+003;2.311532e-002
3.810811e+003;2.342306e-002
3.812739e+003;2.387444e-002
3.814668e+003;2.391659e-002
3.816596e+003;2.376145e-002
3.818525e+003;2.354151e-002
3.820454e+003;2.314520e-002
3.822382e+003;2.317260e-002
3.824311e+003;2.347331e-002
3.826239e+003;2.317725e-002
3.828168e+003;2.332903e-002
3.830096e+003;2.393010e-002
3.832025e+003;2.394295e-002
3.833953e+003;2.406197e-002
3.835882e+003;2.417767e-002
3.837811e+003;2.375606e-002
3.839739e+003;2.404783e-002
3.841667e+003;2.442449e-002
3.843596e+003;2.430120e-002
3.845525e+003;2.429861e-002
3.847453e+003;2.410285e-002
3.849382e+003;2.447662e-002
3.851310e+003;2.484306e-002
3.853239e+003;2.440571e-002
3.855167e+003;2.422167e-002
3.857096e+003;2.427163e-002
3.859024e+003;2.426459e-002
3.860953e+003;2.468335e-002
3.862882e+003;2.488506e-002
3.864810e+003;2.474649e-002
3.866739e+003;2.480345e-002
3.868667e+003;2.451721e-002
3.870596e+003;2.473807e-002
3.872524e+003;2.498746e-002
3.874453e+003;2.468128e-002
3.876381e+003;2.449148e-002
3.878310e+003;2.452707e-002
3.880239e+003;2.478321e-002
3.882167e+003;2.536270e-002
3.884096e+003;2.535451e-002
3.886024e+003;2.534524e-002
3.887953e+003;2.571368e-002
3.889881e+003;2.556342e-002
3.891810e+003;2.496883e-002
3.893738e+003;2.515669e-002
3.895667e+003;2.545231e-002
3.897595e+003;2.590367e-002
3.899524e+003;2.635011e-002
3.901453e+003;2.621599e-002
3.903381e+003;2.625006e-002
3.905310e+003;2.664908e-002
3.907238e+003;2.638774e-002
3.909167e+003;2.590620e-002
3.911095e+003;2.601102e-002
3.913024e+003;2.616404e-002
3.914952e+003;2.630490e-002
3.916881e+003;2.658288e-002
3.918810e+003;2.677311e-002
3.920738e+003;2.662301e-002
3.922667e+003;2.663766e-002
3.924595e+003;2.694448e-002
3.926524e+003;2.679217e-002
3.928452e+003;2.708299e-002
3.930381e+003;2.729428e-002
3.932309e+003;2.681702e-002
3.934238e+003;2.638102e-002
3.936167e+003;2.670080e-002
3.938095e+003;2.758900e-002
3.940023e+003;2.762935e-002
3.941952e+003;2.743413e-002
3.943881e+003;2.768985e-002
3.945809e+003;2.808308e-002
3.947738e+003;2.773261e-002
3.949666e+003;2.723953e-002
3.951595e+003;2.780690e-002
3.953523e+003;2.810800e-002
3.955452e+003;2.781693e-002
3.957380e+003;2.780771e-002
3.959309e+003;2.831853e-002
3.961238e+003;2.871941e-002
3.963166e+003;2.824292e-002
3.965095e+003;2.790561e-002
3.967023e+003;2.781015e-002
3.968952e+003;2.800338e-002
3.970880e+003;2.837130e-002
3.972809e+003;2.795914e-002
3.974737e+003;2.740671e-002
3.976666e+003;2.820851e-002
3.978594e+003;2.893533e-002
3.980523e+003;2.864112e-002
3.982452e+003;2.812133e-002
3.984380e+003;2.811522e-002
3.986309e+003;2.807361e-002
3.988237e+003;2.841052e-002
3.990166e+003;2.858704e-002
3.992094e+003;2.843182e-002
3.994023e+003;2.840504e-002
3.995951e+003;2.845216e-002
3.997880e+003;2.828284e-002
3.999809e+003;2.848726e-002
4.001737e+003;0.000000e+000
