3.992094e+002;0.000000e+000
4.011380e+002;0.000000e+000
4.030665e+002;0.000000e+000
4.049951e+002;0.000000e+000
4.069236e+002;0.000000e+000
4.088522e+002;0.000000e+000
4.107807e+002;0.000000e+000
4.127093e+002;0.000000e+000
4.146378e+002;0.000000e+000
4.165664e+002;0.000000e+000
4.184949e+002;0.000000e+000
4.204235e+002;0.000000e+000
4.223520e+002;0.000000e+000
4.242806e+002;0.000000e+000
4.262091e+002;0.000000e+000
4.281377e+002;0.000000e+000
4.300662e+002;0.000000e+000
4.319948e+002;0.000000e+000
4.339233e+002;0.000000e+000
4.358519e+002;0.000000e+000
4.377804e+002;0.000000e+000
4.397090e+002;0.000000e+000
4.416375e+002;0.000000e+000
4.435660e+002;0.000000e+000
4.454946e+002;0.000000e+000
4.474232e+002;0.000000e+000
4.493517e+002;0.000000e+000
4.512802e+002;0.000000e+000
4.532088e+002;0.000000e+000
4.551373e+002;0.000000e+000
4.570659e+002;0.000000e+000
4.589944e+002;0.000000e+000
4.609230e+002;0.000000e+000
4.628515e+002;0.000000e+000
4.647801e+002;0.000000e+000
4.667086e+002;0.000000e+000
4.686372e+002;0.000000e+000
4.705657e+002;0.000000e+000
4.724943e+002;0.000000e+000
4.744228e+002;0.000000e+000
4.763513e+002;0.000000e+000
4.782799e+002;0.000000e+000
4.802085e+002;0.000000e+000
4.821370e+002;0.000000e+000
4.840656e+002;0.000000e+000
4.859941e+002;0.000000e+000
4.879226e+002;0.000000e+000
4.898512e+002;0.000000e+000
4.917798e+002;0.000000e+000
4.937083e+002;0.000000e+000
4.956368e+002;0.000000e+000
4.975654e+002;0.000000e+000
4.994939e+002;0.000000e+000
5.014225e+002;0.000000e+000
5.033510e+002;0.000000e+000
5.052796e+002;0.000000e+000
5.072081e+002;0.000000e+000
5.091367e+002;0.000000e+000
5.110652e+002;0.000000e+000
5.129938e+002;0.000000e+000
5.149223e+002;0.000000e+000
5.168509e+002;0.000000e+000
5.187794e+002;0.000000e+000
5.207079e+002;0.000000e+000
5.226365e+002;0.000000e+000
5.245651e+002;0.000000e+000
5.264936e+002;0.000000e+000
5.284222e+002;0.000000e+000
5.303507e+002;0.000000e+000
5.322792e+002;0.000000e+000
5.342078e+002;0.000000e+000
5.361364e+002;0.000000e+000
5.380649e+002;0.000000e+000
5.399935e+002;0.000000e+000
5.419220e+002;0.000000e+000
5.438505e+002;0.000000e+000
5.457791e+002;0.000000e+000
5.477076e+002;0.000000e+000
5.496362e+002;0.000000e+000
5.515648e+002;0.000000e+000
5.534933e+002;0.000000e+000
5.554218e+002;0.000000e+000
5.573504e+002;0.000000e+000
5.592789e+002;0.000000e+000
5.612075e+002;0.000000e+000
5.631360e+002;0.000000e+000
5.650646e+002;0.000000e+000
5.669931e+002;0.000000e+000
5.689217e+002;0.000000e+000
5.708502e+002;0.000000e+000
5.727787e+002;0.000000e+000
5.747073e+002;0.000000e+000
5.766359e+002;0.000000e+000
5.785644e+002;0.000000e+000
5.804930e+002;0.000000e+000
5.824215e+002;0.000000e+000
5.843500e+002;0.000000e+000
5.862786e+002;0.000000e+000
5.882072e+002;0.000000e+000
5.901357e+002;0.000000e+000
5.920643e+002;0.000000e+000
5.939928e+002;0.000000e+000
5.959213e+002;0.000000e+000
5.978499e+002;0.000000e+000
5.997784e+002;1.978337e-001
6.017070e+002;2.039613e-001
6.036355e+002;2.132326e-001
6.055641e+002;2.091606e-001
6.074926e+002;2.058697e-001
6.094211e+002;2.077795e-001
6.113497e+002;2.019726e-001
6.132783e+002;1.961497e-001
6.152068e+002;2.018784e-001
6.171354e+002;1.971800e-001
6.190639e+002;1.895407e-001
6.209924e+002;1.871900e-001
6.229210e+002;1.858022e-001
6.248495e+002;1.851975e-001
6.267781e+002;1.859641e-001
6.287067e+002;1.832683e-001
6.306352e+002;1.763542e-001
6.325637e+002;1.781504e-001
6.344923e+002;1.864722e-001
6.364208e+002;1.858383e-001
6.383494e+002;1.839618e-001
6.402780e+002;1.774154e-001
6.422065e+002;1.655185e-001
6.441350e+002;1.680703e-001
6.460636e+002;1.783009e-001
6.479921e+002;1.770853e-001
6.499207e+002;1.775712e-001
6.518492e+002;1.782103e-001
6.537778e+002;1.763343e-001
6.557063e+002;1.762438e-001
6.576349e+002;1.768646e-001
6.595634e+002;1.781958e-001
6.614919e+002;1.830774e-001
6.634205e+002;1.871678e-001
6.653491e+002;1.867108e-001
6.672776e+002;1.872551e-001
6.692062e+002;1.871690e-001
6.711347e+002;1.825152e-001
6.730632e+002;1.784057e-001
6.749918e+002;1.740014e-001
6.769203e+002;1.682258e-001
6.788489e+002;1.622395e-001
6.807775e+002;1.594830e-001
6.827060e+002;1.560497e-001
6.846345e+002;1.523726e-001
6.865631e+002;1.520980e-001
6.884916e+002;1.528402e-001
6.904202e+002;1.507771e-001
6.923488e+002;1.471639e-001
6.942773e+002;1.460806e-001
6.962058e+002;1.471830e-001
6.981344e+002;1.471673e-001
7.000629e+002;1.460743e-001
7.019915e+002;1.461625e-001
7.039200e+002;1.452795e-001
7.058486e+002;1.441949e-001
7.077771e+002;1.422676e-001
7.097057e+002;1.396337e-001
7.116342e+002;1.372747e-001
7.135627e+002;1.370087e-001
7.154913e+002;1.380757e-001
7.174199e+002;1.381339e-001
7.193484e+002;1.368311e-001
7.212770e+002;1.347685e-001
7.232055e+002;1.332724e-001
7.251340e+002;1.303789e-001
7.270626e+002;1.280742e-001
7.289911e+002;1.269404e-001
7.309197e+002;1.254966e-001
7.328483e+002;1.233920e-001
7.347768e+002;1.218452e-001
7.367053e+002;1.214036e-001
7.386339e+002;1.199257e-001
7.405624e+002;1.174701e-001
7.424910e+002;1.164307e-001
7.444196e+002;1.168399e-001
7.463481e+002;1.174750e-001
7.482766e+002;1.158751e-001
7.502052e+002;1.135465e-001
7.521337e+002;1.129629e-001
7.540623e+002;1.116191e-001
7.559908e+002;1.095974e-001
7.579194e+002;1.079456e-001
7.598479e+002;1.085184e-001
7.617765e+002;1.089393e-001
7.637050e+002;1.077932e-001
7.656335e+002;1.072471e-001
7.675621e+002;1.071274e-001
7.694907e+002;1.052879e-001
7.714192e+002;1.029977e-001
7.733478e+002;1.021576e-001
7.752763e+002;1.016106e-001
7.772048e+002;1.000256e-001
7.791334e+002;9.868515e-002
7.810620e+002;9.849638e-002
7.829905e+002;9.924923e-002
7.849191e+002;9.900869e-002
7.868476e+002;9.811021e-002
7.887761e+002;9.805606e-002
7.907047e+002;9.785976e-002
7.926332e+002;9.765235e-002
7.945618e+002;9.689867e-002
7.964903e+002;9.683551e-002
7.984189e+002;9.771799e-002
8.003474e+002;9.833537e-002
8.022759e+002;9.863666e-002
8.042045e+002;9.854377e-002
8.061331e+002;9.794258e-002
8.080616e+002;9.801105e-002
8.099902e+002;9.926126e-002
8.119187e+002;9.979482e-002
8.138472e+002;9.919306e-002
8.157758e+002;9.905115e-002
8.177043e+002;9.947623e-002
8.196329e+002;9.949332e-002
8.215615e+002;1.004038e-001
8.234900e+002;1.018878e-001
8.254185e+002;1.027573e-001
8.273471e+002;1.033490e-001
8.292756e+002;1.038309e-001
8.312042e+002;1.042510e-001
8.331328e+002;1.047695e-001
8.350613e+002;1.047266e-001
8.369898e+002;1.046318e-001
8.389184e+002;1.039627e-001
8.408469e+002;1.031224e-001
8.427755e+002;1.033411e-001
8.447040e+002;1.036685e-001
8.466326e+002;1.035062e-001
8.485611e+002;1.035622e-001
8.504897e+002;1.037670e-001
8.524182e+002;1.037397e-001
8.543467e+002;1.037220e-001
8.562753e+002;1.042056e-001
8.582039e+002;1.051715e-001
8.601324e+002;1.063099e-001
8.620610e+002;1.073298e-001
8.639895e+002;1.089800e-001
8.659180e+002;1.109042e-001
8.678466e+002;1.126477e-001
8.697751e+002;1.144846e-001
8.717037e+002;1.168921e-001
8.736323e+002;1.195504e-001
8.755608e+002;1.219386e-001
8.774893e+002;1.237509e-001
8.794179e+002;1.253518e-001
8.813464e+002;1.283244e-001
8.832750e+002;1.318576e-001
8.852036e+002;1.346337e-001
8.871321e+002;1.375211e-001
8.890606e+002;1.401899e-001
8.909892e+002;1.430052e-001
8.929177e+002;1.456776e-001
8.948463e+002;1.472878e-001
8.967748e+002;1.476569e-001
8.987034e+002;1.470817e-001
9.006319e+002;1.463666e-001
9.025605e+002;1.454920e-001
9.044890e+002;1.439758e-001
9.064175e+002;1.425668e-001
9.083461e+002;1.414489e-001
9.102747e+002;1.403504e-001
9.122032e+002;1.400509e-001
9.141318e+002;1.403015e-001
9.160603e+002;1.401317e-001
9.179888e+002;1.397088e-001
9.199174e+002;1.401119e-001
9.218459e+002;1.410557e-001
9.237745e+002;1.421924e-001
9.257031e+002;1.431307e-001
9.276316e+002;1.444110e-001
9.295601e+002;1.461742e-001
9.314887e+002;1.473719e-001
9.334172e+002;1.487574e-001
9.353458e+002;1.503045e-001
9.372744e+002;1.522241e-001
9.392029e+002;1.546340e-001
9.411314e+002;1.571937e-001
9.430600e+002;1.600389e-001
9.449885e+002;1.633364e-001
9.469171e+002;1.674298e-001
9.488456e+002;1.721142e-001
9.507742e+002;1.772069e-001
9.527027e+002;1.829782e-001
9.546313e+002;1.885269e-001
9.565598e+002;1.938274e-001
9.584883e+002;1.992206e-001
9.604169e+002;2.048284e-001
9.623455e+002;2.110796e-001
9.642740e+002;2.178539e-001
9.662026e+002;2.246856e-001
9.681311e+002;2.314010e-001
9.700596e+002;2.379564e-001
9.719882e+002;2.456418e-001
9.739167e+002;2.546678e-001
9.758453e+002;2.641010e-001
9.777739e+002;2.743317e-001
9.797024e+002;2.854738e-001
9.816309e+002;2.961682e-001
9.835595e+002;3.056109e-001
9.854880e+002;3.130012e-001
9.874166e+002;3.187347e-001
9.893452e+002;3.232850e-001
9.912737e+002;3.268964e-001
9.932022e+002;3.305775e-001
9.951307e+002;3.346467e-001
9.970593e+002;3.391024e-001
9.989879e+002;3.423153e-001
1.000916e+003;3.459986e-001
1.002845e+003;3.503824e-001
1.004773e+003;3.545330e-001
1.006702e+003;3.589649e-001
1.008631e+003;3.638251e-001
1.010559e+003;3.692620e-001
1.012488e+003;3.750303e-001
1.014416e+003;3.804743e-001
1.016345e+003;3.863700e-001
1.018273e+003;3.926637e-001
1.020202e+003;3.978295e-001
1.022130e+003;4.016780e-001
1.024059e+003;4.053263e-001
1.025988e+003;4.084040e-001
1.027916e+003;4.097661e-001
1.029845e+003;4.099313e-001
1.031773e+003;4.093136e-001
1.033702e+003;4.084458e-001
1.035630e+003;4.071684e-001
1.037559e+003;4.037158e-001
1.039487e+003;3.992801e-001
1.041416e+003;3.955300e-001
1.043344e+003;3.921514e-001
1.045273e+003;3.892506e-001
1.047202e+003;3.866070e-001
1.049130e+003;3.835207e-001
1.051059e+003;3.798070e-001
1.052987e+003;3.753911e-001
1.054916e+003;3.713771e-001
1.056844e+003;3.661349e-001
1.058773e+003;3.584842e-001
1.060701e+003;3.494678e-001
1.062630e+003;3.401154e-001
1.064558e+003;3.306262e-001
1.066487e+003;3.211476e-001
1.068416e+003;3.119673e-001
1.070344e+003;3.040882e-001
1.072273e+003;2.972779e-001
1.074201e+003;2.904330e-001
1.076130e+003;2.846730e-001
1.078058e+003;2.803831e-001
1.079987e+003;2.765737e-001
1.081915e+003;2.720052e-001
1.083844e+003;2.686573e-001
1.085773e+003;2.667820e-001
1.087701e+003;2.647869e-001
1.089630e+003;2.630658e-001
1.091558e+003;2.616624e-001
1.093487e+003;2.595273e-001
1.095415e+003;2.579492e-001
1.097344e+003;2.579186e-001
1.099272e+003;2.568507e-001
1.101201e+003;2.545160e-001
1.103129e+003;2.518453e-001
1.105058e+003;2.483653e-001
1.106987e+003;2.442226e-001
1.108915e+003;2.391258e-001
1.110844e+003;2.335256e-001
1.112772e+003;2.275724e-001
1.114701e+003;2.216355e-001
1.116629e+003;2.157508e-001
1.118558e+003;2.102702e-001
1.120486e+003;2.046922e-001
1.122415e+003;1.984740e-001
1.124344e+003;1.930581e-001
1.126272e+003;1.883471e-001
1.128201e+003;1.826008e-001
1.130129e+003;1.757495e-001
1.132058e+003;1.686789e-001
1.133986e+003;1.627432e-001
1.135915e+003;1.577804e-001
1.137843e+003;1.536542e-001
1.139772e+003;1.507318e-001
1.141700e+003;1.488831e-001
1.143629e+003;1.478601e-001
1.145557e+003;1.472467e-001
1.147486e+003;1.469017e-001
1.149415e+003;1.470239e-001
1.151343e+003;1.470772e-001
1.153272e+003;1.464977e-001
1.155200e+003;1.454098e-001
1.157129e+003;1.444697e-001
1.159057e+003;1.432856e-001
1.160986e+003;1.406002e-001
1.162914e+003;1.369285e-001
1.164843e+003;1.329371e-001
1.166771e+003;1.282303e-001
1.168700e+003;1.230244e-001
1.170629e+003;1.179566e-001
1.172557e+003;1.130586e-001
1.174486e+003;1.088585e-001
1.176414e+003;1.055336e-001
1.178343e+003;1.027802e-001
1.180271e+003;1.008368e-001
1.182200e+003;9.976806e-002
1.184128e+003;9.944153e-002
1.186057e+003;1.002453e-001
1.187986e+003;1.017377e-001
1.189914e+003;1.033787e-001
1.191843e+003;1.050772e-001
1.193771e+003;1.078641e-001
1.195700e+003;1.109835e-001
1.197628e+003;1.137547e-001
1.199557e+003;1.162591e-001
1.201485e+003;1.184928e-001
1.203414e+003;1.199902e-001
1.205343e+003;1.211382e-001
1.207271e+003;1.228411e-001
1.209200e+003;1.239218e-001
1.211128e+003;1.252383e-001
1.213057e+003;1.277515e-001
1.214985e+003;1.307341e-001
1.216914e+003;1.338136e-001
1.218842e+003;1.370199e-001
1.220771e+003;1.409518e-001
1.222699e+003;1.448337e-001
1.224628e+003;1.480091e-001
1.226557e+003;1.508607e-001
1.228485e+003;1.531810e-001
1.230414e+003;1.548072e-001
1.232342e+003;1.556748e-001
1.234271e+003;1.560130e-001
1.236199e+003;1.555923e-001
1.238128e+003;1.549307e-001
1.240056e+003;1.544136e-001
1.241985e+003;1.538355e-001
1.243913e+003;1.529526e-001
1.245842e+003;1.516787e-001
1.247771e+003;1.498169e-001
1.249699e+003;1.476798e-001
1.251628e+003;1.455970e-001
1.253556e+003;1.438140e-001
1.255485e+003;1.421924e-001
1.257413e+003;1.406050e-001
1.259342e+003;1.387779e-001
1.261270e+003;1.363986e-001
1.263199e+003;1.341585e-001
1.265127e+003;1.325229e-001
1.267056e+003;1.305957e-001
1.268985e+003;1.280709e-001
1.270913e+003;1.256385e-001
1.272842e+003;1.235175e-001
1.274770e+003;1.215065e-001
1.276699e+003;1.196932e-001
1.278627e+003;1.175039e-001
1.280556e+003;1.152534e-001
1.282484e+003;1.134446e-001
1.284413e+003;1.118180e-001
1.286342e+003;1.102399e-001
1.288270e+003;1.091595e-001
1.290199e+003;1.087033e-001
1.292127e+003;1.090670e-001
1.294056e+003;1.095576e-001
1.295984e+003;1.101247e-001
1.297913e+003;1.113241e-001
1.299841e+003;1.128211e-001
1.301770e+003;1.145938e-001
1.303698e+003;1.167621e-001
1.305627e+003;1.193913e-001
1.307556e+003;1.218417e-001
1.309484e+003;1.243746e-001
1.311413e+003;1.269403e-001
1.313341e+003;1.286416e-001
1.315270e+003;1.298101e-001
1.317198e+003;1.304971e-001
1.319127e+003;1.305245e-001
1.321055e+003;1.298793e-001
1.322984e+003;1.290938e-001
1.324912e+003;1.283417e-001
1.326841e+003;1.277761e-001
1.328770e+003;1.276631e-001
1.330698e+003;1.275362e-001
1.332627e+003;1.271095e-001
1.334555e+003;1.263865e-001
1.336484e+003;1.251100e-001
1.338412e+003;1.237500e-001
1.340341e+003;1.221244e-001
1.342269e+003;1.201994e-001
1.344198e+003;1.186491e-001
1.346126e+003;1.175094e-001
1.348055e+003;1.163477e-001
1.349984e+003;1.156264e-001
1.351912e+003;1.159655e-001
1.353841e+003;1.168648e-001
1.355769e+003;1.182561e-001
1.357698e+003;1.199202e-001
1.359626e+003;1.213326e-001
1.361555e+003;1.225280e-001
1.363483e+003;1.236110e-001
1.365412e+003;1.243449e-001
1.367341e+003;1.244594e-001
1.369269e+003;1.236390e-001
1.371198e+003;1.227249e-001
1.373126e+003;1.216135e-001
1.375055e+003;1.193208e-001
1.376983e+003;1.164168e-001
1.378912e+003;1.135391e-001
1.380840e+003;1.106180e-001
1.382769e+003;1.078133e-001
1.384698e+003;1.051296e-001
1.386626e+003;1.028231e-001
1.388555e+003;1.012439e-001
1.390483e+003;9.993072e-002
1.392412e+003;9.880622e-002
1.394340e+003;9.815453e-002
1.396269e+003;9.809194e-002
1.398197e+003;9.835365e-002
1.400126e+003;9.893524e-002
1.402054e+003;9.982184e-002
1.403983e+003;1.007276e-001
1.405911e+003;1.014373e-001
1.407840e+003;1.024053e-001
1.409769e+003;1.039061e-001
1.411697e+003;1.057821e-001
1.413626e+003;1.080561e-001
1.415554e+003;1.103839e-001
1.417483e+003;1.120103e-001
1.419411e+003;1.128293e-001
1.421340e+003;1.134078e-001
1.423268e+003;1.135618e-001
1.425197e+003;1.128772e-001
1.427125e+003;1.118244e-001
1.429054e+003;1.101541e-001
1.430983e+003;1.077003e-001
1.432911e+003;1.052675e-001
1.434840e+003;1.033992e-001
1.436768e+003;1.017878e-001
1.438697e+003;1.006534e-001
1.440625e+003;1.001041e-001
1.442554e+003;9.966522e-002
1.444482e+003;9.980253e-002
1.446411e+003;1.005772e-001
1.448340e+003;1.016564e-001
1.450268e+003;1.024615e-001
1.452197e+003;1.026962e-001
1.454125e+003;1.026217e-001
1.456054e+003;1.022994e-001
1.457982e+003;1.017550e-001
1.459911e+003;1.012347e-001
1.461839e+003;1.003762e-001
1.463768e+003;9.844517e-002
1.465697e+003;9.572580e-002
1.467625e+003;9.258665e-002
1.469554e+003;8.881661e-002
1.471482e+003;8.496018e-002
1.473411e+003;8.142080e-002
1.475339e+003;7.811727e-002
1.477268e+003;7.508327e-002
1.479196e+003;7.251467e-002
1.481125e+003;7.020635e-002
1.483053e+003;6.825829e-002
1.484982e+003;6.715856e-002
1.486911e+003;6.659191e-002
1.488839e+003;6.655881e-002
1.490768e+003;6.695111e-002
1.492696e+003;6.787445e-002
1.494625e+003;6.925827e-002
1.496553e+003;7.095659e-002
1.498482e+003;7.264308e-002
1.500410e+003;7.434173e-002
1.502339e+003;7.546483e-002
1.504267e+003;7.555685e-002
1.506196e+003;7.531624e-002
1.508125e+003;7.488276e-002
1.510053e+003;7.366128e-002
1.511982e+003;7.155268e-002
1.513910e+003;6.929154e-002
1.515839e+003;6.699016e-002
1.517767e+003;6.463549e-002
1.519696e+003;6.206072e-002
1.521624e+003;5.977663e-002
1.523553e+003;5.816333e-002
1.525481e+003;5.689522e-002
1.527410e+003;5.594994e-002
1.529339e+003;5.521403e-002
1.531267e+003;5.448169e-002
1.533196e+003;5.374410e-002
1.535124e+003;5.366518e-002
1.537053e+003;5.380763e-002
1.538981e+003;5.341424e-002
1.540910e+003;5.347408e-002
1.542838e+003;5.371069e-002
1.544767e+003;5.353457e-002
1.546695e+003;5.327966e-002
1.548624e+003;5.336969e-002
1.550553e+003;5.364523e-002
1.552481e+003;5.417998e-002
1.554410e+003;5.450870e-002
1.556338e+003;5.436545e-002
1.558267e+003;5.456058e-002
1.560195e+003;5.517208e-002
1.562124e+003;5.566951e-002
1.564052e+003;5.622799e-002
1.565981e+003;5.721280e-002
1.567910e+003;5.846384e-002
1.569838e+003;5.976287e-002
1.571767e+003;6.116354e-002
1.573695e+003;6.246566e-002
1.575624e+003;6.423824e-002
1.577552e+003;6.665414e-002
1.579481e+003;6.896120e-002
1.581409e+003;7.143060e-002
1.583338e+003;7.430186e-002
1.585266e+003;7.743147e-002
1.587195e+003;8.007917e-002
1.589124e+003;8.234365e-002
1.591052e+003;8.413881e-002
1.592981e+003;8.511719e-002
1.594909e+003;8.548391e-002
1.596838e+003;8.544756e-002
1.598766e+003;8.511586e-002
1.600695e+003;8.420904e-002
1.602623e+003;8.311059e-002
1.604552e+003;8.218363e-002
1.606480e+003;8.146968e-002
1.608409e+003;8.077192e-002
1.610338e+003;8.009638e-002
1.612266e+003;7.972279e-002
1.614195e+003;7.918382e-002
1.616123e+003;7.837587e-002
1.618052e+003;7.797576e-002
1.619980e+003;7.783460e-002
1.621909e+003;7.770211e-002
1.623837e+003;7.782762e-002
1.625766e+003;7.779179e-002
1.627694e+003;7.756855e-002
1.629623e+003;7.739563e-002
1.631552e+003;7.747594e-002
1.633480e+003;7.775180e-002
1.635409e+003;7.783915e-002
1.637337e+003;7.787150e-002
1.639266e+003;7.805444e-002
1.641194e+003;7.806634e-002
1.643123e+003;7.819279e-002
1.645051e+003;7.831515e-002
1.646980e+003;7.789639e-002
1.648909e+003;7.749254e-002
1.650837e+003;7.730425e-002
1.652766e+003;7.681318e-002
1.654694e+003;7.628310e-002
1.656623e+003;7.594573e-002
1.658551e+003;7.531691e-002
1.660480e+003;7.440901e-002
1.662408e+003;7.347687e-002
1.664337e+003;7.264257e-002
1.666266e+003;7.184595e-002
1.668194e+003;7.074521e-002
1.670123e+003;6.938817e-002
1.672051e+003;6.822905e-002
1.673980e+003;6.688942e-002
1.675908e+003;6.568082e-002
1.677837e+003;6.490620e-002
1.679765e+003;6.404548e-002
1.681694e+003;6.283461e-002
1.683622e+003;6.200301e-002
1.685551e+003;6.162114e-002
1.687479e+003;6.100317e-002
1.689408e+003;6.078020e-002
1.691337e+003;6.086257e-002
1.693265e+003;6.073881e-002
1.695194e+003;6.074910e-002
1.697122e+003;6.088605e-002
1.699051e+003;6.134767e-002
1.700979e+003;6.207154e-002
1.702908e+003;6.301044e-002
1.704836e+003;6.422445e-002
1.706765e+003;6.580090e-002
1.708693e+003;6.729034e-002
1.710622e+003;6.916124e-002
1.712551e+003;7.142408e-002
1.714479e+003;7.365315e-002
1.716408e+003;7.558098e-002
1.718336e+003;7.722223e-002
1.720265e+003;7.890351e-002
1.722193e+003;8.073296e-002
1.724122e+003;8.238827e-002
1.726050e+003;8.346646e-002
1.727979e+003;8.439471e-002
1.729908e+003;8.520342e-002
1.731836e+003;8.570734e-002
1.733765e+003;8.586673e-002
1.735693e+003;8.566702e-002
1.737622e+003;8.519729e-002
1.739550e+003;8.455683e-002
1.741479e+003;8.373284e-002
1.743407e+003;8.212858e-002
1.745336e+003;7.986151e-002
1.747265e+003;7.764715e-002
1.749193e+003;7.530133e-002
1.751122e+003;7.261030e-002
1.753050e+003;6.988691e-002
1.754979e+003;6.732965e-002
1.756907e+003;6.476759e-002
1.758836e+003;6.164634e-002
1.760764e+003;5.839504e-002
1.762693e+003;5.568337e-002
1.764621e+003;5.288679e-002
1.766550e+003;4.997287e-002
1.768479e+003;4.764267e-002
1.770407e+003;4.534649e-002
1.772336e+003;4.323043e-002
1.774264e+003;4.155044e-002
1.776193e+003;3.998458e-002
1.778121e+003;3.855588e-002
1.780050e+003;3.718214e-002
1.781978e+003;3.581043e-002
1.783907e+003;3.479997e-002
1.785835e+003;3.408364e-002
1.787764e+003;3.333693e-002
1.789693e+003;3.256046e-002
1.791621e+003;3.185758e-002
1.793550e+003;3.142464e-002
1.795478e+003;3.112286e-002
1.797407e+003;3.083175e-002
1.799335e+003;3.047718e-002
1.801264e+003;2.997234e-002
1.803192e+003;2.961615e-002
1.805121e+003;2.939164e-002
1.807049e+003;2.923269e-002
1.808978e+003;2.891539e-002
1.810907e+003;2.855626e-002
1.812835e+003;2.831959e-002
1.814764e+003;2.826223e-002
1.816692e+003;2.817369e-002
1.818621e+003;2.768868e-002
1.820549e+003;2.745376e-002
1.822478e+003;2.756972e-002
1.824406e+003;2.769182e-002
1.826335e+003;2.760552e-002
1.828264e+003;2.739107e-002
1.830192e+003;2.725357e-002
1.832121e+003;2.707167e-002
1.834049e+003;2.693176e-002
1.835978e+003;2.695030e-002
1.837906e+003;2.685777e-002
1.839835e+003;2.663477e-002
1.841763e+003;2.637151e-002
1.843692e+003;2.625970e-002
1.845620e+003;2.622539e-002
1.847549e+003;2.620012e-002
1.849478e+003;2.626703e-002
1.851406e+003;2.621993e-002
1.853335e+003;2.602404e-002
1.855263e+003;2.578354e-002
1.857192e+003;2.585246e-002
1.859120e+003;2.616605e-002
1.861049e+003;2.613452e-002
1.862977e+003;2.582528e-002
1.864906e+003;2.575784e-002
1.866834e+003;2.575345e-002
1.868763e+003;2.562626e-002
1.870692e+003;2.576762e-002
1.872620e+003;2.580731e-002
1.874549e+003;2.577324e-002
1.876477e+003;2.604803e-002
1.878406e+003;2.610003e-002
1.880334e+003;2.592192e-002
1.882263e+003;2.586621e-002
1.884191e+003;2.573126e-002
1.886120e+003;2.554009e-002
1.888048e+003;2.564700e-002
1.889977e+003;2.560577e-002
1.891906e+003;2.568282e-002
1.893834e+003;2.580562e-002
1.895763e+003;2.572588e-002
1.897691e+003;2.590792e-002
1.899620e+003;2.597743e-002
1.901548e+003;2.559920e-002
1.903477e+003;2.556789e-002
1.905405e+003;2.598007e-002
1.907334e+003;2.610626e-002
1.909262e+003;2.622648e-002
1.911191e+003;2.644954e-002
1.913120e+003;2.657637e-002
1.915048e+003;2.665570e-002
1.916977e+003;2.672430e-002
1.918905e+003;2.683760e-002
1.920834e+003;2.686263e-002
1.922762e+003;2.680081e-002
1.924691e+003;2.679714e-002
1.926619e+003;2.696750e-002
1.928548e+003;2.720520e-002
1.930477e+003;2.740329e-002
1.932405e+003;2.776391e-002
1.934334e+003;2.780050e-002
1.936262e+003;2.761011e-002
1.938191e+003;2.763702e-002
1.940119e+003;2.786890e-002
1.942048e+003;2.792045e-002
1.943976e+003;2.795698e-002
1.945905e+003;2.811440e-002
1.947833e+003;2.821760e-002
1.949762e+003;2.832818e-002
1.951691e+003;2.864307e-002
1.953619e+003;2.878169e-002
1.955548e+003;2.866278e-002
1.957476e+003;2.871573e-002
1.959405e+003;2.865375e-002
1.961333e+003;2.848995e-002
1.963262e+003;2.867620e-002
1.965190e+003;2.879217e-002
1.967119e+003;2.887141e-002
1.969047e+003;2.878356e-002
1.970976e+003;2.873818e-002
1.972905e+003;2.879804e-002
1.974833e+003;2.886358e-002
1.976762e+003;2.891469e-002
1.978690e+003;2.909743e-002
1.980619e+003;2.929064e-002
1.982547e+003;2.932428e-002
1.984476e+003;2.957586e-002
1.986404e+003;2.982620e-002
1.988333e+003;2.978333e-002
1.990261e+003;2.996371e-002
1.992190e+003;3.024266e-002
1.994119e+003;3.035926e-002
1.996047e+003;3.038676e-002
1.997976e+003;3.039988e-002
1.999904e+003;3.022188e-002
2.001833e+003;3.041175e-002
2.003761e+003;3.092767e-002
2.005690e+003;3.101716e-002
2.007618e+003;3.124124e-002
2.009547e+003;3.148983e-002
2.011476e+003;3.144993e-002
2.013404e+003;3.153248e-002
2.015333e+003;3.175622e-002
2.017261e+003;3.197072e-002
2.019190e+003;3.209429e-002
2.021118e+003;3.220483e-002
2.023047e+003;3.256392e-002
2.024975e+003;3.298741e-002
2.026904e+003;3.313866e-002
2.028833e+003;3.302785e-002
2.030761e+003;3.309220e-002
2.032690e+003;3.327489e-002
2.034618e+003;3.328158e-002
2.036547e+003;3.324878e-002
2.038475e+003;3.334730e-002
2.040404e+003;3.369023e-002
2.042332e+003;3.394453e-002
2.044261e+003;3.383112e-002
2.046189e+003;3.375379e-002
2.048118e+003;3.381758e-002
2.050047e+003;3.407138e-002
2.051975e+003;3.422931e-002
2.053904e+003;3.396911e-002
2.055832e+003;3.391347e-002
2.057761e+003;3.410213e-002
2.059689e+003;3.425570e-002
2.061618e+003;3.403278e-002
2.063546e+003;3.389427e-002
2.065475e+003;3.418572e-002
2.067404e+003;3.456433e-002
2.069332e+003;3.470507e-002
2.071260e+003;3.463799e-002
2.073189e+003;3.460738e-002
2.075118e+003;3.438056e-002
2.077046e+003;3.440003e-002
2.078975e+003;3.442539e-002
2.080903e+003;3.425082e-002
2.082832e+003;3.419400e-002
2.084760e+003;3.431924e-002
2.086689e+003;3.439648e-002
2.088617e+003;3.410976e-002
2.090546e+003;3.424207e-002
2.092475e+003;3.451683e-002
2.094403e+003;3.443759e-002
2.096332e+003;3.437403e-002
2.098260e+003;3.438852e-002
2.100189e+003;3.446811e-002
2.102117e+003;3.437565e-002
2.104046e+003;3.446858e-002
2.105974e+003;3.493206e-002
2.107903e+003;3.519960e-002
2.109832e+003;3.508312e-002
2.111760e+003;3.498988e-002
2.113688e+003;3.507587e-002
2.115617e+003;3.515602e-002
2.117546e+003;3.504063e-002
2.119474e+003;3.499157e-002
2.121403e+003;3.496708e-002
2.123331e+003;3.482585e-002
2.125260e+003;3.482183e-002
2.127188e+003;3.490089e-002
2.129117e+003;3.466842e-002
2.131045e+003;3.462206e-002
2.132974e+003;3.481229e-002
2.134903e+003;3.531898e-002
2.136831e+003;3.547129e-002
2.138760e+003;3.508808e-002
2.140688e+003;3.484758e-002
2.142617e+003;3.474548e-002
2.144545e+003;3.446603e-002
2.146474e+003;3.452633e-002
2.148402e+003;3.443475e-002
2.150331e+003;3.443913e-002
2.152260e+003;3.484987e-002
2.154188e+003;3.487001e-002
2.156117e+003;3.462838e-002
2.158045e+003;3.455468e-002
2.159974e+003;3.432182e-002
2.161902e+003;3.425989e-002
2.163831e+003;3.452974e-002
2.165759e+003;3.472072e-002
2.167688e+003;3.447367e-002
2.169616e+003;3.412890e-002
2.171545e+003;3.396954e-002
2.173474e+003;3.375035e-002
2.175402e+003;3.351327e-002
2.177331e+003;3.348618e-002
2.179259e+003;3.332337e-002
2.181188e+003;3.300414e-002
2.183116e+003;3.297801e-002
2.185045e+003;3.291131e-002
2.186973e+003;3.277658e-002
2.188902e+003;3.281749e-002
2.190831e+003;3.273142e-002
2.192759e+003;3.264161e-002
2.194688e+003;3.261539e-002
2.196616e+003;3.259810e-002
2.198545e+003;3.243309e-002
2.200473e+003;3.242891e-002
2.202402e+003;3.255528e-002
2.204330e+003;3.246336e-002
2.206259e+003;3.220564e-002
2.208188e+003;3.200087e-002
2.210116e+003;3.198135e-002
2.212044e+003;3.222766e-002
2.213973e+003;3.238985e-002
2.215902e+003;3.228630e-002
2.217830e+003;3.227709e-002
2.219759e+003;3.232917e-002
2.221687e+003;3.251921e-002
2.223616e+003;3.235005e-002
2.225544e+003;3.203143e-002
2.227473e+003;3.218392e-002
2.229401e+003;3.235722e-002
2.231330e+003;3.255032e-002
2.233259e+003;3.271534e-002
2.235187e+003;3.249772e-002
2.237116e+003;3.210588e-002
2.239044e+003;3.208055e-002
2.240973e+003;3.215316e-002
2.242901e+003;3.219462e-002
2.244830e+003;3.247100e-002
2.246758e+003;3.272149e-002
2.248687e+003;3.257649e-002
2.250615e+003;3.227549e-002
2.252544e+003;3.213988e-002
2.254473e+003;3.208052e-002
2.256401e+003;3.201185e-002
2.258330e+003;3.231471e-002
2.260258e+003;3.235605e-002
2.262187e+003;3.208637e-002
2.264115e+003;3.190051e-002
2.266044e+003;3.177572e-002
2.267972e+003;3.200582e-002
2.269901e+003;3.241681e-002
2.271830e+003;3.248654e-002
2.273758e+003;3.206764e-002
2.275687e+003;3.186513e-002
2.277615e+003;3.176174e-002
2.279544e+003;3.187084e-002
2.281472e+003;3.187865e-002
2.283401e+003;3.179514e-002
2.285329e+003;3.189234e-002
2.287258e+003;3.199533e-002
2.289187e+003;3.179561e-002
2.291115e+003;3.169273e-002
2.293043e+003;3.185069e-002
2.294972e+003;3.174303e-002
2.296901e+003;3.163788e-002
2.298829e+003;3.172175e-002
2.300758e+003;3.158621e-002
2.302686e+003;3.162477e-002
2.304615e+003;3.185772e-002
2.306543e+003;3.182092e-002
2.308472e+003;3.164804e-002
2.310400e+003;3.145036e-002
2.312329e+003;3.159562e-002
2.314258e+003;3.182302e-002
2.316186e+003;3.174032e-002
2.318115e+003;3.162488e-002
2.320043e+003;3.186228e-002
2.321972e+003;3.200565e-002
2.323900e+003;3.198064e-002
2.325829e+003;3.195154e-002
2.327757e+003;3.222902e-002
2.329686e+003;3.258028e-002
2.331615e+003;3.247354e-002
2.333543e+003;3.221507e-002
2.335472e+003;3.239414e-002
2.337400e+003;3.257592e-002
2.339329e+003;3.269494e-002
2.341257e+003;3.294569e-002
2.343186e+003;3.291957e-002
2.345114e+003;3.295985e-002
2.347043e+003;3.323254e-002
2.348971e+003;3.318622e-002
2.350900e+003;3.311259e-002
2.352829e+003;3.334498e-002
2.354757e+003;3.346957e-002
2.356686e+003;3.376797e-002
2.358614e+003;3.398663e-002
2.360543e+003;3.374194e-002
2.362471e+003;3.357924e-002
2.364400e+003;3.390272e-002
2.366328e+003;3.424035e-002
2.368257e+003;3.432741e-002
2.370186e+003;3.422146e-002
2.372114e+003;3.420400e-002
2.374042e+003;3.447460e-002
2.375971e+003;3.480891e-002
2.377900e+003;3.477269e-002
2.379828e+003;3.492047e-002
2.381757e+003;3.526557e-002
2.383685e+003;3.527366e-002
2.385614e+003;3.524153e-002
2.387542e+003;3.533382e-002
2.389471e+003;3.553881e-002
2.391399e+003;3.587110e-002
2.393328e+003;3.602421e-002
2.395257e+003;3.601039e-002
2.397185e+003;3.580100e-002
2.399114e+003;3.580143e-002
2.401042e+003;3.622856e-002
2.402971e+003;3.663369e-002
2.404899e+003;3.649643e-002
2.406828e+003;3.622233e-002
2.408756e+003;3.641657e-002
2.410685e+003;3.703583e-002
2.412614e+003;3.742820e-002
2.414542e+003;3.723491e-002
2.416471e+003;3.702436e-002
2.418399e+003;3.749282e-002
2.420328e+003;3.788032e-002
2.422256e+003;3.787645e-002
2.424185e+003;3.776945e-002
2.426113e+003;3.780455e-002
2.428042e+003;3.821212e-002
2.429970e+003;3.848824e-002
2.431899e+003;3.862591e-002
2.433828e+003;3.867126e-002
2.435756e+003;3.866104e-002
2.437685e+003;3.860205e-002
2.439613e+003;3.868335e-002
2.441542e+003;3.918364e-002
2.443470e+003;3.965705e-002
2.445399e+003;3.983173e-002
2.447327e+003;3.992358e-002
2.449256e+003;3.999642e-002
2.451185e+003;4.001993e-002
2.453113e+003;4.015896e-002
2.455042e+003;4.038002e-002
2.456970e+003;4.045144e-002
2.458899e+003;4.060324e-002
2.460827e+003;4.066221e-002
2.462756e+003;4.072819e-002
2.464684e+003;4.092981e-002
2.466613e+003;4.104120e-002
2.468542e+003;4.108115e-002
2.470470e+003;4.092984e-002
2.472398e+003;4.082238e-002
2.474327e+003;4.114019e-002
2.476256e+003;4.164415e-002
2.478184e+003;4.210251e-002
2.480113e+003;4.223348e-002
2.482041e+003;4.186342e-002
2.483970e+003;4.149874e-002
2.485898e+003;4.165936e-002
2.487827e+003;4.223337e-002
2.489755e+003;4.240876e-002
2.491684e+003;4.242641e-002
2.493613e+003;4.226292e-002
2.495541e+003;4.205345e-002
2.497470e+003;4.238626e-002
2.499398e+003;4.284764e-002
2.501327e+003;4.278222e-002
2.503255e+003;4.272390e-002
2.505184e+003;4.294953e-002
2.507112e+003;4.316521e-002
2.509041e+003;4.331283e-002
2.510969e+003;4.359705e-002
2.512898e+003;4.375497e-002
2.514827e+003;4.399906e-002
2.516755e+003;4.392958e-002
2.518684e+003;4.378032e-002
2.520612e+003;4.395514e-002
2.522541e+003;4.427899e-002
2.524469e+003;4.408692e-002
2.526398e+003;4.396368e-002
2.528326e+003;4.418471e-002
2.530255e+003;4.438731e-002
2.532184e+003;4.450716e-002
2.534112e+003;4.439968e-002
2.536041e+003;4.460974e-002
2.537969e+003;4.490075e-002
2.539898e+003;4.473970e-002
2.541826e+003;4.431877e-002
2.543755e+003;4.443106e-002
2.545683e+003;4.485292e-002
2.547612e+003;4.544110e-002
2.549541e+003;4.577531e-002
2.551469e+003;4.552499e-002
2.553397e+003;4.535054e-002
2.555326e+003;4.549949e-002
2.557255e+003;4.563152e-002
2.559183e+003;4.566292e-002
2.561112e+003;4.589005e-002
2.563040e+003;4.625729e-002
2.564969e+003;4.624904e-002
2.566897e+003;4.596397e-002
2.568826e+003;4.613601e-002
2.570754e+003;4.638591e-002
2.572683e+003;4.632150e-002
2.574612e+003;4.610764e-002
2.576540e+003;4.605333e-002
2.578469e+003;4.615594e-002
2.580397e+003;4.626518e-002
2.582326e+003;4.642381e-002
2.584254e+003;4.660567e-002
2.586183e+003;4.673789e-002
2.588111e+003;4.693837e-002
2.590040e+003;4.703204e-002
2.591969e+003;4.686946e-002
2.593897e+003;4.699770e-002
2.595826e+003;4.722279e-002
2.597754e+003;4.711320e-002
2.599683e+003;4.730606e-002
2.601611e+003;4.761024e-002
2.603540e+003;4.730248e-002
2.605468e+003;4.734870e-002
2.607397e+003;4.768782e-002
2.609325e+003;4.793380e-002
2.611254e+003;4.816660e-002
2.613183e+003;4.841826e-002
2.615111e+003;4.833974e-002
2.617040e+003;4.836526e-002
2.618968e+003;4.902013e-002
2.620897e+003;4.942608e-002
2.622825e+003;4.948244e-002
2.624754e+003;4.937359e-002
2.626682e+003;4.939612e-002
2.628611e+003;4.957313e-002
2.630540e+003;4.988288e-002
2.632468e+003;5.013082e-002
2.634396e+003;5.016939e-002
2.636325e+003;5.014715e-002
2.638254e+003;5.046438e-002
2.640182e+003;5.061122e-002
2.642111e+003;5.066875e-002
2.644039e+003;5.081819e-002
2.645968e+003;5.086621e-002
2.647896e+003;5.116108e-002
2.649825e+003;5.162273e-002
2.651753e+003;5.152676e-002
2.653682e+003;5.133840e-002
2.655611e+003;5.155874e-002
2.657539e+003;5.184075e-002
2.659468e+003;5.211024e-002
2.661396e+003;5.235246e-002
2.663325e+003;5.255548e-002
2.665253e+003;5.242147e-002
2.667182e+003;5.222756e-002
2.669110e+003;5.253420e-002
2.671039e+003;5.285056e-002
2.672968e+003;5.289464e-002
2.674896e+003;5.321715e-002
2.676825e+003;5.331877e-002
2.678753e+003;5.308253e-002
2.680682e+003;5.322764e-002
2.682610e+003;5.370766e-002
2.684539e+003;5.366922e-002
2.686467e+003;5.341176e-002
2.688396e+003;5.366495e-002
2.690324e+003;5.417623e-002
2.692253e+003;5.451205e-002
2.694182e+003;5.468285e-002
2.696110e+003;5.482500e-002
2.698039e+003;5.484511e-002
2.699967e+003;5.472964e-002
2.701896e+003;5.469777e-002
2.703824e+003;5.488376e-002
2.705753e+003;5.534251e-002
2.707681e+003;5.567263e-002
2.709610e+003;5.568070e-002
2.711539e+003;5.560970e-002
2.713467e+003;5.562247e-002
2.715396e+003;5.573569e-002
2.717324e+003;5.621061e-002
2.719253e+003;5.663565e-002
2.721181e+003;5.680986e-002
2.723110e+003;5.690560e-002
2.725038e+003;5.702207e-002
2.726967e+003;5.727261e-002
2.728896e+003;5.748474e-002
2.730824e+003;5.744828e-002
2.732752e+003;5.751330e-002
2.734681e+003;5.745411e-002
2.736610e+003;5.754500e-002
2.738538e+003;5.790494e-002
2.740467e+003;5.810083e-002
2.742395e+003;5.829992e-002
2.744324e+003;5.830128e-002
2.746252e+003;5.856344e-002
2.748181e+003;5.873634e-002
2.750109e+003;5.853254e-002
2.752038e+003;5.893132e-002
2.753967e+003;5.932682e-002
2.755895e+003;5.915072e-002
2.757824e+003;5.879036e-002
2.759752e+003;5.866875e-002
2.761681e+003;5.896566e-002
2.763609e+003;5.946529e-002
2.765538e+003;5.980423e-002
2.767466e+003;5.972678e-002
2.769395e+003;5.942741e-002
2.771323e+003;5.958519e-002
2.773252e+003;6.005056e-002
2.775181e+003;6.017610e-002
2.777109e+003;6.047701e-002
2.779038e+003;6.072631e-002
2.780966e+003;6.091776e-002
2.782895e+003;6.144026e-002
2.784823e+003;6.141934e-002
2.786752e+003;6.112921e-002
2.788680e+003;6.137068e-002
2.790609e+003;6.154531e-002
2.792538e+003;6.182949e-002
2.794466e+003;6.205808e-002
2.796395e+003;6.222561e-002
2.798323e+003;6.276431e-002
2.800252e+003;6.327914e-002
2.802180e+003;6.352618e-002
2.804109e+003;6.392573e-002
2.806037e+003;6.447211e-002
2.807966e+003;6.486080e-002
2.809895e+003;6.514616e-002
2.811823e+003;6.544057e-002
2.813751e+003;6.570692e-002
2.815680e+003;6.603348e-002
2.817609e+003;6.642967e-002
2.819537e+003;6.684258e-002
2.821466e+003;6.760824e-002
2.823394e+003;6.848203e-002
2.825323e+003;6.889374e-002
2.827251e+003;6.909368e-002
2.829180e+003;6.981137e-002
2.831108e+003;7.076511e-002
2.833037e+003;7.162371e-002
2.834966e+003;7.264692e-002
2.836894e+003;7.368075e-002
2.838823e+003;7.447784e-002
2.840751e+003;7.525480e-002
2.842680e+003;7.633875e-002
2.844608e+003;7.798374e-002
2.846537e+003;7.979549e-002
2.848465e+003;8.172546e-002
2.850394e+003;8.321187e-002
2.852323e+003;8.383958e-002
2.854251e+003;8.417843e-002
2.856180e+003;8.465209e-002
2.858108e+003;8.511107e-002
2.860037e+003;8.575109e-002
2.861965e+003;8.691712e-002
2.863894e+003;8.806490e-002
2.865822e+003;8.849749e-002
2.867751e+003;8.897666e-002
2.869679e+003;8.974800e-002
2.871608e+003;9.049439e-002
2.873536e+003;9.082160e-002
2.875465e+003;9.114911e-002
2.877394e+003;9.153773e-002
2.879322e+003;9.211385e-002
2.881251e+003;9.260011e-002
2.883179e+003;9.292776e-002
2.885108e+003;9.330722e-002
2.887036e+003;9.354022e-002
2.888965e+003;9.369403e-002
2.890893e+003;9.424310e-002
2.892822e+003;9.447623e-002
2.894750e+003;9.402166e-002
2.896679e+003;9.415609e-002
2.898608e+003;9.455083e-002
2.900536e+003;9.476195e-002
2.902465e+003;9.468456e-002
2.904393e+003;9.424726e-002
2.906322e+003;9.367759e-002
2.908250e+003;9.359571e-002
2.910179e+003;9.419889e-002
2.912107e+003;9.438004e-002
2.914036e+003;9.379493e-002
2.915965e+003;9.377964e-002
2.917893e+003;9.454452e-002
2.919822e+003;9.497602e-002
2.921750e+003;9.462889e-002
2.923679e+003;9.406407e-002
2.925607e+003;9.310801e-002
2.927536e+003;9.245238e-002
2.929464e+003;9.169918e-002
2.931393e+003;9.118973e-002
2.933322e+003;9.094921e-002
2.935250e+003;8.980247e-002
2.937178e+003;8.852857e-002
2.939107e+003;8.779402e-002
2.941036e+003;8.723704e-002
2.942964e+003;8.666678e-002
2.944893e+003;8.558425e-002
2.946821e+003;8.435319e-002
2.948750e+003;8.282886e-002
2.950678e+003;8.147004e-002
2.952607e+003;8.050103e-002
2.954535e+003;7.958496e-002
2.956464e+003;7.843949e-002
2.958393e+003;7.748402e-002
2.960321e+003;7.698286e-002
2.962250e+003;7.634988e-002
2.964178e+003;7.546846e-002
2.966107e+003;7.475526e-002
2.968035e+003;7.423133e-002
2.969964e+003;7.359038e-002
2.971892e+003;7.288144e-002
2.973821e+003;7.210385e-002
2.975750e+003;7.139257e-002
2.977678e+003;7.094851e-002
2.979607e+003;7.012274e-002
2.981535e+003;6.933313e-002
2.983464e+003;6.875009e-002
2.985392e+003;6.816749e-002
2.987321e+003;6.797971e-002
2.989249e+003;6.752915e-002
2.991178e+003;6.703439e-002
2.993106e+003;6.676023e-002
2.995035e+003;6.649764e-002
2.996964e+003;6.632961e-002
2.998892e+003;6.617585e-002
3.000821e+003;6.590644e-002
3.002749e+003;6.581490e-002
3.004678e+003;6.595951e-002
3.006606e+003;6.531218e-002
3.008535e+003;6.492309e-002
3.010463e+003;6.523390e-002
3.012392e+003;6.555237e-002
3.014321e+003;6.560458e-002
3.016249e+003;6.547104e-002
3.018177e+003;6.530460e-002
3.020106e+003;6.520475e-002
3.022035e+003;6.530568e-002
3.023963e+003;6.556050e-002
3.025892e+003;6.575899e-002
3.027820e+003;6.588017e-002
3.029749e+003;6.584612e-002
3.031677e+003;6.567381e-002
3.033606e+003;6.570487e-002
3.035534e+003;6.604579e-002
3.037463e+003;6.658576e-002
3.039392e+003;6.684849e-002
3.041320e+003;6.682631e-002
3.043249e+003;6.712541e-002
3.045177e+003;6.756093e-002
3.047106e+003;6.807555e-002
3.049034e+003;6.845181e-002
3.050963e+003;6.801102e-002
3.052891e+003;6.765613e-002
3.054820e+003;6.828240e-002
3.056749e+003;6.901394e-002
3.058677e+003;6.911770e-002
3.060606e+003;6.928136e-002
3.062534e+003;6.969804e-002
3.064463e+003;6.973565e-002
3.066391e+003;6.995922e-002
3.068320e+003;7.046976e-002
3.070248e+003;7.037199e-002
3.072177e+003;7.021411e-002
3.074105e+003;7.095175e-002
3.076034e+003;7.163152e-002
3.077963e+003;7.184270e-002
3.079891e+003;7.251185e-002
3.081820e+003;7.300094e-002
3.083748e+003;7.285706e-002
3.085677e+003;7.314270e-002
3.087605e+003;7.338745e-002
3.089534e+003;7.358331e-002
3.091462e+003;7.410014e-002
3.093391e+003;7.462528e-002
3.095320e+003;7.488654e-002
3.097248e+003;7.498753e-002
3.099177e+003;7.519424e-002
3.101105e+003;7.534701e-002
3.103034e+003;7.556272e-002
3.104962e+003;7.620055e-002
3.106891e+003;7.674932e-002
3.108819e+003;7.725734e-002
3.110748e+003;7.761133e-002
3.112677e+003;7.770349e-002
3.114605e+003;7.797989e-002
3.116533e+003;7.860766e-002
3.118462e+003;7.903637e-002
3.120391e+003;7.896832e-002
3.122319e+003;7.918541e-002
3.124248e+003;7.993599e-002
3.126176e+003;8.023422e-002
3.128105e+003;8.049329e-002
3.130033e+003;8.102699e-002
3.131962e+003;8.123156e-002
3.133890e+003;8.193804e-002
3.135819e+003;8.279394e-002
3.137748e+003;8.314557e-002
3.139676e+003;8.357509e-002
3.141605e+003;8.448961e-002
3.143533e+003;8.479936e-002
3.145462e+003;8.474636e-002
3.147390e+003;8.518786e-002
3.149319e+003;8.580124e-002
3.151247e+003;8.625489e-002
3.153176e+003;8.658705e-002
3.155104e+003;8.736975e-002
3.157033e+003;8.799170e-002
3.158962e+003;8.800497e-002
3.160890e+003;8.817348e-002
3.162819e+003;8.855131e-002
3.164747e+003;8.910238e-002
3.166676e+003;8.993153e-002
3.168604e+003;9.090709e-002
3.170533e+003;9.140451e-002
3.172461e+003;9.168359e-002
3.174390e+003;9.217866e-002
3.176319e+003;9.265949e-002
3.178247e+003;9.311113e-002
3.180176e+003;9.391560e-002
3.182104e+003;9.461048e-002
3.184033e+003;9.493834e-002
3.185961e+003;9.536986e-002
3.187890e+003;9.563147e-002
3.189818e+003;9.656746e-002
3.191747e+003;9.802566e-002
3.193676e+003;9.825755e-002
3.195604e+003;9.856028e-002
3.197532e+003;9.956653e-002
3.199461e+003;1.002300e-001
3.201390e+003;1.005081e-001
3.203318e+003;1.008332e-001
3.205247e+003;1.012175e-001
3.207175e+003;1.017560e-001
3.209104e+003;1.025137e-001
3.211032e+003;1.033102e-001
3.212961e+003;1.041150e-001
3.214889e+003;1.045245e-001
3.216818e+003;1.046329e-001
3.218747e+003;1.053502e-001
3.220675e+003;1.066642e-001
3.222604e+003;1.077214e-001
3.224532e+003;1.080192e-001
3.226461e+003;1.080803e-001
3.228389e+003;1.085798e-001
3.230318e+003;1.095662e-001
3.232246e+003;1.102355e-001
3.234175e+003;1.106336e-001
3.236104e+003;1.114835e-001
3.238032e+003;1.120701e-001
3.239961e+003;1.125218e-001
3.241889e+003;1.135504e-001
3.243818e+003;1.145069e-001
3.245746e+003;1.154231e-001
3.247675e+003;1.157846e-001
3.249603e+003;1.162053e-001
3.251532e+003;1.167073e-001
3.253460e+003;1.171950e-001
3.255389e+003;1.179785e-001
3.257318e+003;1.190662e-001
3.259246e+003;1.198683e-001
3.261175e+003;1.199485e-001
3.263103e+003;1.202932e-001
3.265032e+003;1.213321e-001
3.266960e+003;1.223328e-001
3.268889e+003;1.228448e-001
3.270817e+003;1.230651e-001
3.272746e+003;1.234463e-001
3.274675e+003;1.232275e-001
3.276603e+003;1.231833e-001
3.278531e+003;1.242774e-001
3.280460e+003;1.254290e-001
3.282389e+003;1.258215e-001
3.284317e+003;1.264137e-001
3.286246e+003;1.269432e-001
3.288174e+003;1.269717e-001
3.290103e+003;1.269925e-001
3.292031e+003;1.270186e-001
3.293960e+003;1.275667e-001
3.295888e+003;1.286946e-001
3.297817e+003;1.292741e-001
3.299746e+003;1.290340e-001
3.301674e+003;1.291642e-001
3.303603e+003;1.289968e-001
3.305531e+003;1.290689e-001
3.307460e+003;1.295365e-001
3.309388e+003;1.299006e-001
3.311317e+003;1.302368e-001
3.313245e+003;1.303543e-001
3.315174e+003;1.301994e-001
3.317103e+003;1.300145e-001
3.319031e+003;1.306091e-001
3.320960e+003;1.312626e-001
3.322888e+003;1.314337e-001
3.324817e+003;1.313522e-001
3.326745e+003;1.312802e-001
3.328674e+003;1.312645e-001
3.330602e+003;1.311324e-001
3.332531e+003;1.307685e-001
3.334459e+003;1.310870e-001
3.336388e+003;1.315014e-001
3.338317e+003;1.314819e-001
3.340245e+003;1.314709e-001
3.342174e+003;1.312084e-001
3.344102e+003;1.313603e-001
3.346031e+003;1.316055e-001
3.347959e+003;1.315309e-001
3.349888e+003;1.314502e-001
3.351816e+003;1.314182e-001
3.353745e+003;1.310398e-001
3.355674e+003;1.303539e-001
3.357602e+003;1.298500e-001
3.359531e+003;1.297752e-001
3.361459e+003;1.298312e-001
3.363388e+003;1.298144e-001
3.365316e+003;1.298081e-001
3.367245e+003;1.293250e-001
3.369173e+003;1.284556e-001
3.371102e+003;1.283282e-001
3.373031e+003;1.283379e-001
3.374959e+003;1.276447e-001
3.376887e+003;1.267626e-001
3.378816e+003;1.263382e-001
3.380745e+003;1.264552e-001
3.382673e+003;1.263631e-001
3.384602e+003;1.255968e-001
3.386530e+003;1.248915e-001
3.388459e+003;1.246119e-001
3.390387e+003;1.241430e-001
3.392316e+003;1.240036e-001
3.394244e+003;1.243030e-001
3.396173e+003;1.241078e-001
3.398102e+003;1.234804e-001
3.400030e+003;1.230639e-001
3.401959e+003;1.225902e-001
3.403887e+003;1.220117e-001
3.405816e+003;1.219431e-001
3.407744e+003;1.216002e-001
3.409673e+003;1.205208e-001
3.411601e+003;1.200621e-001
3.413530e+003;1.195890e-001
3.415458e+003;1.188652e-001
3.417387e+003;1.180854e-001
3.419316e+003;1.176322e-001
3.421244e+003;1.171934e-001
3.423173e+003;1.168308e-001
3.425101e+003;1.160162e-001
3.427030e+003;1.157783e-001
3.428958e+003;1.158420e-001
3.430887e+003;1.152255e-001
3.432815e+003;1.139124e-001
3.434744e+003;1.125708e-001
3.436673e+003;1.120788e-001
3.438601e+003;1.119578e-001
3.440530e+003;1.115576e-001
3.442458e+003;1.105546e-001
3.444387e+003;1.096584e-001
3.446315e+003;1.091795e-001
3.448244e+003;1.086965e-001
3.450172e+003;1.077134e-001
3.452101e+003;1.068878e-001
3.454030e+003;1.060922e-001
3.455958e+003;1.058369e-001
3.457886e+003;1.053912e-001
3.459815e+003;1.044561e-001
3.461744e+003;1.038642e-001
3.463672e+003;1.035157e-001
3.465601e+003;1.026537e-001
3.467529e+003;1.011427e-001
3.469458e+003;1.002603e-001
3.471386e+003;1.002007e-001
3.473315e+003;9.985003e-002
3.475243e+003;9.866498e-002
3.477172e+003;9.773268e-002
3.479101e+003;9.680039e-002
3.481029e+003;9.577731e-002
3.482958e+003;9.537192e-002
3.484886e+003;9.480160e-002
3.486815e+003;9.404371e-002
3.488743e+003;9.321468e-002
3.490672e+003;9.215727e-002
3.492600e+003;9.160548e-002
3.494529e+003;9.138700e-002
3.496458e+003;9.047218e-002
3.498386e+003;8.990218e-002
3.500315e+003;8.939240e-002
3.502243e+003;8.813962e-002
3.504172e+003;8.710554e-002
3.506100e+003;8.658054e-002
3.508029e+003;8.597459e-002
3.509957e+003;8.510212e-002
3.511886e+003;8.412964e-002
3.513814e+003;8.304423e-002
3.515743e+003;8.260919e-002
3.517672e+003;8.263219e-002
3.519600e+003;8.177501e-002
3.521529e+003;8.054570e-002
3.523457e+003;7.988382e-002
3.525386e+003;7.929011e-002
3.527314e+003;7.826674e-002
3.529243e+003;7.713005e-002
3.531171e+003;7.663961e-002
3.533100e+003;7.608601e-002
3.535029e+003;7.517824e-002
3.536957e+003;7.399224e-002
3.538885e+003;7.292862e-002
3.540814e+003;7.176268e-002
3.542743e+003;7.136726e-002
3.544671e+003;7.136015e-002
3.546600e+003;7.075087e-002
3.548528e+003;6.992894e-002
3.550457e+003;6.920822e-002
3.552385e+003;6.823258e-002
3.554314e+003;6.717139e-002
3.556242e+003;6.615821e-002
3.558171e+003;6.517056e-002
3.560100e+003;6.411287e-002
3.562028e+003;6.396277e-002
3.563957e+003;6.398543e-002
3.565885e+003;6.312714e-002
3.567814e+003;6.247427e-002
3.569742e+003;6.175244e-002
3.571671e+003;6.085037e-002
3.573599e+003;6.032691e-002
3.575528e+003;5.987873e-002
3.577457e+003;5.931941e-002
3.579385e+003;5.873038e-002
3.581314e+003;5.818477e-002
3.583242e+003;5.720846e-002
3.585171e+003;5.612060e-002
3.587099e+003;5.543115e-002
3.589028e+003;5.511445e-002
3.590956e+003;5.488666e-002
3.592885e+003;5.434807e-002
3.594813e+003;5.394222e-002
3.596742e+003;5.376233e-002
3.598671e+003;5.305834e-002
3.600599e+003;5.216243e-002
3.602528e+003;5.158097e-002
3.604456e+003;5.120857e-002
3.606385e+003;5.099899e-002
3.608313e+003;5.020323e-002
3.610242e+003;4.959375e-002
3.612170e+003;4.956600e-002
3.614099e+003;4.885535e-002
3.616028e+003;4.785400e-002
3.617956e+003;4.752566e-002
3.619885e+003;4.719849e-002
3.621813e+003;4.735454e-002
3.623742e+003;4.764271e-002
3.625670e+003;4.709909e-002
3.627599e+003;4.649539e-002
3.629527e+003;4.592223e-002
3.631456e+003;4.549467e-002
3.633385e+003;4.517094e-002
3.635313e+003;4.475689e-002
3.637241e+003;4.415657e-002
3.639170e+003;4.363028e-002
3.641099e+003;4.305742e-002
3.643027e+003;4.207918e-002
3.644956e+003;4.125448e-002
3.646884e+003;4.112249e-002
3.648813e+003;4.114310e-002
3.650741e+003;4.073528e-002
3.652670e+003;3.989816e-002
3.654598e+003;3.916989e-002
3.656527e+003;3.850044e-002
3.658456e+003;3.789048e-002
3.660384e+003;3.729528e-002
3.662313e+003;3.699419e-002
3.664241e+003;3.645394e-002
3.666170e+003;3.507604e-002
3.668098e+003;3.431859e-002
3.670027e+003;3.420307e-002
3.671955e+003;3.393636e-002
3.673884e+003;3.335457e-002
3.675813e+003;3.219819e-002
3.677741e+003;3.162427e-002
3.679669e+003;3.189491e-002
3.681598e+003;3.172952e-002
3.683527e+003;3.132093e-002
3.685455e+003;3.098225e-002
3.687384e+003;3.068725e-002
3.689312e+003;3.019595e-002
3.691241e+003;3.025875e-002
3.693169e+003;3.056117e-002
3.695098e+003;3.057792e-002
3.697026e+003;2.989751e-002
3.698955e+003;2.915490e-002
3.700884e+003;2.890378e-002
3.702812e+003;2.919629e-002
3.704741e+003;2.890799e-002
3.706669e+003;2.893895e-002
3.708598e+003;2.905779e-002
3.710526e+003;2.883763e-002
3.712455e+003;2.855385e-002
3.714383e+003;2.844158e-002
3.716312e+003;2.850095e-002
3.718240e+003;2.865393e-002
3.720169e+003;2.864806e-002
3.722098e+003;2.787321e-002
3.724026e+003;2.686806e-002
3.725955e+003;2.646528e-002
3.727883e+003;2.664270e-002
3.729812e+003;2.709445e-002
3.731740e+003;2.710140e-002
3.733669e+003;2.722111e-002
3.735597e+003;2.745669e-002
3.737526e+003;2.703531e-002
3.739455e+003;2.668251e-002
3.741383e+003;2.648127e-002
3.743312e+003;2.630740e-002
3.745240e+003;2.660110e-002
3.747169e+003;2.698016e-002
3.749097e+003;2.672317e-002
3.751026e+003;2.632286e-002
3.752954e+003;2.628389e-002
3.754883e+003;2.629160e-002
3.756812e+003;2.652653e-002
3.758740e+003;2.664693e-002
3.760668e+003;2.617872e-002
3.762597e+003;2.598471e-002
3.764526e+003;2.606214e-002
3.766454e+003;2.624446e-002
3.768383e+003;2.628987e-002
3.770311e+003;2.644024e-002
3.772240e+003;2.670108e-002
3.774168e+003;2.625284e-002
3.776097e+003;2.593258e-002
3.778025e+003;2.583041e-002
3.779954e+003;2.594102e-002
3.781883e+003;2.599276e-002
3.783811e+003;2.602411e-002
3.785740e+003;2.588060e-002
3.787668e+003;2.567463e-002
3.789597e+003;2.600356e-002
3.791525e+003;2.647997e-002
3.793454e+003;2.696941e-002
3.795382e+003;2.722958e-002
3.797311e+003;2.652748e-002
3.799240e+003;2.578375e-002
3.801168e+003;2.542126e-002
3.803097e+003;2.558637e-002
3.805025e+003;2.600219e-002
3.806954e+003;2.639559e-002
3.808882e+003;2.648631e-002
3.810811e+003;2.670654e-002
3.812739e+003;2.713307e-002
3.814668e+003;2.686823e-002
3.816596e+003;2.659007e-002
3.818525e+003;2.654526e-002
3.820454e+003;2.678009e-002
3.822382e+003;2.674407e-002
3.824311e+003;2.635095e-002
3.826239e+003;2.658683e-002
3.828168e+003;2.689136e-002
3.830096e+003;2.728684e-002
3.832025e+003;2.735130e-002
3.833953e+003;2.694688e-002
3.835882e+003;2.661364e-002
3.837811e+003;2.672243e-002
3.839739e+003;2.698972e-002
3.841667e+003;2.705544e-002
3.843596e+003;2.720322e-002
3.845525e+003;2.707354e-002
3.847453e+003;2.692809e-002
3.849382e+003;2.731348e-002
3.851310e+003;2.736108e-002
3.853239e+003;2.694089e-002
3.855167e+003;2.746089e-002
3.857096e+003;2.814873e-002
3.859024e+003;2.820190e-002
3.860953e+003;2.821612e-002
3.862882e+003;2.835715e-002
3.864810e+003;2.818741e-002
3.866739e+003;2.797080e-002
3.868667e+003;2.829526e-002
3.870596e+003;2.841838e-002
3.872524e+003;2.845814e-002
3.874453e+003;2.849745e-002
3.876381e+003;2.846458e-002
3.878310e+003;2.860148e-002
3.880239e+003;2.867527e-002
3.882167e+003;2.865191e-002
3.884096e+003;2.815605e-002
3.886024e+003;2.815442e-002
3.887953e+003;2.890473e-002
3.889881e+003;2.949755e-002
3.891810e+003;2.976836e-002
3.893738e+003;2.947241e-002
3.895667e+003;2.942131e-002
3.897595e+003;3.020866e-002
3.899524e+003;2.998047e-002
3.901453e+003;2.897380e-002
3.903381e+003;2.895503e-002
3.905310e+003;2.922372e-002
3.907238e+003;2.928741e-002
3.909167e+003;2.980068e-002
3.911095e+003;3.006628e-002
3.913024e+003;3.038854e-002
3.914952e+003;3.059299e-002
3.916881e+003;3.070937e-002
3.918810e+003;3.105897e-002
3.920738e+003;3.136580e-002
3.922667e+003;3.145385e-002
3.924595e+003;3.120058e-002
3.926524e+003;3.072295e-002
3.928452e+003;3.118865e-002
3.930381e+003;3.172684e-002
3.932309e+003;3.146204e-002
3.934238e+003;3.132748e-002
3.936167e+003;3.153871e-002
3.938095e+003;3.189851e-002
3.940023e+003;3.202654e-002
3.941952e+003;3.183600e-002
3.943881e+003;3.204381e-002
3.945809e+003;3.208234e-002
3.947738e+003;3.199644e-002
3.949666e+003;3.212101e-002
3.951595e+003;3.197165e-002
3.953523e+003;3.182958e-002
3.955452e+003;3.187687e-002
3.957380e+003;3.262171e-002
3.959309e+003;3.312807e-002
3.961238e+003;3.287617e-002
3.963166e+003;3.233438e-002
3.965095e+003;3.226928e-002
3.967023e+003;3.302416e-002
3.968952e+003;3.318254e-002
3.970880e+003;3.311974e-002
3.972809e+003;3.333564e-002
3.974737e+003;3.298184e-002
3.976666e+003;3.271534e-002
3.978594e+003;3.269751e-002
3.980523e+003;3.258950e-002
3.982452e+003;3.306753e-002
3.984380e+003;3.350014e-002
3.986309e+003;3.330265e-002
3.988237e+003;3.321458e-002
3.990166e+003;3.322252e-002
3.992094e+003;3.293447e-002
3.994023e+003;3.287557e-002
3.995951e+003;3.300246e-002
3.997880e+003;3.331328e-002
3.999809e+003;3.338959e-002
4.001737e+003;0.000000e+000
