3.992094e+002;0.000000e+000
4.011380e+002;0.000000e+000
4.030665e+002;0.000000e+000
4.049951e+002;0.000000e+000
4.069236e+002;0.000000e+000
4.088522e+002;0.000000e+000
4.107807e+002;0.000000e+000
4.127093e+002;0.000000e+000
4.146378e+002;0.000000e+000
4.165664e+002;0.000000e+000
4.184949e+002;0.000000e+000
4.204235e+002;0.000000e+000
4.223520e+002;0.000000e+000
4.242806e+002;0.000000e+000
4.262091e+002;0.000000e+000
4.281377e+002;0.000000e+000
4.300662e+002;0.000000e+000
4.319948e+002;0.000000e+000
4.339233e+002;0.000000e+000
4.358519e+002;0.000000e+000
4.377804e+002;0.000000e+000
4.397090e+002;0.000000e+000
4.416375e+002;0.000000e+000
4.435660e+002;0.000000e+000
4.454946e+002;0.000000e+000
4.474232e+002;0.000000e+000
4.493517e+002;0.000000e+000
4.512802e+002;0.000000e+000
4.532088e+002;0.000000e+000
4.551373e+002;0.000000e+000
4.570659e+002;0.000000e+000
4.589944e+002;0.000000e+000
4.609230e+002;0.000000e+000
4.628515e+002;0.000000e+000
4.647801e+002;0.000000e+000
4.667086e+002;0.000000e+000
4.686372e+002;0.000000e+000
4.705657e+002;0.000000e+000
4.724943e+002;0.000000e+000
4.744228e+002;0.000000e+000
4.763513e+002;0.000000e+000
4.782799e+002;0.000000e+000
4.802085e+002;0.000000e+000
4.821370e+002;0.000000e+000
4.840656e+002;0.000000e+000
4.859941e+002;0.000000e+000
4.879226e+002;0.000000e+000
4.898512e+002;0.000000e+000
4.917798e+002;0.000000e+000
4.937083e+002;0.000000e+000
4.956368e+002;0.000000e+000
4.975654e+002;0.000000e+000
4.994939e+002;0.000000e+000
5.014225e+002;0.000000e+000
5.033510e+002;0.000000e+000
5.052796e+002;0.000000e+000
5.072081e+002;0.000000e+000
5.091367e+002;0.000000e+000
5.110652e+002;0.000000e+000
5.129938e+002;0.000000e+000
5.149223e+002;0.000000e+000
5.168509e+002;0.000000e+000
5.187794e+002;0.000000e+000
5.207079e+002;0.000000e+000
5.226365e+002;0.000000e+000
5.245651e+002;0.000000e+000
5.264936e+002;0.000000e+000
5.284222e+002;0.000000e+000
5.303507e+002;0.000000e+000
5.322792e+002;0.000000e+000
5.342078e+002;0.000000e+000
5.361364e+002;0.000000e+000
5.380649e+002;0.000000e+000
5.399935e+002;0.000000e+000
5.419220e+002;0.000000e+000
5.438505e+002;0.000000e+000
5.457791e+002;0.000000e+000
5.477076e+002;0.000000e+000
5.496362e+002;0.000000e+000
5.515648e+002;0.000000e+000
5.534933e+002;0.000000e+000
5.554218e+002;0.000000e+000
5.573504e+002;0.000000e+000
5.592789e+002;0.000000e+000
5.612075e+002;0.000000e+000
5.631360e+002;0.000000e+000
5.650646e+002;0.000000e+000
5.669931e+002;0.000000e+000
5.689217e+002;0.000000e+000
5.708502e+002;0.000000e+000
5.727787e+002;0.000000e+000
5.747073e+002;0.000000e+000
5.766359e+002;0.000000e+000
5.785644e+002;0.000000e+000
5.804930e+002;0.000000e+000
5.824215e+002;0.000000e+000
5.843500e+002;0.000000e+000
5.862786e+002;0.000000e+000
5.882072e+002;0.000000e+000
5.901357e+002;0.000000e+000
5.920643e+002;0.000000e+000
5.939928e+002;0.000000e+000
5.959213e+002;0.000000e+000
5.978499e+002;0.000000e+000
5.997784e+002;2.067765e-001
6.017070e+002;2.034011e-001
6.036355e+002;2.018640e-001
6.055641e+002;2.002670e-001
6.074926e+002;1.988886e-001
6.094211e+002;1.992083e-001
6.113497e+002;2.018010e-001
6.132783e+002;1.999022e-001
6.152068e+002;1.984124e-001
6.171354e+002;1.952005e-001
6.190639e+002;1.876061e-001
6.209924e+002;1.869787e-001
6.229210e+002;1.888530e-001
6.248495e+002;1.883153e-001
6.267781e+002;1.858457e-001
6.287067e+002;1.796650e-001
6.306352e+002;1.760215e-001
6.325637e+002;1.747880e-001
6.344923e+002;1.719690e-001
6.364208e+002;1.779546e-001
6.383494e+002;1.806651e-001
6.402780e+002;1.751876e-001
6.422065e+002;1.790626e-001
6.441350e+002;1.837920e-001
6.460636e+002;1.781176e-001
6.479921e+002;1.689164e-001
6.499207e+002;1.709086e-001
6.518492e+002;1.762405e-001
6.537778e+002;1.782706e-001
6.557063e+002;1.798657e-001
6.576349e+002;1.792762e-001
6.595634e+002;1.815072e-001
6.614919e+002;1.833276e-001
6.634205e+002;1.829408e-001
6.653491e+002;1.819334e-001
6.672776e+002;1.817143e-001
6.692062e+002;1.806275e-001
6.711347e+002;1.774109e-001
6.730632e+002;1.725653e-001
6.749918e+002;1.685805e-001
6.769203e+002;1.648622e-001
6.788489e+002;1.605825e-001
6.807775e+002;1.565747e-001
6.827060e+002;1.560128e-001
6.846345e+002;1.555636e-001
6.865631e+002;1.558861e-001
6.884916e+002;1.558478e-001
6.904202e+002;1.532767e-001
6.923488e+002;1.500809e-001
6.942773e+002;1.496434e-001
6.962058e+002;1.506375e-001
6.981344e+002;1.510333e-001
7.000629e+002;1.513629e-001
7.019915e+002;1.502337e-001
7.039200e+002;1.488818e-001
7.058486e+002;1.485480e-001
7.077771e+002;1.487084e-001
7.097057e+002;1.490656e-001
7.116342e+002;1.473672e-001
7.135627e+002;1.454614e-001
7.154913e+002;1.448873e-001
7.174199e+002;1.430780e-001
7.193484e+002;1.409466e-001
7.212770e+002;1.384469e-001
7.232055e+002;1.362382e-001
7.251340e+002;1.353668e-001
7.270626e+002;1.343657e-001
7.289911e+002;1.335237e-001
7.309197e+002;1.323491e-001
7.328483e+002;1.294419e-001
7.347768e+002;1.281721e-001
7.367053e+002;1.271599e-001
7.386339e+002;1.254074e-001
7.405624e+002;1.247677e-001
7.424910e+002;1.238205e-001
7.444196e+002;1.220299e-001
7.463481e+002;1.208395e-001
7.482766e+002;1.196161e-001
7.502052e+002;1.190340e-001
7.521337e+002;1.198574e-001
7.540623e+002;1.198406e-001
7.559908e+002;1.184982e-001
7.579194e+002;1.170047e-001
7.598479e+002;1.170373e-001
7.617765e+002;1.165704e-001
7.637050e+002;1.160658e-001
7.656335e+002;1.163331e-001
7.675621e+002;1.159299e-001
7.694907e+002;1.148539e-001
7.714192e+002;1.144357e-001
7.733478e+002;1.146014e-001
7.752763e+002;1.139470e-001
7.772048e+002;1.132516e-001
7.791334e+002;1.129146e-001
7.810620e+002;1.120129e-001
7.829905e+002;1.119482e-001
7.849191e+002;1.127348e-001
7.868476e+002;1.127916e-001
7.887761e+002;1.125701e-001
7.907047e+002;1.119470e-001
7.926332e+002;1.118987e-001
7.945618e+002;1.123260e-001
7.964903e+002;1.121882e-001
7.984189e+002;1.117418e-001
8.003474e+002;1.120310e-001
8.022759e+002;1.124228e-001
8.042045e+002;1.122059e-001
8.061331e+002;1.120219e-001
8.080616e+002;1.118549e-001
8.099902e+002;1.123699e-001
8.119187e+002;1.130291e-001
8.138472e+002;1.127882e-001
8.157758e+002;1.123688e-001
8.177043e+002;1.121721e-001
8.196329e+002;1.122829e-001
8.215615e+002;1.121704e-001
8.234900e+002;1.122319e-001
8.254185e+002;1.131587e-001
8.273471e+002;1.128943e-001
8.292756e+002;1.130655e-001
8.312042e+002;1.138865e-001
8.331328e+002;1.137594e-001
8.350613e+002;1.138546e-001
8.369898e+002;1.142848e-001
8.389184e+002;1.148214e-001
8.408469e+002;1.148470e-001
8.427755e+002;1.144260e-001
8.447040e+002;1.144092e-001
8.466326e+002;1.144337e-001
8.485611e+002;1.145460e-001
8.504897e+002;1.149818e-001
8.524182e+002;1.150223e-001
8.543467e+002;1.147701e-001
8.562753e+002;1.145691e-001
8.582039e+002;1.154624e-001
8.601324e+002;1.170441e-001
8.620610e+002;1.185996e-001
8.639895e+002;1.196248e-001
8.659180e+002;1.213345e-001
8.678466e+002;1.241965e-001
8.697751e+002;1.278311e-001
8.717037e+002;1.310440e-001
8.736323e+002;1.327380e-001
8.755608e+002;1.331965e-001
8.774893e+002;1.327580e-001
8.794179e+002;1.318428e-001
8.813464e+002;1.318767e-001
8.832750e+002;1.327973e-001
8.852036e+002;1.347696e-001
8.871321e+002;1.364329e-001
8.890606e+002;1.383328e-001
8.909892e+002;1.406157e-001
8.929177e+002;1.426162e-001
8.948463e+002;1.446834e-001
8.967748e+002;1.455682e-001
8.987034e+002;1.445718e-001
9.006319e+002;1.427263e-001
9.025605e+002;1.407817e-001
9.044890e+002;1.387161e-001
9.064175e+002;1.373835e-001
9.083461e+002;1.367510e-001
9.102747e+002;1.359525e-001
9.122032e+002;1.354471e-001
9.141318e+002;1.348234e-001
9.160603e+002;1.341777e-001
9.179888e+002;1.343175e-001
9.199174e+002;1.352172e-001
9.218459e+002;1.362449e-001
9.237745e+002;1.368749e-001
9.257031e+002;1.374524e-001
9.276316e+002;1.380982e-001
9.295601e+002;1.390459e-001
9.314887e+002;1.399757e-001
9.334172e+002;1.412958e-001
9.353458e+002;1.430287e-001
9.372744e+002;1.447794e-001
9.392029e+002;1.463810e-001
9.411314e+002;1.483501e-001
9.430600e+002;1.511239e-001
9.449885e+002;1.536471e-001
9.469171e+002;1.565771e-001
9.488456e+002;1.597451e-001
9.507742e+002;1.628488e-001
9.527027e+002;1.667280e-001
9.546313e+002;1.713956e-001
9.565598e+002;1.755135e-001
9.584883e+002;1.795933e-001
9.604169e+002;1.841106e-001
9.623455e+002;1.887155e-001
9.642740e+002;1.934198e-001
9.662026e+002;1.977802e-001
9.681311e+002;2.017372e-001
9.700596e+002;2.056797e-001
9.719882e+002;2.099467e-001
9.739167e+002;2.158329e-001
9.758453e+002;2.226634e-001
9.777739e+002;2.292902e-001
9.797024e+002;2.360352e-001
9.816309e+002;2.434242e-001
9.835595e+002;2.498125e-001
9.854880e+002;2.539372e-001
9.874166e+002;2.562696e-001
9.893452e+002;2.579003e-001
9.912737e+002;2.597258e-001
9.932022e+002;2.622939e-001
9.951307e+002;2.651237e-001
9.970593e+002;2.678693e-001
9.989879e+002;2.715468e-001
1.000916e+003;2.753508e-001
1.002845e+003;2.779984e-001
1.004773e+003;2.797689e-001
1.006702e+003;2.817501e-001
1.008631e+003;2.840692e-001
1.010559e+003;2.874148e-001
1.012488e+003;2.914825e-001
1.014416e+003;2.962673e-001
1.016345e+003;3.015328e-001
1.018273e+003;3.065943e-001
1.020202e+003;3.113756e-001
1.022130e+003;3.156492e-001
1.024059e+003;3.192079e-001
1.025988e+003;3.216865e-001
1.027916e+003;3.235488e-001
1.029845e+003;3.246856e-001
1.031773e+003;3.243229e-001
1.033702e+003;3.222452e-001
1.035630e+003;3.181618e-001
1.037559e+003;3.132457e-001
1.039487e+003;3.089246e-001
1.041416e+003;3.054124e-001
1.043344e+003;3.034305e-001
1.045273e+003;3.032224e-001
1.047202e+003;3.034360e-001
1.049130e+003;3.042591e-001
1.051059e+003;3.042364e-001
1.052987e+003;3.033234e-001
1.054916e+003;3.009282e-001
1.056844e+003;2.964540e-001
1.058773e+003;2.907035e-001
1.060701e+003;2.825666e-001
1.062630e+003;2.735478e-001
1.064558e+003;2.645343e-001
1.066487e+003;2.550126e-001
1.068416e+003;2.462159e-001
1.070344e+003;2.390214e-001
1.072273e+003;2.339928e-001
1.074201e+003;2.296876e-001
1.076130e+003;2.256115e-001
1.078058e+003;2.218443e-001
1.079987e+003;2.189567e-001
1.081915e+003;2.171084e-001
1.083844e+003;2.155035e-001
1.085773e+003;2.136546e-001
1.087701e+003;2.125833e-001
1.089630e+003;2.129457e-001
1.091558e+003;2.135938e-001
1.093487e+003;2.131872e-001
1.095415e+003;2.125818e-001
1.097344e+003;2.134033e-001
1.099272e+003;2.154002e-001
1.101201e+003;2.170043e-001
1.103129e+003;2.173015e-001
1.105058e+003;2.153927e-001
1.106987e+003;2.122495e-001
1.108915e+003;2.087448e-001
1.110844e+003;2.040128e-001
1.112772e+003;1.981420e-001
1.114701e+003;1.925350e-001
1.116629e+003;1.871977e-001
1.118558e+003;1.814019e-001
1.120486e+003;1.765091e-001
1.122415e+003;1.719541e-001
1.124344e+003;1.674383e-001
1.126272e+003;1.626664e-001
1.128201e+003;1.572284e-001
1.130129e+003;1.514886e-001
1.132058e+003;1.465005e-001
1.133986e+003;1.416488e-001
1.135915e+003;1.378867e-001
1.137843e+003;1.353556e-001
1.139772e+003;1.341655e-001
1.141700e+003;1.338233e-001
1.143629e+003;1.342682e-001
1.145557e+003;1.354982e-001
1.147486e+003;1.368814e-001
1.149415e+003;1.373663e-001
1.151343e+003;1.377347e-001
1.153272e+003;1.383555e-001
1.155200e+003;1.393008e-001
1.157129e+003;1.399549e-001
1.159057e+003;1.396875e-001
1.160986e+003;1.384602e-001
1.162914e+003;1.362389e-001
1.164843e+003;1.328487e-001
1.166771e+003;1.282726e-001
1.168700e+003;1.226552e-001
1.170629e+003;1.164099e-001
1.172557e+003;1.107839e-001
1.174486e+003;1.061333e-001
1.176414e+003;1.025482e-001
1.178343e+003;9.933189e-002
1.180271e+003;9.731792e-002
1.182200e+003;9.655119e-002
1.184128e+003;9.580503e-002
1.186057e+003;9.559522e-002
1.187986e+003;9.586672e-002
1.189914e+003;9.647945e-002
1.191843e+003;9.792016e-002
1.193771e+003;9.930757e-002
1.195700e+003;1.006855e-001
1.197628e+003;1.026146e-001
1.199557e+003;1.045474e-001
1.201485e+003;1.058093e-001
1.203414e+003;1.062437e-001
1.205343e+003;1.062367e-001
1.207271e+003;1.060437e-001
1.209200e+003;1.056409e-001
1.211128e+003;1.054918e-001
1.213057e+003;1.052352e-001
1.214985e+003;1.050372e-001
1.216914e+003;1.058440e-001
1.218842e+003;1.070319e-001
1.220771e+003;1.081173e-001
1.222699e+003;1.093124e-001
1.224628e+003;1.103247e-001
1.226557e+003;1.111135e-001
1.228485e+003;1.120425e-001
1.230414e+003;1.128513e-001
1.232342e+003;1.137715e-001
1.234271e+003;1.141331e-001
1.236199e+003;1.138093e-001
1.238128e+003;1.133134e-001
1.240056e+003;1.129810e-001
1.241985e+003;1.125500e-001
1.243913e+003;1.125985e-001
1.245842e+003;1.127172e-001
1.247771e+003;1.121457e-001
1.249699e+003;1.117337e-001
1.251628e+003;1.116016e-001
1.253556e+003;1.113609e-001
1.255485e+003;1.117208e-001
1.257413e+003;1.126894e-001
1.259342e+003;1.132639e-001
1.261270e+003;1.132426e-001
1.263199e+003;1.131538e-001
1.265127e+003;1.126734e-001
1.267056e+003;1.118335e-001
1.268985e+003;1.116191e-001
1.270913e+003;1.112968e-001
1.272842e+003;1.105259e-001
1.274770e+003;1.097903e-001
1.276699e+003;1.092626e-001
1.278627e+003;1.088970e-001
1.280556e+003;1.083684e-001
1.282484e+003;1.074652e-001
1.284413e+003;1.068904e-001
1.286342e+003;1.062093e-001
1.288270e+003;1.058006e-001
1.290199e+003;1.066303e-001
1.292127e+003;1.071744e-001
1.294056e+003;1.073665e-001
1.295984e+003;1.081040e-001
1.297913e+003;1.094128e-001
1.299841e+003;1.116120e-001
1.301770e+003;1.144168e-001
1.303698e+003;1.169759e-001
1.305627e+003;1.193690e-001
1.307556e+003;1.219024e-001
1.309484e+003;1.241811e-001
1.311413e+003;1.260966e-001
1.313341e+003;1.274859e-001
1.315270e+003;1.282944e-001
1.317198e+003;1.284657e-001
1.319127e+003;1.278894e-001
1.321055e+003;1.266567e-001
1.322984e+003;1.252944e-001
1.324912e+003;1.244988e-001
1.326841e+003;1.238649e-001
1.328770e+003;1.231960e-001
1.330698e+003;1.230531e-001
1.332627e+003;1.229329e-001
1.334555e+003;1.219876e-001
1.336484e+003;1.207983e-001
1.338412e+003;1.196041e-001
1.340341e+003;1.181127e-001
1.342269e+003;1.165120e-001
1.344198e+003;1.149674e-001
1.346126e+003;1.139224e-001
1.348055e+003;1.131710e-001
1.349984e+003;1.126626e-001
1.351912e+003;1.122632e-001
1.353841e+003;1.124147e-001
1.355769e+003;1.131111e-001
1.357698e+003;1.140874e-001
1.359626e+003;1.148083e-001
1.361555e+003;1.150512e-001
1.363483e+003;1.153338e-001
1.365412e+003;1.157042e-001
1.367341e+003;1.159195e-001
1.369269e+003;1.158086e-001
1.371198e+003;1.153532e-001
1.373126e+003;1.146360e-001
1.375055e+003;1.135249e-001
1.376983e+003;1.122781e-001
1.378912e+003;1.109729e-001
1.380840e+003;1.096568e-001
1.382769e+003;1.086915e-001
1.384698e+003;1.079774e-001
1.386626e+003;1.072195e-001
1.388555e+003;1.066954e-001
1.390483e+003;1.068963e-001
1.392412e+003;1.075129e-001
1.394340e+003;1.082200e-001
1.396269e+003;1.092338e-001
1.398197e+003;1.101389e-001
1.400126e+003;1.109295e-001
1.402054e+003;1.118619e-001
1.403983e+003;1.128044e-001
1.405911e+003;1.138747e-001
1.407840e+003;1.152339e-001
1.409769e+003;1.167227e-001
1.411697e+003;1.178344e-001
1.413626e+003;1.189931e-001
1.415554e+003;1.206710e-001
1.417483e+003;1.218573e-001
1.419411e+003;1.222459e-001
1.421340e+003;1.221881e-001
1.423268e+003;1.212772e-001
1.425197e+003;1.200389e-001
1.427125e+003;1.187743e-001
1.429054e+003;1.169681e-001
1.430983e+003;1.147989e-001
1.432911e+003;1.128644e-001
1.434840e+003;1.113826e-001
1.436768e+003;1.099868e-001
1.438697e+003;1.087896e-001
1.440625e+003;1.081603e-001
1.442554e+003;1.082043e-001
1.444482e+003;1.086221e-001
1.446411e+003;1.093730e-001
1.448340e+003;1.101599e-001
1.450268e+003;1.105345e-001
1.452197e+003;1.106946e-001
1.454125e+003;1.108235e-001
1.456054e+003;1.104970e-001
1.457982e+003;1.095846e-001
1.459911e+003;1.086323e-001
1.461839e+003;1.075589e-001
1.463768e+003;1.060434e-001
1.465697e+003;1.040825e-001
1.467625e+003;1.014972e-001
1.469554e+003;9.823018e-002
1.471482e+003;9.509422e-002
1.473411e+003;9.225446e-002
1.475339e+003;8.941129e-002
1.477268e+003;8.715256e-002
1.479196e+003;8.558716e-002
1.481125e+003;8.416893e-002
1.483053e+003;8.313053e-002
1.484982e+003;8.269367e-002
1.486911e+003;8.244175e-002
1.488839e+003;8.208047e-002
1.490768e+003;8.203364e-002
1.492696e+003;8.265207e-002
1.494625e+003;8.365374e-002
1.496553e+003;8.480681e-002
1.498482e+003;8.607395e-002
1.500410e+003;8.682388e-002
1.502339e+003;8.718681e-002
1.504267e+003;8.705148e-002
1.506196e+003;8.617689e-002
1.508125e+003;8.534536e-002
1.510053e+003;8.399345e-002
1.511982e+003;8.227556e-002
1.513910e+003;8.048005e-002
1.515839e+003;7.830197e-002
1.517767e+003;7.630225e-002
1.519696e+003;7.470331e-002
1.521624e+003;7.306903e-002
1.523553e+003;7.173802e-002
1.525481e+003;7.127409e-002
1.527410e+003;7.099338e-002
1.529339e+003;7.034370e-002
1.531267e+003;7.023821e-002
1.533196e+003;7.039502e-002
1.535124e+003;7.039373e-002
1.537053e+003;7.053734e-002
1.538981e+003;7.053333e-002
1.540910e+003;7.085122e-002
1.542838e+003;7.094321e-002
1.544767e+003;7.084670e-002
1.546695e+003;7.140713e-002
1.548624e+003;7.168092e-002
1.550553e+003;7.211813e-002
1.552481e+003;7.277666e-002
1.554410e+003;7.308444e-002
1.556338e+003;7.301540e-002
1.558267e+003;7.299486e-002
1.560195e+003;7.363807e-002
1.562124e+003;7.446647e-002
1.564052e+003;7.479541e-002
1.565981e+003;7.536928e-002
1.567910e+003;7.649453e-002
1.569838e+003;7.745487e-002
1.571767e+003;7.825563e-002
1.573695e+003;7.938183e-002
1.575624e+003;8.075575e-002
1.577552e+003;8.220164e-002
1.579481e+003;8.393351e-002
1.581409e+003;8.569055e-002
1.583338e+003;8.739723e-002
1.585266e+003;8.931824e-002
1.587195e+003;9.139203e-002
1.589124e+003;9.297611e-002
1.591052e+003;9.381270e-002
1.592981e+003;9.417988e-002
1.594909e+003;9.423565e-002
1.596838e+003;9.407720e-002
1.598766e+003;9.358148e-002
1.600695e+003;9.280992e-002
1.602623e+003;9.213499e-002
1.604552e+003;9.133409e-002
1.606480e+003;9.047332e-002
1.608409e+003;8.961968e-002
1.610338e+003;8.889988e-002
1.612266e+003;8.816057e-002
1.614195e+003;8.729857e-002
1.616123e+003;8.644738e-002
1.618052e+003;8.550763e-002
1.619980e+003;8.480899e-002
1.621909e+003;8.440179e-002
1.623837e+003;8.397552e-002
1.625766e+003;8.336191e-002
1.627694e+003;8.278764e-002
1.629623e+003;8.262210e-002
1.631552e+003;8.238630e-002
1.633480e+003;8.186862e-002
1.635409e+003;8.164183e-002
1.637337e+003;8.136149e-002
1.639266e+003;8.083517e-002
1.641194e+003;8.037889e-002
1.643123e+003;7.993930e-002
1.645051e+003;7.943538e-002
1.646980e+003;7.910800e-002
1.648909e+003;7.905139e-002
1.650837e+003;7.886580e-002
1.652766e+003;7.856987e-002
1.654694e+003;7.848169e-002
1.656623e+003;7.794029e-002
1.658551e+003;7.727978e-002
1.660480e+003;7.677969e-002
1.662408e+003;7.619724e-002
1.664337e+003;7.553934e-002
1.666266e+003;7.470685e-002
1.668194e+003;7.383593e-002
1.670123e+003;7.305554e-002
1.672051e+003;7.238802e-002
1.673980e+003;7.160339e-002
1.675908e+003;7.063690e-002
1.677837e+003;7.001314e-002
1.679765e+003;6.951263e-002
1.681694e+003;6.851096e-002
1.683622e+003;6.733719e-002
1.685551e+003;6.659666e-002
1.687479e+003;6.604891e-002
1.689408e+003;6.586066e-002
1.691337e+003;6.550810e-002
1.693265e+003;6.483275e-002
1.695194e+003;6.421812e-002
1.697122e+003;6.355563e-002
1.699051e+003;6.325583e-002
1.700979e+003;6.307005e-002
1.702908e+003;6.278372e-002
1.704836e+003;6.236922e-002
1.706765e+003;6.203611e-002
1.708693e+003;6.170546e-002
1.710622e+003;6.158990e-002
1.712551e+003;6.143529e-002
1.714479e+003;6.116873e-002
1.716408e+003;6.061365e-002
1.718336e+003;6.048021e-002
1.720265e+003;6.105778e-002
1.722193e+003;6.135305e-002
1.724122e+003;6.103310e-002
1.726050e+003;6.070981e-002
1.727979e+003;6.067617e-002
1.729908e+003;6.070581e-002
1.731836e+003;6.064938e-002
1.733765e+003;6.047633e-002
1.735693e+003;6.043345e-002
1.737622e+003;6.032253e-002
1.739550e+003;6.015931e-002
1.741479e+003;5.997999e-002
1.743407e+003;5.955049e-002
1.745336e+003;5.914172e-002
1.747265e+003;5.858058e-002
1.749193e+003;5.830757e-002
1.751122e+003;5.802421e-002
1.753050e+003;5.753933e-002
1.754979e+003;5.711692e-002
1.756907e+003;5.675416e-002
1.758836e+003;5.654842e-002
1.760764e+003;5.637510e-002
1.762693e+003;5.620439e-002
1.764621e+003;5.611750e-002
1.766550e+003;5.572612e-002
1.768479e+003;5.527221e-002
1.770407e+003;5.491843e-002
1.772336e+003;5.448992e-002
1.774264e+003;5.409632e-002
1.776193e+003;5.401770e-002
1.778121e+003;5.394533e-002
1.780050e+003;5.371650e-002
1.781978e+003;5.372824e-002
1.783907e+003;5.382305e-002
1.785835e+003;5.385988e-002
1.787764e+003;5.361194e-002
1.789693e+003;5.328828e-002
1.791621e+003;5.312832e-002
1.793550e+003;5.304531e-002
1.795478e+003;5.299799e-002
1.797407e+003;5.293488e-002
1.799335e+003;5.286096e-002
1.801264e+003;5.268844e-002
1.803192e+003;5.254864e-002
1.805121e+003;5.260761e-002
1.807049e+003;5.277943e-002
1.808978e+003;5.248155e-002
1.810907e+003;5.202395e-002
1.812835e+003;5.182574e-002
1.814764e+003;5.194481e-002
1.816692e+003;5.231426e-002
1.818621e+003;5.252444e-002
1.820549e+003;5.255440e-002
1.822478e+003;5.248114e-002
1.824406e+003;5.239164e-002
1.826335e+003;5.231602e-002
1.828264e+003;5.224139e-002
1.830192e+003;5.219412e-002
1.832121e+003;5.217547e-002
1.834049e+003;5.214584e-002
1.835978e+003;5.217323e-002
1.837906e+003;5.233396e-002
1.839835e+003;5.252912e-002
1.841763e+003;5.258562e-002
1.843692e+003;5.234375e-002
1.845620e+003;5.197443e-002
1.847549e+003;5.191001e-002
1.849478e+003;5.192693e-002
1.851406e+003;5.182984e-002
1.853335e+003;5.184019e-002
1.855263e+003;5.190919e-002
1.857192e+003;5.199388e-002
1.859120e+003;5.211502e-002
1.861049e+003;5.210606e-002
1.862977e+003;5.205156e-002
1.864906e+003;5.191722e-002
1.866834e+003;5.182365e-002
1.868763e+003;5.198810e-002
1.870692e+003;5.227584e-002
1.872620e+003;5.226545e-002
1.874549e+003;5.201178e-002
1.876477e+003;5.178703e-002
1.878406e+003;5.181122e-002
1.880334e+003;5.180655e-002
1.882263e+003;5.151661e-002
1.884191e+003;5.132882e-002
1.886120e+003;5.114784e-002
1.888048e+003;5.118109e-002
1.889977e+003;5.156564e-002
1.891906e+003;5.167740e-002
1.893834e+003;5.165355e-002
1.895763e+003;5.167841e-002
1.897691e+003;5.173017e-002
1.899620e+003;5.197671e-002
1.901548e+003;5.194201e-002
1.903477e+003;5.166012e-002
1.905405e+003;5.166367e-002
1.907334e+003;5.166068e-002
1.909262e+003;5.187674e-002
1.911191e+003;5.227469e-002
1.913120e+003;5.193996e-002
1.915048e+003;5.157277e-002
1.916977e+003;5.164997e-002
1.918905e+003;5.185389e-002
1.920834e+003;5.206298e-002
1.922762e+003;5.211196e-002
1.924691e+003;5.233258e-002
1.926619e+003;5.256008e-002
1.928548e+003;5.232787e-002
1.930477e+003;5.211013e-002
1.932405e+003;5.199975e-002
1.934334e+003;5.213251e-002
1.936262e+003;5.218948e-002
1.938191e+003;5.207221e-002
1.940119e+003;5.212597e-002
1.942048e+003;5.201428e-002
1.943976e+003;5.212545e-002
1.945905e+003;5.243616e-002
1.947833e+003;5.234827e-002
1.949762e+003;5.204068e-002
1.951691e+003;5.195030e-002
1.953619e+003;5.216318e-002
1.955548e+003;5.235396e-002
1.957476e+003;5.228690e-002
1.959405e+003;5.212410e-002
1.961333e+003;5.210643e-002
1.963262e+003;5.214274e-002
1.965190e+003;5.220234e-002
1.967119e+003;5.229924e-002
1.969047e+003;5.243014e-002
1.970976e+003;5.244368e-002
1.972905e+003;5.265560e-002
1.974833e+003;5.289311e-002
1.976762e+003;5.304819e-002
1.978690e+003;5.301184e-002
1.980619e+003;5.280929e-002
1.982547e+003;5.263577e-002
1.984476e+003;5.270707e-002
1.986404e+003;5.275249e-002
1.988333e+003;5.259325e-002
1.990261e+003;5.252930e-002
1.992190e+003;5.275043e-002
1.994119e+003;5.305609e-002
1.996047e+003;5.327513e-002
1.997976e+003;5.331510e-002
1.999904e+003;5.331012e-002
2.001833e+003;5.343530e-002
2.003761e+003;5.329701e-002
2.005690e+003;5.313933e-002
2.007618e+003;5.320955e-002
2.009547e+003;5.324310e-002
2.011476e+003;5.352873e-002
2.013404e+003;5.371395e-002
2.015333e+003;5.366045e-002
2.017261e+003;5.358458e-002
2.019190e+003;5.373004e-002
2.021118e+003;5.368853e-002
2.023047e+003;5.379927e-002
2.024975e+003;5.405185e-002
2.026904e+003;5.407745e-002
2.028833e+003;5.380827e-002
2.030761e+003;5.367297e-002
2.032690e+003;5.419886e-002
2.034618e+003;5.451539e-002
2.036547e+003;5.420735e-002
2.038475e+003;5.426779e-002
2.040404e+003;5.457208e-002
2.042332e+003;5.459301e-002
2.044261e+003;5.458264e-002
2.046189e+003;5.447163e-002
2.048118e+003;5.458568e-002
2.050047e+003;5.486771e-002
2.051975e+003;5.495847e-002
2.053904e+003;5.494200e-002
2.055832e+003;5.498905e-002
2.057761e+003;5.491204e-002
2.059689e+003;5.489019e-002
2.061618e+003;5.481651e-002
2.063546e+003;5.459391e-002
2.065475e+003;5.465948e-002
2.067404e+003;5.476798e-002
2.069332e+003;5.468687e-002
2.071260e+003;5.449620e-002
2.073189e+003;5.449304e-002
2.075118e+003;5.476114e-002
2.077046e+003;5.474719e-002
2.078975e+003;5.463858e-002
2.080903e+003;5.454007e-002
2.082832e+003;5.439940e-002
2.084760e+003;5.442235e-002
2.086689e+003;5.446772e-002
2.088617e+003;5.466970e-002
2.090546e+003;5.477933e-002
2.092475e+003;5.436864e-002
2.094403e+003;5.415281e-002
2.096332e+003;5.442787e-002
2.098260e+003;5.449668e-002
2.100189e+003;5.469856e-002
2.102117e+003;5.477486e-002
2.104046e+003;5.461908e-002
2.105974e+003;5.473457e-002
2.107903e+003;5.473671e-002
2.109832e+003;5.461732e-002
2.111760e+003;5.466880e-002
2.113688e+003;5.471228e-002
2.115617e+003;5.461653e-002
2.117546e+003;5.453661e-002
2.119474e+003;5.420877e-002
2.121403e+003;5.415326e-002
2.123331e+003;5.432580e-002
2.125260e+003;5.452470e-002
2.127188e+003;5.453027e-002
2.129117e+003;5.446013e-002
2.131045e+003;5.480421e-002
2.132974e+003;5.479249e-002
2.134903e+003;5.452072e-002
2.136831e+003;5.455145e-002
2.138760e+003;5.474050e-002
2.140688e+003;5.461266e-002
2.142617e+003;5.439212e-002
2.144545e+003;5.439046e-002
2.146474e+003;5.443700e-002
2.148402e+003;5.442355e-002
2.150331e+003;5.446126e-002
2.152260e+003;5.451877e-002
2.154188e+003;5.435550e-002
2.156117e+003;5.439298e-002
2.158045e+003;5.474490e-002
2.159974e+003;5.483684e-002
2.161902e+003;5.471679e-002
2.163831e+003;5.468890e-002
2.165759e+003;5.449079e-002
2.167688e+003;5.448079e-002
2.169616e+003;5.462115e-002
2.171545e+003;5.441232e-002
2.173474e+003;5.419098e-002
2.175402e+003;5.416508e-002
2.177331e+003;5.414759e-002
2.179259e+003;5.400521e-002
2.181188e+003;5.398371e-002
2.183116e+003;5.401613e-002
2.185045e+003;5.420892e-002
2.186973e+003;5.441495e-002
2.188902e+003;5.424301e-002
2.190831e+003;5.366787e-002
2.192759e+003;5.360122e-002
2.194688e+003;5.379848e-002
2.196616e+003;5.386183e-002
2.198545e+003;5.394533e-002
2.200473e+003;5.379593e-002
2.202402e+003;5.362581e-002
2.204330e+003;5.344485e-002
2.206259e+003;5.329218e-002
2.208188e+003;5.336800e-002
2.210116e+003;5.352183e-002
2.212044e+003;5.358769e-002
2.213973e+003;5.342844e-002
2.215902e+003;5.327187e-002
2.217830e+003;5.351328e-002
2.219759e+003;5.389049e-002
2.221687e+003;5.396949e-002
2.223616e+003;5.355620e-002
2.225544e+003;5.321007e-002
2.227473e+003;5.326955e-002
2.229401e+003;5.332829e-002
2.231330e+003;5.354911e-002
2.233259e+003;5.366900e-002
2.235187e+003;5.331802e-002
2.237116e+003;5.328555e-002
2.239044e+003;5.345111e-002
2.240973e+003;5.332057e-002
2.242901e+003;5.330308e-002
2.244830e+003;5.327528e-002
2.246758e+003;5.329581e-002
2.248687e+003;5.351632e-002
2.250615e+003;5.350702e-002
2.252544e+003;5.330203e-002
2.254473e+003;5.344995e-002
2.256401e+003;5.364351e-002
2.258330e+003;5.346408e-002
2.260258e+003;5.347326e-002
2.262187e+003;5.361168e-002
2.264115e+003;5.369389e-002
2.266044e+003;5.377988e-002
2.267972e+003;5.357738e-002
2.269901e+003;5.339625e-002
2.271830e+003;5.327506e-002
2.273758e+003;5.308533e-002
2.275687e+003;5.302165e-002
2.277615e+003;5.322966e-002
2.279544e+003;5.326124e-002
2.281472e+003;5.297946e-002
2.283401e+003;5.287047e-002
2.285329e+003;5.286830e-002
2.287258e+003;5.286029e-002
2.289187e+003;5.279514e-002
2.291115e+003;5.284199e-002
2.293043e+003;5.291980e-002
2.294972e+003;5.292055e-002
2.296901e+003;5.316940e-002
2.298829e+003;5.315588e-002
2.300758e+003;5.312240e-002
2.302686e+003;5.306654e-002
2.304615e+003;5.305980e-002
2.306543e+003;5.327146e-002
2.308472e+003;5.335096e-002
2.310400e+003;5.310963e-002
2.312329e+003;5.276906e-002
2.314258e+003;5.267857e-002
2.316186e+003;5.304748e-002
2.318115e+003;5.327004e-002
2.320043e+003;5.293346e-002
2.321972e+003;5.278886e-002
2.323900e+003;5.287417e-002
2.325829e+003;5.271986e-002
2.327757e+003;5.247998e-002
2.329686e+003;5.222808e-002
2.331615e+003;5.197428e-002
2.333543e+003;5.216946e-002
2.335472e+003;5.253727e-002
2.337400e+003;5.282583e-002
2.339329e+003;5.309975e-002
2.341257e+003;5.329180e-002
2.343186e+003;5.312458e-002
2.345114e+003;5.314289e-002
2.347043e+003;5.346284e-002
2.348971e+003;5.360193e-002
2.350900e+003;5.354986e-002
2.352829e+003;5.328956e-002
2.354757e+003;5.303681e-002
2.356686e+003;5.297669e-002
2.358614e+003;5.301016e-002
2.360543e+003;5.316337e-002
2.362471e+003;5.316663e-002
2.364400e+003;5.306429e-002
2.366328e+003;5.323726e-002
2.368257e+003;5.360781e-002
2.370186e+003;5.379525e-002
2.372114e+003;5.389555e-002
2.374042e+003;5.393254e-002
2.375971e+003;5.396507e-002
2.377900e+003;5.409527e-002
2.379828e+003;5.425814e-002
2.381757e+003;5.441799e-002
2.383685e+003;5.452226e-002
2.385614e+003;5.455408e-002
2.387542e+003;5.471555e-002
2.389471e+003;5.482591e-002
2.391399e+003;5.469736e-002
2.393328e+003;5.463456e-002
2.395257e+003;5.497269e-002
2.397185e+003;5.521445e-002
2.399114e+003;5.514830e-002
2.401042e+003;5.494855e-002
2.402971e+003;5.492561e-002
2.404899e+003;5.516587e-002
2.406828e+003;5.539614e-002
2.408756e+003;5.552452e-002
2.410685e+003;5.548190e-002
2.412614e+003;5.559817e-002
2.414542e+003;5.572130e-002
2.416471e+003;5.562985e-002
2.418399e+003;5.549413e-002
2.420328e+003;5.560883e-002
2.422256e+003;5.590008e-002
2.424185e+003;5.603102e-002
2.426113e+003;5.621359e-002
2.428042e+003;5.647350e-002
2.429970e+003;5.645298e-002
2.431899e+003;5.632666e-002
2.433828e+003;5.632323e-002
2.435756e+003;5.629110e-002
2.437685e+003;5.642955e-002
2.439613e+003;5.667374e-002
2.441542e+003;5.664867e-002
2.443470e+003;5.639291e-002
2.445399e+003;5.655162e-002
2.447327e+003;5.676065e-002
2.449256e+003;5.685019e-002
2.451185e+003;5.690651e-002
2.453113e+003;5.673452e-002
2.455042e+003;5.656446e-002
2.456970e+003;5.652539e-002
2.458899e+003;5.670126e-002
2.460827e+003;5.686964e-002
2.462756e+003;5.689688e-002
2.464684e+003;5.704965e-002
2.466613e+003;5.722135e-002
2.468542e+003;5.718929e-002
2.470470e+003;5.705763e-002
2.472398e+003;5.709575e-002
2.474327e+003;5.712164e-002
2.476256e+003;5.711091e-002
2.478184e+003;5.717931e-002
2.480113e+003;5.728232e-002
2.482041e+003;5.710600e-002
2.483970e+003;5.704058e-002
2.485898e+003;5.748467e-002
2.487827e+003;5.771909e-002
2.489755e+003;5.747918e-002
2.491684e+003;5.736535e-002
2.493613e+003;5.762380e-002
2.495541e+003;5.799350e-002
2.497470e+003;5.791262e-002
2.499398e+003;5.764760e-002
2.501327e+003;5.781151e-002
2.503255e+003;5.799229e-002
2.505184e+003;5.821993e-002
2.507112e+003;5.839861e-002
2.509041e+003;5.837098e-002
2.510969e+003;5.822550e-002
2.512898e+003;5.818087e-002
2.514827e+003;5.820588e-002
2.516755e+003;5.842844e-002
2.518684e+003;5.857948e-002
2.520612e+003;5.833039e-002
2.522541e+003;5.826464e-002
2.524469e+003;5.854035e-002
2.526398e+003;5.875383e-002
2.528326e+003;5.873099e-002
2.530255e+003;5.866200e-002
2.532184e+003;5.880284e-002
2.534112e+003;5.884203e-002
2.536041e+003;5.875314e-002
2.537969e+003;5.880227e-002
2.539898e+003;5.878372e-002
2.541826e+003;5.870558e-002
2.543755e+003;5.875208e-002
2.545683e+003;5.866632e-002
2.547612e+003;5.861687e-002
2.549541e+003;5.855377e-002
2.551469e+003;5.842775e-002
2.553397e+003;5.854714e-002
2.555326e+003;5.870778e-002
2.557255e+003;5.898646e-002
2.559183e+003;5.920361e-002
2.561112e+003;5.881733e-002
2.563040e+003;5.865339e-002
2.564969e+003;5.883156e-002
2.566897e+003;5.877943e-002
2.568826e+003;5.867857e-002
2.570754e+003;5.880743e-002
2.572683e+003;5.887223e-002
2.574612e+003;5.882727e-002
2.576540e+003;5.861861e-002
2.578469e+003;5.845436e-002
2.580397e+003;5.874244e-002
2.582326e+003;5.909047e-002
2.584254e+003;5.899978e-002
2.586183e+003;5.909810e-002
2.588111e+003;5.926787e-002
2.590040e+003;5.908329e-002
2.591969e+003;5.917377e-002
2.593897e+003;5.938555e-002
2.595826e+003;5.945260e-002
2.597754e+003;5.941107e-002
2.599683e+003;5.932332e-002
2.601611e+003;5.937434e-002
2.603540e+003;5.955205e-002
2.605468e+003;5.913956e-002
2.607397e+003;5.902613e-002
2.609325e+003;5.968158e-002
2.611254e+003;6.005783e-002
2.613183e+003;6.008248e-002
2.615111e+003;6.010052e-002
2.617040e+003;6.015277e-002
2.618968e+003;5.995568e-002
2.620897e+003;5.967417e-002
2.622825e+003;5.955740e-002
2.624754e+003;5.974454e-002
2.626682e+003;5.997771e-002
2.628611e+003;6.014774e-002
2.630540e+003;5.986793e-002
2.632468e+003;5.977119e-002
2.634396e+003;6.024316e-002
2.636325e+003;6.065643e-002
2.638254e+003;6.094582e-002
2.640182e+003;6.099555e-002
2.642111e+003;6.094556e-002
2.644039e+003;6.079865e-002
2.645968e+003;6.069019e-002
2.647896e+003;6.063654e-002
2.649825e+003;6.072292e-002
2.651753e+003;6.087900e-002
2.653682e+003;6.088738e-002
2.655611e+003;6.086409e-002
2.657539e+003;6.096893e-002
2.659468e+003;6.122095e-002
2.661396e+003;6.124346e-002
2.663325e+003;6.108600e-002
2.665253e+003;6.128776e-002
2.667182e+003;6.151019e-002
2.669110e+003;6.133775e-002
2.671039e+003;6.141469e-002
2.672968e+003;6.155955e-002
2.674896e+003;6.142300e-002
2.676825e+003;6.135732e-002
2.678753e+003;6.152217e-002
2.680682e+003;6.180920e-002
2.682610e+003;6.191175e-002
2.684539e+003;6.170691e-002
2.686467e+003;6.138011e-002
2.688396e+003;6.156310e-002
2.690324e+003;6.193326e-002
2.692253e+003;6.212456e-002
2.694182e+003;6.216035e-002
2.696110e+003;6.211993e-002
2.698039e+003;6.217346e-002
2.699967e+003;6.236980e-002
2.701896e+003;6.234229e-002
2.703824e+003;6.225988e-002
2.705753e+003;6.247875e-002
2.707681e+003;6.271052e-002
2.709610e+003;6.285582e-002
2.711539e+003;6.312082e-002
2.713467e+003;6.321505e-002
2.715396e+003;6.311710e-002
2.717324e+003;6.312009e-002
2.719253e+003;6.304388e-002
2.721181e+003;6.323567e-002
2.723110e+003;6.363465e-002
2.725038e+003;6.382013e-002
2.726967e+003;6.392381e-002
2.728896e+003;6.385606e-002
2.730824e+003;6.380762e-002
2.732752e+003;6.375056e-002
2.734681e+003;6.379404e-002
2.736610e+003;6.400336e-002
2.738538e+003;6.412827e-002
2.740467e+003;6.408388e-002
2.742395e+003;6.377143e-002
2.744324e+003;6.361562e-002
2.746252e+003;6.375854e-002
2.748181e+003;6.399790e-002
2.750109e+003;6.410842e-002
2.752038e+003;6.411030e-002
2.753967e+003;6.408096e-002
2.755895e+003;6.397832e-002
2.757824e+003;6.412182e-002
2.759752e+003;6.416246e-002
2.761681e+003;6.411272e-002
2.763609e+003;6.417079e-002
2.765538e+003;6.447088e-002
2.767466e+003;6.446354e-002
2.769395e+003;6.435770e-002
2.771323e+003;6.439828e-002
2.773252e+003;6.466476e-002
2.775181e+003;6.492113e-002
2.777109e+003;6.510127e-002
2.779038e+003;6.508045e-002
2.780966e+003;6.513830e-002
2.782895e+003;6.542180e-002
2.784823e+003;6.575309e-002
2.786752e+003;6.589185e-002
2.788680e+003;6.590894e-002
2.790609e+003;6.606874e-002
2.792538e+003;6.612457e-002
2.794466e+003;6.629321e-002
2.796395e+003;6.675714e-002
2.798323e+003;6.684173e-002
2.800252e+003;6.674864e-002
2.802180e+003;6.699348e-002
2.804109e+003;6.728021e-002
2.806037e+003;6.762310e-002
2.807966e+003;6.766716e-002
2.809895e+003;6.768052e-002
2.811823e+003;6.823394e-002
2.813751e+003;6.854856e-002
2.815680e+003;6.872525e-002
2.817609e+003;6.896710e-002
2.819537e+003;6.946099e-002
2.821466e+003;6.987920e-002
2.823394e+003;6.999539e-002
2.825323e+003;7.042366e-002
2.827251e+003;7.102873e-002
2.829180e+003;7.137159e-002
2.831108e+003;7.154584e-002
2.833037e+003;7.185791e-002
2.834966e+003;7.248546e-002
2.836894e+003;7.349473e-002
2.838823e+003;7.427898e-002
2.840751e+003;7.502049e-002
2.842680e+003;7.573602e-002
2.844608e+003;7.625114e-002
2.846537e+003;7.736883e-002
2.848465e+003;7.894019e-002
2.850394e+003;7.989437e-002
2.852323e+003;8.023076e-002
2.854251e+003;8.060361e-002
2.856180e+003;8.126120e-002
2.858108e+003;8.144046e-002
2.860037e+003;8.136026e-002
2.861965e+003;8.157150e-002
2.863894e+003;8.203180e-002
2.865822e+003;8.236259e-002
2.867751e+003;8.250344e-002
2.869679e+003;8.296485e-002
2.871608e+003;8.360565e-002
2.873536e+003;8.383126e-002
2.875465e+003;8.343875e-002
2.877394e+003;8.330651e-002
2.879322e+003;8.393910e-002
2.881251e+003;8.483288e-002
2.883179e+003;8.494608e-002
2.885108e+003;8.483126e-002
2.887036e+003;8.529644e-002
2.888965e+003;8.560528e-002
2.890893e+003;8.563805e-002
2.892822e+003;8.549089e-002
2.894750e+003;8.530890e-002
2.896679e+003;8.585057e-002
2.898608e+003;8.643020e-002
2.900536e+003;8.624919e-002
2.902465e+003;8.595137e-002
2.904393e+003;8.562053e-002
2.906322e+003;8.554955e-002
2.908250e+003;8.552796e-002
2.910179e+003;8.539250e-002
2.912107e+003;8.534011e-002
2.914036e+003;8.535992e-002
2.915965e+003;8.566529e-002
2.917893e+003;8.587092e-002
2.919822e+003;8.573318e-002
2.921750e+003;8.550602e-002
2.923679e+003;8.474825e-002
2.925607e+003;8.396474e-002
2.927536e+003;8.328532e-002
2.929464e+003;8.314762e-002
2.931393e+003;8.275300e-002
2.933322e+003;8.156906e-002
2.935250e+003;8.104009e-002
2.937178e+003;8.082879e-002
2.939107e+003;8.005916e-002
2.941036e+003;7.925937e-002
2.942964e+003;7.892632e-002
2.944893e+003;7.833650e-002
2.946821e+003;7.755358e-002
2.948750e+003;7.667294e-002
2.950678e+003;7.573140e-002
2.952607e+003;7.504325e-002
2.954535e+003;7.438907e-002
2.956464e+003;7.389065e-002
2.958393e+003;7.327691e-002
2.960321e+003;7.267163e-002
2.962250e+003;7.219994e-002
2.964178e+003;7.195875e-002
2.966107e+003;7.155263e-002
2.968035e+003;7.076140e-002
2.969964e+003;7.023564e-002
2.971892e+003;6.975020e-002
2.973821e+003;6.865221e-002
2.975750e+003;6.788389e-002
2.977678e+003;6.774492e-002
2.979607e+003;6.765047e-002
2.981535e+003;6.731866e-002
2.983464e+003;6.699862e-002
2.985392e+003;6.652853e-002
2.987321e+003;6.595811e-002
2.989249e+003;6.597223e-002
2.991178e+003;6.642902e-002
2.993106e+003;6.636818e-002
2.995035e+003;6.577700e-002
2.996964e+003;6.577576e-002
2.998892e+003;6.579774e-002
3.000821e+003;6.546018e-002
3.002749e+003;6.555950e-002
3.004678e+003;6.562278e-002
3.006606e+003;6.538575e-002
3.008535e+003;6.541345e-002
3.010463e+003;6.535066e-002
3.012392e+003;6.485107e-002
3.014321e+003;6.433211e-002
3.016249e+003;6.454276e-002
3.018177e+003;6.480421e-002
3.020106e+003;6.493325e-002
3.022035e+003;6.490736e-002
3.023963e+003;6.472244e-002
3.025892e+003;6.503449e-002
3.027820e+003;6.533168e-002
3.029749e+003;6.513669e-002
3.031677e+003;6.543810e-002
3.033606e+003;6.573914e-002
3.035534e+003;6.566567e-002
3.037463e+003;6.575707e-002
3.039392e+003;6.591762e-002
3.041320e+003;6.605358e-002
3.043249e+003;6.567103e-002
3.045177e+003;6.553553e-002
3.047106e+003;6.575359e-002
3.049034e+003;6.602696e-002
3.050963e+003;6.652637e-002
3.052891e+003;6.657105e-002
3.054820e+003;6.659879e-002
3.056749e+003;6.704251e-002
3.058677e+003;6.733321e-002
3.060606e+003;6.725615e-002
3.062534e+003;6.735190e-002
3.064463e+003;6.766743e-002
3.066391e+003;6.808651e-002
3.068320e+003;6.827127e-002
3.070248e+003;6.824891e-002
3.072177e+003;6.824689e-002
3.074105e+003;6.844044e-002
3.076034e+003;6.923702e-002
3.077963e+003;6.945030e-002
3.079891e+003;6.923962e-002
3.081820e+003;6.932870e-002
3.083748e+003;6.948195e-002
3.085677e+003;6.957182e-002
3.087605e+003;6.980184e-002
3.089534e+003;7.042900e-002
3.091462e+003;7.083531e-002
3.093391e+003;7.089537e-002
3.095320e+003;7.102124e-002
3.097248e+003;7.148392e-002
3.099177e+003;7.178786e-002
3.101105e+003;7.143065e-002
3.103034e+003;7.138351e-002
3.104962e+003;7.160417e-002
3.106891e+003;7.181060e-002
3.108819e+003;7.201338e-002
3.110748e+003;7.244001e-002
3.112677e+003;7.308377e-002
3.114605e+003;7.328467e-002
3.116533e+003;7.288928e-002
3.118462e+003;7.311341e-002
3.120391e+003;7.340048e-002
3.122319e+003;7.374125e-002
3.124248e+003;7.450286e-002
3.126176e+003;7.467407e-002
3.128105e+003;7.458432e-002
3.130033e+003;7.479316e-002
3.131962e+003;7.515819e-002
3.133890e+003;7.549002e-002
3.135819e+003;7.592769e-002
3.137748e+003;7.599159e-002
3.139676e+003;7.599368e-002
3.141605e+003;7.621928e-002
3.143533e+003;7.666298e-002
3.145462e+003;7.716381e-002
3.147390e+003;7.742735e-002
3.149319e+003;7.763736e-002
3.151247e+003;7.798176e-002
3.153176e+003;7.835674e-002
3.155104e+003;7.881285e-002
3.157033e+003;7.929687e-002
3.158962e+003;7.929715e-002
3.160890e+003;7.933004e-002
3.162819e+003;7.968988e-002
3.164747e+003;8.005334e-002
3.166676e+003;8.065504e-002
3.168604e+003;8.108801e-002
3.170533e+003;8.085018e-002
3.172461e+003;8.115491e-002
3.174390e+003;8.226211e-002
3.176319e+003;8.264922e-002
3.178247e+003;8.276359e-002
3.180176e+003;8.297785e-002
3.182104e+003;8.329190e-002
3.184033e+003;8.343642e-002
3.185961e+003;8.322800e-002
3.187890e+003;8.321697e-002
3.189818e+003;8.427782e-002
3.191747e+003;8.507189e-002
3.193676e+003;8.538718e-002
3.195604e+003;8.571214e-002
3.197532e+003;8.616526e-002
3.199461e+003;8.677128e-002
3.201390e+003;8.736578e-002
3.203318e+003;8.757981e-002
3.205247e+003;8.812246e-002
3.207175e+003;8.892253e-002
3.209104e+003;8.891509e-002
3.211032e+003;8.867090e-002
3.212961e+003;8.880068e-002
3.214889e+003;8.945314e-002
3.216818e+003;9.028916e-002
3.218747e+003;9.041759e-002
3.220675e+003;9.058908e-002
3.222604e+003;9.137081e-002
3.224532e+003;9.173630e-002
3.226461e+003;9.221189e-002
3.228389e+003;9.322068e-002
3.230318e+003;9.360302e-002
3.232246e+003;9.368503e-002
3.234175e+003;9.402453e-002
3.236104e+003;9.478994e-002
3.238032e+003;9.549353e-002
3.239961e+003;9.561726e-002
3.241889e+003;9.593783e-002
3.243818e+003;9.640766e-002
3.245746e+003;9.667458e-002
3.247675e+003;9.720986e-002
3.249603e+003;9.773161e-002
3.251532e+003;9.848691e-002
3.253460e+003;9.955894e-002
3.255389e+003;1.000535e-001
3.257318e+003;1.002766e-001
3.259246e+003;1.007482e-001
3.261175e+003;1.010075e-001
3.263103e+003;1.010857e-001
3.265032e+003;1.017166e-001
3.266960e+003;1.026720e-001
3.268889e+003;1.029794e-001
3.270817e+003;1.033422e-001
3.272746e+003;1.038343e-001
3.274675e+003;1.036099e-001
3.276603e+003;1.036252e-001
3.278531e+003;1.046176e-001
3.280460e+003;1.055183e-001
3.282389e+003;1.059114e-001
3.284317e+003;1.057907e-001
3.286246e+003;1.058405e-001
3.288174e+003;1.060812e-001
3.290103e+003;1.061475e-001
3.292031e+003;1.063282e-001
3.293960e+003;1.069473e-001
3.295888e+003;1.072406e-001
3.297817e+003;1.073476e-001
3.299746e+003;1.076619e-001
3.301674e+003;1.077296e-001
3.303603e+003;1.075951e-001
3.305531e+003;1.079203e-001
3.307460e+003;1.081958e-001
3.309388e+003;1.081857e-001
3.311317e+003;1.081822e-001
3.313245e+003;1.083156e-001
3.315174e+003;1.085246e-001
3.317103e+003;1.086135e-001
3.319031e+003;1.086430e-001
3.320960e+003;1.087224e-001
3.322888e+003;1.091418e-001
3.324817e+003;1.098914e-001
3.326745e+003;1.099460e-001
3.328674e+003;1.100718e-001
3.330602e+003;1.102254e-001
3.332531e+003;1.100742e-001
3.334459e+003;1.096927e-001
3.336388e+003;1.095377e-001
3.338317e+003;1.096831e-001
3.340245e+003;1.096988e-001
3.342174e+003;1.101454e-001
3.344102e+003;1.102247e-001
3.346031e+003;1.099166e-001
3.347959e+003;1.098479e-001
3.349888e+003;1.098460e-001
3.351816e+003;1.097695e-001
3.353745e+003;1.093259e-001
3.355674e+003;1.084712e-001
3.357602e+003;1.078341e-001
3.359531e+003;1.070549e-001
3.361459e+003;1.062098e-001
3.363388e+003;1.056988e-001
3.365316e+003;1.055801e-001
3.367245e+003;1.058902e-001
3.369173e+003;1.060183e-001
3.371102e+003;1.055572e-001
3.373031e+003;1.050256e-001
3.374959e+003;1.049504e-001
3.376887e+003;1.046174e-001
3.378816e+003;1.041627e-001
3.380745e+003;1.039851e-001
3.382673e+003;1.038747e-001
3.384602e+003;1.038370e-001
3.386530e+003;1.034435e-001
3.388459e+003;1.025863e-001
3.390387e+003;1.020083e-001
3.392316e+003;1.021534e-001
3.394244e+003;1.022629e-001
3.396173e+003;1.020070e-001
3.398102e+003;1.012192e-001
3.400030e+003;1.002919e-001
3.401959e+003;9.991516e-002
3.403887e+003;9.969527e-002
3.405816e+003;9.966055e-002
3.407744e+003;9.953503e-002
3.409673e+003;9.855766e-002
3.411601e+003;9.789339e-002
3.413530e+003;9.764165e-002
3.415458e+003;9.748846e-002
3.417387e+003;9.728041e-002
3.419316e+003;9.650671e-002
3.421244e+003;9.560835e-002
3.423173e+003;9.467146e-002
3.425101e+003;9.423948e-002
3.427030e+003;9.482551e-002
3.428958e+003;9.466252e-002
3.430887e+003;9.385761e-002
3.432815e+003;9.355588e-002
3.434744e+003;9.283391e-002
3.436673e+003;9.178599e-002
3.438601e+003;9.164333e-002
3.440530e+003;9.141850e-002
3.442458e+003;9.057773e-002
3.444387e+003;8.958959e-002
3.446315e+003;8.896401e-002
3.448244e+003;8.841868e-002
3.450172e+003;8.817376e-002
3.452101e+003;8.742032e-002
3.454030e+003;8.659995e-002
3.455958e+003;8.646630e-002
3.457886e+003;8.636580e-002
3.459815e+003;8.622490e-002
3.461744e+003;8.588182e-002
3.463672e+003;8.504924e-002
3.465601e+003;8.417445e-002
3.467529e+003;8.395860e-002
3.469458e+003;8.376093e-002
3.471386e+003;8.314417e-002
3.473315e+003;8.216133e-002
3.475243e+003;8.126100e-002
3.477172e+003;8.072275e-002
3.479101e+003;8.025204e-002
3.481029e+003;7.965536e-002
3.482958e+003;7.929993e-002
3.484886e+003;7.891170e-002
3.486815e+003;7.846422e-002
3.488743e+003;7.777499e-002
3.490672e+003;7.735659e-002
3.492600e+003;7.714481e-002
3.494529e+003;7.635554e-002
3.496458e+003;7.540555e-002
3.498386e+003;7.496008e-002
3.500315e+003;7.494052e-002
3.502243e+003;7.443210e-002
3.504172e+003;7.359811e-002
3.506100e+003;7.345729e-002
3.508029e+003;7.357703e-002
3.509957e+003;7.305284e-002
3.511886e+003;7.258300e-002
3.513814e+003;7.204827e-002
3.515743e+003;7.104563e-002
3.517672e+003;7.084088e-002
3.519600e+003;7.067479e-002
3.521529e+003;6.983896e-002
3.523457e+003;6.924510e-002
3.525386e+003;6.890473e-002
3.527314e+003;6.837493e-002
3.529243e+003;6.755717e-002
3.531171e+003;6.706358e-002
3.533100e+003;6.672325e-002
3.535029e+003;6.610084e-002
3.536957e+003;6.576751e-002
3.538885e+003;6.569531e-002
3.540814e+003;6.489819e-002
3.542743e+003;6.435663e-002
3.544671e+003;6.422730e-002
3.546600e+003;6.404924e-002
3.548528e+003;6.389767e-002
3.550457e+003;6.312963e-002
3.552385e+003;6.239225e-002
3.554314e+003;6.216963e-002
3.556242e+003;6.237901e-002
3.558171e+003;6.210461e-002
3.560100e+003;6.111399e-002
3.562028e+003;6.044647e-002
3.563957e+003;6.030658e-002
3.565885e+003;6.014280e-002
3.567814e+003;5.974435e-002
3.569742e+003;5.930817e-002
3.571671e+003;5.902419e-002
3.573599e+003;5.838519e-002
3.575528e+003;5.817939e-002
3.577457e+003;5.820387e-002
3.579385e+003;5.813064e-002
3.581314e+003;5.774622e-002
3.583242e+003;5.727121e-002
3.585171e+003;5.699359e-002
3.587099e+003;5.644736e-002
3.589028e+003;5.551891e-002
3.590956e+003;5.480117e-002
3.592885e+003;5.451944e-002
3.594813e+003;5.443298e-002
3.596742e+003;5.449679e-002
3.598671e+003;5.418445e-002
3.600599e+003;5.367065e-002
3.602528e+003;5.391228e-002
3.604456e+003;5.402773e-002
3.606385e+003;5.321876e-002
3.608313e+003;5.242801e-002
3.610242e+003;5.220364e-002
3.612170e+003;5.215007e-002
3.614099e+003;5.194362e-002
3.616028e+003;5.164796e-002
3.617956e+003;5.147222e-002
3.619885e+003;5.153445e-002
3.621813e+003;5.166098e-002
3.623742e+003;5.136700e-002
3.625670e+003;5.097507e-002
3.627599e+003;5.082866e-002
3.629527e+003;5.049586e-002
3.631456e+003;5.015038e-002
3.633385e+003;4.975490e-002
3.635313e+003;4.953306e-002
3.637241e+003;4.982327e-002
3.639170e+003;4.961618e-002
3.641099e+003;4.883481e-002
3.643027e+003;4.883730e-002
3.644956e+003;4.872626e-002
3.646884e+003;4.808794e-002
3.648813e+003;4.762640e-002
3.650741e+003;4.777388e-002
3.652670e+003;4.804726e-002
3.654598e+003;4.767698e-002
3.656527e+003;4.730769e-002
3.658456e+003;4.747675e-002
3.660384e+003;4.741012e-002
3.662313e+003;4.685934e-002
3.664241e+003;4.675793e-002
3.666170e+003;4.704072e-002
3.668098e+003;4.687569e-002
3.670027e+003;4.641932e-002
3.671955e+003;4.633510e-002
3.673884e+003;4.605569e-002
3.675813e+003;4.528316e-002
3.677741e+003;4.482088e-002
3.679669e+003;4.527676e-002
3.681598e+003;4.542874e-002
3.683527e+003;4.522936e-002
3.685455e+003;4.495341e-002
3.687384e+003;4.440893e-002
3.689312e+003;4.445500e-002
3.691241e+003;4.492816e-002
3.693169e+003;4.469515e-002
3.695098e+003;4.427646e-002
3.697026e+003;4.399496e-002
3.698955e+003;4.381217e-002
3.700884e+003;4.391261e-002
3.702812e+003;4.420055e-002
3.704741e+003;4.387547e-002
3.706669e+003;4.374177e-002
3.708598e+003;4.393626e-002
3.710526e+003;4.351489e-002
3.712455e+003;4.284969e-002
3.714383e+003;4.327019e-002
3.716312e+003;4.389094e-002
3.718240e+003;4.362177e-002
3.720169e+003;4.356697e-002
3.722098e+003;4.335482e-002
3.724026e+003;4.291771e-002
3.725955e+003;4.288223e-002
3.727883e+003;4.277033e-002
3.729812e+003;4.252393e-002
3.731740e+003;4.283378e-002
3.733669e+003;4.285352e-002
3.735597e+003;4.281406e-002
3.737526e+003;4.279019e-002
3.739455e+003;4.287075e-002
3.741383e+003;4.325986e-002
3.743312e+003;4.336442e-002
3.745240e+003;4.295213e-002
3.747169e+003;4.257213e-002
3.749097e+003;4.243127e-002
3.751026e+003;4.271195e-002
3.752954e+003;4.278701e-002
3.754883e+003;4.243068e-002
3.756812e+003;4.218071e-002
3.758740e+003;4.269681e-002
3.760668e+003;4.285714e-002
3.762597e+003;4.248841e-002
3.764526e+003;4.205363e-002
3.766454e+003;4.215651e-002
3.768383e+003;4.269407e-002
3.770311e+003;4.282551e-002
3.772240e+003;4.284866e-002
3.774168e+003;4.276745e-002
3.776097e+003;4.231233e-002
3.778025e+003;4.206995e-002
3.779954e+003;4.223827e-002
3.781883e+003;4.253391e-002
3.783811e+003;4.282555e-002
3.785740e+003;4.282193e-002
3.787668e+003;4.320299e-002
3.789597e+003;4.315113e-002
3.791525e+003;4.259198e-002
3.793454e+003;4.244994e-002
3.795382e+003;4.304786e-002
3.797311e+003;4.321843e-002
3.799240e+003;4.253522e-002
3.801168e+003;4.171221e-002
3.803097e+003;4.166060e-002
3.805025e+003;4.240365e-002
3.806954e+003;4.241158e-002
3.808882e+003;4.253778e-002
3.810811e+003;4.341132e-002
3.812739e+003;4.406503e-002
3.814668e+003;4.417708e-002
3.816596e+003;4.358533e-002
3.818525e+003;4.277776e-002
3.820454e+003;4.221927e-002
3.822382e+003;4.230214e-002
3.824311e+003;4.277150e-002
3.826239e+003;4.268884e-002
3.828168e+003;4.272215e-002
3.830096e+003;4.312741e-002
3.832025e+003;4.342201e-002
3.833953e+003;4.353723e-002
3.835882e+003;4.327860e-002
3.837811e+003;4.326667e-002
3.839739e+003;4.374386e-002
3.841667e+003;4.382383e-002
3.843596e+003;4.400753e-002
3.845525e+003;4.387929e-002
3.847453e+003;4.311157e-002
3.849382e+003;4.330877e-002
3.851310e+003;4.403247e-002
3.853239e+003;4.436886e-002
3.855167e+003;4.428299e-002
3.857096e+003;4.378696e-002
3.859024e+003;4.351013e-002
3.860953e+003;4.355401e-002
3.862882e+003;4.345248e-002
3.864810e+003;4.339653e-002
3.866739e+003;4.330309e-002
3.868667e+003;4.300608e-002
3.870596e+003;4.316474e-002
3.872524e+003;4.361119e-002
3.874453e+003;4.384219e-002
3.876381e+003;4.387020e-002
3.878310e+003;4.397479e-002
3.880239e+003;4.420789e-002
3.882167e+003;4.402810e-002
3.884096e+003;4.362397e-002
3.886024e+003;4.390480e-002
3.887953e+003;4.405982e-002
3.889881e+003;4.344164e-002
3.891810e+003;4.296168e-002
3.893738e+003;4.339624e-002
3.895667e+003;4.371213e-002
3.897595e+003;4.408953e-002
3.899524e+003;4.459156e-002
3.901453e+003;4.446498e-002
3.903381e+003;4.447691e-002
3.905310e+003;4.447621e-002
3.907238e+003;4.426718e-002
3.909167e+003;4.406184e-002
3.911095e+003;4.416574e-002
3.913024e+003;4.439168e-002
3.914952e+003;4.449189e-002
3.916881e+003;4.473952e-002
3.918810e+003;4.447889e-002
3.920738e+003;4.401102e-002
3.922667e+003;4.449772e-002
3.924595e+003;4.496256e-002
3.926524e+003;4.381690e-002
3.928452e+003;4.332125e-002
3.930381e+003;4.387606e-002
3.932309e+003;4.419498e-002
3.934238e+003;4.404970e-002
3.936167e+003;4.440394e-002
3.938095e+003;4.535477e-002
3.940023e+003;4.538232e-002
3.941952e+003;4.487842e-002
3.943881e+003;4.493272e-002
3.945809e+003;4.525378e-002
3.947738e+003;4.465821e-002
3.949666e+003;4.428174e-002
3.951595e+003;4.480163e-002
3.953523e+003;4.554412e-002
3.955452e+003;4.565744e-002
3.957380e+003;4.541167e-002
3.959309e+003;4.523701e-002
3.961238e+003;4.522057e-002
3.963166e+003;4.502379e-002
3.965095e+003;4.457522e-002
3.967023e+003;4.461282e-002
3.968952e+003;4.553367e-002
3.970880e+003;4.609592e-002
3.972809e+003;4.568118e-002
3.974737e+003;4.533542e-002
3.976666e+003;4.564062e-002
3.978594e+003;4.565011e-002
3.980523e+003;4.524300e-002
3.982452e+003;4.512443e-002
3.984380e+003;4.495018e-002
3.986309e+003;4.462718e-002
3.988237e+003;4.507271e-002
3.990166e+003;4.538802e-002
3.992094e+003;4.516174e-002
3.994023e+003;4.545137e-002
3.995951e+003;4.583871e-002
3.997880e+003;4.539515e-002
3.999809e+003;4.539655e-002
4.001737e+003;0.000000e+000
