3.992094e+002;0.000000e+000
4.011380e+002;0.000000e+000
4.030665e+002;0.000000e+000
4.049951e+002;0.000000e+000
4.069236e+002;0.000000e+000
4.088522e+002;0.000000e+000
4.107807e+002;0.000000e+000
4.127093e+002;0.000000e+000
4.146378e+002;0.000000e+000
4.165664e+002;0.000000e+000
4.184949e+002;0.000000e+000
4.204235e+002;0.000000e+000
4.223520e+002;0.000000e+000
4.242806e+002;0.000000e+000
4.262091e+002;0.000000e+000
4.281377e+002;0.000000e+000
4.300662e+002;0.000000e+000
4.319948e+002;0.000000e+000
4.339233e+002;0.000000e+000
4.358519e+002;0.000000e+000
4.377804e+002;0.000000e+000
4.397090e+002;0.000000e+000
4.416375e+002;0.000000e+000
4.435660e+002;0.000000e+000
4.454946e+002;0.000000e+000
4.474232e+002;0.000000e+000
4.493517e+002;0.000000e+000
4.512802e+002;0.000000e+000
4.532088e+002;0.000000e+000
4.551373e+002;0.000000e+000
4.570659e+002;0.000000e+000
4.589944e+002;0.000000e+000
4.609230e+002;0.000000e+000
4.628515e+002;0.000000e+000
4.647801e+002;0.000000e+000
4.667086e+002;0.000000e+000
4.686372e+002;0.000000e+000
4.705657e+002;0.000000e+000
4.724943e+002;0.000000e+000
4.744228e+002;0.000000e+000
4.763513e+002;0.000000e+000
4.782799e+002;0.000000e+000
4.802085e+002;0.000000e+000
4.821370e+002;0.000000e+000
4.840656e+002;0.000000e+000
4.859941e+002;0.000000e+000
4.879226e+002;0.000000e+000
4.898512e+002;0.000000e+000
4.917798e+002;0.000000e+000
4.937083e+002;0.000000e+000
4.956368e+002;0.000000e+000
4.975654e+002;0.000000e+000
4.994939e+002;0.000000e+000
5.014225e+002;0.000000e+000
5.033510e+002;0.000000e+000
5.052796e+002;0.000000e+000
5.072081e+002;0.000000e+000
5.091367e+002;0.000000e+000
5.110652e+002;0.000000e+000
5.129938e+002;0.000000e+000
5.149223e+002;0.000000e+000
5.168509e+002;0.000000e+000
5.187794e+002;0.000000e+000
5.207079e+002;0.000000e+000
5.226365e+002;0.000000e+000
5.245651e+002;0.000000e+000
5.264936e+002;0.000000e+000
5.284222e+002;0.000000e+000
5.303507e+002;0.000000e+000
5.322792e+002;0.000000e+000
5.342078e+002;0.000000e+000
5.361364e+002;0.000000e+000
5.380649e+002;0.000000e+000
5.399935e+002;0.000000e+000
5.419220e+002;0.000000e+000
5.438505e+002;0.000000e+000
5.457791e+002;0.000000e+000
5.477076e+002;0.000000e+000
5.496362e+002;0.000000e+000
5.515648e+002;0.000000e+000
5.534933e+002;0.000000e+000
5.554218e+002;0.000000e+000
5.573504e+002;0.000000e+000
5.592789e+002;0.000000e+000
5.612075e+002;0.000000e+000
5.631360e+002;0.000000e+000
5.650646e+002;0.000000e+000
5.669931e+002;0.000000e+000
5.689217e+002;0.000000e+000
5.708502e+002;0.000000e+000
5.727787e+002;0.000000e+000
5.747073e+002;0.000000e+000
5.766359e+002;0.000000e+000
5.785644e+002;0.000000e+000
5.804930e+002;0.000000e+000
5.824215e+002;0.000000e+000
5.843500e+002;0.000000e+000
5.862786e+002;0.000000e+000
5.882072e+002;0.000000e+000
5.901357e+002;0.000000e+000
5.920643e+002;0.000000e+000
5.939928e+002;0.000000e+000
5.959213e+002;0.000000e+000
5.978499e+002;0.000000e+000
5.997784e+002;1.597791e-001
6.017070e+002;1.573923e-001
6.036355e+002;1.554022e-001
6.055641e+002;1.603895e-001
6.074926e+002;1.626723e-001
6.094211e+002;1.654617e-001
6.113497e+002;1.677542e-001
6.132783e+002;1.664869e-001
6.152068e+002;1.635383e-001
6.171354e+002;1.560047e-001
6.190639e+002;1.525448e-001
6.209924e+002;1.548479e-001
6.229210e+002;1.574082e-001
6.248495e+002;1.583684e-001
6.267781e+002;1.533204e-001
6.287067e+002;1.504330e-001
6.306352e+002;1.487341e-001
6.325637e+002;1.455197e-001
6.344923e+002;1.422918e-001
6.364208e+002;1.438549e-001
6.383494e+002;1.517758e-001
6.402780e+002;1.527914e-001
6.422065e+002;1.481007e-001
6.441350e+002;1.473146e-001
6.460636e+002;1.421831e-001
6.479921e+002;1.391460e-001
6.499207e+002;1.420838e-001
6.518492e+002;1.418084e-001
6.537778e+002;1.428161e-001
6.557063e+002;1.420733e-001
6.576349e+002;1.432507e-001
6.595634e+002;1.476028e-001
6.614919e+002;1.479038e-001
6.634205e+002;1.461203e-001
6.653491e+002;1.441025e-001
6.672776e+002;1.416712e-001
6.692062e+002;1.389224e-001
6.711347e+002;1.370191e-001
6.730632e+002;1.357790e-001
6.749918e+002;1.369130e-001
6.769203e+002;1.348133e-001
6.788489e+002;1.314908e-001
6.807775e+002;1.302126e-001
6.827060e+002;1.291371e-001
6.846345e+002;1.274378e-001
6.865631e+002;1.266803e-001
6.884916e+002;1.273266e-001
6.904202e+002;1.266716e-001
6.923488e+002;1.240924e-001
6.942773e+002;1.219745e-001
6.962058e+002;1.221339e-001
6.981344e+002;1.227199e-001
7.000629e+002;1.238113e-001
7.019915e+002;1.239942e-001
7.039200e+002;1.235902e-001
7.058486e+002;1.236735e-001
7.077771e+002;1.236644e-001
7.097057e+002;1.230333e-001
7.116342e+002;1.212116e-001
7.135627e+002;1.205190e-001
7.154913e+002;1.199151e-001
7.174199e+002;1.186021e-001
7.193484e+002;1.175471e-001
7.212770e+002;1.166481e-001
7.232055e+002;1.156757e-001
7.251340e+002;1.146664e-001
7.270626e+002;1.130582e-001
7.289911e+002;1.111601e-001
7.309197e+002;1.105287e-001
7.328483e+002;1.099665e-001
7.347768e+002;1.090870e-001
7.367053e+002;1.081979e-001
7.386339e+002;1.072611e-001
7.405624e+002;1.065211e-001
7.424910e+002;1.063466e-001
7.444196e+002;1.063017e-001
7.463481e+002;1.056823e-001
7.482766e+002;1.047967e-001
7.502052e+002;1.039243e-001
7.521337e+002;1.035494e-001
7.540623e+002;1.032680e-001
7.559908e+002;1.018589e-001
7.579194e+002;1.016587e-001
7.598479e+002;1.021719e-001
7.617765e+002;1.020212e-001
7.637050e+002;1.014643e-001
7.656335e+002;1.006682e-001
7.675621e+002;1.006794e-001
7.694907e+002;1.002147e-001
7.714192e+002;1.000202e-001
7.733478e+002;1.008438e-001
7.752763e+002;1.002192e-001
7.772048e+002;9.875856e-002
7.791334e+002;9.810581e-002
7.810620e+002;9.785864e-002
7.829905e+002;9.775667e-002
7.849191e+002;9.686450e-002
7.868476e+002;9.640013e-002
7.887761e+002;9.706884e-002
7.907047e+002;9.801258e-002
7.926332e+002;9.771658e-002
7.945618e+002;9.719680e-002
7.964903e+002;9.722706e-002
7.984189e+002;9.680773e-002
8.003474e+002;9.638748e-002
8.022759e+002;9.631343e-002
8.042045e+002;9.602925e-002
8.061331e+002;9.540358e-002
8.080616e+002;9.541844e-002
8.099902e+002;9.612404e-002
8.119187e+002;9.581693e-002
8.138472e+002;9.517313e-002
8.157758e+002;9.571002e-002
8.177043e+002;9.608919e-002
8.196329e+002;9.571585e-002
8.215615e+002;9.544238e-002
8.234900e+002;9.633858e-002
8.254185e+002;9.717015e-002
8.273471e+002;9.678744e-002
8.292756e+002;9.624556e-002
8.312042e+002;9.629651e-002
8.331328e+002;9.670997e-002
8.350613e+002;9.731315e-002
8.369898e+002;9.761580e-002
8.389184e+002;9.683622e-002
8.408469e+002;9.574216e-002
8.427755e+002;9.504069e-002
8.447040e+002;9.589019e-002
8.466326e+002;9.688624e-002
8.485611e+002;9.694327e-002
8.504897e+002;9.709615e-002
8.524182e+002;9.757312e-002
8.543467e+002;9.786711e-002
8.562753e+002;9.768849e-002
8.582039e+002;9.747739e-002
8.601324e+002;9.774845e-002
8.620610e+002;9.853595e-002
8.639895e+002;1.002045e-001
8.659180e+002;1.011960e-001
8.678466e+002;1.013236e-001
8.697751e+002;1.022829e-001
8.717037e+002;1.043798e-001
8.736323e+002;1.062080e-001
8.755608e+002;1.068502e-001
8.774893e+002;1.072499e-001
8.794179e+002;1.075687e-001
8.813464e+002;1.080494e-001
8.832750e+002;1.089346e-001
8.852036e+002;1.102339e-001
8.871321e+002;1.117088e-001
8.890606e+002;1.136124e-001
8.909892e+002;1.156189e-001
8.929177e+002;1.171461e-001
8.948463e+002;1.181230e-001
8.967748e+002;1.184241e-001
8.987034e+002;1.175640e-001
9.006319e+002;1.166708e-001
9.025605e+002;1.152179e-001
9.044890e+002;1.136286e-001
9.064175e+002;1.125407e-001
9.083461e+002;1.116304e-001
9.102747e+002;1.108058e-001
9.122032e+002;1.104348e-001
9.141318e+002;1.104722e-001
9.160603e+002;1.102694e-001
9.179888e+002;1.101012e-001
9.199174e+002;1.106762e-001
9.218459e+002;1.114594e-001
9.237745e+002;1.123702e-001
9.257031e+002;1.133368e-001
9.276316e+002;1.141497e-001
9.295601e+002;1.146518e-001
9.314887e+002;1.148099e-001
9.334172e+002;1.154005e-001
9.353458e+002;1.169384e-001
9.372744e+002;1.185117e-001
9.392029e+002;1.195759e-001
9.411314e+002;1.211651e-001
9.430600e+002;1.233220e-001
9.449885e+002;1.257675e-001
9.469171e+002;1.279382e-001
9.488456e+002;1.303985e-001
9.507742e+002;1.332140e-001
9.527027e+002;1.363670e-001
9.546313e+002;1.396543e-001
9.565598e+002;1.424147e-001
9.584883e+002;1.452330e-001
9.604169e+002;1.488348e-001
9.623455e+002;1.519472e-001
9.642740e+002;1.544884e-001
9.662026e+002;1.570447e-001
9.681311e+002;1.597408e-001
9.700596e+002;1.629359e-001
9.719882e+002;1.664854e-001
9.739167e+002;1.705023e-001
9.758453e+002;1.752604e-001
9.777739e+002;1.806557e-001
9.797024e+002;1.864047e-001
9.816309e+002;1.924150e-001
9.835595e+002;1.977615e-001
9.854880e+002;2.014733e-001
9.874166e+002;2.042235e-001
9.893452e+002;2.060099e-001
9.912737e+002;2.071593e-001
9.932022e+002;2.087628e-001
9.951307e+002;2.104198e-001
9.970593e+002;2.126056e-001
9.989879e+002;2.150649e-001
1.000916e+003;2.175143e-001
1.002845e+003;2.199202e-001
1.004773e+003;2.223138e-001
1.006702e+003;2.242470e-001
1.008631e+003;2.257006e-001
1.010559e+003;2.282095e-001
1.012488e+003;2.320559e-001
1.014416e+003;2.356415e-001
1.016345e+003;2.385418e-001
1.018273e+003;2.415349e-001
1.020202e+003;2.444003e-001
1.022130e+003;2.465760e-001
1.024059e+003;2.483328e-001
1.025988e+003;2.505349e-001
1.027916e+003;2.527328e-001
1.029845e+003;2.540514e-001
1.031773e+003;2.537817e-001
1.033702e+003;2.528293e-001
1.035630e+003;2.508497e-001
1.037559e+003;2.480989e-001
1.039487e+003;2.448515e-001
1.041416e+003;2.422937e-001
1.043344e+003;2.412220e-001
1.045273e+003;2.404599e-001
1.047202e+003;2.396637e-001
1.049130e+003;2.400493e-001
1.051059e+003;2.402055e-001
1.052987e+003;2.392896e-001
1.054916e+003;2.380688e-001
1.056844e+003;2.356224e-001
1.058773e+003;2.315850e-001
1.060701e+003;2.264633e-001
1.062630e+003;2.210796e-001
1.064558e+003;2.159282e-001
1.066487e+003;2.105629e-001
1.068416e+003;2.045392e-001
1.070344e+003;1.993446e-001
1.072273e+003;1.956650e-001
1.074201e+003;1.922107e-001
1.076130e+003;1.892797e-001
1.078058e+003;1.860990e-001
1.079987e+003;1.831770e-001
1.081915e+003;1.808397e-001
1.083844e+003;1.791074e-001
1.085773e+003;1.783561e-001
1.087701e+003;1.776977e-001
1.089630e+003;1.767294e-001
1.091558e+003;1.760012e-001
1.093487e+003;1.754475e-001
1.095415e+003;1.748501e-001
1.097344e+003;1.742699e-001
1.099272e+003;1.741859e-001
1.101201e+003;1.736787e-001
1.103129e+003;1.726595e-001
1.105058e+003;1.712517e-001
1.106987e+003;1.694904e-001
1.108915e+003;1.672943e-001
1.110844e+003;1.645909e-001
1.112772e+003;1.609842e-001
1.114701e+003;1.569176e-001
1.116629e+003;1.527639e-001
1.118558e+003;1.492303e-001
1.120486e+003;1.463718e-001
1.122415e+003;1.432369e-001
1.124344e+003;1.395009e-001
1.126272e+003;1.354176e-001
1.128201e+003;1.309899e-001
1.130129e+003;1.272778e-001
1.132058e+003;1.240446e-001
1.133986e+003;1.205812e-001
1.135915e+003;1.172232e-001
1.137843e+003;1.154161e-001
1.139772e+003;1.150778e-001
1.141700e+003;1.148696e-001
1.143629e+003;1.151716e-001
1.145557e+003;1.161180e-001
1.147486e+003;1.168467e-001
1.149415e+003;1.173866e-001
1.151343e+003;1.179099e-001
1.153272e+003;1.186550e-001
1.155200e+003;1.189733e-001
1.157129e+003;1.188181e-001
1.159057e+003;1.184451e-001
1.160986e+003;1.173606e-001
1.162914e+003;1.157518e-001
1.164843e+003;1.135920e-001
1.166771e+003;1.102725e-001
1.168700e+003;1.064338e-001
1.170629e+003;1.026290e-001
1.172557e+003;9.839131e-002
1.174486e+003;9.453703e-002
1.176414e+003;9.148201e-002
1.178343e+003;8.927307e-002
1.180271e+003;8.813138e-002
1.182200e+003;8.747799e-002
1.184128e+003;8.705618e-002
1.186057e+003;8.698161e-002
1.187986e+003;8.708145e-002
1.189914e+003;8.767658e-002
1.191843e+003;8.875202e-002
1.193771e+003;9.036805e-002
1.195700e+003;9.199467e-002
1.197628e+003;9.339825e-002
1.199557e+003;9.449773e-002
1.201485e+003;9.524128e-002
1.203414e+003;9.559683e-002
1.205343e+003;9.547970e-002
1.207271e+003;9.530697e-002
1.209200e+003;9.555533e-002
1.211128e+003;9.568322e-002
1.213057e+003;9.577917e-002
1.214985e+003;9.637155e-002
1.216914e+003;9.725735e-002
1.218842e+003;9.787902e-002
1.220771e+003;9.849343e-002
1.222699e+003;9.978510e-002
1.224628e+003;1.008618e-001
1.226557e+003;1.010396e-001
1.228485e+003;1.013567e-001
1.230414e+003;1.020818e-001
1.232342e+003;1.025610e-001
1.234271e+003;1.025006e-001
1.236199e+003;1.023791e-001
1.238128e+003;1.022804e-001
1.240056e+003;1.020079e-001
1.241985e+003;1.020680e-001
1.243913e+003;1.023768e-001
1.245842e+003;1.023420e-001
1.247771e+003;1.018257e-001
1.249699e+003;1.010212e-001
1.251628e+003;1.006635e-001
1.253556e+003;1.006647e-001
1.255485e+003;1.005538e-001
1.257413e+003;1.006599e-001
1.259342e+003;1.007414e-001
1.261270e+003;1.003825e-001
1.263199e+003;1.001056e-001
1.265127e+003;9.975597e-002
1.267056e+003;9.918544e-002
1.268985e+003;9.880988e-002
1.270913e+003;9.883980e-002
1.272842e+003;9.856623e-002
1.274770e+003;9.790169e-002
1.276699e+003;9.754230e-002
1.278627e+003;9.740022e-002
1.280556e+003;9.691005e-002
1.282484e+003;9.638954e-002
1.284413e+003;9.606757e-002
1.286342e+003;9.572287e-002
1.288270e+003;9.576323e-002
1.290199e+003;9.603781e-002
1.292127e+003;9.656555e-002
1.294056e+003;9.701671e-002
1.295984e+003;9.785283e-002
1.297913e+003;9.915005e-002
1.299841e+003;1.004030e-001
1.301770e+003;1.017358e-001
1.303698e+003;1.031989e-001
1.305627e+003;1.046768e-001
1.307556e+003;1.059885e-001
1.309484e+003;1.073505e-001
1.311413e+003;1.086904e-001
1.313341e+003;1.095199e-001
1.315270e+003;1.103109e-001
1.317198e+003;1.109565e-001
1.319127e+003;1.107863e-001
1.321055e+003;1.101436e-001
1.322984e+003;1.096515e-001
1.324912e+003;1.093881e-001
1.326841e+003;1.092598e-001
1.328770e+003;1.086516e-001
1.330698e+003;1.079677e-001
1.332627e+003;1.073056e-001
1.334555e+003;1.064626e-001
1.336484e+003;1.054847e-001
1.338412e+003;1.043455e-001
1.340341e+003;1.031277e-001
1.342269e+003;1.019530e-001
1.344198e+003;1.007228e-001
1.346126e+003;9.987696e-002
1.348055e+003;9.943569e-002
1.349984e+003;9.911483e-002
1.351912e+003;9.925901e-002
1.353841e+003;9.978160e-002
1.355769e+003;1.000809e-001
1.357698e+003;1.001439e-001
1.359626e+003;1.003598e-001
1.361555e+003;1.003554e-001
1.363483e+003;1.001712e-001
1.365412e+003;1.005737e-001
1.367341e+003;1.009263e-001
1.369269e+003;1.008403e-001
1.371198e+003;1.001548e-001
1.373126e+003;9.922237e-002
1.375055e+003;9.869708e-002
1.376983e+003;9.787720e-002
1.378912e+003;9.669606e-002
1.380840e+003;9.585263e-002
1.382769e+003;9.495170e-002
1.384698e+003;9.408782e-002
1.386626e+003;9.329686e-002
1.388555e+003;9.303957e-002
1.390483e+003;9.300850e-002
1.392412e+003;9.312012e-002
1.394340e+003;9.325629e-002
1.396269e+003;9.328479e-002
1.398197e+003;9.353903e-002
1.400126e+003;9.439123e-002
1.402054e+003;9.505100e-002
1.403983e+003;9.564217e-002
1.405911e+003;9.667743e-002
1.407840e+003;9.744588e-002
1.409769e+003;9.800527e-002
1.411697e+003;9.886634e-002
1.413626e+003;9.995454e-002
1.415554e+003;1.009041e-001
1.417483e+003;1.010120e-001
1.419411e+003;1.009952e-001
1.421340e+003;1.010899e-001
1.423268e+003;1.004366e-001
1.425197e+003;9.978077e-002
1.427125e+003;9.895904e-002
1.429054e+003;9.739371e-002
1.430983e+003;9.596109e-002
1.432911e+003;9.490214e-002
1.434840e+003;9.337877e-002
1.436768e+003;9.207084e-002
1.438697e+003;9.189541e-002
1.440625e+003;9.158940e-002
1.442554e+003;9.136227e-002
1.444482e+003;9.155307e-002
1.446411e+003;9.165159e-002
1.448340e+003;9.209865e-002
1.450268e+003;9.257849e-002
1.452197e+003;9.262204e-002
1.454125e+003;9.244442e-002
1.456054e+003;9.165589e-002
1.457982e+003;9.124844e-002
1.459911e+003;9.123228e-002
1.461839e+003;9.051128e-002
1.463768e+003;8.913932e-002
1.465697e+003;8.756631e-002
1.467625e+003;8.567126e-002
1.469554e+003;8.331285e-002
1.471482e+003;8.068121e-002
1.473411e+003;7.845560e-002
1.475339e+003;7.676182e-002
1.477268e+003;7.532223e-002
1.479196e+003;7.388145e-002
1.481125e+003;7.263622e-002
1.483053e+003;7.201092e-002
1.484982e+003;7.134707e-002
1.486911e+003;7.079151e-002
1.488839e+003;7.063807e-002
1.490768e+003;7.097501e-002
1.492696e+003;7.193337e-002
1.494625e+003;7.254779e-002
1.496553e+003;7.275437e-002
1.498482e+003;7.341394e-002
1.500410e+003;7.403372e-002
1.502339e+003;7.412159e-002
1.504267e+003;7.331009e-002
1.506196e+003;7.217443e-002
1.508125e+003;7.175154e-002
1.510053e+003;7.115588e-002
1.511982e+003;7.009700e-002
1.513910e+003;6.874450e-002
1.515839e+003;6.702824e-002
1.517767e+003;6.571196e-002
1.519696e+003;6.438064e-002
1.521624e+003;6.328370e-002
1.523553e+003;6.299860e-002
1.525481e+003;6.257460e-002
1.527410e+003;6.271619e-002
1.529339e+003;6.334676e-002
1.531267e+003;6.316155e-002
1.533196e+003;6.281018e-002
1.535124e+003;6.317443e-002
1.537053e+003;6.292958e-002
1.538981e+003;6.201478e-002
1.540910e+003;6.219235e-002
1.542838e+003;6.295398e-002
1.544767e+003;6.359287e-002
1.546695e+003;6.425454e-002
1.548624e+003;6.442341e-002
1.550553e+003;6.464795e-002
1.552481e+003;6.493113e-002
1.554410e+003;6.491070e-002
1.556338e+003;6.470760e-002
1.558267e+003;6.417268e-002
1.560195e+003;6.479090e-002
1.562124e+003;6.639153e-002
1.564052e+003;6.744786e-002
1.565981e+003;6.822924e-002
1.567910e+003;6.886310e-002
1.569838e+003;6.974643e-002
1.571767e+003;7.092845e-002
1.573695e+003;7.175560e-002
1.575624e+003;7.248824e-002
1.577552e+003;7.444803e-002
1.579481e+003;7.658357e-002
1.581409e+003;7.811806e-002
1.583338e+003;7.963479e-002
1.585266e+003;8.130515e-002
1.587195e+003;8.275793e-002
1.589124e+003;8.374450e-002
1.591052e+003;8.472481e-002
1.592981e+003;8.523794e-002
1.594909e+003;8.530785e-002
1.596838e+003;8.548947e-002
1.598766e+003;8.539630e-002
1.600695e+003;8.494616e-002
1.602623e+003;8.420300e-002
1.604552e+003;8.375796e-002
1.606480e+003;8.348336e-002
1.608409e+003;8.294507e-002
1.610338e+003;8.241206e-002
1.612266e+003;8.162632e-002
1.614195e+003;8.061159e-002
1.616123e+003;7.948173e-002
1.618052e+003;7.898800e-002
1.619980e+003;7.870758e-002
1.621909e+003;7.787420e-002
1.623837e+003;7.708300e-002
1.625766e+003;7.667211e-002
1.627694e+003;7.618571e-002
1.629623e+003;7.544709e-002
1.631552e+003;7.495953e-002
1.633480e+003;7.424600e-002
1.635409e+003;7.342391e-002
1.637337e+003;7.339782e-002
1.639266e+003;7.336607e-002
1.641194e+003;7.302888e-002
1.643123e+003;7.245598e-002
1.645051e+003;7.167286e-002
1.646980e+003;7.105238e-002
1.648909e+003;7.070883e-002
1.650837e+003;6.959795e-002
1.652766e+003;6.817760e-002
1.654694e+003;6.826302e-002
1.656623e+003;6.861787e-002
1.658551e+003;6.825569e-002
1.660480e+003;6.774472e-002
1.662408e+003;6.718756e-002
1.664337e+003;6.678581e-002
1.666266e+003;6.612437e-002
1.668194e+003;6.501752e-002
1.670123e+003;6.414917e-002
1.672051e+003;6.379814e-002
1.673980e+003;6.263140e-002
1.675908e+003;6.155421e-002
1.677837e+003;6.143140e-002
1.679765e+003;6.092630e-002
1.681694e+003;5.982374e-002
1.683622e+003;5.849027e-002
1.685551e+003;5.805852e-002
1.687479e+003;5.821137e-002
1.689408e+003;5.797093e-002
1.691337e+003;5.759532e-002
1.693265e+003;5.678856e-002
1.695194e+003;5.574970e-002
1.697122e+003;5.565139e-002
1.699051e+003;5.504351e-002
1.700979e+003;5.424973e-002
1.702908e+003;5.453740e-002
1.704836e+003;5.464828e-002
1.706765e+003;5.471468e-002
1.708693e+003;5.461194e-002
1.710622e+003;5.441837e-002
1.712551e+003;5.417690e-002
1.714479e+003;5.382897e-002
1.716408e+003;5.327532e-002
1.718336e+003;5.331686e-002
1.720265e+003;5.375723e-002
1.722193e+003;5.408011e-002
1.724122e+003;5.428630e-002
1.726050e+003;5.425746e-002
1.727979e+003;5.404003e-002
1.729908e+003;5.375074e-002
1.731836e+003;5.323385e-002
1.733765e+003;5.247688e-002
1.735693e+003;5.265021e-002
1.737622e+003;5.286231e-002
1.739550e+003;5.243665e-002
1.741479e+003;5.233452e-002
1.743407e+003;5.217230e-002
1.745336e+003;5.168643e-002
1.747265e+003;5.126994e-002
1.749193e+003;5.083063e-002
1.751122e+003;5.048261e-002
1.753050e+003;5.042292e-002
1.754979e+003;5.011639e-002
1.756907e+003;4.988820e-002
1.758836e+003;4.983427e-002
1.760764e+003;4.948905e-002
1.762693e+003;4.905726e-002
1.764621e+003;4.883010e-002
1.766550e+003;4.845982e-002
1.768479e+003;4.820558e-002
1.770407e+003;4.799234e-002
1.772336e+003;4.749812e-002
1.774264e+003;4.768804e-002
1.776193e+003;4.810892e-002
1.778121e+003;4.794272e-002
1.780050e+003;4.772236e-002
1.781978e+003;4.723225e-002
1.783907e+003;4.680321e-002
1.785835e+003;4.677859e-002
1.787764e+003;4.698681e-002
1.789693e+003;4.687957e-002
1.791621e+003;4.633467e-002
1.793550e+003;4.607444e-002
1.795478e+003;4.618296e-002
1.797407e+003;4.625147e-002
1.799335e+003;4.634985e-002
1.801264e+003;4.607776e-002
1.803192e+003;4.600603e-002
1.805121e+003;4.602051e-002
1.807049e+003;4.581150e-002
1.808978e+003;4.564323e-002
1.810907e+003;4.565008e-002
1.812835e+003;4.564739e-002
1.814764e+003;4.562604e-002
1.816692e+003;4.569020e-002
1.818621e+003;4.575720e-002
1.820549e+003;4.574092e-002
1.822478e+003;4.561430e-002
1.824406e+003;4.537470e-002
1.826335e+003;4.509237e-002
1.828264e+003;4.499093e-002
1.830192e+003;4.499872e-002
1.832121e+003;4.512550e-002
1.834049e+003;4.511535e-002
1.835978e+003;4.504566e-002
1.837906e+003;4.499310e-002
1.839835e+003;4.494599e-002
1.841763e+003;4.473126e-002
1.843692e+003;4.445555e-002
1.845620e+003;4.464095e-002
1.847549e+003;4.464407e-002
1.849478e+003;4.427389e-002
1.851406e+003;4.445133e-002
1.853335e+003;4.471160e-002
1.855263e+003;4.463448e-002
1.857192e+003;4.465923e-002
1.859120e+003;4.460680e-002
1.861049e+003;4.451523e-002
1.862977e+003;4.442233e-002
1.864906e+003;4.428384e-002
1.866834e+003;4.429125e-002
1.868763e+003;4.442688e-002
1.870692e+003;4.443830e-002
1.872620e+003;4.418911e-002
1.874549e+003;4.396566e-002
1.876477e+003;4.411806e-002
1.878406e+003;4.434343e-002
1.880334e+003;4.460026e-002
1.882263e+003;4.451292e-002
1.884191e+003;4.435745e-002
1.886120e+003;4.427055e-002
1.888048e+003;4.404625e-002
1.889977e+003;4.388178e-002
1.891906e+003;4.413446e-002
1.893834e+003;4.437040e-002
1.895763e+003;4.407530e-002
1.897691e+003;4.379924e-002
1.899620e+003;4.385905e-002
1.901548e+003;4.394982e-002
1.903477e+003;4.403580e-002
1.905405e+003;4.419927e-002
1.907334e+003;4.413706e-002
1.909262e+003;4.390920e-002
1.911191e+003;4.374540e-002
1.913120e+003;4.392471e-002
1.915048e+003;4.410669e-002
1.916977e+003;4.402113e-002
1.918905e+003;4.401124e-002
1.920834e+003;4.420507e-002
1.922762e+003;4.415305e-002
1.924691e+003;4.416127e-002
1.926619e+003;4.435381e-002
1.928548e+003;4.435847e-002
1.930477e+003;4.437381e-002
1.932405e+003;4.436445e-002
1.934334e+003;4.423548e-002
1.936262e+003;4.411905e-002
1.938191e+003;4.428208e-002
1.940119e+003;4.460401e-002
1.942048e+003;4.461480e-002
1.943976e+003;4.441036e-002
1.945905e+003;4.447320e-002
1.947833e+003;4.454805e-002
1.949762e+003;4.460511e-002
1.951691e+003;4.448623e-002
1.953619e+003;4.409694e-002
1.955548e+003;4.386624e-002
1.957476e+003;4.438566e-002
1.959405e+003;4.498240e-002
1.961333e+003;4.489734e-002
1.963262e+003;4.420059e-002
1.965190e+003;4.397369e-002
1.967119e+003;4.413959e-002
1.969047e+003;4.412554e-002
1.970976e+003;4.403434e-002
1.972905e+003;4.421739e-002
1.974833e+003;4.427624e-002
1.976762e+003;4.403951e-002
1.978690e+003;4.414322e-002
1.980619e+003;4.446131e-002
1.982547e+003;4.440805e-002
1.984476e+003;4.420397e-002
1.986404e+003;4.422935e-002
1.988333e+003;4.451564e-002
1.990261e+003;4.484226e-002
1.992190e+003;4.472115e-002
1.994119e+003;4.463224e-002
1.996047e+003;4.466717e-002
1.997976e+003;4.461579e-002
1.999904e+003;4.456725e-002
2.001833e+003;4.451733e-002
2.003761e+003;4.465938e-002
2.005690e+003;4.491736e-002
2.007618e+003;4.500435e-002
2.009547e+003;4.497531e-002
2.011476e+003;4.477412e-002
2.013404e+003;4.469706e-002
2.015333e+003;4.490288e-002
2.017261e+003;4.536282e-002
2.019190e+003;4.551737e-002
2.021118e+003;4.547613e-002
2.023047e+003;4.557268e-002
2.024975e+003;4.556940e-002
2.026904e+003;4.547127e-002
2.028833e+003;4.535076e-002
2.030761e+003;4.539262e-002
2.032690e+003;4.536830e-002
2.034618e+003;4.520138e-002
2.036547e+003;4.552212e-002
2.038475e+003;4.583426e-002
2.040404e+003;4.572119e-002
2.042332e+003;4.565413e-002
2.044261e+003;4.562832e-002
2.046189e+003;4.565769e-002
2.048118e+003;4.589001e-002
2.050047e+003;4.592596e-002
2.051975e+003;4.586416e-002
2.053904e+003;4.595122e-002
2.055832e+003;4.578219e-002
2.057761e+003;4.576393e-002
2.059689e+003;4.575502e-002
2.061618e+003;4.558493e-002
2.063546e+003;4.517785e-002
2.065475e+003;4.504481e-002
2.067404e+003;4.537956e-002
2.069332e+003;4.549820e-002
2.071260e+003;4.548054e-002
2.073189e+003;4.557750e-002
2.075118e+003;4.553511e-002
2.077046e+003;4.552164e-002
2.078975e+003;4.543408e-002
2.080903e+003;4.521664e-002
2.082832e+003;4.509407e-002
2.084760e+003;4.507087e-002
2.086689e+003;4.514807e-002
2.088617e+003;4.509432e-002
2.090546e+003;4.491457e-002
2.092475e+003;4.484961e-002
2.094403e+003;4.506322e-002
2.096332e+003;4.507069e-002
2.098260e+003;4.526705e-002
2.100189e+003;4.554504e-002
2.102117e+003;4.551362e-002
2.104046e+003;4.542661e-002
2.105974e+003;4.561279e-002
2.107903e+003;4.572708e-002
2.109832e+003;4.543316e-002
2.111760e+003;4.525823e-002
2.113688e+003;4.519634e-002
2.115617e+003;4.514285e-002
2.117546e+003;4.506727e-002
2.119474e+003;4.486456e-002
2.121403e+003;4.482885e-002
2.123331e+003;4.532531e-002
2.125260e+003;4.555233e-002
2.127188e+003;4.516685e-002
2.129117e+003;4.503724e-002
2.131045e+003;4.531711e-002
2.132974e+003;4.545015e-002
2.134903e+003;4.502684e-002
2.136831e+003;4.488609e-002
2.138760e+003;4.495194e-002
2.140688e+003;4.483396e-002
2.142617e+003;4.479517e-002
2.144545e+003;4.475068e-002
2.146474e+003;4.475168e-002
2.148402e+003;4.446913e-002
2.150331e+003;4.424150e-002
2.152260e+003;4.444509e-002
2.154188e+003;4.489631e-002
2.156117e+003;4.507525e-002
2.158045e+003;4.480303e-002
2.159974e+003;4.466177e-002
2.161902e+003;4.505948e-002
2.163831e+003;4.527779e-002
2.165759e+003;4.500604e-002
2.167688e+003;4.481915e-002
2.169616e+003;4.474690e-002
2.171545e+003;4.458356e-002
2.173474e+003;4.452852e-002
2.175402e+003;4.414766e-002
2.177331e+003;4.399958e-002
2.179259e+003;4.419487e-002
2.181188e+003;4.421600e-002
2.183116e+003;4.422069e-002
2.185045e+003;4.413391e-002
2.186973e+003;4.399928e-002
2.188902e+003;4.392493e-002
2.190831e+003;4.380103e-002
2.192759e+003;4.374903e-002
2.194688e+003;4.378758e-002
2.196616e+003;4.383057e-002
2.198545e+003;4.381782e-002
2.200473e+003;4.369831e-002
2.202402e+003;4.371913e-002
2.204330e+003;4.380199e-002
2.206259e+003;4.376405e-002
2.208188e+003;4.363390e-002
2.210116e+003;4.370638e-002
2.212044e+003;4.365222e-002
2.213973e+003;4.360775e-002
2.215902e+003;4.352192e-002
2.217830e+003;4.326528e-002
2.219759e+003;4.339931e-002
2.221687e+003;4.350837e-002
2.223616e+003;4.359346e-002
2.225544e+003;4.390956e-002
2.227473e+003;4.393893e-002
2.229401e+003;4.362269e-002
2.231330e+003;4.354840e-002
2.233259e+003;4.372829e-002
2.235187e+003;4.386232e-002
2.237116e+003;4.389982e-002
2.239044e+003;4.376702e-002
2.240973e+003;4.369670e-002
2.242901e+003;4.343263e-002
2.244830e+003;4.345186e-002
2.246758e+003;4.370638e-002
2.248687e+003;4.377615e-002
2.250615e+003;4.388218e-002
2.252544e+003;4.380191e-002
2.254473e+003;4.333579e-002
2.256401e+003;4.307618e-002
2.258330e+003;4.328172e-002
2.260258e+003;4.357338e-002
2.262187e+003;4.352430e-002
2.264115e+003;4.339290e-002
2.266044e+003;4.341114e-002
2.267972e+003;4.329003e-002
2.269901e+003;4.324420e-002
2.271830e+003;4.352763e-002
2.273758e+003;4.340517e-002
2.275687e+003;4.316800e-002
2.277615e+003;4.319193e-002
2.279544e+003;4.328142e-002
2.281472e+003;4.317418e-002
2.283401e+003;4.326828e-002
2.285329e+003;4.355192e-002
2.287258e+003;4.364599e-002
2.289187e+003;4.360185e-002
2.291115e+003;4.331752e-002
2.293043e+003;4.312738e-002
2.294972e+003;4.299043e-002
2.296901e+003;4.297056e-002
2.298829e+003;4.290549e-002
2.300758e+003;4.295279e-002
2.302686e+003;4.317404e-002
2.304615e+003;4.314025e-002
2.306543e+003;4.300031e-002
2.308472e+003;4.301113e-002
2.310400e+003;4.318095e-002
2.312329e+003;4.318696e-002
2.314258e+003;4.315497e-002
2.316186e+003;4.333901e-002
2.318115e+003;4.355049e-002
2.320043e+003;4.351423e-002
2.321972e+003;4.330786e-002
2.323900e+003;4.326953e-002
2.325829e+003;4.324017e-002
2.327757e+003;4.286241e-002
2.329686e+003;4.281279e-002
2.331615e+003;4.299226e-002
2.333543e+003;4.306744e-002
2.335472e+003;4.322498e-002
2.337400e+003;4.341323e-002
2.339329e+003;4.380191e-002
2.341257e+003;4.393801e-002
2.343186e+003;4.385894e-002
2.345114e+003;4.375507e-002
2.347043e+003;4.373078e-002
2.348971e+003;4.342227e-002
2.350900e+003;4.351661e-002
2.352829e+003;4.382951e-002
2.354757e+003;4.388944e-002
2.356686e+003;4.389373e-002
2.358614e+003;4.400750e-002
2.360543e+003;4.385025e-002
2.362471e+003;4.387749e-002
2.364400e+003;4.405080e-002
2.366328e+003;4.401619e-002
2.368257e+003;4.401494e-002
2.370186e+003;4.395770e-002
2.372114e+003;4.377450e-002
2.374042e+003;4.410588e-002
2.375971e+003;4.441121e-002
2.377900e+003;4.424139e-002
2.379828e+003;4.398810e-002
2.381757e+003;4.378091e-002
2.383685e+003;4.406268e-002
2.385614e+003;4.453307e-002
2.387542e+003;4.460397e-002
2.389471e+003;4.470606e-002
2.391399e+003;4.503191e-002
2.393328e+003;4.520553e-002
2.395257e+003;4.504441e-002
2.397185e+003;4.488411e-002
2.399114e+003;4.487199e-002
2.401042e+003;4.495062e-002
2.402971e+003;4.509230e-002
2.404899e+003;4.513116e-002
2.406828e+003;4.514840e-002
2.408756e+003;4.550707e-002
2.410685e+003;4.565839e-002
2.412614e+003;4.550630e-002
2.414542e+003;4.544662e-002
2.416471e+003;4.566837e-002
2.418399e+003;4.591623e-002
2.420328e+003;4.588507e-002
2.422256e+003;4.568574e-002
2.424185e+003;4.591063e-002
2.426113e+003;4.619427e-002
2.428042e+003;4.620370e-002
2.429970e+003;4.609614e-002
2.431899e+003;4.587841e-002
2.433828e+003;4.583912e-002
2.435756e+003;4.597096e-002
2.437685e+003;4.637035e-002
2.439613e+003;4.667694e-002
2.441542e+003;4.660585e-002
2.443470e+003;4.641533e-002
2.445399e+003;4.649218e-002
2.447327e+003;4.653688e-002
2.449256e+003;4.662363e-002
2.451185e+003;4.690699e-002
2.453113e+003;4.702768e-002
2.455042e+003;4.695868e-002
2.456970e+003;4.679546e-002
2.458899e+003;4.677870e-002
2.460827e+003;4.710294e-002
2.462756e+003;4.732653e-002
2.464684e+003;4.691582e-002
2.466613e+003;4.668827e-002
2.468542e+003;4.679140e-002
2.470470e+003;4.677992e-002
2.472398e+003;4.699334e-002
2.474327e+003;4.729679e-002
2.476256e+003;4.744072e-002
2.478184e+003;4.770768e-002
2.480113e+003;4.768771e-002
2.482041e+003;4.749686e-002
2.483970e+003;4.744205e-002
2.485898e+003;4.760152e-002
2.487827e+003;4.778975e-002
2.489755e+003;4.778679e-002
2.491684e+003;4.759978e-002
2.493613e+003;4.734401e-002
2.495541e+003;4.761128e-002
2.497470e+003;4.802243e-002
2.499398e+003;4.773197e-002
2.501327e+003;4.748015e-002
2.503255e+003;4.773068e-002
2.505184e+003;4.806169e-002
2.507112e+003;4.819055e-002
2.509041e+003;4.820107e-002
2.510969e+003;4.824072e-002
2.512898e+003;4.833430e-002
2.514827e+003;4.822432e-002
2.516755e+003;4.802328e-002
2.518684e+003;4.840893e-002
2.520612e+003;4.860718e-002
2.522541e+003;4.871811e-002
2.524469e+003;4.897840e-002
2.526398e+003;4.893538e-002
2.528326e+003;4.867144e-002
2.530255e+003;4.862764e-002
2.532184e+003;4.871058e-002
2.534112e+003;4.884475e-002
2.536041e+003;4.887972e-002
2.537969e+003;4.887419e-002
2.539898e+003;4.892043e-002
2.541826e+003;4.879941e-002
2.543755e+003;4.856319e-002
2.545683e+003;4.859117e-002
2.547612e+003;4.866955e-002
2.549541e+003;4.842326e-002
2.551469e+003;4.827382e-002
2.553397e+003;4.847138e-002
2.555326e+003;4.895615e-002
2.557255e+003;4.919888e-002
2.559183e+003;4.935239e-002
2.561112e+003;4.948363e-002
2.563040e+003;4.948151e-002
2.564969e+003;4.944665e-002
2.566897e+003;4.926761e-002
2.568826e+003;4.897402e-002
2.570754e+003;4.886047e-002
2.572683e+003;4.894209e-002
2.574612e+003;4.913216e-002
2.576540e+003;4.938064e-002
2.578469e+003;4.964493e-002
2.580397e+003;4.947784e-002
2.582326e+003;4.905915e-002
2.584254e+003;4.883685e-002
2.586183e+003;4.885083e-002
2.588111e+003;4.907685e-002
2.590040e+003;4.968791e-002
2.591969e+003;4.986720e-002
2.593897e+003;4.958130e-002
2.595826e+003;4.939419e-002
2.597754e+003;4.947123e-002
2.599683e+003;4.954465e-002
2.601611e+003;4.943376e-002
2.603540e+003;4.942051e-002
2.605468e+003;4.957993e-002
2.607397e+003;4.948125e-002
2.609325e+003;4.943566e-002
2.611254e+003;4.966696e-002
2.613183e+003;4.985594e-002
2.615111e+003;4.973977e-002
2.617040e+003;4.998919e-002
2.618968e+003;5.010992e-002
2.620897e+003;4.998403e-002
2.622825e+003;5.015864e-002
2.624754e+003;5.033600e-002
2.626682e+003;5.029745e-002
2.628611e+003;5.019084e-002
2.630540e+003;5.034471e-002
2.632468e+003;5.058371e-002
2.634396e+003;5.060210e-002
2.636325e+003;5.025988e-002
2.638254e+003;5.011438e-002
2.640182e+003;5.030754e-002
2.642111e+003;5.051745e-002
2.644039e+003;5.073816e-002
2.645968e+003;5.102735e-002
2.647896e+003;5.114337e-002
2.649825e+003;5.104930e-002
2.651753e+003;5.093323e-002
2.653682e+003;5.098148e-002
2.655611e+003;5.117394e-002
2.657539e+003;5.140669e-002
2.659468e+003;5.157911e-002
2.661396e+003;5.130525e-002
2.663325e+003;5.110117e-002
2.665253e+003;5.127642e-002
2.667182e+003;5.149438e-002
2.669110e+003;5.161836e-002
2.671039e+003;5.164769e-002
2.672968e+003;5.161045e-002
2.674896e+003;5.156344e-002
2.676825e+003;5.168416e-002
2.678753e+003;5.182387e-002
2.680682e+003;5.182100e-002
2.682610e+003;5.200151e-002
2.684539e+003;5.225282e-002
2.686467e+003;5.242042e-002
2.688396e+003;5.263375e-002
2.690324e+003;5.277120e-002
2.692253e+003;5.263297e-002
2.694182e+003;5.249475e-002
2.696110e+003;5.242771e-002
2.698039e+003;5.248993e-002
2.699967e+003;5.265010e-002
2.701896e+003;5.274358e-002
2.703824e+003;5.283140e-002
2.705753e+003;5.280768e-002
2.707681e+003;5.277396e-002
2.709610e+003;5.303517e-002
2.711539e+003;5.325019e-002
2.713467e+003;5.330300e-002
2.715396e+003;5.341105e-002
2.717324e+003;5.350193e-002
2.719253e+003;5.318951e-002
2.721181e+003;5.335837e-002
2.723110e+003;5.383895e-002
2.725038e+003;5.380531e-002
2.726967e+003;5.367706e-002
2.728896e+003;5.388407e-002
2.730824e+003;5.395602e-002
2.732752e+003;5.381712e-002
2.734681e+003;5.400386e-002
2.736610e+003;5.416741e-002
2.738538e+003;5.400611e-002
2.740467e+003;5.375363e-002
2.742395e+003;5.366409e-002
2.744324e+003;5.384416e-002
2.746252e+003;5.407572e-002
2.748181e+003;5.419834e-002
2.750109e+003;5.378798e-002
2.752038e+003;5.344635e-002
2.753967e+003;5.366233e-002
2.755895e+003;5.404210e-002
2.757824e+003;5.394180e-002
2.759752e+003;5.390073e-002
2.761681e+003;5.409842e-002
2.763609e+003;5.404562e-002
2.765538e+003;5.410608e-002
2.767466e+003;5.447681e-002
2.769395e+003;5.471209e-002
2.771323e+003;5.461119e-002
2.773252e+003;5.451588e-002
2.775181e+003;5.447050e-002
2.777109e+003;5.470420e-002
2.779038e+003;5.521072e-002
2.780966e+003;5.541824e-002
2.782895e+003;5.541135e-002
2.784823e+003;5.548276e-002
2.786752e+003;5.560895e-002
2.788680e+003;5.564179e-002
2.790609e+003;5.559426e-002
2.792538e+003;5.566732e-002
2.794466e+003;5.596370e-002
2.796395e+003;5.626888e-002
2.798323e+003;5.627284e-002
2.800252e+003;5.644849e-002
2.802180e+003;5.666264e-002
2.804109e+003;5.679162e-002
2.806037e+003;5.691331e-002
2.807966e+003;5.687403e-002
2.809895e+003;5.696861e-002
2.811823e+003;5.723321e-002
2.813751e+003;5.759868e-002
2.815680e+003;5.793318e-002
2.817609e+003;5.808678e-002
2.819537e+003;5.846009e-002
2.821466e+003;5.867326e-002
2.823394e+003;5.902184e-002
2.825323e+003;5.976842e-002
2.827251e+003;6.036350e-002
2.829180e+003;6.068981e-002
2.831108e+003;6.095997e-002
2.833037e+003;6.122492e-002
2.834966e+003;6.195680e-002
2.836894e+003;6.275554e-002
2.838823e+003;6.289998e-002
2.840751e+003;6.305844e-002
2.842680e+003;6.402086e-002
2.844608e+003;6.525431e-002
2.846537e+003;6.617828e-002
2.848465e+003;6.679377e-002
2.850394e+003;6.765791e-002
2.852323e+003;6.820498e-002
2.854251e+003;6.836954e-002
2.856180e+003;6.888403e-002
2.858108e+003;6.943160e-002
2.860037e+003;6.932703e-002
2.861965e+003;6.951200e-002
2.863894e+003;7.012165e-002
2.865822e+003;7.046555e-002
2.867751e+003;7.069924e-002
2.869679e+003;7.127717e-002
2.871608e+003;7.160597e-002
2.873536e+003;7.143896e-002
2.875465e+003;7.148279e-002
2.877394e+003;7.168224e-002
2.879322e+003;7.193247e-002
2.881251e+003;7.190315e-002
2.883179e+003;7.196399e-002
2.885108e+003;7.217959e-002
2.887036e+003;7.240783e-002
2.888965e+003;7.272545e-002
2.890893e+003;7.269302e-002
2.892822e+003;7.263145e-002
2.894750e+003;7.290973e-002
2.896679e+003;7.309487e-002
2.898608e+003;7.327365e-002
2.900536e+003;7.316403e-002
2.902465e+003;7.261746e-002
2.904393e+003;7.281490e-002
2.906322e+003;7.320466e-002
2.908250e+003;7.310459e-002
2.910179e+003;7.301736e-002
2.912107e+003;7.304563e-002
2.914036e+003;7.325914e-002
2.915965e+003;7.325283e-002
2.917893e+003;7.313878e-002
2.919822e+003;7.349615e-002
2.921750e+003;7.368463e-002
2.923679e+003;7.328801e-002
2.925607e+003;7.264488e-002
2.927536e+003;7.236352e-002
2.929464e+003;7.207593e-002
2.931393e+003;7.139698e-002
2.933322e+003;7.050557e-002
2.935250e+003;6.983145e-002
2.937178e+003;6.924335e-002
2.939107e+003;6.864996e-002
2.941036e+003;6.787317e-002
2.942964e+003;6.736343e-002
2.944893e+003;6.682476e-002
2.946821e+003;6.615100e-002
2.948750e+003;6.589529e-002
2.950678e+003;6.542823e-002
2.952607e+003;6.452557e-002
2.954535e+003;6.405438e-002
2.956464e+003;6.332590e-002
2.958393e+003;6.258532e-002
2.960321e+003;6.218451e-002
2.962250e+003;6.201738e-002
2.964178e+003;6.173189e-002
2.966107e+003;6.124514e-002
2.968035e+003;6.049930e-002
2.969964e+003;6.000601e-002
2.971892e+003;5.951271e-002
2.973821e+003;5.913151e-002
2.975750e+003;5.898885e-002
2.977678e+003;5.856776e-002
2.979607e+003;5.786257e-002
2.981535e+003;5.770796e-002
2.983464e+003;5.759721e-002
2.985392e+003;5.720097e-002
2.987321e+003;5.692653e-002
2.989249e+003;5.677414e-002
2.991178e+003;5.659884e-002
2.993106e+003;5.636895e-002
2.995035e+003;5.645287e-002
2.996964e+003;5.654823e-002
2.998892e+003;5.651351e-002
3.000821e+003;5.660617e-002
3.002749e+003;5.630912e-002
3.004678e+003;5.586183e-002
3.006606e+003;5.622517e-002
3.008535e+003;5.657325e-002
3.010463e+003;5.624508e-002
3.012392e+003;5.597162e-002
3.014321e+003;5.601240e-002
3.016249e+003;5.591497e-002
3.018177e+003;5.554414e-002
3.020106e+003;5.540883e-002
3.022035e+003;5.555318e-002
3.023963e+003;5.572070e-002
3.025892e+003;5.594549e-002
3.027820e+003;5.658699e-002
3.029749e+003;5.665841e-002
3.031677e+003;5.637416e-002
3.033606e+003;5.625111e-002
3.035534e+003;5.638427e-002
3.037463e+003;5.646026e-002
3.039392e+003;5.635530e-002
3.041320e+003;5.647494e-002
3.043249e+003;5.672335e-002
3.045177e+003;5.682187e-002
3.047106e+003;5.699453e-002
3.049034e+003;5.689121e-002
3.050963e+003;5.710494e-002
3.052891e+003;5.728894e-002
3.054820e+003;5.732043e-002
3.056749e+003;5.749291e-002
3.058677e+003;5.762127e-002
3.060606e+003;5.770501e-002
3.062534e+003;5.796794e-002
3.064463e+003;5.827938e-002
3.066391e+003;5.813723e-002
3.068320e+003;5.833672e-002
3.070248e+003;5.869276e-002
3.072177e+003;5.877184e-002
3.074105e+003;5.898825e-002
3.076034e+003;5.904480e-002
3.077963e+003;5.892767e-002
3.079891e+003;5.922203e-002
3.081820e+003;6.013968e-002
3.083748e+003;6.043825e-002
3.085677e+003;6.020103e-002
3.087605e+003;5.990353e-002
3.089534e+003;5.987124e-002
3.091462e+003;6.029855e-002
3.093391e+003;6.051514e-002
3.095320e+003;6.034523e-002
3.097248e+003;6.041239e-002
3.099177e+003;6.055010e-002
3.101105e+003;6.086184e-002
3.103034e+003;6.140094e-002
3.104962e+003;6.154604e-002
3.106891e+003;6.185130e-002
3.108819e+003;6.237454e-002
3.110748e+003;6.242844e-002
3.112677e+003;6.221502e-002
3.114605e+003;6.271707e-002
3.116533e+003;6.317684e-002
3.118462e+003;6.284441e-002
3.120391e+003;6.261521e-002
3.122319e+003;6.308668e-002
3.124248e+003;6.344783e-002
3.126176e+003;6.355625e-002
3.128105e+003;6.410123e-002
3.130033e+003;6.430790e-002
3.131962e+003;6.443429e-002
3.133890e+003;6.469225e-002
3.135819e+003;6.507318e-002
3.137748e+003;6.529944e-002
3.139676e+003;6.523871e-002
3.141605e+003;6.518458e-002
3.143533e+003;6.568209e-002
3.145462e+003;6.617604e-002
3.147390e+003;6.622027e-002
3.149319e+003;6.654070e-002
3.151247e+003;6.675679e-002
3.153176e+003;6.681402e-002
3.155104e+003;6.667017e-002
3.157033e+003;6.659395e-002
3.158962e+003;6.715542e-002
3.160890e+003;6.803888e-002
3.162819e+003;6.842422e-002
3.164747e+003;6.847826e-002
3.166676e+003;6.871986e-002
3.168604e+003;6.894795e-002
3.170533e+003;6.927165e-002
3.172461e+003;6.934957e-002
3.174390e+003;6.915810e-002
3.176319e+003;6.947246e-002
3.178247e+003;7.013941e-002
3.180176e+003;7.033549e-002
3.182104e+003;6.999414e-002
3.184033e+003;7.024336e-002
3.185961e+003;7.131594e-002
3.187890e+003;7.150967e-002
3.189818e+003;7.117118e-002
3.191747e+003;7.146408e-002
3.193676e+003;7.196098e-002
3.195604e+003;7.208042e-002
3.197532e+003;7.233541e-002
3.199461e+003;7.279182e-002
3.201390e+003;7.314408e-002
3.203318e+003;7.351019e-002
3.205247e+003;7.375712e-002
3.207175e+003;7.401133e-002
3.209104e+003;7.452299e-002
3.211032e+003;7.502715e-002
3.212961e+003;7.522143e-002
3.214889e+003;7.528081e-002
3.216818e+003;7.511970e-002
3.218747e+003;7.574999e-002
3.220675e+003;7.650405e-002
3.222604e+003;7.674845e-002
3.224532e+003;7.679816e-002
3.226461e+003;7.731371e-002
3.228389e+003;7.798766e-002
3.230318e+003;7.807150e-002
3.232246e+003;7.838356e-002
3.234175e+003;7.862132e-002
3.236104e+003;7.887168e-002
3.238032e+003;7.926569e-002
3.239961e+003;7.964541e-002
3.241889e+003;8.002140e-002
3.243818e+003;8.029473e-002
3.245746e+003;8.035449e-002
3.247675e+003;8.013830e-002
3.249603e+003;8.037423e-002
3.251532e+003;8.131227e-002
3.253460e+003;8.229303e-002
3.255389e+003;8.239840e-002
3.257318e+003;8.240273e-002
3.259246e+003;8.269436e-002
3.261175e+003;8.340715e-002
3.263103e+003;8.398870e-002
3.265032e+003;8.388556e-002
3.266960e+003;8.371340e-002
3.268889e+003;8.383363e-002
3.270817e+003;8.456504e-002
3.272746e+003;8.533132e-002
3.274675e+003;8.560923e-002
3.276603e+003;8.589575e-002
3.278531e+003;8.600952e-002
3.280460e+003;8.629611e-002
3.282389e+003;8.652300e-002
3.284317e+003;8.671710e-002
3.286246e+003;8.690563e-002
3.288174e+003;8.687682e-002
3.290103e+003;8.710141e-002
3.292031e+003;8.772269e-002
3.293960e+003;8.786261e-002
3.295888e+003;8.745310e-002
3.297817e+003;8.739880e-002
3.299746e+003;8.748946e-002
3.301674e+003;8.819227e-002
3.303603e+003;8.895376e-002
3.305531e+003;8.857642e-002
3.307460e+003;8.799880e-002
3.309388e+003;8.798838e-002
3.311317e+003;8.863108e-002
3.313245e+003;8.871236e-002
3.315174e+003;8.833458e-002
3.317103e+003;8.857293e-002
3.319031e+003;8.933643e-002
3.320960e+003;8.998390e-002
3.322888e+003;8.979273e-002
3.324817e+003;8.946946e-002
3.326745e+003;8.931445e-002
3.328674e+003;8.938894e-002
3.330602e+003;8.993952e-002
3.332531e+003;8.978271e-002
3.334459e+003;8.933749e-002
3.336388e+003;8.950888e-002
3.338317e+003;8.961581e-002
3.340245e+003;8.953897e-002
3.342174e+003;8.992521e-002
3.344102e+003;9.015033e-002
3.346031e+003;8.984562e-002
3.347959e+003;8.958152e-002
3.349888e+003;8.945847e-002
3.351816e+003;8.932658e-002
3.353745e+003;8.915474e-002
3.355674e+003;8.891484e-002
3.357602e+003;8.856249e-002
3.359531e+003;8.832276e-002
3.361459e+003;8.856232e-002
3.363388e+003;8.882902e-002
3.365316e+003;8.871284e-002
3.367245e+003;8.830762e-002
3.369173e+003;8.795157e-002
3.371102e+003;8.783247e-002
3.373031e+003;8.782103e-002
3.374959e+003;8.759193e-002
3.376887e+003;8.714296e-002
3.378816e+003;8.726531e-002
3.380745e+003;8.742859e-002
3.382673e+003;8.682473e-002
3.384602e+003;8.647499e-002
3.386530e+003;8.656056e-002
3.388459e+003;8.693720e-002
3.390387e+003;8.678512e-002
3.392316e+003;8.611076e-002
3.394244e+003;8.577613e-002
3.396173e+003;8.536237e-002
3.398102e+003;8.460321e-002
3.400030e+003;8.420260e-002
3.401959e+003;8.433383e-002
3.403887e+003;8.430860e-002
3.405816e+003;8.402634e-002
3.407744e+003;8.378059e-002
3.409673e+003;8.357557e-002
3.411601e+003;8.340944e-002
3.413530e+003;8.308695e-002
3.415458e+003;8.284422e-002
3.417387e+003;8.263981e-002
3.419316e+003;8.205798e-002
3.421244e+003;8.161380e-002
3.423173e+003;8.102819e-002
3.425101e+003;8.036860e-002
3.427030e+003;8.039815e-002
3.428958e+003;8.049226e-002
3.430887e+003;8.001036e-002
3.432815e+003;7.954297e-002
3.434744e+003;7.932758e-002
3.436673e+003;7.912788e-002
3.438601e+003;7.818517e-002
3.440530e+003;7.746972e-002
3.442458e+003;7.750814e-002
3.444387e+003;7.721926e-002
3.446315e+003;7.630320e-002
3.448244e+003;7.557195e-002
3.450172e+003;7.517643e-002
3.452101e+003;7.477116e-002
3.454030e+003;7.472420e-002
3.455958e+003;7.468957e-002
3.457886e+003;7.417104e-002
3.459815e+003;7.356805e-002
3.461744e+003;7.269890e-002
3.463672e+003;7.197357e-002
3.465601e+003;7.234731e-002
3.467529e+003;7.231256e-002
3.469458e+003;7.118360e-002
3.471386e+003;7.103700e-002
3.473315e+003;7.067281e-002
3.475243e+003;7.001209e-002
3.477172e+003;7.017594e-002
3.479101e+003;6.995833e-002
3.481029e+003;6.891926e-002
3.482958e+003;6.808501e-002
3.484886e+003;6.783675e-002
3.486815e+003;6.744818e-002
3.488743e+003;6.690829e-002
3.490672e+003;6.658530e-002
3.492600e+003;6.659523e-002
3.494529e+003;6.620502e-002
3.496458e+003;6.554898e-002
3.498386e+003;6.518165e-002
3.500315e+003;6.482457e-002
3.502243e+003;6.430352e-002
3.504172e+003;6.410957e-002
3.506100e+003;6.433906e-002
3.508029e+003;6.352061e-002
3.509957e+003;6.255884e-002
3.511886e+003;6.234834e-002
3.513814e+003;6.190040e-002
3.515743e+003;6.143262e-002
3.517672e+003;6.108314e-002
3.519600e+003;6.038600e-002
3.521529e+003;5.953316e-002
3.523457e+003;5.952556e-002
3.525386e+003;5.915562e-002
3.527314e+003;5.832902e-002
3.529243e+003;5.845160e-002
3.531171e+003;5.830723e-002
3.533100e+003;5.729540e-002
3.535029e+003;5.653189e-002
3.536957e+003;5.620446e-002
3.538885e+003;5.621536e-002
3.540814e+003;5.596864e-002
3.542743e+003;5.554339e-002
3.544671e+003;5.508259e-002
3.546600e+003;5.461228e-002
3.548528e+003;5.389292e-002
3.550457e+003;5.347221e-002
3.552385e+003;5.331716e-002
3.554314e+003;5.291216e-002
3.556242e+003;5.259505e-002
3.558171e+003;5.218474e-002
3.560100e+003;5.167132e-002
3.562028e+003;5.125580e-002
3.563957e+003;5.115470e-002
3.565885e+003;5.061211e-002
3.567814e+003;4.987731e-002
3.569742e+003;4.992291e-002
3.571671e+003;5.036989e-002
3.573599e+003;5.056011e-002
3.575528e+003;4.991250e-002
3.577457e+003;4.911806e-002
3.579385e+003;4.885105e-002
3.581314e+003;4.840226e-002
3.583242e+003;4.783983e-002
3.585171e+003;4.732852e-002
3.587099e+003;4.684317e-002
3.589028e+003;4.649162e-002
3.590956e+003;4.641128e-002
3.592885e+003;4.651988e-002
3.594813e+003;4.635022e-002
3.596742e+003;4.586055e-002
3.598671e+003;4.508495e-002
3.600599e+003;4.493978e-002
3.602528e+003;4.547425e-002
3.604456e+003;4.548779e-002
3.606385e+003;4.501772e-002
3.608313e+003;4.462876e-002
3.610242e+003;4.436581e-002
3.612170e+003;4.390990e-002
3.614099e+003;4.369102e-002
3.616028e+003;4.396566e-002
3.617956e+003;4.377003e-002
3.619885e+003;4.323373e-002
3.621813e+003;4.292323e-002
3.623742e+003;4.247519e-002
3.625670e+003;4.262359e-002
3.627599e+003;4.236200e-002
3.629527e+003;4.167559e-002
3.631456e+003;4.164729e-002
3.633385e+003;4.156462e-002
3.635313e+003;4.158752e-002
3.637241e+003;4.155022e-002
3.639170e+003;4.105121e-002
3.641099e+003;4.078685e-002
3.643027e+003;4.077448e-002
3.644956e+003;4.037075e-002
3.646884e+003;3.938352e-002
3.648813e+003;3.916819e-002
3.650741e+003;3.968180e-002
3.652670e+003;3.974650e-002
3.654598e+003;3.936168e-002
3.656527e+003;3.920365e-002
3.658456e+003;3.898514e-002
3.660384e+003;3.905307e-002
3.662313e+003;3.897615e-002
3.664241e+003;3.902418e-002
3.666170e+003;3.863171e-002
3.668098e+003;3.770689e-002
3.670027e+003;3.718391e-002
3.671955e+003;3.771929e-002
3.673884e+003;3.787117e-002
3.675813e+003;3.738378e-002
3.677741e+003;3.723379e-002
3.679669e+003;3.687641e-002
3.681598e+003;3.677589e-002
3.683527e+003;3.663494e-002
3.685455e+003;3.645851e-002
3.687384e+003;3.632077e-002
3.689312e+003;3.634462e-002
3.691241e+003;3.618995e-002
3.693169e+003;3.617580e-002
3.695098e+003;3.631432e-002
3.697026e+003;3.618160e-002
3.698955e+003;3.606742e-002
3.700884e+003;3.614314e-002
3.702812e+003;3.684167e-002
3.704741e+003;3.682220e-002
3.706669e+003;3.594448e-002
3.708598e+003;3.520754e-002
3.710526e+003;3.462784e-002
3.712455e+003;3.474796e-002
3.714383e+003;3.555633e-002
3.716312e+003;3.579924e-002
3.718240e+003;3.558035e-002
3.720169e+003;3.536977e-002
3.722098e+003;3.527919e-002
3.724026e+003;3.527549e-002
3.725955e+003;3.537757e-002
3.727883e+003;3.565070e-002
3.729812e+003;3.514232e-002
3.731740e+003;3.372478e-002
3.733669e+003;3.366359e-002
3.735597e+003;3.470797e-002
3.737526e+003;3.526550e-002
3.739455e+003;3.507252e-002
3.741383e+003;3.468608e-002
3.743312e+003;3.369424e-002
3.745240e+003;3.364612e-002
3.747169e+003;3.424157e-002
3.749097e+003;3.390262e-002
3.751026e+003;3.365263e-002
3.752954e+003;3.404167e-002
3.754883e+003;3.492567e-002
3.756812e+003;3.487590e-002
3.758740e+003;3.427825e-002
3.760668e+003;3.446165e-002
3.762597e+003;3.486229e-002
3.764526e+003;3.481013e-002
3.766454e+003;3.483627e-002
3.768383e+003;3.459210e-002
3.770311e+003;3.464093e-002
3.772240e+003;3.469889e-002
3.774168e+003;3.489580e-002
3.776097e+003;3.538443e-002
3.778025e+003;3.517035e-002
3.779954e+003;3.475130e-002
3.781883e+003;3.492183e-002
3.783811e+003;3.512034e-002
3.785740e+003;3.512217e-002
3.787668e+003;3.484000e-002
3.789597e+003;3.461844e-002
3.791525e+003;3.491616e-002
3.793454e+003;3.524189e-002
3.795382e+003;3.490387e-002
3.797311e+003;3.453283e-002
3.799240e+003;3.455697e-002
3.801168e+003;3.469232e-002
3.803097e+003;3.492696e-002
3.805025e+003;3.455238e-002
3.806954e+003;3.417023e-002
3.808882e+003;3.475779e-002
3.810811e+003;3.541042e-002
3.812739e+003;3.507634e-002
3.814668e+003;3.434796e-002
3.816596e+003;3.439835e-002
3.818525e+003;3.486413e-002
3.820454e+003;3.467316e-002
3.822382e+003;3.450534e-002
3.824311e+003;3.491899e-002
3.826239e+003;3.524415e-002
3.828168e+003;3.521498e-002
3.830096e+003;3.499875e-002
3.832025e+003;3.513834e-002
3.833953e+003;3.554849e-002
3.835882e+003;3.536926e-002
3.837811e+003;3.527793e-002
3.839739e+003;3.607678e-002
3.841667e+003;3.664562e-002
3.843596e+003;3.613338e-002
3.845525e+003;3.623843e-002
3.847453e+003;3.646724e-002
3.849382e+003;3.556693e-002
3.851310e+003;3.446535e-002
3.853239e+003;3.425115e-002
3.855167e+003;3.534522e-002
3.857096e+003;3.593329e-002
3.859024e+003;3.595121e-002
3.860953e+003;3.610320e-002
3.862882e+003;3.593869e-002
3.864810e+003;3.581248e-002
3.866739e+003;3.600542e-002
3.868667e+003;3.563847e-002
3.870596e+003;3.533864e-002
3.872524e+003;3.550055e-002
3.874453e+003;3.583176e-002
3.876381e+003;3.629336e-002
3.878310e+003;3.608657e-002
3.880239e+003;3.611285e-002
3.882167e+003;3.623793e-002
3.884096e+003;3.613176e-002
3.886024e+003;3.626303e-002
3.887953e+003;3.595996e-002
3.889881e+003;3.568336e-002
3.891810e+003;3.629480e-002
3.893738e+003;3.670741e-002
3.895667e+003;3.676951e-002
3.897595e+003;3.703478e-002
3.899524e+003;3.683623e-002
3.901453e+003;3.653059e-002
3.903381e+003;3.638731e-002
3.905310e+003;3.668477e-002
3.907238e+003;3.701342e-002
3.909167e+003;3.738544e-002
3.911095e+003;3.797408e-002
3.913024e+003;3.808287e-002
3.914952e+003;3.768799e-002
3.916881e+003;3.726910e-002
3.918810e+003;3.736879e-002
3.920738e+003;3.759592e-002
3.922667e+003;3.761062e-002
3.924595e+003;3.756680e-002
3.926524e+003;3.774766e-002
3.928452e+003;3.787483e-002
3.930381e+003;3.803642e-002
3.932309e+003;3.822345e-002
3.934238e+003;3.800182e-002
3.936167e+003;3.794801e-002
3.938095e+003;3.783647e-002
3.940023e+003;3.709783e-002
3.941952e+003;3.678757e-002
3.943881e+003;3.722462e-002
3.945809e+003;3.729022e-002
3.947738e+003;3.725386e-002
3.949666e+003;3.763823e-002
3.951595e+003;3.785039e-002
3.953523e+003;3.848031e-002
3.955452e+003;3.873863e-002
3.957380e+003;3.865347e-002
3.959309e+003;3.871106e-002
3.961238e+003;3.800301e-002
3.963166e+003;3.739819e-002
3.965095e+003;3.756518e-002
3.967023e+003;3.818365e-002
3.968952e+003;3.843792e-002
3.970880e+003;3.840197e-002
3.972809e+003;3.806381e-002
3.974737e+003;3.780321e-002
3.976666e+003;3.837320e-002
3.978594e+003;3.858941e-002
3.980523e+003;3.850384e-002
3.982452e+003;3.888801e-002
3.984380e+003;3.895999e-002
3.986309e+003;3.904346e-002
3.988237e+003;3.926476e-002
3.990166e+003;3.897753e-002
3.992094e+003;3.874450e-002
3.994023e+003;3.852217e-002
3.995951e+003;3.853067e-002
3.997880e+003;3.870505e-002
3.999809e+003;3.891255e-002
4.001737e+003;0.000000e+000
