3.992094e+002;0.000000e+000
4.011380e+002;0.000000e+000
4.030665e+002;0.000000e+000
4.049951e+002;0.000000e+000
4.069236e+002;0.000000e+000
4.088522e+002;0.000000e+000
4.107807e+002;0.000000e+000
4.127093e+002;0.000000e+000
4.146378e+002;0.000000e+000
4.165664e+002;0.000000e+000
4.184949e+002;0.000000e+000
4.204235e+002;0.000000e+000
4.223520e+002;0.000000e+000
4.242806e+002;0.000000e+000
4.262091e+002;0.000000e+000
4.281377e+002;0.000000e+000
4.300662e+002;0.000000e+000
4.319948e+002;0.000000e+000
4.339233e+002;0.000000e+000
4.358519e+002;0.000000e+000
4.377804e+002;0.000000e+000
4.397090e+002;0.000000e+000
4.416375e+002;0.000000e+000
4.435660e+002;0.000000e+000
4.454946e+002;0.000000e+000
4.474232e+002;0.000000e+000
4.493517e+002;0.000000e+000
4.512802e+002;0.000000e+000
4.532088e+002;0.000000e+000
4.551373e+002;0.000000e+000
4.570659e+002;0.000000e+000
4.589944e+002;0.000000e+000
4.609230e+002;0.000000e+000
4.628515e+002;0.000000e+000
4.647801e+002;0.000000e+000
4.667086e+002;0.000000e+000
4.686372e+002;0.000000e+000
4.705657e+002;0.000000e+000
4.724943e+002;0.000000e+000
4.744228e+002;0.000000e+000
4.763513e+002;0.000000e+000
4.782799e+002;0.000000e+000
4.802085e+002;0.000000e+000
4.821370e+002;0.000000e+000
4.840656e+002;0.000000e+000
4.859941e+002;0.000000e+000
4.879226e+002;0.000000e+000
4.898512e+002;0.000000e+000
4.917798e+002;0.000000e+000
4.937083e+002;0.000000e+000
4.956368e+002;0.000000e+000
4.975654e+002;0.000000e+000
4.994939e+002;0.000000e+000
5.014225e+002;0.000000e+000
5.033510e+002;0.000000e+000
5.052796e+002;0.000000e+000
5.072081e+002;0.000000e+000
5.091367e+002;0.000000e+000
5.110652e+002;0.000000e+000
5.129938e+002;0.000000e+000
5.149223e+002;0.000000e+000
5.168509e+002;0.000000e+000
5.187794e+002;0.000000e+000
5.207079e+002;0.000000e+000
5.226365e+002;0.000000e+000
5.245651e+002;0.000000e+000
5.264936e+002;0.000000e+000
5.284222e+002;0.000000e+000
5.303507e+002;0.000000e+000
5.322792e+002;0.000000e+000
5.342078e+002;0.000000e+000
5.361364e+002;0.000000e+000
5.380649e+002;0.000000e+000
5.399935e+002;0.000000e+000
5.419220e+002;0.000000e+000
5.438505e+002;0.000000e+000
5.457791e+002;0.000000e+000
5.477076e+002;0.000000e+000
5.496362e+002;0.000000e+000
5.515648e+002;0.000000e+000
5.534933e+002;0.000000e+000
5.554218e+002;0.000000e+000
5.573504e+002;0.000000e+000
5.592789e+002;0.000000e+000
5.612075e+002;0.000000e+000
5.631360e+002;0.000000e+000
5.650646e+002;0.000000e+000
5.669931e+002;0.000000e+000
5.689217e+002;0.000000e+000
5.708502e+002;0.000000e+000
5.727787e+002;0.000000e+000
5.747073e+002;0.000000e+000
5.766359e+002;0.000000e+000
5.785644e+002;0.000000e+000
5.804930e+002;0.000000e+000
5.824215e+002;0.000000e+000
5.843500e+002;0.000000e+000
5.862786e+002;0.000000e+000
5.882072e+002;0.000000e+000
5.901357e+002;0.000000e+000
5.920643e+002;0.000000e+000
5.939928e+002;0.000000e+000
5.959213e+002;0.000000e+000
5.978499e+002;0.000000e+000
5.997784e+002;1.596896e-001
6.017070e+002;1.647732e-001
6.036355e+002;1.595217e-001
6.055641e+002;1.564202e-001
6.074926e+002;1.580614e-001
6.094211e+002;1.533980e-001
6.113497e+002;1.522325e-001
6.132783e+002;1.529614e-001
6.152068e+002;1.522425e-001
6.171354e+002;1.496846e-001
6.190639e+002;1.451959e-001
6.209924e+002;1.445037e-001
6.229210e+002;1.443322e-001
6.248495e+002;1.357323e-001
6.267781e+002;1.346114e-001
6.287067e+002;1.366913e-001
6.306352e+002;1.376956e-001
6.325637e+002;1.339270e-001
6.344923e+002;1.268649e-001
6.364208e+002;1.313890e-001
6.383494e+002;1.385313e-001
6.402780e+002;1.345673e-001
6.422065e+002;1.307351e-001
6.441350e+002;1.362326e-001
6.460636e+002;1.361277e-001
6.479921e+002;1.278609e-001
6.499207e+002;1.293582e-001
6.518492e+002;1.339069e-001
6.537778e+002;1.328395e-001
6.557063e+002;1.277752e-001
6.576349e+002;1.287218e-001
6.595634e+002;1.337238e-001
6.614919e+002;1.351579e-001
6.634205e+002;1.351212e-001
6.653491e+002;1.353063e-001
6.672776e+002;1.295576e-001
6.692062e+002;1.258497e-001
6.711347e+002;1.237674e-001
6.730632e+002;1.236910e-001
6.749918e+002;1.225697e-001
6.769203e+002;1.188591e-001
6.788489e+002;1.144359e-001
6.807775e+002;1.103468e-001
6.827060e+002;1.080260e-001
6.846345e+002;1.079803e-001
6.865631e+002;1.087133e-001
6.884916e+002;1.071235e-001
6.904202e+002;1.050236e-001
6.923488e+002;1.046702e-001
6.942773e+002;1.043752e-001
6.962058e+002;1.037047e-001
6.981344e+002;1.031507e-001
7.000629e+002;1.029195e-001
7.019915e+002;1.020906e-001
7.039200e+002;1.015593e-001
7.058486e+002;1.013471e-001
7.077771e+002;9.968439e-002
7.097057e+002;9.879591e-002
7.116342e+002;9.782149e-002
7.135627e+002;9.584531e-002
7.154913e+002;9.491645e-002
7.174199e+002;9.423845e-002
7.193484e+002;9.328397e-002
7.212770e+002;9.197640e-002
7.232055e+002;9.046619e-002
7.251340e+002;8.865156e-002
7.270626e+002;8.773996e-002
7.289911e+002;8.706237e-002
7.309197e+002;8.590605e-002
7.328483e+002;8.549537e-002
7.347768e+002;8.611625e-002
7.367053e+002;8.518472e-002
7.386339e+002;8.378649e-002
7.405624e+002;8.232058e-002
7.424910e+002;8.122669e-002
7.444196e+002;8.157430e-002
7.463481e+002;8.205433e-002
7.482766e+002;8.066110e-002
7.502052e+002;7.912386e-002
7.521337e+002;7.879438e-002
7.540623e+002;7.823913e-002
7.559908e+002;7.782540e-002
7.579194e+002;7.729372e-002
7.598479e+002;7.680045e-002
7.617765e+002;7.666159e-002
7.637050e+002;7.572903e-002
7.656335e+002;7.523009e-002
7.675621e+002;7.601634e-002
7.694907e+002;7.620616e-002
7.714192e+002;7.586116e-002
7.733478e+002;7.528380e-002
7.752763e+002;7.454168e-002
7.772048e+002;7.511593e-002
7.791334e+002;7.575693e-002
7.810620e+002;7.561707e-002
7.829905e+002;7.560555e-002
7.849191e+002;7.492280e-002
7.868476e+002;7.408096e-002
7.887761e+002;7.291964e-002
7.907047e+002;7.118843e-002
7.926332e+002;7.043020e-002
7.945618e+002;7.066864e-002
7.964903e+002;7.003175e-002
7.984189e+002;6.951173e-002
8.003474e+002;6.984877e-002
8.022759e+002;6.955859e-002
8.042045e+002;6.883484e-002
8.061331e+002;6.848901e-002
8.080616e+002;6.807446e-002
8.099902e+002;6.856237e-002
8.119187e+002;6.902256e-002
8.138472e+002;6.916338e-002
8.157758e+002;6.951675e-002
8.177043e+002;6.953476e-002
8.196329e+002;6.985775e-002
8.215615e+002;7.041804e-002
8.234900e+002;7.069671e-002
8.254185e+002;7.145275e-002
8.273471e+002;7.309362e-002
8.292756e+002;7.413720e-002
8.312042e+002;7.387556e-002
8.331328e+002;7.349787e-002
8.350613e+002;7.247544e-002
8.369898e+002;7.164633e-002
8.389184e+002;7.183570e-002
8.408469e+002;7.205187e-002
8.427755e+002;7.278618e-002
8.447040e+002;7.334080e-002
8.466326e+002;7.274058e-002
8.485611e+002;7.236790e-002
8.504897e+002;7.275026e-002
8.524182e+002;7.314337e-002
8.543467e+002;7.300509e-002
8.562753e+002;7.328385e-002
8.582039e+002;7.429431e-002
8.601324e+002;7.510864e-002
8.620610e+002;7.629707e-002
8.639895e+002;7.753032e-002
8.659180e+002;7.871306e-002
8.678466e+002;8.023749e-002
8.697751e+002;8.239604e-002
8.717037e+002;8.349051e-002
8.736323e+002;8.399096e-002
8.755608e+002;8.535665e-002
8.774893e+002;8.659482e-002
8.794179e+002;8.836187e-002
8.813464e+002;9.061716e-002
8.832750e+002;9.267926e-002
8.852036e+002;9.552816e-002
8.871321e+002;9.883002e-002
8.890606e+002;1.015280e-001
8.909892e+002;1.034780e-001
8.929177e+002;1.051339e-001
8.948463e+002;1.062780e-001
8.967748e+002;1.072391e-001
8.987034e+002;1.073141e-001
9.006319e+002;1.066054e-001
9.025605e+002;1.053842e-001
9.044890e+002;1.037039e-001
9.064175e+002;1.020448e-001
9.083461e+002;1.008829e-001
9.102747e+002;1.006003e-001
9.122032e+002;1.003100e-001
9.141318e+002;9.980717e-002
9.160603e+002;9.999629e-002
9.179888e+002;1.007867e-001
9.199174e+002;1.010610e-001
9.218459e+002;1.010814e-001
9.237745e+002;1.017544e-001
9.257031e+002;1.029022e-001
9.276316e+002;1.036434e-001
9.295601e+002;1.042447e-001
9.314887e+002;1.052686e-001
9.334172e+002;1.068674e-001
9.353458e+002;1.087885e-001
9.372744e+002;1.103249e-001
9.392029e+002;1.117589e-001
9.411314e+002;1.135012e-001
9.430600e+002;1.160258e-001
9.449885e+002;1.186029e-001
9.469171e+002;1.211014e-001
9.488456e+002;1.240230e-001
9.507742e+002;1.279930e-001
9.527027e+002;1.322069e-001
9.546313e+002;1.361836e-001
9.565598e+002;1.407816e-001
9.584883e+002;1.456483e-001
9.604169e+002;1.504885e-001
9.623455e+002;1.552373e-001
9.642740e+002;1.601270e-001
9.662026e+002;1.657064e-001
9.681311e+002;1.714968e-001
9.700596e+002;1.772114e-001
9.719882e+002;1.837990e-001
9.739167e+002;1.907133e-001
9.758453e+002;1.978405e-001
9.777739e+002;2.053928e-001
9.797024e+002;2.129516e-001
9.816309e+002;2.200598e-001
9.835595e+002;2.269450e-001
9.854880e+002;2.324112e-001
9.874166e+002;2.359153e-001
9.893452e+002;2.378754e-001
9.912737e+002;2.391729e-001
9.932022e+002;2.405452e-001
9.951307e+002;2.420631e-001
9.970593e+002;2.442264e-001
9.989879e+002;2.473899e-001
1.000916e+003;2.511311e-001
1.002845e+003;2.547833e-001
1.004773e+003;2.583529e-001
1.006702e+003;2.613044e-001
1.008631e+003;2.640184e-001
1.010559e+003;2.663669e-001
1.012488e+003;2.689249e-001
1.014416e+003;2.715028e-001
1.016345e+003;2.742343e-001
1.018273e+003;2.772637e-001
1.020202e+003;2.789719e-001
1.022130e+003;2.799824e-001
1.024059e+003;2.818502e-001
1.025988e+003;2.830347e-001
1.027916e+003;2.835274e-001
1.029845e+003;2.841520e-001
1.031773e+003;2.831424e-001
1.033702e+003;2.809439e-001
1.035630e+003;2.791483e-001
1.037559e+003;2.759229e-001
1.039487e+003;2.719369e-001
1.041416e+003;2.686346e-001
1.043344e+003;2.653245e-001
1.045273e+003;2.626859e-001
1.047202e+003;2.604728e-001
1.049130e+003;2.571017e-001
1.051059e+003;2.526669e-001
1.052987e+003;2.482263e-001
1.054916e+003;2.438397e-001
1.056844e+003;2.386998e-001
1.058773e+003;2.312964e-001
1.060701e+003;2.227913e-001
1.062630e+003;2.152215e-001
1.064558e+003;2.078143e-001
1.066487e+003;1.996224e-001
1.068416e+003;1.928807e-001
1.070344e+003;1.881017e-001
1.072273e+003;1.842870e-001
1.074201e+003;1.803652e-001
1.076130e+003;1.767138e-001
1.078058e+003;1.736452e-001
1.079987e+003;1.706403e-001
1.081915e+003;1.687997e-001
1.083844e+003;1.669845e-001
1.085773e+003;1.644741e-001
1.087701e+003;1.626216e-001
1.089630e+003;1.618061e-001
1.091558e+003;1.611903e-001
1.093487e+003;1.608406e-001
1.095415e+003;1.599287e-001
1.097344e+003;1.590234e-001
1.099272e+003;1.595603e-001
1.101201e+003;1.587544e-001
1.103129e+003;1.567707e-001
1.105058e+003;1.546723e-001
1.106987e+003;1.519559e-001
1.108915e+003;1.478984e-001
1.110844e+003;1.430608e-001
1.112772e+003;1.381595e-001
1.114701e+003;1.332766e-001
1.116629e+003;1.292816e-001
1.118558e+003;1.259850e-001
1.120486e+003;1.229438e-001
1.122415e+003;1.202157e-001
1.124344e+003;1.167981e-001
1.126272e+003;1.132046e-001
1.128201e+003;1.100843e-001
1.130129e+003;1.052536e-001
1.132058e+003;1.004383e-001
1.133986e+003;9.754118e-002
1.135915e+003;9.518245e-002
1.137843e+003;9.249128e-002
1.139772e+003;9.049075e-002
1.141700e+003;8.990516e-002
1.143629e+003;8.986730e-002
1.145557e+003;8.952696e-002
1.147486e+003;8.913916e-002
1.149415e+003;8.953636e-002
1.151343e+003;8.973736e-002
1.153272e+003;8.871504e-002
1.155200e+003;8.707841e-002
1.157129e+003;8.662277e-002
1.159057e+003;8.621379e-002
1.160986e+003;8.476368e-002
1.162914e+003;8.260057e-002
1.164843e+003;8.001734e-002
1.166771e+003;7.770678e-002
1.168700e+003;7.557447e-002
1.170629e+003;7.345698e-002
1.172557e+003;7.091554e-002
1.174486e+003;6.823192e-002
1.176414e+003;6.667233e-002
1.178343e+003;6.570155e-002
1.180271e+003;6.504384e-002
1.182200e+003;6.484718e-002
1.184128e+003;6.491828e-002
1.186057e+003;6.514631e-002
1.187986e+003;6.599888e-002
1.189914e+003;6.733948e-002
1.191843e+003;6.855434e-002
1.193771e+003;7.005239e-002
1.195700e+003;7.194745e-002
1.197628e+003;7.377604e-002
1.199557e+003;7.527746e-002
1.201485e+003;7.622571e-002
1.203414e+003;7.715023e-002
1.205343e+003;7.801931e-002
1.207271e+003;7.861934e-002
1.209200e+003;7.964374e-002
1.211128e+003;8.100643e-002
1.213057e+003;8.237569e-002
1.214985e+003;8.433101e-002
1.216914e+003;8.709525e-002
1.218842e+003;9.020028e-002
1.220771e+003;9.280979e-002
1.222699e+003;9.485679e-002
1.224628e+003;9.684806e-002
1.226557e+003;9.882465e-002
1.228485e+003;1.005763e-001
1.230414e+003;1.022319e-001
1.232342e+003;1.033294e-001
1.234271e+003;1.037875e-001
1.236199e+003;1.036499e-001
1.238128e+003;1.035086e-001
1.240056e+003;1.035336e-001
1.241985e+003;1.029825e-001
1.243913e+003;1.020933e-001
1.245842e+003;1.007834e-001
1.247771e+003;9.928542e-002
1.249699e+003;9.765671e-002
1.251628e+003;9.614318e-002
1.253556e+003;9.494849e-002
1.255485e+003;9.341834e-002
1.257413e+003;9.160797e-002
1.259342e+003;9.015465e-002
1.261270e+003;8.862108e-002
1.263199e+003;8.667471e-002
1.265127e+003;8.476146e-002
1.267056e+003;8.325304e-002
1.268985e+003;8.155971e-002
1.270913e+003;7.960923e-002
1.272842e+003;7.764691e-002
1.274770e+003;7.585706e-002
1.276699e+003;7.447540e-002
1.278627e+003;7.287289e-002
1.280556e+003;7.125836e-002
1.282484e+003;6.967746e-002
1.284413e+003;6.858367e-002
1.286342e+003;6.803307e-002
1.288270e+003;6.771847e-002
1.290199e+003;6.720021e-002
1.292127e+003;6.678244e-002
1.294056e+003;6.690848e-002
1.295984e+003;6.743436e-002
1.297913e+003;6.805187e-002
1.299841e+003;6.897148e-002
1.301770e+003;6.996818e-002
1.303698e+003;7.130653e-002
1.305627e+003;7.328259e-002
1.307556e+003;7.507205e-002
1.309484e+003;7.676328e-002
1.311413e+003;7.863880e-002
1.313341e+003;8.014411e-002
1.315270e+003;8.152185e-002
1.317198e+003;8.216221e-002
1.319127e+003;8.196261e-002
1.321055e+003;8.141764e-002
1.322984e+003;8.044416e-002
1.324912e+003;7.956386e-002
1.326841e+003;7.842480e-002
1.328770e+003;7.730176e-002
1.330698e+003;7.673976e-002
1.332627e+003;7.593179e-002
1.334555e+003;7.469685e-002
1.336484e+003;7.329307e-002
1.338412e+003;7.173751e-002
1.340341e+003;7.023186e-002
1.342269e+003;6.904711e-002
1.344198e+003;6.808361e-002
1.346126e+003;6.683311e-002
1.348055e+003;6.569566e-002
1.349984e+003;6.537940e-002
1.351912e+003;6.578232e-002
1.353841e+003;6.643238e-002
1.355769e+003;6.687106e-002
1.357698e+003;6.754769e-002
1.359626e+003;6.860688e-002
1.361555e+003;6.913133e-002
1.363483e+003;6.934810e-002
1.365412e+003;6.960841e-002
1.367341e+003;6.930561e-002
1.369269e+003;6.877653e-002
1.371198e+003;6.831924e-002
1.373126e+003;6.742364e-002
1.375055e+003;6.604872e-002
1.376983e+003;6.421923e-002
1.378912e+003;6.218046e-002
1.380840e+003;6.016837e-002
1.382769e+003;5.806560e-002
1.384698e+003;5.580596e-002
1.386626e+003;5.380568e-002
1.388555e+003;5.234790e-002
1.390483e+003;5.129973e-002
1.392412e+003;5.045195e-002
1.394340e+003;4.968185e-002
1.396269e+003;4.936033e-002
1.398197e+003;4.899720e-002
1.400126e+003;4.907885e-002
1.402054e+003;4.948501e-002
1.403983e+003;4.955167e-002
1.405911e+003;4.998778e-002
1.407840e+003;5.049825e-002
1.409769e+003;5.117606e-002
1.411697e+003;5.233347e-002
1.413626e+003;5.354413e-002
1.415554e+003;5.453474e-002
1.417483e+003;5.517957e-002
1.419411e+003;5.578723e-002
1.421340e+003;5.640680e-002
1.423268e+003;5.641136e-002
1.425197e+003;5.582385e-002
1.427125e+003;5.458602e-002
1.429054e+003;5.321824e-002
1.430983e+003;5.224127e-002
1.432911e+003;5.117207e-002
1.434840e+003;4.963271e-002
1.436768e+003;4.825464e-002
1.438697e+003;4.788164e-002
1.440625e+003;4.826205e-002
1.442554e+003;4.866955e-002
1.444482e+003;4.882588e-002
1.446411e+003;4.922775e-002
1.448340e+003;4.954064e-002
1.450268e+003;4.987630e-002
1.452197e+003;5.014339e-002
1.454125e+003;5.016080e-002
1.456054e+003;4.943005e-002
1.457982e+003;4.895655e-002
1.459911e+003;4.900985e-002
1.461839e+003;4.839382e-002
1.463768e+003;4.710024e-002
1.465697e+003;4.576272e-002
1.467625e+003;4.412844e-002
1.469554e+003;4.166840e-002
1.471482e+003;3.877192e-002
1.473411e+003;3.663184e-002
1.475339e+003;3.519173e-002
1.477268e+003;3.355687e-002
1.479196e+003;3.213524e-002
1.481125e+003;3.091653e-002
1.483053e+003;2.975658e-002
1.484982e+003;2.873347e-002
1.486911e+003;2.792514e-002
1.488839e+003;2.732494e-002
1.490768e+003;2.726680e-002
1.492696e+003;2.789914e-002
1.494625e+003;2.816623e-002
1.496553e+003;2.835917e-002
1.498482e+003;2.919526e-002
1.500410e+003;3.027754e-002
1.502339e+003;3.095645e-002
1.504267e+003;3.018742e-002
1.506196e+003;2.858492e-002
1.508125e+003;2.794804e-002
1.510053e+003;2.754829e-002
1.511982e+003;2.684363e-002
1.513910e+003;2.549016e-002
1.515839e+003;2.354015e-002
1.517767e+003;2.185771e-002
1.519696e+003;2.018048e-002
1.521624e+003;1.842379e-002
1.523553e+003;1.737096e-002
1.525481e+003;1.634900e-002
1.527410e+003;1.551187e-002
1.529339e+003;1.489191e-002
1.531267e+003;1.389446e-002
1.533196e+003;1.333301e-002
1.535124e+003;1.366285e-002
1.537053e+003;1.348159e-002
1.538981e+003;1.205918e-002
1.540910e+003;1.167804e-002
1.542838e+003;1.258894e-002
1.544767e+003;1.315657e-002
1.546695e+003;1.360301e-002
1.548624e+003;1.388441e-002
1.550553e+003;1.433481e-002
1.552481e+003;1.461617e-002
1.554410e+003;1.486982e-002
1.556338e+003;1.476293e-002
1.558267e+003;1.426907e-002
1.560195e+003;1.506367e-002
1.562124e+003;1.669521e-002
1.564052e+003;1.794443e-002
1.565981e+003;1.877022e-002
1.567910e+003;1.937672e-002
1.569838e+003;2.012835e-002
1.571767e+003;2.165667e-002
1.573695e+003;2.325506e-002
1.575624e+003;2.452037e-002
1.577552e+003;2.653900e-002
1.579481e+003;2.919062e-002
1.581409e+003;3.154057e-002
1.583338e+003;3.355579e-002
1.585266e+003;3.551878e-002
1.587195e+003;3.727127e-002
1.589124e+003;3.890233e-002
1.591052e+003;4.024547e-002
1.592981e+003;4.102051e-002
1.594909e+003;4.118081e-002
1.596838e+003;4.091845e-002
1.598766e+003;4.034864e-002
1.600695e+003;4.011019e-002
1.602623e+003;4.031603e-002
1.604552e+003;3.989569e-002
1.606480e+003;3.929846e-002
1.608409e+003;3.908686e-002
1.610338e+003;3.926951e-002
1.612266e+003;3.947365e-002
1.614195e+003;3.929962e-002
1.616123e+003;3.869042e-002
1.618052e+003;3.894861e-002
1.619980e+003;3.970192e-002
1.621909e+003;3.951230e-002
1.623837e+003;3.928790e-002
1.625766e+003;3.920550e-002
1.627694e+003;3.890606e-002
1.629623e+003;3.895408e-002
1.631552e+003;3.907740e-002
1.633480e+003;3.862327e-002
1.635409e+003;3.791763e-002
1.637337e+003;3.795072e-002
1.639266e+003;3.820048e-002
1.641194e+003;3.834265e-002
1.643123e+003;3.841233e-002
1.645051e+003;3.771849e-002
1.646980e+003;3.699603e-002
1.648909e+003;3.746721e-002
1.650837e+003;3.705990e-002
1.652766e+003;3.614908e-002
1.654694e+003;3.691511e-002
1.656623e+003;3.760390e-002
1.658551e+003;3.737930e-002
1.660480e+003;3.746464e-002
1.662408e+003;3.741805e-002
1.664337e+003;3.724322e-002
1.666266e+003;3.708180e-002
1.668194e+003;3.628961e-002
1.670123e+003;3.556107e-002
1.672051e+003;3.552069e-002
1.673980e+003;3.524588e-002
1.675908e+003;3.493641e-002
1.677837e+003;3.493016e-002
1.679765e+003;3.461133e-002
1.681694e+003;3.391573e-002
1.683622e+003;3.297032e-002
1.685551e+003;3.318772e-002
1.687479e+003;3.377936e-002
1.689408e+003;3.385497e-002
1.691337e+003;3.423286e-002
1.693265e+003;3.413923e-002
1.695194e+003;3.355533e-002
1.697122e+003;3.426520e-002
1.699051e+003;3.530830e-002
1.700979e+003;3.642673e-002
1.702908e+003;3.823666e-002
1.704836e+003;3.972370e-002
1.706765e+003;4.143848e-002
1.708693e+003;4.320697e-002
1.710622e+003;4.460650e-002
1.712551e+003;4.597542e-002
1.714479e+003;4.720647e-002
1.716408e+003;4.805148e-002
1.718336e+003;4.953584e-002
1.720265e+003;5.166927e-002
1.722193e+003;5.303876e-002
1.724122e+003;5.384791e-002
1.726050e+003;5.454492e-002
1.727979e+003;5.464982e-002
1.729908e+003;5.452076e-002
1.731836e+003;5.424812e-002
1.733765e+003;5.346157e-002
1.735693e+003;5.318112e-002
1.737622e+003;5.298822e-002
1.739550e+003;5.206795e-002
1.741479e+003;5.069094e-002
1.743407e+003;4.903022e-002
1.745336e+003;4.727207e-002
1.747265e+003;4.534730e-002
1.749193e+003;4.325910e-002
1.751122e+003;4.127685e-002
1.753050e+003;3.960372e-002
1.754979e+003;3.756665e-002
1.756907e+003;3.538357e-002
1.758836e+003;3.318404e-002
1.760764e+003;3.033194e-002
1.762693e+003;2.756202e-002
1.764621e+003;2.524915e-002
1.766550e+003;2.249817e-002
1.768479e+003;2.020679e-002
1.770407e+003;1.813029e-002
1.772336e+003;1.575883e-002
1.774264e+003;1.423356e-002
1.776193e+003;1.297512e-002
1.778121e+003;1.151306e-002
1.780050e+003;1.020938e-002
1.781978e+003;8.888793e-003
1.783907e+003;7.441952e-003
1.785835e+003;6.270237e-003
1.787764e+003;5.209507e-003
1.789693e+003;3.954739e-003
1.791621e+003;2.746432e-003
1.793550e+003;2.079393e-003
1.795478e+003;1.620757e-003
1.797407e+003;8.488616e-004
1.799335e+003;2.120584e-006
1.801264e+003;-7.143784e-004
1.803192e+003;-1.276368e-003
1.805121e+003;-1.822222e-003
1.807049e+003;-2.284833e-003
1.808978e+003;-2.771613e-003
1.810907e+003;-3.075060e-003
1.812835e+003;-3.469256e-003
1.814764e+003;-4.063771e-003
1.816692e+003;-4.255101e-003
1.818621e+003;-4.389244e-003
1.820549e+003;-4.886548e-003
1.822478e+003;-5.226957e-003
1.824406e+003;-5.457140e-003
1.826335e+003;-5.593104e-003
1.828264e+003;-5.566935e-003
1.830192e+003;-5.901744e-003
1.832121e+003;-6.092463e-003
1.834049e+003;-6.168909e-003
1.835978e+003;-6.268434e-003
1.837906e+003;-6.563181e-003
1.839835e+003;-6.695243e-003
1.841763e+003;-6.735210e-003
1.843692e+003;-7.102989e-003
1.845620e+003;-7.210544e-003
1.847549e+003;-7.353193e-003
1.849478e+003;-7.361109e-003
1.851406e+003;-7.392187e-003
1.853335e+003;-7.470620e-003
1.855263e+003;-7.242186e-003
1.857192e+003;-7.331919e-003
1.859120e+003;-7.462315e-003
1.861049e+003;-7.511395e-003
1.862977e+003;-7.828113e-003
1.864906e+003;-8.244257e-003
1.866834e+003;-8.565997e-003
1.868763e+003;-8.408862e-003
1.870692e+003;-8.062027e-003
1.872620e+003;-8.135397e-003
1.874549e+003;-8.257261e-003
1.876477e+003;-8.280798e-003
1.878406e+003;-8.371032e-003
1.880334e+003;-8.452733e-003
1.882263e+003;-8.508524e-003
1.884191e+003;-8.449938e-003
1.886120e+003;-8.365701e-003
1.888048e+003;-8.363069e-003
1.889977e+003;-8.401809e-003
1.891906e+003;-8.090584e-003
1.893834e+003;-8.026802e-003
1.895763e+003;-8.207778e-003
1.897691e+003;-8.248061e-003
1.899620e+003;-8.335181e-003
1.901548e+003;-8.503098e-003
1.903477e+003;-8.337424e-003
1.905405e+003;-7.983832e-003
1.907334e+003;-7.887140e-003
1.909262e+003;-8.186514e-003
1.911191e+003;-8.422674e-003
1.913120e+003;-8.298677e-003
1.915048e+003;-8.113023e-003
1.916977e+003;-8.024557e-003
1.918905e+003;-7.820140e-003
1.920834e+003;-7.705607e-003
1.922762e+003;-7.694995e-003
1.924691e+003;-7.655214e-003
1.926619e+003;-7.649908e-003
1.928548e+003;-7.560143e-003
1.930477e+003;-7.534646e-003
1.932405e+003;-7.476873e-003
1.934334e+003;-7.552654e-003
1.936262e+003;-7.403849e-003
1.938191e+003;-7.089755e-003
1.940119e+003;-7.160942e-003
1.942048e+003;-7.433229e-003
1.943976e+003;-7.540540e-003
1.945905e+003;-7.317161e-003
1.947833e+003;-6.815295e-003
1.949762e+003;-6.563540e-003
1.951691e+003;-6.726499e-003
1.953619e+003;-6.642286e-003
1.955548e+003;-6.403361e-003
1.957476e+003;-6.243743e-003
1.959405e+003;-6.337731e-003
1.961333e+003;-6.513570e-003
1.963262e+003;-6.647899e-003
1.965190e+003;-6.568860e-003
1.967119e+003;-6.451482e-003
1.969047e+003;-6.467218e-003
1.970976e+003;-6.264580e-003
1.972905e+003;-6.117456e-003
1.974833e+003;-6.490819e-003
1.976762e+003;-6.554663e-003
1.978690e+003;-6.386872e-003
1.980619e+003;-6.255696e-003
1.982547e+003;-6.128139e-003
1.984476e+003;-5.930704e-003
1.986404e+003;-5.673988e-003
1.988333e+003;-5.684780e-003
1.990261e+003;-5.984892e-003
1.992190e+003;-6.180310e-003
1.994119e+003;-5.932273e-003
1.996047e+003;-5.744492e-003
1.997976e+003;-5.763163e-003
1.999904e+003;-5.539947e-003
2.001833e+003;-5.290234e-003
2.003761e+003;-5.077648e-003
2.005690e+003;-5.210260e-003
2.007618e+003;-5.344174e-003
2.009547e+003;-5.105942e-003
2.011476e+003;-4.793720e-003
2.013404e+003;-4.529740e-003
2.015333e+003;-4.380060e-003
2.017261e+003;-4.205619e-003
2.019190e+003;-3.887035e-003
2.021118e+003;-3.924273e-003
2.023047e+003;-3.876527e-003
2.024975e+003;-3.568941e-003
2.026904e+003;-3.383554e-003
2.028833e+003;-3.393976e-003
2.030761e+003;-3.337722e-003
2.032690e+003;-3.173124e-003
2.034618e+003;-3.196510e-003
2.036547e+003;-3.048475e-003
2.038475e+003;-2.752715e-003
2.040404e+003;-2.689166e-003
2.042332e+003;-2.596558e-003
2.044261e+003;-2.706618e-003
2.046189e+003;-2.894926e-003
2.048118e+003;-2.692722e-003
2.050047e+003;-2.451909e-003
2.051975e+003;-2.380144e-003
2.053904e+003;-2.292052e-003
2.055832e+003;-2.298281e-003
2.057761e+003;-2.381857e-003
2.059689e+003;-2.342246e-003
2.061618e+003;-2.406473e-003
2.063546e+003;-2.601795e-003
2.065475e+003;-2.464331e-003
2.067404e+003;-2.249301e-003
2.069332e+003;-2.153599e-003
2.071260e+003;-2.030208e-003
2.073189e+003;-1.742597e-003
2.075118e+003;-1.706360e-003
2.077046e+003;-1.947289e-003
2.078975e+003;-2.064307e-003
2.080903e+003;-1.990762e-003
2.082832e+003;-1.707845e-003
2.084760e+003;-1.761803e-003
2.086689e+003;-2.268551e-003
2.088617e+003;-2.341521e-003
2.090546e+003;-2.043069e-003
2.092475e+003;-1.861617e-003
2.094403e+003;-1.465561e-003
2.096332e+003;-1.433363e-003
2.098260e+003;-1.698175e-003
2.100189e+003;-1.713126e-003
2.102117e+003;-1.672793e-003
2.104046e+003;-1.516082e-003
2.105974e+003;-1.378307e-003
2.107903e+003;-1.565674e-003
2.109832e+003;-1.611034e-003
2.111760e+003;-1.451064e-003
2.113688e+003;-1.242768e-003
2.115617e+003;-1.150050e-003
2.117546e+003;-1.031529e-003
2.119474e+003;-9.558584e-004
2.121403e+003;-6.078491e-004
2.123331e+003;-3.413452e-004
2.125260e+003;-2.403210e-004
2.127188e+003;-2.226037e-004
2.129117e+003;-3.102226e-004
2.131045e+003;-4.829582e-004
2.132974e+003;-7.887019e-004
2.134903e+003;-7.266177e-004
2.136831e+003;-4.200689e-004
2.138760e+003;-3.294924e-004
2.140688e+003;-4.433059e-004
2.142617e+003;-6.437809e-004
2.144545e+003;-7.556929e-004
2.146474e+003;-5.895843e-004
2.148402e+003;-6.449719e-004
2.150331e+003;-6.601576e-004
2.152260e+003;-6.901304e-004
2.154188e+003;-8.458499e-004
2.156117e+003;-9.780750e-004
2.158045e+003;-9.146622e-004
2.159974e+003;-8.281242e-004
2.161902e+003;-7.768613e-004
2.163831e+003;-1.000026e-003
2.165759e+003;-1.365525e-003
2.167688e+003;-1.571319e-003
2.169616e+003;-1.571121e-003
2.171545e+003;-1.617702e-003
2.173474e+003;-1.898995e-003
2.175402e+003;-2.053523e-003
2.177331e+003;-1.957185e-003
2.179259e+003;-2.201206e-003
2.181188e+003;-2.427890e-003
2.183116e+003;-2.444628e-003
2.185045e+003;-2.677311e-003
2.186973e+003;-2.866652e-003
2.188902e+003;-2.698649e-003
2.190831e+003;-2.675796e-003
2.192759e+003;-2.921421e-003
2.194688e+003;-3.057984e-003
2.196616e+003;-3.005075e-003
2.198545e+003;-3.176677e-003
2.200473e+003;-3.130822e-003
2.202402e+003;-2.939029e-003
2.204330e+003;-3.008695e-003
2.206259e+003;-3.284189e-003
2.208188e+003;-3.510309e-003
2.210116e+003;-3.318190e-003
2.212044e+003;-3.037321e-003
2.213973e+003;-2.927740e-003
2.215902e+003;-2.979737e-003
2.217830e+003;-3.095622e-003
2.219759e+003;-3.135658e-003
2.221687e+003;-3.035939e-003
2.223616e+003;-2.958413e-003
2.225544e+003;-2.955977e-003
2.227473e+003;-3.148059e-003
2.229401e+003;-3.137500e-003
2.231330e+003;-2.823135e-003
2.233259e+003;-2.633972e-003
2.235187e+003;-2.633050e-003
2.237116e+003;-2.823398e-003
2.239044e+003;-2.645499e-003
2.240973e+003;-2.390260e-003
2.242901e+003;-2.341884e-003
2.244830e+003;-2.304774e-003
2.246758e+003;-2.274781e-003
2.248687e+003;-2.364755e-003
2.250615e+003;-2.490753e-003
2.252544e+003;-2.544021e-003
2.254473e+003;-2.608612e-003
2.256401e+003;-2.622906e-003
2.258330e+003;-2.455468e-003
2.260258e+003;-2.369072e-003
2.262187e+003;-2.366864e-003
2.264115e+003;-2.449076e-003
2.266044e+003;-2.367061e-003
2.267972e+003;-2.343169e-003
2.269901e+003;-2.558745e-003
2.271830e+003;-2.445781e-003
2.273758e+003;-2.306323e-003
2.275687e+003;-2.251839e-003
2.277615e+003;-2.233742e-003
2.279544e+003;-2.313870e-003
2.281472e+003;-2.430295e-003
2.283401e+003;-2.446967e-003
2.285329e+003;-2.302764e-003
2.287258e+003;-2.299962e-003
2.289187e+003;-2.328108e-003
2.291115e+003;-2.365842e-003
2.293043e+003;-2.263870e-003
2.294972e+003;-2.017576e-003
2.296901e+003;-1.828293e-003
2.298829e+003;-2.014311e-003
2.300758e+003;-2.218282e-003
2.302686e+003;-2.310542e-003
2.304615e+003;-2.139026e-003
2.306543e+003;-2.126398e-003
2.308472e+003;-2.475565e-003
2.310400e+003;-2.621161e-003
2.312329e+003;-2.623796e-003
2.314258e+003;-2.591222e-003
2.316186e+003;-2.809012e-003
2.318115e+003;-2.880115e-003
2.320043e+003;-2.775136e-003
2.321972e+003;-2.975064e-003
2.323900e+003;-3.507384e-003
2.325829e+003;-3.763248e-003
2.327757e+003;-3.812058e-003
2.329686e+003;-4.072601e-003
2.331615e+003;-3.966596e-003
2.333543e+003;-3.763412e-003
2.335472e+003;-3.683222e-003
2.337400e+003;-3.226901e-003
2.339329e+003;-3.254954e-003
2.341257e+003;-3.560429e-003
2.343186e+003;-2.927543e-003
2.345114e+003;-2.186931e-003
2.347043e+003;-1.880488e-003
2.348971e+003;-1.703224e-003
2.350900e+003;-1.576073e-003
2.352829e+003;-1.984759e-003
2.354757e+003;-2.891075e-003
2.356686e+003;-3.566739e-003
2.358614e+003;-3.956878e-003
2.360543e+003;-3.704085e-003
2.362471e+003;-3.389702e-003
2.364400e+003;-3.239102e-003
2.366328e+003;-2.916221e-003
2.368257e+003;-2.418961e-003
2.370186e+003;-1.670252e-003
2.372114e+003;-9.903068e-004
2.374042e+003;-5.643697e-004
2.375971e+003;1.207241e-004
2.377900e+003;8.335240e-004
2.379828e+003;1.146259e-003
2.381757e+003;1.276042e-003
2.383685e+003;1.469925e-003
2.385614e+003;1.655579e-003
2.387542e+003;1.572502e-003
2.389471e+003;1.653949e-003
2.391399e+003;2.049563e-003
2.393328e+003;2.264142e-003
2.395257e+003;2.484992e-003
2.397185e+003;2.758670e-003
2.399114e+003;2.639510e-003
2.401042e+003;2.588942e-003
2.402971e+003;3.063818e-003
2.404899e+003;3.290851e-003
2.406828e+003;3.371052e-003
2.408756e+003;3.658387e-003
2.410685e+003;3.716866e-003
2.412614e+003;3.545762e-003
2.414542e+003;3.678202e-003
2.416471e+003;3.723082e-003
2.418399e+003;3.767231e-003
2.420328e+003;4.136843e-003
2.422256e+003;4.567037e-003
2.424185e+003;4.820956e-003
2.426113e+003;4.864479e-003
2.428042e+003;5.002786e-003
2.429970e+003;4.988173e-003
2.431899e+003;4.845716e-003
2.433828e+003;5.186101e-003
2.435756e+003;5.585484e-003
2.437685e+003;5.631837e-003
2.439613e+003;5.687393e-003
2.441542e+003;6.050075e-003
2.443470e+003;6.321471e-003
2.445399e+003;6.435558e-003
2.447327e+003;6.592397e-003
2.449256e+003;6.457484e-003
2.451185e+003;6.540358e-003
2.453113e+003;6.632869e-003
2.455042e+003;6.577023e-003
2.456970e+003;6.885238e-003
2.458899e+003;7.247441e-003
2.460827e+003;7.603471e-003
2.462756e+003;7.819159e-003
2.464684e+003;7.981325e-003
2.466613e+003;7.903372e-003
2.468542e+003;7.693375e-003
2.470470e+003;7.761103e-003
2.472398e+003;8.104288e-003
2.474327e+003;8.387138e-003
2.476256e+003;8.471732e-003
2.478184e+003;8.462610e-003
2.480113e+003;8.830492e-003
2.482041e+003;9.489431e-003
2.483970e+003;9.763053e-003
2.485898e+003;9.546329e-003
2.487827e+003;9.505179e-003
2.489755e+003;9.559506e-003
2.491684e+003;9.596596e-003
2.493613e+003;9.862083e-003
2.495541e+003;1.009463e-002
2.497470e+003;1.023411e-002
2.499398e+003;1.049421e-002
2.501327e+003;1.038265e-002
2.503255e+003;1.050202e-002
2.505184e+003;1.087979e-002
2.507112e+003;1.095522e-002
2.509041e+003;1.108110e-002
2.510969e+003;1.120192e-002
2.512898e+003;1.124575e-002
2.514827e+003;1.147700e-002
2.516755e+003;1.167729e-002
2.518684e+003;1.171313e-002
2.520612e+003;1.174799e-002
2.522541e+003;1.193946e-002
2.524469e+003;1.194429e-002
2.526398e+003;1.219449e-002
2.528326e+003;1.259996e-002
2.530255e+003;1.246245e-002
2.532184e+003;1.227093e-002
2.534112e+003;1.273891e-002
2.536041e+003;1.316323e-002
2.537969e+003;1.304948e-002
2.539898e+003;1.287743e-002
2.541826e+003;1.311839e-002
2.543755e+003;1.322324e-002
2.545683e+003;1.314800e-002
2.547612e+003;1.328084e-002
2.549541e+003;1.331432e-002
2.551469e+003;1.335747e-002
2.553397e+003;1.360527e-002
2.555326e+003;1.378466e-002
2.557255e+003;1.398072e-002
2.559183e+003;1.407514e-002
2.561112e+003;1.396169e-002
2.563040e+003;1.403999e-002
2.564969e+003;1.421877e-002
2.566897e+003;1.447031e-002
2.568826e+003;1.442537e-002
2.570754e+003;1.428814e-002
2.572683e+003;1.436033e-002
2.574612e+003;1.441513e-002
2.576540e+003;1.462234e-002
2.578469e+003;1.464701e-002
2.580397e+003;1.471559e-002
2.582326e+003;1.513633e-002
2.584254e+003;1.541720e-002
2.586183e+003;1.533228e-002
2.588111e+003;1.528100e-002
2.590040e+003;1.533255e-002
2.591969e+003;1.511777e-002
2.593897e+003;1.538366e-002
2.595826e+003;1.593578e-002
2.597754e+003;1.612583e-002
2.599683e+003;1.621291e-002
2.601611e+003;1.627045e-002
2.603540e+003;1.632736e-002
2.605468e+003;1.623097e-002
2.607397e+003;1.605796e-002
2.609325e+003;1.625398e-002
2.611254e+003;1.664787e-002
2.613183e+003;1.686014e-002
2.615111e+003;1.681819e-002
2.617040e+003;1.689673e-002
2.618968e+003;1.696294e-002
2.620897e+003;1.724976e-002
2.622825e+003;1.765719e-002
2.624754e+003;1.765098e-002
2.626682e+003;1.745305e-002
2.628611e+003;1.749730e-002
2.630540e+003;1.784458e-002
2.632468e+003;1.838649e-002
2.634396e+003;1.860594e-002
2.636325e+003;1.844305e-002
2.638254e+003;1.840920e-002
2.640182e+003;1.851700e-002
2.642111e+003;1.871645e-002
2.644039e+003;1.873870e-002
2.645968e+003;1.894282e-002
2.647896e+003;1.915373e-002
2.649825e+003;1.915452e-002
2.651753e+003;1.908742e-002
2.653682e+003;1.911304e-002
2.655611e+003;1.955452e-002
2.657539e+003;1.988603e-002
2.659468e+003;1.973774e-002
2.661396e+003;1.984979e-002
2.663325e+003;2.018493e-002
2.665253e+003;2.046784e-002
2.667182e+003;2.059984e-002
2.669110e+003;2.079480e-002
2.671039e+003;2.081124e-002
2.672968e+003;2.060964e-002
2.674896e+003;2.071211e-002
2.676825e+003;2.085879e-002
2.678753e+003;2.092690e-002
2.680682e+003;2.132249e-002
2.682610e+003;2.174629e-002
2.684539e+003;2.163894e-002
2.686467e+003;2.164803e-002
2.688396e+003;2.179193e-002
2.690324e+003;2.191552e-002
2.692253e+003;2.214792e-002
2.694182e+003;2.234288e-002
2.696110e+003;2.249695e-002
2.698039e+003;2.249747e-002
2.699967e+003;2.266008e-002
2.701896e+003;2.324030e-002
2.703824e+003;2.333767e-002
2.705753e+003;2.302751e-002
2.707681e+003;2.315352e-002
2.709610e+003;2.355788e-002
2.711539e+003;2.375263e-002
2.713467e+003;2.360536e-002
2.715396e+003;2.341190e-002
2.717324e+003;2.349807e-002
2.719253e+003;2.376334e-002
2.721181e+003;2.401309e-002
2.723110e+003;2.429262e-002
2.725038e+003;2.446323e-002
2.726967e+003;2.440564e-002
2.728896e+003;2.433768e-002
2.730824e+003;2.490545e-002
2.732752e+003;2.544578e-002
2.734681e+003;2.535230e-002
2.736610e+003;2.518721e-002
2.738538e+003;2.536691e-002
2.740467e+003;2.544810e-002
2.742395e+003;2.536315e-002
2.744324e+003;2.534731e-002
2.746252e+003;2.582103e-002
2.748181e+003;2.617295e-002
2.750109e+003;2.594760e-002
2.752038e+003;2.579954e-002
2.753967e+003;2.597011e-002
2.755895e+003;2.635856e-002
2.757824e+003;2.641764e-002
2.759752e+003;2.635144e-002
2.761681e+003;2.674749e-002
2.763609e+003;2.668988e-002
2.765538e+003;2.632268e-002
2.767466e+003;2.656228e-002
2.769395e+003;2.712446e-002
2.771323e+003;2.741800e-002
2.773252e+003;2.745086e-002
2.775181e+003;2.747299e-002
2.777109e+003;2.769694e-002
2.779038e+003;2.784604e-002
2.780966e+003;2.791712e-002
2.782895e+003;2.798783e-002
2.784823e+003;2.792999e-002
2.786752e+003;2.832960e-002
2.788680e+003;2.887081e-002
2.790609e+003;2.922237e-002
2.792538e+003;2.952627e-002
2.794466e+003;2.958639e-002
2.796395e+003;2.965603e-002
2.798323e+003;2.954919e-002
2.800252e+003;2.962151e-002
2.802180e+003;2.983479e-002
2.804109e+003;3.031239e-002
2.806037e+003;3.092621e-002
2.807966e+003;3.124127e-002
2.809895e+003;3.155952e-002
2.811823e+003;3.186424e-002
2.813751e+003;3.212786e-002
2.815680e+003;3.257085e-002
2.817609e+003;3.307354e-002
2.819537e+003;3.318257e-002
2.821466e+003;3.345411e-002
2.823394e+003;3.374058e-002
2.825323e+003;3.402838e-002
2.827251e+003;3.458693e-002
2.829180e+003;3.521674e-002
2.831108e+003;3.602745e-002
2.833037e+003;3.648926e-002
2.834966e+003;3.670294e-002
2.836894e+003;3.725480e-002
2.838823e+003;3.783567e-002
2.840751e+003;3.834981e-002
2.842680e+003;3.844082e-002
2.844608e+003;3.824567e-002
2.846537e+003;3.804467e-002
2.848465e+003;3.838228e-002
2.850394e+003;3.914552e-002
2.852323e+003;3.971448e-002
2.854251e+003;4.048774e-002
2.856180e+003;4.128005e-002
2.858108e+003;4.225225e-002
2.860037e+003;4.315885e-002
2.861965e+003;4.403521e-002
2.863894e+003;4.454567e-002
2.865822e+003;4.493460e-002
2.867751e+003;4.551767e-002
2.869679e+003;4.612894e-002
2.871608e+003;4.655119e-002
2.873536e+003;4.701011e-002
2.875465e+003;4.701719e-002
2.877394e+003;4.686451e-002
2.879322e+003;4.724141e-002
2.881251e+003;4.761583e-002
2.883179e+003;4.800385e-002
2.885108e+003;4.852903e-002
2.887036e+003;4.839471e-002
2.888965e+003;4.790158e-002
2.890893e+003;4.780957e-002
2.892822e+003;4.823013e-002
2.894750e+003;4.823935e-002
2.896679e+003;4.816926e-002
2.898608e+003;4.801477e-002
2.900536e+003;4.805899e-002
2.902465e+003;4.800877e-002
2.904393e+003;4.755885e-002
2.906322e+003;4.709596e-002
2.908250e+003;4.663422e-002
2.910179e+003;4.583057e-002
2.912107e+003;4.454589e-002
2.914036e+003;4.378249e-002
2.915965e+003;4.372906e-002
2.917893e+003;4.353859e-002
2.919822e+003;4.283217e-002
2.921750e+003;4.229958e-002
2.923679e+003;4.194829e-002
2.925607e+003;4.241914e-002
2.927536e+003;4.295773e-002
2.929464e+003;4.289595e-002
2.931393e+003;4.284029e-002
2.933322e+003;4.246423e-002
2.935250e+003;4.250990e-002
2.937178e+003;4.300192e-002
2.939107e+003;4.327930e-002
2.941036e+003;4.354654e-002
2.942964e+003;4.373745e-002
2.944893e+003;4.328684e-002
2.946821e+003;4.268332e-002
2.948750e+003;4.227858e-002
2.950678e+003;4.154515e-002
2.952607e+003;4.099633e-002
2.954535e+003;4.025437e-002
2.956464e+003;3.938113e-002
2.958393e+003;3.924235e-002
2.960321e+003;3.942445e-002
2.962250e+003;3.963468e-002
2.964178e+003;3.934971e-002
2.966107e+003;3.868676e-002
2.968035e+003;3.877326e-002
2.969964e+003;3.888722e-002
2.971892e+003;3.852499e-002
2.973821e+003;3.826083e-002
2.975750e+003;3.830986e-002
2.977678e+003;3.837113e-002
2.979607e+003;3.806713e-002
2.981535e+003;3.752294e-002
2.983464e+003;3.727795e-002
2.985392e+003;3.721383e-002
2.987321e+003;3.685372e-002
2.989249e+003;3.642417e-002
2.991178e+003;3.621660e-002
2.993106e+003;3.604938e-002
2.995035e+003;3.602929e-002
2.996964e+003;3.601493e-002
2.998892e+003;3.594052e-002
3.000821e+003;3.581568e-002
3.002749e+003;3.544289e-002
3.004678e+003;3.558351e-002
3.006606e+003;3.603660e-002
3.008535e+003;3.579694e-002
3.010463e+003;3.550523e-002
3.012392e+003;3.526765e-002
3.014321e+003;3.493932e-002
3.016249e+003;3.484679e-002
3.018177e+003;3.491116e-002
3.020106e+003;3.503208e-002
3.022035e+003;3.514750e-002
3.023963e+003;3.553921e-002
3.025892e+003;3.564969e-002
3.027820e+003;3.544411e-002
3.029749e+003;3.541650e-002
3.031677e+003;3.528246e-002
3.033606e+003;3.564602e-002
3.035534e+003;3.618199e-002
3.037463e+003;3.616175e-002
3.039392e+003;3.629271e-002
3.041320e+003;3.631667e-002
3.043249e+003;3.656000e-002
3.045177e+003;3.669252e-002
3.047106e+003;3.664562e-002
3.049034e+003;3.658293e-002
3.050963e+003;3.664627e-002
3.052891e+003;3.696634e-002
3.054820e+003;3.706787e-002
3.056749e+003;3.743578e-002
3.058677e+003;3.748256e-002
3.060606e+003;3.761229e-002
3.062534e+003;3.781199e-002
3.064463e+003;3.763903e-002
3.066391e+003;3.781793e-002
3.068320e+003;3.808287e-002
3.070248e+003;3.797361e-002
3.072177e+003;3.799462e-002
3.074105e+003;3.818893e-002
3.076034e+003;3.838786e-002
3.077963e+003;3.853216e-002
3.079891e+003;3.884772e-002
3.081820e+003;3.893723e-002
3.083748e+003;3.913294e-002
3.085677e+003;3.936063e-002
3.087605e+003;3.923941e-002
3.089534e+003;3.954441e-002
3.091462e+003;4.005830e-002
3.093391e+003;4.032875e-002
3.095320e+003;4.033243e-002
3.097248e+003;4.043519e-002
3.099177e+003;4.056155e-002
3.101105e+003;4.056089e-002
3.103034e+003;4.072473e-002
3.104962e+003;4.054761e-002
3.106891e+003;4.042697e-002
3.108819e+003;4.058003e-002
3.110748e+003;4.089842e-002
3.112677e+003;4.128075e-002
3.114605e+003;4.152965e-002
3.116533e+003;4.142332e-002
3.118462e+003;4.163324e-002
3.120391e+003;4.237968e-002
3.122319e+003;4.234071e-002
3.124248e+003;4.208009e-002
3.126176e+003;4.233812e-002
3.128105e+003;4.261661e-002
3.130033e+003;4.263010e-002
3.131962e+003;4.288969e-002
3.133890e+003;4.313407e-002
3.135819e+003;4.323947e-002
3.137748e+003;4.339148e-002
3.139676e+003;4.375331e-002
3.141605e+003;4.377934e-002
3.143533e+003;4.381467e-002
3.145462e+003;4.432376e-002
3.147390e+003;4.438985e-002
3.149319e+003;4.494783e-002
3.151247e+003;4.575311e-002
3.153176e+003;4.564492e-002
3.155104e+003;4.563881e-002
3.157033e+003;4.587723e-002
3.158962e+003;4.616645e-002
3.160890e+003;4.678933e-002
3.162819e+003;4.697924e-002
3.164747e+003;4.702192e-002
3.166676e+003;4.746707e-002
3.168604e+003;4.740882e-002
3.170533e+003;4.728090e-002
3.172461e+003;4.777784e-002
3.174390e+003;4.833948e-002
3.176319e+003;4.864528e-002
3.178247e+003;4.859176e-002
3.180176e+003;4.854433e-002
3.182104e+003;4.921547e-002
3.184033e+003;4.983925e-002
3.185961e+003;5.003235e-002
3.187890e+003;5.011817e-002
3.189818e+003;5.024247e-002
3.191747e+003;5.019412e-002
3.193676e+003;5.027473e-002
3.195604e+003;5.061658e-002
3.197532e+003;5.082236e-002
3.199461e+003;5.127788e-002
3.201390e+003;5.172200e-002
3.203318e+003;5.182413e-002
3.205247e+003;5.204308e-002
3.207175e+003;5.242641e-002
3.209104e+003;5.293117e-002
3.211032e+003;5.356894e-002
3.212961e+003;5.399155e-002
3.214889e+003;5.388550e-002
3.216818e+003;5.373941e-002
3.218747e+003;5.368883e-002
3.220675e+003;5.354788e-002
3.222604e+003;5.395970e-002
3.224532e+003;5.461886e-002
3.226461e+003;5.543894e-002
3.228389e+003;5.582585e-002
3.230318e+003;5.549647e-002
3.232246e+003;5.517539e-002
3.234175e+003;5.557147e-002
3.236104e+003;5.569855e-002
3.238032e+003;5.559633e-002
3.239961e+003;5.582231e-002
3.241889e+003;5.661677e-002
3.243818e+003;5.726917e-002
3.245746e+003;5.747801e-002
3.247675e+003;5.728531e-002
3.249603e+003;5.739776e-002
3.251532e+003;5.813549e-002
3.253460e+003;5.891667e-002
3.255389e+003;5.872674e-002
3.257318e+003;5.848556e-002
3.259246e+003;5.916078e-002
3.261175e+003;5.969759e-002
3.263103e+003;5.985816e-002
3.265032e+003;6.016579e-002
3.266960e+003;6.065734e-002
3.268889e+003;6.093290e-002
3.270817e+003;6.133427e-002
3.272746e+003;6.192891e-002
3.274675e+003;6.206049e-002
3.276603e+003;6.130382e-002
3.278531e+003;6.082986e-002
3.280460e+003;6.152588e-002
3.282389e+003;6.195382e-002
3.284317e+003;6.177498e-002
3.286246e+003;6.198000e-002
3.288174e+003;6.254146e-002
3.290103e+003;6.261720e-002
3.292031e+003;6.236375e-002
3.293960e+003;6.223682e-002
3.295888e+003;6.268460e-002
3.297817e+003;6.271078e-002
3.299746e+003;6.284989e-002
3.301674e+003;6.332698e-002
3.303603e+003;6.312733e-002
3.305531e+003;6.328806e-002
3.307460e+003;6.339023e-002
3.309388e+003;6.310312e-002
3.311317e+003;6.356395e-002
3.313245e+003;6.389441e-002
3.315174e+003;6.372673e-002
3.317103e+003;6.368134e-002
3.319031e+003;6.378989e-002
3.320960e+003;6.378828e-002
3.322888e+003;6.387713e-002
3.324817e+003;6.460262e-002
3.326745e+003;6.476986e-002
3.328674e+003;6.425185e-002
3.330602e+003;6.423710e-002
3.332531e+003;6.434701e-002
3.334459e+003;6.413300e-002
3.336388e+003;6.400228e-002
3.338317e+003;6.394400e-002
3.340245e+003;6.372458e-002
3.342174e+003;6.402628e-002
3.344102e+003;6.450582e-002
3.346031e+003;6.427939e-002
3.347959e+003;6.422880e-002
3.349888e+003;6.429418e-002
3.351816e+003;6.398554e-002
3.353745e+003;6.377197e-002
3.355674e+003;6.372957e-002
3.357602e+003;6.405623e-002
3.359531e+003;6.398385e-002
3.361459e+003;6.336209e-002
3.363388e+003;6.300680e-002
3.365316e+003;6.281599e-002
3.367245e+003;6.243322e-002
3.369173e+003;6.251322e-002
3.371102e+003;6.280420e-002
3.373031e+003;6.257177e-002
3.374959e+003;6.235825e-002
3.376887e+003;6.240204e-002
3.378816e+003;6.188447e-002
3.380745e+003;6.132866e-002
3.382673e+003;6.101400e-002
3.384602e+003;6.082174e-002
3.386530e+003;6.063776e-002
3.388459e+003;6.071503e-002
3.390387e+003;6.040614e-002
3.392316e+003;5.969188e-002
3.394244e+003;5.980903e-002
3.396173e+003;5.982393e-002
3.398102e+003;5.974895e-002
3.400030e+003;5.948722e-002
3.401959e+003;5.893310e-002
3.403887e+003;5.923392e-002
3.405816e+003;5.962114e-002
3.407744e+003;5.945055e-002
3.409673e+003;5.886833e-002
3.411601e+003;5.816795e-002
3.413530e+003;5.785432e-002
3.415458e+003;5.751591e-002
3.417387e+003;5.680143e-002
3.419316e+003;5.680703e-002
3.421244e+003;5.688959e-002
3.423173e+003;5.614560e-002
3.425101e+003;5.572002e-002
3.427030e+003;5.546488e-002
3.428958e+003;5.496739e-002
3.430887e+003;5.425495e-002
3.432815e+003;5.410435e-002
3.434744e+003;5.392849e-002
3.436673e+003;5.309780e-002
3.438601e+003;5.272039e-002
3.440530e+003;5.288783e-002
3.442458e+003;5.294181e-002
3.444387e+003;5.278033e-002
3.446315e+003;5.214895e-002
3.448244e+003;5.175231e-002
3.450172e+003;5.169606e-002
3.452101e+003;5.100972e-002
3.454030e+003;5.023447e-002
3.455958e+003;4.990641e-002
3.457886e+003;4.959820e-002
3.459815e+003;4.898730e-002
3.461744e+003;4.856097e-002
3.463672e+003;4.847342e-002
3.465601e+003;4.823339e-002
3.467529e+003;4.755471e-002
3.469458e+003;4.693494e-002
3.471386e+003;4.663680e-002
3.473315e+003;4.636987e-002
3.475243e+003;4.573743e-002
3.477172e+003;4.527025e-002
3.479101e+003;4.514494e-002
3.481029e+003;4.473118e-002
3.482958e+003;4.442611e-002
3.484886e+003;4.398648e-002
3.486815e+003;4.388064e-002
3.488743e+003;4.384186e-002
3.490672e+003;4.307256e-002
3.492600e+003;4.231595e-002
3.494529e+003;4.214114e-002
3.496458e+003;4.173967e-002
3.498386e+003;4.134313e-002
3.500315e+003;4.096767e-002
3.502243e+003;4.008889e-002
3.504172e+003;3.952198e-002
3.506100e+003;3.944513e-002
3.508029e+003;3.911293e-002
3.509957e+003;3.890410e-002
3.511886e+003;3.854606e-002
3.513814e+003;3.836415e-002
3.515743e+003;3.816889e-002
3.517672e+003;3.737721e-002
3.519600e+003;3.660495e-002
3.521529e+003;3.659349e-002
3.523457e+003;3.662554e-002
3.525386e+003;3.602148e-002
3.527314e+003;3.498201e-002
3.529243e+003;3.485472e-002
3.531171e+003;3.495027e-002
3.533100e+003;3.462525e-002
3.535029e+003;3.425287e-002
3.536957e+003;3.403902e-002
3.538885e+003;3.394940e-002
3.540814e+003;3.400340e-002
3.542743e+003;3.334487e-002
3.544671e+003;3.198303e-002
3.546600e+003;3.105146e-002
3.548528e+003;3.137278e-002
3.550457e+003;3.168290e-002
3.552385e+003;3.112208e-002
3.554314e+003;3.053945e-002
3.556242e+003;3.010421e-002
3.558171e+003;2.969551e-002
3.560100e+003;2.948124e-002
3.562028e+003;2.902590e-002
3.563957e+003;2.848305e-002
3.565885e+003;2.848853e-002
3.567814e+003;2.848963e-002
3.569742e+003;2.790797e-002
3.571671e+003;2.739647e-002
3.573599e+003;2.735155e-002
3.575528e+003;2.740568e-002
3.577457e+003;2.721204e-002
3.579385e+003;2.686422e-002
3.581314e+003;2.625632e-002
3.583242e+003;2.578397e-002
3.585171e+003;2.527190e-002
3.587099e+003;2.466308e-002
3.589028e+003;2.442856e-002
3.590956e+003;2.450592e-002
3.592885e+003;2.418982e-002
3.594813e+003;2.378483e-002
3.596742e+003;2.352004e-002
3.598671e+003;2.332627e-002
3.600599e+003;2.306927e-002
3.602528e+003;2.262444e-002
3.604456e+003;2.181973e-002
3.606385e+003;2.103783e-002
3.608313e+003;2.033490e-002
3.610242e+003;1.998230e-002
3.612170e+003;1.982059e-002
3.614099e+003;2.014112e-002
3.616028e+003;2.020488e-002
3.617956e+003;1.940887e-002
3.619885e+003;1.859491e-002
3.621813e+003;1.800193e-002
3.623742e+003;1.785545e-002
3.625670e+003;1.731934e-002
3.627599e+003;1.604341e-002
3.629527e+003;1.507372e-002
3.631456e+003;1.497311e-002
3.633385e+003;1.476725e-002
3.635313e+003;1.421880e-002
3.637241e+003;1.395225e-002
3.639170e+003;1.330301e-002
3.641099e+003;1.252073e-002
3.643027e+003;1.216041e-002
3.644956e+003;1.105778e-002
3.646884e+003;9.745093e-003
3.648813e+003;8.831440e-003
3.650741e+003;8.620385e-003
3.652670e+003;8.732813e-003
3.654598e+003;7.747476e-003
3.656527e+003;6.381924e-003
3.658456e+003;5.815954e-003
3.660384e+003;5.436456e-003
3.662313e+003;5.010797e-003
3.664241e+003;4.363266e-003
3.666170e+003;3.881117e-003
3.668098e+003;3.466965e-003
3.670027e+003;2.470063e-003
3.671955e+003;1.631100e-003
3.673884e+003;9.515579e-004
3.675813e+003;4.396461e-004
3.677741e+003;3.853541e-004
3.679669e+003;1.011037e-004
3.681598e+003;-2.589978e-004
3.683527e+003;-1.044259e-004
3.685455e+003;-7.436198e-004
3.687384e+003;-1.833803e-003
3.689312e+003;-1.996534e-003
3.691241e+003;-1.473685e-003
3.693169e+003;-6.416634e-004
3.695098e+003;-7.246661e-004
3.697026e+003;-1.157617e-003
3.698955e+003;-1.517998e-003
3.700884e+003;-2.175524e-003
3.702812e+003;-2.297457e-003
3.704741e+003;-2.473292e-003
3.706669e+003;-3.430960e-003
3.708598e+003;-4.311466e-003
3.710526e+003;-4.641737e-003
3.712455e+003;-4.586496e-003
3.714383e+003;-4.278724e-003
3.716312e+003;-4.499048e-003
3.718240e+003;-4.908106e-003
3.720169e+003;-5.177487e-003
3.722098e+003;-5.271347e-003
3.724026e+003;-5.297468e-003
3.725955e+003;-5.191435e-003
3.727883e+003;-5.102077e-003
3.729812e+003;-5.605762e-003
3.731740e+003;-6.147904e-003
3.733669e+003;-6.320097e-003
3.735597e+003;-6.508870e-003
3.737526e+003;-6.270262e-003
3.739455e+003;-5.963322e-003
3.741383e+003;-6.109060e-003
3.743312e+003;-6.909681e-003
3.745240e+003;-6.651978e-003
3.747169e+003;-6.140913e-003
3.749097e+003;-6.965018e-003
3.751026e+003;-7.759996e-003
3.752954e+003;-7.096730e-003
3.754883e+003;-5.772154e-003
3.756812e+003;-5.847546e-003
3.758740e+003;-6.403034e-003
3.760668e+003;-6.263959e-003
3.762597e+003;-5.900371e-003
3.764526e+003;-6.344425e-003
3.766454e+003;-6.328653e-003
3.768383e+003;-6.480177e-003
3.770311e+003;-6.845857e-003
3.772240e+003;-6.510143e-003
3.774168e+003;-6.216960e-003
3.776097e+003;-6.541314e-003
3.778025e+003;-6.258179e-003
3.779954e+003;-5.865951e-003
3.781883e+003;-6.025054e-003
3.783811e+003;-6.187758e-003
3.785740e+003;-5.854444e-003
3.787668e+003;-5.639288e-003
3.789597e+003;-5.570664e-003
3.791525e+003;-5.883799e-003
3.793454e+003;-6.458240e-003
3.795382e+003;-6.585178e-003
3.797311e+003;-6.509685e-003
3.799240e+003;-6.762939e-003
3.801168e+003;-7.094351e-003
3.803097e+003;-6.642221e-003
3.805025e+003;-6.153817e-003
3.806954e+003;-6.382008e-003
3.808882e+003;-6.296716e-003
3.810811e+003;-6.056881e-003
3.812739e+003;-6.646038e-003
3.814668e+003;-7.577921e-003
3.816596e+003;-7.577694e-003
3.818525e+003;-6.892136e-003
3.820454e+003;-6.997363e-003
3.822382e+003;-6.713514e-003
3.824311e+003;-6.176619e-003
3.826239e+003;-6.542847e-003
3.828168e+003;-6.545198e-003
3.830096e+003;-6.459318e-003
3.832025e+003;-6.684183e-003
3.833953e+003;-6.858316e-003
3.835882e+003;-6.796897e-003
3.837811e+003;-6.802541e-003
3.839739e+003;-6.296748e-003
3.841667e+003;-5.802986e-003
3.843596e+003;-5.800305e-003
3.845525e+003;-5.614398e-003
3.847453e+003;-5.538409e-003
3.849382e+003;-6.023486e-003
3.851310e+003;-6.790373e-003
3.853239e+003;-7.356353e-003
3.855167e+003;-6.213236e-003
3.857096e+003;-5.345385e-003
3.859024e+003;-5.100898e-003
3.860953e+003;-5.128274e-003
3.862882e+003;-5.400202e-003
3.864810e+003;-5.418201e-003
3.866739e+003;-4.745807e-003
3.868667e+003;-4.878390e-003
3.870596e+003;-5.355106e-003
3.872524e+003;-5.128372e-003
3.874453e+003;-4.954789e-003
3.876381e+003;-4.886122e-003
3.878310e+003;-5.053150e-003
3.880239e+003;-4.658325e-003
3.882167e+003;-4.031469e-003
3.884096e+003;-3.944401e-003
3.886024e+003;-4.361657e-003
3.887953e+003;-4.200696e-003
3.889881e+003;-4.222846e-003
3.891810e+003;-4.210377e-003
3.893738e+003;-3.569006e-003
3.895667e+003;-3.482930e-003
3.897595e+003;-4.023492e-003
3.899524e+003;-4.226259e-003
3.901453e+003;-3.984720e-003
3.903381e+003;-3.747251e-003
3.905310e+003;-3.929067e-003
3.907238e+003;-3.768504e-003
3.909167e+003;-3.217692e-003
3.911095e+003;-2.858324e-003
3.913024e+003;-3.070585e-003
3.914952e+003;-2.681295e-003
3.916881e+003;-2.124189e-003
3.918810e+003;-2.112319e-003
3.920738e+003;-2.308432e-003
3.922667e+003;-2.697826e-003
3.924595e+003;-2.786264e-003
3.926524e+003;-2.329591e-003
3.928452e+003;-1.964375e-003
3.930381e+003;-2.202887e-003
3.932309e+003;-2.037199e-003
3.934238e+003;-1.195982e-003
3.936167e+003;-1.052486e-003
3.938095e+003;-1.159864e-003
3.940023e+003;-1.413977e-003
3.941952e+003;-1.398025e-003
3.943881e+003;-1.061278e-003
3.945809e+003;-1.016191e-003
3.947738e+003;-1.276896e-003
3.949666e+003;-8.764051e-004
3.951595e+003;-6.630028e-004
3.953523e+003;-1.205333e-003
3.955452e+003;-1.525625e-003
3.957380e+003;-1.381511e-003
3.959309e+003;-1.130122e-003
3.961238e+003;-9.398895e-004
3.963166e+003;-5.874335e-004
3.965095e+003;-1.789532e-004
3.967023e+003;9.696102e-005
3.968952e+003;-7.507524e-005
3.970880e+003;-4.343655e-005
3.972809e+003;-7.848745e-005
3.974737e+003;-5.753227e-004
3.976666e+003;-7.165947e-004
3.978594e+003;-6.039915e-005
3.980523e+003;8.005922e-005
3.982452e+003;9.314977e-005
3.984380e+003;-7.103357e-005
3.986309e+003;-2.477719e-004
3.988237e+003;-6.652805e-005
3.990166e+003;3.039455e-004
3.992094e+003;2.408187e-004
3.994023e+003;-2.851242e-004
3.995951e+003;-7.740168e-004
3.997880e+003;-6.042756e-004
3.999809e+003;-2.201199e-004
4.001737e+003;0.000000e+000
