3.992094e+002;0.000000e+000
4.011380e+002;0.000000e+000
4.030665e+002;0.000000e+000
4.049951e+002;0.000000e+000
4.069236e+002;0.000000e+000
4.088522e+002;0.000000e+000
4.107807e+002;0.000000e+000
4.127093e+002;0.000000e+000
4.146378e+002;0.000000e+000
4.165664e+002;0.000000e+000
4.184949e+002;0.000000e+000
4.204235e+002;0.000000e+000
4.223520e+002;0.000000e+000
4.242806e+002;0.000000e+000
4.262091e+002;0.000000e+000
4.281377e+002;0.000000e+000
4.300662e+002;0.000000e+000
4.319948e+002;0.000000e+000
4.339233e+002;0.000000e+000
4.358519e+002;0.000000e+000
4.377804e+002;0.000000e+000
4.397090e+002;0.000000e+000
4.416375e+002;0.000000e+000
4.435660e+002;0.000000e+000
4.454946e+002;0.000000e+000
4.474232e+002;0.000000e+000
4.493517e+002;0.000000e+000
4.512802e+002;0.000000e+000
4.532088e+002;0.000000e+000
4.551373e+002;0.000000e+000
4.570659e+002;0.000000e+000
4.589944e+002;0.000000e+000
4.609230e+002;0.000000e+000
4.628515e+002;0.000000e+000
4.647801e+002;0.000000e+000
4.667086e+002;0.000000e+000
4.686372e+002;0.000000e+000
4.705657e+002;0.000000e+000
4.724943e+002;0.000000e+000
4.744228e+002;0.000000e+000
4.763513e+002;0.000000e+000
4.782799e+002;0.000000e+000
4.802085e+002;0.000000e+000
4.821370e+002;0.000000e+000
4.840656e+002;0.000000e+000
4.859941e+002;0.000000e+000
4.879226e+002;0.000000e+000
4.898512e+002;0.000000e+000
4.917798e+002;0.000000e+000
4.937083e+002;0.000000e+000
4.956368e+002;0.000000e+000
4.975654e+002;0.000000e+000
4.994939e+002;0.000000e+000
5.014225e+002;0.000000e+000
5.033510e+002;0.000000e+000
5.052796e+002;0.000000e+000
5.072081e+002;0.000000e+000
5.091367e+002;0.000000e+000
5.110652e+002;0.000000e+000
5.129938e+002;0.000000e+000
5.149223e+002;0.000000e+000
5.168509e+002;0.000000e+000
5.187794e+002;0.000000e+000
5.207079e+002;0.000000e+000
5.226365e+002;0.000000e+000
5.245651e+002;0.000000e+000
5.264936e+002;0.000000e+000
5.284222e+002;0.000000e+000
5.303507e+002;0.000000e+000
5.322792e+002;0.000000e+000
5.342078e+002;0.000000e+000
5.361364e+002;0.000000e+000
5.380649e+002;0.000000e+000
5.399935e+002;0.000000e+000
5.419220e+002;0.000000e+000
5.438505e+002;0.000000e+000
5.457791e+002;0.000000e+000
5.477076e+002;0.000000e+000
5.496362e+002;0.000000e+000
5.515648e+002;0.000000e+000
5.534933e+002;0.000000e+000
5.554218e+002;0.000000e+000
5.573504e+002;0.000000e+000
5.592789e+002;0.000000e+000
5.612075e+002;0.000000e+000
5.631360e+002;0.000000e+000
5.650646e+002;0.000000e+000
5.669931e+002;0.000000e+000
5.689217e+002;0.000000e+000
5.708502e+002;0.000000e+000
5.727787e+002;0.000000e+000
5.747073e+002;0.000000e+000
5.766359e+002;0.000000e+000
5.785644e+002;0.000000e+000
5.804930e+002;0.000000e+000
5.824215e+002;0.000000e+000
5.843500e+002;0.000000e+000
5.862786e+002;0.000000e+000
5.882072e+002;0.000000e+000
5.901357e+002;0.000000e+000
5.920643e+002;0.000000e+000
5.939928e+002;0.000000e+000
5.959213e+002;0.000000e+000
5.978499e+002;0.000000e+000
5.997784e+002;7.764833e-002
6.017070e+002;8.102632e-002
6.036355e+002;8.079861e-002
6.055641e+002;7.281118e-002
6.074926e+002;6.844626e-002
6.094211e+002;7.272953e-002
6.113497e+002;7.569973e-002
6.132783e+002;7.151763e-002
6.152068e+002;7.003128e-002
6.171354e+002;6.692471e-002
6.190639e+002;6.552339e-002
6.209924e+002;6.765249e-002
6.229210e+002;6.827035e-002
6.248495e+002;6.852548e-002
6.267781e+002;6.778055e-002
6.287067e+002;6.178216e-002
6.306352e+002;6.429626e-002
6.325637e+002;7.102545e-002
6.344923e+002;7.121080e-002
6.364208e+002;6.742465e-002
6.383494e+002;6.724346e-002
6.402780e+002;6.808136e-002
6.422065e+002;6.383146e-002
6.441350e+002;6.217017e-002
6.460636e+002;6.634188e-002
6.479921e+002;6.821901e-002
6.499207e+002;7.083012e-002
6.518492e+002;6.700002e-002
6.537778e+002;6.134984e-002
6.557063e+002;6.188332e-002
6.576349e+002;6.303752e-002
6.595634e+002;6.386942e-002
6.614919e+002;6.425203e-002
6.634205e+002;6.241597e-002
6.653491e+002;6.292142e-002
6.672776e+002;6.712332e-002
6.692062e+002;6.655525e-002
6.711347e+002;6.207678e-002
6.730632e+002;6.081580e-002
6.749918e+002;5.956630e-002
6.769203e+002;5.654887e-002
6.788489e+002;5.333462e-002
6.807775e+002;5.134172e-002
6.827060e+002;5.063505e-002
6.846345e+002;4.964913e-002
6.865631e+002;4.902517e-002
6.884916e+002;4.804563e-002
6.904202e+002;4.645250e-002
6.923488e+002;4.623072e-002
6.942773e+002;4.679250e-002
6.962058e+002;4.647341e-002
6.981344e+002;4.479513e-002
7.000629e+002;4.350577e-002
7.019915e+002;4.353620e-002
7.039200e+002;4.309086e-002
7.058486e+002;4.363075e-002
7.077771e+002;4.292378e-002
7.097057e+002;4.034511e-002
7.116342e+002;3.886953e-002
7.135627e+002;3.882018e-002
7.154913e+002;3.868285e-002
7.174199e+002;3.867531e-002
7.193484e+002;3.860002e-002
7.212770e+002;3.851402e-002
7.232055e+002;3.822587e-002
7.251340e+002;3.603923e-002
7.270626e+002;3.442704e-002
7.289911e+002;3.392404e-002
7.309197e+002;3.400283e-002
7.328483e+002;3.286149e-002
7.347768e+002;3.077655e-002
7.367053e+002;2.970882e-002
7.386339e+002;2.882070e-002
7.405624e+002;2.738984e-002
7.424910e+002;2.711265e-002
7.444196e+002;2.697812e-002
7.463481e+002;2.655055e-002
7.482766e+002;2.583070e-002
7.502052e+002;2.502021e-002
7.521337e+002;2.510098e-002
7.540623e+002;2.400699e-002
7.559908e+002;2.202420e-002
7.579194e+002;2.043519e-002
7.598479e+002;2.073651e-002
7.617765e+002;2.106061e-002
7.637050e+002;2.044366e-002
7.656335e+002;2.007789e-002
7.675621e+002;1.929902e-002
7.694907e+002;1.773208e-002
7.714192e+002;1.672383e-002
7.733478e+002;1.632010e-002
7.752763e+002;1.530231e-002
7.772048e+002;1.366719e-002
7.791334e+002;1.281947e-002
7.810620e+002;1.282053e-002
7.829905e+002;1.213083e-002
7.849191e+002;1.123609e-002
7.868476e+002;1.074238e-002
7.887761e+002;1.041265e-002
7.907047e+002;1.010450e-002
7.926332e+002;1.002844e-002
7.945618e+002;1.007167e-002
7.964903e+002;1.026023e-002
7.984189e+002;1.038150e-002
8.003474e+002;1.008588e-002
8.022759e+002;8.964791e-003
8.042045e+002;8.495113e-003
8.061331e+002;8.917134e-003
8.080616e+002;9.581455e-003
8.099902e+002;1.003827e-002
8.119187e+002;9.746957e-003
8.138472e+002;9.354631e-003
8.157758e+002;9.311941e-003
8.177043e+002;9.758716e-003
8.196329e+002;1.024248e-002
8.215615e+002;1.039745e-002
8.234900e+002;1.111390e-002
8.254185e+002;1.194586e-002
8.273471e+002;1.149676e-002
8.292756e+002;1.086120e-002
8.312042e+002;1.100952e-002
8.331328e+002;1.270544e-002
8.350613e+002;1.325402e-002
8.369898e+002;1.257025e-002
8.389184e+002;1.239535e-002
8.408469e+002;1.216136e-002
8.427755e+002;1.207761e-002
8.447040e+002;1.241816e-002
8.466326e+002;1.260020e-002
8.485611e+002;1.167062e-002
8.504897e+002;1.085978e-002
8.524182e+002;1.056784e-002
8.543467e+002;1.076738e-002
8.562753e+002;1.100048e-002
8.582039e+002;1.088689e-002
8.601324e+002;1.115772e-002
8.620610e+002;1.158778e-002
8.639895e+002;1.216784e-002
8.659180e+002;1.330260e-002
8.678466e+002;1.433135e-002
8.697751e+002;1.542071e-002
8.717037e+002;1.722094e-002
8.736323e+002;1.863119e-002
8.755608e+002;1.986141e-002
8.774893e+002;2.129649e-002
8.794179e+002;2.212101e-002
8.813464e+002;2.389534e-002
8.832750e+002;2.664788e-002
8.852036e+002;2.823291e-002
8.871321e+002;2.977776e-002
8.890606e+002;3.172631e-002
8.909892e+002;3.337256e-002
8.929177e+002;3.482880e-002
8.948463e+002;3.619445e-002
8.967748e+002;3.725462e-002
8.987034e+002;3.750720e-002
9.006319e+002;3.740198e-002
9.025605e+002;3.684719e-002
9.044890e+002;3.586696e-002
9.064175e+002;3.530870e-002
9.083461e+002;3.475600e-002
9.102747e+002;3.415206e-002
9.122032e+002;3.378918e-002
9.141318e+002;3.348210e-002
9.160603e+002;3.269041e-002
9.179888e+002;3.193488e-002
9.199174e+002;3.201988e-002
9.218459e+002;3.201931e-002
9.237745e+002;3.178388e-002
9.257031e+002;3.241309e-002
9.276316e+002;3.348131e-002
9.295601e+002;3.405550e-002
9.314887e+002;3.453670e-002
9.334172e+002;3.485626e-002
9.353458e+002;3.497770e-002
9.372744e+002;3.512526e-002
9.392029e+002;3.601608e-002
9.411314e+002;3.753927e-002
9.430600e+002;3.896357e-002
9.449885e+002;4.049763e-002
9.469171e+002;4.231255e-002
9.488456e+002;4.417843e-002
9.507742e+002;4.670741e-002
9.527027e+002;4.978890e-002
9.546313e+002;5.299915e-002
9.565598e+002;5.577431e-002
9.584883e+002;5.845565e-002
9.604169e+002;6.165753e-002
9.623455e+002;6.499100e-002
9.642740e+002;6.834076e-002
9.662026e+002;7.197107e-002
9.681311e+002;7.544878e-002
9.700596e+002;7.851905e-002
9.719882e+002;8.196516e-002
9.739167e+002;8.612974e-002
9.758453e+002;9.072752e-002
9.777739e+002;9.556665e-002
9.797024e+002;1.002344e-001
9.816309e+002;1.048168e-001
9.835595e+002;1.097865e-001
9.854880e+002;1.144631e-001
9.874166e+002;1.182606e-001
9.893452e+002;1.215353e-001
9.912737e+002;1.249562e-001
9.932022e+002;1.281212e-001
9.951307e+002;1.301998e-001
9.970593e+002;1.316239e-001
9.989879e+002;1.331823e-001
1.000916e+003;1.346507e-001
1.002845e+003;1.358557e-001
1.004773e+003;1.372767e-001
1.006702e+003;1.389760e-001
1.008631e+003;1.411316e-001
1.010559e+003;1.434841e-001
1.012488e+003;1.459183e-001
1.014416e+003;1.478087e-001
1.016345e+003;1.495742e-001
1.018273e+003;1.509504e-001
1.020202e+003;1.520593e-001
1.022130e+003;1.531333e-001
1.024059e+003;1.542657e-001
1.025988e+003;1.547845e-001
1.027916e+003;1.544867e-001
1.029845e+003;1.546721e-001
1.031773e+003;1.548252e-001
1.033702e+003;1.542163e-001
1.035630e+003;1.534618e-001
1.037559e+003;1.524902e-001
1.039487e+003;1.506877e-001
1.041416e+003;1.488108e-001
1.043344e+003;1.470139e-001
1.045273e+003;1.456076e-001
1.047202e+003;1.441071e-001
1.049130e+003;1.422110e-001
1.051059e+003;1.405768e-001
1.052987e+003;1.392468e-001
1.054916e+003;1.371940e-001
1.056844e+003;1.348764e-001
1.058773e+003;1.327381e-001
1.060701e+003;1.301332e-001
1.062630e+003;1.271280e-001
1.064558e+003;1.242287e-001
1.066487e+003;1.223153e-001
1.068416e+003;1.208197e-001
1.070344e+003;1.189549e-001
1.072273e+003;1.164504e-001
1.074201e+003;1.137530e-001
1.076130e+003;1.117544e-001
1.078058e+003;1.099290e-001
1.079987e+003;1.077044e-001
1.081915e+003;1.052002e-001
1.083844e+003;1.036788e-001
1.085773e+003;1.026765e-001
1.087701e+003;1.011095e-001
1.089630e+003;9.993752e-002
1.091558e+003;9.881829e-002
1.093487e+003;9.743924e-002
1.095415e+003;9.712287e-002
1.097344e+003;9.604748e-002
1.099272e+003;9.385859e-002
1.101201e+003;9.152623e-002
1.103129e+003;9.014409e-002
1.105058e+003;8.909701e-002
1.106987e+003;8.830396e-002
1.108915e+003;8.657432e-002
1.110844e+003;8.411890e-002
1.112772e+003;8.174069e-002
1.114701e+003;7.976703e-002
1.116629e+003;7.778577e-002
1.118558e+003;7.625296e-002
1.120486e+003;7.460345e-002
1.122415e+003;7.226431e-002
1.124344e+003;6.987854e-002
1.126272e+003;6.746350e-002
1.128201e+003;6.489646e-002
1.130129e+003;6.217988e-002
1.132058e+003;5.958138e-002
1.133986e+003;5.735492e-002
1.135915e+003;5.490786e-002
1.137843e+003;5.228795e-002
1.139772e+003;5.078594e-002
1.141700e+003;4.941828e-002
1.143629e+003;4.789436e-002
1.145557e+003;4.730166e-002
1.147486e+003;4.697119e-002
1.149415e+003;4.665790e-002
1.151343e+003;4.630901e-002
1.153272e+003;4.582789e-002
1.155200e+003;4.548507e-002
1.157129e+003;4.503334e-002
1.159057e+003;4.419747e-002
1.160986e+003;4.294847e-002
1.162914e+003;4.194074e-002
1.164843e+003;4.110027e-002
1.166771e+003;3.918051e-002
1.168700e+003;3.734893e-002
1.170629e+003;3.577643e-002
1.172557e+003;3.389742e-002
1.174486e+003;3.222320e-002
1.176414e+003;3.113440e-002
1.178343e+003;3.009664e-002
1.180271e+003;2.882021e-002
1.182200e+003;2.816839e-002
1.184128e+003;2.829957e-002
1.186057e+003;2.837480e-002
1.187986e+003;2.876282e-002
1.189914e+003;2.960679e-002
1.191843e+003;3.060422e-002
1.193771e+003;3.188571e-002
1.195700e+003;3.343074e-002
1.197628e+003;3.472743e-002
1.199557e+003;3.562775e-002
1.201485e+003;3.635330e-002
1.203414e+003;3.703886e-002
1.205343e+003;3.762259e-002
1.207271e+003;3.856768e-002
1.209200e+003;3.950076e-002
1.211128e+003;4.050727e-002
1.213057e+003;4.179056e-002
1.214985e+003;4.297324e-002
1.216914e+003;4.447008e-002
1.218842e+003;4.609235e-002
1.220771e+003;4.777321e-002
1.222699e+003;4.978983e-002
1.224628e+003;5.165605e-002
1.226557e+003;5.284278e-002
1.228485e+003;5.372115e-002
1.230414e+003;5.438607e-002
1.232342e+003;5.482891e-002
1.234271e+003;5.527014e-002
1.236199e+003;5.532850e-002
1.238128e+003;5.498299e-002
1.240056e+003;5.442543e-002
1.241985e+003;5.395133e-002
1.243913e+003;5.354600e-002
1.245842e+003;5.320333e-002
1.247771e+003;5.246450e-002
1.249699e+003;5.143212e-002
1.251628e+003;5.036889e-002
1.253556e+003;4.934678e-002
1.255485e+003;4.845442e-002
1.257413e+003;4.811152e-002
1.259342e+003;4.736415e-002
1.261270e+003;4.584468e-002
1.263199e+003;4.458201e-002
1.265127e+003;4.392962e-002
1.267056e+003;4.287605e-002
1.268985e+003;4.115593e-002
1.270913e+003;3.941929e-002
1.272842e+003;3.782606e-002
1.274770e+003;3.640407e-002
1.276699e+003;3.514642e-002
1.278627e+003;3.381686e-002
1.280556e+003;3.228733e-002
1.282484e+003;3.108695e-002
1.284413e+003;3.034960e-002
1.286342e+003;2.950826e-002
1.288270e+003;2.861737e-002
1.290199e+003;2.810762e-002
1.292127e+003;2.816358e-002
1.294056e+003;2.841792e-002
1.295984e+003;2.855834e-002
1.297913e+003;2.874756e-002
1.299841e+003;2.926764e-002
1.301770e+003;2.977084e-002
1.303698e+003;2.988778e-002
1.305627e+003;3.036001e-002
1.307556e+003;3.106495e-002
1.309484e+003;3.191206e-002
1.311413e+003;3.268765e-002
1.313341e+003;3.319291e-002
1.315270e+003;3.374459e-002
1.317198e+003;3.418310e-002
1.319127e+003;3.444444e-002
1.321055e+003;3.457172e-002
1.322984e+003;3.451722e-002
1.324912e+003;3.419644e-002
1.326841e+003;3.423433e-002
1.328770e+003;3.444860e-002
1.330698e+003;3.435596e-002
1.332627e+003;3.383080e-002
1.334555e+003;3.304054e-002
1.336484e+003;3.224519e-002
1.338412e+003;3.187259e-002
1.340341e+003;3.155539e-002
1.342269e+003;3.092468e-002
1.344198e+003;3.037976e-002
1.346126e+003;2.979689e-002
1.348055e+003;2.913538e-002
1.349984e+003;2.891557e-002
1.351912e+003;2.913927e-002
1.353841e+003;2.953691e-002
1.355769e+003;3.007207e-002
1.357698e+003;3.059431e-002
1.359626e+003;3.104488e-002
1.361555e+003;3.158083e-002
1.363483e+003;3.216026e-002
1.365412e+003;3.239007e-002
1.367341e+003;3.232463e-002
1.369269e+003;3.209307e-002
1.371198e+003;3.173747e-002
1.373126e+003;3.138824e-002
1.375055e+003;3.056778e-002
1.376983e+003;2.962871e-002
1.378912e+003;2.860576e-002
1.380840e+003;2.734386e-002
1.382769e+003;2.593448e-002
1.384698e+003;2.470885e-002
1.386626e+003;2.361928e-002
1.388555e+003;2.283613e-002
1.390483e+003;2.218084e-002
1.392412e+003;2.150095e-002
1.394340e+003;2.105933e-002
1.396269e+003;2.090389e-002
1.398197e+003;2.078315e-002
1.400126e+003;2.087218e-002
1.402054e+003;2.127906e-002
1.403983e+003;2.189893e-002
1.405911e+003;2.219067e-002
1.407840e+003;2.249800e-002
1.409769e+003;2.316753e-002
1.411697e+003;2.398605e-002
1.413626e+003;2.480124e-002
1.415554e+003;2.563153e-002
1.417483e+003;2.612576e-002
1.419411e+003;2.648803e-002
1.421340e+003;2.670062e-002
1.423268e+003;2.650797e-002
1.425197e+003;2.609008e-002
1.427125e+003;2.577356e-002
1.429054e+003;2.525354e-002
1.430983e+003;2.453481e-002
1.432911e+003;2.356082e-002
1.434840e+003;2.253216e-002
1.436768e+003;2.193368e-002
1.438697e+003;2.174243e-002
1.440625e+003;2.151547e-002
1.442554e+003;2.124732e-002
1.444482e+003;2.097385e-002
1.446411e+003;2.108774e-002
1.448340e+003;2.153131e-002
1.450268e+003;2.187608e-002
1.452197e+003;2.184865e-002
1.454125e+003;2.190834e-002
1.456054e+003;2.168063e-002
1.457982e+003;2.118581e-002
1.459911e+003;2.104764e-002
1.461839e+003;2.070906e-002
1.463768e+003;1.957286e-002
1.465697e+003;1.827123e-002
1.467625e+003;1.693524e-002
1.469554e+003;1.537944e-002
1.471482e+003;1.400108e-002
1.473411e+003;1.235485e-002
1.475339e+003;1.033453e-002
1.477268e+003;8.334850e-003
1.479196e+003;6.636368e-003
1.481125e+003;5.172688e-003
1.483053e+003;4.077471e-003
1.484982e+003;3.345140e-003
1.486911e+003;2.762571e-003
1.488839e+003;2.297451e-003
1.490768e+003;1.827038e-003
1.492696e+003;2.003957e-003
1.494625e+003;2.611009e-003
1.496553e+003;3.213336e-003
1.498482e+003;3.836054e-003
1.500410e+003;4.431614e-003
1.502339e+003;4.861196e-003
1.504267e+003;5.039155e-003
1.506196e+003;4.821525e-003
1.508125e+003;4.242327e-003
1.510053e+003;3.570082e-003
1.511982e+003;2.650611e-003
1.513910e+003;1.520695e-003
1.515839e+003;1.944741e-004
1.517767e+003;-1.188150e-003
1.519696e+003;-2.335161e-003
1.521624e+003;-3.667156e-003
1.523553e+003;-5.105090e-003
1.525481e+003;-6.112360e-003
1.527410e+003;-6.944867e-003
1.529339e+003;-7.782909e-003
1.531267e+003;-8.361086e-003
1.533196e+003;-8.926354e-003
1.535124e+003;-9.162145e-003
1.537053e+003;-9.498182e-003
1.538981e+003;-1.007518e-002
1.540910e+003;-1.031151e-002
1.542838e+003;-1.029194e-002
1.544767e+003;-1.030705e-002
1.546695e+003;-1.048588e-002
1.548624e+003;-1.048084e-002
1.550553e+003;-1.052466e-002
1.552481e+003;-1.047663e-002
1.554410e+003;-1.033290e-002
1.556338e+003;-1.044820e-002
1.558267e+003;-1.039072e-002
1.560195e+003;-1.007088e-002
1.562124e+003;-9.798910e-003
1.564052e+003;-9.395115e-003
1.565981e+003;-8.950504e-003
1.567910e+003;-8.425469e-003
1.569838e+003;-7.598174e-003
1.571767e+003;-6.359413e-003
1.573695e+003;-5.334061e-003
1.575624e+003;-4.414205e-003
1.577552e+003;-2.910363e-003
1.579481e+003;-1.359844e-003
1.581409e+003;7.568474e-005
1.583338e+003;1.806076e-003
1.585266e+003;3.608268e-003
1.587195e+003;5.212894e-003
1.589124e+003;6.802030e-003
1.591052e+003;8.275543e-003
1.592981e+003;9.251181e-003
1.594909e+003;9.874556e-003
1.596838e+003;1.009212e-002
1.598766e+003;1.005316e-002
1.600695e+003;9.746516e-003
1.602623e+003;9.175370e-003
1.604552e+003;8.628125e-003
1.606480e+003;8.336336e-003
1.608409e+003;7.984868e-003
1.610338e+003;7.493223e-003
1.612266e+003;7.182185e-003
1.614195e+003;7.082215e-003
1.616123e+003;6.939978e-003
1.618052e+003;6.911025e-003
1.619980e+003;7.090331e-003
1.621909e+003;7.281099e-003
1.623837e+003;7.480885e-003
1.625766e+003;7.302125e-003
1.627694e+003;6.960921e-003
1.629623e+003;7.053622e-003
1.631552e+003;7.313076e-003
1.633480e+003;7.402753e-003
1.635409e+003;7.474548e-003
1.637337e+003;7.805732e-003
1.639266e+003;8.135414e-003
1.641194e+003;8.490451e-003
1.643123e+003;8.787009e-003
1.645051e+003;8.770476e-003
1.646980e+003;8.587095e-003
1.648909e+003;8.624103e-003
1.650837e+003;8.543028e-003
1.652766e+003;8.092472e-003
1.654694e+003;7.807520e-003
1.656623e+003;7.763836e-003
1.658551e+003;7.731825e-003
1.660480e+003;7.424223e-003
1.662408e+003;6.746264e-003
1.664337e+003;5.874154e-003
1.666266e+003;5.303747e-003
1.668194e+003;4.910555e-003
1.670123e+003;4.348239e-003
1.672051e+003;3.706005e-003
1.673980e+003;2.714990e-003
1.675908e+003;2.039077e-003
1.677837e+003;1.747721e-003
1.679765e+003;1.059360e-003
1.681694e+003;9.769014e-005
1.683622e+003;-5.539128e-004
1.685551e+003;-8.683366e-004
1.687479e+003;-1.229816e-003
1.689408e+003;-1.417313e-003
1.691337e+003;-1.369654e-003
1.693265e+003;-1.397728e-003
1.695194e+003;-1.309766e-003
1.697122e+003;-1.071822e-003
1.699051e+003;-5.804847e-004
1.700979e+003;1.699115e-004
1.702908e+003;1.042653e-003
1.704836e+003;2.230969e-003
1.706765e+003;3.659322e-003
1.708693e+003;5.115589e-003
1.710622e+003;6.825153e-003
1.712551e+003;8.320732e-003
1.714479e+003;9.684340e-003
1.716408e+003;1.104487e-002
1.718336e+003;1.222730e-002
1.720265e+003;1.364059e-002
1.722193e+003;1.499613e-002
1.724122e+003;1.610063e-002
1.726050e+003;1.673960e-002
1.727979e+003;1.694310e-002
1.729908e+003;1.730058e-002
1.731836e+003;1.780357e-002
1.733765e+003;1.787631e-002
1.735693e+003;1.770181e-002
1.737622e+003;1.743001e-002
1.739550e+003;1.702648e-002
1.741479e+003;1.653620e-002
1.743407e+003;1.588000e-002
1.745336e+003;1.461415e-002
1.747265e+003;1.286207e-002
1.749193e+003;1.129301e-002
1.751122e+003;9.925336e-003
1.753050e+003;8.271355e-003
1.754979e+003;6.423485e-003
1.756907e+003;4.531947e-003
1.758836e+003;2.269405e-003
1.760764e+003;-3.038985e-004
1.762693e+003;-2.620239e-003
1.764621e+003;-4.829668e-003
1.766550e+003;-7.187895e-003
1.768479e+003;-9.399655e-003
1.770407e+003;-1.151068e-002
1.772336e+003;-1.340422e-002
1.774264e+003;-1.504172e-002
1.776193e+003;-1.655368e-002
1.778121e+003;-1.786885e-002
1.780050e+003;-1.912178e-002
1.781978e+003;-2.037944e-002
1.783907e+003;-2.142846e-002
1.785835e+003;-2.216751e-002
1.787764e+003;-2.268605e-002
1.789693e+003;-2.337888e-002
1.791621e+003;-2.389184e-002
1.793550e+003;-2.416763e-002
1.795478e+003;-2.467004e-002
1.797407e+003;-2.505238e-002
1.799335e+003;-2.525197e-002
1.801264e+003;-2.554374e-002
1.803192e+003;-2.559191e-002
1.805121e+003;-2.555917e-002
1.807049e+003;-2.583275e-002
1.808978e+003;-2.629123e-002
1.810907e+003;-2.638351e-002
1.812835e+003;-2.644699e-002
1.814764e+003;-2.653724e-002
1.816692e+003;-2.660624e-002
1.818621e+003;-2.685972e-002
1.820549e+003;-2.701630e-002
1.822478e+003;-2.692815e-002
1.824406e+003;-2.685166e-002
1.826335e+003;-2.701048e-002
1.828264e+003;-2.708691e-002
1.830192e+003;-2.710027e-002
1.832121e+003;-2.729503e-002
1.834049e+003;-2.716529e-002
1.835978e+003;-2.692226e-002
1.837906e+003;-2.694269e-002
1.839835e+003;-2.715767e-002
1.841763e+003;-2.746785e-002
1.843692e+003;-2.761929e-002
1.845620e+003;-2.756149e-002
1.847549e+003;-2.765377e-002
1.849478e+003;-2.763372e-002
1.851406e+003;-2.758459e-002
1.853335e+003;-2.781780e-002
1.855263e+003;-2.799094e-002
1.857192e+003;-2.784217e-002
1.859120e+003;-2.753773e-002
1.861049e+003;-2.748228e-002
1.862977e+003;-2.782004e-002
1.864906e+003;-2.809217e-002
1.866834e+003;-2.816282e-002
1.868763e+003;-2.829320e-002
1.870692e+003;-2.826088e-002
1.872620e+003;-2.812133e-002
1.874549e+003;-2.803170e-002
1.876477e+003;-2.779959e-002
1.878406e+003;-2.761214e-002
1.880334e+003;-2.746408e-002
1.882263e+003;-2.764777e-002
1.884191e+003;-2.801073e-002
1.886120e+003;-2.821872e-002
1.888048e+003;-2.830794e-002
1.889977e+003;-2.853397e-002
1.891906e+003;-2.875734e-002
1.893834e+003;-2.874934e-002
1.895763e+003;-2.857303e-002
1.897691e+003;-2.831381e-002
1.899620e+003;-2.823787e-002
1.901548e+003;-2.846503e-002
1.903477e+003;-2.839417e-002
1.905405e+003;-2.811727e-002
1.907334e+003;-2.822368e-002
1.909262e+003;-2.834504e-002
1.911191e+003;-2.823601e-002
1.913120e+003;-2.790907e-002
1.915048e+003;-2.763326e-002
1.916977e+003;-2.765374e-002
1.918905e+003;-2.769487e-002
1.920834e+003;-2.780488e-002
1.922762e+003;-2.783627e-002
1.924691e+003;-2.793371e-002
1.926619e+003;-2.796273e-002
1.928548e+003;-2.780168e-002
1.930477e+003;-2.754240e-002
1.932405e+003;-2.744100e-002
1.934334e+003;-2.759122e-002
1.936262e+003;-2.786526e-002
1.938191e+003;-2.790162e-002
1.940119e+003;-2.772708e-002
1.942048e+003;-2.764047e-002
1.943976e+003;-2.751319e-002
1.945905e+003;-2.735182e-002
1.947833e+003;-2.730306e-002
1.949762e+003;-2.733246e-002
1.951691e+003;-2.734612e-002
1.953619e+003;-2.723426e-002
1.955548e+003;-2.716439e-002
1.957476e+003;-2.704342e-002
1.959405e+003;-2.731258e-002
1.961333e+003;-2.759905e-002
1.963262e+003;-2.722044e-002
1.965190e+003;-2.689663e-002
1.967119e+003;-2.718291e-002
1.969047e+003;-2.749369e-002
1.970976e+003;-2.724749e-002
1.972905e+003;-2.719994e-002
1.974833e+003;-2.732478e-002
1.976762e+003;-2.729814e-002
1.978690e+003;-2.708962e-002
1.980619e+003;-2.704794e-002
1.982547e+003;-2.724525e-002
1.984476e+003;-2.720143e-002
1.986404e+003;-2.714357e-002
1.988333e+003;-2.715960e-002
1.990261e+003;-2.674568e-002
1.992190e+003;-2.631456e-002
1.994119e+003;-2.630674e-002
1.996047e+003;-2.643633e-002
1.997976e+003;-2.665065e-002
1.999904e+003;-2.668960e-002
2.001833e+003;-2.660577e-002
2.003761e+003;-2.643408e-002
2.005690e+003;-2.637893e-002
2.007618e+003;-2.633433e-002
2.009547e+003;-2.623063e-002
2.011476e+003;-2.604013e-002
2.013404e+003;-2.587359e-002
2.015333e+003;-2.574514e-002
2.017261e+003;-2.555392e-002
2.019190e+003;-2.554037e-002
2.021118e+003;-2.527901e-002
2.023047e+003;-2.479349e-002
2.024975e+003;-2.478698e-002
2.026904e+003;-2.492519e-002
2.028833e+003;-2.496373e-002
2.030761e+003;-2.478122e-002
2.032690e+003;-2.470992e-002
2.034618e+003;-2.482853e-002
2.036547e+003;-2.476882e-002
2.038475e+003;-2.477590e-002
2.040404e+003;-2.474369e-002
2.042332e+003;-2.446761e-002
2.044261e+003;-2.451427e-002
2.046189e+003;-2.477020e-002
2.048118e+003;-2.453973e-002
2.050047e+003;-2.415678e-002
2.051975e+003;-2.424654e-002
2.053904e+003;-2.440108e-002
2.055832e+003;-2.448875e-002
2.057761e+003;-2.448371e-002
2.059689e+003;-2.418085e-002
2.061618e+003;-2.424372e-002
2.063546e+003;-2.445518e-002
2.065475e+003;-2.420047e-002
2.067404e+003;-2.394047e-002
2.069332e+003;-2.401482e-002
2.071260e+003;-2.427496e-002
2.073189e+003;-2.442498e-002
2.075118e+003;-2.436183e-002
2.077046e+003;-2.402607e-002
2.078975e+003;-2.392947e-002
2.080903e+003;-2.402999e-002
2.082832e+003;-2.394916e-002
2.084760e+003;-2.380584e-002
2.086689e+003;-2.376101e-002
2.088617e+003;-2.405698e-002
2.090546e+003;-2.404949e-002
2.092475e+003;-2.380725e-002
2.094403e+003;-2.380847e-002
2.096332e+003;-2.394784e-002
2.098260e+003;-2.412883e-002
2.100189e+003;-2.429350e-002
2.102117e+003;-2.431916e-002
2.104046e+003;-2.411334e-002
2.105974e+003;-2.377896e-002
2.107903e+003;-2.376663e-002
2.109832e+003;-2.409852e-002
2.111760e+003;-2.416572e-002
2.113688e+003;-2.392555e-002
2.115617e+003;-2.379809e-002
2.117546e+003;-2.383934e-002
2.119474e+003;-2.393922e-002
2.121403e+003;-2.383008e-002
2.123331e+003;-2.371944e-002
2.125260e+003;-2.376726e-002
2.127188e+003;-2.372613e-002
2.129117e+003;-2.398023e-002
2.131045e+003;-2.405717e-002
2.132974e+003;-2.365616e-002
2.134903e+003;-2.336309e-002
2.136831e+003;-2.346522e-002
2.138760e+003;-2.378680e-002
2.140688e+003;-2.397497e-002
2.142617e+003;-2.403215e-002
2.144545e+003;-2.415146e-002
2.146474e+003;-2.410974e-002
2.148402e+003;-2.411560e-002
2.150331e+003;-2.419464e-002
2.152260e+003;-2.396387e-002
2.154188e+003;-2.390281e-002
2.156117e+003;-2.426869e-002
2.158045e+003;-2.438376e-002
2.159974e+003;-2.437095e-002
2.161902e+003;-2.433574e-002
2.163831e+003;-2.403077e-002
2.165759e+003;-2.382563e-002
2.167688e+003;-2.403519e-002
2.169616e+003;-2.424033e-002
2.171545e+003;-2.436713e-002
2.173474e+003;-2.458272e-002
2.175402e+003;-2.482522e-002
2.177331e+003;-2.467949e-002
2.179259e+003;-2.445962e-002
2.181188e+003;-2.461748e-002
2.183116e+003;-2.492362e-002
2.185045e+003;-2.490388e-002
2.186973e+003;-2.476973e-002
2.188902e+003;-2.479593e-002
2.190831e+003;-2.472256e-002
2.192759e+003;-2.469261e-002
2.194688e+003;-2.481198e-002
2.196616e+003;-2.493802e-002
2.198545e+003;-2.500743e-002
2.200473e+003;-2.508625e-002
2.202402e+003;-2.496967e-002
2.204330e+003;-2.476767e-002
2.206259e+003;-2.469612e-002
2.208188e+003;-2.469627e-002
2.210116e+003;-2.481689e-002
2.212044e+003;-2.490213e-002
2.213973e+003;-2.489859e-002
2.215902e+003;-2.488536e-002
2.217830e+003;-2.483598e-002
2.219759e+003;-2.480669e-002
2.221687e+003;-2.483489e-002
2.223616e+003;-2.478447e-002
2.225544e+003;-2.448944e-002
2.227473e+003;-2.435193e-002
2.229401e+003;-2.446416e-002
2.231330e+003;-2.457922e-002
2.233259e+003;-2.454549e-002
2.235187e+003;-2.474576e-002
2.237116e+003;-2.518900e-002
2.239044e+003;-2.505779e-002
2.240973e+003;-2.467558e-002
2.242901e+003;-2.442082e-002
2.244830e+003;-2.429081e-002
2.246758e+003;-2.428567e-002
2.248687e+003;-2.429482e-002
2.250615e+003;-2.441302e-002
2.252544e+003;-2.423165e-002
2.254473e+003;-2.412820e-002
2.256401e+003;-2.444277e-002
2.258330e+003;-2.444083e-002
2.260258e+003;-2.422212e-002
2.262187e+003;-2.423303e-002
2.264115e+003;-2.414180e-002
2.266044e+003;-2.414299e-002
2.267972e+003;-2.435228e-002
2.269901e+003;-2.430137e-002
2.271830e+003;-2.408303e-002
2.273758e+003;-2.396205e-002
2.275687e+003;-2.415556e-002
2.277615e+003;-2.439645e-002
2.279544e+003;-2.437443e-002
2.281472e+003;-2.431293e-002
2.283401e+003;-2.407519e-002
2.285329e+003;-2.375656e-002
2.287258e+003;-2.370636e-002
2.289187e+003;-2.392251e-002
2.291115e+003;-2.395327e-002
2.293043e+003;-2.383582e-002
2.294972e+003;-2.388603e-002
2.296901e+003;-2.390833e-002
2.298829e+003;-2.375295e-002
2.300758e+003;-2.371574e-002
2.302686e+003;-2.374210e-002
2.304615e+003;-2.360818e-002
2.306543e+003;-2.363821e-002
2.308472e+003;-2.400666e-002
2.310400e+003;-2.394499e-002
2.312329e+003;-2.336651e-002
2.314258e+003;-2.344362e-002
2.316186e+003;-2.372334e-002
2.318115e+003;-2.352881e-002
2.320043e+003;-2.332758e-002
2.321972e+003;-2.346889e-002
2.323900e+003;-2.356280e-002
2.325829e+003;-2.356064e-002
2.327757e+003;-2.343678e-002
2.329686e+003;-2.298643e-002
2.331615e+003;-2.282047e-002
2.333543e+003;-2.309188e-002
2.335472e+003;-2.299950e-002
2.337400e+003;-2.285486e-002
2.339329e+003;-2.293658e-002
2.341257e+003;-2.286621e-002
2.343186e+003;-2.276507e-002
2.345114e+003;-2.287604e-002
2.347043e+003;-2.273573e-002
2.348971e+003;-2.266608e-002
2.350900e+003;-2.268404e-002
2.352829e+003;-2.244484e-002
2.354757e+003;-2.238574e-002
2.356686e+003;-2.232529e-002
2.358614e+003;-2.233385e-002
2.360543e+003;-2.249137e-002
2.362471e+003;-2.245324e-002
2.364400e+003;-2.220643e-002
2.366328e+003;-2.196624e-002
2.368257e+003;-2.191171e-002
2.370186e+003;-2.190113e-002
2.372114e+003;-2.190201e-002
2.374042e+003;-2.194060e-002
2.375971e+003;-2.163004e-002
2.377900e+003;-2.127162e-002
2.379828e+003;-2.127244e-002
2.381757e+003;-2.121091e-002
2.383685e+003;-2.115241e-002
2.385614e+003;-2.106353e-002
2.387542e+003;-2.108518e-002
2.389471e+003;-2.090286e-002
2.391399e+003;-2.051578e-002
2.393328e+003;-2.037669e-002
2.395257e+003;-2.054988e-002
2.397185e+003;-2.060085e-002
2.399114e+003;-2.080796e-002
2.401042e+003;-2.073418e-002
2.402971e+003;-2.027586e-002
2.404899e+003;-2.016121e-002
2.406828e+003;-2.033480e-002
2.408756e+003;-2.011746e-002
2.410685e+003;-1.951999e-002
2.412614e+003;-1.932979e-002
2.414542e+003;-1.956015e-002
2.416471e+003;-1.982994e-002
2.418399e+003;-1.957089e-002
2.420328e+003;-1.927714e-002
2.422256e+003;-1.934269e-002
2.424185e+003;-1.939316e-002
2.426113e+003;-1.931163e-002
2.428042e+003;-1.912178e-002
2.429970e+003;-1.901688e-002
2.431899e+003;-1.886998e-002
2.433828e+003;-1.880964e-002
2.435756e+003;-1.877267e-002
2.437685e+003;-1.879701e-002
2.439613e+003;-1.881586e-002
2.441542e+003;-1.845720e-002
2.443470e+003;-1.813111e-002
2.445399e+003;-1.816355e-002
2.447327e+003;-1.834474e-002
2.449256e+003;-1.819593e-002
2.451185e+003;-1.778865e-002
2.453113e+003;-1.763131e-002
2.455042e+003;-1.780245e-002
2.456970e+003;-1.790745e-002
2.458899e+003;-1.768833e-002
2.460827e+003;-1.753856e-002
2.462756e+003;-1.739696e-002
2.464684e+003;-1.710097e-002
2.466613e+003;-1.719831e-002
2.468542e+003;-1.728693e-002
2.470470e+003;-1.727983e-002
2.472398e+003;-1.755218e-002
2.474327e+003;-1.741466e-002
2.476256e+003;-1.699444e-002
2.478184e+003;-1.667158e-002
2.480113e+003;-1.629739e-002
2.482041e+003;-1.613693e-002
2.483970e+003;-1.638241e-002
2.485898e+003;-1.651624e-002
2.487827e+003;-1.596530e-002
2.489755e+003;-1.565047e-002
2.491684e+003;-1.575341e-002
2.493613e+003;-1.584967e-002
2.495541e+003;-1.604345e-002
2.497470e+003;-1.612860e-002
2.499398e+003;-1.605481e-002
2.501327e+003;-1.604600e-002
2.503255e+003;-1.587028e-002
2.505184e+003;-1.557810e-002
2.507112e+003;-1.531219e-002
2.509041e+003;-1.537286e-002
2.510969e+003;-1.539426e-002
2.512898e+003;-1.494355e-002
2.514827e+003;-1.445722e-002
2.516755e+003;-1.458069e-002
2.518684e+003;-1.493923e-002
2.520612e+003;-1.480975e-002
2.522541e+003;-1.451676e-002
2.524469e+003;-1.452304e-002
2.526398e+003;-1.448725e-002
2.528326e+003;-1.454147e-002
2.530255e+003;-1.467731e-002
2.532184e+003;-1.447799e-002
2.534112e+003;-1.441078e-002
2.536041e+003;-1.443418e-002
2.537969e+003;-1.435680e-002
2.539898e+003;-1.439828e-002
2.541826e+003;-1.456316e-002
2.543755e+003;-1.454262e-002
2.545683e+003;-1.428992e-002
2.547612e+003;-1.394975e-002
2.549541e+003;-1.375471e-002
2.551469e+003;-1.387331e-002
2.553397e+003;-1.404073e-002
2.555326e+003;-1.391134e-002
2.557255e+003;-1.371619e-002
2.559183e+003;-1.373266e-002
2.561112e+003;-1.361983e-002
2.563040e+003;-1.317329e-002
2.564969e+003;-1.318049e-002
2.566897e+003;-1.357542e-002
2.568826e+003;-1.347120e-002
2.570754e+003;-1.322758e-002
2.572683e+003;-1.305720e-002
2.574612e+003;-1.298215e-002
2.576540e+003;-1.293752e-002
2.578469e+003;-1.264211e-002
2.580397e+003;-1.273707e-002
2.582326e+003;-1.281940e-002
2.584254e+003;-1.252752e-002
2.586183e+003;-1.236251e-002
2.588111e+003;-1.248129e-002
2.590040e+003;-1.241355e-002
2.591969e+003;-1.214549e-002
2.593897e+003;-1.198707e-002
2.595826e+003;-1.213351e-002
2.597754e+003;-1.245286e-002
2.599683e+003;-1.215168e-002
2.601611e+003;-1.190210e-002
2.603540e+003;-1.209896e-002
2.605468e+003;-1.184935e-002
2.607397e+003;-1.141770e-002
2.609325e+003;-1.134921e-002
2.611254e+003;-1.128006e-002
2.613183e+003;-1.099561e-002
2.615111e+003;-1.070592e-002
2.617040e+003;-1.040120e-002
2.618968e+003;-1.050251e-002
2.620897e+003;-1.065481e-002
2.622825e+003;-1.026272e-002
2.624754e+003;-1.007670e-002
2.626682e+003;-1.050076e-002
2.628611e+003;-1.082397e-002
2.630540e+003;-1.023537e-002
2.632468e+003;-9.591080e-003
2.634396e+003;-9.627443e-003
2.636325e+003;-9.550144e-003
2.638254e+003;-9.143944e-003
2.640182e+003;-9.034790e-003
2.642111e+003;-9.022004e-003
2.644039e+003;-9.068700e-003
2.645968e+003;-9.178462e-003
2.647896e+003;-8.973776e-003
2.649825e+003;-8.398918e-003
2.651753e+003;-8.251930e-003
2.653682e+003;-8.272801e-003
2.655611e+003;-8.020882e-003
2.657539e+003;-7.805300e-003
2.659468e+003;-7.665371e-003
2.661396e+003;-7.608300e-003
2.663325e+003;-7.254667e-003
2.665253e+003;-6.833691e-003
2.667182e+003;-7.028271e-003
2.669110e+003;-6.959443e-003
2.671039e+003;-7.007699e-003
2.672968e+003;-7.160095e-003
2.674896e+003;-6.726793e-003
2.676825e+003;-6.446194e-003
2.678753e+003;-6.647442e-003
2.680682e+003;-6.433135e-003
2.682610e+003;-5.992474e-003
2.684539e+003;-6.044987e-003
2.686467e+003;-6.161429e-003
2.688396e+003;-5.926520e-003
2.690324e+003;-5.571580e-003
2.692253e+003;-5.414732e-003
2.694182e+003;-5.361062e-003
2.696110e+003;-5.042408e-003
2.698039e+003;-4.763603e-003
2.699967e+003;-4.797915e-003
2.701896e+003;-4.695103e-003
2.703824e+003;-4.706968e-003
2.705753e+003;-4.499146e-003
2.707681e+003;-4.176577e-003
2.709610e+003;-4.134438e-003
2.711539e+003;-4.202600e-003
2.713467e+003;-4.287746e-003
2.715396e+003;-4.451660e-003
2.717324e+003;-3.906639e-003
2.719253e+003;-3.246831e-003
2.721181e+003;-2.953608e-003
2.723110e+003;-2.874782e-003
2.725038e+003;-2.828797e-003
2.726967e+003;-2.369599e-003
2.728896e+003;-2.207535e-003
2.730824e+003;-2.260541e-003
2.732752e+003;-2.193920e-003
2.734681e+003;-2.143609e-003
2.736610e+003;-2.155182e-003
2.738538e+003;-1.892166e-003
2.740467e+003;-1.507465e-003
2.742395e+003;-1.347358e-003
2.744324e+003;-1.637937e-003
2.746252e+003;-1.492771e-003
2.748181e+003;-1.046602e-003
2.750109e+003;-9.533127e-004
2.752038e+003;-9.919597e-004
2.753967e+003;-1.011596e-003
2.755895e+003;-9.288135e-004
2.757824e+003;-8.236927e-004
2.759752e+003;-7.983594e-004
2.761681e+003;-5.518611e-004
2.763609e+003;-3.444574e-004
2.765538e+003;-3.178048e-004
2.767466e+003;-3.720353e-004
2.769395e+003;-2.044883e-004
2.771323e+003;2.915805e-006
2.773252e+003;-2.127153e-005
2.775181e+003;1.563214e-004
2.777109e+003;9.621177e-004
2.779038e+003;1.527977e-003
2.780966e+003;1.237994e-003
2.782895e+003;1.460616e-003
2.784823e+003;1.757568e-003
2.786752e+003;1.642275e-003
2.788680e+003;2.095341e-003
2.790609e+003;2.341855e-003
2.792538e+003;2.599509e-003
2.794466e+003;2.936769e-003
2.796395e+003;3.097055e-003
2.798323e+003;3.395729e-003
2.800252e+003;3.587354e-003
2.802180e+003;3.935781e-003
2.804109e+003;4.244769e-003
2.806037e+003;4.474530e-003
2.807966e+003;4.678387e-003
2.809895e+003;5.067481e-003
2.811823e+003;5.541821e-003
2.813751e+003;5.820824e-003
2.815680e+003;5.849134e-003
2.817609e+003;6.000453e-003
2.819537e+003;6.242438e-003
2.821466e+003;6.986173e-003
2.823394e+003;7.995061e-003
2.825323e+003;8.428724e-003
2.827251e+003;8.883551e-003
2.829180e+003;9.450758e-003
2.831108e+003;9.948083e-003
2.833037e+003;1.041173e-002
2.834966e+003;1.115823e-002
2.836894e+003;1.165820e-002
2.838823e+003;1.211151e-002
2.840751e+003;1.308049e-002
2.842680e+003;1.379735e-002
2.844608e+003;1.448237e-002
2.846537e+003;1.536798e-002
2.848465e+003;1.631917e-002
2.850394e+003;1.736293e-002
2.852323e+003;1.811789e-002
2.854251e+003;1.868878e-002
2.856180e+003;1.940908e-002
2.858108e+003;2.019180e-002
2.860037e+003;2.114493e-002
2.861965e+003;2.222108e-002
2.863894e+003;2.347786e-002
2.865822e+003;2.428831e-002
2.867751e+003;2.469012e-002
2.869679e+003;2.513127e-002
2.871608e+003;2.555492e-002
2.873536e+003;2.567442e-002
2.875465e+003;2.595734e-002
2.877394e+003;2.673082e-002
2.879322e+003;2.716862e-002
2.881251e+003;2.740205e-002
2.883179e+003;2.777285e-002
2.885108e+003;2.789091e-002
2.887036e+003;2.775851e-002
2.888965e+003;2.806898e-002
2.890893e+003;2.845966e-002
2.892822e+003;2.833020e-002
2.894750e+003;2.829331e-002
2.896679e+003;2.835945e-002
2.898608e+003;2.840564e-002
2.900536e+003;2.824062e-002
2.902465e+003;2.805834e-002
2.904393e+003;2.796744e-002
2.906322e+003;2.727999e-002
2.908250e+003;2.723871e-002
2.910179e+003;2.765443e-002
2.912107e+003;2.734672e-002
2.914036e+003;2.661230e-002
2.915965e+003;2.616077e-002
2.917893e+003;2.602147e-002
2.919822e+003;2.596934e-002
2.921750e+003;2.546605e-002
2.923679e+003;2.515360e-002
2.925607e+003;2.533098e-002
2.927536e+003;2.525241e-002
2.929464e+003;2.491692e-002
2.931393e+003;2.497314e-002
2.933322e+003;2.531475e-002
2.935250e+003;2.493247e-002
2.937178e+003;2.442341e-002
2.939107e+003;2.466108e-002
2.941036e+003;2.471909e-002
2.942964e+003;2.424213e-002
2.944893e+003;2.325481e-002
2.946821e+003;2.240386e-002
2.948750e+003;2.176107e-002
2.950678e+003;2.119760e-002
2.952607e+003;2.043557e-002
2.954535e+003;1.965286e-002
2.956464e+003;1.875863e-002
2.958393e+003;1.822527e-002
2.960321e+003;1.807612e-002
2.962250e+003;1.786353e-002
2.964178e+003;1.725917e-002
2.966107e+003;1.643983e-002
2.968035e+003;1.614698e-002
2.969964e+003;1.570658e-002
2.971892e+003;1.517187e-002
2.973821e+003;1.456888e-002
2.975750e+003;1.378907e-002
2.977678e+003;1.363549e-002
2.979607e+003;1.314779e-002
2.981535e+003;1.243603e-002
2.983464e+003;1.218385e-002
2.985392e+003;1.182194e-002
2.987321e+003;1.161201e-002
2.989249e+003;1.136226e-002
2.991178e+003;1.079228e-002
2.993106e+003;1.016758e-002
2.995035e+003;9.753361e-003
2.996964e+003;9.611806e-003
2.998892e+003;9.685153e-003
3.000821e+003;9.575697e-003
3.002749e+003;9.464405e-003
3.004678e+003;9.530987e-003
3.006606e+003;9.365161e-003
3.008535e+003;9.235544e-003
3.010463e+003;8.951701e-003
3.012392e+003;8.862719e-003
3.014321e+003;8.833705e-003
3.016249e+003;8.590475e-003
3.018177e+003;8.737275e-003
3.020106e+003;8.818928e-003
3.022035e+003;8.679773e-003
3.023963e+003;8.803103e-003
3.025892e+003;8.818996e-003
3.027820e+003;8.739540e-003
3.029749e+003;8.894136e-003
3.031677e+003;9.040904e-003
3.033606e+003;9.149110e-003
3.035534e+003;9.339295e-003
3.037463e+003;9.272066e-003
3.039392e+003;9.344373e-003
3.041320e+003;9.734825e-003
3.043249e+003;1.004729e-002
3.045177e+003;1.011240e-002
3.047106e+003;1.049095e-002
3.049034e+003;1.117353e-002
3.050963e+003;1.143440e-002
3.052891e+003;1.149404e-002
3.054820e+003;1.182589e-002
3.056749e+003;1.210807e-002
3.058677e+003;1.205063e-002
3.060606e+003;1.201929e-002
3.062534e+003;1.224291e-002
3.064463e+003;1.249832e-002
3.066391e+003;1.290681e-002
3.068320e+003;1.324900e-002
3.070248e+003;1.329611e-002
3.072177e+003;1.340186e-002
3.074105e+003;1.390117e-002
3.076034e+003;1.425996e-002
3.077963e+003;1.425609e-002
3.079891e+003;1.489095e-002
3.081820e+003;1.567648e-002
3.083748e+003;1.571620e-002
3.085677e+003;1.558938e-002
3.087605e+003;1.576203e-002
3.089534e+003;1.626000e-002
3.091462e+003;1.671822e-002
3.093391e+003;1.693180e-002
3.095320e+003;1.734962e-002
3.097248e+003;1.791601e-002
3.099177e+003;1.816815e-002
3.101105e+003;1.837598e-002
3.103034e+003;1.854131e-002
3.104962e+003;1.885634e-002
3.106891e+003;1.936830e-002
3.108819e+003;1.989585e-002
3.110748e+003;2.009774e-002
3.112677e+003;2.019635e-002
3.114605e+003;2.078309e-002
3.116533e+003;2.111473e-002
3.118462e+003;2.087517e-002
3.120391e+003;2.103164e-002
3.122319e+003;2.165995e-002
3.124248e+003;2.220239e-002
3.126176e+003;2.247259e-002
3.128105e+003;2.259045e-002
3.130033e+003;2.269789e-002
3.131962e+003;2.318190e-002
3.133890e+003;2.381836e-002
3.135819e+003;2.430516e-002
3.137748e+003;2.461963e-002
3.139676e+003;2.482012e-002
3.141605e+003;2.487868e-002
3.143533e+003;2.494686e-002
3.145462e+003;2.528911e-002
3.147390e+003;2.597672e-002
3.149319e+003;2.650378e-002
3.151247e+003;2.726521e-002
3.153176e+003;2.753276e-002
3.155104e+003;2.742852e-002
3.157033e+003;2.776617e-002
3.158962e+003;2.819451e-002
3.160890e+003;2.838714e-002
3.162819e+003;2.839807e-002
3.164747e+003;2.849356e-002
3.166676e+003;2.908241e-002
3.168604e+003;2.980200e-002
3.170533e+003;3.000542e-002
3.172461e+003;3.047750e-002
3.174390e+003;3.095506e-002
3.176319e+003;3.143266e-002
3.178247e+003;3.172289e-002
3.180176e+003;3.159793e-002
3.182104e+003;3.173091e-002
3.184033e+003;3.209126e-002
3.185961e+003;3.237425e-002
3.187890e+003;3.274203e-002
3.189818e+003;3.349835e-002
3.191747e+003;3.415084e-002
3.193676e+003;3.413622e-002
3.195604e+003;3.449882e-002
3.197532e+003;3.508093e-002
3.199461e+003;3.524458e-002
3.201390e+003;3.508039e-002
3.203318e+003;3.504067e-002
3.205247e+003;3.536887e-002
3.207175e+003;3.618433e-002
3.209104e+003;3.661151e-002
3.211032e+003;3.660589e-002
3.212961e+003;3.699968e-002
3.214889e+003;3.758013e-002
3.216818e+003;3.773309e-002
3.218747e+003;3.804156e-002
3.220675e+003;3.859339e-002
3.222604e+003;3.851901e-002
3.224532e+003;3.885174e-002
3.226461e+003;3.981321e-002
3.228389e+003;4.008159e-002
3.230318e+003;4.012636e-002
3.232246e+003;4.034777e-002
3.234175e+003;4.060334e-002
3.236104e+003;4.132579e-002
3.238032e+003;4.154256e-002
3.239961e+003;4.109189e-002
3.241889e+003;4.130698e-002
3.243818e+003;4.199797e-002
3.245746e+003;4.263767e-002
3.247675e+003;4.287872e-002
3.249603e+003;4.319760e-002
3.251532e+003;4.317894e-002
3.253460e+003;4.268025e-002
3.255389e+003;4.280006e-002
3.257318e+003;4.362533e-002
3.259246e+003;4.447801e-002
3.261175e+003;4.477372e-002
3.263103e+003;4.460640e-002
3.265032e+003;4.475968e-002
3.266960e+003;4.544736e-002
3.268889e+003;4.581979e-002
3.270817e+003;4.594769e-002
3.272746e+003;4.589111e-002
3.274675e+003;4.579221e-002
3.276603e+003;4.581743e-002
3.278531e+003;4.591634e-002
3.280460e+003;4.623901e-002
3.282389e+003;4.659596e-002
3.284317e+003;4.690489e-002
3.286246e+003;4.688009e-002
3.288174e+003;4.669122e-002
3.290103e+003;4.701634e-002
3.292031e+003;4.740214e-002
3.293960e+003;4.736943e-002
3.295888e+003;4.734877e-002
3.297817e+003;4.769300e-002
3.299746e+003;4.816001e-002
3.301674e+003;4.824090e-002
3.303603e+003;4.843645e-002
3.305531e+003;4.875077e-002
3.307460e+003;4.879626e-002
3.309388e+003;4.878420e-002
3.311317e+003;4.873609e-002
3.313245e+003;4.849795e-002
3.315174e+003;4.851984e-002
3.317103e+003;4.868275e-002
3.319031e+003;4.873842e-002
3.320960e+003;4.881305e-002
3.322888e+003;4.913387e-002
3.324817e+003;4.922526e-002
3.326745e+003;4.906245e-002
3.328674e+003;4.913802e-002
3.330602e+003;4.903912e-002
3.332531e+003;4.879674e-002
3.334459e+003;4.880890e-002
3.336388e+003;4.872452e-002
3.338317e+003;4.855193e-002
3.340245e+003;4.837400e-002
3.342174e+003;4.829689e-002
3.344102e+003;4.861915e-002
3.346031e+003;4.930888e-002
3.347959e+003;4.950829e-002
3.349888e+003;4.924449e-002
3.351816e+003;4.904921e-002
3.353745e+003;4.856835e-002
3.355674e+003;4.808968e-002
3.357602e+003;4.820155e-002
3.359531e+003;4.836255e-002
3.361459e+003;4.842011e-002
3.363388e+003;4.893471e-002
3.365316e+003;4.931779e-002
3.367245e+003;4.895589e-002
3.369173e+003;4.857372e-002
3.371102e+003;4.857235e-002
3.373031e+003;4.856253e-002
3.374959e+003;4.836048e-002
3.376887e+003;4.777358e-002
3.378816e+003;4.738776e-002
3.380745e+003;4.784638e-002
3.382673e+003;4.804685e-002
3.384602e+003;4.730359e-002
3.386530e+003;4.701959e-002
3.388459e+003;4.725866e-002
3.390387e+003;4.690943e-002
3.392316e+003;4.675265e-002
3.394244e+003;4.660980e-002
3.396173e+003;4.644420e-002
3.398102e+003;4.622744e-002
3.400030e+003;4.615421e-002
3.401959e+003;4.608045e-002
3.403887e+003;4.569859e-002
3.405816e+003;4.594308e-002
3.407744e+003;4.580281e-002
3.409673e+003;4.498174e-002
3.411601e+003;4.472391e-002
3.413530e+003;4.450598e-002
3.415458e+003;4.450389e-002
3.417387e+003;4.417249e-002
3.419316e+003;4.371139e-002
3.421244e+003;4.322634e-002
3.423173e+003;4.304106e-002
3.425101e+003;4.323069e-002
3.427030e+003;4.324196e-002
3.428958e+003;4.269890e-002
3.430887e+003;4.208240e-002
3.432815e+003;4.169889e-002
3.434744e+003;4.141712e-002
3.436673e+003;4.112249e-002
3.438601e+003;4.097528e-002
3.440530e+003;4.094397e-002
3.442458e+003;4.065257e-002
3.444387e+003;4.006607e-002
3.446315e+003;3.949568e-002
3.448244e+003;3.911246e-002
3.450172e+003;3.885272e-002
3.452101e+003;3.873418e-002
3.454030e+003;3.810761e-002
3.455958e+003;3.800120e-002
3.457886e+003;3.806474e-002
3.459815e+003;3.719629e-002
3.461744e+003;3.661432e-002
3.463672e+003;3.660903e-002
3.465601e+003;3.608668e-002
3.467529e+003;3.519963e-002
3.469458e+003;3.521214e-002
3.471386e+003;3.520969e-002
3.473315e+003;3.461201e-002
3.475243e+003;3.411166e-002
3.477172e+003;3.358451e-002
3.479101e+003;3.259757e-002
3.481029e+003;3.196594e-002
3.482958e+003;3.219776e-002
3.484886e+003;3.176174e-002
3.486815e+003;3.080369e-002
3.488743e+003;3.042312e-002
3.490672e+003;3.032874e-002
3.492600e+003;3.001735e-002
3.494529e+003;2.956270e-002
3.496458e+003;2.905768e-002
3.498386e+003;2.892722e-002
3.500315e+003;2.843334e-002
3.502243e+003;2.730889e-002
3.504172e+003;2.686979e-002
3.506100e+003;2.691198e-002
3.508029e+003;2.673632e-002
3.509957e+003;2.630948e-002
3.511886e+003;2.547262e-002
3.513814e+003;2.482194e-002
3.515743e+003;2.413153e-002
3.517672e+003;2.354882e-002
3.519600e+003;2.325453e-002
3.521529e+003;2.276356e-002
3.523457e+003;2.266829e-002
3.525386e+003;2.193034e-002
3.527314e+003;2.084958e-002
3.529243e+003;1.977592e-002
3.531171e+003;1.911439e-002
3.533100e+003;1.887973e-002
3.535029e+003;1.853647e-002
3.536957e+003;1.805467e-002
3.538885e+003;1.763017e-002
3.540814e+003;1.708682e-002
3.542743e+003;1.665280e-002
3.544671e+003;1.631108e-002
3.546600e+003;1.589646e-002
3.548528e+003;1.548680e-002
3.550457e+003;1.469797e-002
3.552385e+003;1.386042e-002
3.554314e+003;1.343607e-002
3.556242e+003;1.285951e-002
3.558171e+003;1.239511e-002
3.560100e+003;1.173386e-002
3.562028e+003;1.098815e-002
3.563957e+003;1.050779e-002
3.565885e+003;1.006855e-002
3.567814e+003;9.235341e-003
3.569742e+003;8.524950e-003
3.571671e+003;7.886940e-003
3.573599e+003;7.340372e-003
3.575528e+003;6.765177e-003
3.577457e+003;6.712444e-003
3.579385e+003;6.440636e-003
3.581314e+003;5.904751e-003
3.583242e+003;5.001814e-003
3.585171e+003;3.762552e-003
3.587099e+003;3.447226e-003
3.589028e+003;3.411659e-003
3.590956e+003;2.660446e-003
3.592885e+003;2.058319e-003
3.594813e+003;1.341912e-003
3.596742e+003;5.542221e-004
3.598671e+003;-2.223056e-004
3.600599e+003;-1.150644e-003
3.602528e+003;-1.829118e-003
3.604456e+003;-1.834232e-003
3.606385e+003;-1.681672e-003
3.608313e+003;-2.207997e-003
3.610242e+003;-3.027450e-003
3.612170e+003;-3.418205e-003
3.614099e+003;-4.359001e-003
3.616028e+003;-5.824956e-003
3.617956e+003;-6.681474e-003
3.619885e+003;-6.916236e-003
3.621813e+003;-6.905539e-003
3.623742e+003;-6.772530e-003
3.625670e+003;-7.271448e-003
3.627599e+003;-8.155103e-003
3.629527e+003;-8.772142e-003
3.631456e+003;-9.041053e-003
3.633385e+003;-8.920025e-003
3.635313e+003;-9.694521e-003
3.637241e+003;-1.112765e-002
3.639170e+003;-1.189494e-002
3.641099e+003;-1.238753e-002
3.643027e+003;-1.290317e-002
3.644956e+003;-1.333977e-002
3.646884e+003;-1.407952e-002
3.648813e+003;-1.492742e-002
3.650741e+003;-1.527272e-002
3.652670e+003;-1.571423e-002
3.654598e+003;-1.612158e-002
3.656527e+003;-1.652182e-002
3.658456e+003;-1.716407e-002
3.660384e+003;-1.783804e-002
3.662313e+003;-1.822999e-002
3.664241e+003;-1.840779e-002
3.666170e+003;-1.901415e-002
3.668098e+003;-1.971704e-002
3.670027e+003;-2.013932e-002
3.671955e+003;-2.032848e-002
3.673884e+003;-2.088174e-002
3.675813e+003;-2.180276e-002
3.677741e+003;-2.163360e-002
3.679669e+003;-2.128153e-002
3.681598e+003;-2.164306e-002
3.683527e+003;-2.159726e-002
3.685455e+003;-2.174367e-002
3.687384e+003;-2.201636e-002
3.689312e+003;-2.219638e-002
3.691241e+003;-2.207166e-002
3.693169e+003;-2.189133e-002
3.695098e+003;-2.157065e-002
3.697026e+003;-2.193729e-002
3.698955e+003;-2.279500e-002
3.700884e+003;-2.327177e-002
3.702812e+003;-2.286130e-002
3.704741e+003;-2.273963e-002
3.706669e+003;-2.310209e-002
3.708598e+003;-2.333998e-002
3.710526e+003;-2.335352e-002
3.712455e+003;-2.362704e-002
3.714383e+003;-2.383106e-002
3.716312e+003;-2.363307e-002
3.718240e+003;-2.343854e-002
3.720169e+003;-2.361120e-002
3.722098e+003;-2.418251e-002
3.724026e+003;-2.480325e-002
3.725955e+003;-2.492628e-002
3.727883e+003;-2.497011e-002
3.729812e+003;-2.476742e-002
3.731740e+003;-2.443382e-002
3.733669e+003;-2.393464e-002
3.735597e+003;-2.410886e-002
3.737526e+003;-2.459177e-002
3.739455e+003;-2.498710e-002
3.741383e+003;-2.468413e-002
3.743312e+003;-2.407080e-002
3.745240e+003;-2.408961e-002
3.747169e+003;-2.444205e-002
3.749097e+003;-2.469809e-002
3.751026e+003;-2.492453e-002
3.752954e+003;-2.501475e-002
3.754883e+003;-2.499486e-002
3.756812e+003;-2.460264e-002
3.758740e+003;-2.423112e-002
3.760668e+003;-2.446745e-002
3.762597e+003;-2.460793e-002
3.764526e+003;-2.461375e-002
3.766454e+003;-2.473759e-002
3.768383e+003;-2.477349e-002
3.770311e+003;-2.426750e-002
3.772240e+003;-2.397406e-002
3.774168e+003;-2.457242e-002
3.776097e+003;-2.491421e-002
3.778025e+003;-2.503361e-002
3.779954e+003;-2.503048e-002
3.781883e+003;-2.490291e-002
3.783811e+003;-2.495447e-002
3.785740e+003;-2.531180e-002
3.787668e+003;-2.554643e-002
3.789597e+003;-2.537525e-002
3.791525e+003;-2.507221e-002
3.793454e+003;-2.479392e-002
3.795382e+003;-2.459741e-002
3.797311e+003;-2.486765e-002
3.799240e+003;-2.539735e-002
3.801168e+003;-2.585111e-002
3.803097e+003;-2.548528e-002
3.805025e+003;-2.514601e-002
3.806954e+003;-2.483558e-002
3.808882e+003;-2.451662e-002
3.810811e+003;-2.472457e-002
3.812739e+003;-2.502232e-002
3.814668e+003;-2.499088e-002
3.816596e+003;-2.486271e-002
3.818525e+003;-2.494753e-002
3.820454e+003;-2.512049e-002
3.822382e+003;-2.512559e-002
3.824311e+003;-2.490510e-002
3.826239e+003;-2.450103e-002
3.828168e+003;-2.462195e-002
3.830096e+003;-2.484737e-002
3.832025e+003;-2.482390e-002
3.833953e+003;-2.491011e-002
3.835882e+003;-2.526563e-002
3.837811e+003;-2.498219e-002
3.839739e+003;-2.465583e-002
3.841667e+003;-2.453547e-002
3.843596e+003;-2.421081e-002
3.845525e+003;-2.402779e-002
3.847453e+003;-2.429109e-002
3.849382e+003;-2.436017e-002
3.851310e+003;-2.445004e-002
3.853239e+003;-2.495022e-002
3.855167e+003;-2.491402e-002
3.857096e+003;-2.478695e-002
3.859024e+003;-2.486552e-002
3.860953e+003;-2.485729e-002
3.862882e+003;-2.444728e-002
3.864810e+003;-2.402240e-002
3.866739e+003;-2.408287e-002
3.868667e+003;-2.428849e-002
3.870596e+003;-2.422128e-002
3.872524e+003;-2.395013e-002
3.874453e+003;-2.435268e-002
3.876381e+003;-2.482350e-002
3.878310e+003;-2.442937e-002
3.880239e+003;-2.410507e-002
3.882167e+003;-2.394057e-002
3.884096e+003;-2.426499e-002
3.886024e+003;-2.442219e-002
3.887953e+003;-2.416468e-002
3.889881e+003;-2.412516e-002
3.891810e+003;-2.397459e-002
3.893738e+003;-2.406946e-002
3.895667e+003;-2.437446e-002
3.897595e+003;-2.407946e-002
3.899524e+003;-2.371810e-002
3.901453e+003;-2.396308e-002
3.903381e+003;-2.419915e-002
3.905310e+003;-2.396954e-002
3.907238e+003;-2.390369e-002
3.909167e+003;-2.369162e-002
3.911095e+003;-2.357209e-002
3.913024e+003;-2.370373e-002
3.914952e+003;-2.394552e-002
3.916881e+003;-2.384018e-002
3.918810e+003;-2.372381e-002
3.920738e+003;-2.363122e-002
3.922667e+003;-2.332472e-002
3.924595e+003;-2.344585e-002
3.926524e+003;-2.390811e-002
3.928452e+003;-2.358709e-002
3.930381e+003;-2.251601e-002
3.932309e+003;-2.199592e-002
3.934238e+003;-2.243137e-002
3.936167e+003;-2.295509e-002
3.938095e+003;-2.276891e-002
3.940023e+003;-2.218162e-002
3.941952e+003;-2.241706e-002
3.943881e+003;-2.311959e-002
3.945809e+003;-2.325488e-002
3.947738e+003;-2.304575e-002
3.949666e+003;-2.307300e-002
3.951595e+003;-2.314350e-002
3.953523e+003;-2.282716e-002
3.955452e+003;-2.245013e-002
3.957380e+003;-2.195223e-002
3.959309e+003;-2.174900e-002
3.961238e+003;-2.204788e-002
3.963166e+003;-2.264922e-002
3.965095e+003;-2.311287e-002
3.967023e+003;-2.279390e-002
3.968952e+003;-2.238452e-002
3.970880e+003;-2.220287e-002
3.972809e+003;-2.211128e-002
3.974737e+003;-2.251440e-002
3.976666e+003;-2.262233e-002
3.978594e+003;-2.214374e-002
3.980523e+003;-2.192967e-002
3.982452e+003;-2.166043e-002
3.984380e+003;-2.176293e-002
3.986309e+003;-2.220882e-002
3.988237e+003;-2.231874e-002
3.990166e+003;-2.248228e-002
3.992094e+003;-2.260207e-002
3.994023e+003;-2.263815e-002
3.995951e+003;-2.289151e-002
3.997880e+003;-2.284628e-002
3.999809e+003;-2.265473e-002
4.001737e+003;0.000000e+000
