3.992094e+002;0.000000e+000
4.011380e+002;0.000000e+000
4.030665e+002;0.000000e+000
4.049951e+002;0.000000e+000
4.069236e+002;0.000000e+000
4.088522e+002;0.000000e+000
4.107807e+002;0.000000e+000
4.127093e+002;0.000000e+000
4.146378e+002;0.000000e+000
4.165664e+002;0.000000e+000
4.184949e+002;0.000000e+000
4.204235e+002;0.000000e+000
4.223520e+002;0.000000e+000
4.242806e+002;0.000000e+000
4.262091e+002;0.000000e+000
4.281377e+002;0.000000e+000
4.300662e+002;0.000000e+000
4.319948e+002;0.000000e+000
4.339233e+002;0.000000e+000
4.358519e+002;0.000000e+000
4.377804e+002;0.000000e+000
4.397090e+002;0.000000e+000
4.416375e+002;0.000000e+000
4.435660e+002;0.000000e+000
4.454946e+002;0.000000e+000
4.474232e+002;0.000000e+000
4.493517e+002;0.000000e+000
4.512802e+002;0.000000e+000
4.532088e+002;0.000000e+000
4.551373e+002;0.000000e+000
4.570659e+002;0.000000e+000
4.589944e+002;0.000000e+000
4.609230e+002;0.000000e+000
4.628515e+002;0.000000e+000
4.647801e+002;0.000000e+000
4.667086e+002;0.000000e+000
4.686372e+002;0.000000e+000
4.705657e+002;0.000000e+000
4.724943e+002;0.000000e+000
4.744228e+002;0.000000e+000
4.763513e+002;0.000000e+000
4.782799e+002;0.000000e+000
4.802085e+002;0.000000e+000
4.821370e+002;0.000000e+000
4.840656e+002;0.000000e+000
4.859941e+002;0.000000e+000
4.879226e+002;0.000000e+000
4.898512e+002;0.000000e+000
4.917798e+002;0.000000e+000
4.937083e+002;0.000000e+000
4.956368e+002;0.000000e+000
4.975654e+002;0.000000e+000
4.994939e+002;0.000000e+000
5.014225e+002;0.000000e+000
5.033510e+002;0.000000e+000
5.052796e+002;0.000000e+000
5.072081e+002;0.000000e+000
5.091367e+002;0.000000e+000
5.110652e+002;0.000000e+000
5.129938e+002;0.000000e+000
5.149223e+002;0.000000e+000
5.168509e+002;0.000000e+000
5.187794e+002;0.000000e+000
5.207079e+002;0.000000e+000
5.226365e+002;0.000000e+000
5.245651e+002;0.000000e+000
5.264936e+002;0.000000e+000
5.284222e+002;0.000000e+000
5.303507e+002;0.000000e+000
5.322792e+002;0.000000e+000
5.342078e+002;0.000000e+000
5.361364e+002;0.000000e+000
5.380649e+002;0.000000e+000
5.399935e+002;0.000000e+000
5.419220e+002;0.000000e+000
5.438505e+002;0.000000e+000
5.457791e+002;0.000000e+000
5.477076e+002;0.000000e+000
5.496362e+002;0.000000e+000
5.515648e+002;0.000000e+000
5.534933e+002;0.000000e+000
5.554218e+002;0.000000e+000
5.573504e+002;0.000000e+000
5.592789e+002;0.000000e+000
5.612075e+002;0.000000e+000
5.631360e+002;0.000000e+000
5.650646e+002;0.000000e+000
5.669931e+002;0.000000e+000
5.689217e+002;0.000000e+000
5.708502e+002;0.000000e+000
5.727787e+002;0.000000e+000
5.747073e+002;0.000000e+000
5.766359e+002;0.000000e+000
5.785644e+002;0.000000e+000
5.804930e+002;0.000000e+000
5.824215e+002;0.000000e+000
5.843500e+002;0.000000e+000
5.862786e+002;0.000000e+000
5.882072e+002;0.000000e+000
5.901357e+002;0.000000e+000
5.920643e+002;0.000000e+000
5.939928e+002;0.000000e+000
5.959213e+002;0.000000e+000
5.978499e+002;0.000000e+000
5.997784e+002;2.217166e-001
6.017070e+002;2.232840e-001
6.036355e+002;2.261043e-001
6.055641e+002;2.235959e-001
6.074926e+002;2.246529e-001
6.094211e+002;2.281676e-001
6.113497e+002;2.306247e-001
6.132783e+002;2.304316e-001
6.152068e+002;2.271560e-001
6.171354e+002;2.232906e-001
6.190639e+002;2.251409e-001
6.209924e+002;2.257537e-001
6.229210e+002;2.263665e-001
6.248495e+002;2.260293e-001
6.267781e+002;2.161807e-001
6.287067e+002;2.104106e-001
6.306352e+002;2.121203e-001
6.325637e+002;2.090551e-001
6.344923e+002;2.026075e-001
6.364208e+002;2.042858e-001
6.383494e+002;2.081316e-001
6.402780e+002;2.032587e-001
6.422065e+002;2.025711e-001
6.441350e+002;2.065822e-001
6.460636e+002;2.031840e-001
6.479921e+002;1.987114e-001
6.499207e+002;2.012864e-001
6.518492e+002;2.043261e-001
6.537778e+002;2.036755e-001
6.557063e+002;2.050348e-001
6.576349e+002;2.069204e-001
6.595634e+002;2.110682e-001
6.614919e+002;2.152843e-001
6.634205e+002;2.134623e-001
6.653491e+002;2.103879e-001
6.672776e+002;2.083325e-001
6.692062e+002;2.076524e-001
6.711347e+002;2.048312e-001
6.730632e+002;1.990791e-001
6.749918e+002;1.947278e-001
6.769203e+002;1.914980e-001
6.788489e+002;1.861826e-001
6.807775e+002;1.806590e-001
6.827060e+002;1.788557e-001
6.846345e+002;1.770216e-001
6.865631e+002;1.754502e-001
6.884916e+002;1.749369e-001
6.904202e+002;1.727867e-001
6.923488e+002;1.709459e-001
6.942773e+002;1.710631e-001
6.962058e+002;1.721456e-001
6.981344e+002;1.715549e-001
7.000629e+002;1.692776e-001
7.019915e+002;1.672172e-001
7.039200e+002;1.670841e-001
7.058486e+002;1.673697e-001
7.077771e+002;1.675601e-001
7.097057e+002;1.670421e-001
7.116342e+002;1.645513e-001
7.135627e+002;1.624546e-001
7.154913e+002;1.608816e-001
7.174199e+002;1.588450e-001
7.193484e+002;1.569430e-001
7.212770e+002;1.550884e-001
7.232055e+002;1.537795e-001
7.251340e+002;1.513738e-001
7.270626e+002;1.493539e-001
7.289911e+002;1.490526e-001
7.309197e+002;1.472064e-001
7.328483e+002;1.436128e-001
7.347768e+002;1.404649e-001
7.367053e+002;1.386554e-001
7.386339e+002;1.372204e-001
7.405624e+002;1.355340e-001
7.424910e+002;1.351387e-001
7.444196e+002;1.347502e-001
7.463481e+002;1.326127e-001
7.482766e+002;1.308053e-001
7.502052e+002;1.302768e-001
7.521337e+002;1.306132e-001
7.540623e+002;1.303076e-001
7.559908e+002;1.280126e-001
7.579194e+002;1.254317e-001
7.598479e+002;1.242749e-001
7.617765e+002;1.241508e-001
7.637050e+002;1.236312e-001
7.656335e+002;1.226516e-001
7.675621e+002;1.210678e-001
7.694907e+002;1.208179e-001
7.714192e+002;1.207981e-001
7.733478e+002;1.195928e-001
7.752763e+002;1.184626e-001
7.772048e+002;1.176219e-001
7.791334e+002;1.173661e-001
7.810620e+002;1.170873e-001
7.829905e+002;1.168171e-001
7.849191e+002;1.170909e-001
7.868476e+002;1.170107e-001
7.887761e+002;1.163961e-001
7.907047e+002;1.158720e-001
7.926332e+002;1.161018e-001
7.945618e+002;1.161476e-001
7.964903e+002;1.161489e-001
7.984189e+002;1.153613e-001
8.003474e+002;1.148022e-001
8.022759e+002;1.146776e-001
8.042045e+002;1.143537e-001
8.061331e+002;1.139327e-001
8.080616e+002;1.146600e-001
8.099902e+002;1.154843e-001
8.119187e+002;1.155116e-001
8.138472e+002;1.151928e-001
8.157758e+002;1.146464e-001
8.177043e+002;1.147586e-001
8.196329e+002;1.150121e-001
8.215615e+002;1.152910e-001
8.234900e+002;1.160592e-001
8.254185e+002;1.166034e-001
8.273471e+002;1.162252e-001
8.292756e+002;1.161556e-001
8.312042e+002;1.157837e-001
8.331328e+002;1.156876e-001
8.350613e+002;1.164660e-001
8.369898e+002;1.170763e-001
8.389184e+002;1.166525e-001
8.408469e+002;1.159960e-001
8.427755e+002;1.159202e-001
8.447040e+002;1.160344e-001
8.466326e+002;1.163484e-001
8.485611e+002;1.168457e-001
8.504897e+002;1.169582e-001
8.524182e+002;1.163950e-001
8.543467e+002;1.167090e-001
8.562753e+002;1.168225e-001
8.582039e+002;1.167870e-001
8.601324e+002;1.175048e-001
8.620610e+002;1.186980e-001
8.639895e+002;1.200398e-001
8.659180e+002;1.216159e-001
8.678466e+002;1.236296e-001
8.697751e+002;1.259456e-001
8.717037e+002;1.276989e-001
8.736323e+002;1.297127e-001
8.755608e+002;1.322924e-001
8.774893e+002;1.342524e-001
8.794179e+002;1.355936e-001
8.813464e+002;1.375939e-001
8.832750e+002;1.400468e-001
8.852036e+002;1.425827e-001
8.871321e+002;1.455407e-001
8.890606e+002;1.490444e-001
8.909892e+002;1.523706e-001
8.929177e+002;1.546797e-001
8.948463e+002;1.565870e-001
8.967748e+002;1.578776e-001
8.987034e+002;1.577123e-001
9.006319e+002;1.563751e-001
9.025605e+002;1.538931e-001
9.044890e+002;1.508543e-001
9.064175e+002;1.485521e-001
9.083461e+002;1.471303e-001
9.102747e+002;1.454629e-001
9.122032e+002;1.442393e-001
9.141318e+002;1.435504e-001
9.160603e+002;1.431576e-001
9.179888e+002;1.433477e-001
9.199174e+002;1.444594e-001
9.218459e+002;1.451339e-001
9.237745e+002;1.454784e-001
9.257031e+002;1.468735e-001
9.276316e+002;1.481581e-001
9.295601e+002;1.492881e-001
9.314887e+002;1.502600e-001
9.334172e+002;1.517096e-001
9.353458e+002;1.538106e-001
9.372744e+002;1.558233e-001
9.392029e+002;1.580779e-001
9.411314e+002;1.607743e-001
9.430600e+002;1.641859e-001
9.449885e+002;1.673954e-001
9.469171e+002;1.706697e-001
9.488456e+002;1.747167e-001
9.507742e+002;1.789723e-001
9.527027e+002;1.840290e-001
9.546313e+002;1.896154e-001
9.565598e+002;1.946279e-001
9.584883e+002;2.002639e-001
9.604169e+002;2.065121e-001
9.623455e+002;2.124821e-001
9.642740e+002;2.186836e-001
9.662026e+002;2.248327e-001
9.681311e+002;2.303014e-001
9.700596e+002;2.359938e-001
9.719882e+002;2.429842e-001
9.739167e+002;2.505724e-001
9.758453e+002;2.594899e-001
9.777739e+002;2.696847e-001
9.797024e+002;2.799463e-001
9.816309e+002;2.901934e-001
9.835595e+002;2.996891e-001
9.854880e+002;3.064583e-001
9.874166e+002;3.107141e-001
9.893452e+002;3.132773e-001
9.912737e+002;3.144857e-001
9.932022e+002;3.159812e-001
9.951307e+002;3.193580e-001
9.970593e+002;3.238542e-001
9.989879e+002;3.287052e-001
1.000916e+003;3.340240e-001
1.002845e+003;3.387489e-001
1.004773e+003;3.415676e-001
1.006702e+003;3.438665e-001
1.008631e+003;3.470876e-001
1.010559e+003;3.515899e-001
1.012488e+003;3.565341e-001
1.014416e+003;3.629037e-001
1.016345e+003;3.698534e-001
1.018273e+003;3.759101e-001
1.020202e+003;3.798321e-001
1.022130e+003;3.840443e-001
1.024059e+003;3.894992e-001
1.025988e+003;3.938154e-001
1.027916e+003;3.957089e-001
1.029845e+003;3.965589e-001
1.031773e+003;3.974387e-001
1.033702e+003;3.963863e-001
1.035630e+003;3.921871e-001
1.037559e+003;3.868653e-001
1.039487e+003;3.816814e-001
1.041416e+003;3.769618e-001
1.043344e+003;3.738892e-001
1.045273e+003;3.726020e-001
1.047202e+003;3.728364e-001
1.049130e+003;3.734733e-001
1.051059e+003;3.730734e-001
1.052987e+003;3.713535e-001
1.054916e+003;3.673595e-001
1.056844e+003;3.619577e-001
1.058773e+003;3.555305e-001
1.060701e+003;3.472340e-001
1.062630e+003;3.365156e-001
1.064558e+003;3.244319e-001
1.066487e+003;3.133791e-001
1.068416e+003;3.024210e-001
1.070344e+003;2.923726e-001
1.072273e+003;2.850120e-001
1.074201e+003;2.792448e-001
1.076130e+003;2.736996e-001
1.078058e+003;2.687117e-001
1.079987e+003;2.642698e-001
1.081915e+003;2.607981e-001
1.083844e+003;2.578028e-001
1.085773e+003;2.559226e-001
1.087701e+003;2.552960e-001
1.089630e+003;2.553696e-001
1.091558e+003;2.560918e-001
1.093487e+003;2.564426e-001
1.095415e+003;2.562815e-001
1.097344e+003;2.556796e-001
1.099272e+003;2.558288e-001
1.101201e+003;2.567257e-001
1.103129e+003;2.567462e-001
1.105058e+003;2.546024e-001
1.106987e+003;2.517003e-001
1.108915e+003;2.472296e-001
1.110844e+003;2.408871e-001
1.112772e+003;2.334878e-001
1.114701e+003;2.260154e-001
1.116629e+003;2.184594e-001
1.118558e+003;2.112169e-001
1.120486e+003;2.046758e-001
1.122415e+003;1.989684e-001
1.124344e+003;1.939988e-001
1.126272e+003;1.878311e-001
1.128201e+003;1.803933e-001
1.130129e+003;1.729978e-001
1.132058e+003;1.665151e-001
1.133986e+003;1.606670e-001
1.135915e+003;1.556433e-001
1.137843e+003;1.521079e-001
1.139772e+003;1.501092e-001
1.141700e+003;1.493295e-001
1.143629e+003;1.494128e-001
1.145557e+003;1.500389e-001
1.147486e+003;1.505624e-001
1.149415e+003;1.511542e-001
1.151343e+003;1.520682e-001
1.153272e+003;1.523671e-001
1.155200e+003;1.529043e-001
1.157129e+003;1.532014e-001
1.159057e+003;1.519078e-001
1.160986e+003;1.497653e-001
1.162914e+003;1.475820e-001
1.164843e+003;1.438197e-001
1.166771e+003;1.386864e-001
1.168700e+003;1.328061e-001
1.170629e+003;1.259455e-001
1.172557e+003;1.190691e-001
1.174486e+003;1.132468e-001
1.176414e+003;1.082943e-001
1.178343e+003;1.048076e-001
1.180271e+003;1.028238e-001
1.182200e+003;1.008541e-001
1.184128e+003;9.932456e-002
1.186057e+003;9.926647e-002
1.187986e+003;1.002873e-001
1.189914e+003;1.016686e-001
1.191843e+003;1.035412e-001
1.193771e+003;1.059893e-001
1.195700e+003;1.081609e-001
1.197628e+003;1.102946e-001
1.199557e+003;1.120070e-001
1.201485e+003;1.132091e-001
1.203414e+003;1.137529e-001
1.205343e+003;1.134087e-001
1.207271e+003;1.125627e-001
1.209200e+003;1.112142e-001
1.211128e+003;1.103746e-001
1.213057e+003;1.104674e-001
1.214985e+003;1.102940e-001
1.216914e+003;1.107905e-001
1.218842e+003;1.121793e-001
1.220771e+003;1.135336e-001
1.222699e+003;1.154431e-001
1.224628e+003;1.176058e-001
1.226557e+003;1.190142e-001
1.228485e+003;1.199693e-001
1.230414e+003;1.210460e-001
1.232342e+003;1.216117e-001
1.234271e+003;1.217754e-001
1.236199e+003;1.218413e-001
1.238128e+003;1.218265e-001
1.240056e+003;1.217836e-001
1.241985e+003;1.213376e-001
1.243913e+003;1.206020e-001
1.245842e+003;1.201318e-001
1.247771e+003;1.198210e-001
1.249699e+003;1.191858e-001
1.251628e+003;1.185843e-001
1.253556e+003;1.183327e-001
1.255485e+003;1.184454e-001
1.257413e+003;1.188540e-001
1.259342e+003;1.188619e-001
1.261270e+003;1.188357e-001
1.263199e+003;1.189484e-001
1.265127e+003;1.183501e-001
1.267056e+003;1.173260e-001
1.268985e+003;1.168309e-001
1.270913e+003;1.161775e-001
1.272842e+003;1.153436e-001
1.274770e+003;1.148303e-001
1.276699e+003;1.140816e-001
1.278627e+003;1.133452e-001
1.280556e+003;1.124265e-001
1.282484e+003;1.117118e-001
1.284413e+003;1.114077e-001
1.286342e+003;1.110702e-001
1.288270e+003;1.107130e-001
1.290199e+003;1.115268e-001
1.292127e+003;1.126513e-001
1.294056e+003;1.133803e-001
1.295984e+003;1.146542e-001
1.297913e+003;1.164261e-001
1.299841e+003;1.187811e-001
1.301770e+003;1.219184e-001
1.303698e+003;1.250812e-001
1.305627e+003;1.282540e-001
1.307556e+003;1.317473e-001
1.309484e+003;1.351375e-001
1.311413e+003;1.380873e-001
1.313341e+003;1.402444e-001
1.315270e+003;1.413559e-001
1.317198e+003;1.414922e-001
1.319127e+003;1.412527e-001
1.321055e+003;1.404575e-001
1.322984e+003;1.385690e-001
1.324912e+003;1.368809e-001
1.326841e+003;1.361483e-001
1.328770e+003;1.355683e-001
1.330698e+003;1.351891e-001
1.332627e+003;1.349164e-001
1.334555e+003;1.341150e-001
1.336484e+003;1.327479e-001
1.338412e+003;1.311295e-001
1.340341e+003;1.293450e-001
1.342269e+003;1.271608e-001
1.344198e+003;1.248492e-001
1.346126e+003;1.235331e-001
1.348055e+003;1.228390e-001
1.349984e+003;1.221142e-001
1.351912e+003;1.215077e-001
1.353841e+003;1.216061e-001
1.355769e+003;1.224535e-001
1.357698e+003;1.232639e-001
1.359626e+003;1.239383e-001
1.361555e+003;1.245757e-001
1.363483e+003;1.247877e-001
1.365412e+003;1.245773e-001
1.367341e+003;1.243031e-001
1.369269e+003;1.239310e-001
1.371198e+003;1.231152e-001
1.373126e+003;1.218069e-001
1.375055e+003;1.200751e-001
1.376983e+003;1.181619e-001
1.378912e+003;1.159779e-001
1.380840e+003;1.138156e-001
1.382769e+003;1.118467e-001
1.384698e+003;1.098329e-001
1.386626e+003;1.083354e-001
1.388555e+003;1.076748e-001
1.390483e+003;1.073273e-001
1.392412e+003;1.072544e-001
1.394340e+003;1.074303e-001
1.396269e+003;1.077445e-001
1.398197e+003;1.078283e-001
1.400126e+003;1.080421e-001
1.402054e+003;1.087544e-001
1.403983e+003;1.097372e-001
1.405911e+003;1.109255e-001
1.407840e+003;1.120172e-001
1.409769e+003;1.133916e-001
1.411697e+003;1.147544e-001
1.413626e+003;1.160208e-001
1.415554e+003;1.176594e-001
1.417483e+003;1.193061e-001
1.419411e+003;1.205603e-001
1.421340e+003;1.209576e-001
1.423268e+003;1.204490e-001
1.425197e+003;1.193477e-001
1.427125e+003;1.179654e-001
1.429054e+003;1.162570e-001
1.430983e+003;1.141542e-001
1.432911e+003;1.119157e-001
1.434840e+003;1.100246e-001
1.436768e+003;1.081883e-001
1.438697e+003;1.069730e-001
1.440625e+003;1.066552e-001
1.442554e+003;1.067370e-001
1.444482e+003;1.071659e-001
1.446411e+003;1.081532e-001
1.448340e+003;1.090491e-001
1.450268e+003;1.095191e-001
1.452197e+003;1.098872e-001
1.454125e+003;1.101789e-001
1.456054e+003;1.100457e-001
1.457982e+003;1.096008e-001
1.459911e+003;1.087604e-001
1.461839e+003;1.073258e-001
1.463768e+003;1.053928e-001
1.465697e+003;1.030000e-001
1.467625e+003;9.996801e-002
1.469554e+003;9.636563e-002
1.471482e+003;9.262504e-002
1.473411e+003;8.913167e-002
1.475339e+003;8.615136e-002
1.477268e+003;8.377817e-002
1.479196e+003;8.175141e-002
1.481125e+003;7.997084e-002
1.483053e+003;7.836777e-002
1.484982e+003;7.714544e-002
1.486911e+003;7.637502e-002
1.488839e+003;7.606643e-002
1.490768e+003;7.636364e-002
1.492696e+003;7.710207e-002
1.494625e+003;7.796852e-002
1.496553e+003;7.907806e-002
1.498482e+003;8.031099e-002
1.500410e+003;8.124626e-002
1.502339e+003;8.160873e-002
1.504267e+003;8.106772e-002
1.506196e+003;7.960919e-002
1.508125e+003;7.804318e-002
1.510053e+003;7.631063e-002
1.511982e+003;7.458700e-002
1.513910e+003;7.282846e-002
1.515839e+003;7.052507e-002
1.517767e+003;6.862737e-002
1.519696e+003;6.722926e-002
1.521624e+003;6.590763e-002
1.523553e+003;6.471521e-002
1.525481e+003;6.393056e-002
1.527410e+003;6.366837e-002
1.529339e+003;6.342877e-002
1.531267e+003;6.344959e-002
1.533196e+003;6.360128e-002
1.535124e+003;6.361447e-002
1.537053e+003;6.367206e-002
1.538981e+003;6.371365e-002
1.540910e+003;6.397559e-002
1.542838e+003;6.422188e-002
1.544767e+003;6.443325e-002
1.546695e+003;6.502299e-002
1.548624e+003;6.527768e-002
1.550553e+003;6.537835e-002
1.552481e+003;6.571836e-002
1.554410e+003;6.607897e-002
1.556338e+003;6.641053e-002
1.558267e+003;6.680084e-002
1.560195e+003;6.735887e-002
1.562124e+003;6.806044e-002
1.564052e+003;6.879105e-002
1.565981e+003;6.960172e-002
1.567910e+003;7.052405e-002
1.569838e+003;7.150693e-002
1.571767e+003;7.265127e-002
1.573695e+003;7.398512e-002
1.575624e+003;7.553138e-002
1.577552e+003;7.760706e-002
1.579481e+003;7.973685e-002
1.581409e+003;8.181089e-002
1.583338e+003;8.405063e-002
1.585266e+003;8.649065e-002
1.587195e+003;8.887858e-002
1.589124e+003;9.078607e-002
1.591052e+003;9.178496e-002
1.592981e+003;9.223147e-002
1.594909e+003;9.233892e-002
1.596838e+003;9.206601e-002
1.598766e+003;9.127975e-002
1.600695e+003;9.023556e-002
1.602623e+003;8.935141e-002
1.604552e+003;8.828642e-002
1.606480e+003;8.742794e-002
1.608409e+003;8.654454e-002
1.610338e+003;8.549682e-002
1.612266e+003;8.456146e-002
1.614195e+003;8.359606e-002
1.616123e+003;8.286162e-002
1.618052e+003;8.218995e-002
1.619980e+003;8.129121e-002
1.621909e+003;8.041178e-002
1.623837e+003;7.957680e-002
1.625766e+003;7.873864e-002
1.627694e+003;7.833710e-002
1.629623e+003;7.809450e-002
1.631552e+003;7.768990e-002
1.633480e+003;7.711604e-002
1.635409e+003;7.680018e-002
1.637337e+003;7.663123e-002
1.639266e+003;7.620371e-002
1.641194e+003;7.579314e-002
1.643123e+003;7.566132e-002
1.645051e+003;7.525807e-002
1.646980e+003;7.488929e-002
1.648909e+003;7.463591e-002
1.650837e+003;7.427371e-002
1.652766e+003;7.372127e-002
1.654694e+003;7.349411e-002
1.656623e+003;7.338153e-002
1.658551e+003;7.308459e-002
1.660480e+003;7.255727e-002
1.662408e+003;7.169209e-002
1.664337e+003;7.092721e-002
1.666266e+003;7.028648e-002
1.668194e+003;6.970819e-002
1.670123e+003;6.897871e-002
1.672051e+003;6.826910e-002
1.673980e+003;6.730903e-002
1.675908e+003;6.642288e-002
1.677837e+003;6.572808e-002
1.679765e+003;6.500136e-002
1.681694e+003;6.419933e-002
1.683622e+003;6.341987e-002
1.685551e+003;6.280926e-002
1.687479e+003;6.234876e-002
1.689408e+003;6.186514e-002
1.691337e+003;6.135110e-002
1.693265e+003;6.082315e-002
1.695194e+003;6.041167e-002
1.697122e+003;6.005128e-002
1.699051e+003;5.975298e-002
1.700979e+003;5.936328e-002
1.702908e+003;5.930676e-002
1.704836e+003;5.925990e-002
1.706765e+003;5.899098e-002
1.708693e+003;5.868968e-002
1.710622e+003;5.858354e-002
1.712551e+003;5.856033e-002
1.714479e+003;5.839641e-002
1.716408e+003;5.808594e-002
1.718336e+003;5.812708e-002
1.720265e+003;5.839569e-002
1.722193e+003;5.828923e-002
1.724122e+003;5.832470e-002
1.726050e+003;5.831406e-002
1.727979e+003;5.830742e-002
1.729908e+003;5.836650e-002
1.731836e+003;5.824160e-002
1.733765e+003;5.815530e-002
1.735693e+003;5.796275e-002
1.737622e+003;5.762581e-002
1.739550e+003;5.728508e-002
1.741479e+003;5.706110e-002
1.743407e+003;5.656548e-002
1.745336e+003;5.627273e-002
1.747265e+003;5.616396e-002
1.749193e+003;5.604844e-002
1.751122e+003;5.564638e-002
1.753050e+003;5.499382e-002
1.754979e+003;5.454168e-002
1.756907e+003;5.428791e-002
1.758836e+003;5.401279e-002
1.760764e+003;5.363548e-002
1.762693e+003;5.346632e-002
1.764621e+003;5.341386e-002
1.766550e+003;5.281194e-002
1.768479e+003;5.230780e-002
1.770407e+003;5.220036e-002
1.772336e+003;5.188802e-002
1.774264e+003;5.173361e-002
1.776193e+003;5.165221e-002
1.778121e+003;5.155698e-002
1.780050e+003;5.133247e-002
1.781978e+003;5.107945e-002
1.783907e+003;5.112838e-002
1.785835e+003;5.131069e-002
1.787764e+003;5.097935e-002
1.789693e+003;5.073909e-002
1.791621e+003;5.094150e-002
1.793550e+003;5.079182e-002
1.795478e+003;5.048075e-002
1.797407e+003;5.039002e-002
1.799335e+003;5.039334e-002
1.801264e+003;5.033674e-002
1.803192e+003;5.029217e-002
1.805121e+003;5.014882e-002
1.807049e+003;5.019542e-002
1.808978e+003;5.017485e-002
1.810907e+003;4.988392e-002
1.812835e+003;4.961603e-002
1.814764e+003;4.968446e-002
1.816692e+003;5.004206e-002
1.818621e+003;5.016358e-002
1.820549e+003;4.994332e-002
1.822478e+003;4.986880e-002
1.824406e+003;4.966105e-002
1.826335e+003;4.961005e-002
1.828264e+003;4.973510e-002
1.830192e+003;4.989124e-002
1.832121e+003;5.013026e-002
1.834049e+003;5.035304e-002
1.835978e+003;5.037819e-002
1.837906e+003;5.022097e-002
1.839835e+003;5.037563e-002
1.841763e+003;5.054057e-002
1.843692e+003;5.041042e-002
1.845620e+003;5.020844e-002
1.847549e+003;5.023637e-002
1.849478e+003;5.025635e-002
1.851406e+003;5.006597e-002
1.853335e+003;4.999934e-002
1.855263e+003;5.013945e-002
1.857192e+003;5.014027e-002
1.859120e+003;5.022053e-002
1.861049e+003;5.028294e-002
1.862977e+003;5.021498e-002
1.864906e+003;4.995518e-002
1.866834e+003;4.992269e-002
1.868763e+003;5.010542e-002
1.870692e+003;5.026941e-002
1.872620e+003;5.034589e-002
1.874549e+003;5.048038e-002
1.876477e+003;5.050360e-002
1.878406e+003;5.050874e-002
1.880334e+003;5.054924e-002
1.882263e+003;5.025572e-002
1.884191e+003;5.005359e-002
1.886120e+003;4.997023e-002
1.888048e+003;4.989976e-002
1.889977e+003;5.017917e-002
1.891906e+003;5.049002e-002
1.893834e+003;5.063896e-002
1.895763e+003;5.085335e-002
1.897691e+003;5.073909e-002
1.899620e+003;5.055359e-002
1.901548e+003;5.060783e-002
1.903477e+003;5.049318e-002
1.905405e+003;5.060768e-002
1.907334e+003;5.085965e-002
1.909262e+003;5.096739e-002
1.911191e+003;5.099221e-002
1.913120e+003;5.083983e-002
1.915048e+003;5.076527e-002
1.916977e+003;5.086520e-002
1.918905e+003;5.101479e-002
1.920834e+003;5.111016e-002
1.922762e+003;5.108284e-002
1.924691e+003;5.107211e-002
1.926619e+003;5.119131e-002
1.928548e+003;5.105008e-002
1.930477e+003;5.106368e-002
1.932405e+003;5.143246e-002
1.934334e+003;5.168587e-002
1.936262e+003;5.158086e-002
1.938191e+003;5.139755e-002
1.940119e+003;5.129578e-002
1.942048e+003;5.144055e-002
1.943976e+003;5.171805e-002
1.945905e+003;5.199344e-002
1.947833e+003;5.221265e-002
1.949762e+003;5.219954e-002
1.951691e+003;5.206243e-002
1.953619e+003;5.226564e-002
1.955548e+003;5.244398e-002
1.957476e+003;5.226497e-002
1.959405e+003;5.219169e-002
1.961333e+003;5.230895e-002
1.963262e+003;5.214674e-002
1.965190e+003;5.202410e-002
1.967119e+003;5.203609e-002
1.969047e+003;5.228369e-002
1.970976e+003;5.255181e-002
1.972905e+003;5.252407e-002
1.974833e+003;5.256210e-002
1.976762e+003;5.264531e-002
1.978690e+003;5.247549e-002
1.980619e+003;5.246181e-002
1.982547e+003;5.271437e-002
1.984476e+003;5.278295e-002
1.986404e+003;5.270210e-002
1.988333e+003;5.274662e-002
1.990261e+003;5.281217e-002
1.992190e+003;5.313659e-002
1.994119e+003;5.337355e-002
1.996047e+003;5.328274e-002
1.997976e+003;5.324891e-002
1.999904e+003;5.327494e-002
2.001833e+003;5.344811e-002
2.003761e+003;5.360665e-002
2.005690e+003;5.367950e-002
2.007618e+003;5.388220e-002
2.009547e+003;5.393685e-002
2.011476e+003;5.406266e-002
2.013404e+003;5.415423e-002
2.015333e+003;5.418171e-002
2.017261e+003;5.412481e-002
2.019190e+003;5.419549e-002
2.021118e+003;5.420371e-002
2.023047e+003;5.431938e-002
2.024975e+003;5.479335e-002
2.026904e+003;5.505844e-002
2.028833e+003;5.475400e-002
2.030761e+003;5.463618e-002
2.032690e+003;5.488850e-002
2.034618e+003;5.506382e-002
2.036547e+003;5.487049e-002
2.038475e+003;5.494058e-002
2.040404e+003;5.539799e-002
2.042332e+003;5.558176e-002
2.044261e+003;5.547188e-002
2.046189e+003;5.514951e-002
2.048118e+003;5.525486e-002
2.050047e+003;5.565964e-002
2.051975e+003;5.581164e-002
2.053904e+003;5.581074e-002
2.055832e+003;5.590423e-002
2.057761e+003;5.571972e-002
2.059689e+003;5.550117e-002
2.061618e+003;5.548882e-002
2.063546e+003;5.531300e-002
2.065475e+003;5.528854e-002
2.067404e+003;5.548536e-002
2.069332e+003;5.562393e-002
2.071260e+003;5.561904e-002
2.073189e+003;5.550264e-002
2.075118e+003;5.555525e-002
2.077046e+003;5.575600e-002
2.078975e+003;5.573739e-002
2.080903e+003;5.556782e-002
2.082832e+003;5.546157e-002
2.084760e+003;5.543409e-002
2.086689e+003;5.557663e-002
2.088617e+003;5.585004e-002
2.090546e+003;5.578320e-002
2.092475e+003;5.524169e-002
2.094403e+003;5.512991e-002
2.096332e+003;5.554444e-002
2.098260e+003;5.565885e-002
2.100189e+003;5.556575e-002
2.102117e+003;5.551507e-002
2.104046e+003;5.545645e-002
2.105974e+003;5.547738e-002
2.107903e+003;5.554496e-002
2.109832e+003;5.544388e-002
2.111760e+003;5.536091e-002
2.113688e+003;5.537262e-002
2.115617e+003;5.549643e-002
2.117546e+003;5.567719e-002
2.119474e+003;5.562657e-002
2.121403e+003;5.556861e-002
2.123331e+003;5.567866e-002
2.125260e+003;5.585366e-002
2.127188e+003;5.562235e-002
2.129117e+003;5.541711e-002
2.131045e+003;5.566476e-002
2.132974e+003;5.592058e-002
2.134903e+003;5.596785e-002
2.136831e+003;5.569109e-002
2.138760e+003;5.560812e-002
2.140688e+003;5.578252e-002
2.142617e+003;5.544022e-002
2.144545e+003;5.539411e-002
2.146474e+003;5.571576e-002
2.148402e+003;5.572880e-002
2.150331e+003;5.573991e-002
2.152260e+003;5.588716e-002
2.154188e+003;5.576685e-002
2.156117e+003;5.549334e-002
2.158045e+003;5.553845e-002
2.159974e+003;5.558865e-002
2.161902e+003;5.554945e-002
2.163831e+003;5.584563e-002
2.165759e+003;5.579597e-002
2.167688e+003;5.561949e-002
2.169616e+003;5.581582e-002
2.171545e+003;5.557498e-002
2.173474e+003;5.541003e-002
2.175402e+003;5.551247e-002
2.177331e+003;5.537570e-002
2.179259e+003;5.521140e-002
2.181188e+003;5.529080e-002
2.183116e+003;5.528681e-002
2.185045e+003;5.528993e-002
2.186973e+003;5.548028e-002
2.188902e+003;5.543202e-002
2.190831e+003;5.496224e-002
2.192759e+003;5.499048e-002
2.194688e+003;5.533731e-002
2.196616e+003;5.557923e-002
2.198545e+003;5.573995e-002
2.200473e+003;5.561874e-002
2.202402e+003;5.545317e-002
2.204330e+003;5.537837e-002
2.206259e+003;5.523548e-002
2.208188e+003;5.531831e-002
2.210116e+003;5.541895e-002
2.212044e+003;5.520109e-002
2.213973e+003;5.516963e-002
2.215902e+003;5.514300e-002
2.217830e+003;5.532162e-002
2.219759e+003;5.553096e-002
2.221687e+003;5.545950e-002
2.223616e+003;5.535620e-002
2.225544e+003;5.532184e-002
2.227473e+003;5.513623e-002
2.229401e+003;5.510801e-002
2.231330e+003;5.540909e-002
2.233259e+003;5.556748e-002
2.235187e+003;5.522099e-002
2.237116e+003;5.495220e-002
2.239044e+003;5.518562e-002
2.240973e+003;5.550585e-002
2.242901e+003;5.553951e-002
2.244830e+003;5.527913e-002
2.246758e+003;5.522114e-002
2.248687e+003;5.534183e-002
2.250615e+003;5.533238e-002
2.252544e+003;5.541884e-002
2.254473e+003;5.548310e-002
2.256401e+003;5.528624e-002
2.258330e+003;5.529719e-002
2.260258e+003;5.541914e-002
2.262187e+003;5.525023e-002
2.264115e+003;5.527556e-002
2.266044e+003;5.550189e-002
2.267972e+003;5.550524e-002
2.269901e+003;5.550317e-002
2.271830e+003;5.547889e-002
2.273758e+003;5.518453e-002
2.275687e+003;5.521569e-002
2.277615e+003;5.553484e-002
2.279544e+003;5.556850e-002
2.281472e+003;5.528711e-002
2.283401e+003;5.520944e-002
2.285329e+003;5.545234e-002
2.287258e+003;5.540540e-002
2.289187e+003;5.498029e-002
2.291115e+003;5.495351e-002
2.293043e+003;5.504516e-002
2.294972e+003;5.499759e-002
2.296901e+003;5.540499e-002
2.298829e+003;5.563938e-002
2.300758e+003;5.549334e-002
2.302686e+003;5.549658e-002
2.304615e+003;5.553051e-002
2.306543e+003;5.544124e-002
2.308472e+003;5.537228e-002
2.310400e+003;5.524714e-002
2.312329e+003;5.508432e-002
2.314258e+003;5.493471e-002
2.316186e+003;5.527085e-002
2.318115e+003;5.528304e-002
2.320043e+003;5.493715e-002
2.321972e+003;5.514556e-002
2.323900e+003;5.537393e-002
2.325829e+003;5.543228e-002
2.327757e+003;5.524398e-002
2.329686e+003;5.489222e-002
2.331615e+003;5.488139e-002
2.333543e+003;5.507709e-002
2.335472e+003;5.495032e-002
2.337400e+003;5.486448e-002
2.339329e+003;5.485812e-002
2.341257e+003;5.520613e-002
2.343186e+003;5.550385e-002
2.345114e+003;5.571309e-002
2.347043e+003;5.593664e-002
2.348971e+003;5.585377e-002
2.350900e+003;5.583971e-002
2.352829e+003;5.575408e-002
2.354757e+003;5.546243e-002
2.356686e+003;5.505279e-002
2.358614e+003;5.507683e-002
2.360543e+003;5.531225e-002
2.362471e+003;5.535259e-002
2.364400e+003;5.530193e-002
2.366328e+003;5.565583e-002
2.368257e+003;5.603758e-002
2.370186e+003;5.603396e-002
2.372114e+003;5.612953e-002
2.374042e+003;5.667529e-002
2.375971e+003;5.719175e-002
2.377900e+003;5.701247e-002
2.379828e+003;5.686288e-002
2.381757e+003;5.699090e-002
2.383685e+003;5.706223e-002
2.385614e+003;5.708778e-002
2.387542e+003;5.709840e-002
2.389471e+003;5.702589e-002
2.391399e+003;5.709209e-002
2.393328e+003;5.732028e-002
2.395257e+003;5.758321e-002
2.397185e+003;5.762710e-002
2.399114e+003;5.769687e-002
2.401042e+003;5.790948e-002
2.402971e+003;5.795984e-002
2.404899e+003;5.811859e-002
2.406828e+003;5.833327e-002
2.408756e+003;5.835832e-002
2.410685e+003;5.818068e-002
2.412614e+003;5.802785e-002
2.414542e+003;5.809931e-002
2.416471e+003;5.840979e-002
2.418399e+003;5.853841e-002
2.420328e+003;5.836791e-002
2.422256e+003;5.858809e-002
2.424185e+003;5.893265e-002
2.426113e+003;5.884086e-002
2.428042e+003;5.878201e-002
2.429970e+003;5.888916e-002
2.431899e+003;5.896923e-002
2.433828e+003;5.915004e-002
2.435756e+003;5.916731e-002
2.437685e+003;5.919678e-002
2.439613e+003;5.934399e-002
2.441542e+003;5.943877e-002
2.443470e+003;5.941776e-002
2.445399e+003;5.957333e-002
2.447327e+003;5.988459e-002
2.449256e+003;5.997565e-002
2.451185e+003;5.991152e-002
2.453113e+003;5.995039e-002
2.455042e+003;5.996660e-002
2.456970e+003;5.983637e-002
2.458899e+003;5.994184e-002
2.460827e+003;6.008583e-002
2.462756e+003;6.024624e-002
2.464684e+003;6.023251e-002
2.466613e+003;6.012252e-002
2.468542e+003;6.003492e-002
2.470470e+003;6.006989e-002
2.472398e+003;6.023395e-002
2.474327e+003;6.034583e-002
2.476256e+003;6.024255e-002
2.478184e+003;6.028690e-002
2.480113e+003;6.061887e-002
2.482041e+003;6.040329e-002
2.483970e+003;6.023791e-002
2.485898e+003;6.057285e-002
2.487827e+003;6.055178e-002
2.489755e+003;6.012906e-002
2.491684e+003;6.017568e-002
2.493613e+003;6.064706e-002
2.495541e+003;6.097865e-002
2.497470e+003;6.094811e-002
2.499398e+003;6.074190e-002
2.501327e+003;6.075550e-002
2.503255e+003;6.085837e-002
2.505184e+003;6.112204e-002
2.507112e+003;6.150916e-002
2.509041e+003;6.158655e-002
2.510969e+003;6.148873e-002
2.512898e+003;6.158070e-002
2.514827e+003;6.177253e-002
2.516755e+003;6.181952e-002
2.518684e+003;6.166960e-002
2.520612e+003;6.163641e-002
2.522541e+003;6.179591e-002
2.524469e+003;6.209130e-002
2.526398e+003;6.215163e-002
2.528326e+003;6.191424e-002
2.530255e+003;6.192295e-002
2.532184e+003;6.203454e-002
2.534112e+003;6.202491e-002
2.536041e+003;6.189597e-002
2.537969e+003;6.205518e-002
2.539898e+003;6.216134e-002
2.541826e+003;6.220240e-002
2.543755e+003;6.227777e-002
2.545683e+003;6.209260e-002
2.547612e+003;6.165528e-002
2.549541e+003;6.175970e-002
2.551469e+003;6.204241e-002
2.553397e+003;6.210529e-002
2.555326e+003;6.221108e-002
2.557255e+003;6.237542e-002
2.559183e+003;6.254467e-002
2.561112e+003;6.246241e-002
2.563040e+003;6.249199e-002
2.564969e+003;6.269632e-002
2.566897e+003;6.258823e-002
2.568826e+003;6.256335e-002
2.570754e+003;6.261528e-002
2.572683e+003;6.246907e-002
2.574612e+003;6.262612e-002
2.576540e+003;6.258478e-002
2.578469e+003;6.254322e-002
2.580397e+003;6.287960e-002
2.582326e+003;6.310258e-002
2.584254e+003;6.295957e-002
2.586183e+003;6.293482e-002
2.588111e+003;6.297030e-002
2.590040e+003;6.299780e-002
2.591969e+003;6.318385e-002
2.593897e+003;6.341496e-002
2.595826e+003;6.336378e-002
2.597754e+003;6.329612e-002
2.599683e+003;6.344549e-002
2.601611e+003;6.359974e-002
2.603540e+003;6.324034e-002
2.605468e+003;6.293678e-002
2.607397e+003;6.330447e-002
2.609325e+003;6.380567e-002
2.611254e+003;6.388711e-002
2.613183e+003;6.377450e-002
2.615111e+003;6.380198e-002
2.617040e+003;6.380141e-002
2.618968e+003;6.374208e-002
2.620897e+003;6.391317e-002
2.622825e+003;6.402563e-002
2.624754e+003;6.405700e-002
2.626682e+003;6.434605e-002
2.628611e+003;6.476190e-002
2.630540e+003;6.457144e-002
2.632468e+003;6.416603e-002
2.634396e+003;6.419715e-002
2.636325e+003;6.443429e-002
2.638254e+003;6.503730e-002
2.640182e+003;6.533260e-002
2.642111e+003;6.506367e-002
2.644039e+003;6.466080e-002
2.645968e+003;6.461373e-002
2.647896e+003;6.499024e-002
2.649825e+003;6.511609e-002
2.651753e+003;6.516075e-002
2.653682e+003;6.547462e-002
2.655611e+003;6.572384e-002
2.657539e+003;6.577615e-002
2.659468e+003;6.596417e-002
2.661396e+003;6.624469e-002
2.663325e+003;6.598226e-002
2.665253e+003;6.557935e-002
2.667182e+003;6.578159e-002
2.669110e+003;6.602021e-002
2.671039e+003;6.612268e-002
2.672968e+003;6.634381e-002
2.674896e+003;6.634215e-002
2.676825e+003;6.617624e-002
2.678753e+003;6.618013e-002
2.680682e+003;6.642242e-002
2.682610e+003;6.665824e-002
2.684539e+003;6.666623e-002
2.686467e+003;6.657186e-002
2.688396e+003;6.673113e-002
2.690324e+003;6.693731e-002
2.692253e+003;6.708658e-002
2.694182e+003;6.714649e-002
2.696110e+003;6.716173e-002
2.698039e+003;6.726322e-002
2.699967e+003;6.748823e-002
2.701896e+003;6.767533e-002
2.703824e+003;6.777196e-002
2.705753e+003;6.778342e-002
2.707681e+003;6.791318e-002
2.709610e+003;6.792876e-002
2.711539e+003;6.792093e-002
2.713467e+003;6.808841e-002
2.715396e+003;6.814450e-002
2.717324e+003;6.825297e-002
2.719253e+003;6.825786e-002
2.721181e+003;6.840379e-002
2.723110e+003;6.882937e-002
2.725038e+003;6.883375e-002
2.726967e+003;6.873892e-002
2.728896e+003;6.872727e-002
2.730824e+003;6.868237e-002
2.732752e+003;6.895618e-002
2.734681e+003;6.923531e-002
2.736610e+003;6.919466e-002
2.738538e+003;6.923636e-002
2.740467e+003;6.928552e-002
2.742395e+003;6.913133e-002
2.744324e+003;6.899786e-002
2.746252e+003;6.926904e-002
2.748181e+003;6.940252e-002
2.750109e+003;6.931759e-002
2.752038e+003;6.935474e-002
2.753967e+003;6.939327e-002
2.755895e+003;6.928758e-002
2.757824e+003;6.934837e-002
2.759752e+003;6.936959e-002
2.761681e+003;6.949139e-002
2.763609e+003;6.962421e-002
2.765538e+003;6.961339e-002
2.767466e+003;6.964945e-002
2.769395e+003;7.003969e-002
2.771323e+003;6.998842e-002
2.773252e+003;7.004557e-002
2.775181e+003;7.072884e-002
2.777109e+003;7.128194e-002
2.779038e+003;7.125179e-002
2.780966e+003;7.087240e-002
2.782895e+003;7.060599e-002
2.784823e+003;7.078737e-002
2.786752e+003;7.107790e-002
2.788680e+003;7.141342e-002
2.790609e+003;7.169580e-002
2.792538e+003;7.190049e-002
2.794466e+003;7.216284e-002
2.796395e+003;7.263078e-002
2.798323e+003;7.276690e-002
2.800252e+003;7.293814e-002
2.802180e+003;7.318102e-002
2.804109e+003;7.334445e-002
2.806037e+003;7.362084e-002
2.807966e+003;7.363525e-002
2.809895e+003;7.388970e-002
2.811823e+003;7.464161e-002
2.813751e+003;7.509682e-002
2.815680e+003;7.527127e-002
2.817609e+003;7.555452e-002
2.819537e+003;7.598125e-002
2.821466e+003;7.633440e-002
2.823394e+003;7.674580e-002
2.825323e+003;7.760139e-002
2.827251e+003;7.849935e-002
2.829180e+003;7.895000e-002
2.831108e+003;7.906209e-002
2.833037e+003;7.940435e-002
2.834966e+003;8.009913e-002
2.836894e+003;8.118375e-002
2.838823e+003;8.239656e-002
2.840751e+003;8.309217e-002
2.842680e+003;8.392937e-002
2.844608e+003;8.512671e-002
2.846537e+003;8.641071e-002
2.848465e+003;8.759890e-002
2.850394e+003;8.829162e-002
2.852323e+003;8.885845e-002
2.854251e+003;8.953261e-002
2.856180e+003;9.028626e-002
2.858108e+003;9.140332e-002
2.860037e+003;9.256177e-002
2.861965e+003;9.352057e-002
2.863894e+003;9.420285e-002
2.865822e+003;9.480416e-002
2.867751e+003;9.553118e-002
2.869679e+003;9.621703e-002
2.871608e+003;9.639790e-002
2.873536e+003;9.639393e-002
2.875465e+003;9.664539e-002
2.877394e+003;9.672926e-002
2.879322e+003;9.720513e-002
2.881251e+003;9.817958e-002
2.883179e+003;9.869526e-002
2.885108e+003;9.860019e-002
2.887036e+003;9.888805e-002
2.888965e+003;9.929133e-002
2.890893e+003;9.938891e-002
2.892822e+003;9.953456e-002
2.894750e+003;1.000224e-001
2.896679e+003;1.004814e-001
2.898608e+003;1.004074e-001
2.900536e+003;1.002759e-001
2.902465e+003;1.000070e-001
2.904393e+003;9.914018e-002
2.906322e+003;9.861208e-002
2.908250e+003;9.841055e-002
2.910179e+003;9.789633e-002
2.912107e+003;9.744874e-002
2.914036e+003;9.724206e-002
2.915965e+003;9.682677e-002
2.917893e+003;9.646384e-002
2.919822e+003;9.586878e-002
2.921750e+003;9.508036e-002
2.923679e+003;9.443723e-002
2.925607e+003;9.408958e-002
2.927536e+003;9.320639e-002
2.929464e+003;9.241188e-002
2.931393e+003;9.159116e-002
2.933322e+003;9.087074e-002
2.935250e+003;9.058389e-002
2.937178e+003;8.961117e-002
2.939107e+003;8.869711e-002
2.941036e+003;8.821951e-002
2.942964e+003;8.738434e-002
2.944893e+003;8.625796e-002
2.946821e+003;8.554233e-002
2.948750e+003;8.498609e-002
2.950678e+003;8.412051e-002
2.952607e+003;8.273176e-002
2.954535e+003;8.150893e-002
2.956464e+003;8.094255e-002
2.958393e+003;8.013455e-002
2.960321e+003;7.936855e-002
2.962250e+003;7.837512e-002
2.964178e+003;7.790881e-002
2.966107e+003;7.782584e-002
2.968035e+003;7.695011e-002
2.969964e+003;7.573704e-002
2.971892e+003;7.501270e-002
2.973821e+003;7.442958e-002
2.975750e+003;7.395247e-002
2.977678e+003;7.371707e-002
2.979607e+003;7.317392e-002
2.981535e+003;7.222936e-002
2.983464e+003;7.192938e-002
2.985392e+003;7.176999e-002
2.987321e+003;7.104968e-002
2.989249e+003;7.090326e-002
2.991178e+003;7.144857e-002
2.993106e+003;7.143568e-002
2.995035e+003;7.050273e-002
2.996964e+003;7.007559e-002
2.998892e+003;7.046808e-002
3.000821e+003;7.033210e-002
3.002749e+003;7.018949e-002
3.004678e+003;7.013591e-002
3.006606e+003;7.007632e-002
3.008535e+003;7.033841e-002
3.010463e+003;7.038995e-002
3.012392e+003;6.978717e-002
3.014321e+003;6.943424e-002
3.016249e+003;6.968399e-002
3.018177e+003;6.973935e-002
3.020106e+003;6.979682e-002
3.022035e+003;7.006516e-002
3.023963e+003;7.016713e-002
3.025892e+003;7.028507e-002
3.027820e+003;7.024663e-002
3.029749e+003;6.991878e-002
3.031677e+003;7.016721e-002
3.033606e+003;7.050023e-002
3.035534e+003;7.067554e-002
3.037463e+003;7.086394e-002
3.039392e+003;7.083246e-002
3.041320e+003;7.095573e-002
3.043249e+003;7.127901e-002
3.045177e+003;7.153646e-002
3.047106e+003;7.168537e-002
3.049034e+003;7.204236e-002
3.050963e+003;7.235643e-002
3.052891e+003;7.236845e-002
3.054820e+003;7.278018e-002
3.056749e+003;7.325235e-002
3.058677e+003;7.330311e-002
3.060606e+003;7.304053e-002
3.062534e+003;7.300498e-002
3.064463e+003;7.345317e-002
3.066391e+003;7.386299e-002
3.068320e+003;7.426156e-002
3.070248e+003;7.445975e-002
3.072177e+003;7.452488e-002
3.074105e+003;7.474849e-002
3.076034e+003;7.566774e-002
3.077963e+003;7.602099e-002
3.079891e+003;7.572813e-002
3.081820e+003;7.579140e-002
3.083748e+003;7.613323e-002
3.085677e+003;7.638382e-002
3.087605e+003;7.649362e-002
3.089534e+003;7.683897e-002
3.091462e+003;7.730033e-002
3.093391e+003;7.760012e-002
3.095320e+003;7.786115e-002
3.097248e+003;7.827305e-002
3.099177e+003;7.852476e-002
3.101105e+003;7.846478e-002
3.103034e+003;7.875918e-002
3.104962e+003;7.922712e-002
3.106891e+003;7.935864e-002
3.108819e+003;7.955204e-002
3.110748e+003;8.011802e-002
3.112677e+003;8.073851e-002
3.114605e+003;8.072043e-002
3.116533e+003;8.083773e-002
3.118462e+003;8.164220e-002
3.120391e+003;8.226623e-002
3.122319e+003;8.279835e-002
3.124248e+003;8.314305e-002
3.126176e+003;8.316367e-002
3.128105e+003;8.323948e-002
3.130033e+003;8.361413e-002
3.131962e+003;8.413234e-002
3.133890e+003;8.468885e-002
3.135819e+003;8.513831e-002
3.137748e+003;8.526394e-002
3.139676e+003;8.554410e-002
3.141605e+003;8.605250e-002
3.143533e+003;8.632190e-002
3.145462e+003;8.655563e-002
3.147390e+003;8.689365e-002
3.149319e+003;8.723688e-002
3.151247e+003;8.746081e-002
3.153176e+003;8.806612e-002
3.155104e+003;8.881897e-002
3.157033e+003;8.943006e-002
3.158962e+003;9.004554e-002
3.160890e+003;9.077717e-002
3.162819e+003;9.103730e-002
3.164747e+003;9.113611e-002
3.166676e+003;9.179176e-002
3.168604e+003;9.216637e-002
3.170533e+003;9.224700e-002
3.172461e+003;9.275170e-002
3.174390e+003;9.355883e-002
3.176319e+003;9.433021e-002
3.178247e+003;9.474654e-002
3.180176e+003;9.496452e-002
3.182104e+003;9.565018e-002
3.184033e+003;9.622794e-002
3.185961e+003;9.652720e-002
3.187890e+003;9.685195e-002
3.189818e+003;9.768750e-002
3.191747e+003;9.844862e-002
3.193676e+003;9.884292e-002
3.195604e+003;9.957915e-002
3.197532e+003;1.006420e-001
3.199461e+003;1.013521e-001
3.201390e+003;1.017158e-001
3.203318e+003;1.019902e-001
3.205247e+003;1.024324e-001
3.207175e+003;1.030822e-001
3.209104e+003;1.036247e-001
3.211032e+003;1.040636e-001
3.212961e+003;1.043675e-001
3.214889e+003;1.049697e-001
3.216818e+003;1.059605e-001
3.218747e+003;1.065168e-001
3.220675e+003;1.071624e-001
3.222604e+003;1.077003e-001
3.224532e+003;1.076483e-001
3.226461e+003;1.085260e-001
3.228389e+003;1.101305e-001
3.230318e+003;1.108176e-001
3.232246e+003;1.112155e-001
3.234175e+003;1.119330e-001
3.236104e+003;1.129805e-001
3.238032e+003;1.139711e-001
3.239961e+003;1.142931e-001
3.241889e+003;1.146107e-001
3.243818e+003;1.155123e-001
3.245746e+003;1.164038e-001
3.247675e+003;1.173721e-001
3.249603e+003;1.178383e-001
3.251532e+003;1.183630e-001
3.253460e+003;1.194282e-001
3.255389e+003;1.204061e-001
3.257318e+003;1.215008e-001
3.259246e+003;1.222890e-001
3.261175e+003;1.229812e-001
3.263103e+003;1.237920e-001
3.265032e+003;1.247172e-001
3.266960e+003;1.259054e-001
3.268889e+003;1.265124e-001
3.270817e+003;1.267864e-001
3.272746e+003;1.272395e-001
3.274675e+003;1.271797e-001
3.276603e+003;1.274582e-001
3.278531e+003;1.286213e-001
3.280460e+003;1.298690e-001
3.282389e+003;1.303667e-001
3.284317e+003;1.305622e-001
3.286246e+003;1.312053e-001
3.288174e+003;1.310911e-001
3.290103e+003;1.310295e-001
3.292031e+003;1.313729e-001
3.293960e+003;1.318332e-001
3.295888e+003;1.322791e-001
3.297817e+003;1.329314e-001
3.299746e+003;1.332240e-001
3.301674e+003;1.330192e-001
3.303603e+003;1.334320e-001
3.305531e+003;1.340819e-001
3.307460e+003;1.343739e-001
3.309388e+003;1.344844e-001
3.311317e+003;1.346311e-001
3.313245e+003;1.350589e-001
3.315174e+003;1.354143e-001
3.317103e+003;1.354266e-001
3.319031e+003;1.351815e-001
3.320960e+003;1.350074e-001
3.322888e+003;1.353694e-001
3.324817e+003;1.361325e-001
3.326745e+003;1.366878e-001
3.328674e+003;1.373084e-001
3.330602e+003;1.376177e-001
3.332531e+003;1.372150e-001
3.334459e+003;1.369507e-001
3.336388e+003;1.371354e-001
3.338317e+003;1.372697e-001
3.340245e+003;1.375940e-001
3.342174e+003;1.377352e-001
3.344102e+003;1.371703e-001
3.346031e+003;1.368213e-001
3.347959e+003;1.368412e-001
3.349888e+003;1.363755e-001
3.351816e+003;1.358654e-001
3.353745e+003;1.358287e-001
3.355674e+003;1.355553e-001
3.357602e+003;1.353226e-001
3.359531e+003;1.348430e-001
3.361459e+003;1.337052e-001
3.363388e+003;1.328979e-001
3.365316e+003;1.327076e-001
3.367245e+003;1.326493e-001
3.369173e+003;1.324755e-001
3.371102e+003;1.321320e-001
3.373031e+003;1.312748e-001
3.374959e+003;1.305818e-001
3.376887e+003;1.303389e-001
3.378816e+003;1.301205e-001
3.380745e+003;1.299779e-001
3.382673e+003;1.298434e-001
3.384602e+003;1.296534e-001
3.386530e+003;1.290180e-001
3.388459e+003;1.283736e-001
3.390387e+003;1.276634e-001
3.392316e+003;1.270551e-001
3.394244e+003;1.268503e-001
3.396173e+003;1.264112e-001
3.398102e+003;1.255191e-001
3.400030e+003;1.248190e-001
3.401959e+003;1.243294e-001
3.403887e+003;1.238683e-001
3.405816e+003;1.236356e-001
3.407744e+003;1.235935e-001
3.409673e+003;1.229566e-001
3.411601e+003;1.221957e-001
3.413530e+003;1.218456e-001
3.415458e+003;1.214209e-001
3.417387e+003;1.204068e-001
3.419316e+003;1.196170e-001
3.421244e+003;1.187716e-001
3.423173e+003;1.177226e-001
3.425101e+003;1.168747e-001
3.427030e+003;1.160224e-001
3.428958e+003;1.155690e-001
3.430887e+003;1.155442e-001
3.432815e+003;1.151967e-001
3.434744e+003;1.143004e-001
3.436673e+003;1.130884e-001
3.438601e+003;1.128334e-001
3.440530e+003;1.127460e-001
3.442458e+003;1.114637e-001
3.444387e+003;1.103576e-001
3.446315e+003;1.096855e-001
3.448244e+003;1.085331e-001
3.450172e+003;1.078235e-001
3.452101e+003;1.070882e-001
3.454030e+003;1.064858e-001
3.455958e+003;1.060973e-001
3.457886e+003;1.054509e-001
3.459815e+003;1.045501e-001
3.461744e+003;1.034626e-001
3.463672e+003;1.024580e-001
3.465601e+003;1.016423e-001
3.467529e+003;1.011266e-001
3.469458e+003;1.006359e-001
3.471386e+003;9.961116e-002
3.473315e+003;9.854889e-002
3.475243e+003;9.775090e-002
3.477172e+003;9.711487e-002
3.479101e+003;9.636749e-002
3.481029e+003;9.534642e-002
3.482958e+003;9.432803e-002
3.484886e+003;9.428488e-002
3.486815e+003;9.383380e-002
3.488743e+003;9.210144e-002
3.490672e+003;9.110750e-002
3.492600e+003;9.119137e-002
3.494529e+003;9.106243e-002
3.496458e+003;9.015750e-002
3.498386e+003;8.890691e-002
3.500315e+003;8.794966e-002
3.502243e+003;8.729415e-002
3.504172e+003;8.659757e-002
3.506100e+003;8.606369e-002
3.508029e+003;8.589567e-002
3.509957e+003;8.551647e-002
3.511886e+003;8.460724e-002
3.513814e+003;8.373947e-002
3.515743e+003;8.269376e-002
3.517672e+003;8.207482e-002
3.519600e+003;8.139031e-002
3.521529e+003;8.034950e-002
3.523457e+003;7.972758e-002
3.525386e+003;7.900079e-002
3.527314e+003;7.816146e-002
3.529243e+003;7.780586e-002
3.531171e+003;7.732939e-002
3.533100e+003;7.657910e-002
3.535029e+003;7.547764e-002
3.536957e+003;7.448334e-002
3.538885e+003;7.377435e-002
3.540814e+003;7.321623e-002
3.542743e+003;7.243511e-002
3.544671e+003;7.199492e-002
3.546600e+003;7.186291e-002
3.548528e+003;7.160304e-002
3.550457e+003;7.112114e-002
3.552385e+003;7.026046e-002
3.554314e+003;6.949264e-002
3.556242e+003;6.919241e-002
3.558171e+003;6.847427e-002
3.560100e+003;6.736563e-002
3.562028e+003;6.664383e-002
3.563957e+003;6.632872e-002
3.565885e+003;6.619468e-002
3.567814e+003;6.585757e-002
3.569742e+003;6.527953e-002
3.571671e+003;6.465507e-002
3.573599e+003;6.341132e-002
3.575528e+003;6.313883e-002
3.577457e+003;6.314998e-002
3.579385e+003;6.249979e-002
3.581314e+003;6.201661e-002
3.583242e+003;6.169824e-002
3.585171e+003;6.120176e-002
3.587099e+003;6.040767e-002
3.589028e+003;5.952400e-002
3.590956e+003;5.890028e-002
3.592885e+003;5.865832e-002
3.594813e+003;5.859237e-002
3.596742e+003;5.808984e-002
3.598671e+003;5.778259e-002
3.600599e+003;5.785019e-002
3.602528e+003;5.759906e-002
3.604456e+003;5.696959e-002
3.606385e+003;5.617463e-002
3.608313e+003;5.584442e-002
3.610242e+003;5.539400e-002
3.612170e+003;5.491279e-002
3.614099e+003;5.471724e-002
3.616028e+003;5.463242e-002
3.617956e+003;5.452640e-002
3.619885e+003;5.433297e-002
3.621813e+003;5.418952e-002
3.623742e+003;5.410904e-002
3.625670e+003;5.408379e-002
3.627599e+003;5.357906e-002
3.629527e+003;5.292047e-002
3.631456e+003;5.262089e-002
3.633385e+003;5.217308e-002
3.635313e+003;5.185094e-002
3.637241e+003;5.207789e-002
3.639170e+003;5.195437e-002
3.641099e+003;5.155907e-002
3.643027e+003;5.135052e-002
3.644956e+003;5.114136e-002
3.646884e+003;5.074571e-002
3.648813e+003;5.036721e-002
3.650741e+003;5.027127e-002
3.652670e+003;5.053204e-002
3.654598e+003;5.037313e-002
3.656527e+003;4.984768e-002
3.658456e+003;4.965325e-002
3.660384e+003;4.971313e-002
3.662313e+003;4.970010e-002
3.664241e+003;4.955779e-002
3.666170e+003;4.931226e-002
3.668098e+003;4.921985e-002
3.670027e+003;4.904179e-002
3.671955e+003;4.914419e-002
3.673884e+003;4.892381e-002
3.675813e+003;4.832308e-002
3.677741e+003;4.807705e-002
3.679669e+003;4.816278e-002
3.681598e+003;4.791771e-002
3.683527e+003;4.779459e-002
3.685455e+003;4.771300e-002
3.687384e+003;4.737161e-002
3.689312e+003;4.724078e-002
3.691241e+003;4.751368e-002
3.693169e+003;4.754470e-002
3.695098e+003;4.769976e-002
3.697026e+003;4.742553e-002
3.698955e+003;4.705670e-002
3.700884e+003;4.686373e-002
3.702812e+003;4.693117e-002
3.704741e+003;4.700365e-002
3.706669e+003;4.655056e-002
3.708598e+003;4.636895e-002
3.710526e+003;4.592964e-002
3.712455e+003;4.546763e-002
3.714383e+003;4.608509e-002
3.716312e+003;4.648687e-002
3.718240e+003;4.623175e-002
3.720169e+003;4.612400e-002
3.722098e+003;4.620212e-002
3.724026e+003;4.625331e-002
3.725955e+003;4.601631e-002
3.727883e+003;4.580377e-002
3.729812e+003;4.572557e-002
3.731740e+003;4.598724e-002
3.733669e+003;4.559774e-002
3.735597e+003;4.496550e-002
3.737526e+003;4.523642e-002
3.739455e+003;4.531946e-002
3.741383e+003;4.537621e-002
3.743312e+003;4.580572e-002
3.745240e+003;4.583558e-002
3.747169e+003;4.506793e-002
3.749097e+003;4.477313e-002
3.751026e+003;4.544839e-002
3.752954e+003;4.563510e-002
3.754883e+003;4.567304e-002
3.756812e+003;4.553702e-002
3.758740e+003;4.556293e-002
3.760668e+003;4.559299e-002
3.762597e+003;4.543150e-002
3.764526e+003;4.494184e-002
3.766454e+003;4.467066e-002
3.768383e+003;4.501441e-002
3.770311e+003;4.520263e-002
3.772240e+003;4.513285e-002
3.774168e+003;4.506760e-002
3.776097e+003;4.537058e-002
3.778025e+003;4.511237e-002
3.779954e+003;4.467598e-002
3.781883e+003;4.482063e-002
3.783811e+003;4.494371e-002
3.785740e+003;4.525760e-002
3.787668e+003;4.578739e-002
3.789597e+003;4.533035e-002
3.791525e+003;4.458708e-002
3.793454e+003;4.437935e-002
3.795382e+003;4.503838e-002
3.797311e+003;4.564485e-002
3.799240e+003;4.524801e-002
3.801168e+003;4.506106e-002
3.803097e+003;4.509293e-002
3.805025e+003;4.526246e-002
3.806954e+003;4.525356e-002
3.808882e+003;4.536558e-002
3.810811e+003;4.584427e-002
3.812739e+003;4.629268e-002
3.814668e+003;4.645036e-002
3.816596e+003;4.627753e-002
3.818525e+003;4.582111e-002
3.820454e+003;4.530287e-002
3.822382e+003;4.509594e-002
3.824311e+003;4.531758e-002
3.826239e+003;4.548867e-002
3.828168e+003;4.534969e-002
3.830096e+003;4.524749e-002
3.832025e+003;4.563925e-002
3.833953e+003;4.617577e-002
3.835882e+003;4.624273e-002
3.837811e+003;4.581640e-002
3.839739e+003;4.579118e-002
3.841667e+003;4.623790e-002
3.843596e+003;4.643793e-002
3.845525e+003;4.592942e-002
3.847453e+003;4.541120e-002
3.849382e+003;4.568821e-002
3.851310e+003;4.581327e-002
3.853239e+003;4.602950e-002
3.855167e+003;4.643340e-002
3.857096e+003;4.594558e-002
3.859024e+003;4.548142e-002
3.860953e+003;4.582542e-002
3.862882e+003;4.602117e-002
3.864810e+003;4.620886e-002
3.866739e+003;4.660360e-002
3.868667e+003;4.659401e-002
3.870596e+003;4.651368e-002
3.872524e+003;4.631369e-002
3.874453e+003;4.603211e-002
3.876381e+003;4.597730e-002
3.878310e+003;4.627694e-002
3.880239e+003;4.679697e-002
3.882167e+003;4.689208e-002
3.884096e+003;4.634366e-002
3.886024e+003;4.625847e-002
3.887953e+003;4.656166e-002
3.889881e+003;4.646150e-002
3.891810e+003;4.637444e-002
3.893738e+003;4.684218e-002
3.895667e+003;4.696591e-002
3.897595e+003;4.675180e-002
3.899524e+003;4.680568e-002
3.901453e+003;4.727226e-002
3.903381e+003;4.769740e-002
3.905310e+003;4.735180e-002
3.907238e+003;4.701956e-002
3.909167e+003;4.691227e-002
3.911095e+003;4.691729e-002
3.913024e+003;4.692139e-002
3.914952e+003;4.725848e-002
3.916881e+003;4.758388e-002
3.918810e+003;4.741100e-002
3.920738e+003;4.675457e-002
3.922667e+003;4.696617e-002
3.924595e+003;4.719147e-002
3.926524e+003;4.652710e-002
3.928452e+003;4.670228e-002
3.930381e+003;4.721116e-002
3.932309e+003;4.763043e-002
3.934238e+003;4.721921e-002
3.936167e+003;4.672959e-002
3.938095e+003;4.746825e-002
3.940023e+003;4.801051e-002
3.941952e+003;4.791327e-002
3.943881e+003;4.818726e-002
3.945809e+003;4.858654e-002
3.947738e+003;4.829930e-002
3.949666e+003;4.781993e-002
3.951595e+003;4.787856e-002
3.953523e+003;4.809863e-002
3.955452e+003;4.836826e-002
3.957380e+003;4.825479e-002
3.959309e+003;4.811977e-002
3.961238e+003;4.833674e-002
3.963166e+003;4.801643e-002
3.965095e+003;4.728999e-002
3.967023e+003;4.734803e-002
3.968952e+003;4.805056e-002
3.970880e+003;4.874672e-002
3.972809e+003;4.849921e-002
3.974737e+003;4.813750e-002
3.976666e+003;4.854637e-002
3.978594e+003;4.875870e-002
3.980523e+003;4.821780e-002
3.982452e+003;4.787032e-002
3.984380e+003;4.812055e-002
3.986309e+003;4.788637e-002
3.988237e+003;4.808157e-002
3.990166e+003;4.863468e-002
3.992094e+003;4.876114e-002
3.994023e+003;4.865013e-002
3.995951e+003;4.844045e-002
3.997880e+003;4.815061e-002
3.999809e+003;4.802047e-002
4.001737e+003;0.000000e+000
