3.992094e+002;0.000000e+000
4.011380e+002;0.000000e+000
4.030665e+002;0.000000e+000
4.049951e+002;0.000000e+000
4.069236e+002;0.000000e+000
4.088522e+002;0.000000e+000
4.107807e+002;0.000000e+000
4.127093e+002;0.000000e+000
4.146378e+002;0.000000e+000
4.165664e+002;0.000000e+000
4.184949e+002;0.000000e+000
4.204235e+002;0.000000e+000
4.223520e+002;0.000000e+000
4.242806e+002;0.000000e+000
4.262091e+002;0.000000e+000
4.281377e+002;0.000000e+000
4.300662e+002;0.000000e+000
4.319948e+002;0.000000e+000
4.339233e+002;0.000000e+000
4.358519e+002;0.000000e+000
4.377804e+002;0.000000e+000
4.397090e+002;0.000000e+000
4.416375e+002;0.000000e+000
4.435660e+002;0.000000e+000
4.454946e+002;0.000000e+000
4.474232e+002;0.000000e+000
4.493517e+002;0.000000e+000
4.512802e+002;0.000000e+000
4.532088e+002;0.000000e+000
4.551373e+002;0.000000e+000
4.570659e+002;0.000000e+000
4.589944e+002;0.000000e+000
4.609230e+002;0.000000e+000
4.628515e+002;0.000000e+000
4.647801e+002;0.000000e+000
4.667086e+002;0.000000e+000
4.686372e+002;0.000000e+000
4.705657e+002;0.000000e+000
4.724943e+002;0.000000e+000
4.744228e+002;0.000000e+000
4.763513e+002;0.000000e+000
4.782799e+002;0.000000e+000
4.802085e+002;0.000000e+000
4.821370e+002;0.000000e+000
4.840656e+002;0.000000e+000
4.859941e+002;0.000000e+000
4.879226e+002;0.000000e+000
4.898512e+002;0.000000e+000
4.917798e+002;0.000000e+000
4.937083e+002;0.000000e+000
4.956368e+002;0.000000e+000
4.975654e+002;0.000000e+000
4.994939e+002;0.000000e+000
5.014225e+002;0.000000e+000
5.033510e+002;0.000000e+000
5.052796e+002;0.000000e+000
5.072081e+002;0.000000e+000
5.091367e+002;0.000000e+000
5.110652e+002;0.000000e+000
5.129938e+002;0.000000e+000
5.149223e+002;0.000000e+000
5.168509e+002;0.000000e+000
5.187794e+002;0.000000e+000
5.207079e+002;0.000000e+000
5.226365e+002;0.000000e+000
5.245651e+002;0.000000e+000
5.264936e+002;0.000000e+000
5.284222e+002;0.000000e+000
5.303507e+002;0.000000e+000
5.322792e+002;0.000000e+000
5.342078e+002;0.000000e+000
5.361364e+002;0.000000e+000
5.380649e+002;0.000000e+000
5.399935e+002;0.000000e+000
5.419220e+002;0.000000e+000
5.438505e+002;0.000000e+000
5.457791e+002;0.000000e+000
5.477076e+002;0.000000e+000
5.496362e+002;0.000000e+000
5.515648e+002;0.000000e+000
5.534933e+002;0.000000e+000
5.554218e+002;0.000000e+000
5.573504e+002;0.000000e+000
5.592789e+002;0.000000e+000
5.612075e+002;0.000000e+000
5.631360e+002;0.000000e+000
5.650646e+002;0.000000e+000
5.669931e+002;0.000000e+000
5.689217e+002;0.000000e+000
5.708502e+002;0.000000e+000
5.727787e+002;0.000000e+000
5.747073e+002;0.000000e+000
5.766359e+002;0.000000e+000
5.785644e+002;0.000000e+000
5.804930e+002;0.000000e+000
5.824215e+002;0.000000e+000
5.843500e+002;0.000000e+000
5.862786e+002;0.000000e+000
5.882072e+002;0.000000e+000
5.901357e+002;0.000000e+000
5.920643e+002;0.000000e+000
5.939928e+002;0.000000e+000
5.959213e+002;0.000000e+000
5.978499e+002;0.000000e+000
5.997784e+002;2.246423e-001
6.017070e+002;2.338999e-001
6.036355e+002;2.375789e-001
6.055641e+002;2.402992e-001
6.074926e+002;2.414179e-001
6.094211e+002;2.379216e-001
6.113497e+002;2.311226e-001
6.132783e+002;2.252809e-001
6.152068e+002;2.242867e-001
6.171354e+002;2.197079e-001
6.190639e+002;2.218410e-001
6.209924e+002;2.244780e-001
6.229210e+002;2.180555e-001
6.248495e+002;2.151525e-001
6.267781e+002;2.129781e-001
6.287067e+002;2.068775e-001
6.306352e+002;2.062796e-001
6.325637e+002;2.090130e-001
6.344923e+002;2.082610e-001
6.364208e+002;2.085512e-001
6.383494e+002;2.063960e-001
6.402780e+002;2.004004e-001
6.422065e+002;2.018251e-001
6.441350e+002;2.061456e-001
6.460636e+002;2.052721e-001
6.479921e+002;1.974110e-001
6.499207e+002;1.960067e-001
6.518492e+002;1.989667e-001
6.537778e+002;2.010165e-001
6.557063e+002;2.072264e-001
6.576349e+002;2.090434e-001
6.595634e+002;2.078179e-001
6.614919e+002;2.102946e-001
6.634205e+002;2.108694e-001
6.653491e+002;2.089041e-001
6.672776e+002;2.089213e-001
6.692062e+002;2.063828e-001
6.711347e+002;2.016018e-001
6.730632e+002;1.943321e-001
6.749918e+002;1.889501e-001
6.769203e+002;1.869206e-001
6.788489e+002;1.841945e-001
6.807775e+002;1.806028e-001
6.827060e+002;1.786833e-001
6.846345e+002;1.762416e-001
6.865631e+002;1.740378e-001
6.884916e+002;1.728216e-001
6.904202e+002;1.709629e-001
6.923488e+002;1.696078e-001
6.942773e+002;1.695543e-001
6.962058e+002;1.701699e-001
6.981344e+002;1.697531e-001
7.000629e+002;1.685997e-001
7.019915e+002;1.660811e-001
7.039200e+002;1.645964e-001
7.058486e+002;1.642960e-001
7.077771e+002;1.639894e-001
7.097057e+002;1.630450e-001
7.116342e+002;1.608892e-001
7.135627e+002;1.585020e-001
7.154913e+002;1.570682e-001
7.174199e+002;1.556208e-001
7.193484e+002;1.534262e-001
7.212770e+002;1.519376e-001
7.232055e+002;1.503987e-001
7.251340e+002;1.484304e-001
7.270626e+002;1.473018e-001
7.289911e+002;1.466067e-001
7.309197e+002;1.446445e-001
7.328483e+002;1.412700e-001
7.347768e+002;1.394618e-001
7.367053e+002;1.382832e-001
7.386339e+002;1.361842e-001
7.405624e+002;1.340213e-001
7.424910e+002;1.332975e-001
7.444196e+002;1.328533e-001
7.463481e+002;1.310945e-001
7.482766e+002;1.289910e-001
7.502052e+002;1.284276e-001
7.521337e+002;1.289947e-001
7.540623e+002;1.284117e-001
7.559908e+002;1.261670e-001
7.579194e+002;1.237020e-001
7.598479e+002;1.223244e-001
7.617765e+002;1.228575e-001
7.637050e+002;1.230370e-001
7.656335e+002;1.212309e-001
7.675621e+002;1.189734e-001
7.694907e+002;1.182713e-001
7.714192e+002;1.179952e-001
7.733478e+002;1.175806e-001
7.752763e+002;1.169019e-001
7.772048e+002;1.163625e-001
7.791334e+002;1.161471e-001
7.810620e+002;1.151960e-001
7.829905e+002;1.144375e-001
7.849191e+002;1.148532e-001
7.868476e+002;1.143617e-001
7.887761e+002;1.135891e-001
7.907047e+002;1.131928e-001
7.926332e+002;1.138460e-001
7.945618e+002;1.139499e-001
7.964903e+002;1.139802e-001
7.984189e+002;1.137197e-001
8.003474e+002;1.129180e-001
8.022759e+002;1.122267e-001
8.042045e+002;1.118135e-001
8.061331e+002;1.120217e-001
8.080616e+002;1.114265e-001
8.099902e+002;1.110068e-001
8.119187e+002;1.112664e-001
8.138472e+002;1.114820e-001
8.157758e+002;1.110752e-001
8.177043e+002;1.111168e-001
8.196329e+002;1.118095e-001
8.215615e+002;1.125303e-001
8.234900e+002;1.132878e-001
8.254185e+002;1.138487e-001
8.273471e+002;1.133728e-001
8.292756e+002;1.135405e-001
8.312042e+002;1.141121e-001
8.331328e+002;1.145851e-001
8.350613e+002;1.146431e-001
8.369898e+002;1.149543e-001
8.389184e+002;1.148847e-001
8.408469e+002;1.139667e-001
8.427755e+002;1.134459e-001
8.447040e+002;1.134536e-001
8.466326e+002;1.137798e-001
8.485611e+002;1.140041e-001
8.504897e+002;1.135065e-001
8.524182e+002;1.133437e-001
8.543467e+002;1.138891e-001
8.562753e+002;1.139739e-001
8.582039e+002;1.143940e-001
8.601324e+002;1.151334e-001
8.620610e+002;1.159789e-001
8.639895e+002;1.169413e-001
8.659180e+002;1.185611e-001
8.678466e+002;1.204393e-001
8.697751e+002;1.224687e-001
8.717037e+002;1.251122e-001
8.736323e+002;1.279516e-001
8.755608e+002;1.303148e-001
8.774893e+002;1.322589e-001
8.794179e+002;1.337704e-001
8.813464e+002;1.358326e-001
8.832750e+002;1.385960e-001
8.852036e+002;1.415178e-001
8.871321e+002;1.444994e-001
8.890606e+002;1.479907e-001
8.909892e+002;1.514008e-001
8.929177e+002;1.541747e-001
8.948463e+002;1.567230e-001
8.967748e+002;1.578356e-001
8.987034e+002;1.566882e-001
9.006319e+002;1.548987e-001
9.025605e+002;1.525478e-001
9.044890e+002;1.491105e-001
9.064175e+002;1.464700e-001
9.083461e+002;1.445720e-001
9.102747e+002;1.431400e-001
9.122032e+002;1.420055e-001
9.141318e+002;1.414867e-001
9.160603e+002;1.411469e-001
9.179888e+002;1.414994e-001
9.199174e+002;1.426899e-001
9.218459e+002;1.436149e-001
9.237745e+002;1.439180e-001
9.257031e+002;1.448522e-001
9.276316e+002;1.461248e-001
9.295601e+002;1.477151e-001
9.314887e+002;1.488501e-001
9.334172e+002;1.500459e-001
9.353458e+002;1.522966e-001
9.372744e+002;1.552557e-001
9.392029e+002;1.578702e-001
9.411314e+002;1.605551e-001
9.430600e+002;1.641244e-001
9.449885e+002;1.681523e-001
9.469171e+002;1.721233e-001
9.488456e+002;1.764298e-001
9.507742e+002;1.815242e-001
9.527027e+002;1.874600e-001
9.546313e+002;1.939478e-001
9.565598e+002;1.998000e-001
9.584883e+002;2.052195e-001
9.604169e+002;2.117198e-001
9.623455e+002;2.185410e-001
9.642740e+002;2.246258e-001
9.662026e+002;2.306435e-001
9.681311e+002;2.368500e-001
9.700596e+002;2.432974e-001
9.719882e+002;2.507414e-001
9.739167e+002;2.593514e-001
9.758453e+002;2.694473e-001
9.777739e+002;2.799619e-001
9.797024e+002;2.898980e-001
9.816309e+002;2.999426e-001
9.835595e+002;3.087651e-001
9.854880e+002;3.156154e-001
9.874166e+002;3.211812e-001
9.893452e+002;3.250780e-001
9.912737e+002;3.279014e-001
9.932022e+002;3.305603e-001
9.951307e+002;3.338287e-001
9.970593e+002;3.379907e-001
9.989879e+002;3.424176e-001
1.000916e+003;3.471219e-001
1.002845e+003;3.516163e-001
1.004773e+003;3.554730e-001
1.006702e+003;3.593582e-001
1.008631e+003;3.631458e-001
1.010559e+003;3.677760e-001
1.012488e+003;3.736468e-001
1.014416e+003;3.798117e-001
1.016345e+003;3.859300e-001
1.018273e+003;3.917314e-001
1.020202e+003;3.978839e-001
1.022130e+003;4.040173e-001
1.024059e+003;4.078320e-001
1.025988e+003;4.110251e-001
1.027916e+003;4.142122e-001
1.029845e+003;4.159141e-001
1.031773e+003;4.162448e-001
1.033702e+003;4.138144e-001
1.035630e+003;4.085365e-001
1.037559e+003;4.027156e-001
1.039487e+003;3.977931e-001
1.041416e+003;3.935244e-001
1.043344e+003;3.912768e-001
1.045273e+003;3.906728e-001
1.047202e+003;3.898231e-001
1.049130e+003;3.890316e-001
1.051059e+003;3.877442e-001
1.052987e+003;3.847003e-001
1.054916e+003;3.796787e-001
1.056844e+003;3.731268e-001
1.058773e+003;3.641628e-001
1.060701e+003;3.538128e-001
1.062630e+003;3.427055e-001
1.064558e+003;3.310353e-001
1.066487e+003;3.195777e-001
1.068416e+003;3.092454e-001
1.070344e+003;2.998548e-001
1.072273e+003;2.921718e-001
1.074201e+003;2.861063e-001
1.076130e+003;2.809061e-001
1.078058e+003;2.762184e-001
1.079987e+003;2.719114e-001
1.081915e+003;2.679440e-001
1.083844e+003;2.651761e-001
1.085773e+003;2.630530e-001
1.087701e+003;2.622237e-001
1.089630e+003;2.628328e-001
1.091558e+003;2.629319e-001
1.093487e+003;2.624239e-001
1.095415e+003;2.620346e-001
1.097344e+003;2.620959e-001
1.099272e+003;2.618480e-001
1.101201e+003;2.619106e-001
1.103129e+003;2.611404e-001
1.105058e+003;2.579231e-001
1.106987e+003;2.534074e-001
1.108915e+003;2.484672e-001
1.110844e+003;2.429363e-001
1.112772e+003;2.363943e-001
1.114701e+003;2.289945e-001
1.116629e+003;2.219450e-001
1.118558e+003;2.151248e-001
1.120486e+003;2.087058e-001
1.122415e+003;2.025892e-001
1.124344e+003;1.961266e-001
1.126272e+003;1.894661e-001
1.128201e+003;1.827134e-001
1.130129e+003;1.756214e-001
1.132058e+003;1.682580e-001
1.133986e+003;1.613890e-001
1.135915e+003;1.562792e-001
1.137843e+003;1.527288e-001
1.139772e+003;1.506389e-001
1.141700e+003;1.493527e-001
1.143629e+003;1.490140e-001
1.145557e+003;1.493886e-001
1.147486e+003;1.500149e-001
1.149415e+003;1.503900e-001
1.151343e+003;1.505722e-001
1.153272e+003;1.506186e-001
1.155200e+003;1.504144e-001
1.157129e+003;1.496302e-001
1.159057e+003;1.480730e-001
1.160986e+003;1.459719e-001
1.162914e+003;1.430207e-001
1.164843e+003;1.383338e-001
1.166771e+003;1.315892e-001
1.168700e+003;1.245663e-001
1.170629e+003;1.175497e-001
1.172557e+003;1.107229e-001
1.174486e+003;1.051035e-001
1.176414e+003;1.005145e-001
1.178343e+003;9.681112e-002
1.180271e+003;9.424219e-002
1.182200e+003;9.241909e-002
1.184128e+003;9.148103e-002
1.186057e+003;9.171137e-002
1.187986e+003;9.286929e-002
1.189914e+003;9.486244e-002
1.191843e+003;9.691089e-002
1.193771e+003;9.905809e-002
1.195700e+003;1.013176e-001
1.197628e+003;1.035583e-001
1.199557e+003;1.055385e-001
1.201485e+003;1.068780e-001
1.203414e+003;1.077447e-001
1.205343e+003;1.079895e-001
1.207271e+003;1.079764e-001
1.209200e+003;1.072398e-001
1.211128e+003;1.066009e-001
1.213057e+003;1.070606e-001
1.214985e+003;1.074554e-001
1.216914e+003;1.082367e-001
1.218842e+003;1.100077e-001
1.220771e+003;1.120199e-001
1.222699e+003;1.143475e-001
1.224628e+003;1.164608e-001
1.226557e+003;1.175501e-001
1.228485e+003;1.183386e-001
1.230414e+003;1.193396e-001
1.232342e+003;1.204232e-001
1.234271e+003;1.207569e-001
1.236199e+003;1.203432e-001
1.238128e+003;1.198518e-001
1.240056e+003;1.193669e-001
1.241985e+003;1.190973e-001
1.243913e+003;1.189225e-001
1.245842e+003;1.183368e-001
1.247771e+003;1.174382e-001
1.249699e+003;1.166804e-001
1.251628e+003;1.161317e-001
1.253556e+003;1.158295e-001
1.255485e+003;1.162368e-001
1.257413e+003;1.168601e-001
1.259342e+003;1.170862e-001
1.261270e+003;1.170315e-001
1.263199e+003;1.168392e-001
1.265127e+003;1.165649e-001
1.267056e+003;1.159810e-001
1.268985e+003;1.151780e-001
1.270913e+003;1.141534e-001
1.272842e+003;1.130591e-001
1.274770e+003;1.122131e-001
1.276699e+003;1.114889e-001
1.278627e+003;1.104580e-001
1.280556e+003;1.091258e-001
1.282484e+003;1.078272e-001
1.284413e+003;1.068782e-001
1.286342e+003;1.061201e-001
1.288270e+003;1.056890e-001
1.290199e+003;1.064739e-001
1.292127e+003;1.076662e-001
1.294056e+003;1.084638e-001
1.295984e+003;1.095098e-001
1.297913e+003;1.111122e-001
1.299841e+003;1.132673e-001
1.301770e+003;1.161376e-001
1.303698e+003;1.194968e-001
1.305627e+003;1.232301e-001
1.307556e+003;1.270939e-001
1.309484e+003;1.307301e-001
1.311413e+003;1.340328e-001
1.313341e+003;1.364555e-001
1.315270e+003;1.375653e-001
1.317198e+003;1.380716e-001
1.319127e+003;1.382361e-001
1.321055e+003;1.375700e-001
1.322984e+003;1.362482e-001
1.324912e+003;1.347448e-001
1.326841e+003;1.339917e-001
1.328770e+003;1.334570e-001
1.330698e+003;1.329163e-001
1.332627e+003;1.321796e-001
1.334555e+003;1.306870e-001
1.336484e+003;1.290708e-001
1.338412e+003;1.273466e-001
1.340341e+003;1.254175e-001
1.342269e+003;1.232383e-001
1.344198e+003;1.205994e-001
1.346126e+003;1.189661e-001
1.348055e+003;1.181723e-001
1.349984e+003;1.175676e-001
1.351912e+003;1.170689e-001
1.353841e+003;1.167892e-001
1.355769e+003;1.172703e-001
1.357698e+003;1.180930e-001
1.359626e+003;1.185865e-001
1.361555e+003;1.191818e-001
1.363483e+003;1.195947e-001
1.365412e+003;1.195662e-001
1.367341e+003;1.191790e-001
1.369269e+003;1.186278e-001
1.371198e+003;1.176432e-001
1.373126e+003;1.160089e-001
1.375055e+003;1.142806e-001
1.376983e+003;1.124529e-001
1.378912e+003;1.103133e-001
1.380840e+003;1.082568e-001
1.382769e+003;1.062370e-001
1.384698e+003;1.043984e-001
1.386626e+003;1.027333e-001
1.388555e+003;1.016820e-001
1.390483e+003;1.013281e-001
1.392412e+003;1.014261e-001
1.394340e+003;1.015492e-001
1.396269e+003;1.018167e-001
1.398197e+003;1.024491e-001
1.400126e+003;1.033703e-001
1.402054e+003;1.043326e-001
1.403983e+003;1.049982e-001
1.405911e+003;1.059520e-001
1.407840e+003;1.075343e-001
1.409769e+003;1.093850e-001
1.411697e+003;1.114740e-001
1.413626e+003;1.134347e-001
1.415554e+003;1.152352e-001
1.417483e+003;1.171119e-001
1.419411e+003;1.184058e-001
1.421340e+003;1.188819e-001
1.423268e+003;1.183776e-001
1.425197e+003;1.168988e-001
1.427125e+003;1.148974e-001
1.429054e+003;1.124687e-001
1.430983e+003;1.097535e-001
1.432911e+003;1.068953e-001
1.434840e+003;1.044379e-001
1.436768e+003;1.024198e-001
1.438697e+003;1.013566e-001
1.440625e+003;1.010954e-001
1.442554e+003;1.013055e-001
1.444482e+003;1.019723e-001
1.446411e+003;1.031659e-001
1.448340e+003;1.044017e-001
1.450268e+003;1.052864e-001
1.452197e+003;1.059738e-001
1.454125e+003;1.064852e-001
1.456054e+003;1.063066e-001
1.457982e+003;1.058260e-001
1.459911e+003;1.050922e-001
1.461839e+003;1.037353e-001
1.463768e+003;1.016277e-001
1.465697e+003;9.871056e-002
1.467625e+003;9.538914e-002
1.469554e+003;9.130641e-002
1.471482e+003;8.694857e-002
1.473411e+003;8.324004e-002
1.475339e+003;7.969465e-002
1.477268e+003;7.640310e-002
1.479196e+003;7.394651e-002
1.481125e+003;7.193536e-002
1.483053e+003;7.035784e-002
1.484982e+003;6.930732e-002
1.486911e+003;6.865586e-002
1.488839e+003;6.860385e-002
1.490768e+003;6.899634e-002
1.492696e+003;6.974390e-002
1.494625e+003;7.093930e-002
1.496553e+003;7.261033e-002
1.498482e+003;7.451741e-002
1.500410e+003;7.638303e-002
1.502339e+003;7.755405e-002
1.504267e+003;7.737017e-002
1.506196e+003;7.601424e-002
1.508125e+003;7.482029e-002
1.510053e+003;7.344969e-002
1.511982e+003;7.118477e-002
1.513910e+003;6.832968e-002
1.515839e+003;6.501652e-002
1.517767e+003;6.228351e-002
1.519696e+003;5.982055e-002
1.521624e+003;5.766247e-002
1.523553e+003;5.623814e-002
1.525481e+003;5.535124e-002
1.527410e+003;5.483297e-002
1.529339e+003;5.403463e-002
1.531267e+003;5.325689e-002
1.533196e+003;5.338876e-002
1.535124e+003;5.378059e-002
1.537053e+003;5.376941e-002
1.538981e+003;5.353228e-002
1.540910e+003;5.379777e-002
1.542838e+003;5.421696e-002
1.544767e+003;5.462209e-002
1.546695e+003;5.525941e-002
1.548624e+003;5.545965e-002
1.550553e+003;5.605194e-002
1.552481e+003;5.678127e-002
1.554410e+003;5.706658e-002
1.556338e+003;5.731200e-002
1.558267e+003;5.750282e-002
1.560195e+003;5.841672e-002
1.562124e+003;5.973431e-002
1.564052e+003;6.063037e-002
1.565981e+003;6.166494e-002
1.567910e+003;6.295260e-002
1.569838e+003;6.435658e-002
1.571767e+003;6.600679e-002
1.573695e+003;6.785236e-002
1.575624e+003;6.984495e-002
1.577552e+003;7.228865e-002
1.579481e+003;7.507768e-002
1.581409e+003;7.821695e-002
1.583338e+003;8.156043e-002
1.585266e+003;8.494632e-002
1.587195e+003;8.793899e-002
1.589124e+003;9.049238e-002
1.591052e+003;9.226728e-002
1.592981e+003;9.330557e-002
1.594909e+003;9.355908e-002
1.596838e+003;9.342343e-002
1.598766e+003;9.295305e-002
1.600695e+003;9.195364e-002
1.602623e+003;9.095587e-002
1.604552e+003;9.012973e-002
1.606480e+003;8.926558e-002
1.608409e+003;8.816252e-002
1.610338e+003;8.706756e-002
1.612266e+003;8.593416e-002
1.614195e+003;8.442992e-002
1.616123e+003;8.350473e-002
1.618052e+003;8.289362e-002
1.619980e+003;8.212651e-002
1.621909e+003;8.124638e-002
1.623837e+003;8.067399e-002
1.625766e+003;8.014598e-002
1.627694e+003;7.930502e-002
1.629623e+003;7.857741e-002
1.631552e+003;7.807737e-002
1.633480e+003;7.743190e-002
1.635409e+003;7.694777e-002
1.637337e+003;7.662598e-002
1.639266e+003;7.608057e-002
1.641194e+003;7.557041e-002
1.643123e+003;7.499687e-002
1.645051e+003;7.431468e-002
1.646980e+003;7.374828e-002
1.648909e+003;7.316259e-002
1.650837e+003;7.266627e-002
1.652766e+003;7.190698e-002
1.654694e+003;7.132336e-002
1.656623e+003;7.089073e-002
1.658551e+003;7.042806e-002
1.660480e+003;6.983713e-002
1.662408e+003;6.862116e-002
1.664337e+003;6.769651e-002
1.666266e+003;6.677561e-002
1.668194e+003;6.531792e-002
1.670123e+003;6.393655e-002
1.672051e+003;6.277946e-002
1.673980e+003;6.149679e-002
1.675908e+003;6.048033e-002
1.677837e+003;5.974329e-002
1.679765e+003;5.849057e-002
1.681694e+003;5.710664e-002
1.683622e+003;5.582020e-002
1.685551e+003;5.463580e-002
1.687479e+003;5.380898e-002
1.689408e+003;5.316067e-002
1.691337e+003;5.223141e-002
1.693265e+003;5.143294e-002
1.695194e+003;5.072732e-002
1.697122e+003;5.029351e-002
1.699051e+003;4.985341e-002
1.700979e+003;4.931319e-002
1.702908e+003;4.903723e-002
1.704836e+003;4.877090e-002
1.706765e+003;4.838748e-002
1.708693e+003;4.814531e-002
1.710622e+003;4.804811e-002
1.712551e+003;4.772258e-002
1.714479e+003;4.745920e-002
1.716408e+003;4.724529e-002
1.718336e+003;4.715087e-002
1.720265e+003;4.743861e-002
1.722193e+003;4.778875e-002
1.724122e+003;4.791079e-002
1.726050e+003;4.808472e-002
1.727979e+003;4.819199e-002
1.729908e+003;4.798124e-002
1.731836e+003;4.756599e-002
1.733765e+003;4.717104e-002
1.735693e+003;4.717359e-002
1.737622e+003;4.707354e-002
1.739550e+003;4.655783e-002
1.741479e+003;4.623588e-002
1.743407e+003;4.579026e-002
1.745336e+003;4.539953e-002
1.747265e+003;4.501919e-002
1.749193e+003;4.451986e-002
1.751122e+003;4.383226e-002
1.753050e+003;4.337024e-002
1.754979e+003;4.295110e-002
1.756907e+003;4.252360e-002
1.758836e+003;4.219244e-002
1.760764e+003;4.180756e-002
1.762693e+003;4.138891e-002
1.764621e+003;4.115895e-002
1.766550e+003;4.067051e-002
1.768479e+003;4.018563e-002
1.770407e+003;3.986151e-002
1.772336e+003;3.942064e-002
1.774264e+003;3.898725e-002
1.776193e+003;3.849744e-002
1.778121e+003;3.817055e-002
1.780050e+003;3.810887e-002
1.781978e+003;3.812725e-002
1.783907e+003;3.826864e-002
1.785835e+003;3.825048e-002
1.787764e+003;3.781876e-002
1.789693e+003;3.754241e-002
1.791621e+003;3.747533e-002
1.793550e+003;3.729932e-002
1.795478e+003;3.693942e-002
1.797407e+003;3.674600e-002
1.799335e+003;3.681729e-002
1.801264e+003;3.683230e-002
1.803192e+003;3.693138e-002
1.805121e+003;3.696056e-002
1.807049e+003;3.690111e-002
1.808978e+003;3.645959e-002
1.810907e+003;3.612963e-002
1.812835e+003;3.645956e-002
1.814764e+003;3.686497e-002
1.816692e+003;3.691010e-002
1.818621e+003;3.680095e-002
1.820549e+003;3.672959e-002
1.822478e+003;3.662518e-002
1.824406e+003;3.647808e-002
1.826335e+003;3.666285e-002
1.828264e+003;3.693647e-002
1.830192e+003;3.699329e-002
1.832121e+003;3.689343e-002
1.834049e+003;3.682140e-002
1.835978e+003;3.692146e-002
1.837906e+003;3.682941e-002
1.839835e+003;3.683327e-002
1.841763e+003;3.681686e-002
1.843692e+003;3.666288e-002
1.845620e+003;3.660931e-002
1.847549e+003;3.655424e-002
1.849478e+003;3.650057e-002
1.851406e+003;3.663192e-002
1.853335e+003;3.676457e-002
1.855263e+003;3.658332e-002
1.857192e+003;3.653247e-002
1.859120e+003;3.679425e-002
1.861049e+003;3.678491e-002
1.862977e+003;3.662604e-002
1.864906e+003;3.644439e-002
1.866834e+003;3.652050e-002
1.868763e+003;3.668603e-002
1.870692e+003;3.684798e-002
1.872620e+003;3.704550e-002
1.874549e+003;3.686457e-002
1.876477e+003;3.662510e-002
1.878406e+003;3.690880e-002
1.880334e+003;3.710862e-002
1.882263e+003;3.665012e-002
1.884191e+003;3.643826e-002
1.886120e+003;3.641218e-002
1.888048e+003;3.627344e-002
1.889977e+003;3.656826e-002
1.891906e+003;3.693087e-002
1.893834e+003;3.697510e-002
1.895763e+003;3.714987e-002
1.897691e+003;3.717499e-002
1.899620e+003;3.706632e-002
1.901548e+003;3.714972e-002
1.903477e+003;3.722672e-002
1.905405e+003;3.726791e-002
1.907334e+003;3.712262e-002
1.909262e+003;3.711793e-002
1.911191e+003;3.748928e-002
1.913120e+003;3.755199e-002
1.915048e+003;3.739555e-002
1.916977e+003;3.745637e-002
1.918905e+003;3.776721e-002
1.920834e+003;3.806605e-002
1.922762e+003;3.815778e-002
1.924691e+003;3.797021e-002
1.926619e+003;3.790151e-002
1.928548e+003;3.778037e-002
1.930477e+003;3.794298e-002
1.932405e+003;3.834475e-002
1.934334e+003;3.845899e-002
1.936262e+003;3.844215e-002
1.938191e+003;3.838912e-002
1.940119e+003;3.820829e-002
1.942048e+003;3.810583e-002
1.943976e+003;3.831840e-002
1.945905e+003;3.875095e-002
1.947833e+003;3.904477e-002
1.949762e+003;3.919886e-002
1.951691e+003;3.907156e-002
1.953619e+003;3.904256e-002
1.955548e+003;3.923397e-002
1.957476e+003;3.935682e-002
1.959405e+003;3.925787e-002
1.961333e+003;3.902179e-002
1.963262e+003;3.904818e-002
1.965190e+003;3.929584e-002
1.967119e+003;3.954634e-002
1.969047e+003;3.962902e-002
1.970976e+003;3.939212e-002
1.972905e+003;3.936484e-002
1.974833e+003;3.966031e-002
1.976762e+003;4.009325e-002
1.978690e+003;4.009492e-002
1.980619e+003;3.984455e-002
1.982547e+003;3.997676e-002
1.984476e+003;4.038977e-002
1.986404e+003;4.051917e-002
1.988333e+003;4.023445e-002
1.990261e+003;4.013094e-002
1.992190e+003;4.045141e-002
1.994119e+003;4.081284e-002
1.996047e+003;4.109692e-002
1.997976e+003;4.127175e-002
1.999904e+003;4.124697e-002
2.001833e+003;4.144322e-002
2.003761e+003;4.167493e-002
2.005690e+003;4.146750e-002
2.007618e+003;4.145215e-002
2.009547e+003;4.165042e-002
2.011476e+003;4.189655e-002
2.013404e+003;4.197194e-002
2.015333e+003;4.187648e-002
2.017261e+003;4.194665e-002
2.019190e+003;4.208834e-002
2.021118e+003;4.211634e-002
2.023047e+003;4.254502e-002
2.024975e+003;4.298820e-002
2.026904e+003;4.322677e-002
2.028833e+003;4.298333e-002
2.030761e+003;4.265931e-002
2.032690e+003;4.294704e-002
2.034618e+003;4.338804e-002
2.036547e+003;4.332491e-002
2.038475e+003;4.347541e-002
2.040404e+003;4.386213e-002
2.042332e+003;4.389567e-002
2.044261e+003;4.385264e-002
2.046189e+003;4.377567e-002
2.048118e+003;4.397083e-002
2.050047e+003;4.439895e-002
2.051975e+003;4.465729e-002
2.053904e+003;4.468946e-002
2.055832e+003;4.458528e-002
2.057761e+003;4.418570e-002
2.059689e+003;4.392111e-002
2.061618e+003;4.392760e-002
2.063546e+003;4.403269e-002
2.065475e+003;4.407207e-002
2.067404e+003;4.414487e-002
2.069332e+003;4.442072e-002
2.071260e+003;4.444435e-002
2.073189e+003;4.420752e-002
2.075118e+003;4.423240e-002
2.077046e+003;4.459402e-002
2.078975e+003;4.462266e-002
2.080903e+003;4.457809e-002
2.082832e+003;4.446469e-002
2.084760e+003;4.413354e-002
2.086689e+003;4.415155e-002
2.088617e+003;4.448043e-002
2.090546e+003;4.458165e-002
2.092475e+003;4.429506e-002
2.094403e+003;4.396624e-002
2.096332e+003;4.399525e-002
2.098260e+003;4.420430e-002
2.100189e+003;4.445470e-002
2.102117e+003;4.448645e-002
2.104046e+003;4.458572e-002
2.105974e+003;4.489833e-002
2.107903e+003;4.505422e-002
2.109832e+003;4.501713e-002
2.111760e+003;4.495157e-002
2.113688e+003;4.501534e-002
2.115617e+003;4.507333e-002
2.117546e+003;4.490075e-002
2.119474e+003;4.457596e-002
2.121403e+003;4.459611e-002
2.123331e+003;4.476780e-002
2.125260e+003;4.487933e-002
2.127188e+003;4.480240e-002
2.129117e+003;4.484998e-002
2.131045e+003;4.497366e-002
2.132974e+003;4.503937e-002
2.134903e+003;4.517075e-002
2.136831e+003;4.520620e-002
2.138760e+003;4.528320e-002
2.140688e+003;4.525841e-002
2.142617e+003;4.495054e-002
2.144545e+003;4.479873e-002
2.146474e+003;4.467135e-002
2.148402e+003;4.462167e-002
2.150331e+003;4.505694e-002
2.152260e+003;4.545619e-002
2.154188e+003;4.526558e-002
2.156117e+003;4.483954e-002
2.158045e+003;4.484700e-002
2.159974e+003;4.511844e-002
2.161902e+003;4.519049e-002
2.163831e+003;4.505187e-002
2.165759e+003;4.482867e-002
2.167688e+003;4.490722e-002
2.169616e+003;4.518263e-002
2.171545e+003;4.495565e-002
2.173474e+003;4.453517e-002
2.175402e+003;4.454967e-002
2.177331e+003;4.447937e-002
2.179259e+003;4.437194e-002
2.181188e+003;4.445613e-002
2.183116e+003;4.461576e-002
2.185045e+003;4.486394e-002
2.186973e+003;4.494940e-002
2.188902e+003;4.465443e-002
2.190831e+003;4.430699e-002
2.192759e+003;4.430908e-002
2.194688e+003;4.449405e-002
2.196616e+003;4.449904e-002
2.198545e+003;4.439811e-002
2.200473e+003;4.442405e-002
2.202402e+003;4.440479e-002
2.204330e+003;4.446186e-002
2.206259e+003;4.453829e-002
2.208188e+003;4.459211e-002
2.210116e+003;4.471186e-002
2.212044e+003;4.457383e-002
2.213973e+003;4.434607e-002
2.215902e+003;4.413849e-002
2.217830e+003;4.422341e-002
2.219759e+003;4.438996e-002
2.221687e+003;4.459868e-002
2.223616e+003;4.479579e-002
2.225544e+003;4.475237e-002
2.227473e+003;4.444145e-002
2.229401e+003;4.440166e-002
2.231330e+003;4.465953e-002
2.233259e+003;4.463507e-002
2.235187e+003;4.449890e-002
2.237116e+003;4.456256e-002
2.239044e+003;4.456424e-002
2.240973e+003;4.451534e-002
2.242901e+003;4.457496e-002
2.244830e+003;4.457654e-002
2.246758e+003;4.465887e-002
2.248687e+003;4.485670e-002
2.250615e+003;4.477221e-002
2.252544e+003;4.455316e-002
2.254473e+003;4.456219e-002
2.256401e+003;4.459090e-002
2.258330e+003;4.474349e-002
2.260258e+003;4.494731e-002
2.262187e+003;4.482308e-002
2.264115e+003;4.487081e-002
2.266044e+003;4.499861e-002
2.267972e+003;4.495911e-002
2.269901e+003;4.475135e-002
2.271830e+003;4.457467e-002
2.273758e+003;4.434034e-002
2.275687e+003;4.443907e-002
2.277615e+003;4.475561e-002
2.279544e+003;4.474888e-002
2.281472e+003;4.450925e-002
2.283401e+003;4.431561e-002
2.285329e+003;4.450429e-002
2.287258e+003;4.460250e-002
2.289187e+003;4.446204e-002
2.291115e+003;4.449346e-002
2.293043e+003;4.456964e-002
2.294972e+003;4.452434e-002
2.296901e+003;4.481052e-002
2.298829e+003;4.492806e-002
2.300758e+003;4.492273e-002
2.302686e+003;4.489175e-002
2.304615e+003;4.483686e-002
2.306543e+003;4.489017e-002
2.308472e+003;4.481747e-002
2.310400e+003;4.447302e-002
2.312329e+003;4.419751e-002
2.314258e+003;4.449835e-002
2.316186e+003;4.493184e-002
2.318115e+003;4.507561e-002
2.320043e+003;4.486181e-002
2.321972e+003;4.475568e-002
2.323900e+003;4.466933e-002
2.325829e+003;4.459465e-002
2.327757e+003;4.477239e-002
2.329686e+003;4.483154e-002
2.331615e+003;4.461330e-002
2.333543e+003;4.454897e-002
2.335472e+003;4.441939e-002
2.337400e+003;4.449684e-002
2.339329e+003;4.464836e-002
2.341257e+003;4.488984e-002
2.343186e+003;4.505036e-002
2.345114e+003;4.529960e-002
2.347043e+003;4.559229e-002
2.348971e+003;4.569392e-002
2.350900e+003;4.562509e-002
2.352829e+003;4.528154e-002
2.354757e+003;4.514020e-002
2.356686e+003;4.504764e-002
2.358614e+003;4.496602e-002
2.360543e+003;4.516744e-002
2.362471e+003;4.529095e-002
2.364400e+003;4.522267e-002
2.366328e+003;4.553271e-002
2.368257e+003;4.597531e-002
2.370186e+003;4.616733e-002
2.372114e+003;4.642742e-002
2.374042e+003;4.640906e-002
2.375971e+003;4.631896e-002
2.377900e+003;4.648989e-002
2.379828e+003;4.667687e-002
2.381757e+003;4.690360e-002
2.383685e+003;4.704976e-002
2.385614e+003;4.709622e-002
2.387542e+003;4.715095e-002
2.389471e+003;4.741111e-002
2.391399e+003;4.749719e-002
2.393328e+003;4.746360e-002
2.395257e+003;4.758403e-002
2.397185e+003;4.772170e-002
2.399114e+003;4.791405e-002
2.401042e+003;4.827449e-002
2.402971e+003;4.826742e-002
2.404899e+003;4.807872e-002
2.406828e+003;4.824168e-002
2.408756e+003;4.834544e-002
2.410685e+003;4.833493e-002
2.412614e+003;4.845071e-002
2.414542e+003;4.863194e-002
2.416471e+003;4.903293e-002
2.418399e+003;4.906242e-002
2.420328e+003;4.885172e-002
2.422256e+003;4.897484e-002
2.424185e+003;4.900737e-002
2.426113e+003;4.891617e-002
2.428042e+003;4.918782e-002
2.429970e+003;4.948538e-002
2.431899e+003;4.961852e-002
2.433828e+003;4.973773e-002
2.435756e+003;4.975289e-002
2.437685e+003;4.983617e-002
2.439613e+003;4.998098e-002
2.441542e+003;5.007006e-002
2.443470e+003;5.007660e-002
2.445399e+003;5.013740e-002
2.447327e+003;5.019709e-002
2.449256e+003;5.028752e-002
2.451185e+003;5.042865e-002
2.453113e+003;5.061141e-002
2.455042e+003;5.085883e-002
2.456970e+003;5.084177e-002
2.458899e+003;5.090256e-002
2.460827e+003;5.100980e-002
2.462756e+003;5.093878e-002
2.464684e+003;5.089586e-002
2.466613e+003;5.090651e-002
2.468542e+003;5.100447e-002
2.470470e+003;5.101978e-002
2.472398e+003;5.114426e-002
2.474327e+003;5.135291e-002
2.476256e+003;5.125841e-002
2.478184e+003;5.120189e-002
2.480113e+003;5.143902e-002
2.482041e+003;5.136424e-002
2.483970e+003;5.139371e-002
2.485898e+003;5.167964e-002
2.487827e+003;5.155892e-002
2.489755e+003;5.123962e-002
2.491684e+003;5.143108e-002
2.493613e+003;5.183948e-002
2.495541e+003;5.207371e-002
2.497470e+003;5.190377e-002
2.499398e+003;5.167673e-002
2.501327e+003;5.178665e-002
2.503255e+003;5.194388e-002
2.505184e+003;5.236274e-002
2.507112e+003;5.279829e-002
2.509041e+003;5.294862e-002
2.510969e+003;5.280910e-002
2.512898e+003;5.283222e-002
2.514827e+003;5.299170e-002
2.516755e+003;5.304557e-002
2.518684e+003;5.299065e-002
2.520612e+003;5.295532e-002
2.522541e+003;5.303569e-002
2.524469e+003;5.316947e-002
2.526398e+003;5.322386e-002
2.528326e+003;5.318078e-002
2.530255e+003;5.318824e-002
2.532184e+003;5.341195e-002
2.534112e+003;5.349117e-002
2.536041e+003;5.317022e-002
2.537969e+003;5.325475e-002
2.539898e+003;5.355009e-002
2.541826e+003;5.351362e-002
2.543755e+003;5.355181e-002
2.545683e+003;5.351126e-002
2.547612e+003;5.335163e-002
2.549541e+003;5.351047e-002
2.551469e+003;5.379649e-002
2.553397e+003;5.387248e-002
2.555326e+003;5.401493e-002
2.557255e+003;5.424778e-002
2.559183e+003;5.412605e-002
2.561112e+003;5.376191e-002
2.563040e+003;5.363462e-002
2.564969e+003;5.390020e-002
2.566897e+003;5.410995e-002
2.568826e+003;5.409955e-002
2.570754e+003;5.413922e-002
2.572683e+003;5.401279e-002
2.574612e+003;5.407834e-002
2.576540e+003;5.420172e-002
2.578469e+003;5.432854e-002
2.580397e+003;5.450540e-002
2.582326e+003;5.454101e-002
2.584254e+003;5.438179e-002
2.586183e+003;5.456532e-002
2.588111e+003;5.458433e-002
2.590040e+003;5.426580e-002
2.591969e+003;5.449165e-002
2.593897e+003;5.506942e-002
2.595826e+003;5.512584e-002
2.597754e+003;5.510719e-002
2.599683e+003;5.533012e-002
2.601611e+003;5.541131e-002
2.603540e+003;5.492136e-002
2.605468e+003;5.450048e-002
2.607397e+003;5.477993e-002
2.609325e+003;5.526163e-002
2.611254e+003;5.525203e-002
2.613183e+003;5.517129e-002
2.615111e+003;5.543111e-002
2.617040e+003;5.571716e-002
2.618968e+003;5.596811e-002
2.620897e+003;5.612576e-002
2.622825e+003;5.600486e-002
2.624754e+003;5.600848e-002
2.626682e+003;5.615434e-002
2.628611e+003;5.634251e-002
2.630540e+003;5.629845e-002
2.632468e+003;5.636137e-002
2.634396e+003;5.638110e-002
2.636325e+003;5.656408e-002
2.638254e+003;5.702657e-002
2.640182e+003;5.717610e-002
2.642111e+003;5.721201e-002
2.644039e+003;5.701618e-002
2.645968e+003;5.704758e-002
2.647896e+003;5.728482e-002
2.649825e+003;5.744654e-002
2.651753e+003;5.748001e-002
2.653682e+003;5.748066e-002
2.655611e+003;5.757284e-002
2.657539e+003;5.796605e-002
2.659468e+003;5.815526e-002
2.661396e+003;5.785742e-002
2.663325e+003;5.767950e-002
2.665253e+003;5.799804e-002
2.667182e+003;5.829939e-002
2.669110e+003;5.813503e-002
2.671039e+003;5.801546e-002
2.672968e+003;5.839182e-002
2.674896e+003;5.860773e-002
2.676825e+003;5.863412e-002
2.678753e+003;5.882784e-002
2.680682e+003;5.897800e-002
2.682610e+003;5.901022e-002
2.684539e+003;5.889713e-002
2.686467e+003;5.875113e-002
2.688396e+003;5.893432e-002
2.690324e+003;5.940766e-002
2.692253e+003;5.969424e-002
2.694182e+003;5.977093e-002
2.696110e+003;5.973492e-002
2.698039e+003;5.960020e-002
2.699967e+003;5.979070e-002
2.701896e+003;6.022025e-002
2.703824e+003;6.053334e-002
2.705753e+003;6.041209e-002
2.707681e+003;6.025709e-002
2.709610e+003;6.033190e-002
2.711539e+003;6.042976e-002
2.713467e+003;6.047004e-002
2.715396e+003;6.037256e-002
2.717324e+003;6.053285e-002
2.719253e+003;6.068005e-002
2.721181e+003;6.100081e-002
2.723110e+003;6.140056e-002
2.725038e+003;6.136461e-002
2.726967e+003;6.154985e-002
2.728896e+003;6.204555e-002
2.730824e+003;6.225253e-002
2.732752e+003;6.202273e-002
2.734681e+003;6.208045e-002
2.736610e+003;6.224332e-002
2.738538e+003;6.234329e-002
2.740467e+003;6.235125e-002
2.742395e+003;6.188122e-002
2.744324e+003;6.145854e-002
2.746252e+003;6.176684e-002
2.748181e+003;6.221705e-002
2.750109e+003;6.225284e-002
2.752038e+003;6.209608e-002
2.753967e+003;6.175091e-002
2.755895e+003;6.180951e-002
2.757824e+003;6.228733e-002
2.759752e+003;6.234830e-002
2.761681e+003;6.232375e-002
2.763609e+003;6.250362e-002
2.765538e+003;6.269057e-002
2.767466e+003;6.282323e-002
2.769395e+003;6.307614e-002
2.771323e+003;6.320344e-002
2.773252e+003;6.306465e-002
2.775181e+003;6.320451e-002
2.777109e+003;6.337877e-002
2.779038e+003;6.334170e-002
2.780966e+003;6.365471e-002
2.782895e+003;6.402256e-002
2.784823e+003;6.409636e-002
2.786752e+003;6.407497e-002
2.788680e+003;6.432288e-002
2.790609e+003;6.480633e-002
2.792538e+003;6.505701e-002
2.794466e+003;6.531188e-002
2.796395e+003;6.568190e-002
2.798323e+003;6.594847e-002
2.800252e+003;6.601308e-002
2.802180e+003;6.600976e-002
2.804109e+003;6.641106e-002
2.806037e+003;6.711838e-002
2.807966e+003;6.734103e-002
2.809895e+003;6.727681e-002
2.811823e+003;6.785124e-002
2.813751e+003;6.822153e-002
2.815680e+003;6.848408e-002
2.817609e+003;6.894445e-002
2.819537e+003;6.939203e-002
2.821466e+003;6.984106e-002
2.823394e+003;7.043312e-002
2.825323e+003;7.108937e-002
2.827251e+003;7.190510e-002
2.829180e+003;7.259455e-002
2.831108e+003;7.298024e-002
2.833037e+003;7.343356e-002
2.834966e+003;7.415661e-002
2.836894e+003;7.514657e-002
2.838823e+003;7.599629e-002
2.840751e+003;7.696020e-002
2.842680e+003;7.811881e-002
2.844608e+003;7.895978e-002
2.846537e+003;7.976161e-002
2.848465e+003;8.103370e-002
2.850394e+003;8.203272e-002
2.852323e+003;8.264614e-002
2.854251e+003;8.345550e-002
2.856180e+003;8.415249e-002
2.858108e+003;8.469976e-002
2.860037e+003;8.548879e-002
2.861965e+003;8.653112e-002
2.863894e+003;8.765923e-002
2.865822e+003;8.848416e-002
2.867751e+003;8.911543e-002
2.869679e+003;8.972033e-002
2.871608e+003;9.008472e-002
2.873536e+003;9.053393e-002
2.875465e+003;9.077419e-002
2.877394e+003;9.097201e-002
2.879322e+003;9.149825e-002
2.881251e+003;9.232564e-002
2.883179e+003;9.253966e-002
2.885108e+003;9.257829e-002
2.887036e+003;9.324023e-002
2.888965e+003;9.346041e-002
2.890893e+003;9.354506e-002
2.892822e+003;9.383326e-002
2.894750e+003;9.384169e-002
2.896679e+003;9.411789e-002
2.898608e+003;9.442645e-002
2.900536e+003;9.421828e-002
2.902465e+003;9.398911e-002
2.904393e+003;9.357762e-002
2.906322e+003;9.321272e-002
2.908250e+003;9.307919e-002
2.910179e+003;9.263484e-002
2.912107e+003;9.195977e-002
2.914036e+003;9.124124e-002
2.915965e+003;9.040906e-002
2.917893e+003;9.030282e-002
2.919822e+003;9.059495e-002
2.921750e+003;8.977982e-002
2.923679e+003;8.840995e-002
2.925607e+003;8.759643e-002
2.927536e+003;8.691967e-002
2.929464e+003;8.640076e-002
2.931393e+003;8.631353e-002
2.933322e+003;8.555210e-002
2.935250e+003;8.472425e-002
2.937178e+003;8.428579e-002
2.939107e+003;8.400620e-002
2.941036e+003;8.346963e-002
2.942964e+003;8.246053e-002
2.944893e+003;8.142072e-002
2.946821e+003;8.100743e-002
2.948750e+003;8.043627e-002
2.950678e+003;7.930443e-002
2.952607e+003;7.827186e-002
2.954535e+003;7.716396e-002
2.956464e+003;7.589021e-002
2.958393e+003;7.500494e-002
2.960321e+003;7.416078e-002
2.962250e+003;7.321557e-002
2.964178e+003;7.304472e-002
2.966107e+003;7.260755e-002
2.968035e+003;7.189141e-002
2.969964e+003;7.118820e-002
2.971892e+003;7.040729e-002
2.973821e+003;6.973939e-002
2.975750e+003;6.948432e-002
2.977678e+003;6.918833e-002
2.979607e+003;6.852870e-002
2.981535e+003;6.799041e-002
2.983464e+003;6.747395e-002
2.985392e+003;6.726860e-002
2.987321e+003;6.711737e-002
2.989249e+003;6.699491e-002
2.991178e+003;6.692738e-002
2.993106e+003;6.634475e-002
2.995035e+003;6.591623e-002
2.996964e+003;6.606624e-002
2.998892e+003;6.624775e-002
3.000821e+003;6.589024e-002
3.002749e+003;6.572600e-002
3.004678e+003;6.583240e-002
3.006606e+003;6.580402e-002
3.008535e+003;6.567959e-002
3.010463e+003;6.565148e-002
3.012392e+003;6.522427e-002
3.014321e+003;6.482029e-002
3.016249e+003;6.503046e-002
3.018177e+003;6.496403e-002
3.020106e+003;6.506124e-002
3.022035e+003;6.547262e-002
3.023963e+003;6.568602e-002
3.025892e+003;6.584339e-002
3.027820e+003;6.588322e-002
3.029749e+003;6.560589e-002
3.031677e+003;6.590112e-002
3.033606e+003;6.637134e-002
3.035534e+003;6.646778e-002
3.037463e+003;6.661149e-002
3.039392e+003;6.683980e-002
3.041320e+003;6.668794e-002
3.043249e+003;6.680676e-002
3.045177e+003;6.721386e-002
3.047106e+003;6.745905e-002
3.049034e+003;6.775499e-002
3.050963e+003;6.813725e-002
3.052891e+003;6.822164e-002
3.054820e+003;6.823960e-002
3.056749e+003;6.855745e-002
3.058677e+003;6.880106e-002
3.060606e+003;6.917663e-002
3.062534e+003;6.944754e-002
3.064463e+003;6.963669e-002
3.066391e+003;6.978799e-002
3.068320e+003;7.009704e-002
3.070248e+003;7.050620e-002
3.072177e+003;7.071550e-002
3.074105e+003;7.071266e-002
3.076034e+003;7.104809e-002
3.077963e+003;7.143240e-002
3.079891e+003;7.179645e-002
3.081820e+003;7.230277e-002
3.083748e+003;7.280404e-002
3.085677e+003;7.306056e-002
3.087605e+003;7.329589e-002
3.089534e+003;7.373273e-002
3.091462e+003;7.394297e-002
3.093391e+003;7.437377e-002
3.095320e+003;7.499375e-002
3.097248e+003;7.505818e-002
3.099177e+003;7.513405e-002
3.101105e+003;7.523608e-002
3.103034e+003;7.563844e-002
3.104962e+003;7.628436e-002
3.106891e+003;7.630952e-002
3.108819e+003;7.623104e-002
3.110748e+003;7.655175e-002
3.112677e+003;7.730944e-002
3.114605e+003;7.797303e-002
3.116533e+003;7.816613e-002
3.118462e+003;7.853961e-002
3.120391e+003;7.877201e-002
3.122319e+003;7.928240e-002
3.124248e+003;8.020549e-002
3.126176e+003;8.046873e-002
3.128105e+003;8.047853e-002
3.130033e+003;8.080599e-002
3.131962e+003;8.133672e-002
3.133890e+003;8.163076e-002
3.135819e+003;8.202352e-002
3.137748e+003;8.249278e-002
3.139676e+003;8.271184e-002
3.141605e+003;8.302172e-002
3.143533e+003;8.350453e-002
3.145462e+003;8.412232e-002
3.147390e+003;8.448108e-002
3.149319e+003;8.488923e-002
3.151247e+003;8.509708e-002
3.153176e+003;8.550686e-002
3.155104e+003;8.615132e-002
3.157033e+003;8.657144e-002
3.158962e+003;8.714409e-002
3.160890e+003;8.776961e-002
3.162819e+003;8.843692e-002
3.164747e+003;8.922126e-002
3.166676e+003;8.980793e-002
3.168604e+003;8.983874e-002
3.170533e+003;8.993793e-002
3.172461e+003;9.050332e-002
3.174390e+003;9.140933e-002
3.176319e+003;9.220238e-002
3.178247e+003;9.277648e-002
3.180176e+003;9.309696e-002
3.182104e+003;9.340598e-002
3.184033e+003;9.371356e-002
3.185961e+003;9.398113e-002
3.187890e+003;9.475985e-002
3.189818e+003;9.608154e-002
3.191747e+003;9.709146e-002
3.193676e+003;9.747710e-002
3.195604e+003;9.787653e-002
3.197532e+003;9.841263e-002
3.199461e+003;9.909589e-002
3.201390e+003;9.981546e-002
3.203318e+003;1.000416e-001
3.205247e+003;1.005618e-001
3.207175e+003;1.017103e-001
3.209104e+003;1.021305e-001
3.211032e+003;1.022977e-001
3.212961e+003;1.028904e-001
3.214889e+003;1.039786e-001
3.216818e+003;1.047892e-001
3.218747e+003;1.051937e-001
3.220675e+003;1.063425e-001
3.222604e+003;1.071101e-001
3.224532e+003;1.067057e-001
3.226461e+003;1.070912e-001
3.228389e+003;1.084466e-001
3.230318e+003;1.093266e-001
3.232246e+003;1.099358e-001
3.234175e+003;1.103693e-001
3.236104e+003;1.110286e-001
3.238032e+003;1.123866e-001
3.239961e+003;1.132469e-001
3.241889e+003;1.136699e-001
3.243818e+003;1.143977e-001
3.245746e+003;1.147301e-001
3.247675e+003;1.153080e-001
3.249603e+003;1.164785e-001
3.251532e+003;1.174197e-001
3.253460e+003;1.182695e-001
3.255389e+003;1.190862e-001
3.257318e+003;1.200266e-001
3.259246e+003;1.209821e-001
3.261175e+003;1.212620e-001
3.263103e+003;1.219890e-001
3.265032e+003;1.230088e-001
3.266960e+003;1.237549e-001
3.268889e+003;1.243298e-001
3.270817e+003;1.252835e-001
3.272746e+003;1.257728e-001
3.274675e+003;1.259553e-001
3.276603e+003;1.263336e-001
3.278531e+003;1.269993e-001
3.280460e+003;1.278994e-001
3.282389e+003;1.282730e-001
3.284317e+003;1.283188e-001
3.286246e+003;1.288774e-001
3.288174e+003;1.293969e-001
3.290103e+003;1.293472e-001
3.292031e+003;1.296058e-001
3.293960e+003;1.301696e-001
3.295888e+003;1.300926e-001
3.297817e+003;1.301884e-001
3.299746e+003;1.308840e-001
3.301674e+003;1.314082e-001
3.303603e+003;1.314458e-001
3.305531e+003;1.319699e-001
3.307460e+003;1.325032e-001
3.309388e+003;1.323543e-001
3.311317e+003;1.328481e-001
3.313245e+003;1.334833e-001
3.315174e+003;1.336415e-001
3.317103e+003;1.336958e-001
3.319031e+003;1.339112e-001
3.320960e+003;1.340596e-001
3.322888e+003;1.344767e-001
3.324817e+003;1.351039e-001
3.326745e+003;1.352493e-001
3.328674e+003;1.356319e-001
3.330602e+003;1.361919e-001
3.332531e+003;1.361616e-001
3.334459e+003;1.358472e-001
3.336388e+003;1.356061e-001
3.338317e+003;1.353124e-001
3.340245e+003;1.354942e-001
3.342174e+003;1.354961e-001
3.344102e+003;1.348235e-001
3.346031e+003;1.348614e-001
3.347959e+003;1.350300e-001
3.349888e+003;1.347213e-001
3.351816e+003;1.345663e-001
3.353745e+003;1.340863e-001
3.355674e+003;1.335606e-001
3.357602e+003;1.334713e-001
3.359531e+003;1.327291e-001
3.361459e+003;1.316500e-001
3.363388e+003;1.312820e-001
3.365316e+003;1.311321e-001
3.367245e+003;1.310003e-001
3.369173e+003;1.309779e-001
3.371102e+003;1.306379e-001
3.373031e+003;1.300966e-001
3.374959e+003;1.295950e-001
3.376887e+003;1.290366e-001
3.378816e+003;1.284601e-001
3.380745e+003;1.280755e-001
3.382673e+003;1.279180e-001
3.384602e+003;1.275077e-001
3.386530e+003;1.268787e-001
3.388459e+003;1.263666e-001
3.390387e+003;1.259000e-001
3.392316e+003;1.256364e-001
3.394244e+003;1.252501e-001
3.396173e+003;1.249620e-001
3.398102e+003;1.243204e-001
3.400030e+003;1.234481e-001
3.401959e+003;1.231339e-001
3.403887e+003;1.222629e-001
3.405816e+003;1.218460e-001
3.407744e+003;1.221572e-001
3.409673e+003;1.218042e-001
3.411601e+003;1.207961e-001
3.413530e+003;1.199437e-001
3.415458e+003;1.196422e-001
3.417387e+003;1.190980e-001
3.419316e+003;1.183659e-001
3.421244e+003;1.173255e-001
3.423173e+003;1.162342e-001
3.425101e+003;1.155731e-001
3.427030e+003;1.152548e-001
3.428958e+003;1.143880e-001
3.430887e+003;1.137591e-001
3.432815e+003;1.128101e-001
3.434744e+003;1.116638e-001
3.436673e+003;1.109420e-001
3.438601e+003;1.108770e-001
3.440530e+003;1.104104e-001
3.442458e+003;1.094042e-001
3.444387e+003;1.085126e-001
3.446315e+003;1.075073e-001
3.448244e+003;1.066904e-001
3.450172e+003;1.064555e-001
3.452101e+003;1.057054e-001
3.454030e+003;1.047913e-001
3.455958e+003;1.043765e-001
3.457886e+003;1.034557e-001
3.459815e+003;1.023464e-001
3.461744e+003;1.015453e-001
3.463672e+003;1.007901e-001
3.465601e+003;9.989285e-002
3.467529e+003;9.932123e-002
3.469458e+003;9.906097e-002
3.471386e+003;9.834065e-002
3.473315e+003;9.687920e-002
3.475243e+003;9.515658e-002
3.477172e+003;9.418568e-002
3.479101e+003;9.371644e-002
3.481029e+003;9.316483e-002
3.482958e+003;9.233601e-002
3.484886e+003;9.187163e-002
3.486815e+003;9.108899e-002
3.488743e+003;8.982252e-002
3.490672e+003;8.911649e-002
3.492600e+003;8.815408e-002
3.494529e+003;8.725794e-002
3.496458e+003;8.652166e-002
3.498386e+003;8.542223e-002
3.500315e+003;8.475634e-002
3.502243e+003;8.434848e-002
3.504172e+003;8.371782e-002
3.506100e+003;8.296204e-002
3.508029e+003;8.227440e-002
3.509957e+003;8.170230e-002
3.511886e+003;8.109859e-002
3.513814e+003;8.042111e-002
3.515743e+003;7.940722e-002
3.517672e+003;7.892600e-002
3.519600e+003;7.853298e-002
3.521529e+003;7.766426e-002
3.523457e+003;7.663579e-002
3.525386e+003;7.550295e-002
3.527314e+003;7.451544e-002
3.529243e+003;7.370603e-002
3.531171e+003;7.320333e-002
3.533100e+003;7.278077e-002
3.535029e+003;7.196403e-002
3.536957e+003;7.130782e-002
3.538885e+003;7.090095e-002
3.540814e+003;7.000554e-002
3.542743e+003;6.893448e-002
3.544671e+003;6.836326e-002
3.546600e+003;6.830513e-002
3.548528e+003;6.769868e-002
3.550457e+003;6.637582e-002
3.552385e+003;6.510813e-002
3.554314e+003;6.461389e-002
3.556242e+003;6.463011e-002
3.558171e+003;6.419883e-002
3.560100e+003;6.328765e-002
3.562028e+003;6.272640e-002
3.563957e+003;6.218650e-002
3.565885e+003;6.125216e-002
3.567814e+003;6.071187e-002
3.569742e+003;6.034873e-002
3.571671e+003;5.959993e-002
3.573599e+003;5.860363e-002
3.575528e+003;5.817174e-002
3.577457e+003;5.771227e-002
3.579385e+003;5.727344e-002
3.581314e+003;5.686492e-002
3.583242e+003;5.607079e-002
3.585171e+003;5.505253e-002
3.587099e+003;5.441912e-002
3.589028e+003;5.436891e-002
3.590956e+003;5.408150e-002
3.592885e+003;5.329330e-002
3.594813e+003;5.280150e-002
3.596742e+003;5.255529e-002
3.598671e+003;5.180718e-002
3.600599e+003;5.128754e-002
3.602528e+003;5.158616e-002
3.604456e+003;5.133661e-002
3.606385e+003;5.039929e-002
3.608313e+003;4.961737e-002
3.610242e+003;4.948263e-002
3.612170e+003;4.952753e-002
3.614099e+003;4.935283e-002
3.616028e+003;4.926872e-002
3.617956e+003;4.896030e-002
3.619885e+003;4.822250e-002
3.621813e+003;4.777525e-002
3.623742e+003;4.752418e-002
3.625670e+003;4.709012e-002
3.627599e+003;4.669040e-002
3.629527e+003;4.634023e-002
3.631456e+003;4.611766e-002
3.633385e+003;4.592312e-002
3.635313e+003;4.591726e-002
3.637241e+003;4.619173e-002
3.639170e+003;4.571670e-002
3.641099e+003;4.475359e-002
3.643027e+003;4.467231e-002
3.644956e+003;4.455731e-002
3.646884e+003;4.394509e-002
3.648813e+003;4.354302e-002
3.650741e+003;4.302767e-002
3.652670e+003;4.324614e-002
3.654598e+003;4.346391e-002
3.656527e+003;4.292525e-002
3.658456e+003;4.272588e-002
3.660384e+003;4.227763e-002
3.662313e+003;4.111397e-002
3.664241e+003;4.109532e-002
3.666170e+003;4.180501e-002
3.668098e+003;4.203965e-002
3.670027e+003;4.160385e-002
3.671955e+003;4.134452e-002
3.673884e+003;4.102994e-002
3.675813e+003;4.000296e-002
3.677741e+003;3.968899e-002
3.679669e+003;3.991864e-002
3.681598e+003;3.967690e-002
3.683527e+003;3.938185e-002
3.685455e+003;3.941843e-002
3.687384e+003;3.921816e-002
3.689312e+003;3.919357e-002
3.691241e+003;3.939437e-002
3.693169e+003;3.918563e-002
3.695098e+003;3.873428e-002
3.697026e+003;3.870929e-002
3.698955e+003;3.841805e-002
3.700884e+003;3.780553e-002
3.702812e+003;3.801538e-002
3.704741e+003;3.796782e-002
3.706669e+003;3.776519e-002
3.708598e+003;3.799415e-002
3.710526e+003;3.769067e-002
3.712455e+003;3.714626e-002
3.714383e+003;3.738327e-002
3.716312e+003;3.746161e-002
3.718240e+003;3.736637e-002
3.720169e+003;3.740162e-002
3.722098e+003;3.708519e-002
3.724026e+003;3.706531e-002
3.725955e+003;3.685383e-002
3.727883e+003;3.668426e-002
3.729812e+003;3.690479e-002
3.731740e+003;3.694487e-002
3.733669e+003;3.654079e-002
3.735597e+003;3.644158e-002
3.737526e+003;3.634848e-002
3.739455e+003;3.641574e-002
3.741383e+003;3.690321e-002
3.743312e+003;3.711948e-002
3.745240e+003;3.708213e-002
3.747169e+003;3.688557e-002
3.749097e+003;3.627297e-002
3.751026e+003;3.633471e-002
3.752954e+003;3.642529e-002
3.754883e+003;3.641877e-002
3.756812e+003;3.638036e-002
3.758740e+003;3.642551e-002
3.760668e+003;3.680027e-002
3.762597e+003;3.707733e-002
3.764526e+003;3.675465e-002
3.766454e+003;3.684023e-002
3.768383e+003;3.703976e-002
3.770311e+003;3.637128e-002
3.772240e+003;3.618484e-002
3.774168e+003;3.632117e-002
3.776097e+003;3.603307e-002
3.778025e+003;3.594833e-002
3.779954e+003;3.638551e-002
3.781883e+003;3.683186e-002
3.783811e+003;3.658927e-002
3.785740e+003;3.639888e-002
3.787668e+003;3.712998e-002
3.789597e+003;3.705961e-002
3.791525e+003;3.639733e-002
3.793454e+003;3.637841e-002
3.795382e+003;3.686764e-002
3.797311e+003;3.726372e-002
3.799240e+003;3.680146e-002
3.801168e+003;3.617900e-002
3.803097e+003;3.580942e-002
3.805025e+003;3.580194e-002
3.806954e+003;3.593703e-002
3.808882e+003;3.636004e-002
3.810811e+003;3.668563e-002
3.812739e+003;3.672176e-002
3.814668e+003;3.651459e-002
3.816596e+003;3.651091e-002
3.818525e+003;3.664782e-002
3.820454e+003;3.666819e-002
3.822382e+003;3.673410e-002
3.824311e+003;3.704157e-002
3.826239e+003;3.705759e-002
3.828168e+003;3.696562e-002
3.830096e+003;3.695115e-002
3.832025e+003;3.714135e-002
3.833953e+003;3.738086e-002
3.835882e+003;3.716835e-002
3.837811e+003;3.702591e-002
3.839739e+003;3.761312e-002
3.841667e+003;3.800040e-002
3.843596e+003;3.777668e-002
3.845525e+003;3.746529e-002
3.847453e+003;3.706553e-002
3.849382e+003;3.727412e-002
3.851310e+003;3.801867e-002
3.853239e+003;3.836107e-002
3.855167e+003;3.822425e-002
3.857096e+003;3.779992e-002
3.859024e+003;3.780422e-002
3.860953e+003;3.831301e-002
3.862882e+003;3.851749e-002
3.864810e+003;3.817974e-002
3.866739e+003;3.799885e-002
3.868667e+003;3.812906e-002
3.870596e+003;3.831880e-002
3.872524e+003;3.827946e-002
3.874453e+003;3.795350e-002
3.876381e+003;3.818296e-002
3.878310e+003;3.825844e-002
3.880239e+003;3.806576e-002
3.882167e+003;3.833751e-002
3.884096e+003;3.795679e-002
3.886024e+003;3.773269e-002
3.887953e+003;3.830740e-002
3.889881e+003;3.833393e-002
3.891810e+003;3.785812e-002
3.893738e+003;3.823854e-002
3.895667e+003;3.844027e-002
3.897595e+003;3.855298e-002
3.899524e+003;3.873186e-002
3.901453e+003;3.843470e-002
3.903381e+003;3.866818e-002
3.905310e+003;3.922780e-002
3.907238e+003;3.935454e-002
3.909167e+003;3.906739e-002
3.911095e+003;3.911924e-002
3.913024e+003;3.936389e-002
3.914952e+003;3.969215e-002
3.916881e+003;3.970202e-002
3.918810e+003;3.919676e-002
3.920738e+003;3.886160e-002
3.922667e+003;3.928482e-002
3.924595e+003;3.949038e-002
3.926524e+003;3.924848e-002
3.928452e+003;3.926135e-002
3.930381e+003;3.940496e-002
3.932309e+003;3.936604e-002
3.934238e+003;3.857749e-002
3.936167e+003;3.834681e-002
3.938095e+003;3.928449e-002
3.940023e+003;4.008061e-002
3.941952e+003;3.992914e-002
3.943881e+003;3.941999e-002
3.945809e+003;3.956194e-002
3.947738e+003;3.966438e-002
3.949666e+003;3.977853e-002
3.951595e+003;4.030846e-002
3.953523e+003;4.067560e-002
3.955452e+003;4.076487e-002
3.957380e+003;4.105292e-002
3.959309e+003;4.110311e-002
3.961238e+003;4.040955e-002
3.963166e+003;3.973790e-002
3.965095e+003;3.976030e-002
3.967023e+003;3.971335e-002
3.968952e+003;3.976640e-002
3.970880e+003;4.047759e-002
3.972809e+003;4.086526e-002
3.974737e+003;4.063180e-002
3.976666e+003;4.086872e-002
3.978594e+003;4.073055e-002
3.980523e+003;4.018414e-002
3.982452e+003;4.004711e-002
3.984380e+003;4.023943e-002
3.986309e+003;4.010532e-002
3.988237e+003;4.024703e-002
3.990166e+003;4.046806e-002
3.992094e+003;4.056886e-002
3.994023e+003;4.103417e-002
3.995951e+003;4.106654e-002
3.997880e+003;4.028393e-002
3.999809e+003;4.058949e-002
4.001737e+003;0.000000e+000
