3.992094e+002;0.000000e+000
4.011380e+002;0.000000e+000
4.030665e+002;0.000000e+000
4.049951e+002;0.000000e+000
4.069236e+002;0.000000e+000
4.088522e+002;0.000000e+000
4.107807e+002;0.000000e+000
4.127093e+002;0.000000e+000
4.146378e+002;0.000000e+000
4.165664e+002;0.000000e+000
4.184949e+002;0.000000e+000
4.204235e+002;0.000000e+000
4.223520e+002;0.000000e+000
4.242806e+002;0.000000e+000
4.262091e+002;0.000000e+000
4.281377e+002;0.000000e+000
4.300662e+002;0.000000e+000
4.319948e+002;0.000000e+000
4.339233e+002;0.000000e+000
4.358519e+002;0.000000e+000
4.377804e+002;0.000000e+000
4.397090e+002;0.000000e+000
4.416375e+002;0.000000e+000
4.435660e+002;0.000000e+000
4.454946e+002;0.000000e+000
4.474232e+002;0.000000e+000
4.493517e+002;0.000000e+000
4.512802e+002;0.000000e+000
4.532088e+002;0.000000e+000
4.551373e+002;0.000000e+000
4.570659e+002;0.000000e+000
4.589944e+002;0.000000e+000
4.609230e+002;0.000000e+000
4.628515e+002;0.000000e+000
4.647801e+002;0.000000e+000
4.667086e+002;0.000000e+000
4.686372e+002;0.000000e+000
4.705657e+002;0.000000e+000
4.724943e+002;0.000000e+000
4.744228e+002;0.000000e+000
4.763513e+002;0.000000e+000
4.782799e+002;0.000000e+000
4.802085e+002;0.000000e+000
4.821370e+002;0.000000e+000
4.840656e+002;0.000000e+000
4.859941e+002;0.000000e+000
4.879226e+002;0.000000e+000
4.898512e+002;0.000000e+000
4.917798e+002;0.000000e+000
4.937083e+002;0.000000e+000
4.956368e+002;0.000000e+000
4.975654e+002;0.000000e+000
4.994939e+002;0.000000e+000
5.014225e+002;0.000000e+000
5.033510e+002;0.000000e+000
5.052796e+002;0.000000e+000
5.072081e+002;0.000000e+000
5.091367e+002;0.000000e+000
5.110652e+002;0.000000e+000
5.129938e+002;0.000000e+000
5.149223e+002;0.000000e+000
5.168509e+002;0.000000e+000
5.187794e+002;0.000000e+000
5.207079e+002;0.000000e+000
5.226365e+002;0.000000e+000
5.245651e+002;0.000000e+000
5.264936e+002;0.000000e+000
5.284222e+002;0.000000e+000
5.303507e+002;0.000000e+000
5.322792e+002;0.000000e+000
5.342078e+002;0.000000e+000
5.361364e+002;0.000000e+000
5.380649e+002;0.000000e+000
5.399935e+002;0.000000e+000
5.419220e+002;0.000000e+000
5.438505e+002;0.000000e+000
5.457791e+002;0.000000e+000
5.477076e+002;0.000000e+000
5.496362e+002;0.000000e+000
5.515648e+002;0.000000e+000
5.534933e+002;0.000000e+000
5.554218e+002;0.000000e+000
5.573504e+002;0.000000e+000
5.592789e+002;0.000000e+000
5.612075e+002;0.000000e+000
5.631360e+002;0.000000e+000
5.650646e+002;0.000000e+000
5.669931e+002;0.000000e+000
5.689217e+002;0.000000e+000
5.708502e+002;0.000000e+000
5.727787e+002;0.000000e+000
5.747073e+002;0.000000e+000
5.766359e+002;0.000000e+000
5.785644e+002;0.000000e+000
5.804930e+002;0.000000e+000
5.824215e+002;0.000000e+000
5.843500e+002;0.000000e+000
5.862786e+002;0.000000e+000
5.882072e+002;0.000000e+000
5.901357e+002;0.000000e+000
5.920643e+002;0.000000e+000
5.939928e+002;0.000000e+000
5.959213e+002;0.000000e+000
5.978499e+002;0.000000e+000
5.997784e+002;2.812979e-001
6.017070e+002;2.821656e-001
6.036355e+002;2.878453e-001
6.055641e+002;2.873167e-001
6.074926e+002;2.814383e-001
6.094211e+002;2.777546e-001
6.113497e+002;2.750711e-001
6.132783e+002;2.749587e-001
6.152068e+002;2.776193e-001
6.171354e+002;2.741691e-001
6.190639e+002;2.654490e-001
6.209924e+002;2.594909e-001
6.229210e+002;2.550081e-001
6.248495e+002;2.558624e-001
6.267781e+002;2.559611e-001
6.287067e+002;2.518658e-001
6.306352e+002;2.501366e-001
6.325637e+002;2.497216e-001
6.344923e+002;2.482547e-001
6.364208e+002;2.473509e-001
6.383494e+002;2.448833e-001
6.402780e+002;2.420205e-001
6.422065e+002;2.432972e-001
6.441350e+002;2.438057e-001
6.460636e+002;2.439687e-001
6.479921e+002;2.424089e-001
6.499207e+002;2.418696e-001
6.518492e+002;2.434282e-001
6.537778e+002;2.447473e-001
6.557063e+002;2.478953e-001
6.576349e+002;2.520912e-001
6.595634e+002;2.565010e-001
6.614919e+002;2.580220e-001
6.634205e+002;2.585871e-001
6.653491e+002;2.587993e-001
6.672776e+002;2.606024e-001
6.692062e+002;2.609766e-001
6.711347e+002;2.580681e-001
6.730632e+002;2.494447e-001
6.749918e+002;2.353399e-001
6.769203e+002;2.211112e-001
6.788489e+002;2.095816e-001
6.807775e+002;2.014704e-001
6.827060e+002;1.957131e-001
6.846345e+002;1.911739e-001
6.865631e+002;1.892115e-001
6.884916e+002;1.882333e-001
6.904202e+002;1.873230e-001
6.923488e+002;1.866087e-001
6.942773e+002;1.857405e-001
6.962058e+002;1.849259e-001
6.981344e+002;1.841408e-001
7.000629e+002;1.832924e-001
7.019915e+002;1.830603e-001
7.039200e+002;1.826591e-001
7.058486e+002;1.819042e-001
7.077771e+002;1.811489e-001
7.097057e+002;1.810992e-001
7.116342e+002;1.803013e-001
7.135627e+002;1.792158e-001
7.154913e+002;1.781868e-001
7.174199e+002;1.771972e-001
7.193484e+002;1.752020e-001
7.212770e+002;1.734830e-001
7.232055e+002;1.725150e-001
7.251340e+002;1.707460e-001
7.270626e+002;1.685982e-001
7.289911e+002;1.664413e-001
7.309197e+002;1.647868e-001
7.328483e+002;1.638138e-001
7.347768e+002;1.632939e-001
7.367053e+002;1.627707e-001
7.386339e+002;1.613377e-001
7.405624e+002;1.594055e-001
7.424910e+002;1.578614e-001
7.444196e+002;1.575096e-001
7.463481e+002;1.569010e-001
7.482766e+002;1.556008e-001
7.502052e+002;1.539451e-001
7.521337e+002;1.525184e-001
7.540623e+002;1.511154e-001
7.559908e+002;1.502533e-001
7.579194e+002;1.494194e-001
7.598479e+002;1.484458e-001
7.617765e+002;1.484014e-001
7.637050e+002;1.475863e-001
7.656335e+002;1.459055e-001
7.675621e+002;1.444351e-001
7.694907e+002;1.436398e-001
7.714192e+002;1.436571e-001
7.733478e+002;1.426569e-001
7.752763e+002;1.407837e-001
7.772048e+002;1.400393e-001
7.791334e+002;1.395945e-001
7.810620e+002;1.391416e-001
7.829905e+002;1.384417e-001
7.849191e+002;1.375348e-001
7.868476e+002;1.364999e-001
7.887761e+002;1.356163e-001
7.907047e+002;1.352006e-001
7.926332e+002;1.342916e-001
7.945618e+002;1.334690e-001
7.964903e+002;1.332296e-001
7.984189e+002;1.328829e-001
8.003474e+002;1.322353e-001
8.022759e+002;1.316570e-001
8.042045e+002;1.313730e-001
8.061331e+002;1.310189e-001
8.080616e+002;1.312375e-001
8.099902e+002;1.317083e-001
8.119187e+002;1.313891e-001
8.138472e+002;1.310623e-001
8.157758e+002;1.315867e-001
8.177043e+002;1.320632e-001
8.196329e+002;1.315408e-001
8.215615e+002;1.312559e-001
8.234900e+002;1.315279e-001
8.254185e+002;1.317593e-001
8.273471e+002;1.314287e-001
8.292756e+002;1.313982e-001
8.312042e+002;1.311895e-001
8.331328e+002;1.306230e-001
8.350613e+002;1.304616e-001
8.369898e+002;1.307698e-001
8.389184e+002;1.307148e-001
8.408469e+002;1.299303e-001
8.427755e+002;1.294577e-001
8.447040e+002;1.293709e-001
8.466326e+002;1.286918e-001
8.485611e+002;1.282278e-001
8.504897e+002;1.284615e-001
8.524182e+002;1.295032e-001
8.543467e+002;1.301473e-001
8.562753e+002;1.304611e-001
8.582039e+002;1.305352e-001
8.601324e+002;1.307197e-001
8.620610e+002;1.313636e-001
8.639895e+002;1.325893e-001
8.659180e+002;1.340397e-001
8.678466e+002;1.353088e-001
8.697751e+002;1.369744e-001
8.717037e+002;1.396314e-001
8.736323e+002;1.425953e-001
8.755608e+002;1.457701e-001
8.774893e+002;1.496399e-001
8.794179e+002;1.546047e-001
8.813464e+002;1.606223e-001
8.832750e+002;1.669056e-001
8.852036e+002;1.729434e-001
8.871321e+002;1.792751e-001
8.890606e+002;1.856386e-001
8.909892e+002;1.910808e-001
8.929177e+002;1.945660e-001
8.948463e+002;1.957171e-001
8.967748e+002;1.936756e-001
8.987034e+002;1.893308e-001
9.006319e+002;1.848618e-001
9.025605e+002;1.800486e-001
9.044890e+002;1.750483e-001
9.064175e+002;1.705544e-001
9.083461e+002;1.664511e-001
9.102747e+002;1.634130e-001
9.122032e+002;1.609325e-001
9.141318e+002;1.587003e-001
9.160603e+002;1.576340e-001
9.179888e+002;1.576480e-001
9.199174e+002;1.586166e-001
9.218459e+002;1.597375e-001
9.237745e+002;1.606904e-001
9.257031e+002;1.617626e-001
9.276316e+002;1.632646e-001
9.295601e+002;1.654714e-001
9.314887e+002;1.677625e-001
9.334172e+002;1.697854e-001
9.353458e+002;1.719441e-001
9.372744e+002;1.737259e-001
9.392029e+002;1.752876e-001
9.411314e+002;1.773060e-001
9.430600e+002;1.800065e-001
9.449885e+002;1.834421e-001
9.469171e+002;1.874475e-001
9.488456e+002;1.916517e-001
9.507742e+002;1.964422e-001
9.527027e+002;2.017518e-001
9.546313e+002;2.072421e-001
9.565598e+002;2.132647e-001
9.584883e+002;2.194124e-001
9.604169e+002;2.250677e-001
9.623455e+002;2.307219e-001
9.642740e+002;2.369543e-001
9.662026e+002;2.429931e-001
9.681311e+002;2.490626e-001
9.700596e+002;2.556322e-001
9.719882e+002;2.632832e-001
9.739167e+002;2.721477e-001
9.758453e+002;2.825907e-001
9.777739e+002;2.949075e-001
9.797024e+002;3.093185e-001
9.816309e+002;3.255345e-001
9.835595e+002;3.426788e-001
9.854880e+002;3.608511e-001
9.874166e+002;3.789084e-001
9.893452e+002;3.956168e-001
9.912737e+002;4.099110e-001
9.932022e+002;4.207996e-001
9.951307e+002;4.290083e-001
9.970593e+002;4.354653e-001
9.989879e+002;4.395675e-001
1.000916e+003;4.414141e-001
1.002845e+003;4.445208e-001
1.004773e+003;4.498650e-001
1.006702e+003;4.559854e-001
1.008631e+003;4.634843e-001
1.010559e+003;4.725143e-001
1.012488e+003;4.828810e-001
1.014416e+003;4.943021e-001
1.016345e+003;5.033228e-001
1.018273e+003;5.087666e-001
1.020202e+003;5.123479e-001
1.022130e+003;5.140283e-001
1.024059e+003;5.142655e-001
1.025988e+003;5.117590e-001
1.027916e+003;5.059659e-001
1.029845e+003;4.987849e-001
1.031773e+003;4.911518e-001
1.033702e+003;4.833512e-001
1.035630e+003;4.775262e-001
1.037559e+003;4.724050e-001
1.039487e+003;4.680710e-001
1.041416e+003;4.652343e-001
1.043344e+003;4.620786e-001
1.045273e+003;4.582872e-001
1.047202e+003;4.537961e-001
1.049130e+003;4.487330e-001
1.051059e+003;4.445003e-001
1.052987e+003;4.406502e-001
1.054916e+003;4.359741e-001
1.056844e+003;4.305562e-001
1.058773e+003;4.240248e-001
1.060701e+003;4.149517e-001
1.062630e+003;4.042594e-001
1.064558e+003;3.937783e-001
1.066487e+003;3.848004e-001
1.068416e+003;3.775861e-001
1.070344e+003;3.712403e-001
1.072273e+003;3.649423e-001
1.074201e+003;3.590317e-001
1.076130e+003;3.531708e-001
1.078058e+003;3.464198e-001
1.079987e+003;3.402200e-001
1.081915e+003;3.345423e-001
1.083844e+003;3.290545e-001
1.085773e+003;3.236909e-001
1.087701e+003;3.174124e-001
1.089630e+003;3.107712e-001
1.091558e+003;3.043452e-001
1.093487e+003;2.984640e-001
1.095415e+003;2.917413e-001
1.097344e+003;2.837852e-001
1.099272e+003;2.752656e-001
1.101201e+003;2.673867e-001
1.103129e+003;2.602795e-001
1.105058e+003;2.536823e-001
1.106987e+003;2.491740e-001
1.108915e+003;2.467959e-001
1.110844e+003;2.436306e-001
1.112772e+003;2.391402e-001
1.114701e+003;2.337535e-001
1.116629e+003;2.283429e-001
1.118558e+003;2.231406e-001
1.120486e+003;2.178349e-001
1.122415e+003;2.115539e-001
1.124344e+003;2.049894e-001
1.126272e+003;1.985512e-001
1.128201e+003;1.922625e-001
1.130129e+003;1.864486e-001
1.132058e+003;1.812494e-001
1.133986e+003;1.764648e-001
1.135915e+003;1.723998e-001
1.137843e+003;1.693857e-001
1.139772e+003;1.668331e-001
1.141700e+003;1.656790e-001
1.143629e+003;1.662450e-001
1.145557e+003;1.673792e-001
1.147486e+003;1.688473e-001
1.149415e+003;1.706972e-001
1.151343e+003;1.728383e-001
1.153272e+003;1.749878e-001
1.155200e+003;1.760193e-001
1.157129e+003;1.755158e-001
1.159057e+003;1.728471e-001
1.160986e+003;1.679404e-001
1.162914e+003;1.620222e-001
1.164843e+003;1.557546e-001
1.166771e+003;1.490724e-001
1.168700e+003;1.422347e-001
1.170629e+003;1.361693e-001
1.172557e+003;1.311052e-001
1.174486e+003;1.268274e-001
1.176414e+003;1.232341e-001
1.178343e+003;1.203458e-001
1.180271e+003;1.181703e-001
1.182200e+003;1.167210e-001
1.184128e+003;1.161558e-001
1.186057e+003;1.163913e-001
1.187986e+003;1.179519e-001
1.189914e+003;1.208838e-001
1.191843e+003;1.242639e-001
1.193771e+003;1.272983e-001
1.195700e+003;1.299140e-001
1.197628e+003;1.310643e-001
1.199557e+003;1.305216e-001
1.201485e+003;1.287912e-001
1.203414e+003;1.263214e-001
1.205343e+003;1.235204e-001
1.207271e+003;1.211457e-001
1.209200e+003;1.194616e-001
1.211128e+003;1.184904e-001
1.213057e+003;1.186572e-001
1.214985e+003;1.195794e-001
1.216914e+003;1.206905e-001
1.218842e+003;1.227516e-001
1.220771e+003;1.257222e-001
1.222699e+003;1.286513e-001
1.224628e+003;1.309796e-001
1.226557e+003;1.320210e-001
1.228485e+003;1.320308e-001
1.230414e+003;1.317002e-001
1.232342e+003;1.312681e-001
1.234271e+003;1.306335e-001
1.236199e+003;1.301305e-001
1.238128e+003;1.298791e-001
1.240056e+003;1.292469e-001
1.241985e+003;1.281400e-001
1.243913e+003;1.273441e-001
1.245842e+003;1.271856e-001
1.247771e+003;1.274981e-001
1.249699e+003;1.280825e-001
1.251628e+003;1.289285e-001
1.253556e+003;1.302466e-001
1.255485e+003;1.318765e-001
1.257413e+003;1.329370e-001
1.259342e+003;1.329770e-001
1.261270e+003;1.326529e-001
1.263199e+003;1.320373e-001
1.265127e+003;1.307636e-001
1.267056e+003;1.295328e-001
1.268985e+003;1.285117e-001
1.270913e+003;1.274929e-001
1.272842e+003;1.264897e-001
1.274770e+003;1.257804e-001
1.276699e+003;1.254288e-001
1.278627e+003;1.249319e-001
1.280556e+003;1.241543e-001
1.282484e+003;1.231585e-001
1.284413e+003;1.225784e-001
1.286342e+003;1.229101e-001
1.288270e+003;1.243173e-001
1.290199e+003;1.265900e-001
1.292127e+003;1.288313e-001
1.294056e+003;1.306294e-001
1.295984e+003;1.323557e-001
1.297913e+003;1.341128e-001
1.299841e+003;1.360164e-001
1.301770e+003;1.381849e-001
1.303698e+003;1.405419e-001
1.305627e+003;1.432671e-001
1.307556e+003;1.460819e-001
1.309484e+003;1.484542e-001
1.311413e+003;1.502995e-001
1.313341e+003;1.514627e-001
1.315270e+003;1.515765e-001
1.317198e+003;1.504988e-001
1.319127e+003;1.482677e-001
1.321055e+003;1.457792e-001
1.322984e+003;1.442123e-001
1.324912e+003;1.434496e-001
1.326841e+003;1.432226e-001
1.328770e+003;1.434774e-001
1.330698e+003;1.436779e-001
1.332627e+003;1.440610e-001
1.334555e+003;1.443914e-001
1.336484e+003;1.443311e-001
1.338412e+003;1.436172e-001
1.340341e+003;1.428092e-001
1.342269e+003;1.424287e-001
1.344198e+003;1.418872e-001
1.346126e+003;1.410813e-001
1.348055e+003;1.408528e-001
1.349984e+003;1.409654e-001
1.351912e+003;1.414794e-001
1.353841e+003;1.425179e-001
1.355769e+003;1.439146e-001
1.357698e+003;1.454304e-001
1.359626e+003;1.469488e-001
1.361555e+003;1.480863e-001
1.363483e+003;1.485686e-001
1.365412e+003;1.483952e-001
1.367341e+003;1.476169e-001
1.369269e+003;1.466057e-001
1.371198e+003;1.454922e-001
1.373126e+003;1.438266e-001
1.375055e+003;1.417407e-001
1.376983e+003;1.393590e-001
1.378912e+003;1.365121e-001
1.380840e+003;1.332261e-001
1.382769e+003;1.300812e-001
1.384698e+003;1.276760e-001
1.386626e+003;1.257402e-001
1.388555e+003;1.244439e-001
1.390483e+003;1.237307e-001
1.392412e+003;1.231712e-001
1.394340e+003;1.228137e-001
1.396269e+003;1.226473e-001
1.398197e+003;1.224772e-001
1.400126e+003;1.219688e-001
1.402054e+003;1.212075e-001
1.403983e+003;1.207562e-001
1.405911e+003;1.207387e-001
1.407840e+003;1.208728e-001
1.409769e+003;1.210134e-001
1.411697e+003;1.208946e-001
1.413626e+003;1.208976e-001
1.415554e+003;1.210665e-001
1.417483e+003;1.208244e-001
1.419411e+003;1.203880e-001
1.421340e+003;1.203630e-001
1.423268e+003;1.204330e-001
1.425197e+003;1.202941e-001
1.427125e+003;1.199565e-001
1.429054e+003;1.194469e-001
1.430983e+003;1.188415e-001
1.432911e+003;1.185407e-001
1.434840e+003;1.181496e-001
1.436768e+003;1.173589e-001
1.438697e+003;1.165470e-001
1.440625e+003;1.157378e-001
1.442554e+003;1.150323e-001
1.444482e+003;1.140949e-001
1.446411e+003;1.129186e-001
1.448340e+003;1.117858e-001
1.450268e+003;1.110344e-001
1.452197e+003;1.104162e-001
1.454125e+003;1.096518e-001
1.456054e+003;1.086689e-001
1.457982e+003;1.080694e-001
1.459911e+003;1.077092e-001
1.461839e+003;1.068164e-001
1.463768e+003;1.056661e-001
1.465697e+003;1.047183e-001
1.467625e+003;1.040129e-001
1.469554e+003;1.030154e-001
1.471482e+003;1.014645e-001
1.473411e+003;9.991091e-002
1.475339e+003;9.858157e-002
1.477268e+003;9.701469e-002
1.479196e+003;9.536833e-002
1.481125e+003;9.399109e-002
1.483053e+003;9.269443e-002
1.484982e+003;9.125707e-002
1.486911e+003;8.975838e-002
1.488839e+003;8.843493e-002
1.490768e+003;8.711684e-002
1.492696e+003;8.599333e-002
1.494625e+003;8.500838e-002
1.496553e+003;8.391394e-002
1.498482e+003;8.323065e-002
1.500410e+003;8.256707e-002
1.502339e+003;8.187946e-002
1.504267e+003;8.096123e-002
1.506196e+003;8.004721e-002
1.508125e+003;7.983209e-002
1.510053e+003;7.961134e-002
1.511982e+003;7.897791e-002
1.513910e+003;7.823631e-002
1.515839e+003;7.774269e-002
1.517767e+003;7.752494e-002
1.519696e+003;7.728568e-002
1.521624e+003;7.705752e-002
1.523553e+003;7.704992e-002
1.525481e+003;7.684925e-002
1.527410e+003;7.659124e-002
1.529339e+003;7.636217e-002
1.531267e+003;7.619376e-002
1.533196e+003;7.603469e-002
1.535124e+003;7.594241e-002
1.537053e+003;7.594490e-002
1.538981e+003;7.550614e-002
1.540910e+003;7.525677e-002
1.542838e+003;7.532242e-002
1.544767e+003;7.506555e-002
1.546695e+003;7.510907e-002
1.548624e+003;7.522485e-002
1.550553e+003;7.506318e-002
1.552481e+003;7.494245e-002
1.554410e+003;7.513117e-002
1.556338e+003;7.517663e-002
1.558267e+003;7.477561e-002
1.560195e+003;7.501774e-002
1.562124e+003;7.576738e-002
1.564052e+003;7.632958e-002
1.565981e+003;7.669089e-002
1.567910e+003;7.693567e-002
1.569838e+003;7.704889e-002
1.571767e+003;7.723565e-002
1.573695e+003;7.731616e-002
1.575624e+003;7.744422e-002
1.577552e+003;7.812611e-002
1.579481e+003;7.874376e-002
1.581409e+003;7.901900e-002
1.583338e+003;7.940399e-002
1.585266e+003;7.981616e-002
1.587195e+003;8.008112e-002
1.589124e+003;8.066908e-002
1.591052e+003;8.145485e-002
1.592981e+003;8.215769e-002
1.594909e+003;8.260065e-002
1.596838e+003;8.305547e-002
1.598766e+003;8.353232e-002
1.600695e+003;8.418325e-002
1.602623e+003;8.471305e-002
1.604552e+003;8.492408e-002
1.606480e+003;8.515182e-002
1.608409e+003;8.550755e-002
1.610338e+003;8.590553e-002
1.612266e+003;8.635832e-002
1.614195e+003;8.670577e-002
1.616123e+003;8.673932e-002
1.618052e+003;8.701894e-002
1.619980e+003;8.758544e-002
1.621909e+003;8.791100e-002
1.623837e+003;8.826166e-002
1.625766e+003;8.887678e-002
1.627694e+003;8.971516e-002
1.629623e+003;9.021586e-002
1.631552e+003;9.063455e-002
1.633480e+003;9.104980e-002
1.635409e+003;9.102442e-002
1.637337e+003;9.094872e-002
1.639266e+003;9.109917e-002
1.641194e+003;9.078391e-002
1.643123e+003;8.995183e-002
1.645051e+003;8.911060e-002
1.646980e+003;8.877885e-002
1.648909e+003;8.844963e-002
1.650837e+003;8.770850e-002
1.652766e+003;8.674441e-002
1.654694e+003;8.645841e-002
1.656623e+003;8.627909e-002
1.658551e+003;8.577863e-002
1.660480e+003;8.524402e-002
1.662408e+003;8.451670e-002
1.664337e+003;8.359610e-002
1.666266e+003;8.286852e-002
1.668194e+003;8.186214e-002
1.670123e+003;8.069031e-002
1.672051e+003;7.988676e-002
1.673980e+003;7.897953e-002
1.675908e+003;7.795154e-002
1.677837e+003;7.719650e-002
1.679765e+003;7.629491e-002
1.681694e+003;7.508497e-002
1.683622e+003;7.409577e-002
1.685551e+003;7.353508e-002
1.687479e+003;7.290182e-002
1.689408e+003;7.220925e-002
1.691337e+003;7.163324e-002
1.693265e+003;7.093989e-002
1.695194e+003;7.016125e-002
1.697122e+003;6.968147e-002
1.699051e+003;6.920826e-002
1.700979e+003;6.883880e-002
1.702908e+003;6.848451e-002
1.704836e+003;6.779070e-002
1.706765e+003;6.752698e-002
1.708693e+003;6.735472e-002
1.710622e+003;6.689839e-002
1.712551e+003;6.643184e-002
1.714479e+003;6.594685e-002
1.716408e+003;6.566367e-002
1.718336e+003;6.575379e-002
1.720265e+003;6.567858e-002
1.722193e+003;6.542701e-002
1.724122e+003;6.494491e-002
1.726050e+003;6.461285e-002
1.727979e+003;6.460124e-002
1.729908e+003;6.439301e-002
1.731836e+003;6.390304e-002
1.733765e+003;6.323203e-002
1.735693e+003;6.301419e-002
1.737622e+003;6.303112e-002
1.739550e+003;6.252864e-002
1.741479e+003;6.184347e-002
1.743407e+003;6.159174e-002
1.745336e+003;6.166521e-002
1.747265e+003;6.156917e-002
1.749193e+003;6.151611e-002
1.751122e+003;6.151565e-002
1.753050e+003;6.162362e-002
1.754979e+003;6.181024e-002
1.756907e+003;6.190266e-002
1.758836e+003;6.201272e-002
1.760764e+003;6.201489e-002
1.762693e+003;6.202720e-002
1.764621e+003;6.216264e-002
1.766550e+003;6.210778e-002
1.768479e+003;6.215151e-002
1.770407e+003;6.228163e-002
1.772336e+003;6.230320e-002
1.774264e+003;6.225663e-002
1.776193e+003;6.226374e-002
1.778121e+003;6.235809e-002
1.780050e+003;6.231751e-002
1.781978e+003;6.232558e-002
1.783907e+003;6.231935e-002
1.785835e+003;6.221261e-002
1.787764e+003;6.211638e-002
1.789693e+003;6.209604e-002
1.791621e+003;6.207379e-002
1.793550e+003;6.197045e-002
1.795478e+003;6.202705e-002
1.797407e+003;6.217300e-002
1.799335e+003;6.225403e-002
1.801264e+003;6.234799e-002
1.803192e+003;6.244301e-002
1.805121e+003;6.247626e-002
1.807049e+003;6.245510e-002
1.808978e+003;6.233166e-002
1.810907e+003;6.223858e-002
1.812835e+003;6.219017e-002
1.814764e+003;6.216176e-002
1.816692e+003;6.218879e-002
1.818621e+003;6.225746e-002
1.820549e+003;6.224488e-002
1.822478e+003;6.239072e-002
1.824406e+003;6.232053e-002
1.826335e+003;6.217457e-002
1.828264e+003;6.208434e-002
1.830192e+003;6.198432e-002
1.832121e+003;6.192390e-002
1.834049e+003;6.193487e-002
1.835978e+003;6.210824e-002
1.837906e+003;6.206806e-002
1.839835e+003;6.196647e-002
1.841763e+003;6.182704e-002
1.843692e+003;6.180790e-002
1.845620e+003;6.197549e-002
1.847549e+003;6.191691e-002
1.849478e+003;6.204788e-002
1.851406e+003;6.223644e-002
1.853335e+003;6.209222e-002
1.855263e+003;6.190495e-002
1.857192e+003;6.207758e-002
1.859120e+003;6.210957e-002
1.861049e+003;6.187920e-002
1.862977e+003;6.181383e-002
1.864906e+003;6.195860e-002
1.866834e+003;6.197824e-002
1.868763e+003;6.191255e-002
1.870692e+003;6.172345e-002
1.872620e+003;6.150343e-002
1.874549e+003;6.161281e-002
1.876477e+003;6.176504e-002
1.878406e+003;6.178010e-002
1.880334e+003;6.165963e-002
1.882263e+003;6.169771e-002
1.884191e+003;6.200374e-002
1.886120e+003;6.207842e-002
1.888048e+003;6.193903e-002
1.889977e+003;6.182571e-002
1.891906e+003;6.185944e-002
1.893834e+003;6.185375e-002
1.895763e+003;6.184962e-002
1.897691e+003;6.194178e-002
1.899620e+003;6.202984e-002
1.901548e+003;6.202020e-002
1.903477e+003;6.207636e-002
1.905405e+003;6.205208e-002
1.907334e+003;6.196021e-002
1.909262e+003;6.203637e-002
1.911191e+003;6.211057e-002
1.913120e+003;6.217575e-002
1.915048e+003;6.232596e-002
1.916977e+003;6.239910e-002
1.918905e+003;6.241015e-002
1.920834e+003;6.231487e-002
1.922762e+003;6.233070e-002
1.924691e+003;6.262214e-002
1.926619e+003;6.291376e-002
1.928548e+003;6.292820e-002
1.930477e+003;6.273793e-002
1.932405e+003;6.255424e-002
1.934334e+003;6.271243e-002
1.936262e+003;6.278988e-002
1.938191e+003;6.268165e-002
1.940119e+003;6.277660e-002
1.942048e+003;6.268188e-002
1.943976e+003;6.276496e-002
1.945905e+003;6.289028e-002
1.947833e+003;6.292288e-002
1.949762e+003;6.305135e-002
1.951691e+003;6.319673e-002
1.953619e+003;6.341903e-002
1.955548e+003;6.360339e-002
1.957476e+003;6.362729e-002
1.959405e+003;6.371108e-002
1.961333e+003;6.378402e-002
1.963262e+003;6.356457e-002
1.965190e+003;6.346934e-002
1.967119e+003;6.350259e-002
1.969047e+003;6.355739e-002
1.970976e+003;6.364186e-002
1.972905e+003;6.373360e-002
1.974833e+003;6.385832e-002
1.976762e+003;6.399268e-002
1.978690e+003;6.404752e-002
1.980619e+003;6.414567e-002
1.982547e+003;6.426898e-002
1.984476e+003;6.422891e-002
1.986404e+003;6.428976e-002
1.988333e+003;6.443156e-002
1.990261e+003;6.423006e-002
1.992190e+003;6.400312e-002
1.994119e+003;6.396274e-002
1.996047e+003;6.393379e-002
1.997976e+003;6.405792e-002
1.999904e+003;6.422418e-002
2.001833e+003;6.431785e-002
2.003761e+003;6.446823e-002
2.005690e+003;6.448806e-002
2.007618e+003;6.439678e-002
2.009547e+003;6.445754e-002
2.011476e+003;6.456687e-002
2.013404e+003;6.472729e-002
2.015333e+003;6.492590e-002
2.017261e+003;6.497762e-002
2.019190e+003;6.506005e-002
2.021118e+003;6.502372e-002
2.023047e+003;6.477275e-002
2.024975e+003;6.483472e-002
2.026904e+003;6.490277e-002
2.028833e+003;6.486084e-002
2.030761e+003;6.507718e-002
2.032690e+003;6.509215e-002
2.034618e+003;6.498165e-002
2.036547e+003;6.488727e-002
2.038475e+003;6.490743e-002
2.040404e+003;6.500405e-002
2.042332e+003;6.491517e-002
2.044261e+003;6.485803e-002
2.046189e+003;6.507595e-002
2.048118e+003;6.512260e-002
2.050047e+003;6.500390e-002
2.051975e+003;6.517673e-002
2.053904e+003;6.529821e-002
2.055832e+003;6.512918e-002
2.057761e+003;6.518646e-002
2.059689e+003;6.528284e-002
2.061618e+003;6.528515e-002
2.063546e+003;6.535883e-002
2.065475e+003;6.538698e-002
2.067404e+003;6.520783e-002
2.069332e+003;6.493163e-002
2.071260e+003;6.503295e-002
2.073189e+003;6.527468e-002
2.075118e+003;6.515770e-002
2.077046e+003;6.490293e-002
2.078975e+003;6.484107e-002
2.080903e+003;6.496669e-002
2.082832e+003;6.498450e-002
2.084760e+003;6.485661e-002
2.086689e+003;6.493094e-002
2.088617e+003;6.498931e-002
2.090546e+003;6.488858e-002
2.092475e+003;6.484038e-002
2.094403e+003;6.496322e-002
2.096332e+003;6.501956e-002
2.098260e+003;6.492144e-002
2.100189e+003;6.491131e-002
2.102117e+003;6.512441e-002
2.104046e+003;6.523829e-002
2.105974e+003;6.510370e-002
2.107903e+003;6.517188e-002
2.109832e+003;6.537500e-002
2.111760e+003;6.542011e-002
2.113688e+003;6.533846e-002
2.115617e+003;6.534839e-002
2.117546e+003;6.536052e-002
2.119474e+003;6.527187e-002
2.121403e+003;6.522392e-002
2.123331e+003;6.525928e-002
2.125260e+003;6.538776e-002
2.127188e+003;6.536587e-002
2.129117e+003;6.536441e-002
2.131045e+003;6.548513e-002
2.132974e+003;6.544499e-002
2.134903e+003;6.540944e-002
2.136831e+003;6.542470e-002
2.138760e+003;6.537180e-002
2.140688e+003;6.535941e-002
2.142617e+003;6.533198e-002
2.144545e+003;6.525180e-002
2.146474e+003;6.531458e-002
2.148402e+003;6.545728e-002
2.150331e+003;6.547131e-002
2.152260e+003;6.517442e-002
2.154188e+003;6.500790e-002
2.156117e+003;6.513453e-002
2.158045e+003;6.545427e-002
2.159974e+003;6.551407e-002
2.161902e+003;6.530064e-002
2.163831e+003;6.516914e-002
2.165759e+003;6.530730e-002
2.167688e+003;6.533290e-002
2.169616e+003;6.514288e-002
2.171545e+003;6.512926e-002
2.173474e+003;6.534696e-002
2.175402e+003;6.541657e-002
2.177331e+003;6.524680e-002
2.179259e+003;6.500144e-002
2.181188e+003;6.491024e-002
2.183116e+003;6.503453e-002
2.185045e+003;6.498019e-002
2.186973e+003;6.490324e-002
2.188902e+003;6.486072e-002
2.190831e+003;6.474744e-002
2.192759e+003;6.473444e-002
2.194688e+003;6.481771e-002
2.196616e+003;6.471340e-002
2.198545e+003;6.456498e-002
2.200473e+003;6.471771e-002
2.202402e+003;6.494907e-002
2.204330e+003;6.468049e-002
2.206259e+003;6.452723e-002
2.208188e+003;6.454172e-002
2.210116e+003;6.430952e-002
2.212044e+003;6.436443e-002
2.213973e+003;6.463915e-002
2.215902e+003;6.471290e-002
2.217830e+003;6.467760e-002
2.219759e+003;6.479649e-002
2.221687e+003;6.502838e-002
2.223616e+003;6.500082e-002
2.225544e+003;6.476259e-002
2.227473e+003;6.460070e-002
2.229401e+003;6.456199e-002
2.231330e+003;6.471041e-002
2.233259e+003;6.476194e-002
2.235187e+003;6.470156e-002
2.237116e+003;6.464530e-002
2.239044e+003;6.463519e-002
2.240973e+003;6.458002e-002
2.242901e+003;6.426165e-002
2.244830e+003;6.420225e-002
2.246758e+003;6.432243e-002
2.248687e+003;6.430571e-002
2.250615e+003;6.420955e-002
2.252544e+003;6.401023e-002
2.254473e+003;6.386147e-002
2.256401e+003;6.378897e-002
2.258330e+003;6.380624e-002
2.260258e+003;6.386608e-002
2.262187e+003;6.385533e-002
2.264115e+003;6.389491e-002
2.266044e+003;6.393502e-002
2.267972e+003;6.383380e-002
2.269901e+003;6.369427e-002
2.271830e+003;6.381549e-002
2.273758e+003;6.398362e-002
2.275687e+003;6.399595e-002
2.277615e+003;6.402286e-002
2.279544e+003;6.399364e-002
2.281472e+003;6.399464e-002
2.283401e+003;6.398465e-002
2.285329e+003;6.389602e-002
2.287258e+003;6.370206e-002
2.289187e+003;6.356107e-002
2.291115e+003;6.350477e-002
2.293043e+003;6.364769e-002
2.294972e+003;6.389721e-002
2.296901e+003;6.389137e-002
2.298829e+003;6.385875e-002
2.300758e+003;6.386209e-002
2.302686e+003;6.387241e-002
2.304615e+003;6.387214e-002
2.306543e+003;6.390247e-002
2.308472e+003;6.381488e-002
2.310400e+003;6.392646e-002
2.312329e+003;6.416776e-002
2.314258e+003;6.410627e-002
2.316186e+003;6.394949e-002
2.318115e+003;6.395337e-002
2.320043e+003;6.407290e-002
2.321972e+003;6.387886e-002
2.323900e+003;6.378985e-002
2.325829e+003;6.388412e-002
2.327757e+003;6.374799e-002
2.329686e+003;6.374043e-002
2.331615e+003;6.411418e-002
2.333543e+003;6.430943e-002
2.335472e+003;6.429238e-002
2.337400e+003;6.422315e-002
2.339329e+003;6.413146e-002
2.341257e+003;6.418443e-002
2.343186e+003;6.425200e-002
2.345114e+003;6.427090e-002
2.347043e+003;6.434748e-002
2.348971e+003;6.455944e-002
2.350900e+003;6.475194e-002
2.352829e+003;6.492655e-002
2.354757e+003;6.486364e-002
2.356686e+003;6.472614e-002
2.358614e+003;6.474879e-002
2.360543e+003;6.487607e-002
2.362471e+003;6.513873e-002
2.364400e+003;6.531438e-002
2.366328e+003;6.503373e-002
2.368257e+003;6.453196e-002
2.370186e+003;6.457502e-002
2.372114e+003;6.490893e-002
2.374042e+003;6.501379e-002
2.375971e+003;6.507775e-002
2.377900e+003;6.530360e-002
2.379828e+003;6.513049e-002
2.381757e+003;6.483661e-002
2.383685e+003;6.505381e-002
2.385614e+003;6.523059e-002
2.387542e+003;6.509797e-002
2.389471e+003;6.510697e-002
2.391399e+003;6.542192e-002
2.393328e+003;6.573845e-002
2.395257e+003;6.574257e-002
2.397185e+003;6.552332e-002
2.399114e+003;6.548499e-002
2.401042e+003;6.572352e-002
2.402971e+003;6.609146e-002
2.404899e+003;6.611944e-002
2.406828e+003;6.606238e-002
2.408756e+003;6.614965e-002
2.410685e+003;6.624276e-002
2.412614e+003;6.619823e-002
2.414542e+003;6.617635e-002
2.416471e+003;6.621459e-002
2.418399e+003;6.619283e-002
2.420328e+003;6.623269e-002
2.422256e+003;6.659716e-002
2.424185e+003;6.687396e-002
2.426113e+003;6.701796e-002
2.428042e+003;6.695676e-002
2.429970e+003;6.678237e-002
2.431899e+003;6.697211e-002
2.433828e+003;6.739315e-002
2.435756e+003;6.748649e-002
2.437685e+003;6.749625e-002
2.439613e+003;6.762511e-002
2.441542e+003;6.754339e-002
2.443470e+003;6.755001e-002
2.445399e+003;6.774481e-002
2.447327e+003;6.774527e-002
2.449256e+003;6.777447e-002
2.451185e+003;6.821754e-002
2.453113e+003;6.851070e-002
2.455042e+003;6.845817e-002
2.456970e+003;6.847912e-002
2.458899e+003;6.858578e-002
2.460827e+003;6.858383e-002
2.462756e+003;6.847209e-002
2.464684e+003;6.834193e-002
2.466613e+003;6.854522e-002
2.468542e+003;6.874295e-002
2.470470e+003;6.910980e-002
2.472398e+003;6.941336e-002
2.474327e+003;6.922407e-002
2.476256e+003;6.913898e-002
2.478184e+003;6.915779e-002
2.480113e+003;6.929263e-002
2.482041e+003;6.934300e-002
2.483970e+003;6.939501e-002
2.485898e+003;6.939058e-002
2.487827e+003;6.941243e-002
2.489755e+003;6.962141e-002
2.491684e+003;6.969924e-002
2.493613e+003;6.962486e-002
2.495541e+003;6.960440e-002
2.497470e+003;6.978589e-002
2.499398e+003;7.003295e-002
2.501327e+003;7.026747e-002
2.503255e+003;7.030443e-002
2.505184e+003;7.019019e-002
2.507112e+003;7.015459e-002
2.509041e+003;7.019327e-002
2.510969e+003;7.036050e-002
2.512898e+003;7.051228e-002
2.514827e+003;7.043422e-002
2.516755e+003;7.038344e-002
2.518684e+003;7.052510e-002
2.520612e+003;7.072650e-002
2.522541e+003;7.077938e-002
2.524469e+003;7.095019e-002
2.526398e+003;7.099006e-002
2.528326e+003;7.089736e-002
2.530255e+003;7.098807e-002
2.532184e+003;7.091952e-002
2.534112e+003;7.092697e-002
2.536041e+003;7.105371e-002
2.537969e+003;7.110487e-002
2.539898e+003;7.118750e-002
2.541826e+003;7.121249e-002
2.543755e+003;7.108649e-002
2.545683e+003;7.119562e-002
2.547612e+003;7.141670e-002
2.549541e+003;7.160046e-002
2.551469e+003;7.171609e-002
2.553397e+003;7.187773e-002
2.555326e+003;7.194459e-002
2.557255e+003;7.196356e-002
2.559183e+003;7.198960e-002
2.561112e+003;7.194561e-002
2.563040e+003;7.198823e-002
2.564969e+003;7.214438e-002
2.566897e+003;7.212944e-002
2.568826e+003;7.209955e-002
2.570754e+003;7.201588e-002
2.572683e+003;7.210745e-002
2.574612e+003;7.224780e-002
2.576540e+003;7.248852e-002
2.578469e+003;7.221281e-002
2.580397e+003;7.208426e-002
2.582326e+003;7.266329e-002
2.584254e+003;7.291118e-002
2.586183e+003;7.296170e-002
2.588111e+003;7.292909e-002
2.590040e+003;7.256432e-002
2.591969e+003;7.261950e-002
2.593897e+003;7.312980e-002
2.595826e+003;7.355820e-002
2.597754e+003;7.371981e-002
2.599683e+003;7.351985e-002
2.601611e+003;7.338651e-002
2.603540e+003;7.348512e-002
2.605468e+003;7.355796e-002
2.607397e+003;7.360192e-002
2.609325e+003;7.382938e-002
2.611254e+003;7.401416e-002
2.613183e+003;7.391240e-002
2.615111e+003;7.386610e-002
2.617040e+003;7.411683e-002
2.618968e+003;7.420873e-002
2.620897e+003;7.412167e-002
2.622825e+003;7.419403e-002
2.624754e+003;7.437024e-002
2.626682e+003;7.450840e-002
2.628611e+003;7.479497e-002
2.630540e+003;7.490212e-002
2.632468e+003;7.496769e-002
2.634396e+003;7.508402e-002
2.636325e+003;7.535233e-002
2.638254e+003;7.554037e-002
2.640182e+003;7.548178e-002
2.642111e+003;7.544819e-002
2.644039e+003;7.557771e-002
2.645968e+003;7.586187e-002
2.647896e+003;7.605321e-002
2.649825e+003;7.606217e-002
2.651753e+003;7.629972e-002
2.653682e+003;7.645221e-002
2.655611e+003;7.635009e-002
2.657539e+003;7.658543e-002
2.659468e+003;7.680128e-002
2.661396e+003;7.683533e-002
2.663325e+003;7.669820e-002
2.665253e+003;7.685328e-002
2.667182e+003;7.738934e-002
2.669110e+003;7.758130e-002
2.671039e+003;7.753219e-002
2.672968e+003;7.764006e-002
2.674896e+003;7.786365e-002
2.676825e+003;7.822917e-002
2.678753e+003;7.825266e-002
2.680682e+003;7.844020e-002
2.682610e+003;7.885190e-002
2.684539e+003;7.896912e-002
2.686467e+003;7.910188e-002
2.688396e+003;7.956915e-002
2.690324e+003;7.987255e-002
2.692253e+003;7.980597e-002
2.694182e+003;7.985470e-002
2.696110e+003;8.004251e-002
2.698039e+003;8.008447e-002
2.699967e+003;7.991624e-002
2.701896e+003;8.002944e-002
2.703824e+003;8.054171e-002
2.705753e+003;8.074781e-002
2.707681e+003;8.067172e-002
2.709610e+003;8.064507e-002
2.711539e+003;8.063565e-002
2.713467e+003;8.106676e-002
2.715396e+003;8.138615e-002
2.717324e+003;8.138803e-002
2.719253e+003;8.131738e-002
2.721181e+003;8.126137e-002
2.723110e+003;8.159281e-002
2.725038e+003;8.195549e-002
2.726967e+003;8.213955e-002
2.728896e+003;8.221041e-002
2.730824e+003;8.243590e-002
2.732752e+003;8.244972e-002
2.734681e+003;8.231605e-002
2.736610e+003;8.238234e-002
2.738538e+003;8.248373e-002
2.740467e+003;8.269059e-002
2.742395e+003;8.312459e-002
2.744324e+003;8.330245e-002
2.746252e+003;8.305414e-002
2.748181e+003;8.270141e-002
2.750109e+003;8.280027e-002
2.752038e+003;8.303163e-002
2.753967e+003;8.329057e-002
2.755895e+003;8.354998e-002
2.757824e+003;8.378954e-002
2.759752e+003;8.408613e-002
2.761681e+003;8.416817e-002
2.763609e+003;8.446236e-002
2.765538e+003;8.488299e-002
2.767466e+003;8.484331e-002
2.769395e+003;8.479010e-002
2.771323e+003;8.502490e-002
2.773252e+003;8.518085e-002
2.775181e+003;8.561686e-002
2.777109e+003;8.617181e-002
2.779038e+003;8.646529e-002
2.780966e+003;8.639801e-002
2.782895e+003;8.662891e-002
2.784823e+003;8.706197e-002
2.786752e+003;8.744184e-002
2.788680e+003;8.795246e-002
2.790609e+003;8.823133e-002
2.792538e+003;8.843709e-002
2.794466e+003;8.882296e-002
2.796395e+003;8.901358e-002
2.798323e+003;8.919095e-002
2.800252e+003;8.970400e-002
2.802180e+003;9.038633e-002
2.804109e+003;9.084247e-002
2.806037e+003;9.087241e-002
2.807966e+003;9.084688e-002
2.809895e+003;9.123069e-002
2.811823e+003;9.184690e-002
2.813751e+003;9.231421e-002
2.815680e+003;9.295633e-002
2.817609e+003;9.351458e-002
2.819537e+003;9.401108e-002
2.821466e+003;9.450185e-002
2.823394e+003;9.465325e-002
2.825323e+003;9.467113e-002
2.827251e+003;9.497903e-002
2.829180e+003;9.573878e-002
2.831108e+003;9.645917e-002
2.833037e+003;9.711839e-002
2.834966e+003;9.783021e-002
2.836894e+003;9.884503e-002
2.838823e+003;9.991787e-002
2.840751e+003;1.006048e-001
2.842680e+003;1.013046e-001
2.844608e+003;1.021037e-001
2.846537e+003;1.025533e-001
2.848465e+003;1.030001e-001
2.850394e+003;1.039011e-001
2.852323e+003;1.050411e-001
2.854251e+003;1.063665e-001
2.856180e+003;1.078512e-001
2.858108e+003;1.095620e-001
2.860037e+003;1.112486e-001
2.861965e+003;1.130682e-001
2.863894e+003;1.146742e-001
2.865822e+003;1.162010e-001
2.867751e+003;1.177691e-001
2.869679e+003;1.191665e-001
2.871608e+003;1.203802e-001
2.873536e+003;1.214375e-001
2.875465e+003;1.219876e-001
2.877394e+003;1.227248e-001
2.879322e+003;1.234559e-001
2.881251e+003;1.240037e-001
2.883179e+003;1.246074e-001
2.885108e+003;1.251233e-001
2.887036e+003;1.258638e-001
2.888965e+003;1.263563e-001
2.890893e+003;1.262938e-001
2.892822e+003;1.262427e-001
2.894750e+003;1.264504e-001
2.896679e+003;1.259758e-001
2.898608e+003;1.251955e-001
2.900536e+003;1.246923e-001
2.902465e+003;1.239880e-001
2.904393e+003;1.231399e-001
2.906322e+003;1.223659e-001
2.908250e+003;1.213629e-001
2.910179e+003;1.202750e-001
2.912107e+003;1.187972e-001
2.914036e+003;1.173530e-001
2.915965e+003;1.161523e-001
2.917893e+003;1.146073e-001
2.919822e+003;1.133235e-001
2.921750e+003;1.126913e-001
2.923679e+003;1.119253e-001
2.925607e+003;1.107975e-001
2.927536e+003;1.098527e-001
2.929464e+003;1.088851e-001
2.931393e+003;1.074416e-001
2.933322e+003;1.064424e-001
2.935250e+003;1.057037e-001
2.937178e+003;1.044957e-001
2.939107e+003;1.030054e-001
2.941036e+003;1.015902e-001
2.942964e+003;1.007189e-001
2.944893e+003;9.991020e-002
2.946821e+003;9.871742e-002
2.948750e+003;9.745118e-002
2.950678e+003;9.631182e-002
2.952607e+003;9.534568e-002
2.954535e+003;9.439334e-002
2.956464e+003;9.336596e-002
2.958393e+003;9.279949e-002
2.960321e+003;9.217817e-002
2.962250e+003;9.092948e-002
2.964178e+003;8.980271e-002
2.966107e+003;8.911743e-002
2.968035e+003;8.918066e-002
2.969964e+003;8.911479e-002
2.971892e+003;8.858321e-002
2.973821e+003;8.826531e-002
2.975750e+003;8.816106e-002
2.977678e+003;8.799868e-002
2.979607e+003;8.783072e-002
2.981535e+003;8.776551e-002
2.983464e+003;8.769783e-002
2.985392e+003;8.745420e-002
2.987321e+003;8.697461e-002
2.989249e+003;8.661379e-002
2.991178e+003;8.677010e-002
2.993106e+003;8.677047e-002
2.995035e+003;8.656841e-002
2.996964e+003;8.680725e-002
2.998892e+003;8.684885e-002
3.000821e+003;8.685865e-002
3.002749e+003;8.697898e-002
3.004678e+003;8.691789e-002
3.006606e+003;8.719718e-002
3.008535e+003;8.761115e-002
3.010463e+003;8.774263e-002
3.012392e+003;8.803995e-002
3.014321e+003;8.851109e-002
3.016249e+003;8.883768e-002
3.018177e+003;8.912752e-002
3.020106e+003;8.919721e-002
3.022035e+003;8.940925e-002
3.023963e+003;9.000563e-002
3.025892e+003;9.062888e-002
3.027820e+003;9.101960e-002
3.029749e+003;9.160887e-002
3.031677e+003;9.225187e-002
3.033606e+003;9.277541e-002
3.035534e+003;9.315538e-002
3.037463e+003;9.376089e-002
3.039392e+003;9.412127e-002
3.041320e+003;9.420124e-002
3.043249e+003;9.463231e-002
3.045177e+003;9.518410e-002
3.047106e+003;9.568537e-002
3.049034e+003;9.623770e-002
3.050963e+003;9.686172e-002
3.052891e+003;9.740967e-002
3.054820e+003;9.795939e-002
3.056749e+003;9.862602e-002
3.058677e+003;9.907212e-002
3.060606e+003;9.928029e-002
3.062534e+003;9.974921e-002
3.064463e+003;1.004753e-001
3.066391e+003;1.008885e-001
3.068320e+003;1.011526e-001
3.070248e+003;1.020729e-001
3.072177e+003;1.030361e-001
3.074105e+003;1.036091e-001
3.076034e+003;1.043000e-001
3.077963e+003;1.049951e-001
3.079891e+003;1.049842e-001
3.081820e+003;1.052984e-001
3.083748e+003;1.064853e-001
3.085677e+003;1.075507e-001
3.087605e+003;1.085218e-001
3.089534e+003;1.090451e-001
3.091462e+003;1.096612e-001
3.093391e+003;1.107316e-001
3.095320e+003;1.110762e-001
3.097248e+003;1.116238e-001
3.099177e+003;1.125327e-001
3.101105e+003;1.130696e-001
3.103034e+003;1.139112e-001
3.104962e+003;1.145867e-001
3.106891e+003;1.149638e-001
3.108819e+003;1.156502e-001
3.110748e+003;1.163048e-001
3.112677e+003;1.169603e-001
3.114605e+003;1.176677e-001
3.116533e+003;1.188092e-001
3.118462e+003;1.196177e-001
3.120391e+003;1.197147e-001
3.122319e+003;1.202962e-001
3.124248e+003;1.210449e-001
3.126176e+003;1.219674e-001
3.128105e+003;1.228685e-001
3.130033e+003;1.234833e-001
3.131962e+003;1.240160e-001
3.133890e+003;1.248896e-001
3.135819e+003;1.256958e-001
3.137748e+003;1.262022e-001
3.139676e+003;1.269495e-001
3.141605e+003;1.276274e-001
3.143533e+003;1.279398e-001
3.145462e+003;1.290213e-001
3.147390e+003;1.299522e-001
3.149319e+003;1.302803e-001
3.151247e+003;1.309153e-001
3.153176e+003;1.312932e-001
3.155104e+003;1.315834e-001
3.157033e+003;1.323751e-001
3.158962e+003;1.333009e-001
3.160890e+003;1.339364e-001
3.162819e+003;1.340188e-001
3.164747e+003;1.343499e-001
3.166676e+003;1.352927e-001
3.168604e+003;1.358171e-001
3.170533e+003;1.361267e-001
3.172461e+003;1.368149e-001
3.174390e+003;1.378937e-001
3.176319e+003;1.386016e-001
3.178247e+003;1.389935e-001
3.180176e+003;1.392808e-001
3.182104e+003;1.399597e-001
3.184033e+003;1.406071e-001
3.185961e+003;1.410914e-001
3.187890e+003;1.417046e-001
3.189818e+003;1.420023e-001
3.191747e+003;1.421893e-001
3.193676e+003;1.425880e-001
3.195604e+003;1.433923e-001
3.197532e+003;1.445680e-001
3.199461e+003;1.451764e-001
3.201390e+003;1.455349e-001
3.203318e+003;1.464147e-001
3.205247e+003;1.470098e-001
3.207175e+003;1.470480e-001
3.209104e+003;1.470757e-001
3.211032e+003;1.475606e-001
3.212961e+003;1.482039e-001
3.214889e+003;1.488085e-001
3.216818e+003;1.494135e-001
3.218747e+003;1.502185e-001
3.220675e+003;1.507798e-001
3.222604e+003;1.513191e-001
3.224532e+003;1.517102e-001
3.226461e+003;1.519310e-001
3.228389e+003;1.526039e-001
3.230318e+003;1.532953e-001
3.232246e+003;1.536330e-001
3.234175e+003;1.539625e-001
3.236104e+003;1.544130e-001
3.238032e+003;1.552322e-001
3.239961e+003;1.559576e-001
3.241889e+003;1.559841e-001
3.243818e+003;1.560432e-001
3.245746e+003;1.564989e-001
3.247675e+003;1.572171e-001
3.249603e+003;1.576987e-001
3.251532e+003;1.579816e-001
3.253460e+003;1.584582e-001
3.255389e+003;1.589509e-001
3.257318e+003;1.596229e-001
3.259246e+003;1.602490e-001
3.261175e+003;1.604439e-001
3.263103e+003;1.606329e-001
3.265032e+003;1.610421e-001
3.266960e+003;1.613954e-001
3.268889e+003;1.621635e-001
3.270817e+003;1.628779e-001
3.272746e+003;1.630390e-001
3.274675e+003;1.632101e-001
3.276603e+003;1.633174e-001
3.278531e+003;1.635978e-001
3.280460e+003;1.641806e-001
3.282389e+003;1.644363e-001
3.284317e+003;1.643897e-001
3.286246e+003;1.648817e-001
3.288174e+003;1.656624e-001
3.290103e+003;1.658432e-001
3.292031e+003;1.661544e-001
3.293960e+003;1.664908e-001
3.295888e+003;1.664735e-001
3.297817e+003;1.665071e-001
3.299746e+003;1.665512e-001
3.301674e+003;1.666073e-001
3.303603e+003;1.668464e-001
3.305531e+003;1.670701e-001
3.307460e+003;1.671024e-001
3.309388e+003;1.671875e-001
3.311317e+003;1.674980e-001
3.313245e+003;1.683998e-001
3.315174e+003;1.686108e-001
3.317103e+003;1.684678e-001
3.319031e+003;1.685838e-001
3.320960e+003;1.684785e-001
3.322888e+003;1.686919e-001
3.324817e+003;1.690244e-001
3.326745e+003;1.690764e-001
3.328674e+003;1.689751e-001
3.330602e+003;1.690635e-001
3.332531e+003;1.691854e-001
3.334459e+003;1.691661e-001
3.336388e+003;1.689887e-001
3.338317e+003;1.687126e-001
3.340245e+003;1.688294e-001
3.342174e+003;1.690349e-001
3.344102e+003;1.690936e-001
3.346031e+003;1.685762e-001
3.347959e+003;1.680311e-001
3.349888e+003;1.677911e-001
3.351816e+003;1.676373e-001
3.353745e+003;1.674299e-001
3.355674e+003;1.672453e-001
3.357602e+003;1.673583e-001
3.359531e+003;1.673413e-001
3.361459e+003;1.669824e-001
3.363388e+003;1.664465e-001
3.365316e+003;1.658186e-001
3.367245e+003;1.649674e-001
3.369173e+003;1.647576e-001
3.371102e+003;1.648725e-001
3.373031e+003;1.642966e-001
3.374959e+003;1.635112e-001
3.376887e+003;1.631876e-001
3.378816e+003;1.630071e-001
3.380745e+003;1.630313e-001
3.382673e+003;1.626932e-001
3.384602e+003;1.621867e-001
3.386530e+003;1.616208e-001
3.388459e+003;1.613706e-001
3.390387e+003;1.606278e-001
3.392316e+003;1.605464e-001
3.394244e+003;1.605231e-001
3.396173e+003;1.596863e-001
3.398102e+003;1.593075e-001
3.400030e+003;1.589809e-001
3.401959e+003;1.587172e-001
3.403887e+003;1.586303e-001
3.405816e+003;1.580887e-001
3.407744e+003;1.569786e-001
3.409673e+003;1.560778e-001
3.411601e+003;1.555638e-001
3.413530e+003;1.551520e-001
3.415458e+003;1.546798e-001
3.417387e+003;1.545576e-001
3.419316e+003;1.539854e-001
3.421244e+003;1.531573e-001
3.423173e+003;1.532570e-001
3.425101e+003;1.529024e-001
3.427030e+003;1.522966e-001
3.428958e+003;1.520472e-001
3.430887e+003;1.515656e-001
3.432815e+003;1.511414e-001
3.434744e+003;1.507071e-001
3.436673e+003;1.502070e-001
3.438601e+003;1.495795e-001
3.440530e+003;1.493801e-001
3.442458e+003;1.486846e-001
3.444387e+003;1.471676e-001
3.446315e+003;1.459858e-001
3.448244e+003;1.449037e-001
3.450172e+003;1.434621e-001
3.452101e+003;1.420612e-001
3.454030e+003;1.406997e-001
3.455958e+003;1.392375e-001
3.457886e+003;1.376370e-001
3.459815e+003;1.363940e-001
3.461744e+003;1.352462e-001
3.463672e+003;1.339206e-001
3.465601e+003;1.325710e-001
3.467529e+003;1.316948e-001
3.469458e+003;1.307459e-001
3.471386e+003;1.298461e-001
3.473315e+003;1.290646e-001
3.475243e+003;1.279042e-001
3.477172e+003;1.266594e-001
3.479101e+003;1.258679e-001
3.481029e+003;1.250573e-001
3.482958e+003;1.240865e-001
3.484886e+003;1.234178e-001
3.486815e+003;1.225211e-001
3.488743e+003;1.209181e-001
3.490672e+003;1.190565e-001
3.492600e+003;1.173079e-001
3.494529e+003;1.156875e-001
3.496458e+003;1.139534e-001
3.498386e+003;1.122898e-001
3.500315e+003;1.110868e-001
3.502243e+003;1.099145e-001
3.504172e+003;1.084069e-001
3.506100e+003;1.067245e-001
3.508029e+003;1.053270e-001
3.509957e+003;1.036926e-001
3.511886e+003;1.022400e-001
3.513814e+003;1.011715e-001
3.515743e+003;9.983747e-002
3.517672e+003;9.859990e-002
3.519600e+003;9.746213e-002
3.521529e+003;9.593093e-002
3.523457e+003;9.480848e-002
3.525386e+003;9.383507e-002
3.527314e+003;9.250174e-002
3.529243e+003;9.114036e-002
3.531171e+003;9.007612e-002
3.533100e+003;8.925259e-002
3.535029e+003;8.875841e-002
3.536957e+003;8.778413e-002
3.538885e+003;8.651794e-002
3.540814e+003;8.559023e-002
3.542743e+003;8.482965e-002
3.544671e+003;8.374137e-002
3.546600e+003;8.233900e-002
3.548528e+003;8.169514e-002
3.550457e+003;8.129489e-002
3.552385e+003;8.033480e-002
3.554314e+003;7.930844e-002
3.556242e+003;7.840297e-002
3.558171e+003;7.761335e-002
3.560100e+003;7.670081e-002
3.562028e+003;7.566920e-002
3.563957e+003;7.503191e-002
3.565885e+003;7.461383e-002
3.567814e+003;7.361636e-002
3.569742e+003;7.258249e-002
3.571671e+003;7.195061e-002
3.573599e+003;7.121603e-002
3.575528e+003;7.044174e-002
3.577457e+003;6.961857e-002
3.579385e+003;6.867398e-002
3.581314e+003;6.809966e-002
3.583242e+003;6.772707e-002
3.585171e+003;6.711006e-002
3.587099e+003;6.617859e-002
3.589028e+003;6.529471e-002
3.590956e+003;6.444432e-002
3.592885e+003;6.367083e-002
3.594813e+003;6.317995e-002
3.596742e+003;6.289963e-002
3.598671e+003;6.232554e-002
3.600599e+003;6.208026e-002
3.602528e+003;6.199425e-002
3.604456e+003;6.082796e-002
3.606385e+003;5.974800e-002
3.608313e+003;5.936530e-002
3.610242e+003;5.871847e-002
3.612170e+003;5.866408e-002
3.614099e+003;5.849823e-002
3.616028e+003;5.775216e-002
3.617956e+003;5.752752e-002
3.619885e+003;5.739829e-002
3.621813e+003;5.683425e-002
3.623742e+003;5.608995e-002
3.625670e+003;5.568303e-002
3.627599e+003;5.538094e-002
3.629527e+003;5.493738e-002
3.631456e+003;5.466590e-002
3.633385e+003;5.413817e-002
3.635313e+003;5.386768e-002
3.637241e+003;5.399639e-002
3.639170e+003;5.400243e-002
3.641099e+003;5.367402e-002
3.643027e+003;5.316150e-002
3.644956e+003;5.279346e-002
3.646884e+003;5.213901e-002
3.648813e+003;5.154598e-002
3.650741e+003;5.158993e-002
3.652670e+003;5.177419e-002
3.654598e+003;5.166370e-002
3.656527e+003;5.103666e-002
3.658456e+003;5.035345e-002
3.660384e+003;5.009530e-002
3.662313e+003;4.995722e-002
3.664241e+003;4.983814e-002
3.666170e+003;4.993157e-002
3.668098e+003;4.962688e-002
3.670027e+003;4.909981e-002
3.671955e+003;4.928583e-002
3.673884e+003;4.934363e-002
3.675813e+003;4.867597e-002
3.677741e+003;4.850487e-002
3.679669e+003;4.860392e-002
3.681598e+003;4.862115e-002
3.683527e+003;4.856431e-002
3.685455e+003;4.844101e-002
3.687384e+003;4.812551e-002
3.689312e+003;4.815253e-002
3.691241e+003;4.813239e-002
3.693169e+003;4.789355e-002
3.695098e+003;4.849917e-002
3.697026e+003;4.893553e-002
3.698955e+003;4.877772e-002
3.700884e+003;4.850591e-002
3.702812e+003;4.830915e-002
3.704741e+003;4.790239e-002
3.706669e+003;4.766781e-002
3.708598e+003;4.758684e-002
3.710526e+003;4.711483e-002
3.712455e+003;4.665683e-002
3.714383e+003;4.690792e-002
3.716312e+003;4.718508e-002
3.718240e+003;4.750799e-002
3.720169e+003;4.748392e-002
3.722098e+003;4.708791e-002
3.724026e+003;4.745062e-002
3.725955e+003;4.779759e-002
3.727883e+003;4.738277e-002
3.729812e+003;4.683941e-002
3.731740e+003;4.660194e-002
3.733669e+003;4.682653e-002
3.735597e+003;4.685111e-002
3.737526e+003;4.699046e-002
3.739455e+003;4.688138e-002
3.741383e+003;4.661120e-002
3.743312e+003;4.639892e-002
3.745240e+003;4.638082e-002
3.747169e+003;4.668520e-002
3.749097e+003;4.690094e-002
3.751026e+003;4.709780e-002
3.752954e+003;4.713832e-002
3.754883e+003;4.732960e-002
3.756812e+003;4.756070e-002
3.758740e+003;4.715667e-002
3.760668e+003;4.674763e-002
3.762597e+003;4.696887e-002
3.764526e+003;4.704574e-002
3.766454e+003;4.694982e-002
3.768383e+003;4.679859e-002
3.770311e+003;4.689212e-002
3.772240e+003;4.738322e-002
3.774168e+003;4.745846e-002
3.776097e+003;4.737494e-002
3.778025e+003;4.729601e-002
3.779954e+003;4.686200e-002
3.781883e+003;4.656963e-002
3.783811e+003;4.684189e-002
3.785740e+003;4.702506e-002
3.787668e+003;4.701498e-002
3.789597e+003;4.713499e-002
3.791525e+003;4.694904e-002
3.793454e+003;4.664130e-002
3.795382e+003;4.682074e-002
3.797311e+003;4.701173e-002
3.799240e+003;4.704581e-002
3.801168e+003;4.675944e-002
3.803097e+003;4.677671e-002
3.805025e+003;4.723816e-002
3.806954e+003;4.717957e-002
3.808882e+003;4.696488e-002
3.810811e+003;4.697994e-002
3.812739e+003;4.689075e-002
3.814668e+003;4.693417e-002
3.816596e+003;4.677701e-002
3.818525e+003;4.631782e-002
3.820454e+003;4.619224e-002
3.822382e+003;4.656963e-002
3.824311e+003;4.695749e-002
3.826239e+003;4.716387e-002
3.828168e+003;4.761786e-002
3.830096e+003;4.761354e-002
3.832025e+003;4.721175e-002
3.833953e+003;4.722427e-002
3.835882e+003;4.733595e-002
3.837811e+003;4.729317e-002
3.839739e+003;4.730082e-002
3.841667e+003;4.753749e-002
3.843596e+003;4.734597e-002
3.845525e+003;4.732405e-002
3.847453e+003;4.760843e-002
3.849382e+003;4.764811e-002
3.851310e+003;4.727916e-002
3.853239e+003;4.713171e-002
3.855167e+003;4.739094e-002
3.857096e+003;4.790520e-002
3.859024e+003;4.797228e-002
3.860953e+003;4.784742e-002
3.862882e+003;4.779259e-002
3.864810e+003;4.777414e-002
3.866739e+003;4.792248e-002
3.868667e+003;4.769388e-002
3.870596e+003;4.787327e-002
3.872524e+003;4.801658e-002
3.874453e+003;4.782341e-002
3.876381e+003;4.816704e-002
3.878310e+003;4.867570e-002
3.880239e+003;4.847268e-002
3.882167e+003;4.840952e-002
3.884096e+003;4.840804e-002
3.886024e+003;4.802557e-002
3.887953e+003;4.785359e-002
3.889881e+003;4.843549e-002
3.891810e+003;4.883566e-002
3.893738e+003;4.873531e-002
3.895667e+003;4.862022e-002
3.897595e+003;4.862964e-002
3.899524e+003;4.884438e-002
3.901453e+003;4.886481e-002
3.903381e+003;4.872204e-002
3.905310e+003;4.859680e-002
3.907238e+003;4.875384e-002
3.909167e+003;4.903200e-002
3.911095e+003;4.937251e-002
3.913024e+003;5.003793e-002
3.914952e+003;5.006738e-002
3.916881e+003;4.930795e-002
3.918810e+003;4.915910e-002
3.920738e+003;4.954665e-002
3.922667e+003;4.979637e-002
3.924595e+003;4.961614e-002
3.926524e+003;4.911135e-002
3.928452e+003;4.891190e-002
3.930381e+003;4.906731e-002
3.932309e+003;4.968631e-002
3.934238e+003;4.996506e-002
3.936167e+003;5.023016e-002
3.938095e+003;5.033388e-002
3.940023e+003;4.990344e-002
3.941952e+003;4.986601e-002
3.943881e+003;4.997016e-002
3.945809e+003;5.010189e-002
3.947738e+003;5.018263e-002
3.949666e+003;5.000339e-002
3.951595e+003;4.986281e-002
3.953523e+003;4.961310e-002
3.955452e+003;4.962387e-002
3.957380e+003;4.960953e-002
3.959309e+003;4.981376e-002
3.961238e+003;5.012108e-002
3.963166e+003;4.984085e-002
3.965095e+003;4.972001e-002
3.967023e+003;4.971860e-002
3.968952e+003;4.965425e-002
3.970880e+003;4.984743e-002
3.972809e+003;4.995283e-002
3.974737e+003;4.944598e-002
3.976666e+003;4.929923e-002
3.978594e+003;4.961841e-002
3.980523e+003;4.956244e-002
3.982452e+003;4.913866e-002
3.984380e+003;4.914226e-002
3.986309e+003;4.935469e-002
3.988237e+003;4.937154e-002
3.990166e+003;4.917546e-002
3.992094e+003;4.933877e-002
3.994023e+003;4.930057e-002
3.995951e+003;4.918359e-002
3.997880e+003;4.902736e-002
3.999809e+003;4.932904e-002
4.001737e+003;0.000000e+000
