3.992094e+002;0.000000e+000
4.011380e+002;0.000000e+000
4.030665e+002;0.000000e+000
4.049951e+002;0.000000e+000
4.069236e+002;0.000000e+000
4.088522e+002;0.000000e+000
4.107807e+002;0.000000e+000
4.127093e+002;0.000000e+000
4.146378e+002;0.000000e+000
4.165664e+002;0.000000e+000
4.184949e+002;0.000000e+000
4.204235e+002;0.000000e+000
4.223520e+002;0.000000e+000
4.242806e+002;0.000000e+000
4.262091e+002;0.000000e+000
4.281377e+002;0.000000e+000
4.300662e+002;0.000000e+000
4.319948e+002;0.000000e+000
4.339233e+002;0.000000e+000
4.358519e+002;0.000000e+000
4.377804e+002;0.000000e+000
4.397090e+002;0.000000e+000
4.416375e+002;0.000000e+000
4.435660e+002;0.000000e+000
4.454946e+002;0.000000e+000
4.474232e+002;0.000000e+000
4.493517e+002;0.000000e+000
4.512802e+002;0.000000e+000
4.532088e+002;0.000000e+000
4.551373e+002;0.000000e+000
4.570659e+002;0.000000e+000
4.589944e+002;0.000000e+000
4.609230e+002;0.000000e+000
4.628515e+002;0.000000e+000
4.647801e+002;0.000000e+000
4.667086e+002;0.000000e+000
4.686372e+002;0.000000e+000
4.705657e+002;0.000000e+000
4.724943e+002;0.000000e+000
4.744228e+002;0.000000e+000
4.763513e+002;0.000000e+000
4.782799e+002;0.000000e+000
4.802085e+002;0.000000e+000
4.821370e+002;0.000000e+000
4.840656e+002;0.000000e+000
4.859941e+002;0.000000e+000
4.879226e+002;0.000000e+000
4.898512e+002;0.000000e+000
4.917798e+002;0.000000e+000
4.937083e+002;0.000000e+000
4.956368e+002;0.000000e+000
4.975654e+002;0.000000e+000
4.994939e+002;0.000000e+000
5.014225e+002;0.000000e+000
5.033510e+002;0.000000e+000
5.052796e+002;0.000000e+000
5.072081e+002;0.000000e+000
5.091367e+002;0.000000e+000
5.110652e+002;0.000000e+000
5.129938e+002;0.000000e+000
5.149223e+002;0.000000e+000
5.168509e+002;0.000000e+000
5.187794e+002;0.000000e+000
5.207079e+002;0.000000e+000
5.226365e+002;0.000000e+000
5.245651e+002;0.000000e+000
5.264936e+002;0.000000e+000
5.284222e+002;0.000000e+000
5.303507e+002;0.000000e+000
5.322792e+002;0.000000e+000
5.342078e+002;0.000000e+000
5.361364e+002;0.000000e+000
5.380649e+002;0.000000e+000
5.399935e+002;0.000000e+000
5.419220e+002;0.000000e+000
5.438505e+002;0.000000e+000
5.457791e+002;0.000000e+000
5.477076e+002;0.000000e+000
5.496362e+002;0.000000e+000
5.515648e+002;0.000000e+000
5.534933e+002;0.000000e+000
5.554218e+002;0.000000e+000
5.573504e+002;0.000000e+000
5.592789e+002;0.000000e+000
5.612075e+002;0.000000e+000
5.631360e+002;0.000000e+000
5.650646e+002;0.000000e+000
5.669931e+002;0.000000e+000
5.689217e+002;0.000000e+000
5.708502e+002;0.000000e+000
5.727787e+002;0.000000e+000
5.747073e+002;0.000000e+000
5.766359e+002;0.000000e+000
5.785644e+002;0.000000e+000
5.804930e+002;0.000000e+000
5.824215e+002;0.000000e+000
5.843500e+002;0.000000e+000
5.862786e+002;0.000000e+000
5.882072e+002;0.000000e+000
5.901357e+002;0.000000e+000
5.920643e+002;0.000000e+000
5.939928e+002;0.000000e+000
5.959213e+002;0.000000e+000
5.978499e+002;0.000000e+000
5.997784e+002;2.930190e-001
6.017070e+002;2.895696e-001
6.036355e+002;2.936519e-001
6.055641e+002;2.928709e-001
6.074926e+002;2.882823e-001
6.094211e+002;2.934830e-001
6.113497e+002;2.923624e-001
6.132783e+002;2.859565e-001
6.152068e+002;2.855539e-001
6.171354e+002;2.831566e-001
6.190639e+002;2.786466e-001
6.209924e+002;2.715061e-001
6.229210e+002;2.637166e-001
6.248495e+002;2.608238e-001
6.267781e+002;2.600923e-001
6.287067e+002;2.636801e-001
6.306352e+002;2.658952e-001
6.325637e+002;2.634775e-001
6.344923e+002;2.581581e-001
6.364208e+002;2.529981e-001
6.383494e+002;2.525679e-001
6.402780e+002;2.561975e-001
6.422065e+002;2.546677e-001
6.441350e+002;2.529097e-001
6.460636e+002;2.537691e-001
6.479921e+002;2.539611e-001
6.499207e+002;2.537031e-001
6.518492e+002;2.525039e-001
6.537778e+002;2.518739e-001
6.557063e+002;2.548123e-001
6.576349e+002;2.548732e-001
6.595634e+002;2.554492e-001
6.614919e+002;2.583272e-001
6.634205e+002;2.608948e-001
6.653491e+002;2.608426e-001
6.672776e+002;2.610157e-001
6.692062e+002;2.599937e-001
6.711347e+002;2.535387e-001
6.730632e+002;2.437754e-001
6.749918e+002;2.359282e-001
6.769203e+002;2.291148e-001
6.788489e+002;2.222939e-001
6.807775e+002;2.140849e-001
6.827060e+002;2.076383e-001
6.846345e+002;2.041972e-001
6.865631e+002;2.039842e-001
6.884916e+002;2.027677e-001
6.904202e+002;2.002790e-001
6.923488e+002;1.996998e-001
6.942773e+002;1.991903e-001
6.962058e+002;1.978354e-001
6.981344e+002;1.975547e-001
7.000629e+002;1.981862e-001
7.019915e+002;1.976604e-001
7.039200e+002;1.964554e-001
7.058486e+002;1.944826e-001
7.077771e+002;1.931302e-001
7.097057e+002;1.932393e-001
7.116342e+002;1.927366e-001
7.135627e+002;1.913014e-001
7.154913e+002;1.898072e-001
7.174199e+002;1.882928e-001
7.193484e+002;1.871942e-001
7.212770e+002;1.857709e-001
7.232055e+002;1.841146e-001
7.251340e+002;1.824512e-001
7.270626e+002;1.807220e-001
7.289911e+002;1.791531e-001
7.309197e+002;1.775149e-001
7.328483e+002;1.762912e-001
7.347768e+002;1.756639e-001
7.367053e+002;1.737990e-001
7.386339e+002;1.713173e-001
7.405624e+002;1.700640e-001
7.424910e+002;1.689035e-001
7.444196e+002;1.678790e-001
7.463481e+002;1.676657e-001
7.482766e+002;1.658352e-001
7.502052e+002;1.641522e-001
7.521337e+002;1.627356e-001
7.540623e+002;1.609144e-001
7.559908e+002;1.595513e-001
7.579194e+002;1.580707e-001
7.598479e+002;1.571231e-001
7.617765e+002;1.561967e-001
7.637050e+002;1.552432e-001
7.656335e+002;1.539395e-001
7.675621e+002;1.530571e-001
7.694907e+002;1.520043e-001
7.714192e+002;1.502644e-001
7.733478e+002;1.485294e-001
7.752763e+002;1.470683e-001
7.772048e+002;1.457888e-001
7.791334e+002;1.452433e-001
7.810620e+002;1.451175e-001
7.829905e+002;1.443452e-001
7.849191e+002;1.435344e-001
7.868476e+002;1.424168e-001
7.887761e+002;1.404835e-001
7.907047e+002;1.383925e-001
7.926332e+002;1.372272e-001
7.945618e+002;1.368967e-001
7.964903e+002;1.358878e-001
7.984189e+002;1.347319e-001
8.003474e+002;1.341170e-001
8.022759e+002;1.337417e-001
8.042045e+002;1.333442e-001
8.061331e+002;1.327709e-001
8.080616e+002;1.318895e-001
8.099902e+002;1.315844e-001
8.119187e+002;1.308961e-001
8.138472e+002;1.296098e-001
8.157758e+002;1.289169e-001
8.177043e+002;1.293142e-001
8.196329e+002;1.298122e-001
8.215615e+002;1.297931e-001
8.234900e+002;1.288520e-001
8.254185e+002;1.283860e-001
8.273471e+002;1.288240e-001
8.292756e+002;1.288965e-001
8.312042e+002;1.284285e-001
8.331328e+002;1.280711e-001
8.350613e+002;1.279895e-001
8.369898e+002;1.269808e-001
8.389184e+002;1.257037e-001
8.408469e+002;1.247916e-001
8.427755e+002;1.241812e-001
8.447040e+002;1.238793e-001
8.466326e+002;1.234957e-001
8.485611e+002;1.234145e-001
8.504897e+002;1.233063e-001
8.524182e+002;1.228732e-001
8.543467e+002;1.223302e-001
8.562753e+002;1.224647e-001
8.582039e+002;1.230959e-001
8.601324e+002;1.241488e-001
8.620610e+002;1.253418e-001
8.639895e+002;1.257425e-001
8.659180e+002;1.262400e-001
8.678466e+002;1.282384e-001
8.697751e+002;1.310504e-001
8.717037e+002;1.338765e-001
8.736323e+002;1.374126e-001
8.755608e+002;1.417942e-001
8.774893e+002;1.467425e-001
8.794179e+002;1.525855e-001
8.813464e+002;1.587391e-001
8.832750e+002;1.651831e-001
8.852036e+002;1.721100e-001
8.871321e+002;1.790463e-001
8.890606e+002;1.859770e-001
8.909892e+002;1.919373e-001
8.929177e+002;1.953686e-001
8.948463e+002;1.967484e-001
8.967748e+002;1.962178e-001
8.987034e+002;1.932718e-001
9.006319e+002;1.895431e-001
9.025605e+002;1.860086e-001
9.044890e+002;1.817953e-001
9.064175e+002;1.774787e-001
9.083461e+002;1.734741e-001
9.102747e+002;1.697702e-001
9.122032e+002;1.671149e-001
9.141318e+002;1.654194e-001
9.160603e+002;1.641253e-001
9.179888e+002;1.634028e-001
9.199174e+002;1.639216e-001
9.218459e+002;1.652910e-001
9.237745e+002;1.666125e-001
9.257031e+002;1.679334e-001
9.276316e+002;1.693427e-001
9.295601e+002;1.711165e-001
9.314887e+002;1.727742e-001
9.334172e+002;1.748950e-001
9.353458e+002;1.770589e-001
9.372744e+002;1.788267e-001
9.392029e+002;1.810835e-001
9.411314e+002;1.842740e-001
9.430600e+002;1.883113e-001
9.449885e+002;1.925372e-001
9.469171e+002;1.965911e-001
9.488456e+002;2.016010e-001
9.507742e+002;2.078998e-001
9.527027e+002;2.142260e-001
9.546313e+002;2.203099e-001
9.565598e+002;2.267832e-001
9.584883e+002;2.338867e-001
9.604169e+002;2.412118e-001
9.623455e+002;2.484463e-001
9.642740e+002;2.553230e-001
9.662026e+002;2.621793e-001
9.681311e+002;2.699755e-001
9.700596e+002;2.785137e-001
9.719882e+002;2.877868e-001
9.739167e+002;2.982712e-001
9.758453e+002;3.105025e-001
9.777739e+002;3.250657e-001
9.797024e+002;3.414149e-001
9.816309e+002;3.591667e-001
9.835595e+002;3.783499e-001
9.854880e+002;3.981818e-001
9.874166e+002;4.166009e-001
9.893452e+002;4.317708e-001
9.912737e+002;4.444888e-001
9.932022e+002;4.538358e-001
9.951307e+002;4.592595e-001
9.970593e+002;4.618116e-001
9.989879e+002;4.622397e-001
1.000916e+003;4.616036e-001
1.002845e+003;4.630546e-001
1.004773e+003;4.665244e-001
1.006702e+003;4.719272e-001
1.008631e+003;4.802974e-001
1.010559e+003;4.903520e-001
1.012488e+003;5.000415e-001
1.014416e+003;5.082659e-001
1.016345e+003;5.149714e-001
1.018273e+003;5.192679e-001
1.020202e+003;5.202658e-001
1.022130e+003;5.195635e-001
1.024059e+003;5.176399e-001
1.025988e+003;5.133816e-001
1.027916e+003;5.069828e-001
1.029845e+003;4.997399e-001
1.031773e+003;4.928453e-001
1.033702e+003;4.869448e-001
1.035630e+003;4.806968e-001
1.037559e+003;4.750663e-001
1.039487e+003;4.712236e-001
1.041416e+003;4.679450e-001
1.043344e+003;4.648154e-001
1.045273e+003;4.614350e-001
1.047202e+003;4.574765e-001
1.049130e+003;4.534173e-001
1.051059e+003;4.491548e-001
1.052987e+003;4.454783e-001
1.054916e+003;4.420429e-001
1.056844e+003;4.375442e-001
1.058773e+003;4.322017e-001
1.060701e+003;4.261054e-001
1.062630e+003;4.186983e-001
1.064558e+003;4.099348e-001
1.066487e+003;4.005397e-001
1.068416e+003;3.918598e-001
1.070344e+003;3.833643e-001
1.072273e+003;3.749111e-001
1.074201e+003;3.670628e-001
1.076130e+003;3.589065e-001
1.078058e+003;3.509015e-001
1.079987e+003;3.437726e-001
1.081915e+003;3.366981e-001
1.083844e+003;3.303135e-001
1.085773e+003;3.239628e-001
1.087701e+003;3.183560e-001
1.089630e+003;3.121811e-001
1.091558e+003;3.059168e-001
1.093487e+003;2.997500e-001
1.095415e+003;2.935635e-001
1.097344e+003;2.875717e-001
1.099272e+003;2.809999e-001
1.101201e+003;2.742276e-001
1.103129e+003;2.679268e-001
1.105058e+003;2.616513e-001
1.106987e+003;2.566393e-001
1.108915e+003;2.531078e-001
1.110844e+003;2.497575e-001
1.112772e+003;2.456768e-001
1.114701e+003;2.410126e-001
1.116629e+003;2.356497e-001
1.118558e+003;2.301328e-001
1.120486e+003;2.242190e-001
1.122415e+003;2.177663e-001
1.124344e+003;2.109496e-001
1.126272e+003;2.047543e-001
1.128201e+003;1.986791e-001
1.130129e+003;1.924801e-001
1.132058e+003;1.871402e-001
1.133986e+003;1.823822e-001
1.135915e+003;1.778622e-001
1.137843e+003;1.742731e-001
1.139772e+003;1.716416e-001
1.141700e+003;1.697275e-001
1.143629e+003;1.692914e-001
1.145557e+003;1.696263e-001
1.147486e+003;1.701088e-001
1.149415e+003;1.716352e-001
1.151343e+003;1.734742e-001
1.153272e+003;1.751995e-001
1.155200e+003;1.765223e-001
1.157129e+003;1.763901e-001
1.159057e+003;1.740388e-001
1.160986e+003;1.699975e-001
1.162914e+003;1.643710e-001
1.164843e+003;1.575434e-001
1.166771e+003;1.504599e-001
1.168700e+003;1.430281e-001
1.170629e+003;1.354086e-001
1.172557e+003;1.286563e-001
1.174486e+003;1.230670e-001
1.176414e+003;1.181902e-001
1.178343e+003;1.142313e-001
1.180271e+003;1.109345e-001
1.182200e+003;1.084367e-001
1.184128e+003;1.070616e-001
1.186057e+003;1.069941e-001
1.187986e+003;1.078540e-001
1.189914e+003;1.095464e-001
1.191843e+003;1.124316e-001
1.193771e+003;1.157202e-001
1.195700e+003;1.185158e-001
1.197628e+003;1.201885e-001
1.199557e+003;1.205909e-001
1.201485e+003;1.201528e-001
1.203414e+003;1.184727e-001
1.205343e+003;1.160174e-001
1.207271e+003;1.139744e-001
1.209200e+003;1.121560e-001
1.211128e+003;1.108394e-001
1.213057e+003;1.103363e-001
1.214985e+003;1.106535e-001
1.216914e+003;1.120450e-001
1.218842e+003;1.140318e-001
1.220771e+003;1.162632e-001
1.222699e+003;1.189443e-001
1.224628e+003;1.210712e-001
1.226557e+003;1.225471e-001
1.228485e+003;1.236349e-001
1.230414e+003;1.244666e-001
1.232342e+003;1.251356e-001
1.234271e+003;1.255030e-001
1.236199e+003;1.254511e-001
1.238128e+003;1.253519e-001
1.240056e+003;1.251331e-001
1.241985e+003;1.246634e-001
1.243913e+003;1.244161e-001
1.245842e+003;1.246737e-001
1.247771e+003;1.251396e-001
1.249699e+003;1.258149e-001
1.251628e+003;1.270744e-001
1.253556e+003;1.284788e-001
1.255485e+003;1.296323e-001
1.257413e+003;1.305799e-001
1.259342e+003;1.313095e-001
1.261270e+003;1.313924e-001
1.263199e+003;1.308684e-001
1.265127e+003;1.301373e-001
1.267056e+003;1.293519e-001
1.268985e+003;1.284256e-001
1.270913e+003;1.275800e-001
1.272842e+003;1.269976e-001
1.274770e+003;1.262690e-001
1.276699e+003;1.254366e-001
1.278627e+003;1.247337e-001
1.280556e+003;1.238589e-001
1.282484e+003;1.230855e-001
1.284413e+003;1.227077e-001
1.286342e+003;1.229903e-001
1.288270e+003;1.240110e-001
1.290199e+003;1.255785e-001
1.292127e+003;1.275493e-001
1.294056e+003;1.294446e-001
1.295984e+003;1.313609e-001
1.297913e+003;1.332592e-001
1.299841e+003;1.348850e-001
1.301770e+003;1.364537e-001
1.303698e+003;1.381666e-001
1.305627e+003;1.402744e-001
1.307556e+003;1.425676e-001
1.309484e+003;1.445193e-001
1.311413e+003;1.459893e-001
1.313341e+003;1.469951e-001
1.315270e+003;1.474560e-001
1.317198e+003;1.472254e-001
1.319127e+003;1.464303e-001
1.321055e+003;1.453891e-001
1.322984e+003;1.444551e-001
1.324912e+003;1.441094e-001
1.326841e+003;1.442535e-001
1.328770e+003;1.446536e-001
1.330698e+003;1.450205e-001
1.332627e+003;1.448947e-001
1.334555e+003;1.450603e-001
1.336484e+003;1.452777e-001
1.338412e+003;1.450065e-001
1.340341e+003;1.444747e-001
1.342269e+003;1.440715e-001
1.344198e+003;1.437628e-001
1.346126e+003;1.434545e-001
1.348055e+003;1.433942e-001
1.349984e+003;1.436401e-001
1.351912e+003;1.441190e-001
1.353841e+003;1.448324e-001
1.355769e+003;1.457881e-001
1.357698e+003;1.468328e-001
1.359626e+003;1.478851e-001
1.361555e+003;1.489221e-001
1.363483e+003;1.494087e-001
1.365412e+003;1.494187e-001
1.367341e+003;1.489600e-001
1.369269e+003;1.478610e-001
1.371198e+003;1.466214e-001
1.373126e+003;1.452673e-001
1.375055e+003;1.435928e-001
1.376983e+003;1.416579e-001
1.378912e+003;1.394349e-001
1.380840e+003;1.369035e-001
1.382769e+003;1.342822e-001
1.384698e+003;1.318772e-001
1.386626e+003;1.299497e-001
1.388555e+003;1.284406e-001
1.390483e+003;1.272364e-001
1.392412e+003;1.266198e-001
1.394340e+003;1.262034e-001
1.396269e+003;1.257567e-001
1.398197e+003;1.255381e-001
1.400126e+003;1.252495e-001
1.402054e+003;1.248696e-001
1.403983e+003;1.246786e-001
1.405911e+003;1.247520e-001
1.407840e+003;1.248590e-001
1.409769e+003;1.249667e-001
1.411697e+003;1.251787e-001
1.413626e+003;1.253505e-001
1.415554e+003;1.252806e-001
1.417483e+003;1.250052e-001
1.419411e+003;1.245741e-001
1.421340e+003;1.243007e-001
1.423268e+003;1.241256e-001
1.425197e+003;1.237498e-001
1.427125e+003;1.230137e-001
1.429054e+003;1.221491e-001
1.430983e+003;1.215474e-001
1.432911e+003;1.206515e-001
1.434840e+003;1.195800e-001
1.436768e+003;1.188389e-001
1.438697e+003;1.181679e-001
1.440625e+003;1.174201e-001
1.442554e+003;1.163848e-001
1.444482e+003;1.151708e-001
1.446411e+003;1.138789e-001
1.448340e+003;1.124579e-001
1.450268e+003;1.114460e-001
1.452197e+003;1.103028e-001
1.454125e+003;1.089314e-001
1.456054e+003;1.075907e-001
1.457982e+003;1.059896e-001
1.459911e+003;1.046886e-001
1.461839e+003;1.034115e-001
1.463768e+003;1.018971e-001
1.465697e+003;1.002555e-001
1.467625e+003;9.854884e-002
1.469554e+003;9.667168e-002
1.471482e+003;9.443686e-002
1.473411e+003;9.219976e-002
1.475339e+003;8.984420e-002
1.477268e+003;8.717487e-002
1.479196e+003;8.486296e-002
1.481125e+003;8.261063e-002
1.483053e+003;8.017810e-002
1.484982e+003;7.811163e-002
1.486911e+003;7.617244e-002
1.488839e+003;7.417842e-002
1.490768e+003;7.228536e-002
1.492696e+003;7.060169e-002
1.494625e+003;6.909566e-002
1.496553e+003;6.765171e-002
1.498482e+003;6.651482e-002
1.500410e+003;6.545297e-002
1.502339e+003;6.450013e-002
1.504267e+003;6.350148e-002
1.506196e+003;6.234918e-002
1.508125e+003;6.126719e-002
1.510053e+003;6.054637e-002
1.511982e+003;5.991266e-002
1.513910e+003;5.926289e-002
1.515839e+003;5.858755e-002
1.517767e+003;5.810723e-002
1.519696e+003;5.756547e-002
1.521624e+003;5.705283e-002
1.523553e+003;5.678577e-002
1.525481e+003;5.649977e-002
1.527410e+003;5.620537e-002
1.529339e+003;5.598971e-002
1.531267e+003;5.577246e-002
1.533196e+003;5.541828e-002
1.535124e+003;5.531044e-002
1.537053e+003;5.515891e-002
1.538981e+003;5.475441e-002
1.540910e+003;5.476388e-002
1.542838e+003;5.503253e-002
1.544767e+003;5.509966e-002
1.546695e+003;5.509304e-002
1.548624e+003;5.512471e-002
1.550553e+003;5.517494e-002
1.552481e+003;5.516813e-002
1.554410e+003;5.501244e-002
1.556338e+003;5.489440e-002
1.558267e+003;5.497194e-002
1.560195e+003;5.515402e-002
1.562124e+003;5.555781e-002
1.564052e+003;5.590634e-002
1.565981e+003;5.616653e-002
1.567910e+003;5.659722e-002
1.569838e+003;5.680268e-002
1.571767e+003;5.689971e-002
1.573695e+003;5.711862e-002
1.575624e+003;5.752537e-002
1.577552e+003;5.799880e-002
1.579481e+003;5.863852e-002
1.581409e+003;5.924926e-002
1.583338e+003;5.973659e-002
1.585266e+003;6.035120e-002
1.587195e+003;6.086657e-002
1.589124e+003;6.148343e-002
1.591052e+003;6.221525e-002
1.592981e+003;6.284495e-002
1.594909e+003;6.362376e-002
1.596838e+003;6.449333e-002
1.598766e+003;6.532177e-002
1.600695e+003;6.604397e-002
1.602623e+003;6.672190e-002
1.604552e+003;6.750902e-002
1.606480e+003;6.836834e-002
1.608409e+003;6.910456e-002
1.610338e+003;6.985059e-002
1.612266e+003;7.063300e-002
1.614195e+003;7.149283e-002
1.616123e+003;7.219133e-002
1.618052e+003;7.266741e-002
1.619980e+003;7.348625e-002
1.621909e+003;7.423888e-002
1.623837e+003;7.487142e-002
1.625766e+003;7.555310e-002
1.627694e+003;7.626990e-002
1.629623e+003;7.694066e-002
1.631552e+003;7.740545e-002
1.633480e+003;7.752244e-002
1.635409e+003;7.757735e-002
1.637337e+003;7.788882e-002
1.639266e+003;7.823032e-002
1.641194e+003;7.850955e-002
1.643123e+003;7.850896e-002
1.645051e+003;7.817244e-002
1.646980e+003;7.785172e-002
1.648909e+003;7.753801e-002
1.650837e+003;7.703437e-002
1.652766e+003;7.629151e-002
1.654694e+003;7.584278e-002
1.656623e+003;7.562456e-002
1.658551e+003;7.500269e-002
1.660480e+003;7.398163e-002
1.662408e+003;7.309922e-002
1.664337e+003;7.241425e-002
1.666266e+003;7.169753e-002
1.668194e+003;7.053001e-002
1.670123e+003;6.917749e-002
1.672051e+003;6.820141e-002
1.673980e+003;6.723119e-002
1.675908e+003;6.597643e-002
1.677837e+003;6.470010e-002
1.679765e+003;6.349001e-002
1.681694e+003;6.251934e-002
1.683622e+003;6.151210e-002
1.685551e+003;6.036647e-002
1.687479e+003;5.954292e-002
1.689408e+003;5.877063e-002
1.691337e+003;5.823402e-002
1.693265e+003;5.782351e-002
1.695194e+003;5.735892e-002
1.697122e+003;5.712988e-002
1.699051e+003;5.692041e-002
1.700979e+003;5.652725e-002
1.702908e+003;5.621494e-002
1.704836e+003;5.600075e-002
1.706765e+003;5.573241e-002
1.708693e+003;5.543066e-002
1.710622e+003;5.524202e-002
1.712551e+003;5.488489e-002
1.714479e+003;5.441273e-002
1.716408e+003;5.401223e-002
1.718336e+003;5.336253e-002
1.720265e+003;5.284008e-002
1.722193e+003;5.223578e-002
1.724122e+003;5.131412e-002
1.726050e+003;5.040550e-002
1.727979e+003;4.957599e-002
1.729908e+003;4.864235e-002
1.731836e+003;4.762951e-002
1.733765e+003;4.662773e-002
1.735693e+003;4.555167e-002
1.737622e+003;4.441950e-002
1.739550e+003;4.306122e-002
1.741479e+003;4.186123e-002
1.743407e+003;4.077492e-002
1.745336e+003;3.975467e-002
1.747265e+003;3.898358e-002
1.749193e+003;3.845092e-002
1.751122e+003;3.790624e-002
1.753050e+003;3.747432e-002
1.754979e+003;3.717824e-002
1.756907e+003;3.675714e-002
1.758836e+003;3.647884e-002
1.760764e+003;3.633561e-002
1.762693e+003;3.610303e-002
1.764621e+003;3.607833e-002
1.766550e+003;3.613856e-002
1.768479e+003;3.606417e-002
1.770407e+003;3.574495e-002
1.772336e+003;3.536541e-002
1.774264e+003;3.519909e-002
1.776193e+003;3.503197e-002
1.778121e+003;3.490553e-002
1.780050e+003;3.473532e-002
1.781978e+003;3.453878e-002
1.783907e+003;3.438701e-002
1.785835e+003;3.432307e-002
1.787764e+003;3.422713e-002
1.789693e+003;3.390802e-002
1.791621e+003;3.365303e-002
1.793550e+003;3.348425e-002
1.795478e+003;3.339457e-002
1.797407e+003;3.324681e-002
1.799335e+003;3.303496e-002
1.801264e+003;3.287039e-002
1.803192e+003;3.266247e-002
1.805121e+003;3.249043e-002
1.807049e+003;3.247182e-002
1.808978e+003;3.238839e-002
1.810907e+003;3.223330e-002
1.812835e+003;3.224868e-002
1.814764e+003;3.228530e-002
1.816692e+003;3.204167e-002
1.818621e+003;3.190457e-002
1.820549e+003;3.196420e-002
1.822478e+003;3.183354e-002
1.824406e+003;3.149236e-002
1.826335e+003;3.143323e-002
1.828264e+003;3.130287e-002
1.830192e+003;3.100214e-002
1.832121e+003;3.086822e-002
1.834049e+003;3.073686e-002
1.835978e+003;3.071360e-002
1.837906e+003;3.084716e-002
1.839835e+003;3.076929e-002
1.841763e+003;3.062093e-002
1.843692e+003;3.035248e-002
1.845620e+003;3.006774e-002
1.847549e+003;3.000848e-002
1.849478e+003;2.992125e-002
1.851406e+003;2.974150e-002
1.853335e+003;2.966330e-002
1.855263e+003;2.970091e-002
1.857192e+003;2.979270e-002
1.859120e+003;2.977002e-002
1.861049e+003;2.957596e-002
1.862977e+003;2.950067e-002
1.864906e+003;2.961931e-002
1.866834e+003;2.966110e-002
1.868763e+003;2.956284e-002
1.870692e+003;2.967568e-002
1.872620e+003;2.970020e-002
1.874549e+003;2.934824e-002
1.876477e+003;2.911632e-002
1.878406e+003;2.911235e-002
1.880334e+003;2.913591e-002
1.882263e+003;2.902891e-002
1.884191e+003;2.888405e-002
1.886120e+003;2.898120e-002
1.888048e+003;2.920667e-002
1.889977e+003;2.932711e-002
1.891906e+003;2.917453e-002
1.893834e+003;2.920685e-002
1.895763e+003;2.938660e-002
1.897691e+003;2.935976e-002
1.899620e+003;2.941255e-002
1.901548e+003;2.954184e-002
1.903477e+003;2.957664e-002
1.905405e+003;2.954830e-002
1.907334e+003;2.962208e-002
1.909262e+003;2.974050e-002
1.911191e+003;2.990897e-002
1.913120e+003;3.008595e-002
1.915048e+003;3.014441e-002
1.916977e+003;3.042596e-002
1.918905e+003;3.079362e-002
1.920834e+003;3.100520e-002
1.922762e+003;3.096577e-002
1.924691e+003;3.086295e-002
1.926619e+003;3.107823e-002
1.928548e+003;3.121261e-002
1.930477e+003;3.115027e-002
1.932405e+003;3.112970e-002
1.934334e+003;3.130109e-002
1.936262e+003;3.122518e-002
1.938191e+003;3.119976e-002
1.940119e+003;3.165891e-002
1.942048e+003;3.193984e-002
1.943976e+003;3.198146e-002
1.945905e+003;3.208512e-002
1.947833e+003;3.221710e-002
1.949762e+003;3.236743e-002
1.951691e+003;3.253843e-002
1.953619e+003;3.280963e-002
1.955548e+003;3.313054e-002
1.957476e+003;3.318132e-002
1.959405e+003;3.310232e-002
1.961333e+003;3.329220e-002
1.963262e+003;3.356929e-002
1.965190e+003;3.361565e-002
1.967119e+003;3.346675e-002
1.969047e+003;3.330158e-002
1.970976e+003;3.356457e-002
1.972905e+003;3.405869e-002
1.974833e+003;3.419457e-002
1.976762e+003;3.417590e-002
1.978690e+003;3.438447e-002
1.980619e+003;3.454057e-002
1.982547e+003;3.446126e-002
1.984476e+003;3.454944e-002
1.986404e+003;3.456716e-002
1.988333e+003;3.451988e-002
1.990261e+003;3.468095e-002
1.992190e+003;3.493519e-002
1.994119e+003;3.499994e-002
1.996047e+003;3.481810e-002
1.997976e+003;3.482435e-002
1.999904e+003;3.509437e-002
2.001833e+003;3.514875e-002
2.003761e+003;3.509598e-002
2.005690e+003;3.529594e-002
2.007618e+003;3.558538e-002
2.009547e+003;3.588834e-002
2.011476e+003;3.592893e-002
2.013404e+003;3.589679e-002
2.015333e+003;3.617828e-002
2.017261e+003;3.651300e-002
2.019190e+003;3.690331e-002
2.021118e+003;3.719134e-002
2.023047e+003;3.709725e-002
2.024975e+003;3.721943e-002
2.026904e+003;3.760893e-002
2.028833e+003;3.774068e-002
2.030761e+003;3.775499e-002
2.032690e+003;3.783651e-002
2.034618e+003;3.796518e-002
2.036547e+003;3.806348e-002
2.038475e+003;3.817819e-002
2.040404e+003;3.823220e-002
2.042332e+003;3.810808e-002
2.044261e+003;3.808793e-002
2.046189e+003;3.843227e-002
2.048118e+003;3.878399e-002
2.050047e+003;3.886870e-002
2.051975e+003;3.891240e-002
2.053904e+003;3.911195e-002
2.055832e+003;3.916336e-002
2.057761e+003;3.902871e-002
2.059689e+003;3.898297e-002
2.061618e+003;3.901642e-002
2.063546e+003;3.871201e-002
2.065475e+003;3.855070e-002
2.067404e+003;3.878442e-002
2.069332e+003;3.908788e-002
2.071260e+003;3.921827e-002
2.073189e+003;3.909516e-002
2.075118e+003;3.889834e-002
2.077046e+003;3.886087e-002
2.078975e+003;3.892164e-002
2.080903e+003;3.904749e-002
2.082832e+003;3.913098e-002
2.084760e+003;3.914349e-002
2.086689e+003;3.922563e-002
2.088617e+003;3.944840e-002
2.090546e+003;3.938824e-002
2.092475e+003;3.922443e-002
2.094403e+003;3.947067e-002
2.096332e+003;3.962946e-002
2.098260e+003;3.957283e-002
2.100189e+003;3.951654e-002
2.102117e+003;3.964216e-002
2.104046e+003;3.990484e-002
2.105974e+003;4.001095e-002
2.107903e+003;4.011756e-002
2.109832e+003;4.035359e-002
2.111760e+003;4.051597e-002
2.113688e+003;4.058286e-002
2.115617e+003;4.051749e-002
2.117546e+003;4.050385e-002
2.119474e+003;4.065799e-002
2.121403e+003;4.080025e-002
2.123331e+003;4.082635e-002
2.125260e+003;4.075446e-002
2.127188e+003;4.062110e-002
2.129117e+003;4.089209e-002
2.131045e+003;4.119815e-002
2.132974e+003;4.130957e-002
2.134903e+003;4.127361e-002
2.136831e+003;4.115203e-002
2.138760e+003;4.093501e-002
2.140688e+003;4.076833e-002
2.142617e+003;4.069263e-002
2.144545e+003;4.078434e-002
2.146474e+003;4.098220e-002
2.148402e+003;4.087520e-002
2.150331e+003;4.089478e-002
2.152260e+003;4.070635e-002
2.154188e+003;4.027716e-002
2.156117e+003;4.016841e-002
2.158045e+003;4.018498e-002
2.159974e+003;4.011444e-002
2.161902e+003;4.013159e-002
2.163831e+003;4.023660e-002
2.165759e+003;4.026608e-002
2.167688e+003;4.008042e-002
2.169616e+003;3.985948e-002
2.171545e+003;3.965029e-002
2.173474e+003;3.955055e-002
2.175402e+003;3.967995e-002
2.177331e+003;3.952783e-002
2.179259e+003;3.906522e-002
2.181188e+003;3.879957e-002
2.183116e+003;3.883892e-002
2.185045e+003;3.878373e-002
2.186973e+003;3.839499e-002
2.188902e+003;3.815688e-002
2.190831e+003;3.809191e-002
2.192759e+003;3.802380e-002
2.194688e+003;3.798022e-002
2.196616e+003;3.802894e-002
2.198545e+003;3.798818e-002
2.200473e+003;3.788690e-002
2.202402e+003;3.773768e-002
2.204330e+003;3.755625e-002
2.206259e+003;3.756167e-002
2.208188e+003;3.761749e-002
2.210116e+003;3.745085e-002
2.212044e+003;3.724596e-002
2.213973e+003;3.715323e-002
2.215902e+003;3.690155e-002
2.217830e+003;3.683374e-002
2.219759e+003;3.690555e-002
2.221687e+003;3.677834e-002
2.223616e+003;3.671030e-002
2.225544e+003;3.673994e-002
2.227473e+003;3.676951e-002
2.229401e+003;3.650843e-002
2.231330e+003;3.632650e-002
2.233259e+003;3.634693e-002
2.235187e+003;3.636148e-002
2.237116e+003;3.644983e-002
2.239044e+003;3.645203e-002
2.240973e+003;3.635572e-002
2.242901e+003;3.644042e-002
2.244830e+003;3.619615e-002
2.246758e+003;3.579028e-002
2.248687e+003;3.558574e-002
2.250615e+003;3.560060e-002
2.252544e+003;3.565030e-002
2.254473e+003;3.546611e-002
2.256401e+003;3.504673e-002
2.258330e+003;3.475614e-002
2.260258e+003;3.471892e-002
2.262187e+003;3.491095e-002
2.264115e+003;3.503377e-002
2.266044e+003;3.490553e-002
2.267972e+003;3.481336e-002
2.269901e+003;3.487526e-002
2.271830e+003;3.487397e-002
2.273758e+003;3.462529e-002
2.275687e+003;3.445628e-002
2.277615e+003;3.446294e-002
2.279544e+003;3.435481e-002
2.281472e+003;3.424570e-002
2.283401e+003;3.427391e-002
2.285329e+003;3.419375e-002
2.287258e+003;3.408249e-002
2.289187e+003;3.402117e-002
2.291115e+003;3.413554e-002
2.293043e+003;3.423035e-002
2.294972e+003;3.429424e-002
2.296901e+003;3.418145e-002
2.298829e+003;3.425194e-002
2.300758e+003;3.441571e-002
2.302686e+003;3.439243e-002
2.304615e+003;3.417038e-002
2.306543e+003;3.407611e-002
2.308472e+003;3.419250e-002
2.310400e+003;3.439659e-002
2.312329e+003;3.458984e-002
2.314258e+003;3.456895e-002
2.316186e+003;3.478091e-002
2.318115e+003;3.488678e-002
2.320043e+003;3.477477e-002
2.321972e+003;3.480791e-002
2.323900e+003;3.475463e-002
2.325829e+003;3.467697e-002
2.327757e+003;3.481447e-002
2.329686e+003;3.502633e-002
2.331615e+003;3.504559e-002
2.333543e+003;3.487454e-002
2.335472e+003;3.500277e-002
2.337400e+003;3.537846e-002
2.339329e+003;3.562836e-002
2.341257e+003;3.585361e-002
2.343186e+003;3.594070e-002
2.345114e+003;3.609975e-002
2.347043e+003;3.626155e-002
2.348971e+003;3.627149e-002
2.350900e+003;3.626440e-002
2.352829e+003;3.650519e-002
2.354757e+003;3.668571e-002
2.356686e+003;3.669663e-002
2.358614e+003;3.689058e-002
2.360543e+003;3.696756e-002
2.362471e+003;3.704409e-002
2.364400e+003;3.723809e-002
2.366328e+003;3.730549e-002
2.368257e+003;3.744066e-002
2.370186e+003;3.776815e-002
2.372114e+003;3.808891e-002
2.374042e+003;3.804908e-002
2.375971e+003;3.797668e-002
2.377900e+003;3.801350e-002
2.379828e+003;3.818828e-002
2.381757e+003;3.824281e-002
2.383685e+003;3.832857e-002
2.385614e+003;3.866905e-002
2.387542e+003;3.877823e-002
2.389471e+003;3.877203e-002
2.391399e+003;3.884004e-002
2.393328e+003;3.889091e-002
2.395257e+003;3.902556e-002
2.397185e+003;3.922632e-002
2.399114e+003;3.954982e-002
2.401042e+003;3.973822e-002
2.402971e+003;3.989151e-002
2.404899e+003;4.009885e-002
2.406828e+003;4.009264e-002
2.408756e+003;4.013635e-002
2.410685e+003;4.051535e-002
2.412614e+003;4.083090e-002
2.414542e+003;4.085470e-002
2.416471e+003;4.085474e-002
2.418399e+003;4.091826e-002
2.420328e+003;4.111204e-002
2.422256e+003;4.148886e-002
2.424185e+003;4.175350e-002
2.426113e+003;4.209999e-002
2.428042e+003;4.240496e-002
2.429970e+003;4.258350e-002
2.431899e+003;4.291972e-002
2.433828e+003;4.299606e-002
2.435756e+003;4.302280e-002
2.437685e+003;4.339964e-002
2.439613e+003;4.383904e-002
2.441542e+003;4.424113e-002
2.443470e+003;4.432923e-002
2.445399e+003;4.453436e-002
2.447327e+003;4.499659e-002
2.449256e+003;4.526411e-002
2.451185e+003;4.554534e-002
2.453113e+003;4.601435e-002
2.455042e+003;4.625615e-002
2.456970e+003;4.630211e-002
2.458899e+003;4.628276e-002
2.460827e+003;4.627244e-002
2.462756e+003;4.641316e-002
2.464684e+003;4.686215e-002
2.466613e+003;4.733011e-002
2.468542e+003;4.758185e-002
2.470470e+003;4.784608e-002
2.472398e+003;4.800219e-002
2.474327e+003;4.820066e-002
2.476256e+003;4.825546e-002
2.478184e+003;4.840508e-002
2.480113e+003;4.902962e-002
2.482041e+003;4.931022e-002
2.483970e+003;4.927563e-002
2.485898e+003;4.960296e-002
2.487827e+003;4.987801e-002
2.489755e+003;4.993574e-002
2.491684e+003;5.027938e-002
2.493613e+003;5.033827e-002
2.495541e+003;5.032428e-002
2.497470e+003;5.057131e-002
2.499398e+003;5.054786e-002
2.501327e+003;5.080676e-002
2.503255e+003;5.116205e-002
2.505184e+003;5.123627e-002
2.507112e+003;5.125256e-002
2.509041e+003;5.152811e-002
2.510969e+003;5.175108e-002
2.512898e+003;5.192095e-002
2.514827e+003;5.206608e-002
2.516755e+003;5.214876e-002
2.518684e+003;5.237650e-002
2.520612e+003;5.249183e-002
2.522541e+003;5.273745e-002
2.524469e+003;5.283844e-002
2.526398e+003;5.267243e-002
2.528326e+003;5.250952e-002
2.530255e+003;5.267150e-002
2.532184e+003;5.294424e-002
2.534112e+003;5.326966e-002
2.536041e+003;5.346891e-002
2.537969e+003;5.357366e-002
2.539898e+003;5.358532e-002
2.541826e+003;5.359143e-002
2.543755e+003;5.367856e-002
2.545683e+003;5.364471e-002
2.547612e+003;5.354207e-002
2.549541e+003;5.377572e-002
2.551469e+003;5.419992e-002
2.553397e+003;5.447602e-002
2.555326e+003;5.474114e-002
2.557255e+003;5.483636e-002
2.559183e+003;5.498788e-002
2.561112e+003;5.534947e-002
2.563040e+003;5.563339e-002
2.564969e+003;5.562796e-002
2.566897e+003;5.558917e-002
2.568826e+003;5.577020e-002
2.570754e+003;5.598752e-002
2.572683e+003;5.590200e-002
2.574612e+003;5.590027e-002
2.576540e+003;5.608388e-002
2.578469e+003;5.627993e-002
2.580397e+003;5.648630e-002
2.582326e+003;5.660436e-002
2.584254e+003;5.683988e-002
2.586183e+003;5.724909e-002
2.588111e+003;5.768756e-002
2.590040e+003;5.792459e-002
2.591969e+003;5.775810e-002
2.593897e+003;5.771204e-002
2.595826e+003;5.806220e-002
2.597754e+003;5.852818e-002
2.599683e+003;5.870736e-002
2.601611e+003;5.884879e-002
2.603540e+003;5.902958e-002
2.605468e+003;5.914180e-002
2.607397e+003;5.935823e-002
2.609325e+003;5.953882e-002
2.611254e+003;5.966736e-002
2.613183e+003;5.993115e-002
2.615111e+003;6.032588e-002
2.617040e+003;6.073496e-002
2.618968e+003;6.105629e-002
2.620897e+003;6.136236e-002
2.622825e+003;6.147702e-002
2.624754e+003;6.157944e-002
2.626682e+003;6.187328e-002
2.628611e+003;6.235962e-002
2.630540e+003;6.287370e-002
2.632468e+003;6.318723e-002
2.634396e+003;6.342735e-002
2.636325e+003;6.389724e-002
2.638254e+003;6.417494e-002
2.640182e+003;6.413595e-002
2.642111e+003;6.425926e-002
2.644039e+003;6.493806e-002
2.645968e+003;6.531261e-002
2.647896e+003;6.532362e-002
2.649825e+003;6.566852e-002
2.651753e+003;6.620016e-002
2.653682e+003;6.650057e-002
2.655611e+003;6.674076e-002
2.657539e+003;6.681572e-002
2.659468e+003;6.715600e-002
2.661396e+003;6.782610e-002
2.663325e+003;6.805923e-002
2.665253e+003;6.813253e-002
2.667182e+003;6.844529e-002
2.669110e+003;6.902698e-002
2.671039e+003;6.939024e-002
2.672968e+003;6.943086e-002
2.674896e+003;6.995226e-002
2.676825e+003;7.056069e-002
2.678753e+003;7.086156e-002
2.680682e+003;7.108961e-002
2.682610e+003;7.120948e-002
2.684539e+003;7.140893e-002
2.686467e+003;7.170714e-002
2.688396e+003;7.206251e-002
2.690324e+003;7.254494e-002
2.692253e+003;7.290287e-002
2.694182e+003;7.307405e-002
2.696110e+003;7.343975e-002
2.698039e+003;7.376245e-002
2.699967e+003;7.405601e-002
2.701896e+003;7.422728e-002
2.703824e+003;7.440343e-002
2.705753e+003;7.477636e-002
2.707681e+003;7.511569e-002
2.709610e+003;7.537878e-002
2.711539e+003;7.555756e-002
2.713467e+003;7.581586e-002
2.715396e+003;7.598519e-002
2.717324e+003;7.613805e-002
2.719253e+003;7.648884e-002
2.721181e+003;7.681235e-002
2.723110e+003;7.696249e-002
2.725038e+003;7.709400e-002
2.726967e+003;7.711656e-002
2.728896e+003;7.738426e-002
2.730824e+003;7.779654e-002
2.732752e+003;7.803953e-002
2.734681e+003;7.810552e-002
2.736610e+003;7.825242e-002
2.738538e+003;7.852063e-002
2.740467e+003;7.863554e-002
2.742395e+003;7.869098e-002
2.744324e+003;7.882572e-002
2.746252e+003;7.914982e-002
2.748181e+003;7.938275e-002
2.750109e+003;7.970731e-002
2.752038e+003;7.991958e-002
2.753967e+003;7.986964e-002
2.755895e+003;7.990509e-002
2.757824e+003;8.023649e-002
2.759752e+003;8.066677e-002
2.761681e+003;8.112986e-002
2.763609e+003;8.144403e-002
2.765538e+003;8.145078e-002
2.767466e+003;8.170141e-002
2.769395e+003;8.231097e-002
2.771323e+003;8.260795e-002
2.773252e+003;8.266906e-002
2.775181e+003;8.311781e-002
2.777109e+003;8.348449e-002
2.779038e+003;8.394079e-002
2.780966e+003;8.454020e-002
2.782895e+003;8.467121e-002
2.784823e+003;8.465563e-002
2.786752e+003;8.525027e-002
2.788680e+003;8.583426e-002
2.790609e+003;8.641556e-002
2.792538e+003;8.704788e-002
2.794466e+003;8.721524e-002
2.796395e+003;8.767448e-002
2.798323e+003;8.828285e-002
2.800252e+003;8.871415e-002
2.802180e+003;8.933350e-002
2.804109e+003;8.970901e-002
2.806037e+003;9.016505e-002
2.807966e+003;9.061389e-002
2.809895e+003;9.078501e-002
2.811823e+003;9.130473e-002
2.813751e+003;9.230183e-002
2.815680e+003;9.296794e-002
2.817609e+003;9.334665e-002
2.819537e+003;9.399907e-002
2.821466e+003;9.448665e-002
2.823394e+003;9.521087e-002
2.825323e+003;9.585068e-002
2.827251e+003;9.616134e-002
2.829180e+003;9.668120e-002
2.831108e+003;9.748597e-002
2.833037e+003;9.840735e-002
2.834966e+003;9.938433e-002
2.836894e+003;1.003847e-001
2.838823e+003;1.009521e-001
2.840751e+003;1.019549e-001
2.842680e+003;1.033508e-001
2.844608e+003;1.044718e-001
2.846537e+003;1.053459e-001
2.848465e+003;1.066421e-001
2.850394e+003;1.080446e-001
2.852323e+003;1.087092e-001
2.854251e+003;1.094263e-001
2.856180e+003;1.109079e-001
2.858108e+003;1.124244e-001
2.860037e+003;1.139591e-001
2.861965e+003;1.156182e-001
2.863894e+003;1.173282e-001
2.865822e+003;1.187666e-001
2.867751e+003;1.200424e-001
2.869679e+003;1.213781e-001
2.871608e+003;1.228545e-001
2.873536e+003;1.241009e-001
2.875465e+003;1.246930e-001
2.877394e+003;1.252494e-001
2.879322e+003;1.260766e-001
2.881251e+003;1.266469e-001
2.883179e+003;1.270365e-001
2.885108e+003;1.276664e-001
2.887036e+003;1.280149e-001
2.888965e+003;1.278195e-001
2.890893e+003;1.277640e-001
2.892822e+003;1.276913e-001
2.894750e+003;1.272414e-001
2.896679e+003;1.268764e-001
2.898608e+003;1.267503e-001
2.900536e+003;1.264202e-001
2.902465e+003;1.258340e-001
2.904393e+003;1.250784e-001
2.906322e+003;1.241781e-001
2.908250e+003;1.234340e-001
2.910179e+003;1.226496e-001
2.912107e+003;1.219201e-001
2.914036e+003;1.210162e-001
2.915965e+003;1.199727e-001
2.917893e+003;1.191210e-001
2.919822e+003;1.181984e-001
2.921750e+003;1.169529e-001
2.923679e+003;1.156480e-001
2.925607e+003;1.145680e-001
2.927536e+003;1.135692e-001
2.929464e+003;1.126848e-001
2.931393e+003;1.120725e-001
2.933322e+003;1.115746e-001
2.935250e+003;1.107377e-001
2.937178e+003;1.093574e-001
2.939107e+003;1.080535e-001
2.941036e+003;1.069269e-001
2.942964e+003;1.057189e-001
2.944893e+003;1.044775e-001
2.946821e+003;1.034690e-001
2.948750e+003;1.022512e-001
2.950678e+003;1.008736e-001
2.952607e+003;9.960632e-002
2.954535e+003;9.867409e-002
2.956464e+003;9.749518e-002
2.958393e+003;9.617845e-002
2.960321e+003;9.530061e-002
2.962250e+003;9.433977e-002
2.964178e+003;9.330972e-002
2.966107e+003;9.271158e-002
2.968035e+003;9.231183e-002
2.969964e+003;9.142397e-002
2.971892e+003;9.058712e-002
2.973821e+003;9.022010e-002
2.975750e+003;9.010796e-002
2.977678e+003;8.971805e-002
2.979607e+003;8.899296e-002
2.981535e+003;8.848981e-002
2.983464e+003;8.816767e-002
2.985392e+003;8.782590e-002
2.987321e+003;8.754957e-002
2.989249e+003;8.737758e-002
2.991178e+003;8.688131e-002
2.993106e+003;8.674473e-002
2.995035e+003;8.689599e-002
2.996964e+003;8.666953e-002
2.998892e+003;8.645648e-002
3.000821e+003;8.629680e-002
3.002749e+003;8.613681e-002
3.004678e+003;8.625767e-002
3.006606e+003;8.664142e-002
3.008535e+003;8.676165e-002
3.010463e+003;8.717418e-002
3.012392e+003;8.756473e-002
3.014321e+003;8.788431e-002
3.016249e+003;8.844761e-002
3.018177e+003;8.880153e-002
3.020106e+003;8.902835e-002
3.022035e+003;8.924352e-002
3.023963e+003;8.949707e-002
3.025892e+003;8.988201e-002
3.027820e+003;9.037206e-002
3.029749e+003;9.109316e-002
3.031677e+003;9.192768e-002
3.033606e+003;9.257521e-002
3.035534e+003;9.305619e-002
3.037463e+003;9.366193e-002
3.039392e+003;9.447150e-002
3.041320e+003;9.498543e-002
3.043249e+003;9.549443e-002
3.045177e+003;9.595849e-002
3.047106e+003;9.649748e-002
3.049034e+003;9.711682e-002
3.050963e+003;9.749290e-002
3.052891e+003;9.799360e-002
3.054820e+003;9.860123e-002
3.056749e+003;9.925893e-002
3.058677e+003;9.991821e-002
3.060606e+003;1.007657e-001
3.062534e+003;1.013392e-001
3.064463e+003;1.017548e-001
3.066391e+003;1.026642e-001
3.068320e+003;1.034915e-001
3.070248e+003;1.039476e-001
3.072177e+003;1.042794e-001
3.074105e+003;1.050361e-001
3.076034e+003;1.059408e-001
3.077963e+003;1.065583e-001
3.079891e+003;1.072668e-001
3.081820e+003;1.083968e-001
3.083748e+003;1.092241e-001
3.085677e+003;1.095842e-001
3.087605e+003;1.102831e-001
3.089534e+003;1.111813e-001
3.091462e+003;1.120457e-001
3.093391e+003;1.125154e-001
3.095320e+003;1.130131e-001
3.097248e+003;1.138213e-001
3.099177e+003;1.145753e-001
3.101105e+003;1.150837e-001
3.103034e+003;1.158823e-001
3.104962e+003;1.166839e-001
3.106891e+003;1.169337e-001
3.108819e+003;1.174593e-001
3.110748e+003;1.185715e-001
3.112677e+003;1.194378e-001
3.114605e+003;1.196226e-001
3.116533e+003;1.199643e-001
3.118462e+003;1.208912e-001
3.120391e+003;1.219784e-001
3.122319e+003;1.227534e-001
3.124248e+003;1.234177e-001
3.126176e+003;1.241341e-001
3.128105e+003;1.248456e-001
3.130033e+003;1.253971e-001
3.131962e+003;1.258769e-001
3.133890e+003;1.266741e-001
3.135819e+003;1.274842e-001
3.137748e+003;1.281901e-001
3.139676e+003;1.288504e-001
3.141605e+003;1.297831e-001
3.143533e+003;1.305615e-001
3.145462e+003;1.313093e-001
3.147390e+003;1.321436e-001
3.149319e+003;1.328134e-001
3.151247e+003;1.332651e-001
3.153176e+003;1.337851e-001
3.155104e+003;1.345568e-001
3.157033e+003;1.356095e-001
3.158962e+003;1.361376e-001
3.160890e+003;1.366860e-001
3.162819e+003;1.373612e-001
3.164747e+003;1.376763e-001
3.166676e+003;1.383076e-001
3.168604e+003;1.389760e-001
3.170533e+003;1.394913e-001
3.172461e+003;1.402086e-001
3.174390e+003;1.408991e-001
3.176319e+003;1.414502e-001
3.178247e+003;1.421323e-001
3.180176e+003;1.428990e-001
3.182104e+003;1.431596e-001
3.184033e+003;1.435267e-001
3.185961e+003;1.442519e-001
3.187890e+003;1.451680e-001
3.189818e+003;1.460748e-001
3.191747e+003;1.466705e-001
3.193676e+003;1.471229e-001
3.195604e+003;1.477522e-001
3.197532e+003;1.486008e-001
3.199461e+003;1.490997e-001
3.201390e+003;1.497108e-001
3.203318e+003;1.502846e-001
3.205247e+003;1.505128e-001
3.207175e+003;1.510384e-001
3.209104e+003;1.517585e-001
3.211032e+003;1.526403e-001
3.212961e+003;1.535400e-001
3.214889e+003;1.540636e-001
3.216818e+003;1.547862e-001
3.218747e+003;1.553881e-001
3.220675e+003;1.558801e-001
3.222604e+003;1.564668e-001
3.224532e+003;1.567937e-001
3.226461e+003;1.567069e-001
3.228389e+003;1.571755e-001
3.230318e+003;1.582665e-001
3.232246e+003;1.591150e-001
3.234175e+003;1.593603e-001
3.236104e+003;1.599291e-001
3.238032e+003;1.606262e-001
3.239961e+003;1.605806e-001
3.241889e+003;1.607646e-001
3.243818e+003;1.613543e-001
3.245746e+003;1.616909e-001
3.247675e+003;1.622045e-001
3.249603e+003;1.632223e-001
3.251532e+003;1.639395e-001
3.253460e+003;1.638640e-001
3.255389e+003;1.636793e-001
3.257318e+003;1.639448e-001
3.259246e+003;1.645629e-001
3.261175e+003;1.653253e-001
3.263103e+003;1.656970e-001
3.265032e+003;1.660332e-001
3.266960e+003;1.667576e-001
3.268889e+003;1.676815e-001
3.270817e+003;1.679514e-001
3.272746e+003;1.675982e-001
3.274675e+003;1.676574e-001
3.276603e+003;1.682807e-001
3.278531e+003;1.691576e-001
3.280460e+003;1.694829e-001
3.282389e+003;1.693863e-001
3.284317e+003;1.696488e-001
3.286246e+003;1.697678e-001
3.288174e+003;1.696626e-001
3.290103e+003;1.699882e-001
3.292031e+003;1.704144e-001
3.293960e+003;1.708907e-001
3.295888e+003;1.708866e-001
3.297817e+003;1.706658e-001
3.299746e+003;1.708869e-001
3.301674e+003;1.712295e-001
3.303603e+003;1.713909e-001
3.305531e+003;1.713716e-001
3.307460e+003;1.716310e-001
3.309388e+003;1.719680e-001
3.311317e+003;1.720317e-001
3.313245e+003;1.725623e-001
3.315174e+003;1.729162e-001
3.317103e+003;1.726105e-001
3.319031e+003;1.724449e-001
3.320960e+003;1.725737e-001
3.322888e+003;1.727409e-001
3.324817e+003;1.726227e-001
3.326745e+003;1.722222e-001
3.328674e+003;1.723788e-001
3.330602e+003;1.728603e-001
3.332531e+003;1.727559e-001
3.334459e+003;1.723679e-001
3.336388e+003;1.726256e-001
3.338317e+003;1.731337e-001
3.340245e+003;1.729632e-001
3.342174e+003;1.725199e-001
3.344102e+003;1.721870e-001
3.346031e+003;1.722571e-001
3.347959e+003;1.721843e-001
3.349888e+003;1.720569e-001
3.351816e+003;1.717540e-001
3.353745e+003;1.711503e-001
3.355674e+003;1.710795e-001
3.357602e+003;1.713960e-001
3.359531e+003;1.715056e-001
3.361459e+003;1.711236e-001
3.363388e+003;1.703703e-001
3.365316e+003;1.698429e-001
3.367245e+003;1.698428e-001
3.369173e+003;1.696014e-001
3.371102e+003;1.693017e-001
3.373031e+003;1.692730e-001
3.374959e+003;1.688243e-001
3.376887e+003;1.682412e-001
3.378816e+003;1.674626e-001
3.380745e+003;1.672879e-001
3.382673e+003;1.674934e-001
3.384602e+003;1.668517e-001
3.386530e+003;1.660644e-001
3.388459e+003;1.656913e-001
3.390387e+003;1.656324e-001
3.392316e+003;1.651000e-001
3.394244e+003;1.644780e-001
3.396173e+003;1.643169e-001
3.398102e+003;1.639732e-001
3.400030e+003;1.632650e-001
3.401959e+003;1.626709e-001
3.403887e+003;1.623037e-001
3.405816e+003;1.618680e-001
3.407744e+003;1.616685e-001
3.409673e+003;1.611268e-001
3.411601e+003;1.603645e-001
3.413530e+003;1.604792e-001
3.415458e+003;1.601869e-001
3.417387e+003;1.591301e-001
3.419316e+003;1.579210e-001
3.421244e+003;1.571444e-001
3.423173e+003;1.570818e-001
3.425101e+003;1.564041e-001
3.427030e+003;1.557634e-001
3.428958e+003;1.553799e-001
3.430887e+003;1.548040e-001
3.432815e+003;1.549230e-001
3.434744e+003;1.546802e-001
3.436673e+003;1.535621e-001
3.438601e+003;1.524912e-001
3.440530e+003;1.520679e-001
3.442458e+003;1.513626e-001
3.444387e+003;1.498919e-001
3.446315e+003;1.484516e-001
3.448244e+003;1.474600e-001
3.450172e+003;1.464867e-001
3.452101e+003;1.452253e-001
3.454030e+003;1.438879e-001
3.455958e+003;1.426602e-001
3.457886e+003;1.414536e-001
3.459815e+003;1.401127e-001
3.461744e+003;1.387895e-001
3.463672e+003;1.374807e-001
3.465601e+003;1.363232e-001
3.467529e+003;1.352101e-001
3.469458e+003;1.340706e-001
3.471386e+003;1.332890e-001
3.473315e+003;1.325759e-001
3.475243e+003;1.312820e-001
3.477172e+003;1.299817e-001
3.479101e+003;1.290351e-001
3.481029e+003;1.279340e-001
3.482958e+003;1.267457e-001
3.484886e+003;1.260913e-001
3.486815e+003;1.254726e-001
3.488743e+003;1.241178e-001
3.490672e+003;1.224833e-001
3.492600e+003;1.213727e-001
3.494529e+003;1.201881e-001
3.496458e+003;1.184122e-001
3.498386e+003;1.167121e-001
3.500315e+003;1.152579e-001
3.502243e+003;1.137789e-001
3.504172e+003;1.125520e-001
3.506100e+003;1.112547e-001
3.508029e+003;1.096372e-001
3.509957e+003;1.083310e-001
3.511886e+003;1.068711e-001
3.513814e+003;1.053993e-001
3.515743e+003;1.042323e-001
3.517672e+003;1.032125e-001
3.519600e+003;1.018944e-001
3.521529e+003;1.007201e-001
3.523457e+003;9.987205e-002
3.525386e+003;9.855621e-002
3.527314e+003;9.704787e-002
3.529243e+003;9.612057e-002
3.531171e+003;9.495479e-002
3.533100e+003;9.382384e-002
3.535029e+003;9.268390e-002
3.536957e+003;9.131189e-002
3.538885e+003;9.026068e-002
3.540814e+003;8.943429e-002
3.542743e+003;8.848286e-002
3.544671e+003;8.720990e-002
3.546600e+003;8.580224e-002
3.548528e+003;8.481104e-002
3.550457e+003;8.380566e-002
3.552385e+003;8.285007e-002
3.554314e+003;8.234818e-002
3.556242e+003;8.161169e-002
3.558171e+003;8.028676e-002
3.560100e+003;7.884626e-002
3.562028e+003;7.805452e-002
3.563957e+003;7.756605e-002
3.565885e+003;7.648525e-002
3.567814e+003;7.529815e-002
3.569742e+003;7.443257e-002
3.571671e+003;7.348100e-002
3.573599e+003;7.284974e-002
3.575528e+003;7.206485e-002
3.577457e+003;7.096755e-002
3.579385e+003;6.979662e-002
3.581314e+003;6.881189e-002
3.583242e+003;6.846496e-002
3.585171e+003;6.791989e-002
3.587099e+003;6.696349e-002
3.589028e+003;6.618997e-002
3.590956e+003;6.548001e-002
3.592885e+003;6.474929e-002
3.594813e+003;6.399241e-002
3.596742e+003;6.298228e-002
3.598671e+003;6.202498e-002
3.600599e+003;6.081187e-002
3.602528e+003;5.989631e-002
3.604456e+003;5.975461e-002
3.606385e+003;5.900536e-002
3.608313e+003;5.782105e-002
3.610242e+003;5.699664e-002
3.612170e+003;5.644743e-002
3.614099e+003;5.576259e-002
3.616028e+003;5.456855e-002
3.617956e+003;5.332083e-002
3.619885e+003;5.236233e-002
3.621813e+003;5.162676e-002
3.623742e+003;5.112164e-002
3.625670e+003;5.059614e-002
3.627599e+003;4.951564e-002
3.629527e+003;4.830489e-002
3.631456e+003;4.762263e-002
3.633385e+003;4.685691e-002
3.635313e+003;4.589064e-002
3.637241e+003;4.490311e-002
3.639170e+003;4.351452e-002
3.641099e+003;4.258493e-002
3.643027e+003;4.210006e-002
3.644956e+003;4.098337e-002
3.646884e+003;3.952112e-002
3.648813e+003;3.837005e-002
3.650741e+003;3.727899e-002
3.652670e+003;3.635795e-002
3.654598e+003;3.585329e-002
3.656527e+003;3.509785e-002
3.658456e+003;3.456024e-002
3.660384e+003;3.377603e-002
3.662313e+003;3.248243e-002
3.664241e+003;3.134051e-002
3.666170e+003;3.059530e-002
3.668098e+003;3.012619e-002
3.670027e+003;2.927058e-002
3.671955e+003;2.826131e-002
3.673884e+003;2.736560e-002
3.675813e+003;2.669928e-002
3.677741e+003;2.617713e-002
3.679669e+003;2.561213e-002
3.681598e+003;2.497756e-002
3.683527e+003;2.447932e-002
3.685455e+003;2.407563e-002
3.687384e+003;2.335120e-002
3.689312e+003;2.286613e-002
3.691241e+003;2.264807e-002
3.693169e+003;2.247772e-002
3.695098e+003;2.189570e-002
3.697026e+003;2.140720e-002
3.698955e+003;2.133766e-002
3.700884e+003;2.094133e-002
3.702812e+003;2.026397e-002
3.704741e+003;2.018163e-002
3.706669e+003;2.024942e-002
3.708598e+003;1.997682e-002
3.710526e+003;1.959730e-002
3.712455e+003;1.925755e-002
3.714383e+003;1.909396e-002
3.716312e+003;1.899038e-002
3.718240e+003;1.912879e-002
3.720169e+003;1.924782e-002
3.722098e+003;1.887367e-002
3.724026e+003;1.857292e-002
3.725955e+003;1.814345e-002
3.727883e+003;1.783060e-002
3.729812e+003;1.824230e-002
3.731740e+003;1.850514e-002
3.733669e+003;1.790838e-002
3.735597e+003;1.731093e-002
3.737526e+003;1.712907e-002
3.739455e+003;1.700298e-002
3.741383e+003;1.709006e-002
3.743312e+003;1.701128e-002
3.745240e+003;1.695298e-002
3.747169e+003;1.703668e-002
3.749097e+003;1.698058e-002
3.751026e+003;1.687733e-002
3.752954e+003;1.690317e-002
3.754883e+003;1.747033e-002
3.756812e+003;1.751890e-002
3.758740e+003;1.691995e-002
3.760668e+003;1.668137e-002
3.762597e+003;1.683331e-002
3.764526e+003;1.669663e-002
3.766454e+003;1.635908e-002
3.768383e+003;1.629134e-002
3.770311e+003;1.622251e-002
3.772240e+003;1.608392e-002
3.774168e+003;1.637074e-002
3.776097e+003;1.659544e-002
3.778025e+003;1.624507e-002
3.779954e+003;1.599305e-002
3.781883e+003;1.609805e-002
3.783811e+003;1.610444e-002
3.785740e+003;1.625542e-002
3.787668e+003;1.635488e-002
3.789597e+003;1.594138e-002
3.791525e+003;1.562537e-002
3.793454e+003;1.588330e-002
3.795382e+003;1.620806e-002
3.797311e+003;1.632577e-002
3.799240e+003;1.630723e-002
3.801168e+003;1.590186e-002
3.803097e+003;1.558161e-002
3.805025e+003;1.559961e-002
3.806954e+003;1.571726e-002
3.808882e+003;1.591657e-002
3.810811e+003;1.617491e-002
3.812739e+003;1.628514e-002
3.814668e+003;1.594537e-002
3.816596e+003;1.595207e-002
3.818525e+003;1.618973e-002
3.820454e+003;1.629061e-002
3.822382e+003;1.634717e-002
3.824311e+003;1.625508e-002
3.826239e+003;1.619850e-002
3.828168e+003;1.603836e-002
3.830096e+003;1.591973e-002
3.832025e+003;1.590873e-002
3.833953e+003;1.608006e-002
3.835882e+003;1.621288e-002
3.837811e+003;1.582237e-002
3.839739e+003;1.574839e-002
3.841667e+003;1.585883e-002
3.843596e+003;1.589069e-002
3.845525e+003;1.594723e-002
3.847453e+003;1.598693e-002
3.849382e+003;1.608749e-002
3.851310e+003;1.584532e-002
3.853239e+003;1.568847e-002
3.855167e+003;1.577378e-002
3.857096e+003;1.578182e-002
3.859024e+003;1.614581e-002
3.860953e+003;1.653124e-002
3.862882e+003;1.655978e-002
3.864810e+003;1.672634e-002
3.866739e+003;1.672355e-002
3.868667e+003;1.660023e-002
3.870596e+003;1.728193e-002
3.872524e+003;1.766809e-002
3.874453e+003;1.727265e-002
3.876381e+003;1.739655e-002
3.878310e+003;1.785832e-002
3.880239e+003;1.765263e-002
3.882167e+003;1.750738e-002
3.884096e+003;1.768004e-002
3.886024e+003;1.782255e-002
3.887953e+003;1.794081e-002
3.889881e+003;1.802801e-002
3.891810e+003;1.827689e-002
3.893738e+003;1.868408e-002
3.895667e+003;1.863133e-002
3.897595e+003;1.828923e-002
3.899524e+003;1.840865e-002
3.901453e+003;1.870635e-002
3.903381e+003;1.868127e-002
3.905310e+003;1.886091e-002
3.907238e+003;1.892967e-002
3.909167e+003;1.881807e-002
3.911095e+003;1.926289e-002
3.913024e+003;1.958339e-002
3.914952e+003;1.944220e-002
3.916881e+003;1.963037e-002
3.918810e+003;1.998709e-002
3.920738e+003;2.025133e-002
3.922667e+003;1.996884e-002
3.924595e+003;1.959317e-002
3.926524e+003;1.981656e-002
3.928452e+003;2.012537e-002
3.930381e+003;1.993415e-002
3.932309e+003;1.989863e-002
3.934238e+003;2.023751e-002
3.936167e+003;2.037636e-002
3.938095e+003;2.043970e-002
3.940023e+003;2.083227e-002
3.941952e+003;2.113867e-002
3.943881e+003;2.097983e-002
3.945809e+003;2.105794e-002
3.947738e+003;2.097972e-002
3.949666e+003;2.077360e-002
3.951595e+003;2.069536e-002
3.953523e+003;2.108646e-002
3.955452e+003;2.123657e-002
3.957380e+003;2.111682e-002
3.959309e+003;2.111651e-002
3.961238e+003;2.156853e-002
3.963166e+003;2.181757e-002
3.965095e+003;2.155756e-002
3.967023e+003;2.160175e-002
3.968952e+003;2.184538e-002
3.970880e+003;2.191138e-002
3.972809e+003;2.172163e-002
3.974737e+003;2.163842e-002
3.976666e+003;2.181855e-002
3.978594e+003;2.215643e-002
3.980523e+003;2.220323e-002
3.982452e+003;2.171794e-002
3.984380e+003;2.152173e-002
3.986309e+003;2.175288e-002
3.988237e+003;2.171466e-002
3.990166e+003;2.203664e-002
3.992094e+003;2.236297e-002
3.994023e+003;2.238648e-002
3.995951e+003;2.249733e-002
3.997880e+003;2.216850e-002
3.999809e+003;2.159440e-002
4.001737e+003;0.000000e+000
