3.992094e+002;0.000000e+000
4.011380e+002;0.000000e+000
4.030665e+002;0.000000e+000
4.049951e+002;0.000000e+000
4.069236e+002;0.000000e+000
4.088522e+002;0.000000e+000
4.107807e+002;0.000000e+000
4.127093e+002;0.000000e+000
4.146378e+002;0.000000e+000
4.165664e+002;0.000000e+000
4.184949e+002;0.000000e+000
4.204235e+002;0.000000e+000
4.223520e+002;0.000000e+000
4.242806e+002;0.000000e+000
4.262091e+002;0.000000e+000
4.281377e+002;0.000000e+000
4.300662e+002;0.000000e+000
4.319948e+002;0.000000e+000
4.339233e+002;0.000000e+000
4.358519e+002;0.000000e+000
4.377804e+002;0.000000e+000
4.397090e+002;0.000000e+000
4.416375e+002;0.000000e+000
4.435660e+002;0.000000e+000
4.454946e+002;0.000000e+000
4.474232e+002;0.000000e+000
4.493517e+002;0.000000e+000
4.512802e+002;0.000000e+000
4.532088e+002;0.000000e+000
4.551373e+002;0.000000e+000
4.570659e+002;0.000000e+000
4.589944e+002;0.000000e+000
4.609230e+002;0.000000e+000
4.628515e+002;0.000000e+000
4.647801e+002;0.000000e+000
4.667086e+002;0.000000e+000
4.686372e+002;0.000000e+000
4.705657e+002;0.000000e+000
4.724943e+002;0.000000e+000
4.744228e+002;0.000000e+000
4.763513e+002;0.000000e+000
4.782799e+002;0.000000e+000
4.802085e+002;0.000000e+000
4.821370e+002;0.000000e+000
4.840656e+002;0.000000e+000
4.859941e+002;0.000000e+000
4.879226e+002;0.000000e+000
4.898512e+002;0.000000e+000
4.917798e+002;0.000000e+000
4.937083e+002;0.000000e+000
4.956368e+002;0.000000e+000
4.975654e+002;0.000000e+000
4.994939e+002;0.000000e+000
5.014225e+002;0.000000e+000
5.033510e+002;0.000000e+000
5.052796e+002;0.000000e+000
5.072081e+002;0.000000e+000
5.091367e+002;0.000000e+000
5.110652e+002;0.000000e+000
5.129938e+002;0.000000e+000
5.149223e+002;0.000000e+000
5.168509e+002;0.000000e+000
5.187794e+002;0.000000e+000
5.207079e+002;0.000000e+000
5.226365e+002;0.000000e+000
5.245651e+002;0.000000e+000
5.264936e+002;0.000000e+000
5.284222e+002;0.000000e+000
5.303507e+002;0.000000e+000
5.322792e+002;0.000000e+000
5.342078e+002;0.000000e+000
5.361364e+002;0.000000e+000
5.380649e+002;0.000000e+000
5.399935e+002;0.000000e+000
5.419220e+002;0.000000e+000
5.438505e+002;0.000000e+000
5.457791e+002;0.000000e+000
5.477076e+002;0.000000e+000
5.496362e+002;0.000000e+000
5.515648e+002;0.000000e+000
5.534933e+002;0.000000e+000
5.554218e+002;0.000000e+000
5.573504e+002;0.000000e+000
5.592789e+002;0.000000e+000
5.612075e+002;0.000000e+000
5.631360e+002;0.000000e+000
5.650646e+002;0.000000e+000
5.669931e+002;0.000000e+000
5.689217e+002;0.000000e+000
5.708502e+002;0.000000e+000
5.727787e+002;0.000000e+000
5.747073e+002;0.000000e+000
5.766359e+002;0.000000e+000
5.785644e+002;0.000000e+000
5.804930e+002;0.000000e+000
5.824215e+002;0.000000e+000
5.843500e+002;0.000000e+000
5.862786e+002;0.000000e+000
5.882072e+002;0.000000e+000
5.901357e+002;0.000000e+000
5.920643e+002;0.000000e+000
5.939928e+002;0.000000e+000
5.959213e+002;0.000000e+000
5.978499e+002;0.000000e+000
5.997784e+002;2.011927e-001
6.017070e+002;1.980763e-001
6.036355e+002;1.966551e-001
6.055641e+002;1.985391e-001
6.074926e+002;2.033773e-001
6.094211e+002;2.062081e-001
6.113497e+002;2.043372e-001
6.132783e+002;2.008906e-001
6.152068e+002;1.996769e-001
6.171354e+002;2.011346e-001
6.190639e+002;1.990811e-001
6.209924e+002;1.928990e-001
6.229210e+002;1.927635e-001
6.248495e+002;1.938543e-001
6.267781e+002;1.905163e-001
6.287067e+002;1.881068e-001
6.306352e+002;1.892301e-001
6.325637e+002;1.927196e-001
6.344923e+002;1.933659e-001
6.364208e+002;1.899757e-001
6.383494e+002;1.889028e-001
6.402780e+002;1.892429e-001
6.422065e+002;1.853031e-001
6.441350e+002;1.829739e-001
6.460636e+002;1.862202e-001
6.479921e+002;1.870860e-001
6.499207e+002;1.848455e-001
6.518492e+002;1.837821e-001
6.537778e+002;1.838256e-001
6.557063e+002;1.858524e-001
6.576349e+002;1.868114e-001
6.595634e+002;1.862666e-001
6.614919e+002;1.856175e-001
6.634205e+002;1.850741e-001
6.653491e+002;1.867867e-001
6.672776e+002;1.891689e-001
6.692062e+002;1.885557e-001
6.711347e+002;1.857987e-001
6.730632e+002;1.810430e-001
6.749918e+002;1.736956e-001
6.769203e+002;1.660998e-001
6.788489e+002;1.608457e-001
6.807775e+002;1.571294e-001
6.827060e+002;1.545146e-001
6.846345e+002;1.532975e-001
6.865631e+002;1.521401e-001
6.884916e+002;1.504347e-001
6.904202e+002;1.486763e-001
6.923488e+002;1.487717e-001
6.942773e+002;1.494072e-001
6.962058e+002;1.493137e-001
6.981344e+002;1.485219e-001
7.000629e+002;1.473096e-001
7.019915e+002;1.469501e-001
7.039200e+002;1.463326e-001
7.058486e+002;1.460713e-001
7.077771e+002;1.455340e-001
7.097057e+002;1.447024e-001
7.116342e+002;1.439424e-001
7.135627e+002;1.424947e-001
7.154913e+002;1.418235e-001
7.174199e+002;1.424485e-001
7.193484e+002;1.418296e-001
7.212770e+002;1.404201e-001
7.232055e+002;1.394193e-001
7.251340e+002;1.386878e-001
7.270626e+002;1.386740e-001
7.289911e+002;1.375691e-001
7.309197e+002;1.368442e-001
7.328483e+002;1.361632e-001
7.347768e+002;1.332776e-001
7.367053e+002;1.319614e-001
7.386339e+002;1.315867e-001
7.405624e+002;1.310866e-001
7.424910e+002;1.315477e-001
7.444196e+002;1.320395e-001
7.463481e+002;1.316282e-001
7.482766e+002;1.308797e-001
7.502052e+002;1.293642e-001
7.521337e+002;1.278439e-001
7.540623e+002;1.279863e-001
7.559908e+002;1.275857e-001
7.579194e+002;1.267309e-001
7.598479e+002;1.266579e-001
7.617765e+002;1.262161e-001
7.637050e+002;1.257385e-001
7.656335e+002;1.254168e-001
7.675621e+002;1.247156e-001
7.694907e+002;1.240422e-001
7.714192e+002;1.234356e-001
7.733478e+002;1.225845e-001
7.752763e+002;1.218776e-001
7.772048e+002;1.209009e-001
7.791334e+002;1.202243e-001
7.810620e+002;1.196613e-001
7.829905e+002;1.190989e-001
7.849191e+002;1.187824e-001
7.868476e+002;1.183644e-001
7.887761e+002;1.175090e-001
7.907047e+002;1.165307e-001
7.926332e+002;1.159757e-001
7.945618e+002;1.160356e-001
7.964903e+002;1.159926e-001
7.984189e+002;1.155485e-001
8.003474e+002;1.148124e-001
8.022759e+002;1.142594e-001
8.042045e+002;1.139023e-001
8.061331e+002;1.141906e-001
8.080616e+002;1.146154e-001
8.099902e+002;1.142203e-001
8.119187e+002;1.136810e-001
8.138472e+002;1.138513e-001
8.157758e+002;1.142467e-001
8.177043e+002;1.144408e-001
8.196329e+002;1.142736e-001
8.215615e+002;1.141782e-001
8.234900e+002;1.137557e-001
8.254185e+002;1.138541e-001
8.273471e+002;1.138455e-001
8.292756e+002;1.136803e-001
8.312042e+002;1.136087e-001
8.331328e+002;1.136021e-001
8.350613e+002;1.136243e-001
8.369898e+002;1.138682e-001
8.389184e+002;1.139927e-001
8.408469e+002;1.136317e-001
8.427755e+002;1.130426e-001
8.447040e+002;1.126322e-001
8.466326e+002;1.127485e-001
8.485611e+002;1.128419e-001
8.504897e+002;1.127041e-001
8.524182e+002;1.128483e-001
8.543467e+002;1.128749e-001
8.562753e+002;1.130790e-001
8.582039e+002;1.135912e-001
8.601324e+002;1.143737e-001
8.620610e+002;1.152689e-001
8.639895e+002;1.159018e-001
8.659180e+002;1.161520e-001
8.678466e+002;1.168563e-001
8.697751e+002;1.183149e-001
8.717037e+002;1.202572e-001
8.736323e+002;1.219675e-001
8.755608e+002;1.233712e-001
8.774893e+002;1.250627e-001
8.794179e+002;1.276248e-001
8.813464e+002;1.308066e-001
8.832750e+002;1.341191e-001
8.852036e+002;1.375491e-001
8.871321e+002;1.412688e-001
8.890606e+002;1.448597e-001
8.909892e+002;1.478489e-001
8.929177e+002;1.495034e-001
8.948463e+002;1.501347e-001
8.967748e+002;1.494962e-001
8.987034e+002;1.477367e-001
9.006319e+002;1.453293e-001
9.025605e+002;1.422812e-001
9.044890e+002;1.396351e-001
9.064175e+002;1.374148e-001
9.083461e+002;1.350055e-001
9.102747e+002;1.328166e-001
9.122032e+002;1.314582e-001
9.141318e+002;1.308743e-001
9.160603e+002;1.306479e-001
9.179888e+002;1.305522e-001
9.199174e+002;1.309954e-001
9.218459e+002;1.320358e-001
9.237745e+002;1.329260e-001
9.257031e+002;1.335669e-001
9.276316e+002;1.340192e-001
9.295601e+002;1.346274e-001
9.314887e+002;1.357138e-001
9.334172e+002;1.369733e-001
9.353458e+002;1.380600e-001
9.372744e+002;1.392769e-001
9.392029e+002;1.407821e-001
9.411314e+002;1.424337e-001
9.430600e+002;1.440632e-001
9.449885e+002;1.459558e-001
9.469171e+002;1.480105e-001
9.488456e+002;1.504108e-001
9.507742e+002;1.531470e-001
9.527027e+002;1.559273e-001
9.546313e+002;1.590097e-001
9.565598e+002;1.625727e-001
9.584883e+002;1.657854e-001
9.604169e+002;1.690103e-001
9.623455e+002;1.722867e-001
9.642740e+002;1.758084e-001
9.662026e+002;1.793460e-001
9.681311e+002;1.825930e-001
9.700596e+002;1.862471e-001
9.719882e+002;1.908522e-001
9.739167e+002;1.962135e-001
9.758453e+002;2.021557e-001
9.777739e+002;2.092332e-001
9.797024e+002;2.176890e-001
9.816309e+002;2.268828e-001
9.835595e+002;2.369261e-001
9.854880e+002;2.471210e-001
9.874166e+002;2.564079e-001
9.893452e+002;2.646664e-001
9.912737e+002;2.715936e-001
9.932022e+002;2.762563e-001
9.951307e+002;2.793688e-001
9.970593e+002;2.816244e-001
9.989879e+002;2.831804e-001
1.000916e+003;2.843080e-001
1.002845e+003;2.855853e-001
1.004773e+003;2.877058e-001
1.006702e+003;2.912563e-001
1.008631e+003;2.958649e-001
1.010559e+003;3.007904e-001
1.012488e+003;3.063982e-001
1.014416e+003;3.117544e-001
1.016345e+003;3.158168e-001
1.018273e+003;3.190305e-001
1.020202e+003;3.207142e-001
1.022130e+003;3.206201e-001
1.024059e+003;3.196948e-001
1.025988e+003;3.176415e-001
1.027916e+003;3.146000e-001
1.029845e+003;3.107768e-001
1.031773e+003;3.075284e-001
1.033702e+003;3.040145e-001
1.035630e+003;2.997282e-001
1.037559e+003;2.962706e-001
1.039487e+003;2.937968e-001
1.041416e+003;2.917914e-001
1.043344e+003;2.900490e-001
1.045273e+003;2.881313e-001
1.047202e+003;2.856883e-001
1.049130e+003;2.833124e-001
1.051059e+003;2.817439e-001
1.052987e+003;2.801606e-001
1.054916e+003;2.780026e-001
1.056844e+003;2.756248e-001
1.058773e+003;2.729247e-001
1.060701e+003;2.697690e-001
1.062630e+003;2.660336e-001
1.064558e+003;2.612876e-001
1.066487e+003;2.564122e-001
1.068416e+003;2.524676e-001
1.070344e+003;2.491614e-001
1.072273e+003;2.457942e-001
1.074201e+003;2.418345e-001
1.076130e+003;2.372703e-001
1.078058e+003;2.325909e-001
1.079987e+003;2.288255e-001
1.081915e+003;2.252579e-001
1.083844e+003;2.215464e-001
1.085773e+003;2.179071e-001
1.087701e+003;2.150041e-001
1.089630e+003;2.122470e-001
1.091558e+003;2.087421e-001
1.093487e+003;2.047543e-001
1.095415e+003;2.009670e-001
1.097344e+003;1.972021e-001
1.099272e+003;1.928980e-001
1.101201e+003;1.885392e-001
1.103129e+003;1.848472e-001
1.105058e+003;1.821538e-001
1.106987e+003;1.799196e-001
1.108915e+003;1.774475e-001
1.110844e+003;1.750876e-001
1.112772e+003;1.726532e-001
1.114701e+003;1.700629e-001
1.116629e+003;1.668320e-001
1.118558e+003;1.631466e-001
1.120486e+003;1.596207e-001
1.122415e+003;1.558431e-001
1.124344e+003;1.516421e-001
1.126272e+003;1.474085e-001
1.128201e+003;1.437474e-001
1.130129e+003;1.400055e-001
1.132058e+003;1.366495e-001
1.133986e+003;1.338692e-001
1.135915e+003;1.311372e-001
1.137843e+003;1.289575e-001
1.139772e+003;1.278894e-001
1.141700e+003;1.276134e-001
1.143629e+003;1.278733e-001
1.145557e+003;1.287159e-001
1.147486e+003;1.301601e-001
1.149415e+003;1.319506e-001
1.151343e+003;1.336056e-001
1.153272e+003;1.350931e-001
1.155200e+003;1.360304e-001
1.157129e+003;1.357897e-001
1.159057e+003;1.344729e-001
1.160986e+003;1.317191e-001
1.162914e+003;1.274213e-001
1.164843e+003;1.224913e-001
1.166771e+003;1.176274e-001
1.168700e+003;1.130644e-001
1.170629e+003;1.086887e-001
1.172557e+003;1.045412e-001
1.174486e+003;1.009439e-001
1.176414e+003;9.783747e-002
1.178343e+003;9.550220e-002
1.180271e+003;9.406502e-002
1.182200e+003;9.288459e-002
1.184128e+003;9.223053e-002
1.186057e+003;9.252404e-002
1.187986e+003;9.325399e-002
1.189914e+003;9.480189e-002
1.191843e+003;9.696200e-002
1.193771e+003;9.894797e-002
1.195700e+003;1.004251e-001
1.197628e+003;1.013802e-001
1.199557e+003;1.017505e-001
1.201485e+003;1.012894e-001
1.203414e+003;1.000195e-001
1.205343e+003;9.854660e-002
1.207271e+003;9.713584e-002
1.209200e+003;9.579487e-002
1.211128e+003;9.516256e-002
1.213057e+003;9.525324e-002
1.214985e+003;9.584003e-002
1.216914e+003;9.693180e-002
1.218842e+003;9.843241e-002
1.220771e+003;9.975497e-002
1.222699e+003;1.010237e-001
1.224628e+003;1.024294e-001
1.226557e+003;1.032672e-001
1.228485e+003;1.035483e-001
1.230414e+003;1.040601e-001
1.232342e+003;1.046447e-001
1.234271e+003;1.052095e-001
1.236199e+003;1.053331e-001
1.238128e+003;1.050777e-001
1.240056e+003;1.047705e-001
1.241985e+003;1.045264e-001
1.243913e+003;1.044064e-001
1.245842e+003;1.046506e-001
1.247771e+003;1.050613e-001
1.249699e+003;1.056702e-001
1.251628e+003;1.063021e-001
1.253556e+003;1.069374e-001
1.255485e+003;1.073495e-001
1.257413e+003;1.076328e-001
1.259342e+003;1.080442e-001
1.261270e+003;1.080735e-001
1.263199e+003;1.078181e-001
1.265127e+003;1.073355e-001
1.267056e+003;1.068601e-001
1.268985e+003;1.058343e-001
1.270913e+003;1.046425e-001
1.272842e+003;1.042194e-001
1.274770e+003;1.038805e-001
1.276699e+003;1.032836e-001
1.278627e+003;1.031031e-001
1.280556e+003;1.026991e-001
1.282484e+003;1.020853e-001
1.284413e+003;1.018737e-001
1.286342e+003;1.021116e-001
1.288270e+003;1.027090e-001
1.290199e+003;1.036343e-001
1.292127e+003;1.048458e-001
1.294056e+003;1.060344e-001
1.295984e+003;1.069281e-001
1.297913e+003;1.078329e-001
1.299841e+003;1.089947e-001
1.301770e+003;1.103340e-001
1.303698e+003;1.113002e-001
1.305627e+003;1.122682e-001
1.307556e+003;1.135114e-001
1.309484e+003;1.147060e-001
1.311413e+003;1.156484e-001
1.313341e+003;1.160299e-001
1.315270e+003;1.158039e-001
1.317198e+003;1.149910e-001
1.319127e+003;1.137993e-001
1.321055e+003;1.128478e-001
1.322984e+003;1.124256e-001
1.324912e+003;1.123861e-001
1.326841e+003;1.122756e-001
1.328770e+003;1.121272e-001
1.330698e+003;1.120373e-001
1.332627e+003;1.120467e-001
1.334555e+003;1.120361e-001
1.336484e+003;1.117236e-001
1.338412e+003;1.110219e-001
1.340341e+003;1.105265e-001
1.342269e+003;1.102229e-001
1.344198e+003;1.098673e-001
1.346126e+003;1.095799e-001
1.348055e+003;1.093617e-001
1.349984e+003;1.095163e-001
1.351912e+003;1.098099e-001
1.353841e+003;1.102492e-001
1.355769e+003;1.109574e-001
1.357698e+003;1.114908e-001
1.359626e+003;1.119353e-001
1.361555e+003;1.123663e-001
1.363483e+003;1.128929e-001
1.365412e+003;1.128959e-001
1.367341e+003;1.123715e-001
1.369269e+003;1.116919e-001
1.371198e+003;1.107307e-001
1.373126e+003;1.094118e-001
1.375055e+003;1.082039e-001
1.376983e+003;1.070579e-001
1.378912e+003;1.055083e-001
1.380840e+003;1.038006e-001
1.382769e+003;1.023363e-001
1.384698e+003;1.009448e-001
1.386626e+003;9.972119e-002
1.388555e+003;9.907179e-002
1.390483e+003;9.860688e-002
1.392412e+003;9.816089e-002
1.394340e+003;9.780763e-002
1.396269e+003;9.779584e-002
1.398197e+003;9.779646e-002
1.400126e+003;9.781564e-002
1.402054e+003;9.779510e-002
1.403983e+003;9.749547e-002
1.405911e+003;9.741942e-002
1.407840e+003;9.750538e-002
1.409769e+003;9.741630e-002
1.411697e+003;9.738624e-002
1.413626e+003;9.740536e-002
1.415554e+003;9.721769e-002
1.417483e+003;9.654747e-002
1.419411e+003;9.619288e-002
1.421340e+003;9.684549e-002
1.423268e+003;9.687870e-002
1.425197e+003;9.667847e-002
1.427125e+003;9.641999e-002
1.429054e+003;9.594622e-002
1.430983e+003;9.585416e-002
1.432911e+003;9.575724e-002
1.434840e+003;9.474362e-002
1.436768e+003;9.362966e-002
1.438697e+003;9.361893e-002
1.440625e+003;9.331728e-002
1.442554e+003;9.277869e-002
1.444482e+003;9.214314e-002
1.446411e+003;9.123062e-002
1.448340e+003;9.029707e-002
1.450268e+003;8.958107e-002
1.452197e+003;8.869480e-002
1.454125e+003;8.729314e-002
1.456054e+003;8.520415e-002
1.457982e+003;8.466050e-002
1.459911e+003;8.530531e-002
1.461839e+003;8.480939e-002
1.463768e+003;8.346047e-002
1.465697e+003;8.242592e-002
1.467625e+003;8.177101e-002
1.469554e+003;8.067191e-002
1.471482e+003;7.880486e-002
1.473411e+003;7.748256e-002
1.475339e+003;7.696316e-002
1.477268e+003;7.635491e-002
1.479196e+003;7.559396e-002
1.481125e+003;7.457866e-002
1.483053e+003;7.354917e-002
1.484982e+003;7.231937e-002
1.486911e+003;7.083843e-002
1.488839e+003;6.961261e-002
1.490768e+003;6.904536e-002
1.492696e+003;6.889689e-002
1.494625e+003;6.797607e-002
1.496553e+003;6.697578e-002
1.498482e+003;6.700883e-002
1.500410e+003;6.744373e-002
1.502339e+003;6.740824e-002
1.504267e+003;6.588650e-002
1.506196e+003;6.430805e-002
1.508125e+003;6.469406e-002
1.510053e+003;6.534708e-002
1.511982e+003;6.515663e-002
1.513910e+003;6.501091e-002
1.515839e+003;6.465718e-002
1.517767e+003;6.444736e-002
1.519696e+003;6.371357e-002
1.521624e+003;6.326066e-002
1.523553e+003;6.380974e-002
1.525481e+003;6.380843e-002
1.527410e+003;6.416926e-002
1.529339e+003;6.477921e-002
1.531267e+003;6.447772e-002
1.533196e+003;6.379212e-002
1.535124e+003;6.417732e-002
1.537053e+003;6.369607e-002
1.538981e+003;6.194924e-002
1.540910e+003;6.196444e-002
1.542838e+003;6.322210e-002
1.544767e+003;6.402620e-002
1.546695e+003;6.450989e-002
1.548624e+003;6.436730e-002
1.550553e+003;6.414640e-002
1.552481e+003;6.418715e-002
1.554410e+003;6.405301e-002
1.556338e+003;6.328554e-002
1.558267e+003;6.188947e-002
1.560195e+003;6.269513e-002
1.562124e+003;6.476121e-002
1.564052e+003;6.558948e-002
1.565981e+003;6.568560e-002
1.567910e+003;6.530941e-002
1.569838e+003;6.517337e-002
1.571767e+003;6.600776e-002
1.573695e+003;6.596290e-002
1.575624e+003;6.501433e-002
1.577552e+003;6.566448e-002
1.579481e+003;6.691880e-002
1.581409e+003;6.735469e-002
1.583338e+003;6.767769e-002
1.585266e+003;6.802889e-002
1.587195e+003;6.826980e-002
1.589124e+003;6.846721e-002
1.591052e+003;6.881286e-002
1.592981e+003;6.914105e-002
1.594909e+003;6.940147e-002
1.596838e+003;6.974978e-002
1.598766e+003;7.007746e-002
1.600695e+003;7.036112e-002
1.602623e+003;7.077213e-002
1.604552e+003;7.120062e-002
1.606480e+003;7.146583e-002
1.608409e+003;7.154654e-002
1.610338e+003;7.175182e-002
1.612266e+003;7.210362e-002
1.614195e+003;7.196532e-002
1.616123e+003;7.136460e-002
1.618052e+003;7.203603e-002
1.619980e+003;7.294924e-002
1.621909e+003;7.299737e-002
1.623837e+003;7.330684e-002
1.625766e+003;7.388511e-002
1.627694e+003;7.418633e-002
1.629623e+003;7.431169e-002
1.631552e+003;7.414678e-002
1.633480e+003;7.345290e-002
1.635409e+003;7.291804e-002
1.637337e+003;7.379230e-002
1.639266e+003;7.444370e-002
1.641194e+003;7.448763e-002
1.643123e+003;7.434087e-002
1.645051e+003;7.344434e-002
1.646980e+003;7.286952e-002
1.648909e+003;7.313576e-002
1.650837e+003;7.192832e-002
1.652766e+003;6.975608e-002
1.654694e+003;7.070934e-002
1.656623e+003;7.215083e-002
1.658551e+003;7.213175e-002
1.660480e+003;7.154009e-002
1.662408e+003;7.080723e-002
1.664337e+003;7.055110e-002
1.666266e+003;7.013684e-002
1.668194e+003;6.914994e-002
1.670123e+003;6.861503e-002
1.672051e+003;6.855357e-002
1.673980e+003;6.761834e-002
1.675908e+003;6.675953e-002
1.677837e+003;6.686249e-002
1.679765e+003;6.667596e-002
1.681694e+003;6.557903e-002
1.683622e+003;6.338099e-002
1.685551e+003;6.318646e-002
1.687479e+003;6.416330e-002
1.689408e+003;6.387099e-002
1.691337e+003;6.328143e-002
1.693265e+003;6.235545e-002
1.695194e+003;6.082723e-002
1.697122e+003;6.059471e-002
1.699051e+003;5.981622e-002
1.700979e+003;5.935026e-002
1.702908e+003;6.033510e-002
1.704836e+003;6.028499e-002
1.706765e+003;6.007537e-002
1.708693e+003;5.973572e-002
1.710622e+003;5.936541e-002
1.712551e+003;5.899808e-002
1.714479e+003;5.821281e-002
1.716408e+003;5.714530e-002
1.718336e+003;5.705959e-002
1.720265e+003;5.796211e-002
1.722193e+003;5.808458e-002
1.724122e+003;5.776075e-002
1.726050e+003;5.752408e-002
1.727979e+003;5.717342e-002
1.729908e+003;5.659020e-002
1.731836e+003;5.533524e-002
1.733765e+003;5.414155e-002
1.735693e+003;5.474855e-002
1.737622e+003;5.485808e-002
1.739550e+003;5.394920e-002
1.741479e+003;5.393527e-002
1.743407e+003;5.394533e-002
1.745336e+003;5.373563e-002
1.747265e+003;5.356951e-002
1.749193e+003;5.344376e-002
1.751122e+003;5.360005e-002
1.753050e+003;5.424155e-002
1.754979e+003;5.445424e-002
1.756907e+003;5.453541e-002
1.758836e+003;5.489580e-002
1.760764e+003;5.481797e-002
1.762693e+003;5.470198e-002
1.764621e+003;5.492602e-002
1.766550e+003;5.473039e-002
1.768479e+003;5.435764e-002
1.770407e+003;5.416726e-002
1.772336e+003;5.410244e-002
1.774264e+003;5.463994e-002
1.776193e+003;5.501225e-002
1.778121e+003;5.500579e-002
1.780050e+003;5.493636e-002
1.781978e+003;5.496442e-002
1.783907e+003;5.487767e-002
1.785835e+003;5.488583e-002
1.787764e+003;5.473302e-002
1.789693e+003;5.424676e-002
1.791621e+003;5.380328e-002
1.793550e+003;5.383921e-002
1.795478e+003;5.414215e-002
1.797407e+003;5.394541e-002
1.799335e+003;5.363263e-002
1.801264e+003;5.358296e-002
1.803192e+003;5.392110e-002
1.805121e+003;5.412792e-002
1.807049e+003;5.393070e-002
1.808978e+003;5.361985e-002
1.810907e+003;5.361636e-002
1.812835e+003;5.360530e-002
1.814764e+003;5.352917e-002
1.816692e+003;5.353592e-002
1.818621e+003;5.370803e-002
1.820549e+003;5.374556e-002
1.822478e+003;5.350864e-002
1.824406e+003;5.318805e-002
1.826335e+003;5.306819e-002
1.828264e+003;5.282051e-002
1.830192e+003;5.263671e-002
1.832121e+003;5.285718e-002
1.834049e+003;5.293705e-002
1.835978e+003;5.284068e-002
1.837906e+003;5.285389e-002
1.839835e+003;5.277408e-002
1.841763e+003;5.227782e-002
1.843692e+003;5.184960e-002
1.845620e+003;5.218280e-002
1.847549e+003;5.249632e-002
1.849478e+003;5.251090e-002
1.851406e+003;5.242240e-002
1.853335e+003;5.226280e-002
1.855263e+003;5.225144e-002
1.857192e+003;5.231908e-002
1.859120e+003;5.214648e-002
1.861049e+003;5.193663e-002
1.862977e+003;5.190015e-002
1.864906e+003;5.185538e-002
1.866834e+003;5.147696e-002
1.868763e+003;5.130599e-002
1.870692e+003;5.172215e-002
1.872620e+003;5.192442e-002
1.874549e+003;5.182268e-002
1.876477e+003;5.158012e-002
1.878406e+003;5.154053e-002
1.880334e+003;5.170505e-002
1.882263e+003;5.169293e-002
1.884191e+003;5.158433e-002
1.886120e+003;5.154706e-002
1.888048e+003;5.142869e-002
1.889977e+003;5.151874e-002
1.891906e+003;5.186733e-002
1.893834e+003;5.172973e-002
1.895763e+003;5.150971e-002
1.897691e+003;5.159042e-002
1.899620e+003;5.175041e-002
1.901548e+003;5.181308e-002
1.903477e+003;5.182223e-002
1.905405e+003;5.176840e-002
1.907334e+003;5.171689e-002
1.909262e+003;5.190908e-002
1.911191e+003;5.215907e-002
1.913120e+003;5.223126e-002
1.915048e+003;5.230443e-002
1.916977e+003;5.226766e-002
1.918905e+003;5.232387e-002
1.920834e+003;5.252497e-002
1.922762e+003;5.257062e-002
1.924691e+003;5.261562e-002
1.926619e+003;5.280858e-002
1.928548e+003;5.294798e-002
1.930477e+003;5.300050e-002
1.932405e+003;5.302929e-002
1.934334e+003;5.313517e-002
1.936262e+003;5.298901e-002
1.938191e+003;5.286991e-002
1.940119e+003;5.300072e-002
1.942048e+003;5.296913e-002
1.943976e+003;5.311967e-002
1.945905e+003;5.329693e-002
1.947833e+003;5.324940e-002
1.949762e+003;5.356441e-002
1.951691e+003;5.376237e-002
1.953619e+003;5.376004e-002
1.955548e+003;5.384510e-002
1.957476e+003;5.411873e-002
1.959405e+003;5.425119e-002
1.961333e+003;5.412248e-002
1.963262e+003;5.397167e-002
1.965190e+003;5.393595e-002
1.967119e+003;5.416880e-002
1.969047e+003;5.450558e-002
1.970976e+003;5.452407e-002
1.972905e+003;5.450990e-002
1.974833e+003;5.456532e-002
1.976762e+003;5.458207e-002
1.978690e+003;5.469950e-002
1.980619e+003;5.483745e-002
1.982547e+003;5.489403e-002
1.984476e+003;5.483568e-002
1.986404e+003;5.474723e-002
1.988333e+003;5.468060e-002
1.990261e+003;5.480887e-002
1.992190e+003;5.494468e-002
1.994119e+003;5.492347e-002
1.996047e+003;5.498912e-002
1.997976e+003;5.506995e-002
1.999904e+003;5.511603e-002
2.001833e+003;5.531017e-002
2.003761e+003;5.533351e-002
2.005690e+003;5.517095e-002
2.007618e+003;5.525776e-002
2.009547e+003;5.551834e-002
2.011476e+003;5.575686e-002
2.013404e+003;5.579801e-002
2.015333e+003;5.570883e-002
2.017261e+003;5.578700e-002
2.019190e+003;5.599781e-002
2.021118e+003;5.613798e-002
2.023047e+003;5.595560e-002
2.024975e+003;5.616193e-002
2.026904e+003;5.639857e-002
2.028833e+003;5.606201e-002
2.030761e+003;5.606167e-002
2.032690e+003;5.628502e-002
2.034618e+003;5.623290e-002
2.036547e+003;5.620510e-002
2.038475e+003;5.643709e-002
2.040404e+003;5.663425e-002
2.042332e+003;5.658914e-002
2.044261e+003;5.657420e-002
2.046189e+003;5.655959e-002
2.048118e+003;5.653536e-002
2.050047e+003;5.660484e-002
2.051975e+003;5.675201e-002
2.053904e+003;5.673271e-002
2.055832e+003;5.648792e-002
2.057761e+003;5.645087e-002
2.059689e+003;5.663244e-002
2.061618e+003;5.676775e-002
2.063546e+003;5.643313e-002
2.065475e+003;5.614390e-002
2.067404e+003;5.638314e-002
2.069332e+003;5.674521e-002
2.071260e+003;5.673773e-002
2.073189e+003;5.651743e-002
2.075118e+003;5.641608e-002
2.077046e+003;5.648479e-002
2.078975e+003;5.661213e-002
2.080903e+003;5.683981e-002
2.082832e+003;5.702966e-002
2.084760e+003;5.709511e-002
2.086689e+003;5.691614e-002
2.088617e+003;5.676575e-002
2.090546e+003;5.662863e-002
2.092475e+003;5.660281e-002
2.094403e+003;5.680884e-002
2.096332e+003;5.698433e-002
2.098260e+003;5.679702e-002
2.100189e+003;5.651626e-002
2.102117e+003;5.660228e-002
2.104046e+003;5.695214e-002
2.105974e+003;5.711763e-002
2.107903e+003;5.704814e-002
2.109832e+003;5.684169e-002
2.111760e+003;5.666679e-002
2.113688e+003;5.676243e-002
2.115617e+003;5.684793e-002
2.117546e+003;5.691716e-002
2.119474e+003;5.688135e-002
2.121403e+003;5.676711e-002
2.123331e+003;5.685514e-002
2.125260e+003;5.682088e-002
2.127188e+003;5.687217e-002
2.129117e+003;5.698531e-002
2.131045e+003;5.712179e-002
2.132974e+003;5.718200e-002
2.134903e+003;5.706129e-002
2.136831e+003;5.698282e-002
2.138760e+003;5.704327e-002
2.140688e+003;5.720804e-002
2.142617e+003;5.716594e-002
2.144545e+003;5.704689e-002
2.146474e+003;5.694523e-002
2.148402e+003;5.673267e-002
2.150331e+003;5.677534e-002
2.152260e+003;5.689163e-002
2.154188e+003;5.678444e-002
2.156117e+003;5.677066e-002
2.158045e+003;5.670103e-002
2.159974e+003;5.662934e-002
2.161902e+003;5.675707e-002
2.163831e+003;5.670738e-002
2.165759e+003;5.646947e-002
2.167688e+003;5.636843e-002
2.169616e+003;5.636118e-002
2.171545e+003;5.615917e-002
2.173474e+003;5.597373e-002
2.175402e+003;5.592138e-002
2.177331e+003;5.603279e-002
2.179259e+003;5.615555e-002
2.181188e+003;5.608436e-002
2.183116e+003;5.589631e-002
2.185045e+003;5.566939e-002
2.186973e+003;5.570443e-002
2.188902e+003;5.581270e-002
2.190831e+003;5.570311e-002
2.192759e+003;5.554444e-002
2.194688e+003;5.530826e-002
2.196616e+003;5.526931e-002
2.198545e+003;5.551134e-002
2.200473e+003;5.570661e-002
2.202402e+003;5.579586e-002
2.204330e+003;5.554436e-002
2.206259e+003;5.519326e-002
2.208188e+003;5.511956e-002
2.210116e+003;5.514842e-002
2.212044e+003;5.525256e-002
2.213973e+003;5.519830e-002
2.215902e+003;5.506333e-002
2.217830e+003;5.507405e-002
2.219759e+003;5.494306e-002
2.221687e+003;5.470615e-002
2.223616e+003;5.466650e-002
2.225544e+003;5.470747e-002
2.227473e+003;5.477467e-002
2.229401e+003;5.471412e-002
2.231330e+003;5.459808e-002
2.233259e+003;5.476933e-002
2.235187e+003;5.478019e-002
2.237116e+003;5.443632e-002
2.239044e+003;5.440282e-002
2.240973e+003;5.448864e-002
2.242901e+003;5.434585e-002
2.244830e+003;5.445796e-002
2.246758e+003;5.450423e-002
2.248687e+003;5.413216e-002
2.250615e+003;5.389131e-002
2.252544e+003;5.386093e-002
2.254473e+003;5.386599e-002
2.256401e+003;5.400326e-002
2.258330e+003;5.410105e-002
2.260258e+003;5.391584e-002
2.262187e+003;5.374838e-002
2.264115e+003;5.357730e-002
2.266044e+003;5.347528e-002
2.267972e+003;5.369014e-002
2.269901e+003;5.390185e-002
2.271830e+003;5.362768e-002
2.273758e+003;5.327899e-002
2.275687e+003;5.321412e-002
2.277615e+003;5.325771e-002
2.279544e+003;5.321138e-002
2.281472e+003;5.334421e-002
2.283401e+003;5.335991e-002
2.285329e+003;5.337100e-002
2.287258e+003;5.342638e-002
2.289187e+003;5.340603e-002
2.291115e+003;5.322524e-002
2.293043e+003;5.294982e-002
2.294972e+003;5.304085e-002
2.296901e+003;5.311679e-002
2.298829e+003;5.299021e-002
2.300758e+003;5.303277e-002
2.302686e+003;5.291272e-002
2.304615e+003;5.294267e-002
2.306543e+003;5.290385e-002
2.308472e+003;5.298148e-002
2.310400e+003;5.322816e-002
2.312329e+003;5.311416e-002
2.314258e+003;5.298515e-002
2.316186e+003;5.286912e-002
2.318115e+003;5.297160e-002
2.320043e+003;5.319228e-002
2.321972e+003;5.322318e-002
2.323900e+003;5.331888e-002
2.325829e+003;5.322599e-002
2.327757e+003;5.295584e-002
2.329686e+003;5.306901e-002
2.331615e+003;5.330705e-002
2.333543e+003;5.322599e-002
2.335472e+003;5.313270e-002
2.337400e+003;5.332094e-002
2.339329e+003;5.369566e-002
2.341257e+003;5.385223e-002
2.343186e+003;5.358154e-002
2.345114e+003;5.351115e-002
2.347043e+003;5.382004e-002
2.348971e+003;5.401782e-002
2.350900e+003;5.394784e-002
2.352829e+003;5.411813e-002
2.354757e+003;5.412019e-002
2.356686e+003;5.394690e-002
2.358614e+003;5.405166e-002
2.360543e+003;5.434825e-002
2.362471e+003;5.443065e-002
2.364400e+003;5.426306e-002
2.366328e+003;5.424057e-002
2.368257e+003;5.451193e-002
2.370186e+003;5.452846e-002
2.372114e+003;5.440447e-002
2.374042e+003;5.451873e-002
2.375971e+003;5.473032e-002
2.377900e+003;5.466628e-002
2.379828e+003;5.464734e-002
2.381757e+003;5.482568e-002
2.383685e+003;5.501684e-002
2.385614e+003;5.522867e-002
2.387542e+003;5.526731e-002
2.389471e+003;5.519703e-002
2.391399e+003;5.508951e-002
2.393328e+003;5.508432e-002
2.395257e+003;5.520083e-002
2.397185e+003;5.526972e-002
2.399114e+003;5.532406e-002
2.401042e+003;5.536125e-002
2.402971e+003;5.540201e-002
2.404899e+003;5.557799e-002
2.406828e+003;5.570126e-002
2.408756e+003;5.596050e-002
2.410685e+003;5.619315e-002
2.412614e+003;5.619522e-002
2.414542e+003;5.611430e-002
2.416471e+003;5.617211e-002
2.418399e+003;5.627985e-002
2.420328e+003;5.635994e-002
2.422256e+003;5.642442e-002
2.424185e+003;5.667529e-002
2.426113e+003;5.700681e-002
2.428042e+003;5.674891e-002
2.429970e+003;5.642559e-002
2.431899e+003;5.655396e-002
2.433828e+003;5.673339e-002
2.435756e+003;5.693756e-002
2.437685e+003;5.739212e-002
2.439613e+003;5.759066e-002
2.441542e+003;5.759789e-002
2.443470e+003;5.778895e-002
2.445399e+003;5.808519e-002
2.447327e+003;5.818708e-002
2.449256e+003;5.819261e-002
2.451185e+003;5.826718e-002
2.453113e+003;5.848594e-002
2.455042e+003;5.879893e-002
2.456970e+003;5.883915e-002
2.458899e+003;5.895978e-002
2.460827e+003;5.909115e-002
2.462756e+003;5.873399e-002
2.464684e+003;5.877044e-002
2.466613e+003;5.902632e-002
2.468542e+003;5.888104e-002
2.470470e+003;5.890005e-002
2.472398e+003;5.900256e-002
2.474327e+003;5.934125e-002
2.476256e+003;5.967329e-002
2.478184e+003;5.975883e-002
2.480113e+003;5.959613e-002
2.482041e+003;5.945412e-002
2.483970e+003;5.950162e-002
2.485898e+003;5.969724e-002
2.487827e+003;5.990973e-002
2.489755e+003;5.980918e-002
2.491684e+003;5.981416e-002
2.493613e+003;5.980154e-002
2.495541e+003;5.967774e-002
2.497470e+003;5.970317e-002
2.499398e+003;5.986535e-002
2.501327e+003;6.003104e-002
2.503255e+003;6.005079e-002
2.505184e+003;5.999418e-002
2.507112e+003;6.000194e-002
2.509041e+003;5.992422e-002
2.510969e+003;5.986181e-002
2.512898e+003;5.979975e-002
2.514827e+003;6.000346e-002
2.516755e+003;6.015688e-002
2.518684e+003;6.008149e-002
2.520612e+003;6.042580e-002
2.522541e+003;6.049214e-002
2.524469e+003;6.045112e-002
2.526398e+003;6.037595e-002
2.528326e+003;6.034153e-002
2.530255e+003;6.044354e-002
2.532184e+003;6.051129e-002
2.534112e+003;6.047386e-002
2.536041e+003;6.049156e-002
2.537969e+003;6.042823e-002
2.539898e+003;6.026471e-002
2.541826e+003;6.049899e-002
2.543755e+003;6.068352e-002
2.545683e+003;6.061048e-002
2.547612e+003;6.064855e-002
2.549541e+003;6.078435e-002
2.551469e+003;6.088944e-002
2.553397e+003;6.079647e-002
2.555326e+003;6.081633e-002
2.557255e+003;6.076259e-002
2.559183e+003;6.092665e-002
2.561112e+003;6.121836e-002
2.563040e+003;6.113989e-002
2.564969e+003;6.115893e-002
2.566897e+003;6.137427e-002
2.568826e+003;6.148579e-002
2.570754e+003;6.126754e-002
2.572683e+003;6.118315e-002
2.574612e+003;6.137022e-002
2.576540e+003;6.163680e-002
2.578469e+003;6.190724e-002
2.580397e+003;6.189968e-002
2.582326e+003;6.168957e-002
2.584254e+003;6.162553e-002
2.586183e+003;6.168652e-002
2.588111e+003;6.171764e-002
2.590040e+003;6.170687e-002
2.591969e+003;6.179797e-002
2.593897e+003;6.190464e-002
2.595826e+003;6.193903e-002
2.597754e+003;6.195077e-002
2.599683e+003;6.210040e-002
2.601611e+003;6.222454e-002
2.603540e+003;6.239650e-002
2.605468e+003;6.237297e-002
2.607397e+003;6.241004e-002
2.609325e+003;6.269509e-002
2.611254e+003;6.289618e-002
2.613183e+003;6.283253e-002
2.615111e+003;6.273651e-002
2.617040e+003;6.279999e-002
2.618968e+003;6.283824e-002
2.620897e+003;6.284460e-002
2.622825e+003;6.302155e-002
2.624754e+003;6.325798e-002
2.626682e+003;6.353404e-002
2.628611e+003;6.351367e-002
2.630540e+003;6.338287e-002
2.632468e+003;6.357864e-002
2.634396e+003;6.376733e-002
2.636325e+003;6.388369e-002
2.638254e+003;6.410911e-002
2.640182e+003;6.417099e-002
2.642111e+003;6.417271e-002
2.644039e+003;6.424090e-002
2.645968e+003;6.434452e-002
2.647896e+003;6.444897e-002
2.649825e+003;6.457978e-002
2.651753e+003;6.483533e-002
2.653682e+003;6.511675e-002
2.655611e+003;6.523348e-002
2.657539e+003;6.508322e-002
2.659468e+003;6.480794e-002
2.661396e+003;6.479272e-002
2.663325e+003;6.512167e-002
2.665253e+003;6.539461e-002
2.667182e+003;6.553908e-002
2.669110e+003;6.555114e-002
2.671039e+003;6.570452e-002
2.672968e+003;6.593890e-002
2.674896e+003;6.599094e-002
2.676825e+003;6.597751e-002
2.678753e+003;6.586205e-002
2.680682e+003;6.588083e-002
2.682610e+003;6.593806e-002
2.684539e+003;6.620128e-002
2.686467e+003;6.660925e-002
2.688396e+003;6.668601e-002
2.690324e+003;6.668531e-002
2.692253e+003;6.680416e-002
2.694182e+003;6.697322e-002
2.696110e+003;6.722791e-002
2.698039e+003;6.716436e-002
2.699967e+003;6.713713e-002
2.701896e+003;6.746703e-002
2.703824e+003;6.761691e-002
2.705753e+003;6.772765e-002
2.707681e+003;6.771057e-002
2.709610e+003;6.772955e-002
2.711539e+003;6.801474e-002
2.713467e+003;6.805485e-002
2.715396e+003;6.803443e-002
2.717324e+003;6.814202e-002
2.719253e+003;6.813841e-002
2.721181e+003;6.823309e-002
2.723110e+003;6.830520e-002
2.725038e+003;6.830458e-002
2.726967e+003;6.842791e-002
2.728896e+003;6.845080e-002
2.730824e+003;6.843435e-002
2.732752e+003;6.847287e-002
2.734681e+003;6.845751e-002
2.736610e+003;6.842244e-002
2.738538e+003;6.860300e-002
2.740467e+003;6.883938e-002
2.742395e+003;6.894601e-002
2.744324e+003;6.894966e-002
2.746252e+003;6.899560e-002
2.748181e+003;6.914007e-002
2.750109e+003;6.933881e-002
2.752038e+003;6.955186e-002
2.753967e+003;6.964019e-002
2.755895e+003;6.947958e-002
2.757824e+003;6.949712e-002
2.759752e+003;6.973413e-002
2.761681e+003;6.991898e-002
2.763609e+003;6.981593e-002
2.765538e+003;6.991345e-002
2.767466e+003;7.016920e-002
2.769395e+003;7.036490e-002
2.771323e+003;7.039050e-002
2.773252e+003;7.047362e-002
2.775181e+003;7.079373e-002
2.777109e+003;7.098795e-002
2.779038e+003;7.098476e-002
2.780966e+003;7.087802e-002
2.782895e+003;7.107291e-002
2.784823e+003;7.145076e-002
2.786752e+003;7.164614e-002
2.788680e+003;7.162578e-002
2.790609e+003;7.173571e-002
2.792538e+003;7.185595e-002
2.794466e+003;7.220796e-002
2.796395e+003;7.257415e-002
2.798323e+003;7.279319e-002
2.800252e+003;7.299529e-002
2.802180e+003;7.329887e-002
2.804109e+003;7.363764e-002
2.806037e+003;7.370124e-002
2.807966e+003;7.376599e-002
2.809895e+003;7.387478e-002
2.811823e+003;7.431063e-002
2.813751e+003;7.478911e-002
2.815680e+003;7.498592e-002
2.817609e+003;7.532904e-002
2.819537e+003;7.557653e-002
2.821466e+003;7.578107e-002
2.823394e+003;7.573606e-002
2.825323e+003;7.568908e-002
2.827251e+003;7.614468e-002
2.829180e+003;7.669002e-002
2.831108e+003;7.709087e-002
2.833037e+003;7.719433e-002
2.834966e+003;7.761914e-002
2.836894e+003;7.845028e-002
2.838823e+003;7.878726e-002
2.840751e+003;7.910701e-002
2.842680e+003;7.942659e-002
2.844608e+003;7.958718e-002
2.846537e+003;7.967360e-002
2.848465e+003;7.971623e-002
2.850394e+003;7.991882e-002
2.852323e+003;8.024152e-002
2.854251e+003;8.066286e-002
2.856180e+003;8.156022e-002
2.858108e+003;8.296525e-002
2.860037e+003;8.423800e-002
2.861965e+003;8.528277e-002
2.863894e+003;8.617467e-002
2.865822e+003;8.692255e-002
2.867751e+003;8.747531e-002
2.869679e+003;8.829324e-002
2.871608e+003;8.914135e-002
2.873536e+003;8.972848e-002
2.875465e+003;9.004917e-002
2.877394e+003;9.063161e-002
2.879322e+003;9.107105e-002
2.881251e+003;9.145882e-002
2.883179e+003;9.214810e-002
2.885108e+003;9.225097e-002
2.887036e+003;9.204566e-002
2.888965e+003;9.199122e-002
2.890893e+003;9.180895e-002
2.892822e+003;9.201240e-002
2.894750e+003;9.181685e-002
2.896679e+003;9.116938e-002
2.898608e+003;9.080886e-002
2.900536e+003;9.049508e-002
2.902465e+003;8.975085e-002
2.904393e+003;8.911198e-002
2.906322e+003;8.875898e-002
2.908250e+003;8.806401e-002
2.910179e+003;8.708562e-002
2.912107e+003;8.605654e-002
2.914036e+003;8.525668e-002
2.915965e+003;8.436006e-002
2.917893e+003;8.308752e-002
2.919822e+003;8.214328e-002
2.921750e+003;8.142760e-002
2.923679e+003;8.080751e-002
2.925607e+003;8.009291e-002
2.927536e+003;7.943586e-002
2.929464e+003;7.892966e-002
2.931393e+003;7.889477e-002
2.933322e+003;7.894830e-002
2.935250e+003;7.865873e-002
2.937178e+003;7.812242e-002
2.939107e+003;7.763804e-002
2.941036e+003;7.700205e-002
2.942964e+003;7.652709e-002
2.944893e+003;7.654962e-002
2.946821e+003;7.652701e-002
2.948750e+003;7.573933e-002
2.950678e+003;7.485674e-002
2.952607e+003;7.434849e-002
2.954535e+003;7.346024e-002
2.956464e+003;7.245915e-002
2.958393e+003;7.207737e-002
2.960321e+003;7.177401e-002
2.962250e+003;7.141013e-002
2.964178e+003;7.122783e-002
2.966107e+003;7.104871e-002
2.968035e+003;7.102568e-002
2.969964e+003;7.112201e-002
2.971892e+003;7.097344e-002
2.973821e+003;7.073563e-002
2.975750e+003;7.071617e-002
2.977678e+003;7.072779e-002
2.979607e+003;7.045428e-002
2.981535e+003;7.046952e-002
2.983464e+003;7.055520e-002
2.985392e+003;7.045986e-002
2.987321e+003;7.029957e-002
2.989249e+003;7.022563e-002
2.991178e+003;7.026357e-002
2.993106e+003;7.007551e-002
2.995035e+003;6.998340e-002
2.996964e+003;7.016975e-002
2.998892e+003;7.047829e-002
3.000821e+003;7.045440e-002
3.002749e+003;7.019974e-002
3.004678e+003;7.011842e-002
3.006606e+003;7.034323e-002
3.008535e+003;7.071285e-002
3.010463e+003;7.077236e-002
3.012392e+003;7.073488e-002
3.014321e+003;7.097543e-002
3.016249e+003;7.122408e-002
3.018177e+003;7.129334e-002
3.020106e+003;7.125164e-002
3.022035e+003;7.140748e-002
3.023963e+003;7.177500e-002
3.025892e+003;7.205527e-002
3.027820e+003;7.229953e-002
3.029749e+003;7.284769e-002
3.031677e+003;7.321995e-002
3.033606e+003;7.352362e-002
3.035534e+003;7.382906e-002
3.037463e+003;7.384544e-002
3.039392e+003;7.402720e-002
3.041320e+003;7.437602e-002
3.043249e+003;7.471130e-002
3.045177e+003;7.500683e-002
3.047106e+003;7.510096e-002
3.049034e+003;7.510348e-002
3.050963e+003;7.522482e-002
3.052891e+003;7.560930e-002
3.054820e+003;7.604117e-002
3.056749e+003;7.617682e-002
3.058677e+003;7.644601e-002
3.060606e+003;7.680614e-002
3.062534e+003;7.720509e-002
3.064463e+003;7.734950e-002
3.066391e+003;7.725595e-002
3.068320e+003;7.774090e-002
3.070248e+003;7.847383e-002
3.072177e+003;7.869217e-002
3.074105e+003;7.839642e-002
3.076034e+003;7.864988e-002
3.077963e+003;7.936620e-002
3.079891e+003;7.979458e-002
3.081820e+003;8.016726e-002
3.083748e+003;8.042730e-002
3.085677e+003;8.065456e-002
3.087605e+003;8.135526e-002
3.089534e+003;8.173729e-002
3.091462e+003;8.205249e-002
3.093391e+003;8.241250e-002
3.095320e+003;8.267732e-002
3.097248e+003;8.298241e-002
3.099177e+003;8.332132e-002
3.101105e+003;8.354284e-002
3.103034e+003;8.393492e-002
3.104962e+003;8.430401e-002
3.106891e+003;8.464645e-002
3.108819e+003;8.504763e-002
3.110748e+003;8.552349e-002
3.112677e+003;8.588744e-002
3.114605e+003;8.602386e-002
3.116533e+003;8.655635e-002
3.118462e+003;8.701302e-002
3.120391e+003;8.719808e-002
3.122319e+003;8.764330e-002
3.124248e+003;8.804924e-002
3.126176e+003;8.843408e-002
3.128105e+003;8.898495e-002
3.130033e+003;8.949723e-002
3.131962e+003;8.993854e-002
3.133890e+003;9.027810e-002
3.135819e+003;9.051132e-002
3.137748e+003;9.059230e-002
3.139676e+003;9.070457e-002
3.141605e+003;9.096187e-002
3.143533e+003;9.151874e-002
3.145462e+003;9.201191e-002
3.147390e+003;9.236814e-002
3.149319e+003;9.272955e-002
3.151247e+003;9.283970e-002
3.153176e+003;9.321095e-002
3.155104e+003;9.350985e-002
3.157033e+003;9.399474e-002
3.158962e+003;9.447364e-002
3.160890e+003;9.473966e-002
3.162819e+003;9.518224e-002
3.164747e+003;9.535694e-002
3.166676e+003;9.567335e-002
3.168604e+003;9.634772e-002
3.170533e+003;9.652231e-002
3.172461e+003;9.667628e-002
3.174390e+003;9.745284e-002
3.176319e+003;9.752546e-002
3.178247e+003;9.719017e-002
3.180176e+003;9.767015e-002
3.182104e+003;9.831239e-002
3.184033e+003;9.858863e-002
3.185961e+003;9.882578e-002
3.187890e+003;9.924427e-002
3.189818e+003;9.979361e-002
3.191747e+003;1.001722e-001
3.193676e+003;1.005061e-001
3.195604e+003;1.007389e-001
3.197532e+003;1.010129e-001
3.199461e+003;1.015141e-001
3.201390e+003;1.022734e-001
3.203318e+003;1.026383e-001
3.205247e+003;1.026191e-001
3.207175e+003;1.028199e-001
3.209104e+003;1.031800e-001
3.211032e+003;1.034916e-001
3.212961e+003;1.039312e-001
3.214889e+003;1.042905e-001
3.216818e+003;1.045144e-001
3.218747e+003;1.050499e-001
3.220675e+003;1.056290e-001
3.222604e+003;1.057623e-001
3.224532e+003;1.058451e-001
3.226461e+003;1.060590e-001
3.228389e+003;1.062419e-001
3.230318e+003;1.066197e-001
3.232246e+003;1.069706e-001
3.234175e+003;1.071241e-001
3.236104e+003;1.074184e-001
3.238032e+003;1.079561e-001
3.239961e+003;1.083890e-001
3.241889e+003;1.085635e-001
3.243818e+003;1.090011e-001
3.245746e+003;1.093747e-001
3.247675e+003;1.096766e-001
3.249603e+003;1.100317e-001
3.251532e+003;1.101453e-001
3.253460e+003;1.101060e-001
3.255389e+003;1.101162e-001
3.257318e+003;1.106464e-001
3.259246e+003;1.113116e-001
3.261175e+003;1.117436e-001
3.263103e+003;1.116098e-001
3.265032e+003;1.111297e-001
3.266960e+003;1.114366e-001
3.268889e+003;1.121289e-001
3.270817e+003;1.122876e-001
3.272746e+003;1.122047e-001
3.274675e+003;1.122908e-001
3.276603e+003;1.127871e-001
3.278531e+003;1.130773e-001
3.280460e+003;1.128981e-001
3.282389e+003;1.132563e-001
3.284317e+003;1.135866e-001
3.286246e+003;1.135613e-001
3.288174e+003;1.136261e-001
3.290103e+003;1.139463e-001
3.292031e+003;1.146251e-001
3.293960e+003;1.146780e-001
3.295888e+003;1.142865e-001
3.297817e+003;1.146810e-001
3.299746e+003;1.152123e-001
3.301674e+003;1.154928e-001
3.303603e+003;1.152670e-001
3.305531e+003;1.146703e-001
3.307460e+003;1.147403e-001
3.309388e+003;1.154665e-001
3.311317e+003;1.158839e-001
3.313245e+003;1.157990e-001
3.315174e+003;1.155386e-001
3.317103e+003;1.156640e-001
3.319031e+003;1.162456e-001
3.320960e+003;1.164731e-001
3.322888e+003;1.164450e-001
3.324817e+003;1.163871e-001
3.326745e+003;1.160840e-001
3.328674e+003;1.160019e-001
3.330602e+003;1.159699e-001
3.332531e+003;1.158896e-001
3.334459e+003;1.160863e-001
3.336388e+003;1.164049e-001
3.338317e+003;1.166601e-001
3.340245e+003;1.166397e-001
3.342174e+003;1.161635e-001
3.344102e+003;1.160198e-001
3.346031e+003;1.160809e-001
3.347959e+003;1.160240e-001
3.349888e+003;1.158347e-001
3.351816e+003;1.154582e-001
3.353745e+003;1.153505e-001
3.355674e+003;1.154301e-001
3.357602e+003;1.154301e-001
3.359531e+003;1.153537e-001
3.361459e+003;1.152632e-001
3.363388e+003;1.154423e-001
3.365316e+003;1.157887e-001
3.367245e+003;1.155359e-001
3.369173e+003;1.148792e-001
3.371102e+003;1.143922e-001
3.373031e+003;1.142637e-001
3.374959e+003;1.142689e-001
3.376887e+003;1.137918e-001
3.378816e+003;1.135807e-001
3.380745e+003;1.137282e-001
3.382673e+003;1.131873e-001
3.384602e+003;1.128959e-001
3.386530e+003;1.128812e-001
3.388459e+003;1.125565e-001
3.390387e+003;1.123062e-001
3.392316e+003;1.122457e-001
3.394244e+003;1.118335e-001
3.396173e+003;1.112286e-001
3.398102e+003;1.112832e-001
3.400030e+003;1.114196e-001
3.401959e+003;1.113868e-001
3.403887e+003;1.111901e-001
3.405816e+003;1.108000e-001
3.407744e+003;1.102893e-001
3.409673e+003;1.097729e-001
3.411601e+003;1.096161e-001
3.413530e+003;1.095485e-001
3.415458e+003;1.093155e-001
3.417387e+003;1.087018e-001
3.419316e+003;1.082133e-001
3.421244e+003;1.080299e-001
3.423173e+003;1.080426e-001
3.425101e+003;1.077509e-001
3.427030e+003;1.072772e-001
3.428958e+003;1.069108e-001
3.430887e+003;1.068232e-001
3.432815e+003;1.066943e-001
3.434744e+003;1.062084e-001
3.436673e+003;1.055925e-001
3.438601e+003;1.053508e-001
3.440530e+003;1.053656e-001
3.442458e+003;1.047954e-001
3.444387e+003;1.039996e-001
3.446315e+003;1.034918e-001
3.448244e+003;1.028379e-001
3.450172e+003;1.020340e-001
3.452101e+003;1.011600e-001
3.454030e+003;1.003637e-001
3.455958e+003;9.950906e-002
3.457886e+003;9.883680e-002
3.459815e+003;9.855226e-002
3.461744e+003;9.815270e-002
3.463672e+003;9.739877e-002
3.465601e+003;9.691586e-002
3.467529e+003;9.648933e-002
3.469458e+003;9.602041e-002
3.471386e+003;9.539933e-002
3.473315e+003;9.453517e-002
3.475243e+003;9.397668e-002
3.477172e+003;9.327723e-002
3.479101e+003;9.267270e-002
3.481029e+003;9.212016e-002
3.482958e+003;9.166861e-002
3.484886e+003;9.102157e-002
3.486815e+003;9.044146e-002
3.488743e+003;9.024311e-002
3.490672e+003;8.955073e-002
3.492600e+003;8.849794e-002
3.494529e+003;8.750883e-002
3.496458e+003;8.655077e-002
3.498386e+003;8.559188e-002
3.500315e+003;8.473141e-002
3.502243e+003;8.413463e-002
3.504172e+003;8.343197e-002
3.506100e+003;8.260538e-002
3.508029e+003;8.159329e-002
3.509957e+003;8.071086e-002
3.511886e+003;8.025268e-002
3.513814e+003;7.958321e-002
3.515743e+003;7.879278e-002
3.517672e+003;7.795218e-002
3.519600e+003;7.742280e-002
3.521529e+003;7.701249e-002
3.523457e+003;7.618168e-002
3.525386e+003;7.512916e-002
3.527314e+003;7.443807e-002
3.529243e+003;7.392207e-002
3.531171e+003;7.353955e-002
3.533100e+003;7.293685e-002
3.535029e+003;7.215651e-002
3.536957e+003;7.170054e-002
3.538885e+003;7.132012e-002
3.540814e+003;7.035372e-002
3.542743e+003;6.941807e-002
3.544671e+003;6.911968e-002
3.546600e+003;6.895098e-002
3.548528e+003;6.840402e-002
3.550457e+003;6.788889e-002
3.552385e+003;6.746060e-002
3.554314e+003;6.681985e-002
3.556242e+003;6.599271e-002
3.558171e+003;6.532509e-002
3.560100e+003;6.513233e-002
3.562028e+003;6.483556e-002
3.563957e+003;6.411376e-002
3.565885e+003;6.320421e-002
3.567814e+003;6.257269e-002
3.569742e+003;6.244363e-002
3.571671e+003;6.214933e-002
3.573599e+003;6.176550e-002
3.575528e+003;6.130508e-002
3.577457e+003;6.094647e-002
3.579385e+003;6.081077e-002
3.581314e+003;5.990787e-002
3.583242e+003;5.884055e-002
3.585171e+003;5.831242e-002
3.587099e+003;5.794886e-002
3.589028e+003;5.771609e-002
3.590956e+003;5.732690e-002
3.592885e+003;5.694557e-002
3.594813e+003;5.693185e-002
3.596742e+003;5.680695e-002
3.598671e+003;5.620092e-002
3.600599e+003;5.549233e-002
3.602528e+003;5.545024e-002
3.604456e+003;5.555954e-002
3.606385e+003;5.504275e-002
3.608313e+003;5.429520e-002
3.610242e+003;5.417191e-002
3.612170e+003;5.370473e-002
3.614099e+003;5.336639e-002
3.616028e+003;5.307159e-002
3.617956e+003;5.247875e-002
3.619885e+003;5.262953e-002
3.621813e+003;5.282051e-002
3.623742e+003;5.273307e-002
3.625670e+003;5.215952e-002
3.627599e+003;5.070937e-002
3.629527e+003;5.035520e-002
3.631456e+003;5.104088e-002
3.633385e+003;5.081182e-002
3.635313e+003;5.057035e-002
3.637241e+003;5.042158e-002
3.639170e+003;5.023250e-002
3.641099e+003;4.998726e-002
3.643027e+003;4.945753e-002
3.644956e+003;4.878543e-002
3.646884e+003;4.782459e-002
3.648813e+003;4.700822e-002
3.650741e+003;4.721536e-002
3.652670e+003;4.760470e-002
3.654598e+003;4.752144e-002
3.656527e+003;4.725933e-002
3.658456e+003;4.719922e-002
3.660384e+003;4.705017e-002
3.662313e+003;4.662227e-002
3.664241e+003;4.610252e-002
3.666170e+003;4.565714e-002
3.668098e+003;4.466889e-002
3.670027e+003;4.390777e-002
3.671955e+003;4.411674e-002
3.673884e+003;4.339393e-002
3.675813e+003;4.279513e-002
3.677741e+003;4.358489e-002
3.679669e+003;4.370879e-002
3.681598e+003;4.319292e-002
3.683527e+003;4.290432e-002
3.685455e+003;4.256132e-002
3.687384e+003;4.163153e-002
3.689312e+003;4.103289e-002
3.691241e+003;4.122832e-002
3.693169e+003;4.151336e-002
3.695098e+003;4.171304e-002
3.697026e+003;4.140141e-002
3.698955e+003;4.074187e-002
3.700884e+003;4.033243e-002
3.702812e+003;4.064766e-002
3.704741e+003;4.082711e-002
3.706669e+003;4.068197e-002
3.708598e+003;4.028614e-002
3.710526e+003;3.973714e-002
3.712455e+003;3.945017e-002
3.714383e+003;4.004583e-002
3.716312e+003;4.034591e-002
3.718240e+003;3.977944e-002
3.720169e+003;3.928841e-002
3.722098e+003;3.924507e-002
3.724026e+003;3.915955e-002
3.725955e+003;3.897365e-002
3.727883e+003;3.913606e-002
3.729812e+003;3.885294e-002
3.731740e+003;3.820720e-002
3.733669e+003;3.781663e-002
3.735597e+003;3.729253e-002
3.737526e+003;3.749755e-002
3.739455e+003;3.811814e-002
3.741383e+003;3.795293e-002
3.743312e+003;3.617764e-002
3.745240e+003;3.658934e-002
3.747169e+003;3.784142e-002
3.749097e+003;3.687287e-002
3.751026e+003;3.632636e-002
3.752954e+003;3.700548e-002
3.754883e+003;3.742221e-002
3.756812e+003;3.730983e-002
3.758740e+003;3.786984e-002
3.760668e+003;3.828493e-002
3.762597e+003;3.793575e-002
3.764526e+003;3.756518e-002
3.766454e+003;3.762049e-002
3.768383e+003;3.766660e-002
3.770311e+003;3.769580e-002
3.772240e+003;3.786322e-002
3.774168e+003;3.804344e-002
3.776097e+003;3.818973e-002
3.778025e+003;3.805686e-002
3.779954e+003;3.786886e-002
3.781883e+003;3.830335e-002
3.783811e+003;3.850316e-002
3.785740e+003;3.855620e-002
3.787668e+003;3.841931e-002
3.789597e+003;3.811940e-002
3.791525e+003;3.804348e-002
3.793454e+003;3.792461e-002
3.795382e+003;3.761048e-002
3.797311e+003;3.777419e-002
3.799240e+003;3.755968e-002
3.801168e+003;3.703489e-002
3.803097e+003;3.704326e-002
3.805025e+003;3.686829e-002
3.806954e+003;3.697969e-002
3.808882e+003;3.788238e-002
3.810811e+003;3.861070e-002
3.812739e+003;3.842778e-002
3.814668e+003;3.723946e-002
3.816596e+003;3.659785e-002
3.818525e+003;3.645653e-002
3.820454e+003;3.593498e-002
3.822382e+003;3.652540e-002
3.824311e+003;3.784786e-002
3.826239e+003;3.805632e-002
3.828168e+003;3.778966e-002
3.830096e+003;3.761160e-002
3.832025e+003;3.754346e-002
3.833953e+003;3.746107e-002
3.835882e+003;3.664522e-002
3.837811e+003;3.632520e-002
3.839739e+003;3.728069e-002
3.841667e+003;3.766450e-002
3.843596e+003;3.745247e-002
3.845525e+003;3.769070e-002
3.847453e+003;3.816408e-002
3.849382e+003;3.763679e-002
3.851310e+003;3.599707e-002
3.853239e+003;3.508718e-002
3.855167e+003;3.610720e-002
3.857096e+003;3.761030e-002
3.859024e+003;3.838496e-002
3.860953e+003;3.837356e-002
3.862882e+003;3.843893e-002
3.864810e+003;3.842634e-002
3.866739e+003;3.811039e-002
3.868667e+003;3.769663e-002
3.870596e+003;3.790241e-002
3.872524e+003;3.803892e-002
3.874453e+003;3.812164e-002
3.876381e+003;3.848773e-002
3.878310e+003;3.820742e-002
3.880239e+003;3.788068e-002
3.882167e+003;3.835684e-002
3.884096e+003;3.841070e-002
3.886024e+003;3.847618e-002
3.887953e+003;3.868625e-002
3.889881e+003;3.816694e-002
3.891810e+003;3.819139e-002
3.893738e+003;3.905535e-002
3.895667e+003;3.953592e-002
3.897595e+003;3.908113e-002
3.899524e+003;3.850754e-002
3.901453e+003;3.838988e-002
3.903381e+003;3.887508e-002
3.905310e+003;3.931949e-002
3.907238e+003;3.925203e-002
3.909167e+003;3.941886e-002
3.911095e+003;3.984034e-002
3.913024e+003;3.995965e-002
3.914952e+003;3.972711e-002
3.916881e+003;3.989467e-002
3.918810e+003;4.026800e-002
3.920738e+003;4.013283e-002
3.922667e+003;4.001357e-002
3.924595e+003;4.033657e-002
3.926524e+003;4.046770e-002
3.928452e+003;4.037188e-002
3.930381e+003;3.988425e-002
3.932309e+003;4.002011e-002
3.934238e+003;4.085055e-002
3.936167e+003;4.086282e-002
3.938095e+003;4.075945e-002
3.940023e+003;4.064555e-002
3.941952e+003;4.032686e-002
3.943881e+003;4.051095e-002
3.945809e+003;4.023445e-002
3.947738e+003;3.983333e-002
3.949666e+003;4.036417e-002
3.951595e+003;4.134393e-002
3.953523e+003;4.180409e-002
3.955452e+003;4.185853e-002
3.957380e+003;4.204651e-002
3.959309e+003;4.179421e-002
3.961238e+003;4.107798e-002
3.963166e+003;4.103351e-002
3.965095e+003;4.155929e-002
3.967023e+003;4.164196e-002
3.968952e+003;4.132353e-002
3.970880e+003;4.085762e-002
3.972809e+003;4.066043e-002
3.974737e+003;4.039991e-002
3.976666e+003;4.060884e-002
3.978594e+003;4.108650e-002
3.980523e+003;4.124063e-002
3.982452e+003;4.122872e-002
3.984380e+003;4.109688e-002
3.986309e+003;4.083978e-002
3.988237e+003;4.072098e-002
3.990166e+003;4.121505e-002
3.992094e+003;4.144726e-002
3.994023e+003;4.139295e-002
3.995951e+003;4.105642e-002
3.997880e+003;4.073208e-002
3.999809e+003;4.093778e-002
4.001737e+003;0.000000e+000
