3.992094e+002;0.000000e+000
4.011380e+002;0.000000e+000
4.030665e+002;0.000000e+000
4.049951e+002;0.000000e+000
4.069236e+002;0.000000e+000
4.088522e+002;0.000000e+000
4.107807e+002;0.000000e+000
4.127093e+002;0.000000e+000
4.146378e+002;0.000000e+000
4.165664e+002;0.000000e+000
4.184949e+002;0.000000e+000
4.204235e+002;0.000000e+000
4.223520e+002;0.000000e+000
4.242806e+002;0.000000e+000
4.262091e+002;0.000000e+000
4.281377e+002;0.000000e+000
4.300662e+002;0.000000e+000
4.319948e+002;0.000000e+000
4.339233e+002;0.000000e+000
4.358519e+002;0.000000e+000
4.377804e+002;0.000000e+000
4.397090e+002;0.000000e+000
4.416375e+002;0.000000e+000
4.435660e+002;0.000000e+000
4.454946e+002;0.000000e+000
4.474232e+002;0.000000e+000
4.493517e+002;0.000000e+000
4.512802e+002;0.000000e+000
4.532088e+002;0.000000e+000
4.551373e+002;0.000000e+000
4.570659e+002;0.000000e+000
4.589944e+002;0.000000e+000
4.609230e+002;0.000000e+000
4.628515e+002;0.000000e+000
4.647801e+002;0.000000e+000
4.667086e+002;0.000000e+000
4.686372e+002;0.000000e+000
4.705657e+002;0.000000e+000
4.724943e+002;0.000000e+000
4.744228e+002;0.000000e+000
4.763513e+002;0.000000e+000
4.782799e+002;0.000000e+000
4.802085e+002;0.000000e+000
4.821370e+002;0.000000e+000
4.840656e+002;0.000000e+000
4.859941e+002;0.000000e+000
4.879226e+002;0.000000e+000
4.898512e+002;0.000000e+000
4.917798e+002;0.000000e+000
4.937083e+002;0.000000e+000
4.956368e+002;0.000000e+000
4.975654e+002;0.000000e+000
4.994939e+002;0.000000e+000
5.014225e+002;0.000000e+000
5.033510e+002;0.000000e+000
5.052796e+002;0.000000e+000
5.072081e+002;0.000000e+000
5.091367e+002;0.000000e+000
5.110652e+002;0.000000e+000
5.129938e+002;0.000000e+000
5.149223e+002;0.000000e+000
5.168509e+002;0.000000e+000
5.187794e+002;0.000000e+000
5.207079e+002;0.000000e+000
5.226365e+002;0.000000e+000
5.245651e+002;0.000000e+000
5.264936e+002;0.000000e+000
5.284222e+002;0.000000e+000
5.303507e+002;0.000000e+000
5.322792e+002;0.000000e+000
5.342078e+002;0.000000e+000
5.361364e+002;0.000000e+000
5.380649e+002;0.000000e+000
5.399935e+002;0.000000e+000
5.419220e+002;0.000000e+000
5.438505e+002;0.000000e+000
5.457791e+002;0.000000e+000
5.477076e+002;0.000000e+000
5.496362e+002;0.000000e+000
5.515648e+002;0.000000e+000
5.534933e+002;0.000000e+000
5.554218e+002;0.000000e+000
5.573504e+002;0.000000e+000
5.592789e+002;0.000000e+000
5.612075e+002;0.000000e+000
5.631360e+002;0.000000e+000
5.650646e+002;0.000000e+000
5.669931e+002;0.000000e+000
5.689217e+002;0.000000e+000
5.708502e+002;0.000000e+000
5.727787e+002;0.000000e+000
5.747073e+002;0.000000e+000
5.766359e+002;0.000000e+000
5.785644e+002;0.000000e+000
5.804930e+002;0.000000e+000
5.824215e+002;0.000000e+000
5.843500e+002;0.000000e+000
5.862786e+002;0.000000e+000
5.882072e+002;0.000000e+000
5.901357e+002;0.000000e+000
5.920643e+002;0.000000e+000
5.939928e+002;0.000000e+000
5.959213e+002;0.000000e+000
5.978499e+002;0.000000e+000
5.997784e+002;2.693532e-001
6.017070e+002;2.730816e-001
6.036355e+002;2.737772e-001
6.055641e+002;2.709679e-001
6.074926e+002;2.679095e-001
6.094211e+002;2.711375e-001
6.113497e+002;2.688774e-001
6.132783e+002;2.642153e-001
6.152068e+002;2.674765e-001
6.171354e+002;2.677840e-001
6.190639e+002;2.642106e-001
6.209924e+002;2.586373e-001
6.229210e+002;2.538845e-001
6.248495e+002;2.536894e-001
6.267781e+002;2.534086e-001
6.287067e+002;2.501737e-001
6.306352e+002;2.473485e-001
6.325637e+002;2.467873e-001
6.344923e+002;2.477413e-001
6.364208e+002;2.454183e-001
6.383494e+002;2.427578e-001
6.402780e+002;2.414909e-001
6.422065e+002;2.405571e-001
6.441350e+002;2.387784e-001
6.460636e+002;2.365805e-001
6.479921e+002;2.366003e-001
6.499207e+002;2.359773e-001
6.518492e+002;2.377860e-001
6.537778e+002;2.389506e-001
6.557063e+002;2.407061e-001
6.576349e+002;2.404548e-001
6.595634e+002;2.420065e-001
6.614919e+002;2.463093e-001
6.634205e+002;2.451663e-001
6.653491e+002;2.433966e-001
6.672776e+002;2.441283e-001
6.692062e+002;2.431608e-001
6.711347e+002;2.384115e-001
6.730632e+002;2.331135e-001
6.749918e+002;2.256659e-001
6.769203e+002;2.153879e-001
6.788489e+002;2.065689e-001
6.807775e+002;2.002423e-001
6.827060e+002;1.964360e-001
6.846345e+002;1.943385e-001
6.865631e+002;1.922222e-001
6.884916e+002;1.904682e-001
6.904202e+002;1.886227e-001
6.923488e+002;1.871263e-001
6.942773e+002;1.865040e-001
6.962058e+002;1.861247e-001
6.981344e+002;1.860156e-001
7.000629e+002;1.860024e-001
7.019915e+002;1.848907e-001
7.039200e+002;1.838637e-001
7.058486e+002;1.819275e-001
7.077771e+002;1.805951e-001
7.097057e+002;1.796641e-001
7.116342e+002;1.791589e-001
7.135627e+002;1.782557e-001
7.154913e+002;1.767375e-001
7.174199e+002;1.755076e-001
7.193484e+002;1.742730e-001
7.212770e+002;1.722480e-001
7.232055e+002;1.705254e-001
7.251340e+002;1.693616e-001
7.270626e+002;1.679590e-001
7.289911e+002;1.669889e-001
7.309197e+002;1.654702e-001
7.328483e+002;1.640726e-001
7.347768e+002;1.634111e-001
7.367053e+002;1.617926e-001
7.386339e+002;1.599754e-001
7.405624e+002;1.584564e-001
7.424910e+002;1.571004e-001
7.444196e+002;1.563472e-001
7.463481e+002;1.551547e-001
7.482766e+002;1.528760e-001
7.502052e+002;1.519430e-001
7.521337e+002;1.513226e-001
7.540623e+002;1.498721e-001
7.559908e+002;1.484689e-001
7.579194e+002;1.471033e-001
7.598479e+002;1.464089e-001
7.617765e+002;1.455300e-001
7.637050e+002;1.431895e-001
7.656335e+002;1.410008e-001
7.675621e+002;1.400852e-001
7.694907e+002;1.388620e-001
7.714192e+002;1.374041e-001
7.733478e+002;1.360101e-001
7.752763e+002;1.346989e-001
7.772048e+002;1.339241e-001
7.791334e+002;1.329406e-001
7.810620e+002;1.321253e-001
7.829905e+002;1.314538e-001
7.849191e+002;1.308517e-001
7.868476e+002;1.296998e-001
7.887761e+002;1.277285e-001
7.907047e+002;1.261332e-001
7.926332e+002;1.253934e-001
7.945618e+002;1.250420e-001
7.964903e+002;1.237099e-001
7.984189e+002;1.224650e-001
8.003474e+002;1.220097e-001
8.022759e+002;1.217628e-001
8.042045e+002;1.214719e-001
8.061331e+002;1.207817e-001
8.080616e+002;1.198935e-001
8.099902e+002;1.193396e-001
8.119187e+002;1.188183e-001
8.138472e+002;1.183531e-001
8.157758e+002;1.184612e-001
8.177043e+002;1.184889e-001
8.196329e+002;1.177841e-001
8.215615e+002;1.172019e-001
8.234900e+002;1.174664e-001
8.254185e+002;1.178469e-001
8.273471e+002;1.178872e-001
8.292756e+002;1.170639e-001
8.312042e+002;1.165878e-001
8.331328e+002;1.168612e-001
8.350613e+002;1.162684e-001
8.369898e+002;1.144813e-001
8.389184e+002;1.131638e-001
8.408469e+002;1.126640e-001
8.427755e+002;1.127581e-001
8.447040e+002;1.126044e-001
8.466326e+002;1.116648e-001
8.485611e+002;1.109575e-001
8.504897e+002;1.108330e-001
8.524182e+002;1.105163e-001
8.543467e+002;1.098217e-001
8.562753e+002;1.094909e-001
8.582039e+002;1.101479e-001
8.601324e+002;1.112661e-001
8.620610e+002;1.120456e-001
8.639895e+002;1.124026e-001
8.659180e+002;1.133750e-001
8.678466e+002;1.149909e-001
8.697751e+002;1.168230e-001
8.717037e+002;1.191987e-001
8.736323e+002;1.228072e-001
8.755608e+002;1.271416e-001
8.774893e+002;1.318093e-001
8.794179e+002;1.376624e-001
8.813464e+002;1.438758e-001
8.832750e+002;1.500533e-001
8.852036e+002;1.570378e-001
8.871321e+002;1.640044e-001
8.890606e+002;1.710709e-001
8.909892e+002;1.769338e-001
8.929177e+002;1.804937e-001
8.948463e+002;1.820175e-001
8.967748e+002;1.820226e-001
8.987034e+002;1.802768e-001
9.006319e+002;1.771577e-001
9.025605e+002;1.729983e-001
9.044890e+002;1.684023e-001
9.064175e+002;1.640959e-001
9.083461e+002;1.599287e-001
9.102747e+002;1.561163e-001
9.122032e+002;1.530771e-001
9.141318e+002;1.508092e-001
9.160603e+002;1.493847e-001
9.179888e+002;1.487812e-001
9.199174e+002;1.488542e-001
9.218459e+002;1.497450e-001
9.237745e+002;1.510593e-001
9.257031e+002;1.524239e-001
9.276316e+002;1.536025e-001
9.295601e+002;1.554461e-001
9.314887e+002;1.572966e-001
9.334172e+002;1.590226e-001
9.353458e+002;1.606430e-001
9.372744e+002;1.624304e-001
9.392029e+002;1.646503e-001
9.411314e+002;1.675500e-001
9.430600e+002;1.711783e-001
9.449885e+002;1.749134e-001
9.469171e+002;1.787158e-001
9.488456e+002;1.836007e-001
9.507742e+002;1.892545e-001
9.527027e+002;1.947796e-001
9.546313e+002;2.000324e-001
9.565598e+002;2.059610e-001
9.584883e+002;2.126953e-001
9.604169e+002;2.192576e-001
9.623455e+002;2.259174e-001
9.642740e+002;2.326241e-001
9.662026e+002;2.391244e-001
9.681311e+002;2.454606e-001
9.700596e+002;2.525113e-001
9.719882e+002;2.608804e-001
9.739167e+002;2.709226e-001
9.758453e+002;2.830925e-001
9.777739e+002;2.965771e-001
9.797024e+002;3.119345e-001
9.816309e+002;3.299605e-001
9.835595e+002;3.495105e-001
9.854880e+002;3.688129e-001
9.874166e+002;3.870113e-001
9.893452e+002;4.031360e-001
9.912737e+002;4.158845e-001
9.932022e+002;4.253812e-001
9.951307e+002;4.318205e-001
9.970593e+002;4.346482e-001
9.989879e+002;4.358281e-001
1.000916e+003;4.368499e-001
1.002845e+003;4.384381e-001
1.004773e+003;4.417577e-001
1.006702e+003;4.477282e-001
1.008631e+003;4.554490e-001
1.010559e+003;4.639910e-001
1.012488e+003;4.733565e-001
1.014416e+003;4.821661e-001
1.016345e+003;4.889959e-001
1.018273e+003;4.933631e-001
1.020202e+003;4.946361e-001
1.022130e+003;4.941005e-001
1.024059e+003;4.921393e-001
1.025988e+003;4.887792e-001
1.027916e+003;4.841039e-001
1.029845e+003;4.774081e-001
1.031773e+003;4.703264e-001
1.033702e+003;4.639321e-001
1.035630e+003;4.583520e-001
1.037559e+003;4.542346e-001
1.039487e+003;4.508711e-001
1.041416e+003;4.473709e-001
1.043344e+003;4.440152e-001
1.045273e+003;4.407713e-001
1.047202e+003;4.370077e-001
1.049130e+003;4.330833e-001
1.051059e+003;4.294220e-001
1.052987e+003;4.254923e-001
1.054916e+003;4.210332e-001
1.056844e+003;4.164982e-001
1.058773e+003;4.115346e-001
1.060701e+003;4.055569e-001
1.062630e+003;3.985995e-001
1.064558e+003;3.903991e-001
1.066487e+003;3.813392e-001
1.068416e+003;3.727816e-001
1.070344e+003;3.657285e-001
1.072273e+003;3.593251e-001
1.074201e+003;3.519391e-001
1.076130e+003;3.441517e-001
1.078058e+003;3.369642e-001
1.079987e+003;3.298139e-001
1.081915e+003;3.231438e-001
1.083844e+003;3.171265e-001
1.085773e+003;3.115013e-001
1.087701e+003;3.059994e-001
1.089630e+003;2.998251e-001
1.091558e+003;2.935927e-001
1.093487e+003;2.880315e-001
1.095415e+003;2.826079e-001
1.097344e+003;2.772545e-001
1.099272e+003;2.708226e-001
1.101201e+003;2.634626e-001
1.103129e+003;2.569982e-001
1.105058e+003;2.519988e-001
1.106987e+003;2.484119e-001
1.108915e+003;2.446340e-001
1.110844e+003;2.405908e-001
1.112772e+003;2.368488e-001
1.114701e+003;2.328513e-001
1.116629e+003;2.281043e-001
1.118558e+003;2.226688e-001
1.120486e+003;2.165602e-001
1.122415e+003;2.098439e-001
1.124344e+003;2.028960e-001
1.126272e+003;1.963151e-001
1.128201e+003;1.905622e-001
1.130129e+003;1.852219e-001
1.132058e+003;1.797456e-001
1.133986e+003;1.748191e-001
1.135915e+003;1.703173e-001
1.137843e+003;1.668763e-001
1.139772e+003;1.645676e-001
1.141700e+003;1.625711e-001
1.143629e+003;1.618968e-001
1.145557e+003;1.623945e-001
1.147486e+003;1.632190e-001
1.149415e+003;1.644469e-001
1.151343e+003;1.660824e-001
1.153272e+003;1.676573e-001
1.155200e+003;1.686826e-001
1.157129e+003;1.686003e-001
1.159057e+003;1.666189e-001
1.160986e+003;1.630363e-001
1.162914e+003;1.577797e-001
1.164843e+003;1.512260e-001
1.166771e+003;1.441449e-001
1.168700e+003;1.371361e-001
1.170629e+003;1.301150e-001
1.172557e+003;1.230887e-001
1.174486e+003;1.169452e-001
1.176414e+003;1.121931e-001
1.178343e+003;1.083757e-001
1.180271e+003;1.047087e-001
1.182200e+003;1.017870e-001
1.184128e+003;1.001954e-001
1.186057e+003;9.987667e-002
1.187986e+003;1.008273e-001
1.189914e+003;1.028787e-001
1.191843e+003;1.054758e-001
1.193771e+003;1.081940e-001
1.195700e+003;1.109934e-001
1.197628e+003;1.130192e-001
1.199557e+003;1.137594e-001
1.201485e+003;1.133270e-001
1.203414e+003;1.115729e-001
1.205343e+003;1.090330e-001
1.207271e+003;1.068550e-001
1.209200e+003;1.050600e-001
1.211128e+003;1.037853e-001
1.213057e+003;1.034716e-001
1.214985e+003;1.039619e-001
1.216914e+003;1.052608e-001
1.218842e+003;1.071257e-001
1.220771e+003;1.094269e-001
1.222699e+003;1.119737e-001
1.224628e+003;1.142766e-001
1.226557e+003;1.161066e-001
1.228485e+003;1.172666e-001
1.230414e+003;1.179274e-001
1.232342e+003;1.184798e-001
1.234271e+003;1.186932e-001
1.236199e+003;1.186959e-001
1.238128e+003;1.186608e-001
1.240056e+003;1.186388e-001
1.241985e+003;1.184305e-001
1.243913e+003;1.182756e-001
1.245842e+003;1.184952e-001
1.247771e+003;1.189402e-001
1.249699e+003;1.194498e-001
1.251628e+003;1.204019e-001
1.253556e+003;1.218701e-001
1.255485e+003;1.229889e-001
1.257413e+003;1.237886e-001
1.259342e+003;1.244772e-001
1.261270e+003;1.245988e-001
1.263199e+003;1.242673e-001
1.265127e+003;1.237073e-001
1.267056e+003;1.226925e-001
1.268985e+003;1.215220e-001
1.270913e+003;1.203711e-001
1.272842e+003;1.196066e-001
1.274770e+003;1.190769e-001
1.276699e+003;1.184690e-001
1.278627e+003;1.177504e-001
1.280556e+003;1.169335e-001
1.282484e+003;1.162064e-001
1.284413e+003;1.156789e-001
1.286342e+003;1.158094e-001
1.288270e+003;1.166929e-001
1.290199e+003;1.180577e-001
1.292127e+003;1.199536e-001
1.294056e+003;1.220053e-001
1.295984e+003;1.238247e-001
1.297913e+003;1.257548e-001
1.299841e+003;1.273611e-001
1.301770e+003;1.288489e-001
1.303698e+003;1.306952e-001
1.305627e+003;1.328011e-001
1.307556e+003;1.351257e-001
1.309484e+003;1.371742e-001
1.311413e+003;1.385678e-001
1.313341e+003;1.394596e-001
1.315270e+003;1.398018e-001
1.317198e+003;1.393113e-001
1.319127e+003;1.383883e-001
1.321055e+003;1.375108e-001
1.322984e+003;1.368184e-001
1.324912e+003;1.366352e-001
1.326841e+003;1.370544e-001
1.328770e+003;1.373306e-001
1.330698e+003;1.372930e-001
1.332627e+003;1.374411e-001
1.334555e+003;1.378149e-001
1.336484e+003;1.378037e-001
1.338412e+003;1.373543e-001
1.340341e+003;1.368483e-001
1.342269e+003;1.365952e-001
1.344198e+003;1.362944e-001
1.346126e+003;1.361037e-001
1.348055e+003;1.361941e-001
1.349984e+003;1.363613e-001
1.351912e+003;1.368402e-001
1.353841e+003;1.375945e-001
1.355769e+003;1.385437e-001
1.357698e+003;1.394377e-001
1.359626e+003;1.402275e-001
1.361555e+003;1.409943e-001
1.363483e+003;1.410557e-001
1.365412e+003;1.408392e-001
1.367341e+003;1.406899e-001
1.369269e+003;1.397786e-001
1.371198e+003;1.385042e-001
1.373126e+003;1.370326e-001
1.375055e+003;1.352326e-001
1.376983e+003;1.334523e-001
1.378912e+003;1.315622e-001
1.380840e+003;1.291127e-001
1.382769e+003;1.266517e-001
1.384698e+003;1.243322e-001
1.386626e+003;1.223900e-001
1.388555e+003;1.208493e-001
1.390483e+003;1.196164e-001
1.392412e+003;1.187755e-001
1.394340e+003;1.182528e-001
1.396269e+003;1.180812e-001
1.398197e+003;1.181151e-001
1.400126e+003;1.177927e-001
1.402054e+003;1.174426e-001
1.403983e+003;1.174111e-001
1.405911e+003;1.174820e-001
1.407840e+003;1.175293e-001
1.409769e+003;1.173569e-001
1.411697e+003;1.174481e-001
1.413626e+003;1.176714e-001
1.415554e+003;1.176041e-001
1.417483e+003;1.173589e-001
1.419411e+003;1.168765e-001
1.421340e+003;1.165720e-001
1.423268e+003;1.163916e-001
1.425197e+003;1.157775e-001
1.427125e+003;1.150404e-001
1.429054e+003;1.143753e-001
1.430983e+003;1.139722e-001
1.432911e+003;1.133643e-001
1.434840e+003;1.124605e-001
1.436768e+003;1.116529e-001
1.438697e+003;1.108514e-001
1.440625e+003;1.100325e-001
1.442554e+003;1.087194e-001
1.444482e+003;1.072536e-001
1.446411e+003;1.061874e-001
1.448340e+003;1.049761e-001
1.450268e+003;1.037944e-001
1.452197e+003;1.027082e-001
1.454125e+003;1.014219e-001
1.456054e+003;1.000722e-001
1.457982e+003;9.871667e-002
1.459911e+003;9.744533e-002
1.461839e+003;9.614670e-002
1.463768e+003;9.463306e-002
1.465697e+003;9.287581e-002
1.467625e+003;9.095734e-002
1.469554e+003;8.875617e-002
1.471482e+003;8.648825e-002
1.473411e+003;8.432526e-002
1.475339e+003;8.196509e-002
1.477268e+003;7.928371e-002
1.479196e+003;7.676474e-002
1.481125e+003;7.439049e-002
1.483053e+003;7.201624e-002
1.484982e+003;6.984308e-002
1.486911e+003;6.779786e-002
1.488839e+003;6.570888e-002
1.490768e+003;6.378076e-002
1.492696e+003;6.225498e-002
1.494625e+003;6.069937e-002
1.496553e+003;5.895272e-002
1.498482e+003;5.770444e-002
1.500410e+003;5.682387e-002
1.502339e+003;5.589447e-002
1.504267e+003;5.486305e-002
1.506196e+003;5.375213e-002
1.508125e+003;5.278059e-002
1.510053e+003;5.211450e-002
1.511982e+003;5.139639e-002
1.513910e+003;5.062232e-002
1.515839e+003;4.993596e-002
1.517767e+003;4.946083e-002
1.519696e+003;4.904431e-002
1.521624e+003;4.855964e-002
1.523553e+003;4.808960e-002
1.525481e+003;4.787930e-002
1.527410e+003;4.782907e-002
1.529339e+003;4.755874e-002
1.531267e+003;4.715010e-002
1.533196e+003;4.687403e-002
1.535124e+003;4.680549e-002
1.537053e+003;4.655812e-002
1.538981e+003;4.615359e-002
1.540910e+003;4.621100e-002
1.542838e+003;4.662415e-002
1.544767e+003;4.678996e-002
1.546695e+003;4.681520e-002
1.548624e+003;4.685285e-002
1.550553e+003;4.688717e-002
1.552481e+003;4.687171e-002
1.554410e+003;4.685329e-002
1.556338e+003;4.680232e-002
1.558267e+003;4.693047e-002
1.560195e+003;4.714024e-002
1.562124e+003;4.731242e-002
1.564052e+003;4.751035e-002
1.565981e+003;4.782315e-002
1.567910e+003;4.820343e-002
1.569838e+003;4.842082e-002
1.571767e+003;4.866603e-002
1.573695e+003;4.900763e-002
1.575624e+003;4.929664e-002
1.577552e+003;4.961002e-002
1.579481e+003;5.022335e-002
1.581409e+003;5.081823e-002
1.583338e+003;5.134321e-002
1.585266e+003;5.197036e-002
1.587195e+003;5.257455e-002
1.589124e+003;5.310922e-002
1.591052e+003;5.375411e-002
1.592981e+003;5.437762e-002
1.594909e+003;5.495092e-002
1.596838e+003;5.584458e-002
1.598766e+003;5.665996e-002
1.600695e+003;5.729223e-002
1.602623e+003;5.808329e-002
1.604552e+003;5.890077e-002
1.606480e+003;5.959591e-002
1.608409e+003;6.051860e-002
1.610338e+003;6.132687e-002
1.612266e+003;6.186147e-002
1.614195e+003;6.259301e-002
1.616123e+003;6.348303e-002
1.618052e+003;6.407911e-002
1.619980e+003;6.474521e-002
1.621909e+003;6.559834e-002
1.623837e+003;6.640952e-002
1.625766e+003;6.709285e-002
1.627694e+003;6.770828e-002
1.629623e+003;6.817830e-002
1.631552e+003;6.852525e-002
1.633480e+003;6.890620e-002
1.635409e+003;6.919606e-002
1.637337e+003;6.954183e-002
1.639266e+003;6.966209e-002
1.641194e+003;6.964856e-002
1.643123e+003;6.962813e-002
1.645051e+003;6.941939e-002
1.646980e+003;6.929753e-002
1.648909e+003;6.907915e-002
1.650837e+003;6.852897e-002
1.652766e+003;6.783257e-002
1.654694e+003;6.729259e-002
1.656623e+003;6.692989e-002
1.658551e+003;6.631216e-002
1.660480e+003;6.530680e-002
1.662408e+003;6.437849e-002
1.664337e+003;6.359042e-002
1.666266e+003;6.278835e-002
1.668194e+003;6.183045e-002
1.670123e+003;6.054790e-002
1.672051e+003;5.941548e-002
1.673980e+003;5.829389e-002
1.675908e+003;5.687251e-002
1.677837e+003;5.568495e-002
1.679765e+003;5.461454e-002
1.681694e+003;5.335227e-002
1.683622e+003;5.224770e-002
1.685551e+003;5.129872e-002
1.687479e+003;5.053733e-002
1.689408e+003;4.967064e-002
1.691337e+003;4.897881e-002
1.693265e+003;4.839978e-002
1.695194e+003;4.776397e-002
1.697122e+003;4.768094e-002
1.699051e+003;4.765990e-002
1.700979e+003;4.713824e-002
1.702908e+003;4.667222e-002
1.704836e+003;4.642960e-002
1.706765e+003;4.625018e-002
1.708693e+003;4.604409e-002
1.710622e+003;4.588132e-002
1.712551e+003;4.545335e-002
1.714479e+003;4.486390e-002
1.716408e+003;4.438655e-002
1.718336e+003;4.385095e-002
1.720265e+003;4.338170e-002
1.722193e+003;4.283118e-002
1.724122e+003;4.201983e-002
1.726050e+003;4.126049e-002
1.727979e+003;4.037591e-002
1.729908e+003;3.922320e-002
1.731836e+003;3.833494e-002
1.733765e+003;3.755394e-002
1.735693e+003;3.651978e-002
1.737622e+003;3.543825e-002
1.739550e+003;3.440369e-002
1.741479e+003;3.339779e-002
1.743407e+003;3.221317e-002
1.745336e+003;3.117192e-002
1.747265e+003;3.033076e-002
1.749193e+003;2.980583e-002
1.751122e+003;2.933679e-002
1.753050e+003;2.897160e-002
1.754979e+003;2.873552e-002
1.756907e+003;2.839397e-002
1.758836e+003;2.814237e-002
1.760764e+003;2.790730e-002
1.762693e+003;2.765912e-002
1.764621e+003;2.760531e-002
1.766550e+003;2.757766e-002
1.768479e+003;2.747133e-002
1.770407e+003;2.731679e-002
1.772336e+003;2.706927e-002
1.774264e+003;2.697308e-002
1.776193e+003;2.690891e-002
1.778121e+003;2.669386e-002
1.780050e+003;2.640771e-002
1.781978e+003;2.634127e-002
1.783907e+003;2.642542e-002
1.785835e+003;2.631817e-002
1.787764e+003;2.591830e-002
1.789693e+003;2.560015e-002
1.791621e+003;2.535592e-002
1.793550e+003;2.520989e-002
1.795478e+003;2.518643e-002
1.797407e+003;2.506882e-002
1.799335e+003;2.492671e-002
1.801264e+003;2.483654e-002
1.803192e+003;2.483864e-002
1.805121e+003;2.484285e-002
1.807049e+003;2.467897e-002
1.808978e+003;2.448713e-002
1.810907e+003;2.435324e-002
1.812835e+003;2.436929e-002
1.814764e+003;2.439579e-002
1.816692e+003;2.425089e-002
1.818621e+003;2.407339e-002
1.820549e+003;2.403665e-002
1.822478e+003;2.395062e-002
1.824406e+003;2.362474e-002
1.826335e+003;2.357265e-002
1.828264e+003;2.354855e-002
1.830192e+003;2.330260e-002
1.832121e+003;2.317508e-002
1.834049e+003;2.305637e-002
1.835978e+003;2.295422e-002
1.837906e+003;2.295775e-002
1.839835e+003;2.293605e-002
1.841763e+003;2.304271e-002
1.843692e+003;2.292774e-002
1.845620e+003;2.261491e-002
1.847549e+003;2.239573e-002
1.849478e+003;2.229429e-002
1.851406e+003;2.234064e-002
1.853335e+003;2.237891e-002
1.855263e+003;2.238007e-002
1.857192e+003;2.238041e-002
1.859120e+003;2.220923e-002
1.861049e+003;2.197564e-002
1.862977e+003;2.191608e-002
1.864906e+003;2.193420e-002
1.866834e+003;2.181921e-002
1.868763e+003;2.170293e-002
1.870692e+003;2.166778e-002
1.872620e+003;2.156634e-002
1.874549e+003;2.147780e-002
1.876477e+003;2.134121e-002
1.878406e+003;2.119757e-002
1.880334e+003;2.132388e-002
1.882263e+003;2.130672e-002
1.884191e+003;2.115387e-002
1.886120e+003;2.127043e-002
1.888048e+003;2.145291e-002
1.889977e+003;2.145750e-002
1.891906e+003;2.127279e-002
1.893834e+003;2.114096e-002
1.895763e+003;2.112444e-002
1.897691e+003;2.113133e-002
1.899620e+003;2.118643e-002
1.901548e+003;2.123326e-002
1.903477e+003;2.129882e-002
1.905405e+003;2.143526e-002
1.907334e+003;2.145900e-002
1.909262e+003;2.139617e-002
1.911191e+003;2.145315e-002
1.913120e+003;2.160652e-002
1.915048e+003;2.181973e-002
1.916977e+003;2.212798e-002
1.918905e+003;2.230262e-002
1.920834e+003;2.242709e-002
1.922762e+003;2.237602e-002
1.924691e+003;2.220487e-002
1.926619e+003;2.226168e-002
1.928548e+003;2.248725e-002
1.930477e+003;2.251544e-002
1.932405e+003;2.241830e-002
1.934334e+003;2.256420e-002
1.936262e+003;2.261893e-002
1.938191e+003;2.244831e-002
1.940119e+003;2.266703e-002
1.942048e+003;2.303237e-002
1.943976e+003;2.312710e-002
1.945905e+003;2.313363e-002
1.947833e+003;2.319147e-002
1.949762e+003;2.337693e-002
1.951691e+003;2.365448e-002
1.953619e+003;2.377797e-002
1.955548e+003;2.391284e-002
1.957476e+003;2.402338e-002
1.959405e+003;2.392286e-002
1.961333e+003;2.395360e-002
1.963262e+003;2.422966e-002
1.965190e+003;2.430012e-002
1.967119e+003;2.419567e-002
1.969047e+003;2.411878e-002
1.970976e+003;2.429342e-002
1.972905e+003;2.466406e-002
1.974833e+003;2.477592e-002
1.976762e+003;2.470078e-002
1.978690e+003;2.480433e-002
1.980619e+003;2.495626e-002
1.982547e+003;2.501968e-002
1.984476e+003;2.523577e-002
1.986404e+003;2.526709e-002
1.988333e+003;2.513805e-002
1.990261e+003;2.507507e-002
1.992190e+003;2.513629e-002
1.994119e+003;2.534784e-002
1.996047e+003;2.534064e-002
1.997976e+003;2.528743e-002
1.999904e+003;2.529768e-002
2.001833e+003;2.516937e-002
2.003761e+003;2.517211e-002
2.005690e+003;2.556381e-002
2.007618e+003;2.577686e-002
2.009547e+003;2.575380e-002
2.011476e+003;2.573516e-002
2.013404e+003;2.596399e-002
2.015333e+003;2.634229e-002
2.017261e+003;2.652061e-002
2.019190e+003;2.649198e-002
2.021118e+003;2.655298e-002
2.023047e+003;2.657270e-002
2.024975e+003;2.664126e-002
2.026904e+003;2.680000e-002
2.028833e+003;2.677804e-002
2.030761e+003;2.697600e-002
2.032690e+003;2.737025e-002
2.034618e+003;2.746244e-002
2.036547e+003;2.729460e-002
2.038475e+003;2.727759e-002
2.040404e+003;2.750250e-002
2.042332e+003;2.757396e-002
2.044261e+003;2.756061e-002
2.046189e+003;2.774494e-002
2.048118e+003;2.798190e-002
2.050047e+003;2.791843e-002
2.051975e+003;2.777009e-002
2.053904e+003;2.791264e-002
2.055832e+003;2.810401e-002
2.057761e+003;2.806644e-002
2.059689e+003;2.814099e-002
2.061618e+003;2.821601e-002
2.063546e+003;2.796239e-002
2.065475e+003;2.778161e-002
2.067404e+003;2.766520e-002
2.069332e+003;2.769776e-002
2.071260e+003;2.804922e-002
2.073189e+003;2.816821e-002
2.075118e+003;2.807860e-002
2.077046e+003;2.798165e-002
2.078975e+003;2.792232e-002
2.080903e+003;2.805732e-002
2.082832e+003;2.808941e-002
2.084760e+003;2.797144e-002
2.086689e+003;2.809694e-002
2.088617e+003;2.836709e-002
2.090546e+003;2.838304e-002
2.092475e+003;2.812600e-002
2.094403e+003;2.808920e-002
2.096332e+003;2.825416e-002
2.098260e+003;2.821856e-002
2.100189e+003;2.809846e-002
2.102117e+003;2.840716e-002
2.104046e+003;2.868625e-002
2.105974e+003;2.875871e-002
2.107903e+003;2.891975e-002
2.109832e+003;2.910640e-002
2.111760e+003;2.913237e-002
2.113688e+003;2.906090e-002
2.115617e+003;2.906105e-002
2.117546e+003;2.908276e-002
2.119474e+003;2.915458e-002
2.121403e+003;2.923825e-002
2.123331e+003;2.911352e-002
2.125260e+003;2.901159e-002
2.127188e+003;2.921777e-002
2.129117e+003;2.953642e-002
2.131045e+003;2.953124e-002
2.132974e+003;2.953372e-002
2.134903e+003;2.952589e-002
2.136831e+003;2.949819e-002
2.138760e+003;2.949854e-002
2.140688e+003;2.936799e-002
2.142617e+003;2.920313e-002
2.144545e+003;2.904064e-002
2.146474e+003;2.915692e-002
2.148402e+003;2.923606e-002
2.150331e+003;2.931074e-002
2.152260e+003;2.924616e-002
2.154188e+003;2.901956e-002
2.156117e+003;2.879263e-002
2.158045e+003;2.878275e-002
2.159974e+003;2.886019e-002
2.161902e+003;2.880197e-002
2.163831e+003;2.886872e-002
2.165759e+003;2.879677e-002
2.167688e+003;2.839638e-002
2.169616e+003;2.820629e-002
2.171545e+003;2.821127e-002
2.173474e+003;2.820721e-002
2.175402e+003;2.823606e-002
2.177331e+003;2.799543e-002
2.179259e+003;2.777023e-002
2.181188e+003;2.776342e-002
2.183116e+003;2.761445e-002
2.185045e+003;2.731845e-002
2.186973e+003;2.709367e-002
2.188902e+003;2.724083e-002
2.190831e+003;2.733211e-002
2.192759e+003;2.713053e-002
2.194688e+003;2.704949e-002
2.196616e+003;2.713910e-002
2.198545e+003;2.711145e-002
2.200473e+003;2.708475e-002
2.202402e+003;2.709667e-002
2.204330e+003;2.687930e-002
2.206259e+003;2.686224e-002
2.208188e+003;2.690204e-002
2.210116e+003;2.674587e-002
2.212044e+003;2.649937e-002
2.213973e+003;2.645739e-002
2.215902e+003;2.647514e-002
2.217830e+003;2.645060e-002
2.219759e+003;2.632796e-002
2.221687e+003;2.605493e-002
2.223616e+003;2.599259e-002
2.225544e+003;2.616366e-002
2.227473e+003;2.610623e-002
2.229401e+003;2.597053e-002
2.231330e+003;2.595263e-002
2.233259e+003;2.584659e-002
2.235187e+003;2.584040e-002
2.237116e+003;2.612259e-002
2.239044e+003;2.622637e-002
2.240973e+003;2.598144e-002
2.242901e+003;2.591988e-002
2.244830e+003;2.574202e-002
2.246758e+003;2.543004e-002
2.248687e+003;2.529838e-002
2.250615e+003;2.543095e-002
2.252544e+003;2.554634e-002
2.254473e+003;2.543995e-002
2.256401e+003;2.514353e-002
2.258330e+003;2.484398e-002
2.260258e+003;2.455013e-002
2.262187e+003;2.456037e-002
2.264115e+003;2.461946e-002
2.266044e+003;2.472733e-002
2.267972e+003;2.481626e-002
2.269901e+003;2.474985e-002
2.271830e+003;2.464236e-002
2.273758e+003;2.436460e-002
2.275687e+003;2.430415e-002
2.277615e+003;2.446144e-002
2.279544e+003;2.436095e-002
2.281472e+003;2.420128e-002
2.283401e+003;2.421862e-002
2.285329e+003;2.423165e-002
2.287258e+003;2.425656e-002
2.289187e+003;2.405024e-002
2.291115e+003;2.371473e-002
2.293043e+003;2.379880e-002
2.294972e+003;2.417696e-002
2.296901e+003;2.409055e-002
2.298829e+003;2.378284e-002
2.300758e+003;2.389208e-002
2.302686e+003;2.400962e-002
2.304615e+003;2.391900e-002
2.306543e+003;2.387727e-002
2.308472e+003;2.398746e-002
2.310400e+003;2.435959e-002
2.312329e+003;2.455644e-002
2.314258e+003;2.442222e-002
2.316186e+003;2.442642e-002
2.318115e+003;2.445047e-002
2.320043e+003;2.441682e-002
2.321972e+003;2.447883e-002
2.323900e+003;2.449103e-002
2.325829e+003;2.438096e-002
2.327757e+003;2.441118e-002
2.329686e+003;2.470134e-002
2.331615e+003;2.482173e-002
2.333543e+003;2.479093e-002
2.335472e+003;2.477104e-002
2.337400e+003;2.481265e-002
2.339329e+003;2.496904e-002
2.341257e+003;2.526116e-002
2.343186e+003;2.535437e-002
2.345114e+003;2.556001e-002
2.347043e+003;2.595520e-002
2.348971e+003;2.606471e-002
2.350900e+003;2.604015e-002
2.352829e+003;2.629142e-002
2.354757e+003;2.628283e-002
2.356686e+003;2.622454e-002
2.358614e+003;2.651191e-002
2.360543e+003;2.664355e-002
2.362471e+003;2.666937e-002
2.364400e+003;2.670143e-002
2.366328e+003;2.657616e-002
2.368257e+003;2.684402e-002
2.370186e+003;2.719797e-002
2.372114e+003;2.712055e-002
2.374042e+003;2.694290e-002
2.375971e+003;2.703915e-002
2.377900e+003;2.736824e-002
2.379828e+003;2.762236e-002
2.381757e+003;2.767600e-002
2.383685e+003;2.783904e-002
2.385614e+003;2.807626e-002
2.387542e+003;2.804700e-002
2.389471e+003;2.812006e-002
2.391399e+003;2.823779e-002
2.393328e+003;2.838767e-002
2.395257e+003;2.850017e-002
2.397185e+003;2.862041e-002
2.399114e+003;2.890427e-002
2.401042e+003;2.920919e-002
2.402971e+003;2.920632e-002
2.404899e+003;2.909435e-002
2.406828e+003;2.914151e-002
2.408756e+003;2.950702e-002
2.410685e+003;2.983543e-002
2.412614e+003;2.998558e-002
2.414542e+003;3.027925e-002
2.416471e+003;3.043296e-002
2.418399e+003;3.035564e-002
2.420328e+003;3.050913e-002
2.422256e+003;3.090778e-002
2.424185e+003;3.123889e-002
2.426113e+003;3.155354e-002
2.428042e+003;3.182106e-002
2.429970e+003;3.192804e-002
2.431899e+003;3.209432e-002
2.433828e+003;3.215719e-002
2.435756e+003;3.212368e-002
2.437685e+003;3.241827e-002
2.439613e+003;3.305462e-002
2.441542e+003;3.327482e-002
2.443470e+003;3.307204e-002
2.445399e+003;3.338755e-002
2.447327e+003;3.400014e-002
2.449256e+003;3.432820e-002
2.451185e+003;3.458051e-002
2.453113e+003;3.480119e-002
2.455042e+003;3.475384e-002
2.456970e+003;3.492729e-002
2.458899e+003;3.515889e-002
2.460827e+003;3.531211e-002
2.462756e+003;3.541322e-002
2.464684e+003;3.562728e-002
2.466613e+003;3.607811e-002
2.468542e+003;3.646652e-002
2.470470e+003;3.659720e-002
2.472398e+003;3.677592e-002
2.474327e+003;3.695083e-002
2.476256e+003;3.683932e-002
2.478184e+003;3.706084e-002
2.480113e+003;3.769789e-002
2.482041e+003;3.802355e-002
2.483970e+003;3.811372e-002
2.485898e+003;3.840802e-002
2.487827e+003;3.855852e-002
2.489755e+003;3.838015e-002
2.491684e+003;3.849559e-002
2.493613e+003;3.870023e-002
2.495541e+003;3.887529e-002
2.497470e+003;3.903070e-002
2.499398e+003;3.920630e-002
2.501327e+003;3.950693e-002
2.503255e+003;3.966627e-002
2.505184e+003;3.976680e-002
2.507112e+003;4.002738e-002
2.509041e+003;4.028956e-002
2.510969e+003;4.031567e-002
2.512898e+003;4.029483e-002
2.514827e+003;4.036068e-002
2.516755e+003;4.048723e-002
2.518684e+003;4.067731e-002
2.520612e+003;4.084433e-002
2.522541e+003;4.099924e-002
2.524469e+003;4.097274e-002
2.526398e+003;4.098162e-002
2.528326e+003;4.112821e-002
2.530255e+003;4.130057e-002
2.532184e+003;4.156804e-002
2.534112e+003;4.177520e-002
2.536041e+003;4.179373e-002
2.537969e+003;4.182018e-002
2.539898e+003;4.195340e-002
2.541826e+003;4.196574e-002
2.543755e+003;4.208451e-002
2.545683e+003;4.216600e-002
2.547612e+003;4.218871e-002
2.549541e+003;4.241194e-002
2.551469e+003;4.257988e-002
2.553397e+003;4.270986e-002
2.555326e+003;4.315204e-002
2.557255e+003;4.335823e-002
2.559183e+003;4.342293e-002
2.561112e+003;4.373433e-002
2.563040e+003;4.398590e-002
2.564969e+003;4.388405e-002
2.566897e+003;4.381540e-002
2.568826e+003;4.380085e-002
2.570754e+003;4.379392e-002
2.572683e+003;4.396159e-002
2.574612e+003;4.409404e-002
2.576540e+003;4.415477e-002
2.578469e+003;4.436119e-002
2.580397e+003;4.480310e-002
2.582326e+003;4.514983e-002
2.584254e+003;4.532579e-002
2.586183e+003;4.545446e-002
2.588111e+003;4.552455e-002
2.590040e+003;4.570017e-002
2.591969e+003;4.600828e-002
2.593897e+003;4.606766e-002
2.595826e+003;4.617927e-002
2.597754e+003;4.641212e-002
2.599683e+003;4.679627e-002
2.601611e+003;4.685348e-002
2.603540e+003;4.692014e-002
2.605468e+003;4.737697e-002
2.607397e+003;4.779648e-002
2.609325e+003;4.791131e-002
2.611254e+003;4.794956e-002
2.613183e+003;4.827523e-002
2.615111e+003;4.877001e-002
2.617040e+003;4.904862e-002
2.618968e+003;4.907106e-002
2.620897e+003;4.926078e-002
2.622825e+003;4.955059e-002
2.624754e+003;4.969605e-002
2.626682e+003;4.990496e-002
2.628611e+003;5.028659e-002
2.630540e+003;5.082516e-002
2.632468e+003;5.114922e-002
2.634396e+003;5.131442e-002
2.636325e+003;5.144164e-002
2.638254e+003;5.163202e-002
2.640182e+003;5.204909e-002
2.642111e+003;5.239433e-002
2.644039e+003;5.296991e-002
2.645968e+003;5.342214e-002
2.647896e+003;5.346816e-002
2.649825e+003;5.353453e-002
2.651753e+003;5.395219e-002
2.653682e+003;5.425341e-002
2.655611e+003;5.468728e-002
2.657539e+003;5.522652e-002
2.659468e+003;5.557174e-002
2.661396e+003;5.590374e-002
2.663325e+003;5.617863e-002
2.665253e+003;5.642185e-002
2.667182e+003;5.667098e-002
2.669110e+003;5.701032e-002
2.671039e+003;5.733514e-002
2.672968e+003;5.752018e-002
2.674896e+003;5.792814e-002
2.676825e+003;5.848556e-002
2.678753e+003;5.871787e-002
2.680682e+003;5.898422e-002
2.682610e+003;5.943109e-002
2.684539e+003;5.968238e-002
2.686467e+003;5.990437e-002
2.688396e+003;6.005942e-002
2.690324e+003;6.038246e-002
2.692253e+003;6.097332e-002
2.694182e+003;6.144911e-002
2.696110e+003;6.183545e-002
2.698039e+003;6.205740e-002
2.699967e+003;6.218130e-002
2.701896e+003;6.224615e-002
2.703824e+003;6.249340e-002
2.705753e+003;6.289381e-002
2.707681e+003;6.299010e-002
2.709610e+003;6.312281e-002
2.711539e+003;6.347271e-002
2.713467e+003;6.394219e-002
2.715396e+003;6.438302e-002
2.717324e+003;6.449948e-002
2.719253e+003;6.459451e-002
2.721181e+003;6.481906e-002
2.723110e+003;6.503769e-002
2.725038e+003;6.532051e-002
2.726967e+003;6.550552e-002
2.728896e+003;6.570125e-002
2.730824e+003;6.609263e-002
2.732752e+003;6.644945e-002
2.734681e+003;6.666186e-002
2.736610e+003;6.696727e-002
2.738538e+003;6.704081e-002
2.740467e+003;6.701796e-002
2.742395e+003;6.719058e-002
2.744324e+003;6.741761e-002
2.746252e+003;6.777753e-002
2.748181e+003;6.795472e-002
2.750109e+003;6.770442e-002
2.752038e+003;6.766546e-002
2.753967e+003;6.814384e-002
2.755895e+003;6.850709e-002
2.757824e+003;6.869878e-002
2.759752e+003;6.881823e-002
2.761681e+003;6.899883e-002
2.763609e+003;6.955249e-002
2.765538e+003;7.004082e-002
2.767466e+003;7.047565e-002
2.769395e+003;7.091043e-002
2.771323e+003;7.100482e-002
2.773252e+003;7.103474e-002
2.775181e+003;7.150818e-002
2.777109e+003;7.210096e-002
2.779038e+003;7.259107e-002
2.780966e+003;7.288904e-002
2.782895e+003;7.314800e-002
2.784823e+003;7.328797e-002
2.786752e+003;7.366756e-002
2.788680e+003;7.439894e-002
2.790609e+003;7.492886e-002
2.792538e+003;7.532778e-002
2.794466e+003;7.582427e-002
2.796395e+003;7.642262e-002
2.798323e+003;7.677404e-002
2.800252e+003;7.706353e-002
2.802180e+003;7.772628e-002
2.804109e+003;7.838365e-002
2.806037e+003;7.915026e-002
2.807966e+003;7.970548e-002
2.809895e+003;8.000028e-002
2.811823e+003;8.045378e-002
2.813751e+003;8.102395e-002
2.815680e+003;8.158577e-002
2.817609e+003;8.224625e-002
2.819537e+003;8.303348e-002
2.821466e+003;8.355927e-002
2.823394e+003;8.416351e-002
2.825323e+003;8.494765e-002
2.827251e+003;8.571885e-002
2.829180e+003;8.654552e-002
2.831108e+003;8.745039e-002
2.833037e+003;8.820851e-002
2.834966e+003;8.895706e-002
2.836894e+003;8.987476e-002
2.838823e+003;9.081355e-002
2.840751e+003;9.190540e-002
2.842680e+003;9.278566e-002
2.844608e+003;9.412497e-002
2.846537e+003;9.579115e-002
2.848465e+003;9.711744e-002
2.850394e+003;9.840224e-002
2.852323e+003;9.954648e-002
2.854251e+003;1.007762e-001
2.856180e+003;1.020579e-001
2.858108e+003;1.032776e-001
2.860037e+003;1.048094e-001
2.861965e+003;1.068499e-001
2.863894e+003;1.087245e-001
2.865822e+003;1.099155e-001
2.867751e+003;1.113269e-001
2.869679e+003;1.126563e-001
2.871608e+003;1.139250e-001
2.873536e+003;1.154112e-001
2.875465e+003;1.162196e-001
2.877394e+003;1.166565e-001
2.879322e+003;1.172020e-001
2.881251e+003;1.178101e-001
2.883179e+003;1.182656e-001
2.885108e+003;1.186096e-001
2.887036e+003;1.189184e-001
2.888965e+003;1.192857e-001
2.890893e+003;1.196868e-001
2.892822e+003;1.193017e-001
2.894750e+003;1.189541e-001
2.896679e+003;1.186673e-001
2.898608e+003;1.179765e-001
2.900536e+003;1.173620e-001
2.902465e+003;1.168738e-001
2.904393e+003;1.163312e-001
2.906322e+003;1.156989e-001
2.908250e+003;1.152503e-001
2.910179e+003;1.146280e-001
2.912107e+003;1.139336e-001
2.914036e+003;1.130304e-001
2.915965e+003;1.122616e-001
2.917893e+003;1.117144e-001
2.919822e+003;1.109637e-001
2.921750e+003;1.095870e-001
2.923679e+003;1.082203e-001
2.925607e+003;1.075764e-001
2.927536e+003;1.065955e-001
2.929464e+003;1.050444e-001
2.931393e+003;1.039072e-001
2.933322e+003;1.030889e-001
2.935250e+003;1.021631e-001
2.937178e+003;1.010108e-001
2.939107e+003;9.957040e-002
2.941036e+003;9.828547e-002
2.942964e+003;9.719593e-002
2.944893e+003;9.599825e-002
2.946821e+003;9.493838e-002
2.948750e+003;9.358419e-002
2.950678e+003;9.208199e-002
2.952607e+003;9.081245e-002
2.954535e+003;8.959182e-002
2.956464e+003;8.830027e-002
2.958393e+003;8.738855e-002
2.960321e+003;8.676703e-002
2.962250e+003;8.549468e-002
2.964178e+003;8.406691e-002
2.966107e+003;8.294026e-002
2.968035e+003;8.227856e-002
2.969964e+003;8.180389e-002
2.971892e+003;8.127579e-002
2.973821e+003;8.063933e-002
2.975750e+003;8.040401e-002
2.977678e+003;8.012351e-002
2.979607e+003;7.939564e-002
2.981535e+003;7.868983e-002
2.983464e+003;7.809477e-002
2.985392e+003;7.758301e-002
2.987321e+003;7.733493e-002
2.989249e+003;7.685957e-002
2.991178e+003;7.613493e-002
2.993106e+003;7.610575e-002
2.995035e+003;7.613833e-002
2.996964e+003;7.597648e-002
2.998892e+003;7.576615e-002
3.000821e+003;7.556359e-002
3.002749e+003;7.574064e-002
3.004678e+003;7.601784e-002
3.006606e+003;7.615115e-002
3.008535e+003;7.640626e-002
3.010463e+003;7.683817e-002
3.012392e+003;7.689723e-002
3.014321e+003;7.719369e-002
3.016249e+003;7.782120e-002
3.018177e+003;7.811897e-002
3.020106e+003;7.811508e-002
3.022035e+003;7.816450e-002
3.023963e+003;7.868260e-002
3.025892e+003;7.945500e-002
3.027820e+003;7.987080e-002
3.029749e+003;8.059117e-002
3.031677e+003;8.137444e-002
3.033606e+003;8.185434e-002
3.035534e+003;8.253409e-002
3.037463e+003;8.339743e-002
3.039392e+003;8.370295e-002
3.041320e+003;8.387390e-002
3.043249e+003;8.447488e-002
3.045177e+003;8.531007e-002
3.047106e+003;8.620369e-002
3.049034e+003;8.688904e-002
3.050963e+003;8.736955e-002
3.052891e+003;8.798736e-002
3.054820e+003;8.883885e-002
3.056749e+003;8.949170e-002
3.058677e+003;9.001978e-002
3.060606e+003;9.042408e-002
3.062534e+003;9.070595e-002
3.064463e+003;9.134280e-002
3.066391e+003;9.223200e-002
3.068320e+003;9.284241e-002
3.070248e+003;9.345733e-002
3.072177e+003;9.433030e-002
3.074105e+003;9.493702e-002
3.076034e+003;9.557271e-002
3.077963e+003;9.621111e-002
3.079891e+003;9.677377e-002
3.081820e+003;9.772799e-002
3.083748e+003;9.889367e-002
3.085677e+003;9.959295e-002
3.087605e+003;1.000516e-001
3.089534e+003;1.008377e-001
3.091462e+003;1.018843e-001
3.093391e+003;1.025767e-001
3.095320e+003;1.030697e-001
3.097248e+003;1.036067e-001
3.099177e+003;1.043472e-001
3.101105e+003;1.051890e-001
3.103034e+003;1.058505e-001
3.104962e+003;1.066176e-001
3.106891e+003;1.071841e-001
3.108819e+003;1.079307e-001
3.110748e+003;1.087624e-001
3.112677e+003;1.093597e-001
3.114605e+003;1.098901e-001
3.116533e+003;1.105245e-001
3.118462e+003;1.112527e-001
3.120391e+003;1.120219e-001
3.122319e+003;1.128480e-001
3.124248e+003;1.136091e-001
3.126176e+003;1.144687e-001
3.128105e+003;1.152769e-001
3.130033e+003;1.158796e-001
3.131962e+003;1.163212e-001
3.133890e+003;1.169258e-001
3.135819e+003;1.176756e-001
3.137748e+003;1.184354e-001
3.139676e+003;1.188540e-001
3.141605e+003;1.193345e-001
3.143533e+003;1.202470e-001
3.145462e+003;1.210599e-001
3.147390e+003;1.217781e-001
3.149319e+003;1.225127e-001
3.151247e+003;1.229614e-001
3.153176e+003;1.233791e-001
3.155104e+003;1.243018e-001
3.157033e+003;1.251997e-001
3.158962e+003;1.252926e-001
3.160890e+003;1.256378e-001
3.162819e+003;1.263749e-001
3.164747e+003;1.269742e-001
3.166676e+003;1.275553e-001
3.168604e+003;1.285296e-001
3.170533e+003;1.294078e-001
3.172461e+003;1.300270e-001
3.174390e+003;1.307235e-001
3.176319e+003;1.313002e-001
3.178247e+003;1.318200e-001
3.180176e+003;1.324491e-001
3.182104e+003;1.327397e-001
3.184033e+003;1.332289e-001
3.185961e+003;1.342180e-001
3.187890e+003;1.352782e-001
3.189818e+003;1.358611e-001
3.191747e+003;1.362958e-001
3.193676e+003;1.368114e-001
3.195604e+003;1.370500e-001
3.197532e+003;1.374436e-001
3.199461e+003;1.382220e-001
3.201390e+003;1.392684e-001
3.203318e+003;1.397904e-001
3.205247e+003;1.399656e-001
3.207175e+003;1.405471e-001
3.209104e+003;1.409421e-001
3.211032e+003;1.414991e-001
3.212961e+003;1.424571e-001
3.214889e+003;1.433140e-001
3.216818e+003;1.440506e-001
3.218747e+003;1.444614e-001
3.220675e+003;1.445408e-001
3.222604e+003;1.447814e-001
3.224532e+003;1.454876e-001
3.226461e+003;1.460688e-001
3.228389e+003;1.468347e-001
3.230318e+003;1.476262e-001
3.232246e+003;1.477779e-001
3.234175e+003;1.478685e-001
3.236104e+003;1.485668e-001
3.238032e+003;1.490404e-001
3.239961e+003;1.492699e-001
3.241889e+003;1.496511e-001
3.243818e+003;1.502901e-001
3.245746e+003;1.507584e-001
3.247675e+003;1.512067e-001
3.249603e+003;1.519836e-001
3.251532e+003;1.525735e-001
3.253460e+003;1.529697e-001
3.255389e+003;1.531407e-001
3.257318e+003;1.531284e-001
3.259246e+003;1.533213e-001
3.261175e+003;1.537429e-001
3.263103e+003;1.541097e-001
3.265032e+003;1.544885e-001
3.266960e+003;1.550413e-001
3.268889e+003;1.559169e-001
3.270817e+003;1.567284e-001
3.272746e+003;1.571203e-001
3.274675e+003;1.569037e-001
3.276603e+003;1.565681e-001
3.278531e+003;1.571773e-001
3.280460e+003;1.578472e-001
3.282389e+003;1.581319e-001
3.284317e+003;1.584734e-001
3.286246e+003;1.588489e-001
3.288174e+003;1.591336e-001
3.290103e+003;1.589252e-001
3.292031e+003;1.583959e-001
3.293960e+003;1.584717e-001
3.295888e+003;1.591902e-001
3.297817e+003;1.596697e-001
3.299746e+003;1.599289e-001
3.301674e+003;1.603002e-001
3.303603e+003;1.607631e-001
3.305531e+003;1.609622e-001
3.307460e+003;1.608587e-001
3.309388e+003;1.610377e-001
3.311317e+003;1.610511e-001
3.313245e+003;1.612372e-001
3.315174e+003;1.612864e-001
3.317103e+003;1.611225e-001
3.319031e+003;1.617031e-001
3.320960e+003;1.619455e-001
3.322888e+003;1.617168e-001
3.324817e+003;1.615887e-001
3.326745e+003;1.616845e-001
3.328674e+003;1.620496e-001
3.330602e+003;1.617496e-001
3.332531e+003;1.614275e-001
3.334459e+003;1.616861e-001
3.336388e+003;1.621902e-001
3.338317e+003;1.627510e-001
3.340245e+003;1.626479e-001
3.342174e+003;1.617655e-001
3.344102e+003;1.614859e-001
3.346031e+003;1.615720e-001
3.347959e+003;1.612473e-001
3.349888e+003;1.613205e-001
3.351816e+003;1.614583e-001
3.353745e+003;1.607125e-001
3.355674e+003;1.604401e-001
3.357602e+003;1.606250e-001
3.359531e+003;1.605419e-001
3.361459e+003;1.600844e-001
3.363388e+003;1.590771e-001
3.365316e+003;1.585719e-001
3.367245e+003;1.586873e-001
3.369173e+003;1.587525e-001
3.371102e+003;1.586342e-001
3.373031e+003;1.585074e-001
3.374959e+003;1.583079e-001
3.376887e+003;1.578638e-001
3.378816e+003;1.574611e-001
3.380745e+003;1.573060e-001
3.382673e+003;1.567556e-001
3.384602e+003;1.560759e-001
3.386530e+003;1.555752e-001
3.388459e+003;1.549658e-001
3.390387e+003;1.547731e-001
3.392316e+003;1.548227e-001
3.394244e+003;1.544152e-001
3.396173e+003;1.537488e-001
3.398102e+003;1.532799e-001
3.400030e+003;1.527879e-001
3.401959e+003;1.522071e-001
3.403887e+003;1.521922e-001
3.405816e+003;1.521448e-001
3.407744e+003;1.518418e-001
3.409673e+003;1.515117e-001
3.411601e+003;1.507826e-001
3.413530e+003;1.497466e-001
3.415458e+003;1.491625e-001
3.417387e+003;1.487514e-001
3.419316e+003;1.479724e-001
3.421244e+003;1.475776e-001
3.423173e+003;1.475967e-001
3.425101e+003;1.471033e-001
3.427030e+003;1.463969e-001
3.428958e+003;1.460270e-001
3.430887e+003;1.453953e-001
3.432815e+003;1.445216e-001
3.434744e+003;1.442137e-001
3.436673e+003;1.437508e-001
3.438601e+003;1.429911e-001
3.440530e+003;1.424176e-001
3.442458e+003;1.419512e-001
3.444387e+003;1.408252e-001
3.446315e+003;1.394114e-001
3.448244e+003;1.381713e-001
3.450172e+003;1.371343e-001
3.452101e+003;1.360510e-001
3.454030e+003;1.350413e-001
3.455958e+003;1.340838e-001
3.457886e+003;1.331049e-001
3.459815e+003;1.318624e-001
3.461744e+003;1.305265e-001
3.463672e+003;1.291129e-001
3.465601e+003;1.276516e-001
3.467529e+003;1.265320e-001
3.469458e+003;1.261563e-001
3.471386e+003;1.252538e-001
3.473315e+003;1.239563e-001
3.475243e+003;1.229894e-001
3.477172e+003;1.219744e-001
3.479101e+003;1.207442e-001
3.481029e+003;1.195379e-001
3.482958e+003;1.187807e-001
3.484886e+003;1.182194e-001
3.486815e+003;1.173061e-001
3.488743e+003;1.159749e-001
3.490672e+003;1.144206e-001
3.492600e+003;1.136438e-001
3.494529e+003;1.129980e-001
3.496458e+003;1.114693e-001
3.498386e+003;1.097816e-001
3.500315e+003;1.080570e-001
3.502243e+003;1.063511e-001
3.504172e+003;1.049841e-001
3.506100e+003;1.035358e-001
3.508029e+003;1.023346e-001
3.509957e+003;1.013238e-001
3.511886e+003;1.001209e-001
3.513814e+003;9.862531e-002
3.515743e+003;9.718801e-002
3.517672e+003;9.623820e-002
3.519600e+003;9.538860e-002
3.521529e+003;9.450902e-002
3.523457e+003;9.362719e-002
3.525386e+003;9.258325e-002
3.527314e+003;9.102973e-002
3.529243e+003;8.973659e-002
3.531171e+003;8.860365e-002
3.533100e+003;8.754353e-002
3.535029e+003;8.613718e-002
3.536957e+003;8.507346e-002
3.538885e+003;8.434095e-002
3.540814e+003;8.296116e-002
3.542743e+003;8.163875e-002
3.544671e+003;8.067212e-002
3.546600e+003;7.977929e-002
3.548528e+003;7.898390e-002
3.550457e+003;7.817978e-002
3.552385e+003;7.716540e-002
3.554314e+003;7.627531e-002
3.556242e+003;7.518549e-002
3.558171e+003;7.375825e-002
3.560100e+003;7.266881e-002
3.562028e+003;7.206614e-002
3.563957e+003;7.124567e-002
3.565885e+003;7.018925e-002
3.567814e+003;6.927845e-002
3.569742e+003;6.813996e-002
3.571671e+003;6.704912e-002
3.573599e+003;6.629900e-002
3.575528e+003;6.557325e-002
3.577457e+003;6.459216e-002
3.579385e+003;6.329159e-002
3.581314e+003;6.230099e-002
3.583242e+003;6.193823e-002
3.585171e+003;6.116594e-002
3.587099e+003;6.007853e-002
3.589028e+003;5.912885e-002
3.590956e+003;5.832470e-002
3.592885e+003;5.789475e-002
3.594813e+003;5.695003e-002
3.596742e+003;5.567772e-002
3.598671e+003;5.460578e-002
3.600599e+003;5.335204e-002
3.602528e+003;5.264905e-002
3.604456e+003;5.221897e-002
3.606385e+003;5.107997e-002
3.608313e+003;5.014253e-002
3.610242e+003;4.917413e-002
3.612170e+003;4.810630e-002
3.614099e+003;4.732505e-002
3.616028e+003;4.629345e-002
3.617956e+003;4.512947e-002
3.619885e+003;4.399880e-002
3.621813e+003;4.302292e-002
3.623742e+003;4.246262e-002
3.625670e+003;4.199121e-002
3.627599e+003;4.069373e-002
3.629527e+003;3.943896e-002
3.631456e+003;3.851000e-002
3.633385e+003;3.763245e-002
3.635313e+003;3.667843e-002
3.637241e+003;3.578089e-002
3.639170e+003;3.455529e-002
3.641099e+003;3.358916e-002
3.643027e+003;3.301594e-002
3.644956e+003;3.215223e-002
3.646884e+003;3.099940e-002
3.648813e+003;2.958618e-002
3.650741e+003;2.833826e-002
3.652670e+003;2.728250e-002
3.654598e+003;2.642302e-002
3.656527e+003;2.561059e-002
3.658456e+003;2.482359e-002
3.660384e+003;2.400125e-002
3.662313e+003;2.323226e-002
3.664241e+003;2.246551e-002
3.666170e+003;2.171439e-002
3.668098e+003;2.080815e-002
3.670027e+003;1.968594e-002
3.671955e+003;1.897858e-002
3.673884e+003;1.858914e-002
3.675813e+003;1.811277e-002
3.677741e+003;1.784441e-002
3.679669e+003;1.745464e-002
3.681598e+003;1.665293e-002
3.683527e+003;1.619991e-002
3.685455e+003;1.559899e-002
3.687384e+003;1.486585e-002
3.689312e+003;1.430851e-002
3.691241e+003;1.406401e-002
3.693169e+003;1.407418e-002
3.695098e+003;1.343453e-002
3.697026e+003;1.285258e-002
3.698955e+003;1.275614e-002
3.700884e+003;1.255685e-002
3.702812e+003;1.230358e-002
3.704741e+003;1.221776e-002
3.706669e+003;1.209700e-002
3.708598e+003;1.154494e-002
3.710526e+003;1.113406e-002
3.712455e+003;1.127723e-002
3.714383e+003;1.155032e-002
3.716312e+003;1.143580e-002
3.718240e+003;1.088631e-002
3.720169e+003;1.055678e-002
3.722098e+003;1.036100e-002
3.724026e+003;1.034166e-002
3.725955e+003;1.021762e-002
3.727883e+003;1.026664e-002
3.729812e+003;1.031248e-002
3.731740e+003;9.960797e-003
3.733669e+003;9.829273e-003
3.735597e+003;9.527464e-003
3.737526e+003;9.122783e-003
3.739455e+003;9.102921e-003
3.741383e+003;9.342275e-003
3.743312e+003;9.392890e-003
3.745240e+003;9.400440e-003
3.747169e+003;9.291631e-003
3.749097e+003;8.956064e-003
3.751026e+003;8.735010e-003
3.752954e+003;8.909795e-003
3.754883e+003;9.302531e-003
3.756812e+003;9.244141e-003
3.758740e+003;8.958195e-003
3.760668e+003;8.702219e-003
3.762597e+003;8.575639e-003
3.764526e+003;8.446562e-003
3.766454e+003;8.324244e-003
3.768383e+003;8.511602e-003
3.770311e+003;8.584763e-003
3.772240e+003;8.702692e-003
3.774168e+003;9.017765e-003
3.776097e+003;9.001628e-003
3.778025e+003;8.851695e-003
3.779954e+003;8.591793e-003
3.781883e+003;8.358392e-003
3.783811e+003;8.305702e-003
3.785740e+003;8.271727e-003
3.787668e+003;8.357447e-003
3.789597e+003;8.294321e-003
3.791525e+003;8.154928e-003
3.793454e+003;8.386260e-003
3.795382e+003;8.384571e-003
3.797311e+003;8.476867e-003
3.799240e+003;8.703436e-003
3.801168e+003;8.414974e-003
3.803097e+003;8.080387e-003
3.805025e+003;7.995938e-003
3.806954e+003;7.806879e-003
3.808882e+003;7.729700e-003
3.810811e+003;7.900268e-003
3.812739e+003;8.289389e-003
3.814668e+003;8.285945e-003
3.816596e+003;8.346976e-003
3.818525e+003;8.331033e-003
3.820454e+003;8.270443e-003
3.822382e+003;8.419704e-003
3.824311e+003;8.721353e-003
3.826239e+003;9.091823e-003
3.828168e+003;9.024158e-003
3.830096e+003;8.665374e-003
3.832025e+003;8.423656e-003
3.833953e+003;8.618493e-003
3.835882e+003;8.539007e-003
3.837811e+003;8.227252e-003
3.839739e+003;8.479841e-003
3.841667e+003;8.651718e-003
3.843596e+003;8.791608e-003
3.845525e+003;8.617276e-003
3.847453e+003;8.361128e-003
3.849382e+003;8.763714e-003
3.851310e+003;8.916560e-003
3.853239e+003;8.576788e-003
3.855167e+003;8.850478e-003
3.857096e+003;8.918521e-003
3.859024e+003;8.716078e-003
3.860953e+003;9.061812e-003
3.862882e+003;9.444933e-003
3.864810e+003;9.295896e-003
3.866739e+003;9.052610e-003
3.868667e+003;9.139262e-003
3.870596e+003;9.657168e-003
3.872524e+003;9.917268e-003
3.874453e+003;9.525635e-003
3.876381e+003;9.684374e-003
3.878310e+003;1.005675e-002
3.880239e+003;1.005119e-002
3.882167e+003;9.970052e-003
3.884096e+003;9.996633e-003
3.886024e+003;9.769593e-003
3.887953e+003;1.000524e-002
3.889881e+003;1.048440e-002
3.891810e+003;1.050623e-002
3.893738e+003;1.050487e-002
3.895667e+003;1.066760e-002
3.897595e+003;1.056971e-002
3.899524e+003;1.031105e-002
3.901453e+003;1.035068e-002
3.903381e+003;1.085268e-002
3.905310e+003;1.099912e-002
3.907238e+003;1.077349e-002
3.909167e+003;1.080029e-002
3.911095e+003;1.126639e-002
3.913024e+003;1.168941e-002
3.914952e+003;1.146611e-002
3.916881e+003;1.132427e-002
3.918810e+003;1.159061e-002
3.920738e+003;1.156124e-002
3.922667e+003;1.131934e-002
3.924595e+003;1.141171e-002
3.926524e+003;1.174255e-002
3.928452e+003;1.217172e-002
3.930381e+003;1.231261e-002
3.932309e+003;1.227004e-002
3.934238e+003;1.221950e-002
3.936167e+003;1.221122e-002
3.938095e+003;1.237858e-002
3.940023e+003;1.265819e-002
3.941952e+003;1.281692e-002
3.943881e+003;1.264243e-002
3.945809e+003;1.260538e-002
3.947738e+003;1.269660e-002
3.949666e+003;1.251896e-002
3.951595e+003;1.258805e-002
3.953523e+003;1.271724e-002
3.955452e+003;1.258328e-002
3.957380e+003;1.260682e-002
3.959309e+003;1.297020e-002
3.961238e+003;1.323985e-002
3.963166e+003;1.303569e-002
3.965095e+003;1.304190e-002
3.967023e+003;1.315551e-002
3.968952e+003;1.333687e-002
3.970880e+003;1.355987e-002
3.972809e+003;1.326687e-002
3.974737e+003;1.255804e-002
3.976666e+003;1.289415e-002
3.978594e+003;1.373784e-002
3.980523e+003;1.369560e-002
3.982452e+003;1.316935e-002
3.984380e+003;1.320002e-002
3.986309e+003;1.306201e-002
3.988237e+003;1.280135e-002
3.990166e+003;1.331210e-002
3.992094e+003;1.366685e-002
3.994023e+003;1.381879e-002
3.995951e+003;1.376342e-002
3.997880e+003;1.360807e-002
3.999809e+003;1.352425e-002
4.001737e+003;0.000000e+000
