3.992094e+002;0.000000e+000
4.011380e+002;0.000000e+000
4.030665e+002;0.000000e+000
4.049951e+002;0.000000e+000
4.069236e+002;0.000000e+000
4.088522e+002;0.000000e+000
4.107807e+002;0.000000e+000
4.127093e+002;0.000000e+000
4.146378e+002;0.000000e+000
4.165664e+002;0.000000e+000
4.184949e+002;0.000000e+000
4.204235e+002;0.000000e+000
4.223520e+002;0.000000e+000
4.242806e+002;0.000000e+000
4.262091e+002;0.000000e+000
4.281377e+002;0.000000e+000
4.300662e+002;0.000000e+000
4.319948e+002;0.000000e+000
4.339233e+002;0.000000e+000
4.358519e+002;0.000000e+000
4.377804e+002;0.000000e+000
4.397090e+002;0.000000e+000
4.416375e+002;0.000000e+000
4.435660e+002;0.000000e+000
4.454946e+002;0.000000e+000
4.474232e+002;0.000000e+000
4.493517e+002;0.000000e+000
4.512802e+002;0.000000e+000
4.532088e+002;0.000000e+000
4.551373e+002;0.000000e+000
4.570659e+002;0.000000e+000
4.589944e+002;0.000000e+000
4.609230e+002;0.000000e+000
4.628515e+002;0.000000e+000
4.647801e+002;0.000000e+000
4.667086e+002;0.000000e+000
4.686372e+002;0.000000e+000
4.705657e+002;0.000000e+000
4.724943e+002;0.000000e+000
4.744228e+002;0.000000e+000
4.763513e+002;0.000000e+000
4.782799e+002;0.000000e+000
4.802085e+002;0.000000e+000
4.821370e+002;0.000000e+000
4.840656e+002;0.000000e+000
4.859941e+002;0.000000e+000
4.879226e+002;0.000000e+000
4.898512e+002;0.000000e+000
4.917798e+002;0.000000e+000
4.937083e+002;0.000000e+000
4.956368e+002;0.000000e+000
4.975654e+002;0.000000e+000
4.994939e+002;0.000000e+000
5.014225e+002;0.000000e+000
5.033510e+002;0.000000e+000
5.052796e+002;0.000000e+000
5.072081e+002;0.000000e+000
5.091367e+002;0.000000e+000
5.110652e+002;0.000000e+000
5.129938e+002;0.000000e+000
5.149223e+002;0.000000e+000
5.168509e+002;0.000000e+000
5.187794e+002;0.000000e+000
5.207079e+002;0.000000e+000
5.226365e+002;0.000000e+000
5.245651e+002;0.000000e+000
5.264936e+002;0.000000e+000
5.284222e+002;0.000000e+000
5.303507e+002;0.000000e+000
5.322792e+002;0.000000e+000
5.342078e+002;0.000000e+000
5.361364e+002;0.000000e+000
5.380649e+002;0.000000e+000
5.399935e+002;0.000000e+000
5.419220e+002;0.000000e+000
5.438505e+002;0.000000e+000
5.457791e+002;0.000000e+000
5.477076e+002;0.000000e+000
5.496362e+002;0.000000e+000
5.515648e+002;0.000000e+000
5.534933e+002;0.000000e+000
5.554218e+002;0.000000e+000
5.573504e+002;0.000000e+000
5.592789e+002;0.000000e+000
5.612075e+002;0.000000e+000
5.631360e+002;0.000000e+000
5.650646e+002;0.000000e+000
5.669931e+002;0.000000e+000
5.689217e+002;0.000000e+000
5.708502e+002;0.000000e+000
5.727787e+002;0.000000e+000
5.747073e+002;0.000000e+000
5.766359e+002;0.000000e+000
5.785644e+002;0.000000e+000
5.804930e+002;0.000000e+000
5.824215e+002;0.000000e+000
5.843500e+002;0.000000e+000
5.862786e+002;0.000000e+000
5.882072e+002;0.000000e+000
5.901357e+002;0.000000e+000
5.920643e+002;0.000000e+000
5.939928e+002;0.000000e+000
5.959213e+002;0.000000e+000
5.978499e+002;0.000000e+000
5.997784e+002;2.523957e-001
6.017070e+002;2.521262e-001
6.036355e+002;2.572930e-001
6.055641e+002;2.635292e-001
6.074926e+002;2.685961e-001
6.094211e+002;2.678475e-001
6.113497e+002;2.650913e-001
6.132783e+002;2.656736e-001
6.152068e+002;2.614474e-001
6.171354e+002;2.539636e-001
6.190639e+002;2.489679e-001
6.209924e+002;2.481790e-001
6.229210e+002;2.453576e-001
6.248495e+002;2.418592e-001
6.267781e+002;2.378912e-001
6.287067e+002;2.349975e-001
6.306352e+002;2.347906e-001
6.325637e+002;2.340910e-001
6.344923e+002;2.297981e-001
6.364208e+002;2.293662e-001
6.383494e+002;2.331582e-001
6.402780e+002;2.331018e-001
6.422065e+002;2.333166e-001
6.441350e+002;2.334287e-001
6.460636e+002;2.297637e-001
6.479921e+002;2.271917e-001
6.499207e+002;2.299165e-001
6.518492e+002;2.318856e-001
6.537778e+002;2.325472e-001
6.557063e+002;2.357890e-001
6.576349e+002;2.385312e-001
6.595634e+002;2.383946e-001
6.614919e+002;2.413132e-001
6.634205e+002;2.458566e-001
6.653491e+002;2.482516e-001
6.672776e+002;2.469452e-001
6.692062e+002;2.454311e-001
6.711347e+002;2.414774e-001
6.730632e+002;2.343816e-001
6.749918e+002;2.237483e-001
6.769203e+002;2.124033e-001
6.788489e+002;2.034236e-001
6.807775e+002;1.964104e-001
6.827060e+002;1.906952e-001
6.846345e+002;1.870983e-001
6.865631e+002;1.856188e-001
6.884916e+002;1.846496e-001
6.904202e+002;1.833855e-001
6.923488e+002;1.827252e-001
6.942773e+002;1.829266e-001
6.962058e+002;1.836462e-001
6.981344e+002;1.830915e-001
7.000629e+002;1.818095e-001
7.019915e+002;1.807027e-001
7.039200e+002;1.793343e-001
7.058486e+002;1.782505e-001
7.077771e+002;1.776836e-001
7.097057e+002;1.769109e-001
7.116342e+002;1.760741e-001
7.135627e+002;1.754279e-001
7.154913e+002;1.749698e-001
7.174199e+002;1.740682e-001
7.193484e+002;1.731207e-001
7.212770e+002;1.718259e-001
7.232055e+002;1.701087e-001
7.251340e+002;1.692629e-001
7.270626e+002;1.684632e-001
7.289911e+002;1.673907e-001
7.309197e+002;1.659843e-001
7.328483e+002;1.648483e-001
7.347768e+002;1.632585e-001
7.367053e+002;1.620106e-001
7.386339e+002;1.621278e-001
7.405624e+002;1.612069e-001
7.424910e+002;1.596806e-001
7.444196e+002;1.583599e-001
7.463481e+002;1.569731e-001
7.482766e+002;1.558956e-001
7.502052e+002;1.556729e-001
7.521337e+002;1.551966e-001
7.540623e+002;1.541063e-001
7.559908e+002;1.522820e-001
7.579194e+002;1.509502e-001
7.598479e+002;1.500318e-001
7.617765e+002;1.488526e-001
7.637050e+002;1.474260e-001
7.656335e+002;1.467308e-001
7.675621e+002;1.460714e-001
7.694907e+002;1.453025e-001
7.714192e+002;1.445390e-001
7.733478e+002;1.442325e-001
7.752763e+002;1.438004e-001
7.772048e+002;1.433052e-001
7.791334e+002;1.432952e-001
7.810620e+002;1.426564e-001
7.829905e+002;1.412904e-001
7.849191e+002;1.399837e-001
7.868476e+002;1.391420e-001
7.887761e+002;1.388185e-001
7.907047e+002;1.386022e-001
7.926332e+002;1.380899e-001
7.945618e+002;1.375120e-001
7.964903e+002;1.372985e-001
7.984189e+002;1.371595e-001
8.003474e+002;1.370428e-001
8.022759e+002;1.367331e-001
8.042045e+002;1.368104e-001
8.061331e+002;1.368906e-001
8.080616e+002;1.363514e-001
8.099902e+002;1.358576e-001
8.119187e+002;1.355090e-001
8.138472e+002;1.346710e-001
8.157758e+002;1.342164e-001
8.177043e+002;1.346132e-001
8.196329e+002;1.350293e-001
8.215615e+002;1.350613e-001
8.234900e+002;1.348451e-001
8.254185e+002;1.347871e-001
8.273471e+002;1.345293e-001
8.292756e+002;1.340719e-001
8.312042e+002;1.341810e-001
8.331328e+002;1.342777e-001
8.350613e+002;1.338215e-001
8.369898e+002;1.333720e-001
8.389184e+002;1.325383e-001
8.408469e+002;1.320245e-001
8.427755e+002;1.321218e-001
8.447040e+002;1.322061e-001
8.466326e+002;1.322063e-001
8.485611e+002;1.319056e-001
8.504897e+002;1.318324e-001
8.524182e+002;1.325167e-001
8.543467e+002;1.329546e-001
8.562753e+002;1.326424e-001
8.582039e+002;1.330877e-001
8.601324e+002;1.341797e-001
8.620610e+002;1.348567e-001
8.639895e+002;1.357915e-001
8.659180e+002;1.373093e-001
8.678466e+002;1.387887e-001
8.697751e+002;1.402995e-001
8.717037e+002;1.424585e-001
8.736323e+002;1.451706e-001
8.755608e+002;1.480271e-001
8.774893e+002;1.515368e-001
8.794179e+002;1.553128e-001
8.813464e+002;1.595378e-001
8.832750e+002;1.645405e-001
8.852036e+002;1.701086e-001
8.871321e+002;1.758592e-001
8.890606e+002;1.816846e-001
8.909892e+002;1.867492e-001
8.929177e+002;1.904446e-001
8.948463e+002;1.911589e-001
8.967748e+002;1.889351e-001
8.987034e+002;1.857234e-001
9.006319e+002;1.816455e-001
9.025605e+002;1.772701e-001
9.044890e+002;1.729905e-001
9.064175e+002;1.689710e-001
9.083461e+002;1.658791e-001
9.102747e+002;1.633963e-001
9.122032e+002;1.606313e-001
9.141318e+002;1.591545e-001
9.160603e+002;1.584847e-001
9.179888e+002;1.581144e-001
9.199174e+002;1.586671e-001
9.218459e+002;1.599077e-001
9.237745e+002;1.612411e-001
9.257031e+002;1.624294e-001
9.276316e+002;1.636108e-001
9.295601e+002;1.651664e-001
9.314887e+002;1.667305e-001
9.334172e+002;1.682417e-001
9.353458e+002;1.698736e-001
9.372744e+002;1.715339e-001
9.392029e+002;1.737293e-001
9.411314e+002;1.765116e-001
9.430600e+002;1.792740e-001
9.449885e+002;1.820714e-001
9.469171e+002;1.854167e-001
9.488456e+002;1.891280e-001
9.507742e+002;1.933399e-001
9.527027e+002;1.980862e-001
9.546313e+002;2.031456e-001
9.565598e+002;2.083232e-001
9.584883e+002;2.137968e-001
9.604169e+002;2.192027e-001
9.623455e+002;2.242283e-001
9.642740e+002;2.292446e-001
9.662026e+002;2.343403e-001
9.681311e+002;2.391675e-001
9.700596e+002;2.447291e-001
9.719882e+002;2.513923e-001
9.739167e+002;2.586282e-001
9.758453e+002;2.675280e-001
9.777739e+002;2.785166e-001
9.797024e+002;2.911294e-001
9.816309e+002;3.053937e-001
9.835595e+002;3.207564e-001
9.854880e+002;3.363076e-001
9.874166e+002;3.509696e-001
9.893452e+002;3.646173e-001
9.912737e+002;3.765709e-001
9.932022e+002;3.856317e-001
9.951307e+002;3.919656e-001
9.970593e+002;3.954184e-001
9.989879e+002;3.967869e-001
1.000916e+003;3.980652e-001
1.002845e+003;4.008307e-001
1.004773e+003;4.053240e-001
1.006702e+003;4.116220e-001
1.008631e+003;4.193431e-001
1.010559e+003;4.279295e-001
1.012488e+003;4.366489e-001
1.014416e+003;4.449693e-001
1.016345e+003;4.520130e-001
1.018273e+003;4.572943e-001
1.020202e+003;4.606677e-001
1.022130e+003;4.622881e-001
1.024059e+003;4.615246e-001
1.025988e+003;4.587840e-001
1.027916e+003;4.547526e-001
1.029845e+003;4.499308e-001
1.031773e+003;4.439221e-001
1.033702e+003;4.378299e-001
1.035630e+003;4.323021e-001
1.037559e+003;4.276778e-001
1.039487e+003;4.241553e-001
1.041416e+003;4.214160e-001
1.043344e+003;4.200726e-001
1.045273e+003;4.185281e-001
1.047202e+003;4.159704e-001
1.049130e+003;4.129932e-001
1.051059e+003;4.104599e-001
1.052987e+003;4.083418e-001
1.054916e+003;4.054559e-001
1.056844e+003;4.011476e-001
1.058773e+003;3.962756e-001
1.060701e+003;3.909316e-001
1.062630e+003;3.834861e-001
1.064558e+003;3.748429e-001
1.066487e+003;3.662528e-001
1.068416e+003;3.588960e-001
1.070344e+003;3.538508e-001
1.072273e+003;3.490810e-001
1.074201e+003;3.439530e-001
1.076130e+003;3.388021e-001
1.078058e+003;3.331524e-001
1.079987e+003;3.279016e-001
1.081915e+003;3.228209e-001
1.083844e+003;3.170977e-001
1.085773e+003;3.114960e-001
1.087701e+003;3.064583e-001
1.089630e+003;3.013865e-001
1.091558e+003;2.956466e-001
1.093487e+003;2.899377e-001
1.095415e+003;2.845132e-001
1.097344e+003;2.784168e-001
1.099272e+003;2.712799e-001
1.101201e+003;2.639787e-001
1.103129e+003;2.579107e-001
1.105058e+003;2.533625e-001
1.106987e+003;2.500300e-001
1.108915e+003;2.471794e-001
1.110844e+003;2.442993e-001
1.112772e+003;2.398946e-001
1.114701e+003;2.339920e-001
1.116629e+003;2.286766e-001
1.118558e+003;2.242460e-001
1.120486e+003;2.191707e-001
1.122415e+003;2.131863e-001
1.124344e+003;2.070744e-001
1.126272e+003;2.015630e-001
1.128201e+003;1.962053e-001
1.130129e+003;1.912283e-001
1.132058e+003;1.864192e-001
1.133986e+003;1.818716e-001
1.135915e+003;1.779975e-001
1.137843e+003;1.746327e-001
1.139772e+003;1.724676e-001
1.141700e+003;1.718885e-001
1.143629e+003;1.722142e-001
1.145557e+003;1.729105e-001
1.147486e+003;1.744217e-001
1.149415e+003;1.768039e-001
1.151343e+003;1.793323e-001
1.153272e+003;1.812454e-001
1.155200e+003;1.822191e-001
1.157129e+003;1.820735e-001
1.159057e+003;1.800776e-001
1.160986e+003;1.757618e-001
1.162914e+003;1.697867e-001
1.164843e+003;1.631808e-001
1.166771e+003;1.564659e-001
1.168700e+003;1.501113e-001
1.170629e+003;1.439268e-001
1.172557e+003;1.379208e-001
1.174486e+003;1.329601e-001
1.176414e+003;1.294581e-001
1.178343e+003;1.263981e-001
1.180271e+003;1.237368e-001
1.182200e+003;1.220989e-001
1.184128e+003;1.213364e-001
1.186057e+003;1.215857e-001
1.187986e+003;1.232099e-001
1.189914e+003;1.257006e-001
1.191843e+003;1.283476e-001
1.193771e+003;1.310433e-001
1.195700e+003;1.333449e-001
1.197628e+003;1.348941e-001
1.199557e+003;1.353714e-001
1.201485e+003;1.342336e-001
1.203414e+003;1.318647e-001
1.205343e+003;1.294214e-001
1.207271e+003;1.273230e-001
1.209200e+003;1.257782e-001
1.211128e+003;1.248272e-001
1.213057e+003;1.247988e-001
1.214985e+003;1.258008e-001
1.216914e+003;1.274634e-001
1.218842e+003;1.298713e-001
1.220771e+003;1.325478e-001
1.222699e+003;1.348294e-001
1.224628e+003;1.368772e-001
1.226557e+003;1.382300e-001
1.228485e+003;1.387662e-001
1.230414e+003;1.389923e-001
1.232342e+003;1.390902e-001
1.234271e+003;1.389980e-001
1.236199e+003;1.390297e-001
1.238128e+003;1.389738e-001
1.240056e+003;1.386169e-001
1.241985e+003;1.382270e-001
1.243913e+003;1.377043e-001
1.245842e+003;1.378679e-001
1.247771e+003;1.387428e-001
1.249699e+003;1.396509e-001
1.251628e+003;1.407584e-001
1.253556e+003;1.420245e-001
1.255485e+003;1.433009e-001
1.257413e+003;1.446829e-001
1.259342e+003;1.452930e-001
1.261270e+003;1.449438e-001
1.263199e+003;1.443805e-001
1.265127e+003;1.435606e-001
1.267056e+003;1.423059e-001
1.268985e+003;1.412301e-001
1.270913e+003;1.400688e-001
1.272842e+003;1.389057e-001
1.274770e+003;1.383475e-001
1.276699e+003;1.379773e-001
1.278627e+003;1.374230e-001
1.280556e+003;1.367080e-001
1.282484e+003;1.358357e-001
1.284413e+003;1.353778e-001
1.286342e+003;1.356757e-001
1.288270e+003;1.367400e-001
1.290199e+003;1.383911e-001
1.292127e+003;1.403534e-001
1.294056e+003;1.422688e-001
1.295984e+003;1.438470e-001
1.297913e+003;1.453404e-001
1.299841e+003;1.468662e-001
1.301770e+003;1.485232e-001
1.303698e+003;1.504409e-001
1.305627e+003;1.527216e-001
1.307556e+003;1.552253e-001
1.309484e+003;1.572909e-001
1.311413e+003;1.586986e-001
1.313341e+003;1.595432e-001
1.315270e+003;1.597096e-001
1.317198e+003;1.588358e-001
1.319127e+003;1.571276e-001
1.321055e+003;1.552338e-001
1.322984e+003;1.538665e-001
1.324912e+003;1.534049e-001
1.326841e+003;1.535005e-001
1.328770e+003;1.535201e-001
1.330698e+003;1.537089e-001
1.332627e+003;1.539093e-001
1.334555e+003;1.540852e-001
1.336484e+003;1.538983e-001
1.338412e+003;1.533174e-001
1.340341e+003;1.526288e-001
1.342269e+003;1.518012e-001
1.344198e+003;1.512987e-001
1.346126e+003;1.513866e-001
1.348055e+003;1.513683e-001
1.349984e+003;1.513710e-001
1.351912e+003;1.518631e-001
1.353841e+003;1.528630e-001
1.355769e+003;1.541317e-001
1.357698e+003;1.553755e-001
1.359626e+003;1.566918e-001
1.361555e+003;1.579263e-001
1.363483e+003;1.586084e-001
1.365412e+003;1.587756e-001
1.367341e+003;1.583385e-001
1.369269e+003;1.574902e-001
1.371198e+003;1.563891e-001
1.373126e+003;1.550818e-001
1.375055e+003;1.535252e-001
1.376983e+003;1.514162e-001
1.378912e+003;1.490226e-001
1.380840e+003;1.464408e-001
1.382769e+003;1.439031e-001
1.384698e+003;1.415791e-001
1.386626e+003;1.398859e-001
1.388555e+003;1.386436e-001
1.390483e+003;1.376027e-001
1.392412e+003;1.370283e-001
1.394340e+003;1.367748e-001
1.396269e+003;1.367077e-001
1.398197e+003;1.363531e-001
1.400126e+003;1.359047e-001
1.402054e+003;1.355713e-001
1.403983e+003;1.354131e-001
1.405911e+003;1.355006e-001
1.407840e+003;1.355648e-001
1.409769e+003;1.356602e-001
1.411697e+003;1.361610e-001
1.413626e+003;1.365318e-001
1.415554e+003;1.365770e-001
1.417483e+003;1.364214e-001
1.419411e+003;1.361687e-001
1.421340e+003;1.361992e-001
1.423268e+003;1.360236e-001
1.425197e+003;1.354757e-001
1.427125e+003;1.349562e-001
1.429054e+003;1.345418e-001
1.430983e+003;1.343030e-001
1.432911e+003;1.340553e-001
1.434840e+003;1.333840e-001
1.436768e+003;1.326285e-001
1.438697e+003;1.320461e-001
1.440625e+003;1.312779e-001
1.442554e+003;1.305701e-001
1.444482e+003;1.299590e-001
1.446411e+003;1.290559e-001
1.448340e+003;1.278289e-001
1.450268e+003;1.267444e-001
1.452197e+003;1.256826e-001
1.454125e+003;1.244383e-001
1.456054e+003;1.231648e-001
1.457982e+003;1.222615e-001
1.459911e+003;1.216010e-001
1.461839e+003;1.207376e-001
1.463768e+003;1.197031e-001
1.465697e+003;1.187037e-001
1.467625e+003;1.176449e-001
1.469554e+003;1.162751e-001
1.471482e+003;1.147019e-001
1.473411e+003;1.130440e-001
1.475339e+003;1.111251e-001
1.477268e+003;1.089769e-001
1.479196e+003;1.069824e-001
1.481125e+003;1.052300e-001
1.483053e+003;1.037085e-001
1.484982e+003;1.024540e-001
1.486911e+003;1.010794e-001
1.488839e+003;9.968710e-002
1.490768e+003;9.896096e-002
1.492696e+003;9.848732e-002
1.494625e+003;9.762020e-002
1.496553e+003;9.690040e-002
1.498482e+003;9.673978e-002
1.500410e+003;9.664097e-002
1.502339e+003;9.655252e-002
1.504267e+003;9.625127e-002
1.506196e+003;9.585506e-002
1.508125e+003;9.582648e-002
1.510053e+003;9.580111e-002
1.511982e+003;9.565286e-002
1.513910e+003;9.568297e-002
1.515839e+003;9.561809e-002
1.517767e+003;9.540655e-002
1.519696e+003;9.500064e-002
1.521624e+003;9.454848e-002
1.523553e+003;9.443999e-002
1.525481e+003;9.454432e-002
1.527410e+003;9.475845e-002
1.529339e+003;9.487996e-002
1.531267e+003;9.484233e-002
1.533196e+003;9.472672e-002
1.535124e+003;9.480135e-002
1.537053e+003;9.500650e-002
1.538981e+003;9.483952e-002
1.540910e+003;9.461761e-002
1.542838e+003;9.447685e-002
1.544767e+003;9.436879e-002
1.546695e+003;9.438485e-002
1.548624e+003;9.437081e-002
1.550553e+003;9.423593e-002
1.552481e+003;9.395599e-002
1.554410e+003;9.336222e-002
1.556338e+003;9.286535e-002
1.558267e+003;9.232245e-002
1.560195e+003;9.224786e-002
1.562124e+003;9.276068e-002
1.564052e+003;9.285197e-002
1.565981e+003;9.246176e-002
1.567910e+003;9.223761e-002
1.569838e+003;9.229031e-002
1.571767e+003;9.241962e-002
1.573695e+003;9.253548e-002
1.575624e+003;9.254356e-002
1.577552e+003;9.271979e-002
1.579481e+003;9.278563e-002
1.581409e+003;9.284139e-002
1.583338e+003;9.277094e-002
1.585266e+003;9.272963e-002
1.587195e+003;9.273418e-002
1.589124e+003;9.280273e-002
1.591052e+003;9.302258e-002
1.592981e+003;9.356541e-002
1.594909e+003;9.402593e-002
1.596838e+003;9.417494e-002
1.598766e+003;9.442677e-002
1.600695e+003;9.488779e-002
1.602623e+003;9.526987e-002
1.604552e+003;9.568330e-002
1.606480e+003;9.616841e-002
1.608409e+003;9.672628e-002
1.610338e+003;9.738915e-002
1.612266e+003;9.799369e-002
1.614195e+003;9.850503e-002
1.616123e+003;9.895738e-002
1.618052e+003;9.961387e-002
1.619980e+003;1.005257e-001
1.621909e+003;1.012161e-001
1.623837e+003;1.019368e-001
1.625766e+003;1.027692e-001
1.627694e+003;1.035125e-001
1.629623e+003;1.042315e-001
1.631552e+003;1.049025e-001
1.633480e+003;1.053623e-001
1.635409e+003;1.057658e-001
1.637337e+003;1.062041e-001
1.639266e+003;1.066391e-001
1.641194e+003;1.068128e-001
1.643123e+003;1.066488e-001
1.645051e+003;1.064488e-001
1.646980e+003;1.063323e-001
1.648909e+003;1.062892e-001
1.650837e+003;1.058127e-001
1.652766e+003;1.051176e-001
1.654694e+003;1.045179e-001
1.656623e+003;1.040692e-001
1.658551e+003;1.032350e-001
1.660480e+003;1.023802e-001
1.662408e+003;1.015286e-001
1.664337e+003;1.005448e-001
1.666266e+003;9.965934e-002
1.668194e+003;9.846924e-002
1.670123e+003;9.760290e-002
1.672051e+003;9.708603e-002
1.673980e+003;9.609345e-002
1.675908e+003;9.494696e-002
1.677837e+003;9.410568e-002
1.679765e+003;9.325284e-002
1.681694e+003;9.230896e-002
1.683622e+003;9.125800e-002
1.685551e+003;9.046614e-002
1.687479e+003;8.995916e-002
1.689408e+003;8.906105e-002
1.691337e+003;8.824021e-002
1.693265e+003;8.746182e-002
1.695194e+003;8.648134e-002
1.697122e+003;8.574488e-002
1.699051e+003;8.493830e-002
1.700979e+003;8.396684e-002
1.702908e+003;8.341546e-002
1.704836e+003;8.282200e-002
1.706765e+003;8.243946e-002
1.708693e+003;8.211982e-002
1.710622e+003;8.173417e-002
1.712551e+003;8.116876e-002
1.714479e+003;8.093289e-002
1.716408e+003;8.056728e-002
1.718336e+003;8.017460e-002
1.720265e+003;8.002701e-002
1.722193e+003;7.988772e-002
1.724122e+003;8.001275e-002
1.726050e+003;8.008813e-002
1.727979e+003;7.980565e-002
1.729908e+003;7.949167e-002
1.731836e+003;7.913817e-002
1.733765e+003;7.859515e-002
1.735693e+003;7.828035e-002
1.737622e+003;7.799424e-002
1.739550e+003;7.749467e-002
1.741479e+003;7.707671e-002
1.743407e+003;7.669318e-002
1.745336e+003;7.639880e-002
1.747265e+003;7.603750e-002
1.749193e+003;7.569322e-002
1.751122e+003;7.577681e-002
1.753050e+003;7.603501e-002
1.754979e+003;7.601105e-002
1.756907e+003;7.590188e-002
1.758836e+003;7.599345e-002
1.760764e+003;7.617074e-002
1.762693e+003;7.623547e-002
1.764621e+003;7.625426e-002
1.766550e+003;7.625742e-002
1.768479e+003;7.620292e-002
1.770407e+003;7.601934e-002
1.772336e+003;7.569650e-002
1.774264e+003;7.575945e-002
1.776193e+003;7.600395e-002
1.778121e+003;7.599301e-002
1.780050e+003;7.593061e-002
1.781978e+003;7.600185e-002
1.783907e+003;7.582159e-002
1.785835e+003;7.557124e-002
1.787764e+003;7.564459e-002
1.789693e+003;7.564901e-002
1.791621e+003;7.540732e-002
1.793550e+003;7.533283e-002
1.795478e+003;7.538635e-002
1.797407e+003;7.535674e-002
1.799335e+003;7.524648e-002
1.801264e+003;7.519987e-002
1.803192e+003;7.524680e-002
1.805121e+003;7.524073e-002
1.807049e+003;7.517190e-002
1.808978e+003;7.515280e-002
1.810907e+003;7.503498e-002
1.812835e+003;7.491929e-002
1.814764e+003;7.510766e-002
1.816692e+003;7.507646e-002
1.818621e+003;7.494052e-002
1.820549e+003;7.507914e-002
1.822478e+003;7.504392e-002
1.824406e+003;7.490288e-002
1.826335e+003;7.486071e-002
1.828264e+003;7.467667e-002
1.830192e+003;7.451186e-002
1.832121e+003;7.446513e-002
1.834049e+003;7.449908e-002
1.835978e+003;7.452205e-002
1.837906e+003;7.458956e-002
1.839835e+003;7.463650e-002
1.841763e+003;7.452236e-002
1.843692e+003;7.425932e-002
1.845620e+003;7.420106e-002
1.847549e+003;7.408976e-002
1.849478e+003;7.394222e-002
1.851406e+003;7.395617e-002
1.853335e+003;7.410847e-002
1.855263e+003;7.414167e-002
1.857192e+003;7.397294e-002
1.859120e+003;7.382670e-002
1.861049e+003;7.397345e-002
1.862977e+003;7.403994e-002
1.864906e+003;7.400206e-002
1.866834e+003;7.387623e-002
1.868763e+003;7.380612e-002
1.870692e+003;7.377644e-002
1.872620e+003;7.378747e-002
1.874549e+003;7.389795e-002
1.876477e+003;7.402033e-002
1.878406e+003;7.404669e-002
1.880334e+003;7.405934e-002
1.882263e+003;7.399581e-002
1.884191e+003;7.382289e-002
1.886120e+003;7.372786e-002
1.888048e+003;7.364958e-002
1.889977e+003;7.362779e-002
1.891906e+003;7.368530e-002
1.893834e+003;7.380880e-002
1.895763e+003;7.396092e-002
1.897691e+003;7.407659e-002
1.899620e+003;7.396277e-002
1.901548e+003;7.361393e-002
1.903477e+003;7.379521e-002
1.905405e+003;7.386028e-002
1.907334e+003;7.367517e-002
1.909262e+003;7.383927e-002
1.911191e+003;7.401946e-002
1.913120e+003;7.410461e-002
1.915048e+003;7.422733e-002
1.916977e+003;7.416698e-002
1.918905e+003;7.424623e-002
1.920834e+003;7.439678e-002
1.922762e+003;7.452162e-002
1.924691e+003;7.468847e-002
1.926619e+003;7.472338e-002
1.928548e+003;7.467356e-002
1.930477e+003;7.461942e-002
1.932405e+003;7.468954e-002
1.934334e+003;7.475664e-002
1.936262e+003;7.472130e-002
1.938191e+003;7.471295e-002
1.940119e+003;7.467679e-002
1.942048e+003;7.486134e-002
1.943976e+003;7.506287e-002
1.945905e+003;7.500009e-002
1.947833e+003;7.516036e-002
1.949762e+003;7.527564e-002
1.951691e+003;7.508457e-002
1.953619e+003;7.497592e-002
1.955548e+003;7.518782e-002
1.957476e+003;7.533621e-002
1.959405e+003;7.532266e-002
1.961333e+003;7.524321e-002
1.963262e+003;7.524259e-002
1.965190e+003;7.545702e-002
1.967119e+003;7.566755e-002
1.969047e+003;7.570537e-002
1.970976e+003;7.567322e-002
1.972905e+003;7.584234e-002
1.974833e+003;7.601085e-002
1.976762e+003;7.609572e-002
1.978690e+003;7.609028e-002
1.980619e+003;7.616750e-002
1.982547e+003;7.615779e-002
1.984476e+003;7.602865e-002
1.986404e+003;7.602747e-002
1.988333e+003;7.600687e-002
1.990261e+003;7.612893e-002
1.992190e+003;7.616217e-002
1.994119e+003;7.610623e-002
1.996047e+003;7.621730e-002
1.997976e+003;7.650445e-002
1.999904e+003;7.653563e-002
2.001833e+003;7.652468e-002
2.003761e+003;7.670572e-002
2.005690e+003;7.675020e-002
2.007618e+003;7.664507e-002
2.009547e+003;7.669836e-002
2.011476e+003;7.691791e-002
2.013404e+003;7.698951e-002
2.015333e+003;7.690917e-002
2.017261e+003;7.711671e-002
2.019190e+003;7.733790e-002
2.021118e+003;7.741547e-002
2.023047e+003;7.754676e-002
2.024975e+003;7.755746e-002
2.026904e+003;7.728719e-002
2.028833e+003;7.723062e-002
2.030761e+003;7.744370e-002
2.032690e+003;7.780650e-002
2.034618e+003;7.786991e-002
2.036547e+003;7.769252e-002
2.038475e+003;7.765583e-002
2.040404e+003;7.771685e-002
2.042332e+003;7.785259e-002
2.044261e+003;7.788090e-002
2.046189e+003;7.788867e-002
2.048118e+003;7.795642e-002
2.050047e+003;7.784593e-002
2.051975e+003;7.782876e-002
2.053904e+003;7.782500e-002
2.055832e+003;7.780927e-002
2.057761e+003;7.784859e-002
2.059689e+003;7.777340e-002
2.061618e+003;7.790671e-002
2.063546e+003;7.806543e-002
2.065475e+003;7.790246e-002
2.067404e+003;7.795198e-002
2.069332e+003;7.791812e-002
2.071260e+003;7.767409e-002
2.073189e+003;7.767207e-002
2.075118e+003;7.787146e-002
2.077046e+003;7.799120e-002
2.078975e+003;7.768776e-002
2.080903e+003;7.758158e-002
2.082832e+003;7.781442e-002
2.084760e+003;7.792181e-002
2.086689e+003;7.791202e-002
2.088617e+003;7.788216e-002
2.090546e+003;7.787511e-002
2.092475e+003;7.803334e-002
2.094403e+003;7.804893e-002
2.096332e+003;7.794449e-002
2.098260e+003;7.786547e-002
2.100189e+003;7.789322e-002
2.102117e+003;7.807633e-002
2.104046e+003;7.819811e-002
2.105974e+003;7.821120e-002
2.107903e+003;7.816502e-002
2.109832e+003;7.837452e-002
2.111760e+003;7.843894e-002
2.113688e+003;7.831360e-002
2.115617e+003;7.832824e-002
2.117546e+003;7.830975e-002
2.119474e+003;7.829876e-002
2.121403e+003;7.856418e-002
2.123331e+003;7.874186e-002
2.125260e+003;7.846490e-002
2.127188e+003;7.826508e-002
2.129117e+003;7.839897e-002
2.131045e+003;7.863594e-002
2.132974e+003;7.863808e-002
2.134903e+003;7.836051e-002
2.136831e+003;7.841889e-002
2.138760e+003;7.880145e-002
2.140688e+003;7.906550e-002
2.142617e+003;7.878504e-002
2.144545e+003;7.829107e-002
2.146474e+003;7.827674e-002
2.148402e+003;7.862923e-002
2.150331e+003;7.874301e-002
2.152260e+003;7.846017e-002
2.154188e+003;7.823167e-002
2.156117e+003;7.823218e-002
2.158045e+003;7.830047e-002
2.159974e+003;7.823742e-002
2.161902e+003;7.804445e-002
2.163831e+003;7.810378e-002
2.165759e+003;7.829987e-002
2.167688e+003;7.822734e-002
2.169616e+003;7.812104e-002
2.171545e+003;7.806773e-002
2.173474e+003;7.793362e-002
2.175402e+003;7.786801e-002
2.177331e+003;7.788426e-002
2.179259e+003;7.778501e-002
2.181188e+003;7.773583e-002
2.183116e+003;7.795535e-002
2.185045e+003;7.807249e-002
2.186973e+003;7.791296e-002
2.188902e+003;7.777209e-002
2.190831e+003;7.787039e-002
2.192759e+003;7.778850e-002
2.194688e+003;7.761014e-002
2.196616e+003;7.757255e-002
2.198545e+003;7.739884e-002
2.200473e+003;7.744976e-002
2.202402e+003;7.752910e-002
2.204330e+003;7.751499e-002
2.206259e+003;7.738494e-002
2.208188e+003;7.723343e-002
2.210116e+003;7.736883e-002
2.212044e+003;7.749135e-002
2.213973e+003;7.732958e-002
2.215902e+003;7.696949e-002
2.217830e+003;7.686879e-002
2.219759e+003;7.703825e-002
2.221687e+003;7.689509e-002
2.223616e+003;7.663859e-002
2.225544e+003;7.656796e-002
2.227473e+003;7.653330e-002
2.229401e+003;7.649445e-002
2.231330e+003;7.659954e-002
2.233259e+003;7.671295e-002
2.235187e+003;7.667911e-002
2.237116e+003;7.651966e-002
2.239044e+003;7.649208e-002
2.240973e+003;7.648418e-002
2.242901e+003;7.636936e-002
2.244830e+003;7.643862e-002
2.246758e+003;7.654674e-002
2.248687e+003;7.635242e-002
2.250615e+003;7.622421e-002
2.252544e+003;7.628677e-002
2.254473e+003;7.634313e-002
2.256401e+003;7.637011e-002
2.258330e+003;7.625320e-002
2.260258e+003;7.597746e-002
2.262187e+003;7.582301e-002
2.264115e+003;7.611831e-002
2.266044e+003;7.638477e-002
2.267972e+003;7.636956e-002
2.269901e+003;7.650263e-002
2.271830e+003;7.637983e-002
2.273758e+003;7.589234e-002
2.275687e+003;7.572979e-002
2.277615e+003;7.577298e-002
2.279544e+003;7.564901e-002
2.281472e+003;7.578375e-002
2.283401e+003;7.603224e-002
2.285329e+003;7.595871e-002
2.287258e+003;7.568340e-002
2.289187e+003;7.556174e-002
2.291115e+003;7.559147e-002
2.293043e+003;7.560161e-002
2.294972e+003;7.563537e-002
2.296901e+003;7.571602e-002
2.298829e+003;7.569724e-002
2.300758e+003;7.563721e-002
2.302686e+003;7.552318e-002
2.304615e+003;7.541233e-002
2.306543e+003;7.560436e-002
2.308472e+003;7.599708e-002
2.310400e+003;7.628740e-002
2.312329e+003;7.619305e-002
2.314258e+003;7.600991e-002
2.316186e+003;7.600860e-002
2.318115e+003;7.584735e-002
2.320043e+003;7.579855e-002
2.321972e+003;7.592525e-002
2.323900e+003;7.609292e-002
2.325829e+003;7.612960e-002
2.327757e+003;7.600395e-002
2.329686e+003;7.593614e-002
2.331615e+003;7.589743e-002
2.333543e+003;7.605091e-002
2.335472e+003;7.622986e-002
2.337400e+003;7.633879e-002
2.339329e+003;7.647406e-002
2.341257e+003;7.652002e-002
2.343186e+003;7.648469e-002
2.345114e+003;7.649967e-002
2.347043e+003;7.670002e-002
2.348971e+003;7.686459e-002
2.350900e+003;7.698393e-002
2.352829e+003;7.699675e-002
2.354757e+003;7.698496e-002
2.356686e+003;7.698718e-002
2.358614e+003;7.683299e-002
2.360543e+003;7.685344e-002
2.362471e+003;7.707322e-002
2.364400e+003;7.736225e-002
2.366328e+003;7.733870e-002
2.368257e+003;7.703529e-002
2.370186e+003;7.705736e-002
2.372114e+003;7.728525e-002
2.374042e+003;7.743812e-002
2.375971e+003;7.755928e-002
2.377900e+003;7.755199e-002
2.379828e+003;7.758451e-002
2.381757e+003;7.767163e-002
2.383685e+003;7.784788e-002
2.385614e+003;7.787368e-002
2.387542e+003;7.778885e-002
2.389471e+003;7.801034e-002
2.391399e+003;7.831297e-002
2.393328e+003;7.825000e-002
2.395257e+003;7.802859e-002
2.397185e+003;7.794980e-002
2.399114e+003;7.811611e-002
2.401042e+003;7.831511e-002
2.402971e+003;7.853477e-002
2.404899e+003;7.861477e-002
2.406828e+003;7.853560e-002
2.408756e+003;7.857435e-002
2.410685e+003;7.879092e-002
2.412614e+003;7.900282e-002
2.414542e+003;7.933366e-002
2.416471e+003;7.956243e-002
2.418399e+003;7.964259e-002
2.420328e+003;7.968999e-002
2.422256e+003;7.971603e-002
2.424185e+003;7.969397e-002
2.426113e+003;7.977770e-002
2.428042e+003;8.014304e-002
2.429970e+003;8.037135e-002
2.431899e+003;8.033787e-002
2.433828e+003;8.025120e-002
2.435756e+003;8.054622e-002
2.437685e+003;8.084156e-002
2.439613e+003;8.084686e-002
2.441542e+003;8.071094e-002
2.443470e+003;8.062584e-002
2.445399e+003;8.072830e-002
2.447327e+003;8.093061e-002
2.449256e+003;8.113673e-002
2.451185e+003;8.139411e-002
2.453113e+003;8.152796e-002
2.455042e+003;8.157746e-002
2.456970e+003;8.180405e-002
2.458899e+003;8.192931e-002
2.460827e+003;8.196037e-002
2.462756e+003;8.211045e-002
2.464684e+003;8.204633e-002
2.466613e+003;8.192847e-002
2.468542e+003;8.210468e-002
2.470470e+003;8.243197e-002
2.472398e+003;8.261228e-002
2.474327e+003;8.264073e-002
2.476256e+003;8.258318e-002
2.478184e+003;8.271769e-002
2.480113e+003;8.315849e-002
2.482041e+003;8.331715e-002
2.483970e+003;8.322399e-002
2.485898e+003;8.312295e-002
2.487827e+003;8.311424e-002
2.489755e+003;8.320689e-002
2.491684e+003;8.343293e-002
2.493613e+003;8.354400e-002
2.495541e+003;8.352184e-002
2.497470e+003;8.359164e-002
2.499398e+003;8.365567e-002
2.501327e+003;8.353372e-002
2.503255e+003;8.353143e-002
2.505184e+003;8.372124e-002
2.507112e+003;8.398091e-002
2.509041e+003;8.403318e-002
2.510969e+003;8.408388e-002
2.512898e+003;8.423772e-002
2.514827e+003;8.418679e-002
2.516755e+003;8.408227e-002
2.518684e+003;8.421620e-002
2.520612e+003;8.465704e-002
2.522541e+003;8.515996e-002
2.524469e+003;8.511227e-002
2.526398e+003;8.482357e-002
2.528326e+003;8.459411e-002
2.530255e+003;8.472582e-002
2.532184e+003;8.497876e-002
2.534112e+003;8.497009e-002
2.536041e+003;8.499713e-002
2.537969e+003;8.501495e-002
2.539898e+003;8.515932e-002
2.541826e+003;8.535261e-002
2.543755e+003;8.531769e-002
2.545683e+003;8.533753e-002
2.547612e+003;8.543413e-002
2.549541e+003;8.541457e-002
2.551469e+003;8.529543e-002
2.553397e+003;8.531906e-002
2.555326e+003;8.558337e-002
2.557255e+003;8.579575e-002
2.559183e+003;8.575869e-002
2.561112e+003;8.586531e-002
2.563040e+003;8.625177e-002
2.564969e+003;8.629918e-002
2.566897e+003;8.608478e-002
2.568826e+003;8.636478e-002
2.570754e+003;8.640291e-002
2.572683e+003;8.596651e-002
2.574612e+003;8.592729e-002
2.576540e+003;8.619229e-002
2.578469e+003;8.642167e-002
2.580397e+003;8.674821e-002
2.582326e+003;8.683096e-002
2.584254e+003;8.676589e-002
2.586183e+003;8.682781e-002
2.588111e+003;8.715069e-002
2.590040e+003;8.728237e-002
2.591969e+003;8.689118e-002
2.593897e+003;8.661909e-002
2.595826e+003;8.686200e-002
2.597754e+003;8.718443e-002
2.599683e+003;8.712356e-002
2.601611e+003;8.692097e-002
2.603540e+003;8.723688e-002
2.605468e+003;8.738993e-002
2.607397e+003;8.731534e-002
2.609325e+003;8.742839e-002
2.611254e+003;8.767476e-002
2.613183e+003;8.785044e-002
2.615111e+003;8.774235e-002
2.617040e+003;8.794999e-002
2.618968e+003;8.806101e-002
2.620897e+003;8.787262e-002
2.622825e+003;8.788192e-002
2.624754e+003;8.826587e-002
2.626682e+003;8.860649e-002
2.628611e+003;8.874764e-002
2.630540e+003;8.887752e-002
2.632468e+003;8.898158e-002
2.634396e+003;8.899845e-002
2.636325e+003;8.901167e-002
2.638254e+003;8.923127e-002
2.640182e+003;8.940107e-002
2.642111e+003;8.918643e-002
2.644039e+003;8.917479e-002
2.645968e+003;8.945265e-002
2.647896e+003;8.963671e-002
2.649825e+003;8.990858e-002
2.651753e+003;9.028239e-002
2.653682e+003;9.043807e-002
2.655611e+003;9.021603e-002
2.657539e+003;9.028871e-002
2.659468e+003;9.068411e-002
2.661396e+003;9.076561e-002
2.663325e+003;9.083569e-002
2.665253e+003;9.116047e-002
2.667182e+003;9.158620e-002
2.669110e+003;9.161615e-002
2.671039e+003;9.138054e-002
2.672968e+003;9.124958e-002
2.674896e+003;9.133131e-002
2.676825e+003;9.169218e-002
2.678753e+003;9.191449e-002
2.680682e+003;9.199045e-002
2.682610e+003;9.219263e-002
2.684539e+003;9.244221e-002
2.686467e+003;9.253938e-002
2.688396e+003;9.276171e-002
2.690324e+003;9.322869e-002
2.692253e+003;9.352312e-002
2.694182e+003;9.344599e-002
2.696110e+003;9.334661e-002
2.698039e+003;9.325518e-002
2.699967e+003;9.345216e-002
2.701896e+003;9.377252e-002
2.703824e+003;9.394994e-002
2.705753e+003;9.397253e-002
2.707681e+003;9.404214e-002
2.709610e+003;9.419502e-002
2.711539e+003;9.434211e-002
2.713467e+003;9.464625e-002
2.715396e+003;9.511566e-002
2.717324e+003;9.508283e-002
2.719253e+003;9.489460e-002
2.721181e+003;9.495203e-002
2.723110e+003;9.487662e-002
2.725038e+003;9.476607e-002
2.726967e+003;9.495100e-002
2.728896e+003;9.528295e-002
2.730824e+003;9.573803e-002
2.732752e+003;9.599614e-002
2.734681e+003;9.594105e-002
2.736610e+003;9.594490e-002
2.738538e+003;9.602913e-002
2.740467e+003;9.631293e-002
2.742395e+003;9.639227e-002
2.744324e+003;9.631111e-002
2.746252e+003;9.625958e-002
2.748181e+003;9.622613e-002
2.750109e+003;9.623460e-002
2.752038e+003;9.637192e-002
2.753967e+003;9.652115e-002
2.755895e+003;9.652843e-002
2.757824e+003;9.657098e-002
2.759752e+003;9.681837e-002
2.761681e+003;9.712979e-002
2.763609e+003;9.747432e-002
2.765538e+003;9.771363e-002
2.767466e+003;9.791867e-002
2.769395e+003;9.805788e-002
2.771323e+003;9.800905e-002
2.773252e+003;9.815095e-002
2.775181e+003;9.835170e-002
2.777109e+003;9.860867e-002
2.779038e+003;9.909306e-002
2.780966e+003;9.949373e-002
2.782895e+003;9.984094e-002
2.784823e+003;9.996738e-002
2.786752e+003;1.000850e-001
2.788680e+003;1.005210e-001
2.790609e+003;1.009281e-001
2.792538e+003;1.008596e-001
2.794466e+003;1.009979e-001
2.796395e+003;1.016944e-001
2.798323e+003;1.022666e-001
2.800252e+003;1.024786e-001
2.802180e+003;1.026256e-001
2.804109e+003;1.028914e-001
2.806037e+003;1.033709e-001
2.807966e+003;1.040119e-001
2.809895e+003;1.044879e-001
2.811823e+003;1.045319e-001
2.813751e+003;1.047235e-001
2.815680e+003;1.051812e-001
2.817609e+003;1.055735e-001
2.819537e+003;1.057481e-001
2.821466e+003;1.059183e-001
2.823394e+003;1.060722e-001
2.825323e+003;1.066124e-001
2.827251e+003;1.072491e-001
2.829180e+003;1.077498e-001
2.831108e+003;1.084594e-001
2.833037e+003;1.091754e-001
2.834966e+003;1.094686e-001
2.836894e+003;1.099263e-001
2.838823e+003;1.107616e-001
2.840751e+003;1.117361e-001
2.842680e+003;1.128429e-001
2.844608e+003;1.139715e-001
2.846537e+003;1.153762e-001
2.848465e+003;1.164868e-001
2.850394e+003;1.169193e-001
2.852323e+003;1.173849e-001
2.854251e+003;1.180122e-001
2.856180e+003;1.189546e-001
2.858108e+003;1.201439e-001
2.860037e+003;1.214835e-001
2.861965e+003;1.228262e-001
2.863894e+003;1.240468e-001
2.865822e+003;1.251744e-001
2.867751e+003;1.262217e-001
2.869679e+003;1.273469e-001
2.871608e+003;1.281147e-001
2.873536e+003;1.287361e-001
2.875465e+003;1.296991e-001
2.877394e+003;1.307881e-001
2.879322e+003;1.316180e-001
2.881251e+003;1.317726e-001
2.883179e+003;1.318115e-001
2.885108e+003;1.320661e-001
2.887036e+003;1.324514e-001
2.888965e+003;1.330640e-001
2.890893e+003;1.333910e-001
2.892822e+003;1.333622e-001
2.894750e+003;1.333353e-001
2.896679e+003;1.329836e-001
2.898608e+003;1.323703e-001
2.900536e+003;1.317334e-001
2.902465e+003;1.314486e-001
2.904393e+003;1.312494e-001
2.906322e+003;1.305591e-001
2.908250e+003;1.298787e-001
2.910179e+003;1.290477e-001
2.912107e+003;1.283632e-001
2.914036e+003;1.277833e-001
2.915965e+003;1.267945e-001
2.917893e+003;1.260735e-001
2.919822e+003;1.253088e-001
2.921750e+003;1.241048e-001
2.923679e+003;1.225504e-001
2.925607e+003;1.211668e-001
2.927536e+003;1.200598e-001
2.929464e+003;1.192484e-001
2.931393e+003;1.183914e-001
2.933322e+003;1.174448e-001
2.935250e+003;1.167345e-001
2.937178e+003;1.159224e-001
2.939107e+003;1.146701e-001
2.941036e+003;1.136233e-001
2.942964e+003;1.125943e-001
2.944893e+003;1.113882e-001
2.946821e+003;1.102746e-001
2.948750e+003;1.093140e-001
2.950678e+003;1.084211e-001
2.952607e+003;1.075383e-001
2.954535e+003;1.069198e-001
2.956464e+003;1.063304e-001
2.958393e+003;1.058068e-001
2.960321e+003;1.052355e-001
2.962250e+003;1.041377e-001
2.964178e+003;1.030897e-001
2.966107e+003;1.026718e-001
2.968035e+003;1.022991e-001
2.969964e+003;1.018782e-001
2.971892e+003;1.019226e-001
2.973821e+003;1.018254e-001
2.975750e+003;1.012028e-001
2.977678e+003;1.006980e-001
2.979607e+003;1.003201e-001
2.981535e+003;9.996668e-002
2.983464e+003;9.975926e-002
2.985392e+003;9.955211e-002
2.987321e+003;9.941770e-002
2.989249e+003;9.922079e-002
2.991178e+003;9.903508e-002
2.993106e+003;9.870473e-002
2.995035e+003;9.848250e-002
2.996964e+003;9.846254e-002
2.998892e+003;9.837335e-002
3.000821e+003;9.829125e-002
3.002749e+003;9.830404e-002
3.004678e+003;9.868207e-002
3.006606e+003;9.910464e-002
3.008535e+003;9.906904e-002
3.010463e+003;9.923349e-002
3.012392e+003;9.962250e-002
3.014321e+003;9.976409e-002
3.016249e+003;9.985578e-002
3.018177e+003;9.999257e-002
3.020106e+003;1.002078e-001
3.022035e+003;1.007019e-001
3.023963e+003;1.012844e-001
3.025892e+003;1.016287e-001
3.027820e+003;1.018544e-001
3.029749e+003;1.020997e-001
3.031677e+003;1.024182e-001
3.033606e+003;1.025126e-001
3.035534e+003;1.028801e-001
3.037463e+003;1.035295e-001
3.039392e+003;1.040917e-001
3.041320e+003;1.044599e-001
3.043249e+003;1.044994e-001
3.045177e+003;1.048334e-001
3.047106e+003;1.053547e-001
3.049034e+003;1.055342e-001
3.050963e+003;1.058524e-001
3.052891e+003;1.063973e-001
3.054820e+003;1.069587e-001
3.056749e+003;1.070863e-001
3.058677e+003;1.073770e-001
3.060606e+003;1.079839e-001
3.062534e+003;1.084736e-001
3.064463e+003;1.093077e-001
3.066391e+003;1.098007e-001
3.068320e+003;1.099172e-001
3.070248e+003;1.102028e-001
3.072177e+003;1.105007e-001
3.074105e+003;1.111864e-001
3.076034e+003;1.118807e-001
3.077963e+003;1.120322e-001
3.079891e+003;1.124248e-001
3.081820e+003;1.131134e-001
3.083748e+003;1.136190e-001
3.085677e+003;1.139625e-001
3.087605e+003;1.145186e-001
3.089534e+003;1.152183e-001
3.091462e+003;1.155375e-001
3.093391e+003;1.156987e-001
3.095320e+003;1.160452e-001
3.097248e+003;1.167308e-001
3.099177e+003;1.174387e-001
3.101105e+003;1.181225e-001
3.103034e+003;1.186820e-001
3.104962e+003;1.190131e-001
3.106891e+003;1.193042e-001
3.108819e+003;1.198037e-001
3.110748e+003;1.205569e-001
3.112677e+003;1.213612e-001
3.114605e+003;1.220290e-001
3.116533e+003;1.228798e-001
3.118462e+003;1.233921e-001
3.120391e+003;1.234472e-001
3.122319e+003;1.235095e-001
3.124248e+003;1.239044e-001
3.126176e+003;1.248553e-001
3.128105e+003;1.255239e-001
3.130033e+003;1.258634e-001
3.131962e+003;1.263590e-001
3.133890e+003;1.271450e-001
3.135819e+003;1.275528e-001
3.137748e+003;1.280161e-001
3.139676e+003;1.289552e-001
3.141605e+003;1.296860e-001
3.143533e+003;1.303416e-001
3.145462e+003;1.305193e-001
3.147390e+003;1.305188e-001
3.149319e+003;1.313684e-001
3.151247e+003;1.324592e-001
3.153176e+003;1.328895e-001
3.155104e+003;1.327548e-001
3.157033e+003;1.329417e-001
3.158962e+003;1.337201e-001
3.160890e+003;1.344660e-001
3.162819e+003;1.350113e-001
3.164747e+003;1.356893e-001
3.166676e+003;1.362327e-001
3.168604e+003;1.364726e-001
3.170533e+003;1.365934e-001
3.172461e+003;1.371986e-001
3.174390e+003;1.379486e-001
3.176319e+003;1.384174e-001
3.178247e+003;1.391553e-001
3.180176e+003;1.397396e-001
3.182104e+003;1.396651e-001
3.184033e+003;1.397908e-001
3.185961e+003;1.406015e-001
3.187890e+003;1.410807e-001
3.189818e+003;1.413050e-001
3.191747e+003;1.419610e-001
3.193676e+003;1.427250e-001
3.195604e+003;1.433073e-001
3.197532e+003;1.437046e-001
3.199461e+003;1.439752e-001
3.201390e+003;1.443427e-001
3.203318e+003;1.446469e-001
3.205247e+003;1.449532e-001
3.207175e+003;1.454848e-001
3.209104e+003;1.460621e-001
3.211032e+003;1.464766e-001
3.212961e+003;1.466377e-001
3.214889e+003;1.468897e-001
3.216818e+003;1.473829e-001
3.218747e+003;1.482249e-001
3.220675e+003;1.490252e-001
3.222604e+003;1.491632e-001
3.224532e+003;1.489853e-001
3.226461e+003;1.493470e-001
3.228389e+003;1.500631e-001
3.230318e+003;1.506696e-001
3.232246e+003;1.511457e-001
3.234175e+003;1.515476e-001
3.236104e+003;1.521175e-001
3.238032e+003;1.526074e-001
3.239961e+003;1.529514e-001
3.241889e+003;1.534258e-001
3.243818e+003;1.539578e-001
3.245746e+003;1.546329e-001
3.247675e+003;1.551279e-001
3.249603e+003;1.556157e-001
3.251532e+003;1.561703e-001
3.253460e+003;1.568618e-001
3.255389e+003;1.571997e-001
3.257318e+003;1.569178e-001
3.259246e+003;1.573317e-001
3.261175e+003;1.583481e-001
3.263103e+003;1.588474e-001
3.265032e+003;1.588315e-001
3.266960e+003;1.589400e-001
3.268889e+003;1.594913e-001
3.270817e+003;1.603294e-001
3.272746e+003;1.606989e-001
3.274675e+003;1.606728e-001
3.276603e+003;1.607629e-001
3.278531e+003;1.610723e-001
3.280460e+003;1.612182e-001
3.282389e+003;1.611622e-001
3.284317e+003;1.610371e-001
3.286246e+003;1.611592e-001
3.288174e+003;1.615879e-001
3.290103e+003;1.620522e-001
3.292031e+003;1.623610e-001
3.293960e+003;1.625314e-001
3.295888e+003;1.628394e-001
3.297817e+003;1.629193e-001
3.299746e+003;1.625136e-001
3.301674e+003;1.629583e-001
3.303603e+003;1.640246e-001
3.305531e+003;1.641673e-001
3.307460e+003;1.640363e-001
3.309388e+003;1.641676e-001
3.311317e+003;1.642126e-001
3.313245e+003;1.647154e-001
3.315174e+003;1.649531e-001
3.317103e+003;1.643486e-001
3.319031e+003;1.640731e-001
3.320960e+003;1.646432e-001
3.322888e+003;1.648764e-001
3.324817e+003;1.644296e-001
3.326745e+003;1.643749e-001
3.328674e+003;1.645568e-001
3.330602e+003;1.650071e-001
3.332531e+003;1.654311e-001
3.334459e+003;1.650400e-001
3.336388e+003;1.645705e-001
3.338317e+003;1.647192e-001
3.340245e+003;1.652353e-001
3.342174e+003;1.655707e-001
3.344102e+003;1.652851e-001
3.346031e+003;1.647812e-001
3.347959e+003;1.641002e-001
3.349888e+003;1.632748e-001
3.351816e+003;1.632809e-001
3.353745e+003;1.636625e-001
3.355674e+003;1.634747e-001
3.357602e+003;1.634283e-001
3.359531e+003;1.632109e-001
3.361459e+003;1.626350e-001
3.363388e+003;1.624268e-001
3.365316e+003;1.627065e-001
3.367245e+003;1.626110e-001
3.369173e+003;1.623419e-001
3.371102e+003;1.621369e-001
3.373031e+003;1.621118e-001
3.374959e+003;1.621100e-001
3.376887e+003;1.618432e-001
3.378816e+003;1.611332e-001
3.380745e+003;1.602648e-001
3.382673e+003;1.599058e-001
3.384602e+003;1.599730e-001
3.386530e+003;1.593985e-001
3.388459e+003;1.586329e-001
3.390387e+003;1.585900e-001
3.392316e+003;1.584722e-001
3.394244e+003;1.584084e-001
3.396173e+003;1.581628e-001
3.398102e+003;1.578369e-001
3.400030e+003;1.571506e-001
3.401959e+003;1.564851e-001
3.403887e+003;1.562926e-001
3.405816e+003;1.561702e-001
3.407744e+003;1.557720e-001
3.409673e+003;1.555226e-001
3.411601e+003;1.552224e-001
3.413530e+003;1.547190e-001
3.415458e+003;1.546427e-001
3.417387e+003;1.542302e-001
3.419316e+003;1.531988e-001
3.421244e+003;1.526939e-001
3.423173e+003;1.525258e-001
3.425101e+003;1.520346e-001
3.427030e+003;1.514260e-001
3.428958e+003;1.513354e-001
3.430887e+003;1.514810e-001
3.432815e+003;1.514761e-001
3.434744e+003;1.513450e-001
3.436673e+003;1.509525e-001
3.438601e+003;1.506649e-001
3.440530e+003;1.501438e-001
3.442458e+003;1.493609e-001
3.444387e+003;1.483611e-001
3.446315e+003;1.471857e-001
3.448244e+003;1.463420e-001
3.450172e+003;1.452481e-001
3.452101e+003;1.441268e-001
3.454030e+003;1.430701e-001
3.455958e+003;1.416274e-001
3.457886e+003;1.401593e-001
3.459815e+003;1.391959e-001
3.461744e+003;1.385582e-001
3.463672e+003;1.375572e-001
3.465601e+003;1.362524e-001
3.467529e+003;1.352792e-001
3.469458e+003;1.347960e-001
3.471386e+003;1.339438e-001
3.473315e+003;1.331175e-001
3.475243e+003;1.324937e-001
3.477172e+003;1.318680e-001
3.479101e+003;1.308861e-001
3.481029e+003;1.299445e-001
3.482958e+003;1.293547e-001
3.484886e+003;1.285571e-001
3.486815e+003;1.274124e-001
3.488743e+003;1.260877e-001
3.490672e+003;1.251912e-001
3.492600e+003;1.240136e-001
3.494529e+003;1.225313e-001
3.496458e+003;1.210395e-001
3.498386e+003;1.193285e-001
3.500315e+003;1.181661e-001
3.502243e+003;1.172471e-001
3.504172e+003;1.160276e-001
3.506100e+003;1.145628e-001
3.508029e+003;1.129827e-001
3.509957e+003;1.117075e-001
3.511886e+003;1.104648e-001
3.513814e+003;1.093615e-001
3.515743e+003;1.082638e-001
3.517672e+003;1.072976e-001
3.519600e+003;1.063345e-001
3.521529e+003;1.051962e-001
3.523457e+003;1.041534e-001
3.525386e+003;1.031618e-001
3.527314e+003;1.020310e-001
3.529243e+003;1.008037e-001
3.531171e+003;1.000237e-001
3.533100e+003;9.953661e-002
3.535029e+003;9.889954e-002
3.536957e+003;9.812824e-002
3.538885e+003;9.732812e-002
3.540814e+003;9.656224e-002
3.542743e+003;9.538761e-002
3.544671e+003;9.459330e-002
3.546600e+003;9.397862e-002
3.548528e+003;9.301609e-002
3.550457e+003;9.190986e-002
3.552385e+003;9.125620e-002
3.554314e+003;9.081393e-002
3.556242e+003;9.034072e-002
3.558171e+003;8.966974e-002
3.560100e+003;8.857191e-002
3.562028e+003;8.780976e-002
3.563957e+003;8.729869e-002
3.565885e+003;8.668292e-002
3.567814e+003;8.625364e-002
3.569742e+003;8.559628e-002
3.571671e+003;8.482466e-002
3.573599e+003;8.418003e-002
3.575528e+003;8.350404e-002
3.577457e+003;8.300043e-002
3.579385e+003;8.239916e-002
3.581314e+003;8.188202e-002
3.583242e+003;8.138523e-002
3.585171e+003;8.060932e-002
3.587099e+003;7.984985e-002
3.589028e+003;7.907389e-002
3.590956e+003;7.851194e-002
3.592885e+003;7.809696e-002
3.594813e+003;7.790242e-002
3.596742e+003;7.789366e-002
3.598671e+003;7.726775e-002
3.600599e+003;7.646494e-002
3.602528e+003;7.634626e-002
3.604456e+003;7.600971e-002
3.606385e+003;7.541780e-002
3.608313e+003;7.488485e-002
3.610242e+003;7.446557e-002
3.612170e+003;7.425386e-002
3.614099e+003;7.374211e-002
3.616028e+003;7.305182e-002
3.617956e+003;7.234469e-002
3.619885e+003;7.222052e-002
3.621813e+003;7.224869e-002
3.623742e+003;7.176303e-002
3.625670e+003;7.136628e-002
3.627599e+003;7.113484e-002
3.629527e+003;7.070380e-002
3.631456e+003;7.030899e-002
3.633385e+003;6.990041e-002
3.635313e+003;6.945240e-002
3.637241e+003;6.920364e-002
3.639170e+003;6.909470e-002
3.641099e+003;6.918429e-002
3.643027e+003;6.907399e-002
3.644956e+003;6.852602e-002
3.646884e+003;6.780925e-002
3.648813e+003;6.743231e-002
3.650741e+003;6.767716e-002
3.652670e+003;6.798913e-002
3.654598e+003;6.767580e-002
3.656527e+003;6.696890e-002
3.658456e+003;6.664170e-002
3.660384e+003;6.628364e-002
3.662313e+003;6.570545e-002
3.664241e+003;6.523529e-002
3.666170e+003;6.534766e-002
3.668098e+003;6.531157e-002
3.670027e+003;6.487022e-002
3.671955e+003;6.460828e-002
3.673884e+003;6.440224e-002
3.675813e+003;6.396826e-002
3.677741e+003;6.395859e-002
3.679669e+003;6.426076e-002
3.681598e+003;6.426295e-002
3.683527e+003;6.398032e-002
3.685455e+003;6.370482e-002
3.687384e+003;6.340549e-002
3.689312e+003;6.304032e-002
3.691241e+003;6.304496e-002
3.693169e+003;6.297826e-002
3.695098e+003;6.274520e-002
3.697026e+003;6.228320e-002
3.698955e+003;6.178770e-002
3.700884e+003;6.180798e-002
3.702812e+003;6.186177e-002
3.704741e+003;6.165364e-002
3.706669e+003;6.136156e-002
3.708598e+003;6.136389e-002
3.710526e+003;6.122420e-002
3.712455e+003;6.115603e-002
3.714383e+003;6.151481e-002
3.716312e+003;6.145243e-002
3.718240e+003;6.100767e-002
3.720169e+003;6.081332e-002
3.722098e+003;6.087869e-002
3.724026e+003;6.093637e-002
3.725955e+003;6.073492e-002
3.727883e+003;6.051015e-002
3.729812e+003;6.017507e-002
3.731740e+003;5.980865e-002
3.733669e+003;6.010398e-002
3.735597e+003;6.033232e-002
3.737526e+003;6.028302e-002
3.739455e+003;6.055780e-002
3.741383e+003;6.052474e-002
3.743312e+003;6.019463e-002
3.745240e+003;5.991262e-002
3.747169e+003;5.997360e-002
3.749097e+003;5.997991e-002
3.751026e+003;5.966763e-002
3.752954e+003;5.960830e-002
3.754883e+003;6.017834e-002
3.756812e+003;6.076153e-002
3.758740e+003;6.112296e-002
3.760668e+003;6.064592e-002
3.762597e+003;6.007708e-002
3.764526e+003;5.982523e-002
3.766454e+003;6.004333e-002
3.768383e+003;5.989551e-002
3.770311e+003;5.980347e-002
3.772240e+003;5.990848e-002
3.774168e+003;5.990821e-002
3.776097e+003;6.032482e-002
3.778025e+003;6.025983e-002
3.779954e+003;6.005334e-002
3.781883e+003;6.015924e-002
3.783811e+003;5.992251e-002
3.785740e+003;5.989657e-002
3.787668e+003;6.015117e-002
3.789597e+003;6.005737e-002
3.791525e+003;6.014592e-002
3.793454e+003;6.045123e-002
3.795382e+003;6.040729e-002
3.797311e+003;6.018694e-002
3.799240e+003;5.995207e-002
3.801168e+003;5.956922e-002
3.803097e+003;5.929043e-002
3.805025e+003;5.975089e-002
3.806954e+003;6.022828e-002
3.808882e+003;6.046936e-002
3.810811e+003;6.057208e-002
3.812739e+003;6.069591e-002
3.814668e+003;6.055799e-002
3.816596e+003;6.008773e-002
3.818525e+003;5.976522e-002
3.820454e+003;5.968839e-002
3.822382e+003;6.013443e-002
3.824311e+003;6.032238e-002
3.826239e+003;6.022721e-002
3.828168e+003;6.019162e-002
3.830096e+003;5.997398e-002
3.832025e+003;5.993784e-002
3.833953e+003;6.006707e-002
3.835882e+003;6.022634e-002
3.837811e+003;6.016194e-002
3.839739e+003;5.990935e-002
3.841667e+003;5.997280e-002
3.843596e+003;6.068520e-002
3.845525e+003;6.098533e-002
3.847453e+003;6.070977e-002
3.849382e+003;6.117563e-002
3.851310e+003;6.103615e-002
3.853239e+003;6.035219e-002
3.855167e+003;6.033597e-002
3.857096e+003;6.062881e-002
3.859024e+003;6.113474e-002
3.860953e+003;6.126036e-002
3.862882e+003;6.101579e-002
3.864810e+003;6.099459e-002
3.866739e+003;6.131126e-002
3.868667e+003;6.140617e-002
3.870596e+003;6.136049e-002
3.872524e+003;6.158235e-002
3.874453e+003;6.141251e-002
3.876381e+003;6.162252e-002
3.878310e+003;6.189394e-002
3.880239e+003;6.168785e-002
3.882167e+003;6.172566e-002
3.884096e+003;6.191026e-002
3.886024e+003;6.184443e-002
3.887953e+003;6.197862e-002
3.889881e+003;6.193766e-002
3.891810e+003;6.226722e-002
3.893738e+003;6.270179e-002
3.895667e+003;6.254116e-002
3.897595e+003;6.242764e-002
3.899524e+003;6.246295e-002
3.901453e+003;6.253243e-002
3.903381e+003;6.244106e-002
3.905310e+003;6.220829e-002
3.907238e+003;6.215801e-002
3.909167e+003;6.258336e-002
3.911095e+003;6.284375e-002
3.913024e+003;6.286260e-002
3.914952e+003;6.303273e-002
3.916881e+003;6.310147e-002
3.918810e+003;6.320632e-002
3.920738e+003;6.307756e-002
3.922667e+003;6.316971e-002
3.924595e+003;6.357320e-002
3.926524e+003;6.367662e-002
3.928452e+003;6.349116e-002
3.930381e+003;6.323950e-002
3.932309e+003;6.336516e-002
3.934238e+003;6.367344e-002
3.936167e+003;6.373694e-002
3.938095e+003;6.354175e-002
3.940023e+003;6.362437e-002
3.941952e+003;6.364117e-002
3.943881e+003;6.398005e-002
3.945809e+003;6.417851e-002
3.947738e+003;6.352011e-002
3.949666e+003;6.343468e-002
3.951595e+003;6.379012e-002
3.953523e+003;6.402079e-002
3.955452e+003;6.439394e-002
3.957380e+003;6.400424e-002
3.959309e+003;6.353725e-002
3.961238e+003;6.405274e-002
3.963166e+003;6.477302e-002
3.965095e+003;6.456279e-002
3.967023e+003;6.382908e-002
3.968952e+003;6.354550e-002
3.970880e+003;6.403695e-002
3.972809e+003;6.421289e-002
3.974737e+003;6.418896e-002
3.976666e+003;6.438114e-002
3.978594e+003;6.435962e-002
3.980523e+003;6.434967e-002
3.982452e+003;6.402724e-002
3.984380e+003;6.379749e-002
3.986309e+003;6.389794e-002
3.988237e+003;6.382701e-002
3.990166e+003;6.366944e-002
3.992094e+003;6.374937e-002
3.994023e+003;6.423068e-002
3.995951e+003;6.447779e-002
3.997880e+003;6.441115e-002
3.999809e+003;6.419261e-002
4.001737e+003;0.000000e+000
