3.992094e+002;0.000000e+000
4.011380e+002;0.000000e+000
4.030665e+002;0.000000e+000
4.049951e+002;0.000000e+000
4.069236e+002;0.000000e+000
4.088522e+002;0.000000e+000
4.107807e+002;0.000000e+000
4.127093e+002;0.000000e+000
4.146378e+002;0.000000e+000
4.165664e+002;0.000000e+000
4.184949e+002;0.000000e+000
4.204235e+002;0.000000e+000
4.223520e+002;0.000000e+000
4.242806e+002;0.000000e+000
4.262091e+002;0.000000e+000
4.281377e+002;0.000000e+000
4.300662e+002;0.000000e+000
4.319948e+002;0.000000e+000
4.339233e+002;0.000000e+000
4.358519e+002;0.000000e+000
4.377804e+002;0.000000e+000
4.397090e+002;0.000000e+000
4.416375e+002;0.000000e+000
4.435660e+002;0.000000e+000
4.454946e+002;0.000000e+000
4.474232e+002;0.000000e+000
4.493517e+002;0.000000e+000
4.512802e+002;0.000000e+000
4.532088e+002;0.000000e+000
4.551373e+002;0.000000e+000
4.570659e+002;0.000000e+000
4.589944e+002;0.000000e+000
4.609230e+002;0.000000e+000
4.628515e+002;0.000000e+000
4.647801e+002;0.000000e+000
4.667086e+002;0.000000e+000
4.686372e+002;0.000000e+000
4.705657e+002;0.000000e+000
4.724943e+002;0.000000e+000
4.744228e+002;0.000000e+000
4.763513e+002;0.000000e+000
4.782799e+002;0.000000e+000
4.802085e+002;0.000000e+000
4.821370e+002;0.000000e+000
4.840656e+002;0.000000e+000
4.859941e+002;0.000000e+000
4.879226e+002;0.000000e+000
4.898512e+002;0.000000e+000
4.917798e+002;0.000000e+000
4.937083e+002;0.000000e+000
4.956368e+002;0.000000e+000
4.975654e+002;0.000000e+000
4.994939e+002;0.000000e+000
5.014225e+002;0.000000e+000
5.033510e+002;0.000000e+000
5.052796e+002;0.000000e+000
5.072081e+002;0.000000e+000
5.091367e+002;0.000000e+000
5.110652e+002;0.000000e+000
5.129938e+002;0.000000e+000
5.149223e+002;0.000000e+000
5.168509e+002;0.000000e+000
5.187794e+002;0.000000e+000
5.207079e+002;0.000000e+000
5.226365e+002;0.000000e+000
5.245651e+002;0.000000e+000
5.264936e+002;0.000000e+000
5.284222e+002;0.000000e+000
5.303507e+002;0.000000e+000
5.322792e+002;0.000000e+000
5.342078e+002;0.000000e+000
5.361364e+002;0.000000e+000
5.380649e+002;0.000000e+000
5.399935e+002;0.000000e+000
5.419220e+002;0.000000e+000
5.438505e+002;0.000000e+000
5.457791e+002;0.000000e+000
5.477076e+002;0.000000e+000
5.496362e+002;0.000000e+000
5.515648e+002;0.000000e+000
5.534933e+002;0.000000e+000
5.554218e+002;0.000000e+000
5.573504e+002;0.000000e+000
5.592789e+002;0.000000e+000
5.612075e+002;0.000000e+000
5.631360e+002;0.000000e+000
5.650646e+002;0.000000e+000
5.669931e+002;0.000000e+000
5.689217e+002;0.000000e+000
5.708502e+002;0.000000e+000
5.727787e+002;0.000000e+000
5.747073e+002;0.000000e+000
5.766359e+002;0.000000e+000
5.785644e+002;0.000000e+000
5.804930e+002;0.000000e+000
5.824215e+002;0.000000e+000
5.843500e+002;0.000000e+000
5.862786e+002;0.000000e+000
5.882072e+002;0.000000e+000
5.901357e+002;0.000000e+000
5.920643e+002;0.000000e+000
5.939928e+002;0.000000e+000
5.959213e+002;0.000000e+000
5.978499e+002;0.000000e+000
5.997784e+002;1.476978e-001
6.017070e+002;1.511032e-001
6.036355e+002;1.584367e-001
6.055641e+002;1.645192e-001
6.074926e+002;1.653472e-001
6.094211e+002;1.617301e-001
6.113497e+002;1.582463e-001
6.132783e+002;1.572594e-001
6.152068e+002;1.563389e-001
6.171354e+002;1.527308e-001
6.190639e+002;1.489504e-001
6.209924e+002;1.487543e-001
6.229210e+002;1.467288e-001
6.248495e+002;1.434608e-001
6.267781e+002;1.388789e-001
6.287067e+002;1.401211e-001
6.306352e+002;1.459024e-001
6.325637e+002;1.465425e-001
6.344923e+002;1.430347e-001
6.364208e+002;1.407804e-001
6.383494e+002;1.428525e-001
6.402780e+002;1.455215e-001
6.422065e+002;1.452359e-001
6.441350e+002;1.447243e-001
6.460636e+002;1.440128e-001
6.479921e+002;1.428382e-001
6.499207e+002;1.408174e-001
6.518492e+002;1.387897e-001
6.537778e+002;1.409138e-001
6.557063e+002;1.426956e-001
6.576349e+002;1.450159e-001
6.595634e+002;1.460222e-001
6.614919e+002;1.466988e-001
6.634205e+002;1.500316e-001
6.653491e+002;1.517113e-001
6.672776e+002;1.507143e-001
6.692062e+002;1.504301e-001
6.711347e+002;1.477130e-001
6.730632e+002;1.444392e-001
6.749918e+002;1.393445e-001
6.769203e+002;1.334050e-001
6.788489e+002;1.292990e-001
6.807775e+002;1.259090e-001
6.827060e+002;1.226118e-001
6.846345e+002;1.207995e-001
6.865631e+002;1.201389e-001
6.884916e+002;1.189805e-001
6.904202e+002;1.174831e-001
6.923488e+002;1.180163e-001
6.942773e+002;1.189808e-001
6.962058e+002;1.193037e-001
6.981344e+002;1.196679e-001
7.000629e+002;1.195689e-001
7.019915e+002;1.188162e-001
7.039200e+002;1.180544e-001
7.058486e+002;1.187084e-001
7.077771e+002;1.188343e-001
7.097057e+002;1.176639e-001
7.116342e+002;1.167778e-001
7.135627e+002;1.160260e-001
7.154913e+002;1.163180e-001
7.174199e+002;1.167179e-001
7.193484e+002;1.160622e-001
7.212770e+002;1.150070e-001
7.232055e+002;1.142411e-001
7.251340e+002;1.140802e-001
7.270626e+002;1.141453e-001
7.289911e+002;1.135536e-001
7.309197e+002;1.122826e-001
7.328483e+002;1.118339e-001
7.347768e+002;1.116090e-001
7.367053e+002;1.112380e-001
7.386339e+002;1.107406e-001
7.405624e+002;1.097039e-001
7.424910e+002;1.093694e-001
7.444196e+002;1.085593e-001
7.463481e+002;1.078334e-001
7.482766e+002;1.087799e-001
7.502052e+002;1.092756e-001
7.521337e+002;1.085900e-001
7.540623e+002;1.075522e-001
7.559908e+002;1.067633e-001
7.579194e+002;1.065809e-001
7.598479e+002;1.065268e-001
7.617765e+002;1.061629e-001
7.637050e+002;1.058044e-001
7.656335e+002;1.050341e-001
7.675621e+002;1.050085e-001
7.694907e+002;1.052956e-001
7.714192e+002;1.049052e-001
7.733478e+002;1.041593e-001
7.752763e+002;1.039533e-001
7.772048e+002;1.041734e-001
7.791334e+002;1.046956e-001
7.810620e+002;1.049407e-001
7.829905e+002;1.041960e-001
7.849191e+002;1.033932e-001
7.868476e+002;1.031339e-001
7.887761e+002;1.030949e-001
7.907047e+002;1.036205e-001
7.926332e+002;1.033119e-001
7.945618e+002;1.023294e-001
7.964903e+002;1.020792e-001
7.984189e+002;1.027614e-001
8.003474e+002;1.032886e-001
8.022759e+002;1.033038e-001
8.042045e+002;1.035548e-001
8.061331e+002;1.039174e-001
8.080616e+002;1.032542e-001
8.099902e+002;1.025723e-001
8.119187e+002;1.028081e-001
8.138472e+002;1.033020e-001
8.157758e+002;1.032247e-001
8.177043e+002;1.035657e-001
8.196329e+002;1.038287e-001
8.215615e+002;1.042069e-001
8.234900e+002;1.044741e-001
8.254185e+002;1.041715e-001
8.273471e+002;1.039182e-001
8.292756e+002;1.040948e-001
8.312042e+002;1.042330e-001
8.331328e+002;1.037271e-001
8.350613e+002;1.029874e-001
8.369898e+002;1.026889e-001
8.389184e+002;1.023060e-001
8.408469e+002;1.017389e-001
8.427755e+002;1.014627e-001
8.447040e+002;1.019118e-001
8.466326e+002;1.023959e-001
8.485611e+002;1.024236e-001
8.504897e+002;1.027786e-001
8.524182e+002;1.037394e-001
8.543467e+002;1.036978e-001
8.562753e+002;1.029551e-001
8.582039e+002;1.031436e-001
8.601324e+002;1.040039e-001
8.620610e+002;1.045574e-001
8.639895e+002;1.047306e-001
8.659180e+002;1.049156e-001
8.678466e+002;1.048179e-001
8.697751e+002;1.050600e-001
8.717037e+002;1.061665e-001
8.736323e+002;1.075644e-001
8.755608e+002;1.087036e-001
8.774893e+002;1.102441e-001
8.794179e+002;1.118694e-001
8.813464e+002;1.136144e-001
8.832750e+002;1.155218e-001
8.852036e+002;1.173983e-001
8.871321e+002;1.200625e-001
8.890606e+002;1.229376e-001
8.909892e+002;1.252743e-001
8.929177e+002;1.268535e-001
8.948463e+002;1.266684e-001
8.967748e+002;1.248145e-001
8.987034e+002;1.224172e-001
9.006319e+002;1.196738e-001
9.025605e+002;1.172887e-001
9.044890e+002;1.154449e-001
9.064175e+002;1.140192e-001
9.083461e+002;1.129260e-001
9.102747e+002;1.116370e-001
9.122032e+002;1.106227e-001
9.141318e+002;1.105312e-001
9.160603e+002;1.104591e-001
9.179888e+002;1.102306e-001
9.199174e+002;1.102867e-001
9.218459e+002;1.108266e-001
9.237745e+002;1.113734e-001
9.257031e+002;1.116171e-001
9.276316e+002;1.120265e-001
9.295601e+002;1.129429e-001
9.314887e+002;1.140791e-001
9.334172e+002;1.148449e-001
9.353458e+002;1.154673e-001
9.372744e+002;1.164354e-001
9.392029e+002;1.176061e-001
9.411314e+002;1.189793e-001
9.430600e+002;1.201929e-001
9.449885e+002;1.215048e-001
9.469171e+002;1.232344e-001
9.488456e+002;1.249205e-001
9.507742e+002;1.269302e-001
9.527027e+002;1.287277e-001
9.546313e+002;1.306407e-001
9.565598e+002;1.332337e-001
9.584883e+002;1.358705e-001
9.604169e+002;1.382433e-001
9.623455e+002;1.403050e-001
9.642740e+002;1.421427e-001
9.662026e+002;1.438507e-001
9.681311e+002;1.454172e-001
9.700596e+002;1.471395e-001
9.719882e+002;1.496604e-001
9.739167e+002;1.523545e-001
9.758453e+002;1.552478e-001
9.777739e+002;1.590292e-001
9.797024e+002;1.637672e-001
9.816309e+002;1.692509e-001
9.835595e+002;1.748365e-001
9.854880e+002;1.802132e-001
9.874166e+002;1.856626e-001
9.893452e+002;1.909132e-001
9.912737e+002;1.950872e-001
9.932022e+002;1.974284e-001
9.951307e+002;1.991040e-001
9.970593e+002;1.998402e-001
9.989879e+002;1.988842e-001
1.000916e+003;1.976495e-001
1.002845e+003;1.978484e-001
1.004773e+003;1.990551e-001
1.006702e+003;2.007585e-001
1.008631e+003;2.030873e-001
1.010559e+003;2.058536e-001
1.012488e+003;2.090298e-001
1.014416e+003;2.122107e-001
1.016345e+003;2.146228e-001
1.018273e+003;2.159455e-001
1.020202e+003;2.167065e-001
1.022130e+003;2.173525e-001
1.024059e+003;2.173569e-001
1.025988e+003;2.164385e-001
1.027916e+003;2.150410e-001
1.029845e+003;2.129707e-001
1.031773e+003;2.106590e-001
1.033702e+003;2.084700e-001
1.035630e+003;2.061946e-001
1.037559e+003;2.040348e-001
1.039487e+003;2.027322e-001
1.041416e+003;2.021703e-001
1.043344e+003;2.017065e-001
1.045273e+003;2.009899e-001
1.047202e+003;2.002686e-001
1.049130e+003;1.995755e-001
1.051059e+003;1.990343e-001
1.052987e+003;1.986317e-001
1.054916e+003;1.982695e-001
1.056844e+003;1.974697e-001
1.058773e+003;1.955603e-001
1.060701e+003;1.928121e-001
1.062630e+003;1.894003e-001
1.064558e+003;1.852216e-001
1.066487e+003;1.812532e-001
1.068416e+003;1.784603e-001
1.070344e+003;1.766420e-001
1.072273e+003;1.749058e-001
1.074201e+003;1.733740e-001
1.076130e+003;1.718690e-001
1.078058e+003;1.695752e-001
1.079987e+003;1.678998e-001
1.081915e+003;1.663322e-001
1.083844e+003;1.644993e-001
1.085773e+003;1.626509e-001
1.087701e+003;1.601393e-001
1.089630e+003;1.573162e-001
1.091558e+003;1.549846e-001
1.093487e+003;1.532674e-001
1.095415e+003;1.514119e-001
1.097344e+003;1.485863e-001
1.099272e+003;1.451101e-001
1.101201e+003;1.418233e-001
1.103129e+003;1.397547e-001
1.105058e+003;1.384145e-001
1.106987e+003;1.370692e-001
1.108915e+003;1.357928e-001
1.110844e+003;1.345619e-001
1.112772e+003;1.329544e-001
1.114701e+003;1.307300e-001
1.116629e+003;1.284972e-001
1.118558e+003;1.269198e-001
1.120486e+003;1.250617e-001
1.122415e+003;1.225587e-001
1.124344e+003;1.197426e-001
1.126272e+003;1.170391e-001
1.128201e+003;1.145066e-001
1.130129e+003;1.121848e-001
1.132058e+003;1.100313e-001
1.133986e+003;1.085489e-001
1.135915e+003;1.072684e-001
1.137843e+003;1.059856e-001
1.139772e+003;1.054898e-001
1.141700e+003;1.057531e-001
1.143629e+003;1.061341e-001
1.145557e+003;1.070351e-001
1.147486e+003;1.084573e-001
1.149415e+003;1.097542e-001
1.151343e+003;1.114976e-001
1.153272e+003;1.131809e-001
1.155200e+003;1.140093e-001
1.157129e+003;1.145141e-001
1.159057e+003;1.141192e-001
1.160986e+003;1.122054e-001
1.162914e+003;1.092075e-001
1.164843e+003;1.059705e-001
1.166771e+003;1.027122e-001
1.168700e+003;9.960461e-002
1.170629e+003;9.688574e-002
1.172557e+003;9.462848e-002
1.174486e+003;9.258284e-002
1.176414e+003;9.139134e-002
1.178343e+003;9.057287e-002
1.180271e+003;8.955424e-002
1.182200e+003;8.890741e-002
1.184128e+003;8.855168e-002
1.186057e+003;8.880077e-002
1.187986e+003;8.980084e-002
1.189914e+003;9.071486e-002
1.191843e+003;9.172954e-002
1.193771e+003;9.316434e-002
1.195700e+003;9.414979e-002
1.197628e+003;9.479468e-002
1.199557e+003;9.490016e-002
1.201485e+003;9.426858e-002
1.203414e+003;9.338666e-002
1.205343e+003;9.245189e-002
1.207271e+003;9.152500e-002
1.209200e+003;9.093336e-002
1.211128e+003;9.079204e-002
1.213057e+003;9.116852e-002
1.214985e+003;9.194348e-002
1.216914e+003;9.287573e-002
1.218842e+003;9.401005e-002
1.220771e+003;9.521343e-002
1.222699e+003;9.627128e-002
1.224628e+003;9.729230e-002
1.226557e+003;9.767264e-002
1.228485e+003;9.746204e-002
1.230414e+003;9.750464e-002
1.232342e+003;9.769019e-002
1.234271e+003;9.752143e-002
1.236199e+003;9.729852e-002
1.238128e+003;9.703863e-002
1.240056e+003;9.685671e-002
1.241985e+003;9.702343e-002
1.243913e+003;9.713020e-002
1.245842e+003;9.734893e-002
1.247771e+003;9.768347e-002
1.249699e+003;9.772833e-002
1.251628e+003;9.814651e-002
1.253556e+003;9.892400e-002
1.255485e+003;9.964554e-002
1.257413e+003;1.003947e-001
1.259342e+003;1.006561e-001
1.261270e+003;1.007268e-001
1.263199e+003;1.007156e-001
1.265127e+003;1.003996e-001
1.267056e+003;9.963362e-002
1.268985e+003;9.898855e-002
1.270913e+003;9.863508e-002
1.272842e+003;9.845577e-002
1.274770e+003;9.838728e-002
1.276699e+003;9.818672e-002
1.278627e+003;9.763049e-002
1.280556e+003;9.692264e-002
1.282484e+003;9.657226e-002
1.284413e+003;9.630045e-002
1.286342e+003;9.592870e-002
1.288270e+003;9.605604e-002
1.290199e+003;9.684350e-002
1.292127e+003;9.777256e-002
1.294056e+003;9.846625e-002
1.295984e+003;9.877145e-002
1.297913e+003;9.902138e-002
1.299841e+003;9.959061e-002
1.301770e+003;1.001605e-001
1.303698e+003;1.006646e-001
1.305627e+003;1.014778e-001
1.307556e+003;1.024973e-001
1.309484e+003;1.033711e-001
1.311413e+003;1.037121e-001
1.313341e+003;1.037286e-001
1.315270e+003;1.033568e-001
1.317198e+003;1.024089e-001
1.319127e+003;1.010082e-001
1.321055e+003;9.973858e-002
1.322984e+003;9.889750e-002
1.324912e+003;9.847934e-002
1.326841e+003;9.802391e-002
1.328770e+003;9.775401e-002
1.330698e+003;9.782971e-002
1.332627e+003;9.789239e-002
1.334555e+003;9.785902e-002
1.336484e+003;9.764032e-002
1.338412e+003;9.708761e-002
1.340341e+003;9.651048e-002
1.342269e+003;9.613181e-002
1.344198e+003;9.584028e-002
1.346126e+003;9.553295e-002
1.348055e+003;9.527301e-002
1.349984e+003;9.517333e-002
1.351912e+003;9.546017e-002
1.353841e+003;9.604810e-002
1.355769e+003;9.650667e-002
1.357698e+003;9.706565e-002
1.359626e+003;9.770065e-002
1.361555e+003;9.838449e-002
1.363483e+003;9.878542e-002
1.365412e+003;9.871426e-002
1.367341e+003;9.838080e-002
1.369269e+003;9.783179e-002
1.371198e+003;9.723953e-002
1.373126e+003;9.676793e-002
1.375055e+003;9.597465e-002
1.376983e+003;9.476615e-002
1.378912e+003;9.348799e-002
1.380840e+003;9.211676e-002
1.382769e+003;9.051386e-002
1.384698e+003;8.920197e-002
1.386626e+003;8.851008e-002
1.388555e+003;8.801771e-002
1.390483e+003;8.760283e-002
1.392412e+003;8.721569e-002
1.394340e+003;8.697630e-002
1.396269e+003;8.703027e-002
1.398197e+003;8.687875e-002
1.400126e+003;8.652522e-002
1.402054e+003;8.628330e-002
1.403983e+003;8.613896e-002
1.405911e+003;8.605707e-002
1.407840e+003;8.612348e-002
1.409769e+003;8.625077e-002
1.411697e+003;8.650059e-002
1.413626e+003;8.692089e-002
1.415554e+003;8.717244e-002
1.417483e+003;8.687321e-002
1.419411e+003;8.659644e-002
1.421340e+003;8.691215e-002
1.423268e+003;8.694509e-002
1.425197e+003;8.692469e-002
1.427125e+003;8.696805e-002
1.429054e+003;8.669469e-002
1.430983e+003;8.660024e-002
1.432911e+003;8.646149e-002
1.434840e+003;8.607840e-002
1.436768e+003;8.580620e-002
1.438697e+003;8.583014e-002
1.440625e+003;8.563623e-002
1.442554e+003;8.538226e-002
1.444482e+003;8.504553e-002
1.446411e+003;8.457257e-002
1.448340e+003;8.414111e-002
1.450268e+003;8.369412e-002
1.452197e+003;8.304676e-002
1.454125e+003;8.259592e-002
1.456054e+003;8.198293e-002
1.457982e+003;8.152840e-002
1.459911e+003;8.146353e-002
1.461839e+003;8.105051e-002
1.463768e+003;8.052536e-002
1.465697e+003;8.031813e-002
1.467625e+003;8.014072e-002
1.469554e+003;7.958348e-002
1.471482e+003;7.882246e-002
1.473411e+003;7.825230e-002
1.475339e+003;7.760067e-002
1.477268e+003;7.674988e-002
1.479196e+003;7.603185e-002
1.481125e+003;7.536538e-002
1.483053e+003;7.469249e-002
1.484982e+003;7.403534e-002
1.486911e+003;7.349191e-002
1.488839e+003;7.283872e-002
1.490768e+003;7.240998e-002
1.492696e+003;7.223637e-002
1.494625e+003;7.160624e-002
1.496553e+003;7.104380e-002
1.498482e+003;7.113875e-002
1.500410e+003;7.128619e-002
1.502339e+003;7.119839e-002
1.504267e+003;7.045986e-002
1.506196e+003;6.990403e-002
1.508125e+003;7.029579e-002
1.510053e+003;7.053235e-002
1.511982e+003;7.033751e-002
1.513910e+003;7.028461e-002
1.515839e+003;7.018980e-002
1.517767e+003;7.003806e-002
1.519696e+003;6.956668e-002
1.521624e+003;6.923363e-002
1.523553e+003;6.945115e-002
1.525481e+003;6.939851e-002
1.527410e+003;6.948144e-002
1.529339e+003;6.972963e-002
1.531267e+003;6.973293e-002
1.533196e+003;6.951908e-002
1.535124e+003;6.955708e-002
1.537053e+003;6.975153e-002
1.538981e+003;6.942421e-002
1.540910e+003;6.907029e-002
1.542838e+003;6.917154e-002
1.544767e+003;6.947169e-002
1.546695e+003;6.975262e-002
1.548624e+003;6.969294e-002
1.550553e+003;6.962366e-002
1.552481e+003;6.955680e-002
1.554410e+003;6.944591e-002
1.556338e+003;6.913743e-002
1.558267e+003;6.827597e-002
1.560195e+003;6.838021e-002
1.562124e+003;6.920604e-002
1.564052e+003;6.943809e-002
1.565981e+003;6.952181e-002
1.567910e+003;6.940018e-002
1.569838e+003;6.924685e-002
1.571767e+003;6.945038e-002
1.573695e+003;6.934992e-002
1.575624e+003;6.915184e-002
1.577552e+003;6.963719e-002
1.579481e+003;7.008860e-002
1.581409e+003;7.024527e-002
1.583338e+003;7.028250e-002
1.585266e+003;7.021625e-002
1.587195e+003;7.029999e-002
1.589124e+003;7.035653e-002
1.591052e+003;7.031862e-002
1.592981e+003;7.044750e-002
1.594909e+003;7.055520e-002
1.596838e+003;7.052736e-002
1.598766e+003;7.033490e-002
1.600695e+003;7.028515e-002
1.602623e+003;7.053738e-002
1.604552e+003;7.082228e-002
1.606480e+003;7.089850e-002
1.608409e+003;7.091980e-002
1.610338e+003;7.118110e-002
1.612266e+003;7.161289e-002
1.614195e+003;7.154518e-002
1.616123e+003;7.122544e-002
1.618052e+003;7.143322e-002
1.619980e+003;7.179915e-002
1.621909e+003;7.186463e-002
1.623837e+003;7.198839e-002
1.625766e+003;7.224388e-002
1.627694e+003;7.245112e-002
1.629623e+003;7.270940e-002
1.631552e+003;7.288206e-002
1.633480e+003;7.255872e-002
1.635409e+003;7.241750e-002
1.637337e+003;7.270892e-002
1.639266e+003;7.292894e-002
1.641194e+003;7.306774e-002
1.643123e+003;7.307813e-002
1.645051e+003;7.280400e-002
1.646980e+003;7.257622e-002
1.648909e+003;7.267418e-002
1.650837e+003;7.215925e-002
1.652766e+003;7.128596e-002
1.654694e+003;7.141525e-002
1.656623e+003;7.179630e-002
1.658551e+003;7.174959e-002
1.660480e+003;7.146420e-002
1.662408e+003;7.096224e-002
1.664337e+003;7.060817e-002
1.666266e+003;7.024534e-002
1.668194e+003;6.956034e-002
1.670123e+003;6.913580e-002
1.672051e+003;6.916688e-002
1.673980e+003;6.878690e-002
1.675908e+003;6.837954e-002
1.677837e+003;6.854573e-002
1.679765e+003;6.831684e-002
1.681694e+003;6.752528e-002
1.683622e+003;6.683385e-002
1.685551e+003;6.692719e-002
1.687479e+003;6.713497e-002
1.689408e+003;6.657426e-002
1.691337e+003;6.610648e-002
1.693265e+003;6.587682e-002
1.695194e+003;6.529801e-002
1.697122e+003;6.498739e-002
1.699051e+003;6.455629e-002
1.700979e+003;6.416618e-002
1.702908e+003;6.424862e-002
1.704836e+003;6.398331e-002
1.706765e+003;6.384489e-002
1.708693e+003;6.395306e-002
1.710622e+003;6.412140e-002
1.712551e+003;6.394949e-002
1.714479e+003;6.359889e-002
1.716408e+003;6.332739e-002
1.718336e+003;6.347639e-002
1.720265e+003;6.407378e-002
1.722193e+003;6.435347e-002
1.724122e+003;6.456771e-002
1.726050e+003;6.483307e-002
1.727979e+003;6.487007e-002
1.729908e+003;6.477283e-002
1.731836e+003;6.425012e-002
1.733765e+003;6.357953e-002
1.735693e+003;6.354355e-002
1.737622e+003;6.360960e-002
1.739550e+003;6.322398e-002
1.741479e+003;6.280611e-002
1.743407e+003;6.229066e-002
1.745336e+003;6.177551e-002
1.747265e+003;6.101602e-002
1.749193e+003;6.023479e-002
1.751122e+003;5.987805e-002
1.753050e+003;5.998596e-002
1.754979e+003;5.992186e-002
1.756907e+003;5.971952e-002
1.758836e+003;5.982336e-002
1.760764e+003;5.978435e-002
1.762693e+003;5.976545e-002
1.764621e+003;5.990011e-002
1.766550e+003;5.971561e-002
1.768479e+003;5.949641e-002
1.770407e+003;5.935128e-002
1.772336e+003;5.907122e-002
1.774264e+003;5.916952e-002
1.776193e+003;5.949618e-002
1.778121e+003;5.955205e-002
1.780050e+003;5.958610e-002
1.781978e+003;5.978195e-002
1.783907e+003;5.978845e-002
1.785835e+003;5.967778e-002
1.787764e+003;5.977226e-002
1.789693e+003;5.955904e-002
1.791621e+003;5.898396e-002
1.793550e+003;5.880470e-002
1.795478e+003;5.877465e-002
1.797407e+003;5.875827e-002
1.799335e+003;5.880356e-002
1.801264e+003;5.887591e-002
1.803192e+003;5.892779e-002
1.805121e+003;5.894452e-002
1.807049e+003;5.883505e-002
1.808978e+003;5.880515e-002
1.810907e+003;5.876445e-002
1.812835e+003;5.876688e-002
1.814764e+003;5.879093e-002
1.816692e+003;5.866382e-002
1.818621e+003;5.860394e-002
1.820549e+003;5.863147e-002
1.822478e+003;5.860212e-002
1.824406e+003;5.859378e-002
1.826335e+003;5.851654e-002
1.828264e+003;5.832944e-002
1.830192e+003;5.833239e-002
1.832121e+003;5.835847e-002
1.834049e+003;5.830162e-002
1.835978e+003;5.824350e-002
1.837906e+003;5.816977e-002
1.839835e+003;5.811147e-002
1.841763e+003;5.805659e-002
1.843692e+003;5.782760e-002
1.845620e+003;5.778706e-002
1.847549e+003;5.760769e-002
1.849478e+003;5.740524e-002
1.851406e+003;5.755525e-002
1.853335e+003;5.763549e-002
1.855263e+003;5.760905e-002
1.857192e+003;5.752934e-002
1.859120e+003;5.746787e-002
1.861049e+003;5.762415e-002
1.862977e+003;5.768885e-002
1.864906e+003;5.751587e-002
1.866834e+003;5.718551e-002
1.868763e+003;5.709137e-002
1.870692e+003;5.735080e-002
1.872620e+003;5.748149e-002
1.874549e+003;5.742396e-002
1.876477e+003;5.735080e-002
1.878406e+003;5.727782e-002
1.880334e+003;5.722169e-002
1.882263e+003;5.733510e-002
1.884191e+003;5.732667e-002
1.886120e+003;5.705271e-002
1.888048e+003;5.700526e-002
1.889977e+003;5.707629e-002
1.891906e+003;5.712474e-002
1.893834e+003;5.714881e-002
1.895763e+003;5.721768e-002
1.897691e+003;5.734577e-002
1.899620e+003;5.726663e-002
1.901548e+003;5.703462e-002
1.903477e+003;5.695112e-002
1.905405e+003;5.700722e-002
1.907334e+003;5.690862e-002
1.909262e+003;5.692577e-002
1.911191e+003;5.703405e-002
1.913120e+003;5.722116e-002
1.915048e+003;5.741289e-002
1.916977e+003;5.723601e-002
1.918905e+003;5.723340e-002
1.920834e+003;5.749310e-002
1.922762e+003;5.764844e-002
1.924691e+003;5.763262e-002
1.926619e+003;5.757012e-002
1.928548e+003;5.759108e-002
1.930477e+003;5.749677e-002
1.932405e+003;5.755328e-002
1.934334e+003;5.773059e-002
1.936262e+003;5.764435e-002
1.938191e+003;5.758457e-002
1.940119e+003;5.749178e-002
1.942048e+003;5.751610e-002
1.943976e+003;5.765661e-002
1.945905e+003;5.769759e-002
1.947833e+003;5.779557e-002
1.949762e+003;5.779114e-002
1.951691e+003;5.772094e-002
1.953619e+003;5.777517e-002
1.955548e+003;5.779133e-002
1.957476e+003;5.800827e-002
1.959405e+003;5.802406e-002
1.961333e+003;5.770440e-002
1.963262e+003;5.761385e-002
1.965190e+003;5.788328e-002
1.967119e+003;5.798165e-002
1.969047e+003;5.788472e-002
1.970976e+003;5.800134e-002
1.972905e+003;5.814647e-002
1.974833e+003;5.814644e-002
1.976762e+003;5.843659e-002
1.978690e+003;5.868908e-002
1.980619e+003;5.875747e-002
1.982547e+003;5.867918e-002
1.984476e+003;5.848943e-002
1.986404e+003;5.838989e-002
1.988333e+003;5.846983e-002
1.990261e+003;5.867087e-002
1.992190e+003;5.864213e-002
1.994119e+003;5.850979e-002
1.996047e+003;5.867634e-002
1.997976e+003;5.877238e-002
1.999904e+003;5.875497e-002
2.001833e+003;5.871991e-002
2.003761e+003;5.871195e-002
2.005690e+003;5.887057e-002
2.007618e+003;5.891572e-002
2.009547e+003;5.896343e-002
2.011476e+003;5.898711e-002
2.013404e+003;5.889208e-002
2.015333e+003;5.890096e-002
2.017261e+003;5.902161e-002
2.019190e+003;5.921227e-002
2.021118e+003;5.938965e-002
2.023047e+003;5.955604e-002
2.024975e+003;5.958644e-002
2.026904e+003;5.936051e-002
2.028833e+003;5.938475e-002
2.030761e+003;5.951682e-002
2.032690e+003;5.961077e-002
2.034618e+003;5.964475e-002
2.036547e+003;5.961544e-002
2.038475e+003;5.964756e-002
2.040404e+003;5.968979e-002
2.042332e+003;5.967417e-002
2.044261e+003;5.960058e-002
2.046189e+003;5.951564e-002
2.048118e+003;5.934722e-002
2.050047e+003;5.923430e-002
2.051975e+003;5.943665e-002
2.053904e+003;5.950903e-002
2.055832e+003;5.948159e-002
2.057761e+003;5.955946e-002
2.059689e+003;5.951564e-002
2.061618e+003;5.955319e-002
2.063546e+003;5.967360e-002
2.065475e+003;5.960906e-002
2.067404e+003;5.961875e-002
2.069332e+003;5.958868e-002
2.071260e+003;5.933145e-002
2.073189e+003;5.927816e-002
2.075118e+003;5.938346e-002
2.077046e+003;5.952947e-002
2.078975e+003;5.945659e-002
2.080903e+003;5.941943e-002
2.082832e+003;5.945249e-002
2.084760e+003;5.953297e-002
2.086689e+003;5.960001e-002
2.088617e+003;5.945970e-002
2.090546e+003;5.920494e-002
2.092475e+003;5.938372e-002
2.094403e+003;5.967995e-002
2.096332e+003;5.984740e-002
2.098260e+003;5.970542e-002
2.100189e+003;5.942327e-002
2.102117e+003;5.929761e-002
2.104046e+003;5.960894e-002
2.105974e+003;5.975644e-002
2.107903e+003;5.958701e-002
2.109832e+003;5.973211e-002
2.111760e+003;5.984930e-002
2.113688e+003;5.977203e-002
2.115617e+003;5.990528e-002
2.117546e+003;6.003797e-002
2.119474e+003;6.002579e-002
2.121403e+003;5.994263e-002
2.123331e+003;5.989965e-002
2.125260e+003;5.984238e-002
2.127188e+003;5.993343e-002
2.129117e+003;6.006068e-002
2.131045e+003;6.013675e-002
2.132974e+003;6.014683e-002
2.134903e+003;6.000506e-002
2.136831e+003;5.998368e-002
2.138760e+003;6.025218e-002
2.140688e+003;6.031020e-002
2.142617e+003;6.009089e-002
2.144545e+003;5.994716e-002
2.146474e+003;5.994469e-002
2.148402e+003;6.006209e-002
2.150331e+003;6.005159e-002
2.152260e+003;5.983276e-002
2.154188e+003;5.965296e-002
2.156117e+003;5.959670e-002
2.158045e+003;5.951283e-002
2.159974e+003;5.955968e-002
2.161902e+003;5.950762e-002
2.163831e+003;5.940625e-002
2.165759e+003;5.942954e-002
2.167688e+003;5.930957e-002
2.169616e+003;5.936575e-002
2.171545e+003;5.943516e-002
2.173474e+003;5.940534e-002
2.175402e+003;5.941970e-002
2.177331e+003;5.925048e-002
2.179259e+003;5.897891e-002
2.181188e+003;5.892650e-002
2.183116e+003;5.926381e-002
2.185045e+003;5.943892e-002
2.186973e+003;5.919367e-002
2.188902e+003;5.912813e-002
2.190831e+003;5.919720e-002
2.192759e+003;5.917848e-002
2.194688e+003;5.918995e-002
2.196616e+003;5.923437e-002
2.198545e+003;5.913762e-002
2.200473e+003;5.907912e-002
2.202402e+003;5.917213e-002
2.204330e+003;5.919192e-002
2.206259e+003;5.892711e-002
2.208188e+003;5.872606e-002
2.210116e+003;5.889140e-002
2.212044e+003;5.903463e-002
2.213973e+003;5.895109e-002
2.215902e+003;5.881692e-002
2.217830e+003;5.879165e-002
2.219759e+003;5.878934e-002
2.221687e+003;5.858695e-002
2.223616e+003;5.824418e-002
2.225544e+003;5.824543e-002
2.227473e+003;5.839436e-002
2.229401e+003;5.846968e-002
2.231330e+003;5.841017e-002
2.233259e+003;5.834555e-002
2.235187e+003;5.829143e-002
2.237116e+003;5.807413e-002
2.239044e+003;5.792837e-002
2.240973e+003;5.799611e-002
2.242901e+003;5.805231e-002
2.244830e+003;5.797040e-002
2.246758e+003;5.806394e-002
2.248687e+003;5.806137e-002
2.250615e+003;5.798998e-002
2.252544e+003;5.793481e-002
2.254473e+003;5.786356e-002
2.256401e+003;5.774043e-002
2.258330e+003;5.751773e-002
2.260258e+003;5.727230e-002
2.262187e+003;5.726021e-002
2.264115e+003;5.752964e-002
2.266044e+003;5.772790e-002
2.267972e+003;5.769100e-002
2.269901e+003;5.762831e-002
2.271830e+003;5.740279e-002
2.273758e+003;5.718597e-002
2.275687e+003;5.704100e-002
2.277615e+003;5.696283e-002
2.279544e+003;5.680729e-002
2.281472e+003;5.674310e-002
2.283401e+003;5.690039e-002
2.285329e+003;5.718574e-002
2.287258e+003;5.729041e-002
2.289187e+003;5.705933e-002
2.291115e+003;5.687776e-002
2.293043e+003;5.688996e-002
2.294972e+003;5.713332e-002
2.296901e+003;5.713313e-002
2.298829e+003;5.682855e-002
2.300758e+003;5.684577e-002
2.302686e+003;5.673992e-002
2.304615e+003;5.643245e-002
2.306543e+003;5.651445e-002
2.308472e+003;5.687085e-002
2.310400e+003;5.698399e-002
2.312329e+003;5.684966e-002
2.314258e+003;5.679834e-002
2.316186e+003;5.685706e-002
2.318115e+003;5.674498e-002
2.320043e+003;5.660515e-002
2.321972e+003;5.680174e-002
2.323900e+003;5.700231e-002
2.325829e+003;5.688014e-002
2.327757e+003;5.678841e-002
2.329686e+003;5.674464e-002
2.331615e+003;5.664837e-002
2.333543e+003;5.677534e-002
2.335472e+003;5.688675e-002
2.337400e+003;5.684472e-002
2.339329e+003;5.687614e-002
2.341257e+003;5.695898e-002
2.343186e+003;5.701614e-002
2.345114e+003;5.728894e-002
2.347043e+003;5.756615e-002
2.348971e+003;5.737064e-002
2.350900e+003;5.718196e-002
2.352829e+003;5.711790e-002
2.354757e+003;5.700280e-002
2.356686e+003;5.692925e-002
2.358614e+003;5.688547e-002
2.360543e+003;5.683739e-002
2.362471e+003;5.689264e-002
2.364400e+003;5.701969e-002
2.366328e+003;5.707527e-002
2.368257e+003;5.720158e-002
2.370186e+003;5.749178e-002
2.372114e+003;5.758722e-002
2.374042e+003;5.756130e-002
2.375971e+003;5.762456e-002
2.377900e+003;5.759176e-002
2.379828e+003;5.767473e-002
2.381757e+003;5.762460e-002
2.383685e+003;5.754213e-002
2.385614e+003;5.755972e-002
2.387542e+003;5.745570e-002
2.389471e+003;5.765687e-002
2.391399e+003;5.791826e-002
2.393328e+003;5.787639e-002
2.395257e+003;5.789608e-002
2.397185e+003;5.804379e-002
2.399114e+003;5.823387e-002
2.401042e+003;5.844913e-002
2.402971e+003;5.857402e-002
2.404899e+003;5.854217e-002
2.406828e+003;5.839671e-002
2.408756e+003;5.838015e-002
2.410685e+003;5.861611e-002
2.412614e+003;5.867459e-002
2.414542e+003;5.863082e-002
2.416471e+003;5.889375e-002
2.418399e+003;5.895071e-002
2.420328e+003;5.882033e-002
2.422256e+003;5.898828e-002
2.424185e+003;5.919260e-002
2.426113e+003;5.905965e-002
2.428042e+003;5.903250e-002
2.429970e+003;5.913618e-002
2.431899e+003;5.910619e-002
2.433828e+003;5.889459e-002
2.435756e+003;5.889716e-002
2.437685e+003;5.920589e-002
2.439613e+003;5.942156e-002
2.441542e+003;5.951849e-002
2.443470e+003;5.951659e-002
2.445399e+003;5.948418e-002
2.447327e+003;5.955976e-002
2.449256e+003;5.968413e-002
2.451185e+003;5.972245e-002
2.453113e+003;5.973754e-002
2.455042e+003;5.977233e-002
2.456970e+003;5.977237e-002
2.458899e+003;5.970793e-002
2.460827e+003;5.988775e-002
2.462756e+003;6.025747e-002
2.464684e+003;6.030860e-002
2.466613e+003;5.996040e-002
2.468542e+003;5.994461e-002
2.470470e+003;6.014432e-002
2.472398e+003;6.011521e-002
2.474327e+003;6.003538e-002
2.476256e+003;6.006045e-002
2.478184e+003;6.022900e-002
2.480113e+003;6.056016e-002
2.482041e+003;6.053784e-002
2.483970e+003;6.036201e-002
2.485898e+003;6.031808e-002
2.487827e+003;6.026170e-002
2.489755e+003;6.036053e-002
2.491684e+003;6.053555e-002
2.493613e+003;6.063163e-002
2.495541e+003;6.048231e-002
2.497470e+003;6.052382e-002
2.499398e+003;6.069183e-002
2.501327e+003;6.061997e-002
2.503255e+003;6.045013e-002
2.505184e+003;6.032367e-002
2.507112e+003;6.035962e-002
2.509041e+003;6.075322e-002
2.510969e+003;6.109370e-002
2.512898e+003;6.109401e-002
2.514827e+003;6.097972e-002
2.516755e+003;6.103814e-002
2.518684e+003;6.107021e-002
2.520612e+003;6.110251e-002
2.522541e+003;6.120844e-002
2.524469e+003;6.111445e-002
2.526398e+003;6.104260e-002
2.528326e+003;6.095467e-002
2.530255e+003;6.092939e-002
2.532184e+003;6.103543e-002
2.534112e+003;6.102048e-002
2.536041e+003;6.103688e-002
2.537969e+003;6.113970e-002
2.539898e+003;6.115610e-002
2.541826e+003;6.115637e-002
2.543755e+003;6.091940e-002
2.545683e+003;6.073935e-002
2.547612e+003;6.092707e-002
2.549541e+003;6.116712e-002
2.551469e+003;6.108943e-002
2.553397e+003;6.116892e-002
2.555326e+003;6.131599e-002
2.557255e+003;6.116388e-002
2.559183e+003;6.121138e-002
2.561112e+003;6.146400e-002
2.563040e+003;6.136996e-002
2.564969e+003;6.123869e-002
2.566897e+003;6.123095e-002
2.568826e+003;6.137434e-002
2.570754e+003;6.140732e-002
2.572683e+003;6.133801e-002
2.574612e+003;6.145839e-002
2.576540e+003;6.154627e-002
2.578469e+003;6.167708e-002
2.580397e+003;6.176715e-002
2.582326e+003;6.150087e-002
2.584254e+003;6.128104e-002
2.586183e+003;6.132542e-002
2.588111e+003;6.151465e-002
2.590040e+003;6.173262e-002
2.591969e+003;6.158162e-002
2.593897e+003;6.147518e-002
2.595826e+003;6.166510e-002
2.597754e+003;6.183377e-002
2.599683e+003;6.191083e-002
2.601611e+003;6.167976e-002
2.603540e+003;6.174255e-002
2.605468e+003;6.200580e-002
2.607397e+003;6.206818e-002
2.609325e+003;6.195872e-002
2.611254e+003;6.186120e-002
2.613183e+003;6.181344e-002
2.615111e+003;6.195294e-002
2.617040e+003;6.220921e-002
2.618968e+003;6.222997e-002
2.620897e+003;6.209409e-002
2.622825e+003;6.203855e-002
2.624754e+003;6.219491e-002
2.626682e+003;6.229793e-002
2.628611e+003;6.228381e-002
2.630540e+003;6.248843e-002
2.632468e+003;6.256837e-002
2.634396e+003;6.240067e-002
2.636325e+003;6.246061e-002
2.638254e+003;6.276044e-002
2.640182e+003;6.269363e-002
2.642111e+003;6.236616e-002
2.644039e+003;6.233430e-002
2.645968e+003;6.270833e-002
2.647896e+003;6.299048e-002
2.649825e+003;6.300266e-002
2.651753e+003;6.308150e-002
2.653682e+003;6.311653e-002
2.655611e+003;6.314749e-002
2.657539e+003;6.332567e-002
2.659468e+003;6.344070e-002
2.661396e+003;6.347425e-002
2.663325e+003;6.353937e-002
2.665253e+003;6.342700e-002
2.667182e+003;6.351052e-002
2.669110e+003;6.368909e-002
2.671039e+003;6.367999e-002
2.672968e+003;6.346113e-002
2.674896e+003;6.343134e-002
2.676825e+003;6.364520e-002
2.678753e+003;6.368825e-002
2.680682e+003;6.376644e-002
2.682610e+003;6.404866e-002
2.684539e+003;6.409417e-002
2.686467e+003;6.384159e-002
2.688396e+003;6.398001e-002
2.690324e+003;6.461596e-002
2.692253e+003;6.493717e-002
2.694182e+003;6.465095e-002
2.696110e+003;6.454830e-002
2.698039e+003;6.432749e-002
2.699967e+003;6.407285e-002
2.701896e+003;6.430390e-002
2.703824e+003;6.474975e-002
2.705753e+003;6.472602e-002
2.707681e+003;6.468444e-002
2.709610e+003;6.477910e-002
2.711539e+003;6.494429e-002
2.713467e+003;6.504142e-002
2.715396e+003;6.499312e-002
2.717324e+003;6.484010e-002
2.719253e+003;6.485284e-002
2.721181e+003;6.504235e-002
2.723110e+003;6.497607e-002
2.725038e+003;6.494521e-002
2.726967e+003;6.506655e-002
2.728896e+003;6.515717e-002
2.730824e+003;6.531126e-002
2.732752e+003;6.534901e-002
2.734681e+003;6.516598e-002
2.736610e+003;6.511078e-002
2.738538e+003;6.531469e-002
2.740467e+003;6.537296e-002
2.742395e+003;6.545994e-002
2.744324e+003;6.561969e-002
2.746252e+003;6.528292e-002
2.748181e+003;6.509858e-002
2.750109e+003;6.519594e-002
2.752038e+003;6.524191e-002
2.753967e+003;6.543082e-002
2.755895e+003;6.563333e-002
2.757824e+003;6.564690e-002
2.759752e+003;6.559186e-002
2.761681e+003;6.556085e-002
2.763609e+003;6.561483e-002
2.765538e+003;6.592699e-002
2.767466e+003;6.610192e-002
2.769395e+003;6.591187e-002
2.771323e+003;6.598469e-002
2.773252e+003;6.615559e-002
2.775181e+003;6.596760e-002
2.777109e+003;6.585179e-002
2.779038e+003;6.612276e-002
2.780966e+003;6.645296e-002
2.782895e+003;6.667894e-002
2.784823e+003;6.681174e-002
2.786752e+003;6.670513e-002
2.788680e+003;6.685475e-002
2.790609e+003;6.733403e-002
2.792538e+003;6.738646e-002
2.794466e+003;6.730667e-002
2.796395e+003;6.749625e-002
2.798323e+003;6.757478e-002
2.800252e+003;6.755497e-002
2.802180e+003;6.770081e-002
2.804109e+003;6.783505e-002
2.806037e+003;6.794546e-002
2.807966e+003;6.803447e-002
2.809895e+003;6.828989e-002
2.811823e+003;6.870247e-002
2.813751e+003;6.885332e-002
2.815680e+003;6.889898e-002
2.817609e+003;6.882381e-002
2.819537e+003;6.873433e-002
2.821466e+003;6.883212e-002
2.823394e+003;6.893350e-002
2.825323e+003;6.918599e-002
2.827251e+003;6.942122e-002
2.829180e+003;6.953919e-002
2.831108e+003;6.947367e-002
2.833037e+003;6.981098e-002
2.834966e+003;7.043375e-002
2.836894e+003;7.066657e-002
2.838823e+003;7.068158e-002
2.840751e+003;7.098155e-002
2.842680e+003;7.162879e-002
2.844608e+003;7.223531e-002
2.846537e+003;7.270724e-002
2.848465e+003;7.284339e-002
2.850394e+003;7.262377e-002
2.852323e+003;7.256389e-002
2.854251e+003;7.254294e-002
2.856180e+003;7.266376e-002
2.858108e+003;7.303818e-002
2.860037e+003;7.328032e-002
2.861965e+003;7.354524e-002
2.863894e+003;7.392698e-002
2.865822e+003;7.434794e-002
2.867751e+003;7.463236e-002
2.869679e+003;7.492902e-002
2.871608e+003;7.524239e-002
2.873536e+003;7.561355e-002
2.875465e+003;7.601137e-002
2.877394e+003;7.643008e-002
2.879322e+003;7.679831e-002
2.881251e+003;7.679413e-002
2.883179e+003;7.669374e-002
2.885108e+003;7.665669e-002
2.887036e+003;7.685423e-002
2.888965e+003;7.746267e-002
2.890893e+003;7.757033e-002
2.892822e+003;7.759267e-002
2.894750e+003;7.782029e-002
2.896679e+003;7.770381e-002
2.898608e+003;7.725829e-002
2.900536e+003;7.681666e-002
2.902465e+003;7.683039e-002
2.904393e+003;7.674351e-002
2.906322e+003;7.633298e-002
2.908250e+003;7.590492e-002
2.910179e+003;7.548095e-002
2.912107e+003;7.538930e-002
2.914036e+003;7.534429e-002
2.915965e+003;7.511549e-002
2.917893e+003;7.502361e-002
2.919822e+003;7.456682e-002
2.921750e+003;7.359733e-002
2.923679e+003;7.273031e-002
2.925607e+003;7.192790e-002
2.927536e+003;7.123825e-002
2.929464e+003;7.083246e-002
2.931393e+003;7.017484e-002
2.933322e+003;6.975297e-002
2.935250e+003;6.976810e-002
2.937178e+003;6.974752e-002
2.939107e+003;6.957956e-002
2.941036e+003;6.946795e-002
2.942964e+003;6.921639e-002
2.944893e+003;6.878697e-002
2.946821e+003;6.837373e-002
2.948750e+003;6.819676e-002
2.950678e+003;6.808345e-002
2.952607e+003;6.797611e-002
2.954535e+003;6.775305e-002
2.956464e+003;6.726450e-002
2.958393e+003;6.729410e-002
2.960321e+003;6.742438e-002
2.962250e+003;6.711234e-002
2.964178e+003;6.647949e-002
2.966107e+003;6.628688e-002
2.968035e+003;6.617624e-002
2.969964e+003;6.587747e-002
2.971892e+003;6.602156e-002
2.973821e+003;6.626345e-002
2.975750e+003;6.613483e-002
2.977678e+003;6.597092e-002
2.979607e+003;6.579519e-002
2.981535e+003;6.577159e-002
2.983464e+003;6.567743e-002
2.985392e+003;6.528115e-002
2.987321e+003;6.502164e-002
2.989249e+003;6.500090e-002
2.991178e+003;6.514489e-002
2.993106e+003;6.548730e-002
2.995035e+003;6.535918e-002
2.996964e+003;6.492286e-002
2.998892e+003;6.498554e-002
3.000821e+003;6.536029e-002
3.002749e+003;6.576736e-002
3.004678e+003;6.590000e-002
3.006606e+003;6.578783e-002
3.008535e+003;6.570649e-002
3.010463e+003;6.586348e-002
3.012392e+003;6.600069e-002
3.014321e+003;6.593486e-002
3.016249e+003;6.593281e-002
3.018177e+003;6.599943e-002
3.020106e+003;6.598928e-002
3.022035e+003;6.620641e-002
3.023963e+003;6.655302e-002
3.025892e+003;6.665704e-002
3.027820e+003;6.666920e-002
3.029749e+003;6.700152e-002
3.031677e+003;6.726075e-002
3.033606e+003;6.696430e-002
3.035534e+003;6.706215e-002
3.037463e+003;6.739826e-002
3.039392e+003;6.777482e-002
3.041320e+003;6.778380e-002
3.043249e+003;6.772111e-002
3.045177e+003;6.781584e-002
3.047106e+003;6.768056e-002
3.049034e+003;6.751053e-002
3.050963e+003;6.766387e-002
3.052891e+003;6.811105e-002
3.054820e+003;6.830908e-002
3.056749e+003;6.816722e-002
3.058677e+003;6.834309e-002
3.060606e+003;6.860801e-002
3.062534e+003;6.886350e-002
3.064463e+003;6.903196e-002
3.066391e+003;6.915643e-002
3.068320e+003;6.923305e-002
3.070248e+003;6.919653e-002
3.072177e+003;6.923305e-002
3.074105e+003;6.968138e-002
3.076034e+003;7.020397e-002
3.077963e+003;7.028889e-002
3.079891e+003;7.037476e-002
3.081820e+003;7.058325e-002
3.083748e+003;7.076222e-002
3.085677e+003;7.062750e-002
3.087605e+003;7.073808e-002
3.089534e+003;7.112169e-002
3.091462e+003;7.121486e-002
3.093391e+003;7.124930e-002
3.095320e+003;7.145810e-002
3.097248e+003;7.172887e-002
3.099177e+003;7.177034e-002
3.101105e+003;7.211696e-002
3.103034e+003;7.270242e-002
3.104962e+003;7.302516e-002
3.106891e+003;7.287485e-002
3.108819e+003;7.293658e-002
3.110748e+003;7.328522e-002
3.112677e+003;7.348528e-002
3.114605e+003;7.358999e-002
3.116533e+003;7.375610e-002
3.118462e+003;7.373026e-002
3.120391e+003;7.384347e-002
3.122319e+003;7.390726e-002
3.124248e+003;7.395624e-002
3.126176e+003;7.419588e-002
3.128105e+003;7.446211e-002
3.130033e+003;7.480891e-002
3.131962e+003;7.501789e-002
3.133890e+003;7.518239e-002
3.135819e+003;7.526015e-002
3.137748e+003;7.529689e-002
3.139676e+003;7.573132e-002
3.141605e+003;7.595859e-002
3.143533e+003;7.610350e-002
3.145462e+003;7.618247e-002
3.147390e+003;7.612640e-002
3.149319e+003;7.638007e-002
3.151247e+003;7.668436e-002
3.153176e+003;7.677332e-002
3.155104e+003;7.654907e-002
3.157033e+003;7.662879e-002
3.158962e+003;7.695854e-002
3.160890e+003;7.716013e-002
3.162819e+003;7.754838e-002
3.164747e+003;7.769985e-002
3.166676e+003;7.750022e-002
3.168604e+003;7.745226e-002
3.170533e+003;7.744461e-002
3.172461e+003;7.776254e-002
3.174390e+003;7.814725e-002
3.176319e+003;7.809069e-002
3.178247e+003;7.811107e-002
3.180176e+003;7.826801e-002
3.182104e+003;7.810568e-002
3.184033e+003;7.793754e-002
3.185961e+003;7.778779e-002
3.187890e+003;7.802716e-002
3.189818e+003;7.844433e-002
3.191747e+003;7.845537e-002
3.193676e+003;7.859313e-002
3.195604e+003;7.878647e-002
3.197532e+003;7.876891e-002
3.199461e+003;7.866755e-002
3.201390e+003;7.879902e-002
3.203318e+003;7.905179e-002
3.205247e+003;7.921737e-002
3.207175e+003;7.908172e-002
3.209104e+003;7.892115e-002
3.211032e+003;7.930526e-002
3.212961e+003;7.955164e-002
3.214889e+003;7.928184e-002
3.216818e+003;7.911953e-002
3.218747e+003;7.969266e-002
3.220675e+003;8.007710e-002
3.222604e+003;8.007088e-002
3.224532e+003;8.003008e-002
3.226461e+003;8.031036e-002
3.228389e+003;8.065664e-002
3.230318e+003;8.062927e-002
3.232246e+003;8.060107e-002
3.234175e+003;8.077598e-002
3.236104e+003;8.093664e-002
3.238032e+003;8.084375e-002
3.239961e+003;8.100332e-002
3.241889e+003;8.131854e-002
3.243818e+003;8.127047e-002
3.245746e+003;8.120268e-002
3.247675e+003;8.136349e-002
3.249603e+003;8.176145e-002
3.251532e+003;8.193476e-002
3.253460e+003;8.201271e-002
3.255389e+003;8.221682e-002
3.257318e+003;8.224957e-002
3.259246e+003;8.229330e-002
3.261175e+003;8.245412e-002
3.263103e+003;8.268225e-002
3.265032e+003;8.264558e-002
3.266960e+003;8.271372e-002
3.268889e+003;8.302064e-002
3.270817e+003;8.321636e-002
3.272746e+003;8.313771e-002
3.274675e+003;8.307801e-002
3.276603e+003;8.307926e-002
3.278531e+003;8.289891e-002
3.280460e+003;8.296196e-002
3.282389e+003;8.289976e-002
3.284317e+003;8.289903e-002
3.286246e+003;8.306417e-002
3.288174e+003;8.320019e-002
3.290103e+003;8.344975e-002
3.292031e+003;8.356192e-002
3.293960e+003;8.377608e-002
3.295888e+003;8.384143e-002
3.297817e+003;8.356075e-002
3.299746e+003;8.316945e-002
3.301674e+003;8.321897e-002
3.303603e+003;8.360253e-002
3.305531e+003;8.385859e-002
3.307460e+003;8.371589e-002
3.309388e+003;8.378155e-002
3.311317e+003;8.377363e-002
3.313245e+003;8.377182e-002
3.315174e+003;8.412784e-002
3.317103e+003;8.381920e-002
3.319031e+003;8.329539e-002
3.320960e+003;8.366961e-002
3.322888e+003;8.383198e-002
3.324817e+003;8.353770e-002
3.326745e+003;8.371501e-002
3.328674e+003;8.392483e-002
3.330602e+003;8.402219e-002
3.332531e+003;8.398034e-002
3.334459e+003;8.346951e-002
3.336388e+003;8.328656e-002
3.338317e+003;8.377247e-002
3.340245e+003;8.420195e-002
3.342174e+003;8.439214e-002
3.344102e+003;8.431951e-002
3.346031e+003;8.414557e-002
3.347959e+003;8.354954e-002
3.349888e+003;8.311220e-002
3.351816e+003;8.325774e-002
3.353745e+003;8.328933e-002
3.355674e+003;8.303969e-002
3.357602e+003;8.282389e-002
3.359531e+003;8.265884e-002
3.361459e+003;8.262061e-002
3.363388e+003;8.260374e-002
3.365316e+003;8.283082e-002
3.367245e+003;8.273677e-002
3.369173e+003;8.244696e-002
3.371102e+003;8.232450e-002
3.373031e+003;8.251590e-002
3.374959e+003;8.243152e-002
3.376887e+003;8.184341e-002
3.378816e+003;8.168406e-002
3.380745e+003;8.181017e-002
3.382673e+003;8.188842e-002
3.384602e+003;8.176437e-002
3.386530e+003;8.137604e-002
3.388459e+003;8.092310e-002
3.390387e+003;8.094478e-002
3.392316e+003;8.104472e-002
3.394244e+003;8.099904e-002
3.396173e+003;8.099221e-002
3.398102e+003;8.102699e-002
3.400030e+003;8.065376e-002
3.401959e+003;8.023215e-002
3.403887e+003;8.014619e-002
3.405816e+003;7.991819e-002
3.407744e+003;7.970898e-002
3.409673e+003;7.961325e-002
3.411601e+003;7.969982e-002
3.413530e+003;7.978021e-002
3.415458e+003;7.972530e-002
3.417387e+003;7.983974e-002
3.419316e+003;7.966536e-002
3.421244e+003;7.952514e-002
3.423173e+003;7.912179e-002
3.425101e+003;7.898283e-002
3.427030e+003;7.936195e-002
3.428958e+003;7.934265e-002
3.430887e+003;7.905263e-002
3.432815e+003;7.919523e-002
3.434744e+003;7.934377e-002
3.436673e+003;7.908797e-002
3.438601e+003;7.906113e-002
3.440530e+003;7.895322e-002
3.442458e+003;7.853580e-002
3.444387e+003;7.795836e-002
3.446315e+003;7.750561e-002
3.448244e+003;7.726818e-002
3.450172e+003;7.677115e-002
3.452101e+003;7.629265e-002
3.454030e+003;7.616138e-002
3.455958e+003;7.550973e-002
3.457886e+003;7.455148e-002
3.459815e+003;7.412799e-002
3.461744e+003;7.395095e-002
3.463672e+003;7.395484e-002
3.465601e+003;7.384174e-002
3.467529e+003;7.337455e-002
3.469458e+003;7.314792e-002
3.471386e+003;7.288822e-002
3.473315e+003;7.237698e-002
3.475243e+003;7.200458e-002
3.477172e+003;7.216731e-002
3.479101e+003;7.232747e-002
3.481029e+003;7.193192e-002
3.482958e+003;7.163086e-002
3.484886e+003;7.143513e-002
3.486815e+003;7.102947e-002
3.488743e+003;7.047039e-002
3.490672e+003;7.007532e-002
3.492600e+003;6.974168e-002
3.494529e+003;6.906769e-002
3.496458e+003;6.820614e-002
3.498386e+003;6.739500e-002
3.500315e+003;6.686210e-002
3.502243e+003;6.661331e-002
3.504172e+003;6.642516e-002
3.506100e+003;6.603244e-002
3.508029e+003;6.555561e-002
3.509957e+003;6.517079e-002
3.511886e+003;6.512206e-002
3.513814e+003;6.465626e-002
3.515743e+003;6.358647e-002
3.517672e+003;6.308890e-002
3.519600e+003;6.294371e-002
3.521529e+003;6.257690e-002
3.523457e+003;6.204314e-002
3.525386e+003;6.156917e-002
3.527314e+003;6.138873e-002
3.529243e+003;6.112685e-002
3.531171e+003;6.087507e-002
3.533100e+003;6.064134e-002
3.535029e+003;6.067823e-002
3.536957e+003;6.067220e-002
3.538885e+003;6.019901e-002
3.540814e+003;5.972945e-002
3.542743e+003;5.936321e-002
3.544671e+003;5.940522e-002
3.546600e+003;5.941943e-002
3.548528e+003;5.919150e-002
3.550457e+003;5.888001e-002
3.552385e+003;5.827465e-002
3.554314e+003;5.803815e-002
3.556242e+003;5.832417e-002
3.558171e+003;5.817504e-002
3.560100e+003;5.803841e-002
3.562028e+003;5.776446e-002
3.563957e+003;5.730561e-002
3.565885e+003;5.697575e-002
3.567814e+003;5.661915e-002
3.569742e+003;5.633530e-002
3.571671e+003;5.595134e-002
3.573599e+003;5.596566e-002
3.575528e+003;5.604750e-002
3.577457e+003;5.609051e-002
3.579385e+003;5.575641e-002
3.581314e+003;5.554805e-002
3.583242e+003;5.544433e-002
3.585171e+003;5.495554e-002
3.587099e+003;5.465812e-002
3.589028e+003;5.463516e-002
3.590956e+003;5.435156e-002
3.592885e+003;5.400499e-002
3.594813e+003;5.434653e-002
3.596742e+003;5.468556e-002
3.598671e+003;5.412796e-002
3.600599e+003;5.358469e-002
3.602528e+003;5.362307e-002
3.604456e+003;5.344182e-002
3.606385e+003;5.320266e-002
3.608313e+003;5.325610e-002
3.610242e+003;5.320809e-002
3.612170e+003;5.337452e-002
3.614099e+003;5.320486e-002
3.616028e+003;5.258184e-002
3.617956e+003;5.229371e-002
3.619885e+003;5.220742e-002
3.621813e+003;5.200162e-002
3.623742e+003;5.176030e-002
3.625670e+003;5.182570e-002
3.627599e+003;5.179669e-002
3.629527e+003;5.172928e-002
3.631456e+003;5.147819e-002
3.633385e+003;5.092961e-002
3.635313e+003;5.069183e-002
3.637241e+003;5.078646e-002
3.639170e+003;5.065798e-002
3.641099e+003;5.063144e-002
3.643027e+003;5.065091e-002
3.644956e+003;5.037596e-002
3.646884e+003;5.004890e-002
3.648813e+003;4.999648e-002
3.650741e+003;5.009222e-002
3.652670e+003;5.001644e-002
3.654598e+003;4.956990e-002
3.656527e+003;4.922727e-002
3.658456e+003;4.929025e-002
3.660384e+003;4.917758e-002
3.662313e+003;4.890245e-002
3.664241e+003;4.847979e-002
3.666170e+003;4.851236e-002
3.668098e+003;4.876433e-002
3.670027e+003;4.830793e-002
3.671955e+003;4.750473e-002
3.673884e+003;4.704005e-002
3.675813e+003;4.676988e-002
3.677741e+003;4.674033e-002
3.679669e+003;4.692002e-002
3.681598e+003;4.734083e-002
3.683527e+003;4.751224e-002
3.685455e+003;4.696517e-002
3.687384e+003;4.661769e-002
3.689312e+003;4.655746e-002
3.691241e+003;4.641732e-002
3.693169e+003;4.637219e-002
3.695098e+003;4.610075e-002
3.697026e+003;4.562328e-002
3.698955e+003;4.537662e-002
3.700884e+003;4.566436e-002
3.702812e+003;4.596960e-002
3.704741e+003;4.562994e-002
3.706669e+003;4.498461e-002
3.708598e+003;4.480541e-002
3.710526e+003;4.474819e-002
3.712455e+003;4.475145e-002
3.714383e+003;4.506345e-002
3.716312e+003;4.486173e-002
3.718240e+003;4.458058e-002
3.720169e+003;4.492339e-002
3.722098e+003;4.501592e-002
3.724026e+003;4.476152e-002
3.725955e+003;4.462809e-002
3.727883e+003;4.454611e-002
3.729812e+003;4.412385e-002
3.731740e+003;4.357401e-002
3.733669e+003;4.348493e-002
3.735597e+003;4.360859e-002
3.737526e+003;4.402913e-002
3.739455e+003;4.434500e-002
3.741383e+003;4.413196e-002
3.743312e+003;4.342582e-002
3.745240e+003;4.330035e-002
3.747169e+003;4.384190e-002
3.749097e+003;4.382467e-002
3.751026e+003;4.332513e-002
3.752954e+003;4.326726e-002
3.754883e+003;4.368391e-002
3.756812e+003;4.378839e-002
3.758740e+003;4.389149e-002
3.760668e+003;4.393453e-002
3.762597e+003;4.372558e-002
3.764526e+003;4.373470e-002
3.766454e+003;4.389003e-002
3.768383e+003;4.354434e-002
3.770311e+003;4.372568e-002
3.772240e+003;4.415753e-002
3.774168e+003;4.417994e-002
3.776097e+003;4.425158e-002
3.778025e+003;4.386855e-002
3.779954e+003;4.379623e-002
3.781883e+003;4.400687e-002
3.783811e+003;4.424124e-002
3.785740e+003;4.440647e-002
3.787668e+003;4.430644e-002
3.789597e+003;4.421648e-002
3.791525e+003;4.411956e-002
3.793454e+003;4.403859e-002
3.795382e+003;4.384901e-002
3.797311e+003;4.369479e-002
3.799240e+003;4.346131e-002
3.801168e+003;4.322403e-002
3.803097e+003;4.350547e-002
3.805025e+003;4.370081e-002
3.806954e+003;4.339093e-002
3.808882e+003;4.335098e-002
3.810811e+003;4.350782e-002
3.812739e+003;4.376464e-002
3.814668e+003;4.365318e-002
3.816596e+003;4.317572e-002
3.818525e+003;4.302884e-002
3.820454e+003;4.312075e-002
3.822382e+003;4.363830e-002
3.824311e+003;4.406121e-002
3.826239e+003;4.403467e-002
3.828168e+003;4.399547e-002
3.830096e+003;4.365083e-002
3.832025e+003;4.366560e-002
3.833953e+003;4.378300e-002
3.835882e+003;4.336592e-002
3.837811e+003;4.310853e-002
3.839739e+003;4.356496e-002
3.841667e+003;4.388984e-002
3.843596e+003;4.383732e-002
3.845525e+003;4.365801e-002
3.847453e+003;4.365325e-002
3.849382e+003;4.404420e-002
3.851310e+003;4.404614e-002
3.853239e+003;4.373015e-002
3.855167e+003;4.361566e-002
3.857096e+003;4.393787e-002
3.859024e+003;4.445668e-002
3.860953e+003;4.448946e-002
3.862882e+003;4.404383e-002
3.864810e+003;4.402887e-002
3.866739e+003;4.444670e-002
3.868667e+003;4.457063e-002
3.870596e+003;4.457691e-002
3.872524e+003;4.445389e-002
3.874453e+003;4.406840e-002
3.876381e+003;4.456659e-002
3.878310e+003;4.483525e-002
3.880239e+003;4.445419e-002
3.882167e+003;4.468865e-002
3.884096e+003;4.486850e-002
3.886024e+003;4.461205e-002
3.887953e+003;4.462530e-002
3.889881e+003;4.464344e-002
3.891810e+003;4.496951e-002
3.893738e+003;4.542039e-002
3.895667e+003;4.533836e-002
3.897595e+003;4.511219e-002
3.899524e+003;4.506627e-002
3.901453e+003;4.495826e-002
3.903381e+003;4.479539e-002
3.905310e+003;4.496080e-002
3.907238e+003;4.518656e-002
3.909167e+003;4.555851e-002
3.911095e+003;4.556870e-002
3.913024e+003;4.557198e-002
3.914952e+003;4.566616e-002
3.916881e+003;4.549563e-002
3.918810e+003;4.564621e-002
3.920738e+003;4.580690e-002
3.922667e+003;4.568129e-002
3.924595e+003;4.600246e-002
3.926524e+003;4.623673e-002
3.928452e+003;4.605830e-002
3.930381e+003;4.596636e-002
3.932309e+003;4.577406e-002
3.934238e+003;4.581780e-002
3.936167e+003;4.587197e-002
3.938095e+003;4.584637e-002
3.940023e+003;4.607208e-002
3.941952e+003;4.594897e-002
3.943881e+003;4.580465e-002
3.945809e+003;4.567051e-002
3.947738e+003;4.544688e-002
3.949666e+003;4.602850e-002
3.951595e+003;4.638255e-002
3.953523e+003;4.627414e-002
3.955452e+003;4.672047e-002
3.957380e+003;4.649277e-002
3.959309e+003;4.587414e-002
3.961238e+003;4.631354e-002
3.963166e+003;4.681406e-002
3.965095e+003;4.643510e-002
3.967023e+003;4.608395e-002
3.968952e+003;4.629622e-002
3.970880e+003;4.629474e-002
3.972809e+003;4.599594e-002
3.974737e+003;4.614379e-002
3.976666e+003;4.650206e-002
3.978594e+003;4.639992e-002
3.980523e+003;4.629622e-002
3.982452e+003;4.637610e-002
3.984380e+003;4.572513e-002
3.986309e+003;4.549588e-002
3.988237e+003;4.593450e-002
3.990166e+003;4.633035e-002
3.992094e+003;4.643351e-002
3.994023e+003;4.659818e-002
3.995951e+003;4.674999e-002
3.997880e+003;4.659283e-002
3.999809e+003;4.645884e-002
4.001737e+003;0.000000e+000
