3.992094e+002;0.000000e+000
4.011380e+002;0.000000e+000
4.030665e+002;0.000000e+000
4.049951e+002;0.000000e+000
4.069236e+002;0.000000e+000
4.088522e+002;0.000000e+000
4.107807e+002;0.000000e+000
4.127093e+002;0.000000e+000
4.146378e+002;0.000000e+000
4.165664e+002;0.000000e+000
4.184949e+002;0.000000e+000
4.204235e+002;0.000000e+000
4.223520e+002;0.000000e+000
4.242806e+002;0.000000e+000
4.262091e+002;0.000000e+000
4.281377e+002;0.000000e+000
4.300662e+002;0.000000e+000
4.319948e+002;0.000000e+000
4.339233e+002;0.000000e+000
4.358519e+002;0.000000e+000
4.377804e+002;0.000000e+000
4.397090e+002;0.000000e+000
4.416375e+002;0.000000e+000
4.435660e+002;0.000000e+000
4.454946e+002;0.000000e+000
4.474232e+002;0.000000e+000
4.493517e+002;0.000000e+000
4.512802e+002;0.000000e+000
4.532088e+002;0.000000e+000
4.551373e+002;0.000000e+000
4.570659e+002;0.000000e+000
4.589944e+002;0.000000e+000
4.609230e+002;0.000000e+000
4.628515e+002;0.000000e+000
4.647801e+002;0.000000e+000
4.667086e+002;0.000000e+000
4.686372e+002;0.000000e+000
4.705657e+002;0.000000e+000
4.724943e+002;0.000000e+000
4.744228e+002;0.000000e+000
4.763513e+002;0.000000e+000
4.782799e+002;0.000000e+000
4.802085e+002;0.000000e+000
4.821370e+002;0.000000e+000
4.840656e+002;0.000000e+000
4.859941e+002;0.000000e+000
4.879226e+002;0.000000e+000
4.898512e+002;0.000000e+000
4.917798e+002;0.000000e+000
4.937083e+002;0.000000e+000
4.956368e+002;0.000000e+000
4.975654e+002;0.000000e+000
4.994939e+002;0.000000e+000
5.014225e+002;0.000000e+000
5.033510e+002;0.000000e+000
5.052796e+002;0.000000e+000
5.072081e+002;0.000000e+000
5.091367e+002;0.000000e+000
5.110652e+002;0.000000e+000
5.129938e+002;0.000000e+000
5.149223e+002;0.000000e+000
5.168509e+002;0.000000e+000
5.187794e+002;0.000000e+000
5.207079e+002;0.000000e+000
5.226365e+002;0.000000e+000
5.245651e+002;0.000000e+000
5.264936e+002;0.000000e+000
5.284222e+002;0.000000e+000
5.303507e+002;0.000000e+000
5.322792e+002;0.000000e+000
5.342078e+002;0.000000e+000
5.361364e+002;0.000000e+000
5.380649e+002;0.000000e+000
5.399935e+002;0.000000e+000
5.419220e+002;0.000000e+000
5.438505e+002;0.000000e+000
5.457791e+002;0.000000e+000
5.477076e+002;0.000000e+000
5.496362e+002;0.000000e+000
5.515648e+002;0.000000e+000
5.534933e+002;0.000000e+000
5.554218e+002;0.000000e+000
5.573504e+002;0.000000e+000
5.592789e+002;0.000000e+000
5.612075e+002;0.000000e+000
5.631360e+002;0.000000e+000
5.650646e+002;0.000000e+000
5.669931e+002;0.000000e+000
5.689217e+002;0.000000e+000
5.708502e+002;0.000000e+000
5.727787e+002;0.000000e+000
5.747073e+002;0.000000e+000
5.766359e+002;0.000000e+000
5.785644e+002;0.000000e+000
5.804930e+002;0.000000e+000
5.824215e+002;0.000000e+000
5.843500e+002;0.000000e+000
5.862786e+002;0.000000e+000
5.882072e+002;0.000000e+000
5.901357e+002;0.000000e+000
5.920643e+002;0.000000e+000
5.939928e+002;0.000000e+000
5.959213e+002;0.000000e+000
5.978499e+002;0.000000e+000
5.997784e+002;2.811971e-001
6.017070e+002;2.771563e-001
6.036355e+002;2.752850e-001
6.055641e+002;2.790447e-001
6.074926e+002;2.776283e-001
6.094211e+002;2.767715e-001
6.113497e+002;2.768033e-001
6.132783e+002;2.733735e-001
6.152068e+002;2.705685e-001
6.171354e+002;2.677565e-001
6.190639e+002;2.656923e-001
6.209924e+002;2.677459e-001
6.229210e+002;2.684515e-001
6.248495e+002;2.654470e-001
6.267781e+002;2.631126e-001
6.287067e+002;2.613530e-001
6.306352e+002;2.564853e-001
6.325637e+002;2.578183e-001
6.344923e+002;2.613776e-001
6.364208e+002;2.567056e-001
6.383494e+002;2.495304e-001
6.402780e+002;2.460244e-001
6.422065e+002;2.451430e-001
6.441350e+002;2.474405e-001
6.460636e+002;2.453333e-001
6.479921e+002;2.438414e-001
6.499207e+002;2.457885e-001
6.518492e+002;2.483735e-001
6.537778e+002;2.493490e-001
6.557063e+002;2.503105e-001
6.576349e+002;2.518981e-001
6.595634e+002;2.517600e-001
6.614919e+002;2.512227e-001
6.634205e+002;2.529172e-001
6.653491e+002;2.552854e-001
6.672776e+002;2.542445e-001
6.692062e+002;2.498011e-001
6.711347e+002;2.462007e-001
6.730632e+002;2.401394e-001
6.749918e+002;2.276896e-001
6.769203e+002;2.165610e-001
6.788489e+002;2.095066e-001
6.807775e+002;2.045473e-001
6.827060e+002;2.010505e-001
6.846345e+002;1.980823e-001
6.865631e+002;1.966058e-001
6.884916e+002;1.951976e-001
6.904202e+002;1.933022e-001
6.923488e+002;1.929790e-001
6.942773e+002;1.931135e-001
6.962058e+002;1.917146e-001
6.981344e+002;1.898861e-001
7.000629e+002;1.891140e-001
7.019915e+002;1.876860e-001
7.039200e+002;1.866350e-001
7.058486e+002;1.858094e-001
7.077771e+002;1.845770e-001
7.097057e+002;1.832111e-001
7.116342e+002;1.816814e-001
7.135627e+002;1.806566e-001
7.154913e+002;1.792787e-001
7.174199e+002;1.774733e-001
7.193484e+002;1.770691e-001
7.212770e+002;1.766440e-001
7.232055e+002;1.749334e-001
7.251340e+002;1.729533e-001
7.270626e+002;1.707376e-001
7.289911e+002;1.695659e-001
7.309197e+002;1.686174e-001
7.328483e+002;1.677165e-001
7.347768e+002;1.662334e-001
7.367053e+002;1.639121e-001
7.386339e+002;1.626124e-001
7.405624e+002;1.618189e-001
7.424910e+002;1.605385e-001
7.444196e+002;1.595742e-001
7.463481e+002;1.583036e-001
7.482766e+002;1.567030e-001
7.502052e+002;1.551331e-001
7.521337e+002;1.530145e-001
7.540623e+002;1.512732e-001
7.559908e+002;1.504925e-001
7.579194e+002;1.499972e-001
7.598479e+002;1.493778e-001
7.617765e+002;1.479249e-001
7.637050e+002;1.461952e-001
7.656335e+002;1.450585e-001
7.675621e+002;1.439119e-001
7.694907e+002;1.428691e-001
7.714192e+002;1.426813e-001
7.733478e+002;1.414682e-001
7.752763e+002;1.391875e-001
7.772048e+002;1.377067e-001
7.791334e+002;1.374525e-001
7.810620e+002;1.369075e-001
7.829905e+002;1.362591e-001
7.849191e+002;1.359523e-001
7.868476e+002;1.350913e-001
7.887761e+002;1.342232e-001
7.907047e+002;1.341000e-001
7.926332e+002;1.339536e-001
7.945618e+002;1.337878e-001
7.964903e+002;1.332281e-001
7.984189e+002;1.327247e-001
8.003474e+002;1.322768e-001
8.022759e+002;1.315925e-001
8.042045e+002;1.316885e-001
8.061331e+002;1.318340e-001
8.080616e+002;1.312836e-001
8.099902e+002;1.304474e-001
8.119187e+002;1.293940e-001
8.138472e+002;1.286436e-001
8.157758e+002;1.284850e-001
8.177043e+002;1.285282e-001
8.196329e+002;1.289131e-001
8.215615e+002;1.288487e-001
8.234900e+002;1.283705e-001
8.254185e+002;1.273603e-001
8.273471e+002;1.263040e-001
8.292756e+002;1.260751e-001
8.312042e+002;1.258191e-001
8.331328e+002;1.246086e-001
8.350613e+002;1.235963e-001
8.369898e+002;1.231726e-001
8.389184e+002;1.230288e-001
8.408469e+002;1.224662e-001
8.427755e+002;1.213631e-001
8.447040e+002;1.208146e-001
8.466326e+002;1.201165e-001
8.485611e+002;1.195332e-001
8.504897e+002;1.187976e-001
8.524182e+002;1.184783e-001
8.543467e+002;1.185545e-001
8.562753e+002;1.191852e-001
8.582039e+002;1.203626e-001
8.601324e+002;1.211911e-001
8.620610e+002;1.218640e-001
8.639895e+002;1.228208e-001
8.659180e+002;1.237660e-001
8.678466e+002;1.250756e-001
8.697751e+002;1.273712e-001
8.717037e+002;1.302587e-001
8.736323e+002;1.336951e-001
8.755608e+002;1.376294e-001
8.774893e+002;1.416656e-001
8.794179e+002;1.462844e-001
8.813464e+002;1.512810e-001
8.832750e+002;1.565078e-001
8.852036e+002;1.624586e-001
8.871321e+002;1.683822e-001
8.890606e+002;1.735040e-001
8.909892e+002;1.779537e-001
8.929177e+002;1.819841e-001
8.948463e+002;1.845165e-001
8.967748e+002;1.840350e-001
8.987034e+002;1.819730e-001
9.006319e+002;1.793337e-001
9.025605e+002;1.761408e-001
9.044890e+002;1.728065e-001
9.064175e+002;1.690734e-001
9.083461e+002;1.650157e-001
9.102747e+002;1.616581e-001
9.122032e+002;1.592536e-001
9.141318e+002;1.571555e-001
9.160603e+002;1.553877e-001
9.179888e+002;1.544585e-001
9.199174e+002;1.546376e-001
9.218459e+002;1.556606e-001
9.237745e+002;1.569075e-001
9.257031e+002;1.580233e-001
9.276316e+002;1.592515e-001
9.295601e+002;1.605053e-001
9.314887e+002;1.621192e-001
9.334172e+002;1.637828e-001
9.353458e+002;1.653989e-001
9.372744e+002;1.673615e-001
9.392029e+002;1.696141e-001
9.411314e+002;1.721688e-001
9.430600e+002;1.754926e-001
9.449885e+002;1.793281e-001
9.469171e+002;1.833156e-001
9.488456e+002;1.878139e-001
9.507742e+002;1.928115e-001
9.527027e+002;1.980838e-001
9.546313e+002;2.035912e-001
9.565598e+002;2.090580e-001
9.584883e+002;2.148028e-001
9.604169e+002;2.213936e-001
9.623455e+002;2.279954e-001
9.642740e+002;2.346656e-001
9.662026e+002;2.414748e-001
9.681311e+002;2.486599e-001
9.700596e+002;2.570661e-001
9.719882e+002;2.668819e-001
9.739167e+002;2.778138e-001
9.758453e+002;2.896337e-001
9.777739e+002;3.035718e-001
9.797024e+002;3.199839e-001
9.816309e+002;3.379695e-001
9.835595e+002;3.568849e-001
9.854880e+002;3.771909e-001
9.874166e+002;3.969986e-001
9.893452e+002;4.138800e-001
9.912737e+002;4.276648e-001
9.932022e+002;4.382685e-001
9.951307e+002;4.451207e-001
9.970593e+002;4.494998e-001
9.989879e+002;4.531934e-001
1.000916e+003;4.564365e-001
1.002845e+003;4.611202e-001
1.004773e+003;4.671810e-001
1.006702e+003;4.740704e-001
1.008631e+003;4.835337e-001
1.010559e+003;4.953691e-001
1.012488e+003;5.074527e-001
1.014416e+003;5.185267e-001
1.016345e+003;5.280069e-001
1.018273e+003;5.348268e-001
1.020202e+003;5.379409e-001
1.022130e+003;5.374795e-001
1.024059e+003;5.343770e-001
1.025988e+003;5.294698e-001
1.027916e+003;5.233805e-001
1.029845e+003;5.164785e-001
1.031773e+003;5.085807e-001
1.033702e+003;5.012505e-001
1.035630e+003;4.945045e-001
1.037559e+003;4.886861e-001
1.039487e+003;4.838507e-001
1.041416e+003;4.797681e-001
1.043344e+003;4.754424e-001
1.045273e+003;4.704138e-001
1.047202e+003;4.655149e-001
1.049130e+003;4.613300e-001
1.051059e+003;4.565538e-001
1.052987e+003;4.513911e-001
1.054916e+003;4.462532e-001
1.056844e+003;4.412450e-001
1.058773e+003;4.361458e-001
1.060701e+003;4.295387e-001
1.062630e+003;4.224465e-001
1.064558e+003;4.150418e-001
1.066487e+003;4.076115e-001
1.068416e+003;3.999328e-001
1.070344e+003;3.911473e-001
1.072273e+003;3.827256e-001
1.074201e+003;3.736511e-001
1.076130e+003;3.643127e-001
1.078058e+003;3.559079e-001
1.079987e+003;3.488109e-001
1.081915e+003;3.421105e-001
1.083844e+003;3.362200e-001
1.085773e+003;3.299177e-001
1.087701e+003;3.228684e-001
1.089630e+003;3.161507e-001
1.091558e+003;3.108488e-001
1.093487e+003;3.053410e-001
1.095415e+003;2.990150e-001
1.097344e+003;2.924461e-001
1.099272e+003;2.855456e-001
1.101201e+003;2.784284e-001
1.103129e+003;2.721653e-001
1.105058e+003;2.664672e-001
1.106987e+003;2.617867e-001
1.108915e+003;2.579328e-001
1.110844e+003;2.538011e-001
1.112772e+003;2.494003e-001
1.114701e+003;2.441217e-001
1.116629e+003;2.380665e-001
1.118558e+003;2.322620e-001
1.120486e+003;2.261268e-001
1.122415e+003;2.198137e-001
1.124344e+003;2.132687e-001
1.126272e+003;2.064525e-001
1.128201e+003;2.001911e-001
1.130129e+003;1.938480e-001
1.132058e+003;1.878554e-001
1.133986e+003;1.831210e-001
1.135915e+003;1.785154e-001
1.137843e+003;1.744891e-001
1.139772e+003;1.715581e-001
1.141700e+003;1.698961e-001
1.143629e+003;1.694128e-001
1.145557e+003;1.691691e-001
1.147486e+003;1.698678e-001
1.149415e+003;1.718363e-001
1.151343e+003;1.743960e-001
1.153272e+003;1.766159e-001
1.155200e+003;1.775046e-001
1.157129e+003;1.771737e-001
1.159057e+003;1.753503e-001
1.160986e+003;1.713294e-001
1.162914e+003;1.661138e-001
1.164843e+003;1.597239e-001
1.166771e+003;1.524354e-001
1.168700e+003;1.451039e-001
1.170629e+003;1.375219e-001
1.172557e+003;1.305848e-001
1.174486e+003;1.248542e-001
1.176414e+003;1.198009e-001
1.178343e+003;1.154118e-001
1.180271e+003;1.117778e-001
1.182200e+003;1.091670e-001
1.184128e+003;1.075616e-001
1.186057e+003;1.069601e-001
1.187986e+003;1.078338e-001
1.189914e+003;1.099042e-001
1.191843e+003;1.126289e-001
1.193771e+003;1.154784e-001
1.195700e+003;1.178582e-001
1.197628e+003;1.192839e-001
1.199557e+003;1.198055e-001
1.201485e+003;1.193965e-001
1.203414e+003;1.176090e-001
1.205343e+003;1.149291e-001
1.207271e+003;1.126997e-001
1.209200e+003;1.111146e-001
1.211128e+003;1.094676e-001
1.213057e+003;1.090809e-001
1.214985e+003;1.100446e-001
1.216914e+003;1.111158e-001
1.218842e+003;1.127439e-001
1.220771e+003;1.151194e-001
1.222699e+003;1.175524e-001
1.224628e+003;1.195733e-001
1.226557e+003;1.211713e-001
1.228485e+003;1.221554e-001
1.230414e+003;1.227391e-001
1.232342e+003;1.234080e-001
1.234271e+003;1.240017e-001
1.236199e+003;1.242234e-001
1.238128e+003;1.242234e-001
1.240056e+003;1.241895e-001
1.241985e+003;1.241996e-001
1.243913e+003;1.242456e-001
1.245842e+003;1.241762e-001
1.247771e+003;1.245206e-001
1.249699e+003;1.255403e-001
1.251628e+003;1.267666e-001
1.253556e+003;1.282871e-001
1.255485e+003;1.299728e-001
1.257413e+003;1.316450e-001
1.259342e+003;1.326850e-001
1.261270e+003;1.326746e-001
1.263199e+003;1.316704e-001
1.265127e+003;1.299350e-001
1.267056e+003;1.281581e-001
1.268985e+003;1.264736e-001
1.270913e+003;1.247589e-001
1.272842e+003;1.232572e-001
1.274770e+003;1.221280e-001
1.276699e+003;1.211522e-001
1.278627e+003;1.201623e-001
1.280556e+003;1.194537e-001
1.282484e+003;1.192256e-001
1.284413e+003;1.193262e-001
1.286342e+003;1.198329e-001
1.288270e+003;1.208437e-001
1.290199e+003;1.221709e-001
1.292127e+003;1.239426e-001
1.294056e+003;1.256791e-001
1.295984e+003;1.270250e-001
1.297913e+003;1.284178e-001
1.299841e+003;1.300695e-001
1.301770e+003;1.319232e-001
1.303698e+003;1.335466e-001
1.305627e+003;1.350107e-001
1.307556e+003;1.366683e-001
1.309484e+003;1.381892e-001
1.311413e+003;1.393904e-001
1.313341e+003;1.402577e-001
1.315270e+003;1.406267e-001
1.317198e+003;1.407038e-001
1.319127e+003;1.404740e-001
1.321055e+003;1.399801e-001
1.322984e+003;1.396354e-001
1.324912e+003;1.393505e-001
1.326841e+003;1.393362e-001
1.328770e+003;1.396044e-001
1.330698e+003;1.397210e-001
1.332627e+003;1.396503e-001
1.334555e+003;1.394991e-001
1.336484e+003;1.392553e-001
1.338412e+003;1.388605e-001
1.340341e+003;1.383356e-001
1.342269e+003;1.379766e-001
1.344198e+003;1.376192e-001
1.346126e+003;1.376031e-001
1.348055e+003;1.376600e-001
1.349984e+003;1.377914e-001
1.351912e+003;1.380882e-001
1.353841e+003;1.386675e-001
1.355769e+003;1.394586e-001
1.357698e+003;1.401859e-001
1.359626e+003;1.410536e-001
1.361555e+003;1.417327e-001
1.363483e+003;1.418761e-001
1.365412e+003;1.416959e-001
1.367341e+003;1.414092e-001
1.369269e+003;1.405865e-001
1.371198e+003;1.394474e-001
1.373126e+003;1.382458e-001
1.375055e+003;1.367550e-001
1.376983e+003;1.350232e-001
1.378912e+003;1.328340e-001
1.380840e+003;1.303988e-001
1.382769e+003;1.283721e-001
1.384698e+003;1.264411e-001
1.386626e+003;1.247462e-001
1.388555e+003;1.236186e-001
1.390483e+003;1.229320e-001
1.392412e+003;1.224541e-001
1.394340e+003;1.218718e-001
1.396269e+003;1.216291e-001
1.398197e+003;1.215735e-001
1.400126e+003;1.212777e-001
1.402054e+003;1.210307e-001
1.403983e+003;1.209821e-001
1.405911e+003;1.210079e-001
1.407840e+003;1.211737e-001
1.409769e+003;1.212845e-001
1.411697e+003;1.211781e-001
1.413626e+003;1.211151e-001
1.415554e+003;1.211805e-001
1.417483e+003;1.208370e-001
1.419411e+003;1.202132e-001
1.421340e+003;1.200108e-001
1.423268e+003;1.198480e-001
1.425197e+003;1.193692e-001
1.427125e+003;1.188897e-001
1.429054e+003;1.183015e-001
1.430983e+003;1.175603e-001
1.432911e+003;1.169198e-001
1.434840e+003;1.164598e-001
1.436768e+003;1.157057e-001
1.438697e+003;1.150116e-001
1.440625e+003;1.142414e-001
1.442554e+003;1.130759e-001
1.444482e+003;1.117804e-001
1.446411e+003;1.102633e-001
1.448340e+003;1.088834e-001
1.450268e+003;1.079636e-001
1.452197e+003;1.070574e-001
1.454125e+003;1.056561e-001
1.456054e+003;1.041402e-001
1.457982e+003;1.030151e-001
1.459911e+003;1.022151e-001
1.461839e+003;1.011684e-001
1.463768e+003;9.957053e-002
1.465697e+003;9.744824e-002
1.467625e+003;9.548366e-002
1.469554e+003;9.361120e-002
1.471482e+003;9.146766e-002
1.473411e+003;8.923343e-002
1.475339e+003;8.697096e-002
1.477268e+003;8.470395e-002
1.479196e+003;8.257645e-002
1.481125e+003;8.053385e-002
1.483053e+003;7.844934e-002
1.484982e+003;7.646588e-002
1.486911e+003;7.484768e-002
1.488839e+003;7.342088e-002
1.490768e+003;7.201377e-002
1.492696e+003;7.083964e-002
1.494625e+003;7.011577e-002
1.496553e+003;6.921402e-002
1.498482e+003;6.809442e-002
1.500410e+003;6.703714e-002
1.502339e+003;6.624380e-002
1.504267e+003;6.548259e-002
1.506196e+003;6.449759e-002
1.508125e+003;6.368928e-002
1.510053e+003;6.300377e-002
1.511982e+003;6.226049e-002
1.513910e+003;6.161958e-002
1.515839e+003;6.104115e-002
1.517767e+003;6.047107e-002
1.519696e+003;5.987139e-002
1.521624e+003;5.934779e-002
1.523553e+003;5.900005e-002
1.525481e+003;5.869545e-002
1.527410e+003;5.854827e-002
1.529339e+003;5.845289e-002
1.531267e+003;5.836908e-002
1.533196e+003;5.819508e-002
1.535124e+003;5.825301e-002
1.537053e+003;5.836362e-002
1.538981e+003;5.813515e-002
1.540910e+003;5.828044e-002
1.542838e+003;5.865726e-002
1.544767e+003;5.879867e-002
1.546695e+003;5.883520e-002
1.548624e+003;5.874529e-002
1.550553e+003;5.860299e-002
1.552481e+003;5.887159e-002
1.554410e+003;5.942905e-002
1.556338e+003;5.980967e-002
1.558267e+003;5.991787e-002
1.560195e+003;5.992768e-002
1.562124e+003;6.007233e-002
1.564052e+003;6.047195e-002
1.565981e+003;6.079606e-002
1.567910e+003;6.117079e-002
1.569838e+003;6.177093e-002
1.571767e+003;6.241570e-002
1.573695e+003;6.270761e-002
1.575624e+003;6.275416e-002
1.577552e+003;6.297068e-002
1.579481e+003;6.350155e-002
1.581409e+003;6.411011e-002
1.583338e+003;6.470522e-002
1.585266e+003;6.521911e-002
1.587195e+003;6.571666e-002
1.589124e+003;6.620441e-002
1.591052e+003;6.679443e-002
1.592981e+003;6.743258e-002
1.594909e+003;6.799009e-002
1.596838e+003;6.863832e-002
1.598766e+003;6.924771e-002
1.600695e+003;6.965058e-002
1.602623e+003;6.989095e-002
1.604552e+003;7.015023e-002
1.606480e+003;7.063787e-002
1.608409e+003;7.128709e-002
1.610338e+003;7.204295e-002
1.612266e+003;7.263446e-002
1.614195e+003;7.313686e-002
1.616123e+003;7.357291e-002
1.618052e+003;7.390986e-002
1.619980e+003;7.460341e-002
1.621909e+003;7.538627e-002
1.623837e+003;7.603998e-002
1.625766e+003;7.648773e-002
1.627694e+003;7.695086e-002
1.629623e+003;7.743555e-002
1.631552e+003;7.777871e-002
1.633480e+003;7.806162e-002
1.635409e+003;7.816629e-002
1.637337e+003;7.849328e-002
1.639266e+003;7.884090e-002
1.641194e+003;7.876311e-002
1.643123e+003;7.849582e-002
1.645051e+003;7.822171e-002
1.646980e+003;7.784007e-002
1.648909e+003;7.742073e-002
1.650837e+003;7.688943e-002
1.652766e+003;7.612143e-002
1.654694e+003;7.545316e-002
1.656623e+003;7.468084e-002
1.658551e+003;7.379638e-002
1.660480e+003;7.284429e-002
1.662408e+003;7.194041e-002
1.664337e+003;7.116072e-002
1.666266e+003;7.019245e-002
1.668194e+003;6.925233e-002
1.670123e+003;6.837548e-002
1.672051e+003;6.732102e-002
1.673980e+003;6.605320e-002
1.675908e+003;6.464622e-002
1.677837e+003;6.359287e-002
1.679765e+003;6.281447e-002
1.681694e+003;6.178487e-002
1.683622e+003;6.048132e-002
1.685551e+003;5.920768e-002
1.687479e+003;5.814329e-002
1.689408e+003;5.722913e-002
1.691337e+003;5.634021e-002
1.693265e+003;5.542761e-002
1.695194e+003;5.443039e-002
1.697122e+003;5.335927e-002
1.699051e+003;5.246330e-002
1.700979e+003;5.166692e-002
1.702908e+003;5.110106e-002
1.704836e+003;5.054235e-002
1.706765e+003;4.992072e-002
1.708693e+003;4.925659e-002
1.710622e+003;4.870006e-002
1.712551e+003;4.832452e-002
1.714479e+003;4.797387e-002
1.716408e+003;4.729073e-002
1.718336e+003;4.670339e-002
1.720265e+003;4.653835e-002
1.722193e+003;4.641850e-002
1.724122e+003;4.636799e-002
1.726050e+003;4.626662e-002
1.727979e+003;4.594242e-002
1.729908e+003;4.568037e-002
1.731836e+003;4.559163e-002
1.733765e+003;4.529684e-002
1.735693e+003;4.496293e-002
1.737622e+003;4.461443e-002
1.739550e+003;4.423691e-002
1.741479e+003;4.393471e-002
1.743407e+003;4.341110e-002
1.745336e+003;4.279491e-002
1.747265e+003;4.207918e-002
1.749193e+003;4.141832e-002
1.751122e+003;4.097904e-002
1.753050e+003;4.070424e-002
1.754979e+003;4.063165e-002
1.756907e+003;4.028105e-002
1.758836e+003;3.987698e-002
1.760764e+003;3.983754e-002
1.762693e+003;3.979022e-002
1.764621e+003;3.948885e-002
1.766550e+003;3.931398e-002
1.768479e+003;3.927230e-002
1.770407e+003;3.921638e-002
1.772336e+003;3.892864e-002
1.774264e+003;3.882043e-002
1.776193e+003;3.879623e-002
1.778121e+003;3.871432e-002
1.780050e+003;3.866401e-002
1.781978e+003;3.853951e-002
1.783907e+003;3.834667e-002
1.785835e+003;3.819653e-002
1.787764e+003;3.805610e-002
1.789693e+003;3.781326e-002
1.791621e+003;3.748924e-002
1.793550e+003;3.733813e-002
1.795478e+003;3.739577e-002
1.797407e+003;3.741365e-002
1.799335e+003;3.722849e-002
1.801264e+003;3.700274e-002
1.803192e+003;3.683644e-002
1.805121e+003;3.674762e-002
1.807049e+003;3.688531e-002
1.808978e+003;3.703154e-002
1.810907e+003;3.694383e-002
1.812835e+003;3.682360e-002
1.814764e+003;3.672450e-002
1.816692e+003;3.652811e-002
1.818621e+003;3.640382e-002
1.820549e+003;3.634779e-002
1.822478e+003;3.637391e-002
1.824406e+003;3.630525e-002
1.826335e+003;3.620951e-002
1.828264e+003;3.611793e-002
1.830192e+003;3.590205e-002
1.832121e+003;3.586815e-002
1.834049e+003;3.578992e-002
1.835978e+003;3.565329e-002
1.837906e+003;3.549707e-002
1.839835e+003;3.520057e-002
1.841763e+003;3.501786e-002
1.843692e+003;3.498632e-002
1.845620e+003;3.486158e-002
1.847549e+003;3.475367e-002
1.849478e+003;3.483655e-002
1.851406e+003;3.483336e-002
1.853335e+003;3.465468e-002
1.855263e+003;3.444038e-002
1.857192e+003;3.439878e-002
1.859120e+003;3.458335e-002
1.861049e+003;3.459375e-002
1.862977e+003;3.446205e-002
1.864906e+003;3.428334e-002
1.866834e+003;3.413446e-002
1.868763e+003;3.399602e-002
1.870692e+003;3.386557e-002
1.872620e+003;3.378735e-002
1.874549e+003;3.380175e-002
1.876477e+003;3.383233e-002
1.878406e+003;3.380855e-002
1.880334e+003;3.362084e-002
1.882263e+003;3.359256e-002
1.884191e+003;3.365224e-002
1.886120e+003;3.343400e-002
1.888048e+003;3.332365e-002
1.889977e+003;3.357899e-002
1.891906e+003;3.372794e-002
1.893834e+003;3.358372e-002
1.895763e+003;3.363781e-002
1.897691e+003;3.371730e-002
1.899620e+003;3.376497e-002
1.901548e+003;3.376518e-002
1.903477e+003;3.387786e-002
1.905405e+003;3.402558e-002
1.907334e+003;3.409658e-002
1.909262e+003;3.424584e-002
1.911191e+003;3.457344e-002
1.913120e+003;3.475115e-002
1.915048e+003;3.469459e-002
1.916977e+003;3.472768e-002
1.918905e+003;3.484564e-002
1.920834e+003;3.503201e-002
1.922762e+003;3.530054e-002
1.924691e+003;3.546374e-002
1.926619e+003;3.553414e-002
1.928548e+003;3.565929e-002
1.930477e+003;3.565433e-002
1.932405e+003;3.567523e-002
1.934334e+003;3.585181e-002
1.936262e+003;3.595895e-002
1.938191e+003;3.604974e-002
1.940119e+003;3.619759e-002
1.942048e+003;3.624970e-002
1.943976e+003;3.633425e-002
1.945905e+003;3.660211e-002
1.947833e+003;3.684535e-002
1.949762e+003;3.705979e-002
1.951691e+003;3.722542e-002
1.953619e+003;3.742401e-002
1.955548e+003;3.763805e-002
1.957476e+003;3.761236e-002
1.959405e+003;3.758111e-002
1.961333e+003;3.770259e-002
1.963262e+003;3.797628e-002
1.965190e+003;3.818090e-002
1.967119e+003;3.825822e-002
1.969047e+003;3.851956e-002
1.970976e+003;3.869335e-002
1.972905e+003;3.875732e-002
1.974833e+003;3.875537e-002
1.976762e+003;3.879410e-002
1.978690e+003;3.896742e-002
1.980619e+003;3.913682e-002
1.982547e+003;3.924133e-002
1.984476e+003;3.926904e-002
1.986404e+003;3.914959e-002
1.988333e+003;3.900776e-002
1.990261e+003;3.905079e-002
1.992190e+003;3.944063e-002
1.994119e+003;3.974534e-002
1.996047e+003;3.975097e-002
1.997976e+003;3.972258e-002
1.999904e+003;3.993190e-002
2.001833e+003;4.002109e-002
2.003761e+003;3.999221e-002
2.005690e+003;4.017262e-002
2.007618e+003;4.031283e-002
2.009547e+003;4.043293e-002
2.011476e+003;4.057759e-002
2.013404e+003;4.074809e-002
2.015333e+003;4.081354e-002
2.017261e+003;4.086512e-002
2.019190e+003;4.122525e-002
2.021118e+003;4.146644e-002
2.023047e+003;4.151073e-002
2.024975e+003;4.149560e-002
2.026904e+003;4.163766e-002
2.028833e+003;4.180486e-002
2.030761e+003;4.199902e-002
2.032690e+003;4.239320e-002
2.034618e+003;4.261215e-002
2.036547e+003;4.263142e-002
2.038475e+003;4.247917e-002
2.040404e+003;4.249291e-002
2.042332e+003;4.281674e-002
2.044261e+003;4.299163e-002
2.046189e+003;4.307055e-002
2.048118e+003;4.304421e-002
2.050047e+003;4.289039e-002
2.051975e+003;4.285714e-002
2.053904e+003;4.289244e-002
2.055832e+003;4.295271e-002
2.057761e+003;4.303455e-002
2.059689e+003;4.295714e-002
2.061618e+003;4.289510e-002
2.063546e+003;4.296391e-002
2.065475e+003;4.297440e-002
2.067404e+003;4.302460e-002
2.069332e+003;4.296091e-002
2.071260e+003;4.278949e-002
2.073189e+003;4.291877e-002
2.075118e+003;4.314896e-002
2.077046e+003;4.314915e-002
2.078975e+003;4.308065e-002
2.080903e+003;4.307695e-002
2.082832e+003;4.303144e-002
2.084760e+003;4.304413e-002
2.086689e+003;4.300067e-002
2.088617e+003;4.308372e-002
2.090546e+003;4.330266e-002
2.092475e+003;4.336372e-002
2.094403e+003;4.339924e-002
2.096332e+003;4.367790e-002
2.098260e+003;4.381650e-002
2.100189e+003;4.375669e-002
2.102117e+003;4.383255e-002
2.104046e+003;4.392588e-002
2.105974e+003;4.395330e-002
2.107903e+003;4.402781e-002
2.109832e+003;4.405245e-002
2.111760e+003;4.402462e-002
2.113688e+003;4.414950e-002
2.115617e+003;4.423390e-002
2.117546e+003;4.398740e-002
2.119474e+003;4.386869e-002
2.121403e+003;4.408040e-002
2.123331e+003;4.430438e-002
2.125260e+003;4.455319e-002
2.127188e+003;4.460085e-002
2.129117e+003;4.453062e-002
2.131045e+003;4.439345e-002
2.132974e+003;4.430845e-002
2.134903e+003;4.428097e-002
2.136831e+003;4.418291e-002
2.138760e+003;4.420155e-002
2.140688e+003;4.441462e-002
2.142617e+003;4.424483e-002
2.144545e+003;4.401336e-002
2.146474e+003;4.417994e-002
2.148402e+003;4.407244e-002
2.150331e+003;4.378238e-002
2.152260e+003;4.354280e-002
2.154188e+003;4.356866e-002
2.156117e+003;4.353562e-002
2.158045e+003;4.340213e-002
2.159974e+003;4.338741e-002
2.161902e+003;4.350727e-002
2.163831e+003;4.349357e-002
2.165759e+003;4.335109e-002
2.167688e+003;4.315383e-002
2.169616e+003;4.291087e-002
2.171545e+003;4.280664e-002
2.173474e+003;4.274573e-002
2.175402e+003;4.258617e-002
2.177331e+003;4.239455e-002
2.179259e+003;4.226591e-002
2.181188e+003;4.191567e-002
2.183116e+003;4.164083e-002
2.185045e+003;4.164346e-002
2.186973e+003;4.165411e-002
2.188902e+003;4.161559e-002
2.190831e+003;4.148288e-002
2.192759e+003;4.144340e-002
2.194688e+003;4.137808e-002
2.196616e+003;4.123677e-002
2.198545e+003;4.111007e-002
2.200473e+003;4.118292e-002
2.202402e+003;4.098526e-002
2.204330e+003;4.066025e-002
2.206259e+003;4.063442e-002
2.208188e+003;4.072116e-002
2.210116e+003;4.097142e-002
2.212044e+003;4.104764e-002
2.213973e+003;4.064442e-002
2.215902e+003;4.019672e-002
2.217830e+003;4.016626e-002
2.219759e+003;4.033602e-002
2.221687e+003;4.016899e-002
2.223616e+003;4.001782e-002
2.225544e+003;4.003446e-002
2.227473e+003;4.006324e-002
2.229401e+003;4.005713e-002
2.231330e+003;3.999373e-002
2.233259e+003;3.984753e-002
2.235187e+003;3.978416e-002
2.237116e+003;3.984223e-002
2.239044e+003;3.969662e-002
2.240973e+003;3.941055e-002
2.242901e+003;3.937413e-002
2.244830e+003;3.957574e-002
2.246758e+003;3.956557e-002
2.248687e+003;3.934877e-002
2.250615e+003;3.918871e-002
2.252544e+003;3.901211e-002
2.254473e+003;3.874595e-002
2.256401e+003;3.840005e-002
2.258330e+003;3.838355e-002
2.260258e+003;3.857782e-002
2.262187e+003;3.844143e-002
2.264115e+003;3.812316e-002
2.266044e+003;3.802702e-002
2.267972e+003;3.795473e-002
2.269901e+003;3.776154e-002
2.271830e+003;3.779862e-002
2.273758e+003;3.801176e-002
2.275687e+003;3.793004e-002
2.277615e+003;3.771636e-002
2.279544e+003;3.759288e-002
2.281472e+003;3.747909e-002
2.283401e+003;3.735807e-002
2.285329e+003;3.750004e-002
2.287258e+003;3.759599e-002
2.289187e+003;3.737566e-002
2.291115e+003;3.739938e-002
2.293043e+003;3.752204e-002
2.294972e+003;3.723246e-002
2.296901e+003;3.716095e-002
2.298829e+003;3.737587e-002
2.300758e+003;3.744167e-002
2.302686e+003;3.735894e-002
2.304615e+003;3.742040e-002
2.306543e+003;3.760228e-002
2.308472e+003;3.764159e-002
2.310400e+003;3.757623e-002
2.312329e+003;3.754115e-002
2.314258e+003;3.749198e-002
2.316186e+003;3.735540e-002
2.318115e+003;3.753602e-002
2.320043e+003;3.767043e-002
2.321972e+003;3.763158e-002
2.323900e+003;3.758353e-002
2.325829e+003;3.768549e-002
2.327757e+003;3.797824e-002
2.329686e+003;3.815728e-002
2.331615e+003;3.806351e-002
2.333543e+003;3.805964e-002
2.335472e+003;3.817424e-002
2.337400e+003;3.827357e-002
2.339329e+003;3.829528e-002
2.341257e+003;3.829879e-002
2.343186e+003;3.840060e-002
2.345114e+003;3.865637e-002
2.347043e+003;3.882685e-002
2.348971e+003;3.884391e-002
2.350900e+003;3.905293e-002
2.352829e+003;3.936404e-002
2.354757e+003;3.956692e-002
2.356686e+003;3.976117e-002
2.358614e+003;3.998948e-002
2.360543e+003;4.002865e-002
2.362471e+003;3.994048e-002
2.364400e+003;3.986467e-002
2.366328e+003;4.003708e-002
2.368257e+003;4.021853e-002
2.370186e+003;4.027386e-002
2.372114e+003;4.025244e-002
2.374042e+003;4.021515e-002
2.375971e+003;4.041333e-002
2.377900e+003;4.059705e-002
2.379828e+003;4.079650e-002
2.381757e+003;4.094870e-002
2.383685e+003;4.095056e-002
2.385614e+003;4.107867e-002
2.387542e+003;4.140487e-002
2.389471e+003;4.141048e-002
2.391399e+003;4.113389e-002
2.393328e+003;4.129248e-002
2.395257e+003;4.157147e-002
2.397185e+003;4.162034e-002
2.399114e+003;4.178326e-002
2.401042e+003;4.198527e-002
2.402971e+003;4.209794e-002
2.404899e+003;4.234816e-002
2.406828e+003;4.261417e-002
2.408756e+003;4.263544e-002
2.410685e+003;4.279545e-002
2.412614e+003;4.300400e-002
2.414542e+003;4.335874e-002
2.416471e+003;4.371737e-002
2.418399e+003;4.386679e-002
2.420328e+003;4.413658e-002
2.422256e+003;4.441209e-002
2.424185e+003;4.445518e-002
2.426113e+003;4.459710e-002
2.428042e+003;4.487202e-002
2.429970e+003;4.508403e-002
2.431899e+003;4.522977e-002
2.433828e+003;4.535966e-002
2.435756e+003;4.554055e-002
2.437685e+003;4.581522e-002
2.439613e+003;4.585293e-002
2.441542e+003;4.593708e-002
2.443470e+003;4.625154e-002
2.445399e+003;4.659526e-002
2.447327e+003;4.696558e-002
2.449256e+003;4.718788e-002
2.451185e+003;4.721950e-002
2.453113e+003;4.723491e-002
2.455042e+003;4.745288e-002
2.456970e+003;4.768113e-002
2.458899e+003;4.780399e-002
2.460827e+003;4.792958e-002
2.462756e+003;4.823172e-002
2.464684e+003;4.845879e-002
2.466613e+003;4.875840e-002
2.468542e+003;4.927492e-002
2.470470e+003;4.951895e-002
2.472398e+003;4.966789e-002
2.474327e+003;4.980320e-002
2.476256e+003;4.998778e-002
2.478184e+003;5.034407e-002
2.480113e+003;5.053476e-002
2.482041e+003;5.059786e-002
2.483970e+003;5.055333e-002
2.485898e+003;5.056930e-002
2.487827e+003;5.067768e-002
2.489755e+003;5.082814e-002
2.491684e+003;5.096244e-002
2.493613e+003;5.109193e-002
2.495541e+003;5.131524e-002
2.497470e+003;5.155620e-002
2.499398e+003;5.168875e-002
2.501327e+003;5.168710e-002
2.503255e+003;5.187988e-002
2.505184e+003;5.193533e-002
2.507112e+003;5.191229e-002
2.509041e+003;5.216311e-002
2.510969e+003;5.249019e-002
2.512898e+003;5.252459e-002
2.514827e+003;5.239523e-002
2.516755e+003;5.260787e-002
2.518684e+003;5.301963e-002
2.520612e+003;5.306336e-002
2.522541e+003;5.293847e-002
2.524469e+003;5.306901e-002
2.526398e+003;5.340569e-002
2.528326e+003;5.363484e-002
2.530255e+003;5.377058e-002
2.532184e+003;5.379394e-002
2.534112e+003;5.366832e-002
2.536041e+003;5.384750e-002
2.537969e+003;5.410706e-002
2.539898e+003;5.412770e-002
2.541826e+003;5.396405e-002
2.543755e+003;5.389244e-002
2.545683e+003;5.403148e-002
2.547612e+003;5.425292e-002
2.549541e+003;5.453992e-002
2.551469e+003;5.478049e-002
2.553397e+003;5.509376e-002
2.555326e+003;5.513111e-002
2.557255e+003;5.510651e-002
2.559183e+003;5.524696e-002
2.561112e+003;5.527830e-002
2.563040e+003;5.533091e-002
2.564969e+003;5.533144e-002
2.566897e+003;5.546492e-002
2.568826e+003;5.567862e-002
2.570754e+003;5.596973e-002
2.572683e+003;5.603656e-002
2.574612e+003;5.581051e-002
2.576540e+003;5.596212e-002
2.578469e+003;5.641023e-002
2.580397e+003;5.668257e-002
2.582326e+003;5.689801e-002
2.584254e+003;5.714870e-002
2.586183e+003;5.719069e-002
2.588111e+003;5.721507e-002
2.590040e+003;5.750014e-002
2.591969e+003;5.783365e-002
2.593897e+003;5.777926e-002
2.595826e+003;5.770523e-002
2.597754e+003;5.774149e-002
2.599683e+003;5.796226e-002
2.601611e+003;5.824554e-002
2.603540e+003;5.841240e-002
2.605468e+003;5.868324e-002
2.607397e+003;5.897553e-002
2.609325e+003;5.901159e-002
2.611254e+003;5.907475e-002
2.613183e+003;5.924299e-002
2.615111e+003;5.951944e-002
2.617040e+003;5.994876e-002
2.618968e+003;6.030434e-002
2.620897e+003;6.031503e-002
2.622825e+003;6.051872e-002
2.624754e+003;6.095871e-002
2.626682e+003;6.084602e-002
2.628611e+003;6.094766e-002
2.630540e+003;6.169530e-002
2.632468e+003;6.223150e-002
2.634396e+003;6.235560e-002
2.636325e+003;6.237856e-002
2.638254e+003;6.248169e-002
2.640182e+003;6.273180e-002
2.642111e+003;6.300765e-002
2.644039e+003;6.302956e-002
2.645968e+003;6.294915e-002
2.647896e+003;6.333629e-002
2.649825e+003;6.383038e-002
2.651753e+003;6.435474e-002
2.653682e+003;6.477975e-002
2.655611e+003;6.492948e-002
2.657539e+003;6.499916e-002
2.659468e+003;6.508861e-002
2.661396e+003;6.531365e-002
2.663325e+003;6.542674e-002
2.665253e+003;6.543933e-002
2.667182e+003;6.572761e-002
2.669110e+003;6.618661e-002
2.671039e+003;6.630888e-002
2.672968e+003;6.642771e-002
2.674896e+003;6.678712e-002
2.676825e+003;6.704026e-002
2.678753e+003;6.737651e-002
2.680682e+003;6.761838e-002
2.682610e+003;6.787010e-002
2.684539e+003;6.845844e-002
2.686467e+003;6.863098e-002
2.688396e+003;6.856172e-002
2.690324e+003;6.886636e-002
2.692253e+003;6.924343e-002
2.694182e+003;6.923290e-002
2.696110e+003;6.924250e-002
2.698039e+003;6.953071e-002
2.699967e+003;6.990539e-002
2.701896e+003;7.027373e-002
2.703824e+003;7.043169e-002
2.705753e+003;7.037561e-002
2.707681e+003;7.045164e-002
2.709610e+003;7.054697e-002
2.711539e+003;7.091071e-002
2.713467e+003;7.139518e-002
2.715396e+003;7.130810e-002
2.717324e+003;7.125051e-002
2.719253e+003;7.162566e-002
2.721181e+003;7.194131e-002
2.723110e+003;7.195570e-002
2.725038e+003;7.206325e-002
2.726967e+003;7.243633e-002
2.728896e+003;7.283821e-002
2.730824e+003;7.299388e-002
2.732752e+003;7.306487e-002
2.734681e+003;7.291772e-002
2.736610e+003;7.300799e-002
2.738538e+003;7.335246e-002
2.740467e+003;7.334567e-002
2.742395e+003;7.322545e-002
2.744324e+003;7.355408e-002
2.746252e+003;7.394611e-002
2.748181e+003;7.408520e-002
2.750109e+003;7.431243e-002
2.752038e+003;7.451186e-002
2.753967e+003;7.486925e-002
2.755895e+003;7.504117e-002
2.757824e+003;7.491902e-002
2.759752e+003;7.501514e-002
2.761681e+003;7.518175e-002
2.763609e+003;7.543692e-002
2.765538e+003;7.582202e-002
2.767466e+003;7.620656e-002
2.769395e+003;7.636683e-002
2.771323e+003;7.660649e-002
2.773252e+003;7.699639e-002
2.775181e+003;7.747661e-002
2.777109e+003;7.783305e-002
2.779038e+003;7.779852e-002
2.780966e+003;7.792220e-002
2.782895e+003;7.837991e-002
2.784823e+003;7.891774e-002
2.786752e+003;7.918720e-002
2.788680e+003;7.934416e-002
2.790609e+003;7.980338e-002
2.792538e+003;8.039213e-002
2.794466e+003;8.079646e-002
2.796395e+003;8.086758e-002
2.798323e+003;8.109032e-002
2.800252e+003;8.171549e-002
2.802180e+003;8.220609e-002
2.804109e+003;8.261272e-002
2.806037e+003;8.316961e-002
2.807966e+003;8.350638e-002
2.809895e+003;8.403583e-002
2.811823e+003;8.467142e-002
2.813751e+003;8.486877e-002
2.815680e+003;8.496723e-002
2.817609e+003;8.543829e-002
2.819537e+003;8.598634e-002
2.821466e+003;8.654099e-002
2.823394e+003;8.709680e-002
2.825323e+003;8.783182e-002
2.827251e+003;8.854144e-002
2.829180e+003;8.917613e-002
2.831108e+003;8.973443e-002
2.833037e+003;9.026220e-002
2.834966e+003;9.091808e-002
2.836894e+003;9.172517e-002
2.838823e+003;9.256738e-002
2.840751e+003;9.365185e-002
2.842680e+003;9.518851e-002
2.844608e+003;9.678102e-002
2.846537e+003;9.795279e-002
2.848465e+003;9.892830e-002
2.850394e+003;9.982989e-002
2.852323e+003;1.006363e-001
2.854251e+003;1.020494e-001
2.856180e+003;1.038303e-001
2.858108e+003;1.053634e-001
2.860037e+003;1.067141e-001
2.861965e+003;1.079814e-001
2.863894e+003;1.094012e-001
2.865822e+003;1.109005e-001
2.867751e+003;1.123457e-001
2.869679e+003;1.137551e-001
2.871608e+003;1.146332e-001
2.873536e+003;1.153214e-001
2.875465e+003;1.159428e-001
2.877394e+003;1.165688e-001
2.879322e+003;1.171640e-001
2.881251e+003;1.175434e-001
2.883179e+003;1.178267e-001
2.885108e+003;1.181450e-001
2.887036e+003;1.185648e-001
2.888965e+003;1.187964e-001
2.890893e+003;1.186090e-001
2.892822e+003;1.185008e-001
2.894750e+003;1.186579e-001
2.896679e+003;1.183226e-001
2.898608e+003;1.174183e-001
2.900536e+003;1.169520e-001
2.902465e+003;1.164369e-001
2.904393e+003;1.157144e-001
2.906322e+003;1.149217e-001
2.908250e+003;1.140516e-001
2.910179e+003;1.135638e-001
2.912107e+003;1.134621e-001
2.914036e+003;1.132052e-001
2.915965e+003;1.124981e-001
2.917893e+003;1.114924e-001
2.919822e+003;1.104723e-001
2.921750e+003;1.096487e-001
2.923679e+003;1.087630e-001
2.925607e+003;1.078966e-001
2.927536e+003;1.066083e-001
2.929464e+003;1.054660e-001
2.931393e+003;1.047695e-001
2.933322e+003;1.038598e-001
2.935250e+003;1.027805e-001
2.937178e+003;1.017043e-001
2.939107e+003;1.003563e-001
2.941036e+003;9.876975e-002
2.942964e+003;9.750199e-002
2.944893e+003;9.657967e-002
2.946821e+003;9.526797e-002
2.948750e+003;9.386855e-002
2.950678e+003;9.270461e-002
2.952607e+003;9.186790e-002
2.954535e+003;9.133568e-002
2.956464e+003;9.034782e-002
2.958393e+003;8.907036e-002
2.960321e+003;8.799852e-002
2.962250e+003;8.733208e-002
2.964178e+003;8.662257e-002
2.966107e+003;8.566266e-002
2.968035e+003;8.486635e-002
2.969964e+003;8.417461e-002
2.971892e+003;8.351999e-002
2.973821e+003;8.312387e-002
2.975750e+003;8.252748e-002
2.977678e+003;8.201427e-002
2.979607e+003;8.164999e-002
2.981535e+003;8.138607e-002
2.983464e+003;8.092383e-002
2.985392e+003;8.049940e-002
2.987321e+003;8.037885e-002
2.989249e+003;8.024486e-002
2.991178e+003;7.984308e-002
2.993106e+003;7.954444e-002
2.995035e+003;7.965588e-002
2.996964e+003;7.926506e-002
2.998892e+003;7.871270e-002
3.000821e+003;7.867787e-002
3.002749e+003;7.888877e-002
3.004678e+003;7.923714e-002
3.006606e+003;7.953127e-002
3.008535e+003;7.942209e-002
3.010463e+003;7.949916e-002
3.012392e+003;7.989230e-002
3.014321e+003;8.035257e-002
3.016249e+003;8.069610e-002
3.018177e+003;8.100499e-002
3.020106e+003;8.128582e-002
3.022035e+003;8.152397e-002
3.023963e+003;8.202075e-002
3.025892e+003;8.251766e-002
3.027820e+003;8.272963e-002
3.029749e+003;8.301896e-002
3.031677e+003;8.358007e-002
3.033606e+003;8.378348e-002
3.035534e+003;8.420087e-002
3.037463e+003;8.499552e-002
3.039392e+003;8.561545e-002
3.041320e+003;8.605113e-002
3.043249e+003;8.652902e-002
3.045177e+003;8.686285e-002
3.047106e+003;8.747508e-002
3.049034e+003;8.801081e-002
3.050963e+003;8.850037e-002
3.052891e+003;8.913399e-002
3.054820e+003;8.942411e-002
3.056749e+003;8.998203e-002
3.058677e+003;9.064100e-002
3.060606e+003;9.113889e-002
3.062534e+003;9.139890e-002
3.064463e+003;9.174936e-002
3.066391e+003;9.238248e-002
3.068320e+003;9.286662e-002
3.070248e+003;9.354132e-002
3.072177e+003;9.424837e-002
3.074105e+003;9.457390e-002
3.076034e+003;9.491900e-002
3.077963e+003;9.552201e-002
3.079891e+003;9.614372e-002
3.081820e+003;9.677219e-002
3.083748e+003;9.765148e-002
3.085677e+003;9.847273e-002
3.087605e+003;9.913415e-002
3.089534e+003;9.985098e-002
3.091462e+003;1.004951e-001
3.093391e+003;1.007384e-001
3.095320e+003;1.010905e-001
3.097248e+003;1.018799e-001
3.099177e+003;1.026641e-001
3.101105e+003;1.030381e-001
3.103034e+003;1.035935e-001
3.104962e+003;1.043618e-001
3.106891e+003;1.050174e-001
3.108819e+003;1.058742e-001
3.110748e+003;1.066179e-001
3.112677e+003;1.071131e-001
3.114605e+003;1.078424e-001
3.116533e+003;1.086426e-001
3.118462e+003;1.092127e-001
3.120391e+003;1.098909e-001
3.122319e+003;1.105282e-001
3.124248e+003;1.111949e-001
3.126176e+003;1.118103e-001
3.128105e+003;1.123053e-001
3.130033e+003;1.129063e-001
3.131962e+003;1.134423e-001
3.133890e+003;1.142792e-001
3.135819e+003;1.153250e-001
3.137748e+003;1.161506e-001
3.139676e+003;1.165582e-001
3.141605e+003;1.167749e-001
3.143533e+003;1.176929e-001
3.145462e+003;1.188331e-001
3.147390e+003;1.194709e-001
3.149319e+003;1.202143e-001
3.151247e+003;1.210095e-001
3.153176e+003;1.215394e-001
3.155104e+003;1.221005e-001
3.157033e+003;1.229473e-001
3.158962e+003;1.234677e-001
3.160890e+003;1.238434e-001
3.162819e+003;1.246595e-001
3.164747e+003;1.256654e-001
3.166676e+003;1.262328e-001
3.168604e+003;1.267980e-001
3.170533e+003;1.276995e-001
3.172461e+003;1.284212e-001
3.174390e+003;1.291072e-001
3.176319e+003;1.296949e-001
3.178247e+003;1.299846e-001
3.180176e+003;1.308352e-001
3.182104e+003;1.319846e-001
3.184033e+003;1.328693e-001
3.185961e+003;1.332096e-001
3.187890e+003;1.333727e-001
3.189818e+003;1.337860e-001
3.191747e+003;1.342783e-001
3.193676e+003;1.349443e-001
3.195604e+003;1.357274e-001
3.197532e+003;1.367401e-001
3.199461e+003;1.377997e-001
3.201390e+003;1.384405e-001
3.203318e+003;1.389422e-001
3.205247e+003;1.392472e-001
3.207175e+003;1.399101e-001
3.209104e+003;1.405453e-001
3.211032e+003;1.413494e-001
3.212961e+003;1.424684e-001
3.214889e+003;1.433172e-001
3.216818e+003;1.434990e-001
3.218747e+003;1.436254e-001
3.220675e+003;1.443163e-001
3.222604e+003;1.452374e-001
3.224532e+003;1.454859e-001
3.226461e+003;1.455436e-001
3.228389e+003;1.461347e-001
3.230318e+003;1.475932e-001
3.232246e+003;1.484967e-001
3.234175e+003;1.488005e-001
3.236104e+003;1.490884e-001
3.238032e+003;1.493215e-001
3.239961e+003;1.502286e-001
3.241889e+003;1.509266e-001
3.243818e+003;1.511147e-001
3.245746e+003;1.516135e-001
3.247675e+003;1.524042e-001
3.249603e+003;1.526588e-001
3.251532e+003;1.530968e-001
3.253460e+003;1.539008e-001
3.255389e+003;1.548043e-001
3.257318e+003;1.552001e-001
3.259246e+003;1.555008e-001
3.261175e+003;1.558492e-001
3.263103e+003;1.560301e-001
3.265032e+003;1.564256e-001
3.266960e+003;1.570090e-001
3.268889e+003;1.576384e-001
3.270817e+003;1.575965e-001
3.272746e+003;1.578334e-001
3.274675e+003;1.586594e-001
3.276603e+003;1.589908e-001
3.278531e+003;1.589593e-001
3.280460e+003;1.589283e-001
3.282389e+003;1.592445e-001
3.284317e+003;1.596771e-001
3.286246e+003;1.600762e-001
3.288174e+003;1.603943e-001
3.290103e+003;1.609708e-001
3.292031e+003;1.616424e-001
3.293960e+003;1.617759e-001
3.295888e+003;1.618833e-001
3.297817e+003;1.618254e-001
3.299746e+003;1.618382e-001
3.301674e+003;1.622203e-001
3.303603e+003;1.627513e-001
3.305531e+003;1.630785e-001
3.307460e+003;1.633722e-001
3.309388e+003;1.637961e-001
3.311317e+003;1.640108e-001
3.313245e+003;1.636044e-001
3.315174e+003;1.632387e-001
3.317103e+003;1.635642e-001
3.319031e+003;1.642253e-001
3.320960e+003;1.647794e-001
3.322888e+003;1.648543e-001
3.324817e+003;1.649949e-001
3.326745e+003;1.650921e-001
3.328674e+003;1.648804e-001
3.330602e+003;1.647909e-001
3.332531e+003;1.644643e-001
3.334459e+003;1.643438e-001
3.336388e+003;1.645454e-001
3.338317e+003;1.647891e-001
3.340245e+003;1.648385e-001
3.342174e+003;1.649562e-001
3.344102e+003;1.651688e-001
3.346031e+003;1.655614e-001
3.347959e+003;1.659125e-001
3.349888e+003;1.659334e-001
3.351816e+003;1.651097e-001
3.353745e+003;1.643714e-001
3.355674e+003;1.644726e-001
3.357602e+003;1.647054e-001
3.359531e+003;1.646748e-001
3.361459e+003;1.645380e-001
3.363388e+003;1.640791e-001
3.365316e+003;1.637495e-001
3.367245e+003;1.636029e-001
3.369173e+003;1.631977e-001
3.371102e+003;1.627125e-001
3.373031e+003;1.623704e-001
3.374959e+003;1.619643e-001
3.376887e+003;1.615923e-001
3.378816e+003;1.617205e-001
3.380745e+003;1.618318e-001
3.382673e+003;1.617071e-001
3.384602e+003;1.612471e-001
3.386530e+003;1.605879e-001
3.388459e+003;1.602485e-001
3.390387e+003;1.598227e-001
3.392316e+003;1.596928e-001
3.394244e+003;1.595514e-001
3.396173e+003;1.591058e-001
3.398102e+003;1.585209e-001
3.400030e+003;1.577458e-001
3.401959e+003;1.569277e-001
3.403887e+003;1.560812e-001
3.405816e+003;1.556550e-001
3.407744e+003;1.552422e-001
3.409673e+003;1.547430e-001
3.411601e+003;1.545705e-001
3.413530e+003;1.547589e-001
3.415458e+003;1.547191e-001
3.417387e+003;1.543083e-001
3.419316e+003;1.536104e-001
3.421244e+003;1.525583e-001
3.423173e+003;1.515974e-001
3.425101e+003;1.505388e-001
3.427030e+003;1.497014e-001
3.428958e+003;1.495104e-001
3.430887e+003;1.487549e-001
3.432815e+003;1.476074e-001
3.434744e+003;1.472674e-001
3.436673e+003;1.468160e-001
3.438601e+003;1.463313e-001
3.440530e+003;1.456657e-001
3.442458e+003;1.443446e-001
3.444387e+003;1.435514e-001
3.446315e+003;1.430134e-001
3.448244e+003;1.419019e-001
3.450172e+003;1.407213e-001
3.452101e+003;1.393498e-001
3.454030e+003;1.376946e-001
3.455958e+003;1.365692e-001
3.457886e+003;1.356620e-001
3.459815e+003;1.345530e-001
3.461744e+003;1.334977e-001
3.463672e+003;1.324873e-001
3.465601e+003;1.312862e-001
3.467529e+003;1.302078e-001
3.469458e+003;1.293532e-001
3.471386e+003;1.287456e-001
3.473315e+003;1.279690e-001
3.475243e+003;1.266934e-001
3.477172e+003;1.255973e-001
3.479101e+003;1.246513e-001
3.481029e+003;1.236059e-001
3.482958e+003;1.224099e-001
3.484886e+003;1.209065e-001
3.486815e+003;1.195916e-001
3.488743e+003;1.184579e-001
3.490672e+003;1.170408e-001
3.492600e+003;1.158510e-001
3.494529e+003;1.145716e-001
3.496458e+003;1.131443e-001
3.498386e+003;1.122490e-001
3.500315e+003;1.111791e-001
3.502243e+003;1.096706e-001
3.504172e+003;1.079978e-001
3.506100e+003;1.069518e-001
3.508029e+003;1.058720e-001
3.509957e+003;1.042410e-001
3.511886e+003;1.029760e-001
3.513814e+003;1.022936e-001
3.515743e+003;1.013857e-001
3.517672e+003;9.971223e-002
3.519600e+003;9.843300e-002
3.521529e+003;9.749211e-002
3.523457e+003;9.634561e-002
3.525386e+003;9.535261e-002
3.527314e+003;9.391042e-002
3.529243e+003;9.270953e-002
3.531171e+003;9.228372e-002
3.533100e+003;9.138651e-002
3.535029e+003;8.998419e-002
3.536957e+003;8.837633e-002
3.538885e+003;8.741680e-002
3.540814e+003;8.647216e-002
3.542743e+003;8.527632e-002
3.544671e+003;8.414126e-002
3.546600e+003;8.317206e-002
3.548528e+003;8.244880e-002
3.550457e+003;8.126013e-002
3.552385e+003;8.009694e-002
3.554314e+003;7.919618e-002
3.556242e+003;7.832471e-002
3.558171e+003;7.737971e-002
3.560100e+003;7.633713e-002
3.562028e+003;7.519503e-002
3.563957e+003;7.390443e-002
3.565885e+003;7.251643e-002
3.567814e+003;7.175908e-002
3.569742e+003;7.129881e-002
3.571671e+003;7.061589e-002
3.573599e+003;6.989197e-002
3.575528e+003;6.894445e-002
3.577457e+003;6.797731e-002
3.579385e+003;6.692348e-002
3.581314e+003;6.593763e-002
3.583242e+003;6.523856e-002
3.585171e+003;6.458244e-002
3.587099e+003;6.360112e-002
3.589028e+003;6.293437e-002
3.590956e+003;6.232677e-002
3.592885e+003;6.166108e-002
3.594813e+003;6.146282e-002
3.596742e+003;6.087126e-002
3.598671e+003;5.968352e-002
3.600599e+003;5.854205e-002
3.602528e+003;5.785451e-002
3.604456e+003;5.740139e-002
3.606385e+003;5.725140e-002
3.608313e+003;5.681971e-002
3.610242e+003;5.604568e-002
3.612170e+003;5.531296e-002
3.614099e+003;5.437225e-002
3.616028e+003;5.361363e-002
3.617956e+003;5.298058e-002
3.619885e+003;5.229012e-002
3.621813e+003;5.189082e-002
3.623742e+003;5.169535e-002
3.625670e+003;5.109115e-002
3.627599e+003;4.998139e-002
3.629527e+003;4.915294e-002
3.631456e+003;4.875670e-002
3.633385e+003;4.807258e-002
3.635313e+003;4.724776e-002
3.637241e+003;4.649155e-002
3.639170e+003;4.556263e-002
3.641099e+003;4.485472e-002
3.643027e+003;4.450987e-002
3.644956e+003;4.431190e-002
3.646884e+003;4.329230e-002
3.648813e+003;4.171206e-002
3.650741e+003;4.068554e-002
3.652670e+003;4.011691e-002
3.654598e+003;3.958488e-002
3.656527e+003;3.871537e-002
3.658456e+003;3.751940e-002
3.660384e+003;3.673532e-002
3.662313e+003;3.626317e-002
3.664241e+003;3.577175e-002
3.666170e+003;3.514092e-002
3.668098e+003;3.413941e-002
3.670027e+003;3.305033e-002
3.671955e+003;3.233095e-002
3.673884e+003;3.172592e-002
3.675813e+003;3.107392e-002
3.677741e+003;3.056146e-002
3.679669e+003;2.999158e-002
3.681598e+003;2.937554e-002
3.683527e+003;2.880502e-002
3.685455e+003;2.806244e-002
3.687384e+003;2.751338e-002
3.689312e+003;2.706550e-002
3.691241e+003;2.663608e-002
3.693169e+003;2.631916e-002
3.695098e+003;2.579996e-002
3.697026e+003;2.532325e-002
3.698955e+003;2.521821e-002
3.700884e+003;2.538676e-002
3.702812e+003;2.535613e-002
3.704741e+003;2.483170e-002
3.706669e+003;2.424209e-002
3.708598e+003;2.380342e-002
3.710526e+003;2.331983e-002
3.712455e+003;2.300176e-002
3.714383e+003;2.306797e-002
3.716312e+003;2.306818e-002
3.718240e+003;2.259941e-002
3.720169e+003;2.205526e-002
3.722098e+003;2.163658e-002
3.724026e+003;2.148671e-002
3.725955e+003;2.160436e-002
3.727883e+003;2.169937e-002
3.729812e+003;2.152417e-002
3.731740e+003;2.121225e-002
3.733669e+003;2.109376e-002
3.735597e+003;2.105818e-002
3.737526e+003;2.117057e-002
3.739455e+003;2.098550e-002
3.741383e+003;2.067438e-002
3.743312e+003;2.066319e-002
3.745240e+003;2.063831e-002
3.747169e+003;2.034969e-002
3.749097e+003;1.998691e-002
3.751026e+003;1.997088e-002
3.752954e+003;1.992877e-002
3.754883e+003;1.991840e-002
3.756812e+003;1.998098e-002
3.758740e+003;1.992235e-002
3.760668e+003;1.962094e-002
3.762597e+003;1.936605e-002
3.764526e+003;1.955130e-002
3.766454e+003;2.001484e-002
3.768383e+003;1.985815e-002
3.770311e+003;1.951044e-002
3.772240e+003;1.939539e-002
3.774168e+003;1.947232e-002
3.776097e+003;1.961809e-002
3.778025e+003;1.940693e-002
3.779954e+003;1.926465e-002
3.781883e+003;1.943756e-002
3.783811e+003;1.948691e-002
3.785740e+003;1.911917e-002
3.787668e+003;1.912460e-002
3.789597e+003;1.955570e-002
3.791525e+003;1.947661e-002
3.793454e+003;1.929479e-002
3.795382e+003;1.918268e-002
3.797311e+003;1.900842e-002
3.799240e+003;1.905536e-002
3.801168e+003;1.892912e-002
3.803097e+003;1.880880e-002
3.805025e+003;1.888572e-002
3.806954e+003;1.873482e-002
3.808882e+003;1.858509e-002
3.810811e+003;1.865312e-002
3.812739e+003;1.857178e-002
3.814668e+003;1.860753e-002
3.816596e+003;1.891655e-002
3.818525e+003;1.930722e-002
3.820454e+003;1.947353e-002
3.822382e+003;1.930269e-002
3.824311e+003;1.895258e-002
3.826239e+003;1.870034e-002
3.828168e+003;1.847949e-002
3.830096e+003;1.834982e-002
3.832025e+003;1.866346e-002
3.833953e+003;1.936799e-002
3.835882e+003;1.969825e-002
3.837811e+003;1.946601e-002
3.839739e+003;1.924654e-002
3.841667e+003;1.908766e-002
3.843596e+003;1.910352e-002
3.845525e+003;1.905851e-002
3.847453e+003;1.921007e-002
3.849382e+003;1.961102e-002
3.851310e+003;1.934738e-002
3.853239e+003;1.875939e-002
3.855167e+003;1.882288e-002
3.857096e+003;1.943950e-002
3.859024e+003;1.990879e-002
3.860953e+003;2.020322e-002
3.862882e+003;2.012669e-002
3.864810e+003;1.989595e-002
3.866739e+003;2.040060e-002
3.868667e+003;2.087444e-002
3.870596e+003;2.050143e-002
3.872524e+003;2.023099e-002
3.874453e+003;2.022203e-002
3.876381e+003;2.000728e-002
3.878310e+003;2.013404e-002
3.880239e+003;2.050059e-002
3.882167e+003;2.091460e-002
3.884096e+003;2.134528e-002
3.886024e+003;2.141632e-002
3.887953e+003;2.135882e-002
3.889881e+003;2.112813e-002
3.891810e+003;2.109150e-002
3.893738e+003;2.125943e-002
3.895667e+003;2.152515e-002
3.897595e+003;2.208980e-002
3.899524e+003;2.227301e-002
3.901453e+003;2.210636e-002
3.903381e+003;2.206976e-002
3.905310e+003;2.211508e-002
3.907238e+003;2.247395e-002
3.909167e+003;2.267558e-002
3.911095e+003;2.243100e-002
3.913024e+003;2.240358e-002
3.914952e+003;2.274827e-002
3.916881e+003;2.291646e-002
3.918810e+003;2.317760e-002
3.920738e+003;2.322496e-002
3.922667e+003;2.351465e-002
3.924595e+003;2.329610e-002
3.926524e+003;2.304093e-002
3.928452e+003;2.344942e-002
3.930381e+003;2.391263e-002
3.932309e+003;2.415973e-002
3.934238e+003;2.420324e-002
3.936167e+003;2.394967e-002
3.938095e+003;2.402569e-002
3.940023e+003;2.430982e-002
3.941952e+003;2.423904e-002
3.943881e+003;2.400349e-002
3.945809e+003;2.406670e-002
3.947738e+003;2.462338e-002
3.949666e+003;2.511147e-002
3.951595e+003;2.520501e-002
3.953523e+003;2.488871e-002
3.955452e+003;2.453884e-002
3.957380e+003;2.447515e-002
3.959309e+003;2.496195e-002
3.961238e+003;2.513156e-002
3.963166e+003;2.500038e-002
3.965095e+003;2.488496e-002
3.967023e+003;2.453320e-002
3.968952e+003;2.456276e-002
3.970880e+003;2.483033e-002
3.972809e+003;2.521884e-002
3.974737e+003;2.549820e-002
3.976666e+003;2.543116e-002
3.978594e+003;2.536912e-002
3.980523e+003;2.501277e-002
3.982452e+003;2.497297e-002
3.984380e+003;2.485457e-002
3.986309e+003;2.456455e-002
3.988237e+003;2.477971e-002
3.990166e+003;2.498858e-002
3.992094e+003;2.525793e-002
3.994023e+003;2.540429e-002
3.995951e+003;2.529902e-002
3.997880e+003;2.551278e-002
3.999809e+003;2.590152e-002
4.001737e+003;0.000000e+000
