3.992094e+002;0.000000e+000
4.011380e+002;0.000000e+000
4.030665e+002;0.000000e+000
4.049951e+002;0.000000e+000
4.069236e+002;0.000000e+000
4.088522e+002;0.000000e+000
4.107807e+002;0.000000e+000
4.127093e+002;0.000000e+000
4.146378e+002;0.000000e+000
4.165664e+002;0.000000e+000
4.184949e+002;0.000000e+000
4.204235e+002;0.000000e+000
4.223520e+002;0.000000e+000
4.242806e+002;0.000000e+000
4.262091e+002;0.000000e+000
4.281377e+002;0.000000e+000
4.300662e+002;0.000000e+000
4.319948e+002;0.000000e+000
4.339233e+002;0.000000e+000
4.358519e+002;0.000000e+000
4.377804e+002;0.000000e+000
4.397090e+002;0.000000e+000
4.416375e+002;0.000000e+000
4.435660e+002;0.000000e+000
4.454946e+002;0.000000e+000
4.474232e+002;0.000000e+000
4.493517e+002;0.000000e+000
4.512802e+002;0.000000e+000
4.532088e+002;0.000000e+000
4.551373e+002;0.000000e+000
4.570659e+002;0.000000e+000
4.589944e+002;0.000000e+000
4.609230e+002;0.000000e+000
4.628515e+002;0.000000e+000
4.647801e+002;0.000000e+000
4.667086e+002;0.000000e+000
4.686372e+002;0.000000e+000
4.705657e+002;0.000000e+000
4.724943e+002;0.000000e+000
4.744228e+002;0.000000e+000
4.763513e+002;0.000000e+000
4.782799e+002;0.000000e+000
4.802085e+002;0.000000e+000
4.821370e+002;0.000000e+000
4.840656e+002;0.000000e+000
4.859941e+002;0.000000e+000
4.879226e+002;0.000000e+000
4.898512e+002;0.000000e+000
4.917798e+002;0.000000e+000
4.937083e+002;0.000000e+000
4.956368e+002;0.000000e+000
4.975654e+002;0.000000e+000
4.994939e+002;0.000000e+000
5.014225e+002;0.000000e+000
5.033510e+002;0.000000e+000
5.052796e+002;0.000000e+000
5.072081e+002;0.000000e+000
5.091367e+002;0.000000e+000
5.110652e+002;0.000000e+000
5.129938e+002;0.000000e+000
5.149223e+002;0.000000e+000
5.168509e+002;0.000000e+000
5.187794e+002;0.000000e+000
5.207079e+002;0.000000e+000
5.226365e+002;0.000000e+000
5.245651e+002;0.000000e+000
5.264936e+002;0.000000e+000
5.284222e+002;0.000000e+000
5.303507e+002;0.000000e+000
5.322792e+002;0.000000e+000
5.342078e+002;0.000000e+000
5.361364e+002;0.000000e+000
5.380649e+002;0.000000e+000
5.399935e+002;0.000000e+000
5.419220e+002;0.000000e+000
5.438505e+002;0.000000e+000
5.457791e+002;0.000000e+000
5.477076e+002;0.000000e+000
5.496362e+002;0.000000e+000
5.515648e+002;0.000000e+000
5.534933e+002;0.000000e+000
5.554218e+002;0.000000e+000
5.573504e+002;0.000000e+000
5.592789e+002;0.000000e+000
5.612075e+002;0.000000e+000
5.631360e+002;0.000000e+000
5.650646e+002;0.000000e+000
5.669931e+002;0.000000e+000
5.689217e+002;0.000000e+000
5.708502e+002;0.000000e+000
5.727787e+002;0.000000e+000
5.747073e+002;0.000000e+000
5.766359e+002;0.000000e+000
5.785644e+002;0.000000e+000
5.804930e+002;0.000000e+000
5.824215e+002;0.000000e+000
5.843500e+002;0.000000e+000
5.862786e+002;0.000000e+000
5.882072e+002;0.000000e+000
5.901357e+002;0.000000e+000
5.920643e+002;0.000000e+000
5.939928e+002;0.000000e+000
5.959213e+002;0.000000e+000
5.978499e+002;0.000000e+000
5.997784e+002;2.762069e-001
6.017070e+002;2.771196e-001
6.036355e+002;2.848655e-001
6.055641e+002;2.852791e-001
6.074926e+002;2.787931e-001
6.094211e+002;2.767016e-001
6.113497e+002;2.783247e-001
6.132783e+002;2.761557e-001
6.152068e+002;2.711071e-001
6.171354e+002;2.704400e-001
6.190639e+002;2.677585e-001
6.209924e+002;2.621645e-001
6.229210e+002;2.595139e-001
6.248495e+002;2.587432e-001
6.267781e+002;2.587593e-001
6.287067e+002;2.563907e-001
6.306352e+002;2.553881e-001
6.325637e+002;2.540376e-001
6.344923e+002;2.523607e-001
6.364208e+002;2.524462e-001
6.383494e+002;2.527430e-001
6.402780e+002;2.518671e-001
6.422065e+002;2.467145e-001
6.441350e+002;2.432738e-001
6.460636e+002;2.453751e-001
6.479921e+002;2.473353e-001
6.499207e+002;2.473993e-001
6.518492e+002;2.478681e-001
6.537778e+002;2.489229e-001
6.557063e+002;2.487842e-001
6.576349e+002;2.473390e-001
6.595634e+002;2.470872e-001
6.614919e+002;2.497204e-001
6.634205e+002;2.515031e-001
6.653491e+002;2.503396e-001
6.672776e+002;2.486890e-001
6.692062e+002;2.454046e-001
6.711347e+002;2.421208e-001
6.730632e+002;2.367196e-001
6.749918e+002;2.264270e-001
6.769203e+002;2.160691e-001
6.788489e+002;2.111110e-001
6.807775e+002;2.062549e-001
6.827060e+002;2.013732e-001
6.846345e+002;1.992891e-001
6.865631e+002;1.984249e-001
6.884916e+002;1.982888e-001
6.904202e+002;1.964314e-001
6.923488e+002;1.946141e-001
6.942773e+002;1.936974e-001
6.962058e+002;1.922867e-001
6.981344e+002;1.907870e-001
7.000629e+002;1.904842e-001
7.019915e+002;1.895845e-001
7.039200e+002;1.880189e-001
7.058486e+002;1.881380e-001
7.077771e+002;1.884186e-001
7.097057e+002;1.866421e-001
7.116342e+002;1.848517e-001
7.135627e+002;1.841120e-001
7.154913e+002;1.829233e-001
7.174199e+002;1.821427e-001
7.193484e+002;1.815580e-001
7.212770e+002;1.798505e-001
7.232055e+002;1.775149e-001
7.251340e+002;1.754837e-001
7.270626e+002;1.738798e-001
7.289911e+002;1.724400e-001
7.309197e+002;1.717064e-001
7.328483e+002;1.706474e-001
7.347768e+002;1.691089e-001
7.367053e+002;1.682092e-001
7.386339e+002;1.665503e-001
7.405624e+002;1.640897e-001
7.424910e+002;1.636140e-001
7.444196e+002;1.631207e-001
7.463481e+002;1.614252e-001
7.482766e+002;1.604649e-001
7.502052e+002;1.596889e-001
7.521337e+002;1.582275e-001
7.540623e+002;1.567931e-001
7.559908e+002;1.554039e-001
7.579194e+002;1.539520e-001
7.598479e+002;1.529937e-001
7.617765e+002;1.519508e-001
7.637050e+002;1.508745e-001
7.656335e+002;1.502095e-001
7.675621e+002;1.488593e-001
7.694907e+002;1.471447e-001
7.714192e+002;1.463724e-001
7.733478e+002;1.457266e-001
7.752763e+002;1.441596e-001
7.772048e+002;1.422712e-001
7.791334e+002;1.412000e-001
7.810620e+002;1.403422e-001
7.829905e+002;1.391299e-001
7.849191e+002;1.383494e-001
7.868476e+002;1.381002e-001
7.887761e+002;1.369173e-001
7.907047e+002;1.351701e-001
7.926332e+002;1.344188e-001
7.945618e+002;1.343054e-001
7.964903e+002;1.340147e-001
7.984189e+002;1.328249e-001
8.003474e+002;1.318619e-001
8.022759e+002;1.318496e-001
8.042045e+002;1.318460e-001
8.061331e+002;1.313531e-001
8.080616e+002;1.309024e-001
8.099902e+002;1.301279e-001
8.119187e+002;1.295382e-001
8.138472e+002;1.297282e-001
8.157758e+002;1.299671e-001
8.177043e+002;1.295198e-001
8.196329e+002;1.293973e-001
8.215615e+002;1.299138e-001
8.234900e+002;1.295519e-001
8.254185e+002;1.292008e-001
8.273471e+002;1.294035e-001
8.292756e+002;1.291320e-001
8.312042e+002;1.287649e-001
8.331328e+002;1.289196e-001
8.350613e+002;1.289290e-001
8.369898e+002;1.283473e-001
8.389184e+002;1.270394e-001
8.408469e+002;1.257758e-001
8.427755e+002;1.253442e-001
8.447040e+002;1.254656e-001
8.466326e+002;1.256668e-001
8.485611e+002;1.252855e-001
8.504897e+002;1.250294e-001
8.524182e+002;1.249702e-001
8.543467e+002;1.249353e-001
8.562753e+002;1.253816e-001
8.582039e+002;1.263238e-001
8.601324e+002;1.271658e-001
8.620610e+002;1.282896e-001
8.639895e+002;1.295708e-001
8.659180e+002;1.303876e-001
8.678466e+002;1.318651e-001
8.697751e+002;1.345543e-001
8.717037e+002;1.378644e-001
8.736323e+002;1.410787e-001
8.755608e+002;1.444444e-001
8.774893e+002;1.481569e-001
8.794179e+002;1.522938e-001
8.813464e+002;1.571954e-001
8.832750e+002;1.628828e-001
8.852036e+002;1.687631e-001
8.871321e+002;1.746237e-001
8.890606e+002;1.804244e-001
8.909892e+002;1.852077e-001
8.929177e+002;1.881179e-001
8.948463e+002;1.894570e-001
8.967748e+002;1.890918e-001
8.987034e+002;1.869428e-001
9.006319e+002;1.836447e-001
9.025605e+002;1.797334e-001
9.044890e+002;1.761079e-001
9.064175e+002;1.725558e-001
9.083461e+002;1.689493e-001
9.102747e+002;1.658975e-001
9.122032e+002;1.636367e-001
9.141318e+002;1.619422e-001
9.160603e+002;1.610821e-001
9.179888e+002;1.611119e-001
9.199174e+002;1.620485e-001
9.218459e+002;1.635092e-001
9.237745e+002;1.649910e-001
9.257031e+002;1.664052e-001
9.276316e+002;1.681329e-001
9.295601e+002;1.700344e-001
9.314887e+002;1.720643e-001
9.334172e+002;1.739410e-001
9.353458e+002;1.756754e-001
9.372744e+002;1.780675e-001
9.392029e+002;1.809388e-001
9.411314e+002;1.839109e-001
9.430600e+002;1.873407e-001
9.449885e+002;1.915849e-001
9.469171e+002;1.960193e-001
9.488456e+002;2.008749e-001
9.507742e+002;2.064533e-001
9.527027e+002;2.126054e-001
9.546313e+002;2.188230e-001
9.565598e+002;2.252086e-001
9.584883e+002;2.316729e-001
9.604169e+002;2.380750e-001
9.623455e+002;2.448976e-001
9.642740e+002;2.520122e-001
9.662026e+002;2.589463e-001
9.681311e+002;2.665760e-001
9.700596e+002;2.754110e-001
9.719882e+002;2.850632e-001
9.739167e+002;2.960309e-001
9.758453e+002;3.091803e-001
9.777739e+002;3.239866e-001
9.797024e+002;3.409813e-001
9.816309e+002;3.596843e-001
9.835595e+002;3.791354e-001
9.854880e+002;3.990876e-001
9.874166e+002;4.177486e-001
9.893452e+002;4.335279e-001
9.912737e+002;4.459403e-001
9.932022e+002;4.537901e-001
9.951307e+002;4.585647e-001
9.970593e+002;4.607552e-001
9.989879e+002;4.614200e-001
1.000916e+003;4.617242e-001
1.002845e+003;4.632145e-001
1.004773e+003;4.676408e-001
1.006702e+003;4.749146e-001
1.008631e+003;4.835131e-001
1.010559e+003;4.928825e-001
1.012488e+003;5.028208e-001
1.014416e+003;5.118046e-001
1.016345e+003;5.176752e-001
1.018273e+003;5.209386e-001
1.020202e+003;5.224092e-001
1.022130e+003;5.208983e-001
1.024059e+003;5.171231e-001
1.025988e+003;5.125149e-001
1.027916e+003;5.062553e-001
1.029845e+003;4.990664e-001
1.031773e+003;4.922160e-001
1.033702e+003;4.858408e-001
1.035630e+003;4.805816e-001
1.037559e+003;4.758739e-001
1.039487e+003;4.715636e-001
1.041416e+003;4.688827e-001
1.043344e+003;4.656385e-001
1.045273e+003;4.612492e-001
1.047202e+003;4.576393e-001
1.049130e+003;4.547067e-001
1.051059e+003;4.513261e-001
1.052987e+003;4.473060e-001
1.054916e+003;4.425762e-001
1.056844e+003;4.375607e-001
1.058773e+003;4.317320e-001
1.060701e+003;4.244783e-001
1.062630e+003;4.155813e-001
1.064558e+003;4.064861e-001
1.066487e+003;3.975853e-001
1.068416e+003;3.880976e-001
1.070344e+003;3.781018e-001
1.072273e+003;3.689218e-001
1.074201e+003;3.603904e-001
1.076130e+003;3.511780e-001
1.078058e+003;3.425553e-001
1.079987e+003;3.352187e-001
1.081915e+003;3.285162e-001
1.083844e+003;3.221548e-001
1.085773e+003;3.157697e-001
1.087701e+003;3.100525e-001
1.089630e+003;3.050465e-001
1.091558e+003;3.002923e-001
1.093487e+003;2.948627e-001
1.095415e+003;2.888643e-001
1.097344e+003;2.830734e-001
1.099272e+003;2.768983e-001
1.101201e+003;2.709201e-001
1.103129e+003;2.657315e-001
1.105058e+003;2.607830e-001
1.106987e+003;2.549412e-001
1.108915e+003;2.497398e-001
1.110844e+003;2.457485e-001
1.112772e+003;2.412344e-001
1.114701e+003;2.362569e-001
1.116629e+003;2.303478e-001
1.118558e+003;2.239614e-001
1.120486e+003;2.175793e-001
1.122415e+003;2.114758e-001
1.124344e+003;2.053092e-001
1.126272e+003;1.989554e-001
1.128201e+003;1.931954e-001
1.130129e+003;1.876149e-001
1.132058e+003;1.826676e-001
1.133986e+003;1.785888e-001
1.135915e+003;1.743567e-001
1.137843e+003;1.707911e-001
1.139772e+003;1.683574e-001
1.141700e+003;1.670275e-001
1.143629e+003;1.671104e-001
1.145557e+003;1.681509e-001
1.147486e+003;1.696493e-001
1.149415e+003;1.714160e-001
1.151343e+003;1.732405e-001
1.153272e+003;1.744218e-001
1.155200e+003;1.747262e-001
1.157129e+003;1.735678e-001
1.159057e+003;1.704229e-001
1.160986e+003;1.659351e-001
1.162914e+003;1.601117e-001
1.164843e+003;1.530874e-001
1.166771e+003;1.457433e-001
1.168700e+003;1.384855e-001
1.170629e+003;1.316683e-001
1.172557e+003;1.257918e-001
1.174486e+003;1.205414e-001
1.176414e+003;1.155734e-001
1.178343e+003;1.115399e-001
1.180271e+003;1.088021e-001
1.182200e+003;1.068442e-001
1.184128e+003;1.058677e-001
1.186057e+003;1.058077e-001
1.187986e+003;1.067434e-001
1.189914e+003;1.089806e-001
1.191843e+003;1.119576e-001
1.193771e+003;1.148750e-001
1.195700e+003;1.170206e-001
1.197628e+003;1.186653e-001
1.199557e+003;1.192281e-001
1.201485e+003;1.182799e-001
1.203414e+003;1.168175e-001
1.205343e+003;1.151531e-001
1.207271e+003;1.131665e-001
1.209200e+003;1.112184e-001
1.211128e+003;1.098511e-001
1.213057e+003;1.097133e-001
1.214985e+003;1.104357e-001
1.216914e+003;1.115854e-001
1.218842e+003;1.132184e-001
1.220771e+003;1.151441e-001
1.222699e+003;1.172504e-001
1.224628e+003;1.193128e-001
1.226557e+003;1.209319e-001
1.228485e+003;1.220749e-001
1.230414e+003;1.229120e-001
1.232342e+003;1.235095e-001
1.234271e+003;1.238942e-001
1.236199e+003;1.241363e-001
1.238128e+003;1.240722e-001
1.240056e+003;1.239529e-001
1.241985e+003;1.238807e-001
1.243913e+003;1.237112e-001
1.245842e+003;1.238599e-001
1.247771e+003;1.243340e-001
1.249699e+003;1.249824e-001
1.251628e+003;1.259881e-001
1.253556e+003;1.271531e-001
1.255485e+003;1.280461e-001
1.257413e+003;1.287516e-001
1.259342e+003;1.292987e-001
1.261270e+003;1.292115e-001
1.263199e+003;1.287170e-001
1.265127e+003;1.279851e-001
1.267056e+003;1.272263e-001
1.268985e+003;1.262659e-001
1.270913e+003;1.250176e-001
1.272842e+003;1.239733e-001
1.274770e+003;1.231048e-001
1.276699e+003;1.222940e-001
1.278627e+003;1.215306e-001
1.280556e+003;1.207665e-001
1.282484e+003;1.200934e-001
1.284413e+003;1.200166e-001
1.286342e+003;1.204712e-001
1.288270e+003;1.212775e-001
1.290199e+003;1.225974e-001
1.292127e+003;1.243673e-001
1.294056e+003;1.261051e-001
1.295984e+003;1.277074e-001
1.297913e+003;1.292355e-001
1.299841e+003;1.309038e-001
1.301770e+003;1.327348e-001
1.303698e+003;1.341971e-001
1.305627e+003;1.356138e-001
1.307556e+003;1.373619e-001
1.309484e+003;1.391943e-001
1.311413e+003;1.407345e-001
1.313341e+003;1.415364e-001
1.315270e+003;1.417556e-001
1.317198e+003;1.413088e-001
1.319127e+003;1.403761e-001
1.321055e+003;1.396668e-001
1.322984e+003;1.393233e-001
1.324912e+003;1.391529e-001
1.326841e+003;1.389241e-001
1.328770e+003;1.389812e-001
1.330698e+003;1.392407e-001
1.332627e+003;1.392026e-001
1.334555e+003;1.389790e-001
1.336484e+003;1.389051e-001
1.338412e+003;1.385590e-001
1.340341e+003;1.379295e-001
1.342269e+003;1.374032e-001
1.344198e+003;1.371431e-001
1.346126e+003;1.370513e-001
1.348055e+003;1.368822e-001
1.349984e+003;1.370479e-001
1.351912e+003;1.376369e-001
1.353841e+003;1.384548e-001
1.355769e+003;1.394143e-001
1.357698e+003;1.402920e-001
1.359626e+003;1.411938e-001
1.361555e+003;1.419304e-001
1.363483e+003;1.423817e-001
1.365412e+003;1.425594e-001
1.367341e+003;1.421913e-001
1.369269e+003;1.414704e-001
1.371198e+003;1.402461e-001
1.373126e+003;1.384260e-001
1.375055e+003;1.364906e-001
1.376983e+003;1.347090e-001
1.378912e+003;1.326069e-001
1.380840e+003;1.304380e-001
1.382769e+003;1.283954e-001
1.384698e+003;1.261749e-001
1.386626e+003;1.239345e-001
1.388555e+003;1.227134e-001
1.390483e+003;1.220124e-001
1.392412e+003;1.212921e-001
1.394340e+003;1.206724e-001
1.396269e+003;1.204987e-001
1.398197e+003;1.202264e-001
1.400126e+003;1.201650e-001
1.402054e+003;1.203628e-001
1.403983e+003;1.202115e-001
1.405911e+003;1.201711e-001
1.407840e+003;1.203891e-001
1.409769e+003;1.202950e-001
1.411697e+003;1.204623e-001
1.413626e+003;1.208911e-001
1.415554e+003;1.206344e-001
1.417483e+003;1.195297e-001
1.419411e+003;1.189311e-001
1.421340e+003;1.195899e-001
1.423268e+003;1.196820e-001
1.425197e+003;1.195432e-001
1.427125e+003;1.190695e-001
1.429054e+003;1.182685e-001
1.430983e+003;1.180355e-001
1.432911e+003;1.177535e-001
1.434840e+003;1.162205e-001
1.436768e+003;1.144305e-001
1.438697e+003;1.142726e-001
1.440625e+003;1.139274e-001
1.442554e+003;1.130640e-001
1.444482e+003;1.120867e-001
1.446411e+003;1.108805e-001
1.448340e+003;1.094765e-001
1.450268e+003;1.083562e-001
1.452197e+003;1.072071e-001
1.454125e+003;1.053438e-001
1.456054e+003;1.023988e-001
1.457982e+003;1.015711e-001
1.459911e+003;1.022852e-001
1.461839e+003;1.015343e-001
1.463768e+003;9.942070e-002
1.465697e+003;9.743940e-002
1.467625e+003;9.628154e-002
1.469554e+003;9.463553e-002
1.471482e+003;9.181076e-002
1.473411e+003;8.980015e-002
1.475339e+003;8.899699e-002
1.477268e+003;8.786147e-002
1.479196e+003;8.632432e-002
1.481125e+003;8.440574e-002
1.483053e+003;8.268269e-002
1.484982e+003;8.103526e-002
1.486911e+003;7.923531e-002
1.488839e+003;7.752545e-002
1.490768e+003;7.659337e-002
1.492696e+003;7.606335e-002
1.494625e+003;7.456442e-002
1.496553e+003;7.305484e-002
1.498482e+003;7.306370e-002
1.500410e+003;7.345816e-002
1.502339e+003;7.324678e-002
1.504267e+003;7.105648e-002
1.506196e+003;6.863288e-002
1.508125e+003;6.914384e-002
1.510053e+003;7.039206e-002
1.511982e+003;7.023595e-002
1.513910e+003;6.980877e-002
1.515839e+003;6.913428e-002
1.517767e+003;6.867611e-002
1.519696e+003;6.758888e-002
1.521624e+003;6.692297e-002
1.523553e+003;6.781928e-002
1.525481e+003;6.826608e-002
1.527410e+003;6.879368e-002
1.529339e+003;6.928731e-002
1.531267e+003;6.889763e-002
1.533196e+003;6.791822e-002
1.535124e+003;6.834348e-002
1.537053e+003;6.778377e-002
1.538981e+003;6.531130e-002
1.540910e+003;6.496792e-002
1.542838e+003;6.663745e-002
1.544767e+003;6.787712e-002
1.546695e+003;6.863606e-002
1.548624e+003;6.876589e-002
1.550553e+003;6.872832e-002
1.552481e+003;6.857929e-002
1.554410e+003;6.830446e-002
1.556338e+003;6.752284e-002
1.558267e+003;6.527368e-002
1.560195e+003;6.607164e-002
1.562124e+003;6.917053e-002
1.564052e+003;7.033283e-002
1.565981e+003;7.049143e-002
1.567910e+003;7.012430e-002
1.569838e+003;7.006371e-002
1.571767e+003;7.107868e-002
1.573695e+003;7.080796e-002
1.575624e+003;6.962491e-002
1.577552e+003;7.095343e-002
1.579481e+003;7.275562e-002
1.581409e+003;7.335214e-002
1.583338e+003;7.383436e-002
1.585266e+003;7.431731e-002
1.587195e+003;7.472944e-002
1.589124e+003;7.515150e-002
1.591052e+003;7.568640e-002
1.592981e+003;7.618757e-002
1.594909e+003;7.666752e-002
1.596838e+003;7.715182e-002
1.598766e+003;7.755294e-002
1.600695e+003;7.802014e-002
1.602623e+003;7.877300e-002
1.604552e+003;7.935853e-002
1.606480e+003;7.970572e-002
1.608409e+003;8.017603e-002
1.610338e+003;8.068692e-002
1.612266e+003;8.102348e-002
1.614195e+003;8.061662e-002
1.616123e+003;7.958396e-002
1.618052e+003;8.069554e-002
1.619980e+003;8.241815e-002
1.621909e+003;8.256054e-002
1.623837e+003;8.264747e-002
1.625766e+003;8.332313e-002
1.627694e+003;8.392616e-002
1.629623e+003;8.449158e-002
1.631552e+003;8.468728e-002
1.633480e+003;8.375218e-002
1.635409e+003;8.285244e-002
1.637337e+003;8.410736e-002
1.639266e+003;8.541376e-002
1.641194e+003;8.567335e-002
1.643123e+003;8.513175e-002
1.645051e+003;8.366350e-002
1.646980e+003;8.315556e-002
1.648909e+003;8.376548e-002
1.650837e+003;8.173109e-002
1.652766e+003;7.860171e-002
1.654694e+003;8.010685e-002
1.656623e+003;8.201775e-002
1.658551e+003;8.197481e-002
1.660480e+003;8.095995e-002
1.662408e+003;7.967244e-002
1.664337e+003;7.939079e-002
1.666266e+003;7.883728e-002
1.668194e+003;7.723909e-002
1.670123e+003;7.635585e-002
1.672051e+003;7.619490e-002
1.673980e+003;7.506035e-002
1.675908e+003;7.410643e-002
1.677837e+003;7.407699e-002
1.679765e+003;7.342786e-002
1.681694e+003;7.184411e-002
1.683622e+003;6.895653e-002
1.685551e+003;6.878332e-002
1.687479e+003;6.998324e-002
1.689408e+003;6.960674e-002
1.691337e+003;6.912266e-002
1.693265e+003;6.799509e-002
1.695194e+003;6.564081e-002
1.697122e+003;6.530156e-002
1.699051e+003;6.435551e-002
1.700979e+003;6.367677e-002
1.702908e+003;6.490797e-002
1.704836e+003;6.460127e-002
1.706765e+003;6.440616e-002
1.708693e+003;6.424785e-002
1.710622e+003;6.376690e-002
1.712551e+003;6.309495e-002
1.714479e+003;6.197220e-002
1.716408e+003;6.037923e-002
1.718336e+003;6.032448e-002
1.720265e+003;6.184344e-002
1.722193e+003;6.219640e-002
1.724122e+003;6.175817e-002
1.726050e+003;6.145148e-002
1.727979e+003;6.097080e-002
1.729908e+003;6.025523e-002
1.731836e+003;5.860944e-002
1.733765e+003;5.710033e-002
1.735693e+003;5.780844e-002
1.737622e+003;5.790849e-002
1.739550e+003;5.682572e-002
1.741479e+003;5.695939e-002
1.743407e+003;5.704164e-002
1.745336e+003;5.656419e-002
1.747265e+003;5.613983e-002
1.749193e+003;5.585000e-002
1.751122e+003;5.596905e-002
1.753050e+003;5.709783e-002
1.754979e+003;5.764378e-002
1.756907e+003;5.777108e-002
1.758836e+003;5.821686e-002
1.760764e+003;5.814011e-002
1.762693e+003;5.824717e-002
1.764621e+003;5.844902e-002
1.766550e+003;5.799498e-002
1.768479e+003;5.780288e-002
1.770407e+003;5.756649e-002
1.772336e+003;5.721261e-002
1.774264e+003;5.780746e-002
1.776193e+003;5.843875e-002
1.778121e+003;5.852139e-002
1.780050e+003;5.834998e-002
1.781978e+003;5.820758e-002
1.783907e+003;5.814572e-002
1.785835e+003;5.838076e-002
1.787764e+003;5.834232e-002
1.789693e+003;5.755404e-002
1.791621e+003;5.673460e-002
1.793550e+003;5.687104e-002
1.795478e+003;5.729748e-002
1.797407e+003;5.707240e-002
1.799335e+003;5.677625e-002
1.801264e+003;5.690254e-002
1.803192e+003;5.744042e-002
1.805121e+003;5.768325e-002
1.807049e+003;5.737193e-002
1.808978e+003;5.682995e-002
1.810907e+003;5.674483e-002
1.812835e+003;5.692403e-002
1.814764e+003;5.696000e-002
1.816692e+003;5.678811e-002
1.818621e+003;5.685034e-002
1.820549e+003;5.673853e-002
1.822478e+003;5.636828e-002
1.824406e+003;5.614032e-002
1.826335e+003;5.635666e-002
1.828264e+003;5.614119e-002
1.830192e+003;5.582415e-002
1.832121e+003;5.604414e-002
1.834049e+003;5.624006e-002
1.835978e+003;5.618866e-002
1.837906e+003;5.616407e-002
1.839835e+003;5.600769e-002
1.841763e+003;5.546586e-002
1.843692e+003;5.488406e-002
1.845620e+003;5.522618e-002
1.847549e+003;5.555479e-002
1.849478e+003;5.564160e-002
1.851406e+003;5.572642e-002
1.853335e+003;5.539249e-002
1.855263e+003;5.531428e-002
1.857192e+003;5.550897e-002
1.859120e+003;5.547256e-002
1.861049e+003;5.540687e-002
1.862977e+003;5.551955e-002
1.864906e+003;5.538681e-002
1.866834e+003;5.476351e-002
1.868763e+003;5.439257e-002
1.870692e+003;5.462528e-002
1.872620e+003;5.491042e-002
1.874549e+003;5.518619e-002
1.876477e+003;5.513796e-002
1.878406e+003;5.488256e-002
1.880334e+003;5.479305e-002
1.882263e+003;5.489267e-002
1.884191e+003;5.502256e-002
1.886120e+003;5.510482e-002
1.888048e+003;5.481906e-002
1.889977e+003;5.472145e-002
1.891906e+003;5.501789e-002
1.893834e+003;5.499266e-002
1.895763e+003;5.485572e-002
1.897691e+003;5.472945e-002
1.899620e+003;5.480019e-002
1.901548e+003;5.498382e-002
1.903477e+003;5.511614e-002
1.905405e+003;5.517438e-002
1.907334e+003;5.528993e-002
1.909262e+003;5.539178e-002
1.911191e+003;5.557765e-002
1.913120e+003;5.576598e-002
1.915048e+003;5.562209e-002
1.916977e+003;5.523187e-002
1.918905e+003;5.541884e-002
1.920834e+003;5.585871e-002
1.922762e+003;5.589017e-002
1.924691e+003;5.587675e-002
1.926619e+003;5.607241e-002
1.928548e+003;5.621977e-002
1.930477e+003;5.631927e-002
1.932405e+003;5.644151e-002
1.934334e+003;5.645879e-002
1.936262e+003;5.632810e-002
1.938191e+003;5.631584e-002
1.940119e+003;5.651437e-002
1.942048e+003;5.669843e-002
1.943976e+003;5.691588e-002
1.945905e+003;5.715732e-002
1.947833e+003;5.726531e-002
1.949762e+003;5.734807e-002
1.951691e+003;5.739874e-002
1.953619e+003;5.754129e-002
1.955548e+003;5.762203e-002
1.957476e+003;5.764772e-002
1.959405e+003;5.755839e-002
1.961333e+003;5.744352e-002
1.963262e+003;5.752336e-002
1.965190e+003;5.763716e-002
1.967119e+003;5.782339e-002
1.969047e+003;5.807424e-002
1.970976e+003;5.797294e-002
1.972905e+003;5.800573e-002
1.974833e+003;5.832588e-002
1.976762e+003;5.859351e-002
1.978690e+003;5.840710e-002
1.980619e+003;5.846650e-002
1.982547e+003;5.866006e-002
1.984476e+003;5.855457e-002
1.986404e+003;5.846077e-002
1.988333e+003;5.847976e-002
1.990261e+003;5.851442e-002
1.992190e+003;5.858160e-002
1.994119e+003;5.876145e-002
1.996047e+003;5.883797e-002
1.997976e+003;5.898001e-002
1.999904e+003;5.906481e-002
2.001833e+003;5.907783e-002
2.003761e+003;5.906192e-002
2.005690e+003;5.908470e-002
2.007618e+003;5.928033e-002
2.009547e+003;5.955942e-002
2.011476e+003;5.970892e-002
2.013404e+003;5.974944e-002
2.015333e+003;5.974739e-002
2.017261e+003;5.987200e-002
2.019190e+003;5.999981e-002
2.021118e+003;5.995066e-002
2.023047e+003;5.995404e-002
2.024975e+003;6.024522e-002
2.026904e+003;6.044354e-002
2.028833e+003;6.014672e-002
2.030761e+003;6.014455e-002
2.032690e+003;6.042404e-002
2.034618e+003;6.039712e-002
2.036547e+003;6.031187e-002
2.038475e+003;6.031027e-002
2.040404e+003;6.041989e-002
2.042332e+003;6.051480e-002
2.044261e+003;6.038764e-002
2.046189e+003;6.046437e-002
2.048118e+003;6.071896e-002
2.050047e+003;6.086317e-002
2.051975e+003;6.101335e-002
2.053904e+003;6.080467e-002
2.055832e+003;6.061948e-002
2.057761e+003;6.064119e-002
2.059689e+003;6.072041e-002
2.061618e+003;6.073858e-002
2.063546e+003;6.038832e-002
2.065475e+003;6.020362e-002
2.067404e+003;6.043246e-002
2.069332e+003;6.082696e-002
2.071260e+003;6.089257e-002
2.073189e+003;6.062740e-002
2.075118e+003;6.050326e-002
2.077046e+003;6.061182e-002
2.078975e+003;6.070413e-002
2.080903e+003;6.066927e-002
2.082832e+003;6.060451e-002
2.084760e+003;6.067552e-002
2.086689e+003;6.078153e-002
2.088617e+003;6.085121e-002
2.090546e+003;6.072468e-002
2.092475e+003;6.062119e-002
2.094403e+003;6.056283e-002
2.096332e+003;6.073851e-002
2.098260e+003;6.070604e-002
2.100189e+003;6.034191e-002
2.102117e+003;6.030239e-002
2.104046e+003;6.071488e-002
2.105974e+003;6.113268e-002
2.107903e+003;6.122465e-002
2.109832e+003;6.101099e-002
2.111760e+003;6.095059e-002
2.113688e+003;6.106479e-002
2.115617e+003;6.106292e-002
2.117546e+003;6.108486e-002
2.119474e+003;6.124934e-002
2.121403e+003;6.138140e-002
2.123331e+003;6.127147e-002
2.125260e+003;6.109263e-002
2.127188e+003;6.114840e-002
2.129117e+003;6.131813e-002
2.131045e+003;6.138808e-002
2.132974e+003;6.130810e-002
2.134903e+003;6.125369e-002
2.136831e+003;6.121923e-002
2.138760e+003;6.116594e-002
2.140688e+003;6.100969e-002
2.142617e+003;6.093873e-002
2.144545e+003;6.096409e-002
2.146474e+003;6.078070e-002
2.148402e+003;6.072597e-002
2.150331e+003;6.099905e-002
2.152260e+003;6.117830e-002
2.154188e+003;6.115919e-002
2.156117e+003;6.102582e-002
2.158045e+003;6.074312e-002
2.159974e+003;6.056085e-002
2.161902e+003;6.057372e-002
2.163831e+003;6.057768e-002
2.165759e+003;6.052169e-002
2.167688e+003;6.041730e-002
2.169616e+003;6.036929e-002
2.171545e+003;6.021500e-002
2.173474e+003;6.013488e-002
2.175402e+003;5.998436e-002
2.177331e+003;5.979659e-002
2.179259e+003;5.977880e-002
2.181188e+003;5.972386e-002
2.183116e+003;5.958864e-002
2.185045e+003;5.953323e-002
2.186973e+003;5.947779e-002
2.188902e+003;5.955995e-002
2.190831e+003;5.954847e-002
2.192759e+003;5.929814e-002
2.194688e+003;5.911553e-002
2.196616e+003;5.902772e-002
2.198545e+003;5.904746e-002
2.200473e+003;5.909480e-002
2.202402e+003;5.916724e-002
2.204330e+003;5.907969e-002
2.206259e+003;5.886605e-002
2.208188e+003;5.873979e-002
2.210116e+003;5.876616e-002
2.212044e+003;5.886723e-002
2.213973e+003;5.891834e-002
2.215902e+003;5.882902e-002
2.217830e+003;5.877094e-002
2.219759e+003;5.886404e-002
2.221687e+003;5.883035e-002
2.223616e+003;5.857773e-002
2.225544e+003;5.841847e-002
2.227473e+003;5.842654e-002
2.229401e+003;5.838648e-002
2.231330e+003;5.810795e-002
2.233259e+003;5.812390e-002
2.235187e+003;5.819925e-002
2.237116e+003;5.804178e-002
2.239044e+003;5.800641e-002
2.240973e+003;5.807083e-002
2.242901e+003;5.785254e-002
2.244830e+003;5.775958e-002
2.246758e+003;5.769063e-002
2.248687e+003;5.758885e-002
2.250615e+003;5.767526e-002
2.252544e+003;5.763538e-002
2.254473e+003;5.754833e-002
2.256401e+003;5.764015e-002
2.258330e+003;5.766921e-002
2.260258e+003;5.740336e-002
2.262187e+003;5.701886e-002
2.264115e+003;5.687988e-002
2.266044e+003;5.711370e-002
2.267972e+003;5.725911e-002
2.269901e+003;5.721311e-002
2.271830e+003;5.708279e-002
2.273758e+003;5.690054e-002
2.275687e+003;5.667159e-002
2.277615e+003;5.657963e-002
2.279544e+003;5.655936e-002
2.281472e+003;5.660609e-002
2.283401e+003;5.658914e-002
2.285329e+003;5.673566e-002
2.287258e+003;5.687002e-002
2.289187e+003;5.664014e-002
2.291115e+003;5.634677e-002
2.293043e+003;5.652528e-002
2.294972e+003;5.671126e-002
2.296901e+003;5.643721e-002
2.298829e+003;5.638344e-002
2.300758e+003;5.666355e-002
2.302686e+003;5.661523e-002
2.304615e+003;5.642223e-002
2.306543e+003;5.636163e-002
2.308472e+003;5.645218e-002
2.310400e+003;5.662523e-002
2.312329e+003;5.666498e-002
2.314258e+003;5.665611e-002
2.316186e+003;5.643468e-002
2.318115e+003;5.624368e-002
2.320043e+003;5.625945e-002
2.321972e+003;5.657023e-002
2.323900e+003;5.682761e-002
2.325829e+003;5.656529e-002
2.327757e+003;5.652151e-002
2.329686e+003;5.685397e-002
2.331615e+003;5.690541e-002
2.333543e+003;5.686039e-002
2.335472e+003;5.702317e-002
2.337400e+003;5.734028e-002
2.339329e+003;5.740672e-002
2.341257e+003;5.755748e-002
2.343186e+003;5.746466e-002
2.345114e+003;5.726958e-002
2.347043e+003;5.763546e-002
2.348971e+003;5.788858e-002
2.350900e+003;5.780734e-002
2.352829e+003;5.784395e-002
2.354757e+003;5.793333e-002
2.356686e+003;5.808087e-002
2.358614e+003;5.833114e-002
2.360543e+003;5.852807e-002
2.362471e+003;5.857883e-002
2.364400e+003;5.841100e-002
2.366328e+003;5.842461e-002
2.368257e+003;5.858736e-002
2.370186e+003;5.861793e-002
2.372114e+003;5.857743e-002
2.374042e+003;5.836465e-002
2.375971e+003;5.846468e-002
2.377900e+003;5.868635e-002
2.379828e+003;5.876616e-002
2.381757e+003;5.908299e-002
2.383685e+003;5.923570e-002
2.385614e+003;5.916697e-002
2.387542e+003;5.922963e-002
2.389471e+003;5.940963e-002
2.391399e+003;5.950694e-002
2.393328e+003;5.959108e-002
2.395257e+003;5.968717e-002
2.397185e+003;5.972964e-002
2.399114e+003;5.979636e-002
2.401042e+003;5.968656e-002
2.402971e+003;5.960681e-002
2.404899e+003;6.000258e-002
2.406828e+003;6.027921e-002
2.408756e+003;6.029550e-002
2.410685e+003;6.033278e-002
2.412614e+003;6.040051e-002
2.414542e+003;6.057018e-002
2.416471e+003;6.079960e-002
2.418399e+003;6.100710e-002
2.420328e+003;6.119520e-002
2.422256e+003;6.127696e-002
2.424185e+003;6.141201e-002
2.426113e+003;6.166001e-002
2.428042e+003;6.171215e-002
2.429970e+003;6.167476e-002
2.431899e+003;6.170374e-002
2.433828e+003;6.183178e-002
2.435756e+003;6.207705e-002
2.437685e+003;6.225754e-002
2.439613e+003;6.239064e-002
2.441542e+003;6.250527e-002
2.443470e+003;6.261827e-002
2.445399e+003;6.273188e-002
2.447327e+003;6.272005e-002
2.449256e+003;6.287933e-002
2.451185e+003;6.311396e-002
2.453113e+003;6.326077e-002
2.455042e+003;6.339100e-002
2.456970e+003;6.361888e-002
2.458899e+003;6.399015e-002
2.460827e+003;6.399241e-002
2.462756e+003;6.376856e-002
2.464684e+003;6.406172e-002
2.466613e+003;6.443533e-002
2.468542e+003;6.447245e-002
2.470470e+003;6.468853e-002
2.472398e+003;6.492020e-002
2.474327e+003;6.499878e-002
2.476256e+003;6.516802e-002
2.478184e+003;6.534011e-002
2.480113e+003;6.539923e-002
2.482041e+003;6.536222e-002
2.483970e+003;6.522832e-002
2.485898e+003;6.529208e-002
2.487827e+003;6.551180e-002
2.489755e+003;6.573255e-002
2.491684e+003;6.580356e-002
2.493613e+003;6.561688e-002
2.495541e+003;6.560281e-002
2.497470e+003;6.561611e-002
2.499398e+003;6.576065e-002
2.501327e+003;6.586849e-002
2.503255e+003;6.580868e-002
2.505184e+003;6.621166e-002
2.507112e+003;6.653502e-002
2.509041e+003;6.657611e-002
2.510969e+003;6.658638e-002
2.512898e+003;6.658117e-002
2.514827e+003;6.649575e-002
2.516755e+003;6.657862e-002
2.518684e+003;6.676448e-002
2.520612e+003;6.695019e-002
2.522541e+003;6.711462e-002
2.524469e+003;6.719750e-002
2.526398e+003;6.714935e-002
2.528326e+003;6.704514e-002
2.530255e+003;6.721970e-002
2.532184e+003;6.724446e-002
2.534112e+003;6.720625e-002
2.536041e+003;6.736633e-002
2.537969e+003;6.732156e-002
2.539898e+003;6.726369e-002
2.541826e+003;6.740089e-002
2.543755e+003;6.741957e-002
2.545683e+003;6.737554e-002
2.547612e+003;6.757300e-002
2.549541e+003;6.785376e-002
2.551469e+003;6.802645e-002
2.553397e+003;6.793325e-002
2.555326e+003;6.790447e-002
2.557255e+003;6.804055e-002
2.559183e+003;6.805687e-002
2.561112e+003;6.813958e-002
2.563040e+003;6.810652e-002
2.564969e+003;6.808373e-002
2.566897e+003;6.834158e-002
2.568826e+003;6.847074e-002
2.570754e+003;6.815780e-002
2.572683e+003;6.819931e-002
2.574612e+003;6.850681e-002
2.576540e+003;6.877645e-002
2.578469e+003;6.906191e-002
2.580397e+003;6.905367e-002
2.582326e+003;6.899230e-002
2.584254e+003;6.897471e-002
2.586183e+003;6.897650e-002
2.588111e+003;6.913673e-002
2.590040e+003;6.934837e-002
2.591969e+003;6.955447e-002
2.593897e+003;6.963591e-002
2.595826e+003;6.978604e-002
2.597754e+003;6.978888e-002
2.599683e+003;6.983289e-002
2.601611e+003;6.983799e-002
2.603540e+003;6.979666e-002
2.605468e+003;6.999243e-002
2.607397e+003;7.017099e-002
2.609325e+003;7.014198e-002
2.611254e+003;7.041255e-002
2.613183e+003;7.066754e-002
2.615111e+003;7.068696e-002
2.617040e+003;7.089666e-002
2.618968e+003;7.105047e-002
2.620897e+003;7.117220e-002
2.622825e+003;7.121615e-002
2.624754e+003;7.123996e-002
2.626682e+003;7.151986e-002
2.628611e+003;7.168412e-002
2.630540e+003;7.164274e-002
2.632468e+003;7.196790e-002
2.634396e+003;7.236837e-002
2.636325e+003;7.243954e-002
2.638254e+003;7.229902e-002
2.640182e+003;7.224349e-002
2.642111e+003;7.254564e-002
2.644039e+003;7.285475e-002
2.645968e+003;7.308769e-002
2.647896e+003;7.310549e-002
2.649825e+003;7.312408e-002
2.651753e+003;7.351749e-002
2.653682e+003;7.395000e-002
2.655611e+003;7.417838e-002
2.657539e+003;7.422559e-002
2.659468e+003;7.390852e-002
2.661396e+003;7.386249e-002
2.663325e+003;7.426549e-002
2.665253e+003;7.463107e-002
2.667182e+003;7.462123e-002
2.669110e+003;7.457398e-002
2.671039e+003;7.486320e-002
2.672968e+003;7.525760e-002
2.674896e+003;7.554021e-002
2.676825e+003;7.549128e-002
2.678753e+003;7.554778e-002
2.680682e+003;7.575046e-002
2.682610e+003;7.578339e-002
2.684539e+003;7.580411e-002
2.686467e+003;7.588480e-002
2.688396e+003;7.605143e-002
2.690324e+003;7.614981e-002
2.692253e+003;7.639489e-002
2.694182e+003;7.665669e-002
2.696110e+003;7.674905e-002
2.698039e+003;7.703885e-002
2.699967e+003;7.726252e-002
2.701896e+003;7.754965e-002
2.703824e+003;7.775988e-002
2.705753e+003;7.773437e-002
2.707681e+003;7.766038e-002
2.709610e+003;7.773983e-002
2.711539e+003;7.784415e-002
2.713467e+003;7.799480e-002
2.715396e+003;7.816387e-002
2.717324e+003;7.834880e-002
2.719253e+003;7.834837e-002
2.721181e+003;7.834595e-002
2.723110e+003;7.848737e-002
2.725038e+003;7.868804e-002
2.726967e+003;7.892001e-002
2.728896e+003;7.898597e-002
2.730824e+003;7.895867e-002
2.732752e+003;7.918839e-002
2.734681e+003;7.940841e-002
2.736610e+003;7.941608e-002
2.738538e+003;7.937917e-002
2.740467e+003;7.962726e-002
2.742395e+003;7.985248e-002
2.744324e+003;8.027480e-002
2.746252e+003;8.041780e-002
2.748181e+003;8.036350e-002
2.750109e+003;8.017021e-002
2.752038e+003;8.025682e-002
2.753967e+003;8.068062e-002
2.755895e+003;8.068860e-002
2.757824e+003;8.067475e-002
2.759752e+003;8.099648e-002
2.761681e+003;8.146876e-002
2.763609e+003;8.177977e-002
2.765538e+003;8.188994e-002
2.767466e+003;8.201747e-002
2.769395e+003;8.208179e-002
2.771323e+003;8.225843e-002
2.773252e+003;8.251174e-002
2.775181e+003;8.285496e-002
2.777109e+003;8.323871e-002
2.779038e+003;8.301647e-002
2.780966e+003;8.284125e-002
2.782895e+003;8.320862e-002
2.784823e+003;8.342101e-002
2.786752e+003;8.363868e-002
2.788680e+003;8.411424e-002
2.790609e+003;8.449617e-002
2.792538e+003;8.477201e-002
2.794466e+003;8.514597e-002
2.796395e+003;8.559091e-002
2.798323e+003;8.590585e-002
2.800252e+003;8.625723e-002
2.802180e+003;8.671601e-002
2.804109e+003;8.708574e-002
2.806037e+003;8.708226e-002
2.807966e+003;8.732778e-002
2.809895e+003;8.778700e-002
2.811823e+003;8.812392e-002
2.813751e+003;8.854929e-002
2.815680e+003;8.909652e-002
2.817609e+003;8.963239e-002
2.819537e+003;8.980936e-002
2.821466e+003;8.994114e-002
2.823394e+003;9.024148e-002
2.825323e+003;9.080845e-002
2.827251e+003;9.163064e-002
2.829180e+003;9.228347e-002
2.831108e+003;9.281147e-002
2.833037e+003;9.324803e-002
2.834966e+003;9.360721e-002
2.836894e+003;9.435755e-002
2.838823e+003;9.494803e-002
2.840751e+003;9.548506e-002
2.842680e+003;9.618437e-002
2.844608e+003;9.670554e-002
2.846537e+003;9.691200e-002
2.848465e+003;9.701361e-002
2.850394e+003;9.727792e-002
2.852323e+003;9.801760e-002
2.854251e+003;9.913132e-002
2.856180e+003;1.004319e-001
2.858108e+003;1.024643e-001
2.860037e+003;1.043223e-001
2.861965e+003;1.057781e-001
2.863894e+003;1.074375e-001
2.865822e+003;1.088630e-001
2.867751e+003;1.101765e-001
2.869679e+003;1.115826e-001
2.871608e+003;1.124919e-001
2.873536e+003;1.129136e-001
2.875465e+003;1.133522e-001
2.877394e+003;1.140753e-001
2.879322e+003;1.146753e-001
2.881251e+003;1.151225e-001
2.883179e+003;1.157362e-001
2.885108e+003;1.159543e-001
2.887036e+003;1.158876e-001
2.888965e+003;1.160788e-001
2.890893e+003;1.162154e-001
2.892822e+003;1.162290e-001
2.894750e+003;1.157364e-001
2.896679e+003;1.150184e-001
2.898608e+003;1.146378e-001
2.900536e+003;1.142423e-001
2.902465e+003;1.134255e-001
2.904393e+003;1.126368e-001
2.906322e+003;1.119515e-001
2.908250e+003;1.111187e-001
2.910179e+003;1.104440e-001
2.912107e+003;1.095941e-001
2.914036e+003;1.079279e-001
2.915965e+003;1.064478e-001
2.917893e+003;1.052192e-001
2.919822e+003;1.039651e-001
2.921750e+003;1.031116e-001
2.923679e+003;1.023121e-001
2.925607e+003;1.012708e-001
2.927536e+003;1.004499e-001
2.929464e+003;9.979007e-002
2.931393e+003;9.936146e-002
2.933322e+003;9.929907e-002
2.935250e+003;9.905489e-002
2.937178e+003;9.822602e-002
2.939107e+003;9.729201e-002
2.941036e+003;9.642140e-002
2.942964e+003;9.555529e-002
2.944893e+003;9.499652e-002
2.946821e+003;9.449506e-002
2.948750e+003;9.377355e-002
2.950678e+003;9.268796e-002
2.952607e+003;9.151469e-002
2.954535e+003;9.031992e-002
2.956464e+003;8.894994e-002
2.958393e+003;8.823234e-002
2.960321e+003;8.758771e-002
2.962250e+003;8.686969e-002
2.964178e+003;8.641006e-002
2.966107e+003;8.580168e-002
2.968035e+003;8.562521e-002
2.969964e+003;8.602810e-002
2.971892e+003;8.595492e-002
2.973821e+003;8.541025e-002
2.975750e+003;8.528563e-002
2.977678e+003;8.533137e-002
2.979607e+003;8.488790e-002
2.981535e+003;8.484121e-002
2.983464e+003;8.487074e-002
2.985392e+003;8.466683e-002
2.987321e+003;8.422022e-002
2.989249e+003;8.380875e-002
2.991178e+003;8.368006e-002
2.993106e+003;8.358815e-002
2.995035e+003;8.359320e-002
2.996964e+003;8.373269e-002
2.998892e+003;8.385316e-002
3.000821e+003;8.397681e-002
3.002749e+003;8.398163e-002
3.004678e+003;8.368231e-002
3.006606e+003;8.353870e-002
3.008535e+003;8.391530e-002
3.010463e+003;8.441544e-002
3.012392e+003;8.448245e-002
3.014321e+003;8.458988e-002
3.016249e+003;8.507310e-002
3.018177e+003;8.530648e-002
3.020106e+003;8.551618e-002
3.022035e+003;8.592786e-002
3.023963e+003;8.678730e-002
3.025892e+003;8.729970e-002
3.027820e+003;8.737887e-002
3.029749e+003;8.784204e-002
3.031677e+003;8.815067e-002
3.033606e+003;8.827525e-002
3.035534e+003;8.877999e-002
3.037463e+003;8.923399e-002
3.039392e+003;8.979355e-002
3.041320e+003;9.034452e-002
3.043249e+003;9.072490e-002
3.045177e+003;9.107158e-002
3.047106e+003;9.133998e-002
3.049034e+003;9.197882e-002
3.050963e+003;9.244086e-002
3.052891e+003;9.240167e-002
3.054820e+003;9.286297e-002
3.056749e+003;9.350422e-002
3.058677e+003;9.388154e-002
3.060606e+003;9.426080e-002
3.062534e+003;9.495734e-002
3.064463e+003;9.571308e-002
3.066391e+003;9.596114e-002
3.068320e+003;9.627741e-002
3.070248e+003;9.679853e-002
3.072177e+003;9.744674e-002
3.074105e+003;9.802765e-002
3.076034e+003;9.879100e-002
3.077963e+003;9.966221e-002
3.079891e+003;1.004166e-001
3.081820e+003;1.007297e-001
3.083748e+003;1.008523e-001
3.085677e+003;1.011171e-001
3.087605e+003;1.017544e-001
3.089534e+003;1.021689e-001
3.091462e+003;1.027330e-001
3.093391e+003;1.036217e-001
3.095320e+003;1.042614e-001
3.097248e+003;1.048493e-001
3.099177e+003;1.053913e-001
3.101105e+003;1.058904e-001
3.103034e+003;1.062229e-001
3.104962e+003;1.066260e-001
3.106891e+003;1.073395e-001
3.108819e+003;1.079395e-001
3.110748e+003;1.085383e-001
3.112677e+003;1.093500e-001
3.114605e+003;1.100188e-001
3.116533e+003;1.106962e-001
3.118462e+003;1.114848e-001
3.120391e+003;1.121059e-001
3.122319e+003;1.124872e-001
3.124248e+003;1.132155e-001
3.126176e+003;1.142205e-001
3.128105e+003;1.149486e-001
3.130033e+003;1.154769e-001
3.131962e+003;1.156972e-001
3.133890e+003;1.160829e-001
3.135819e+003;1.170673e-001
3.137748e+003;1.179510e-001
3.139676e+003;1.181516e-001
3.141605e+003;1.188067e-001
3.143533e+003;1.196249e-001
3.145462e+003;1.201751e-001
3.147390e+003;1.208626e-001
3.149319e+003;1.214867e-001
3.151247e+003;1.220219e-001
3.153176e+003;1.224166e-001
3.155104e+003;1.228810e-001
3.157033e+003;1.237554e-001
3.158962e+003;1.247554e-001
3.160890e+003;1.253222e-001
3.162819e+003;1.259533e-001
3.164747e+003;1.264884e-001
3.166676e+003;1.270721e-001
3.168604e+003;1.279761e-001
3.170533e+003;1.285677e-001
3.172461e+003;1.290858e-001
3.174390e+003;1.298844e-001
3.176319e+003;1.303197e-001
3.178247e+003;1.304357e-001
3.180176e+003;1.308112e-001
3.182104e+003;1.314876e-001
3.184033e+003;1.323134e-001
3.185961e+003;1.327639e-001
3.187890e+003;1.332527e-001
3.189818e+003;1.343444e-001
3.191747e+003;1.354947e-001
3.193676e+003;1.361082e-001
3.195604e+003;1.363918e-001
3.197532e+003;1.369801e-001
3.199461e+003;1.374009e-001
3.201390e+003;1.381568e-001
3.203318e+003;1.388721e-001
3.205247e+003;1.391696e-001
3.207175e+003;1.393037e-001
3.209104e+003;1.399889e-001
3.211032e+003;1.409796e-001
3.212961e+003;1.415705e-001
3.214889e+003;1.419123e-001
3.216818e+003;1.420772e-001
3.218747e+003;1.424473e-001
3.220675e+003;1.432283e-001
3.222604e+003;1.441925e-001
3.224532e+003;1.445905e-001
3.226461e+003;1.449125e-001
3.228389e+003;1.457702e-001
3.230318e+003;1.465963e-001
3.232246e+003;1.470298e-001
3.234175e+003;1.472600e-001
3.236104e+003;1.476158e-001
3.238032e+003;1.480750e-001
3.239961e+003;1.485289e-001
3.241889e+003;1.490382e-001
3.243818e+003;1.494247e-001
3.245746e+003;1.498827e-001
3.247675e+003;1.503198e-001
3.249603e+003;1.508252e-001
3.251532e+003;1.511405e-001
3.253460e+003;1.512460e-001
3.255389e+003;1.516236e-001
3.257318e+003;1.522332e-001
3.259246e+003;1.526716e-001
3.261175e+003;1.527858e-001
3.263103e+003;1.533139e-001
3.265032e+003;1.538194e-001
3.266960e+003;1.541499e-001
3.268889e+003;1.547731e-001
3.270817e+003;1.549713e-001
3.272746e+003;1.549177e-001
3.274675e+003;1.551186e-001
3.276603e+003;1.558173e-001
3.278531e+003;1.565406e-001
3.280460e+003;1.566152e-001
3.282389e+003;1.571108e-001
3.284317e+003;1.578519e-001
3.286246e+003;1.580208e-001
3.288174e+003;1.577857e-001
3.290103e+003;1.579562e-001
3.292031e+003;1.582594e-001
3.293960e+003;1.585199e-001
3.295888e+003;1.583355e-001
3.297817e+003;1.584692e-001
3.299746e+003;1.591576e-001
3.301674e+003;1.598214e-001
3.303603e+003;1.601810e-001
3.305531e+003;1.600553e-001
3.307460e+003;1.599269e-001
3.309388e+003;1.601573e-001
3.311317e+003;1.605033e-001
3.313245e+003;1.604300e-001
3.315174e+003;1.600726e-001
3.317103e+003;1.605057e-001
3.319031e+003;1.610989e-001
3.320960e+003;1.611780e-001
3.322888e+003;1.611965e-001
3.324817e+003;1.611963e-001
3.326745e+003;1.611896e-001
3.328674e+003;1.613820e-001
3.330602e+003;1.618193e-001
3.332531e+003;1.616122e-001
3.334459e+003;1.612420e-001
3.336388e+003;1.616415e-001
3.338317e+003;1.618855e-001
3.340245e+003;1.615045e-001
3.342174e+003;1.614754e-001
3.344102e+003;1.616531e-001
3.346031e+003;1.615107e-001
3.347959e+003;1.612997e-001
3.349888e+003;1.612749e-001
3.351816e+003;1.610304e-001
3.353745e+003;1.609754e-001
3.355674e+003;1.608219e-001
3.357602e+003;1.603170e-001
3.359531e+003;1.601805e-001
3.361459e+003;1.602463e-001
3.363388e+003;1.603151e-001
3.365316e+003;1.603786e-001
3.367245e+003;1.602299e-001
3.369173e+003;1.598783e-001
3.371102e+003;1.591284e-001
3.373031e+003;1.587040e-001
3.374959e+003;1.586666e-001
3.376887e+003;1.586953e-001
3.378816e+003;1.587536e-001
3.380745e+003;1.585670e-001
3.382673e+003;1.579721e-001
3.384602e+003;1.576482e-001
3.386530e+003;1.577009e-001
3.388459e+003;1.574908e-001
3.390387e+003;1.571876e-001
3.392316e+003;1.568520e-001
3.394244e+003;1.557892e-001
3.396173e+003;1.548409e-001
3.398102e+003;1.547614e-001
3.400030e+003;1.545815e-001
3.401959e+003;1.544572e-001
3.403887e+003;1.543266e-001
3.405816e+003;1.538078e-001
3.407744e+003;1.533989e-001
3.409673e+003;1.530311e-001
3.411601e+003;1.520589e-001
3.413530e+003;1.511979e-001
3.415458e+003;1.509784e-001
3.417387e+003;1.508097e-001
3.419316e+003;1.503055e-001
3.421244e+003;1.495902e-001
3.423173e+003;1.491313e-001
3.425101e+003;1.481715e-001
3.427030e+003;1.475113e-001
3.428958e+003;1.473945e-001
3.430887e+003;1.468024e-001
3.432815e+003;1.463306e-001
3.434744e+003;1.457596e-001
3.436673e+003;1.447413e-001
3.438601e+003;1.442143e-001
3.440530e+003;1.438891e-001
3.442458e+003;1.427346e-001
3.444387e+003;1.416340e-001
3.446315e+003;1.408481e-001
3.448244e+003;1.402729e-001
3.450172e+003;1.391806e-001
3.452101e+003;1.376861e-001
3.454030e+003;1.364615e-001
3.455958e+003;1.350049e-001
3.457886e+003;1.335793e-001
3.459815e+003;1.325900e-001
3.461744e+003;1.318003e-001
3.463672e+003;1.311650e-001
3.465601e+003;1.302022e-001
3.467529e+003;1.289395e-001
3.469458e+003;1.280791e-001
3.471386e+003;1.274935e-001
3.473315e+003;1.266380e-001
3.475243e+003;1.256722e-001
3.477172e+003;1.246859e-001
3.479101e+003;1.235755e-001
3.481029e+003;1.223515e-001
3.482958e+003;1.211568e-001
3.484886e+003;1.198661e-001
3.486815e+003;1.186264e-001
3.488743e+003;1.176568e-001
3.490672e+003;1.167754e-001
3.492600e+003;1.154641e-001
3.494529e+003;1.141103e-001
3.496458e+003;1.127733e-001
3.498386e+003;1.110003e-001
3.500315e+003;1.095179e-001
3.502243e+003;1.083852e-001
3.504172e+003;1.069538e-001
3.506100e+003;1.059071e-001
3.508029e+003;1.048725e-001
3.509957e+003;1.036712e-001
3.511886e+003;1.027677e-001
3.513814e+003;1.015458e-001
3.515743e+003;1.002231e-001
3.517672e+003;9.910538e-002
3.519600e+003;9.807287e-002
3.521529e+003;9.697077e-002
3.523457e+003;9.549613e-002
3.525386e+003;9.412687e-002
3.527314e+003;9.354026e-002
3.529243e+003;9.277467e-002
3.531171e+003;9.139489e-002
3.533100e+003;9.009055e-002
3.535029e+003;8.926105e-002
3.536957e+003;8.869837e-002
3.538885e+003;8.802010e-002
3.540814e+003;8.676897e-002
3.542743e+003;8.543450e-002
3.544671e+003;8.446784e-002
3.546600e+003;8.378175e-002
3.548528e+003;8.299601e-002
3.550457e+003;8.179217e-002
3.552385e+003;8.082076e-002
3.554314e+003;8.030234e-002
3.556242e+003;7.957680e-002
3.558171e+003;7.852798e-002
3.560100e+003;7.762488e-002
3.562028e+003;7.675830e-002
3.563957e+003;7.549030e-002
3.565885e+003;7.413511e-002
3.567814e+003;7.334975e-002
3.569742e+003;7.313365e-002
3.571671e+003;7.272338e-002
3.573599e+003;7.169237e-002
3.575528e+003;7.075360e-002
3.577457e+003;6.981733e-002
3.579385e+003;6.919004e-002
3.581314e+003;6.852552e-002
3.583242e+003;6.764904e-002
3.585171e+003;6.691764e-002
3.587099e+003;6.626222e-002
3.589028e+003;6.589738e-002
3.590956e+003;6.554043e-002
3.592885e+003;6.485753e-002
3.594813e+003;6.420898e-002
3.596742e+003;6.377792e-002
3.598671e+003;6.335400e-002
3.600599e+003;6.297389e-002
3.602528e+003;6.257154e-002
3.604456e+003;6.176008e-002
3.606385e+003;6.088647e-002
3.608313e+003;6.014577e-002
3.610242e+003;5.989855e-002
3.612170e+003;5.935200e-002
3.614099e+003;5.871202e-002
3.616028e+003;5.820213e-002
3.617956e+003;5.771030e-002
3.619885e+003;5.768412e-002
3.621813e+003;5.767920e-002
3.623742e+003;5.736732e-002
3.625670e+003;5.656702e-002
3.627599e+003;5.470108e-002
3.629527e+003;5.410124e-002
3.631456e+003;5.489891e-002
3.633385e+003;5.493272e-002
3.635313e+003;5.460552e-002
3.637241e+003;5.410023e-002
3.639170e+003;5.393164e-002
3.641099e+003;5.361835e-002
3.643027e+003;5.305834e-002
3.644956e+003;5.246607e-002
3.646884e+003;5.115768e-002
3.648813e+003;4.985033e-002
3.650741e+003;5.007218e-002
3.652670e+003;5.075808e-002
3.654598e+003;5.061439e-002
3.656527e+003;5.019021e-002
3.658456e+003;5.012011e-002
3.660384e+003;5.004905e-002
3.662313e+003;4.966302e-002
3.664241e+003;4.919688e-002
3.666170e+003;4.847538e-002
3.668098e+003;4.670616e-002
3.670027e+003;4.570441e-002
3.671955e+003;4.646965e-002
3.673884e+003;4.542870e-002
3.675813e+003;4.426168e-002
3.677741e+003;4.552786e-002
3.679669e+003;4.608955e-002
3.681598e+003;4.568920e-002
3.683527e+003;4.529883e-002
3.685455e+003;4.482988e-002
3.687384e+003;4.340792e-002
3.689312e+003;4.303231e-002
3.691241e+003;4.347764e-002
3.693169e+003;4.353727e-002
3.695098e+003;4.383504e-002
3.697026e+003;4.386378e-002
3.698955e+003;4.296157e-002
3.700884e+003;4.234564e-002
3.702812e+003;4.272021e-002
3.704741e+003;4.290121e-002
3.706669e+003;4.233012e-002
3.708598e+003;4.145109e-002
3.710526e+003;4.078587e-002
3.712455e+003;4.069423e-002
3.714383e+003;4.136507e-002
3.716312e+003;4.150720e-002
3.718240e+003;4.090192e-002
3.720169e+003;4.045381e-002
3.722098e+003;4.053430e-002
3.724026e+003;4.044366e-002
3.725955e+003;4.003926e-002
3.727883e+003;4.009667e-002
3.729812e+003;3.968732e-002
3.731740e+003;3.901845e-002
3.733669e+003;3.890233e-002
3.735597e+003;3.824339e-002
3.737526e+003;3.866948e-002
3.739455e+003;3.969738e-002
3.741383e+003;3.923346e-002
3.743312e+003;3.667190e-002
3.745240e+003;3.647091e-002
3.747169e+003;3.760018e-002
3.749097e+003;3.678433e-002
3.751026e+003;3.648972e-002
3.752954e+003;3.741986e-002
3.754883e+003;3.843021e-002
3.756812e+003;3.853245e-002
3.758740e+003;3.895694e-002
3.760668e+003;3.916848e-002
3.762597e+003;3.904992e-002
3.764526e+003;3.910067e-002
3.766454e+003;3.931634e-002
3.768383e+003;3.864833e-002
3.770311e+003;3.867060e-002
3.772240e+003;3.911797e-002
3.774168e+003;3.915865e-002
3.776097e+003;3.906572e-002
3.778025e+003;3.889117e-002
3.779954e+003;3.908157e-002
3.781883e+003;3.931739e-002
3.783811e+003;3.926146e-002
3.785740e+003;3.951117e-002
3.787668e+003;3.934782e-002
3.789597e+003;3.910437e-002
3.791525e+003;3.926926e-002
3.793454e+003;3.903955e-002
3.795382e+003;3.835311e-002
3.797311e+003;3.844907e-002
3.799240e+003;3.802934e-002
3.801168e+003;3.715218e-002
3.803097e+003;3.810869e-002
3.805025e+003;3.833755e-002
3.806954e+003;3.775207e-002
3.808882e+003;3.886884e-002
3.810811e+003;3.989721e-002
3.812739e+003;3.965167e-002
3.814668e+003;3.813072e-002
3.816596e+003;3.769204e-002
3.818525e+003;3.793691e-002
3.820454e+003;3.726145e-002
3.822382e+003;3.789323e-002
3.824311e+003;3.887044e-002
3.826239e+003;3.873642e-002
3.828168e+003;3.878921e-002
3.830096e+003;3.870418e-002
3.832025e+003;3.860556e-002
3.833953e+003;3.902516e-002
3.835882e+003;3.840226e-002
3.837811e+003;3.739624e-002
3.839739e+003;3.806525e-002
3.841667e+003;3.861936e-002
3.843596e+003;3.848821e-002
3.845525e+003;3.872642e-002
3.847453e+003;3.937833e-002
3.849382e+003;3.869636e-002
3.851310e+003;3.661671e-002
3.853239e+003;3.525777e-002
3.855167e+003;3.717463e-002
3.857096e+003;3.941650e-002
3.859024e+003;3.997412e-002
3.860953e+003;3.946668e-002
3.862882e+003;3.897952e-002
3.864810e+003;3.885301e-002
3.866739e+003;3.898467e-002
3.868667e+003;3.848390e-002
3.870596e+003;3.886993e-002
3.872524e+003;3.944861e-002
3.874453e+003;3.954064e-002
3.876381e+003;4.032221e-002
3.878310e+003;4.007864e-002
3.880239e+003;3.939970e-002
3.882167e+003;3.969353e-002
3.884096e+003;3.964489e-002
3.886024e+003;3.986700e-002
3.887953e+003;4.046661e-002
3.889881e+003;4.009420e-002
3.891810e+003;4.005488e-002
3.893738e+003;4.055947e-002
3.895667e+003;4.070472e-002
3.897595e+003;4.038918e-002
3.899524e+003;4.006382e-002
3.901453e+003;3.979164e-002
3.903381e+003;4.002240e-002
3.905310e+003;4.082722e-002
3.907238e+003;4.130257e-002
3.909167e+003;4.151132e-002
3.911095e+003;4.179519e-002
3.913024e+003;4.173329e-002
3.914952e+003;4.156134e-002
3.916881e+003;4.172698e-002
3.918810e+003;4.226134e-002
3.920738e+003;4.218721e-002
3.922667e+003;4.203516e-002
3.924595e+003;4.225199e-002
3.926524e+003;4.199464e-002
3.928452e+003;4.199727e-002
3.930381e+003;4.223878e-002
3.932309e+003;4.246017e-002
3.934238e+003;4.264107e-002
3.936167e+003;4.238674e-002
3.938095e+003;4.258442e-002
3.940023e+003;4.302668e-002
3.941952e+003;4.299679e-002
3.943881e+003;4.289960e-002
3.945809e+003;4.269590e-002
3.947738e+003;4.204100e-002
3.949666e+003;4.208400e-002
3.951595e+003;4.317502e-002
3.953523e+003;4.361551e-002
3.955452e+003;4.348617e-002
3.957380e+003;4.395774e-002
3.959309e+003;4.405194e-002
3.961238e+003;4.351544e-002
3.963166e+003;4.334923e-002
3.965095e+003;4.354302e-002
3.967023e+003;4.362321e-002
3.968952e+003;4.330240e-002
3.970880e+003;4.284127e-002
3.972809e+003;4.269981e-002
3.974737e+003;4.285619e-002
3.976666e+003;4.341125e-002
3.978594e+003;4.344172e-002
3.980523e+003;4.342245e-002
3.982452e+003;4.357481e-002
3.984380e+003;4.322809e-002
3.986309e+003;4.314834e-002
3.988237e+003;4.329654e-002
3.990166e+003;4.366680e-002
3.992094e+003;4.372737e-002
3.994023e+003;4.328351e-002
3.995951e+003;4.310513e-002
3.997880e+003;4.351569e-002
3.999809e+003;4.383145e-002
4.001737e+003;0.000000e+000
