3.992094e+002;0.000000e+000
4.011380e+002;0.000000e+000
4.030665e+002;0.000000e+000
4.049951e+002;0.000000e+000
4.069236e+002;0.000000e+000
4.088522e+002;0.000000e+000
4.107807e+002;0.000000e+000
4.127093e+002;0.000000e+000
4.146378e+002;0.000000e+000
4.165664e+002;0.000000e+000
4.184949e+002;0.000000e+000
4.204235e+002;0.000000e+000
4.223520e+002;0.000000e+000
4.242806e+002;0.000000e+000
4.262091e+002;0.000000e+000
4.281377e+002;0.000000e+000
4.300662e+002;0.000000e+000
4.319948e+002;0.000000e+000
4.339233e+002;0.000000e+000
4.358519e+002;0.000000e+000
4.377804e+002;0.000000e+000
4.397090e+002;0.000000e+000
4.416375e+002;0.000000e+000
4.435660e+002;0.000000e+000
4.454946e+002;0.000000e+000
4.474232e+002;0.000000e+000
4.493517e+002;0.000000e+000
4.512802e+002;0.000000e+000
4.532088e+002;0.000000e+000
4.551373e+002;0.000000e+000
4.570659e+002;0.000000e+000
4.589944e+002;0.000000e+000
4.609230e+002;0.000000e+000
4.628515e+002;0.000000e+000
4.647801e+002;0.000000e+000
4.667086e+002;0.000000e+000
4.686372e+002;0.000000e+000
4.705657e+002;0.000000e+000
4.724943e+002;0.000000e+000
4.744228e+002;0.000000e+000
4.763513e+002;0.000000e+000
4.782799e+002;0.000000e+000
4.802085e+002;0.000000e+000
4.821370e+002;0.000000e+000
4.840656e+002;0.000000e+000
4.859941e+002;0.000000e+000
4.879226e+002;0.000000e+000
4.898512e+002;0.000000e+000
4.917798e+002;0.000000e+000
4.937083e+002;0.000000e+000
4.956368e+002;0.000000e+000
4.975654e+002;0.000000e+000
4.994939e+002;0.000000e+000
5.014225e+002;0.000000e+000
5.033510e+002;0.000000e+000
5.052796e+002;0.000000e+000
5.072081e+002;0.000000e+000
5.091367e+002;0.000000e+000
5.110652e+002;0.000000e+000
5.129938e+002;0.000000e+000
5.149223e+002;0.000000e+000
5.168509e+002;0.000000e+000
5.187794e+002;0.000000e+000
5.207079e+002;0.000000e+000
5.226365e+002;0.000000e+000
5.245651e+002;0.000000e+000
5.264936e+002;0.000000e+000
5.284222e+002;0.000000e+000
5.303507e+002;0.000000e+000
5.322792e+002;0.000000e+000
5.342078e+002;0.000000e+000
5.361364e+002;0.000000e+000
5.380649e+002;0.000000e+000
5.399935e+002;0.000000e+000
5.419220e+002;0.000000e+000
5.438505e+002;0.000000e+000
5.457791e+002;0.000000e+000
5.477076e+002;0.000000e+000
5.496362e+002;0.000000e+000
5.515648e+002;0.000000e+000
5.534933e+002;0.000000e+000
5.554218e+002;0.000000e+000
5.573504e+002;0.000000e+000
5.592789e+002;0.000000e+000
5.612075e+002;0.000000e+000
5.631360e+002;0.000000e+000
5.650646e+002;0.000000e+000
5.669931e+002;0.000000e+000
5.689217e+002;0.000000e+000
5.708502e+002;0.000000e+000
5.727787e+002;0.000000e+000
5.747073e+002;0.000000e+000
5.766359e+002;0.000000e+000
5.785644e+002;0.000000e+000
5.804930e+002;0.000000e+000
5.824215e+002;0.000000e+000
5.843500e+002;0.000000e+000
5.862786e+002;0.000000e+000
5.882072e+002;0.000000e+000
5.901357e+002;0.000000e+000
5.920643e+002;0.000000e+000
5.939928e+002;0.000000e+000
5.959213e+002;0.000000e+000
5.978499e+002;0.000000e+000
5.997784e+002;2.173650e-001
6.017070e+002;2.233388e-001
6.036355e+002;2.231358e-001
6.055641e+002;2.175943e-001
6.074926e+002;2.163453e-001
6.094211e+002;2.148440e-001
6.113497e+002;2.092269e-001
6.132783e+002;2.042977e-001
6.152068e+002;2.048926e-001
6.171354e+002;2.024846e-001
6.190639e+002;1.975361e-001
6.209924e+002;1.955243e-001
6.229210e+002;1.953182e-001
6.248495e+002;1.951346e-001
6.267781e+002;1.937657e-001
6.287067e+002;1.937223e-001
6.306352e+002;1.927631e-001
6.325637e+002;1.908138e-001
6.344923e+002;1.887706e-001
6.364208e+002;1.831622e-001
6.383494e+002;1.801575e-001
6.402780e+002;1.840576e-001
6.422065e+002;1.855489e-001
6.441350e+002;1.827655e-001
6.460636e+002;1.787037e-001
6.479921e+002;1.779428e-001
6.499207e+002;1.833798e-001
6.518492e+002;1.850939e-001
6.537778e+002;1.836677e-001
6.557063e+002;1.844336e-001
6.576349e+002;1.846237e-001
6.595634e+002;1.855549e-001
6.614919e+002;1.884700e-001
6.634205e+002;1.901650e-001
6.653491e+002;1.891200e-001
6.672776e+002;1.881732e-001
6.692062e+002;1.871520e-001
6.711347e+002;1.831306e-001
6.730632e+002;1.777631e-001
6.749918e+002;1.711900e-001
6.769203e+002;1.643398e-001
6.788489e+002;1.590325e-001
6.807775e+002;1.543302e-001
6.827060e+002;1.509581e-001
6.846345e+002;1.489483e-001
6.865631e+002;1.483830e-001
6.884916e+002;1.472355e-001
6.904202e+002;1.456439e-001
6.923488e+002;1.454841e-001
6.942773e+002;1.453976e-001
6.962058e+002;1.442025e-001
6.981344e+002;1.442094e-001
7.000629e+002;1.448114e-001
7.019915e+002;1.441293e-001
7.039200e+002;1.430115e-001
7.058486e+002;1.416457e-001
7.077771e+002;1.405206e-001
7.097057e+002;1.402156e-001
7.116342e+002;1.394744e-001
7.135627e+002;1.380764e-001
7.154913e+002;1.370501e-001
7.174199e+002;1.364514e-001
7.193484e+002;1.356578e-001
7.212770e+002;1.340156e-001
7.232055e+002;1.324575e-001
7.251340e+002;1.315375e-001
7.270626e+002;1.308339e-001
7.289911e+002;1.302633e-001
7.309197e+002;1.283121e-001
7.328483e+002;1.265067e-001
7.347768e+002;1.258586e-001
7.367053e+002;1.254919e-001
7.386339e+002;1.249161e-001
7.405624e+002;1.240610e-001
7.424910e+002;1.234019e-001
7.444196e+002;1.229806e-001
7.463481e+002;1.222248e-001
7.482766e+002;1.205999e-001
7.502052e+002;1.197568e-001
7.521337e+002;1.194209e-001
7.540623e+002;1.185869e-001
7.559908e+002;1.176429e-001
7.579194e+002;1.160361e-001
7.598479e+002;1.146079e-001
7.617765e+002;1.135287e-001
7.637050e+002;1.127898e-001
7.656335e+002;1.119278e-001
7.675621e+002;1.114792e-001
7.694907e+002;1.114592e-001
7.714192e+002;1.106635e-001
7.733478e+002;1.091170e-001
7.752763e+002;1.078764e-001
7.772048e+002;1.072970e-001
7.791334e+002;1.066451e-001
7.810620e+002;1.059849e-001
7.829905e+002;1.053485e-001
7.849191e+002;1.049542e-001
7.868476e+002;1.047920e-001
7.887761e+002;1.041296e-001
7.907047e+002;1.029112e-001
7.926332e+002;1.019577e-001
7.945618e+002;1.011217e-001
7.964903e+002;1.002283e-001
7.984189e+002;9.980349e-002
8.003474e+002;9.970702e-002
8.022759e+002;9.999387e-002
8.042045e+002;1.004886e-001
8.061331e+002;1.005593e-001
8.080616e+002;9.965863e-002
8.099902e+002;9.881151e-002
8.119187e+002;9.797936e-002
8.138472e+002;9.746747e-002
8.157758e+002;9.734520e-002
8.177043e+002;9.753844e-002
8.196329e+002;9.816313e-002
8.215615e+002;9.851958e-002
8.234900e+002;9.827093e-002
8.254185e+002;9.841180e-002
8.273471e+002;9.863396e-002
8.292756e+002;9.807736e-002
8.312042e+002;9.704187e-002
8.331328e+002;9.675266e-002
8.350613e+002;9.658327e-002
8.369898e+002;9.576137e-002
8.389184e+002;9.528452e-002
8.408469e+002;9.505689e-002
8.427755e+002;9.495760e-002
8.447040e+002;9.511377e-002
8.466326e+002;9.470285e-002
8.485611e+002;9.442348e-002
8.504897e+002;9.448694e-002
8.524182e+002;9.424157e-002
8.543467e+002;9.425088e-002
8.562753e+002;9.450091e-002
8.582039e+002;9.502118e-002
8.601324e+002;9.535187e-002
8.620610e+002;9.580970e-002
8.639895e+002;9.621128e-002
8.659180e+002;9.694522e-002
8.678466e+002;9.853695e-002
8.697751e+002;1.003499e-001
8.717037e+002;1.018094e-001
8.736323e+002;1.034842e-001
8.755608e+002;1.058960e-001
8.774893e+002;1.087388e-001
8.794179e+002;1.127434e-001
8.813464e+002;1.171482e-001
8.832750e+002;1.212023e-001
8.852036e+002;1.256813e-001
8.871321e+002;1.303183e-001
8.890606e+002;1.349180e-001
8.909892e+002;1.387030e-001
8.929177e+002;1.409341e-001
8.948463e+002;1.422678e-001
8.967748e+002;1.423486e-001
8.987034e+002;1.404295e-001
9.006319e+002;1.378648e-001
9.025605e+002;1.352145e-001
9.044890e+002;1.322846e-001
9.064175e+002;1.292180e-001
9.083461e+002;1.261241e-001
9.102747e+002;1.234305e-001
9.122032e+002;1.212961e-001
9.141318e+002;1.199401e-001
9.160603e+002;1.195494e-001
9.179888e+002;1.192815e-001
9.199174e+002;1.193830e-001
9.218459e+002;1.200779e-001
9.237745e+002;1.208693e-001
9.257031e+002;1.212382e-001
9.276316e+002;1.220836e-001
9.295601e+002;1.236056e-001
9.314887e+002;1.247268e-001
9.334172e+002;1.260547e-001
9.353458e+002;1.276308e-001
9.372744e+002;1.289950e-001
9.392029e+002;1.305922e-001
9.411314e+002;1.326855e-001
9.430600e+002;1.351819e-001
9.449885e+002;1.377224e-001
9.469171e+002;1.405244e-001
9.488456e+002;1.440609e-001
9.507742e+002;1.480089e-001
9.527027e+002;1.519582e-001
9.546313e+002;1.558391e-001
9.565598e+002;1.599633e-001
9.584883e+002;1.643987e-001
9.604169e+002;1.690512e-001
9.623455e+002;1.738187e-001
9.642740e+002;1.785160e-001
9.662026e+002;1.831901e-001
9.681311e+002;1.879059e-001
9.700596e+002;1.931715e-001
9.719882e+002;1.990165e-001
9.739167e+002;2.056482e-001
9.758453e+002;2.132343e-001
9.777739e+002;2.218005e-001
9.797024e+002;2.318132e-001
9.816309e+002;2.428294e-001
9.835595e+002;2.537418e-001
9.854880e+002;2.645698e-001
9.874166e+002;2.756300e-001
9.893452e+002;2.852616e-001
9.912737e+002;2.928878e-001
9.932022e+002;2.990808e-001
9.951307e+002;3.035153e-001
9.970593e+002;3.058451e-001
9.989879e+002;3.062594e-001
1.000916e+003;3.062505e-001
1.002845e+003;3.073961e-001
1.004773e+003;3.096697e-001
1.006702e+003;3.135896e-001
1.008631e+003;3.181272e-001
1.010559e+003;3.235500e-001
1.012488e+003;3.297501e-001
1.014416e+003;3.350323e-001
1.016345e+003;3.399224e-001
1.018273e+003;3.437244e-001
1.020202e+003;3.448827e-001
1.022130e+003;3.442762e-001
1.024059e+003;3.429250e-001
1.025988e+003;3.409215e-001
1.027916e+003;3.385694e-001
1.029845e+003;3.352524e-001
1.031773e+003;3.297336e-001
1.033702e+003;3.245104e-001
1.035630e+003;3.205362e-001
1.037559e+003;3.170438e-001
1.039487e+003;3.145301e-001
1.041416e+003;3.125822e-001
1.043344e+003;3.107659e-001
1.045273e+003;3.085941e-001
1.047202e+003;3.058712e-001
1.049130e+003;3.036923e-001
1.051059e+003;3.022102e-001
1.052987e+003;3.002137e-001
1.054916e+003;2.977397e-001
1.056844e+003;2.951808e-001
1.058773e+003;2.918988e-001
1.060701e+003;2.884994e-001
1.062630e+003;2.845073e-001
1.064558e+003;2.798678e-001
1.066487e+003;2.746925e-001
1.068416e+003;2.697077e-001
1.070344e+003;2.650497e-001
1.072273e+003;2.604584e-001
1.074201e+003;2.560584e-001
1.076130e+003;2.515007e-001
1.078058e+003;2.469507e-001
1.079987e+003;2.427014e-001
1.081915e+003;2.388836e-001
1.083844e+003;2.353421e-001
1.085773e+003;2.311135e-001
1.087701e+003;2.265036e-001
1.089630e+003;2.226952e-001
1.091558e+003;2.184593e-001
1.093487e+003;2.141808e-001
1.095415e+003;2.104863e-001
1.097344e+003;2.064679e-001
1.099272e+003;2.021702e-001
1.101201e+003;1.977076e-001
1.103129e+003;1.935184e-001
1.105058e+003;1.897540e-001
1.106987e+003;1.869668e-001
1.108915e+003;1.845778e-001
1.110844e+003;1.822632e-001
1.112772e+003;1.798879e-001
1.114701e+003;1.770153e-001
1.116629e+003;1.737903e-001
1.118558e+003;1.706308e-001
1.120486e+003;1.666702e-001
1.122415e+003;1.620514e-001
1.124344e+003;1.573422e-001
1.126272e+003;1.526724e-001
1.128201e+003;1.479690e-001
1.130129e+003;1.438024e-001
1.132058e+003;1.401817e-001
1.133986e+003;1.366391e-001
1.135915e+003;1.330925e-001
1.137843e+003;1.302456e-001
1.139772e+003;1.285007e-001
1.141700e+003;1.275972e-001
1.143629e+003;1.276164e-001
1.145557e+003;1.279351e-001
1.147486e+003;1.283330e-001
1.149415e+003;1.296911e-001
1.151343e+003;1.316755e-001
1.153272e+003;1.337579e-001
1.155200e+003;1.352672e-001
1.157129e+003;1.355740e-001
1.159057e+003;1.348277e-001
1.160986e+003;1.325931e-001
1.162914e+003;1.287396e-001
1.164843e+003;1.237519e-001
1.166771e+003;1.180627e-001
1.168700e+003;1.122434e-001
1.170629e+003;1.068659e-001
1.172557e+003;1.019849e-001
1.174486e+003;9.761576e-002
1.176414e+003;9.420285e-002
1.178343e+003;9.167090e-002
1.180271e+003;8.912894e-002
1.182200e+003;8.675578e-002
1.184128e+003;8.562355e-002
1.186057e+003;8.539940e-002
1.187986e+003;8.551312e-002
1.189914e+003;8.663575e-002
1.191843e+003;8.880971e-002
1.193771e+003;9.105131e-002
1.195700e+003;9.296934e-002
1.197628e+003;9.410012e-002
1.199557e+003;9.435850e-002
1.201485e+003;9.419256e-002
1.203414e+003;9.304404e-002
1.205343e+003;9.128045e-002
1.207271e+003;8.971206e-002
1.209200e+003;8.838018e-002
1.211128e+003;8.770448e-002
1.213057e+003;8.746591e-002
1.214985e+003;8.760559e-002
1.216914e+003;8.870333e-002
1.218842e+003;9.017341e-002
1.220771e+003;9.164091e-002
1.222699e+003;9.338605e-002
1.224628e+003;9.526814e-002
1.226557e+003;9.643869e-002
1.228485e+003;9.709498e-002
1.230414e+003;9.759187e-002
1.232342e+003;9.788624e-002
1.234271e+003;9.800498e-002
1.236199e+003;9.797110e-002
1.238128e+003;9.793739e-002
1.240056e+003;9.804875e-002
1.241985e+003;9.783813e-002
1.243913e+003;9.766090e-002
1.245842e+003;9.777804e-002
1.247771e+003;9.780514e-002
1.249699e+003;9.803874e-002
1.251628e+003;9.888290e-002
1.253556e+003;1.002032e-001
1.255485e+003;1.010992e-001
1.257413e+003;1.014380e-001
1.259342e+003;1.020591e-001
1.261270e+003;1.023695e-001
1.263199e+003;1.018309e-001
1.265127e+003;1.013467e-001
1.267056e+003;1.006526e-001
1.268985e+003;9.963366e-002
1.270913e+003;9.870756e-002
1.272842e+003;9.813077e-002
1.274770e+003;9.778517e-002
1.276699e+003;9.712601e-002
1.278627e+003;9.637552e-002
1.280556e+003;9.588452e-002
1.282484e+003;9.512730e-002
1.284413e+003;9.446042e-002
1.286342e+003;9.462441e-002
1.288270e+003;9.546054e-002
1.290199e+003;9.643195e-002
1.292127e+003;9.780394e-002
1.294056e+003;9.894332e-002
1.295984e+003;9.991879e-002
1.297913e+003;1.009078e-001
1.299841e+003;1.019028e-001
1.301770e+003;1.030203e-001
1.303698e+003;1.043168e-001
1.305627e+003;1.056306e-001
1.307556e+003;1.070058e-001
1.309484e+003;1.084485e-001
1.311413e+003;1.095910e-001
1.313341e+003;1.100036e-001
1.315270e+003;1.100858e-001
1.317198e+003;1.099334e-001
1.319127e+003;1.090910e-001
1.321055e+003;1.078913e-001
1.322984e+003;1.070799e-001
1.324912e+003;1.069030e-001
1.326841e+003;1.069692e-001
1.328770e+003;1.072248e-001
1.330698e+003;1.072190e-001
1.332627e+003;1.070332e-001
1.334555e+003;1.071511e-001
1.336484e+003;1.071855e-001
1.338412e+003;1.068923e-001
1.340341e+003;1.061735e-001
1.342269e+003;1.058503e-001
1.344198e+003;1.058619e-001
1.346126e+003;1.057032e-001
1.348055e+003;1.054850e-001
1.349984e+003;1.054563e-001
1.351912e+003;1.057585e-001
1.353841e+003;1.063303e-001
1.355769e+003;1.069829e-001
1.357698e+003;1.074538e-001
1.359626e+003;1.078170e-001
1.361555e+003;1.083060e-001
1.363483e+003;1.086342e-001
1.365412e+003;1.086738e-001
1.367341e+003;1.084709e-001
1.369269e+003;1.077865e-001
1.371198e+003;1.068524e-001
1.373126e+003;1.058382e-001
1.375055e+003;1.048119e-001
1.376983e+003;1.035325e-001
1.378912e+003;1.018902e-001
1.380840e+003;1.000381e-001
1.382769e+003;9.833001e-002
1.384698e+003;9.668476e-002
1.386626e+003;9.534197e-002
1.388555e+003;9.439737e-002
1.390483e+003;9.367158e-002
1.392412e+003;9.321226e-002
1.394340e+003;9.280474e-002
1.396269e+003;9.264087e-002
1.398197e+003;9.269004e-002
1.400126e+003;9.262955e-002
1.402054e+003;9.237245e-002
1.403983e+003;9.234326e-002
1.405911e+003;9.243102e-002
1.407840e+003;9.231880e-002
1.409769e+003;9.195621e-002
1.411697e+003;9.201658e-002
1.413626e+003;9.247418e-002
1.415554e+003;9.246275e-002
1.417483e+003;9.220164e-002
1.419411e+003;9.202977e-002
1.421340e+003;9.188116e-002
1.423268e+003;9.175190e-002
1.425197e+003;9.151605e-002
1.427125e+003;9.115111e-002
1.429054e+003;9.066489e-002
1.430983e+003;9.022170e-002
1.432911e+003;8.982044e-002
1.434840e+003;8.911682e-002
1.436768e+003;8.829385e-002
1.438697e+003;8.785380e-002
1.440625e+003;8.751394e-002
1.442554e+003;8.673656e-002
1.444482e+003;8.578925e-002
1.446411e+003;8.515920e-002
1.448340e+003;8.430281e-002
1.450268e+003;8.324722e-002
1.452197e+003;8.230336e-002
1.454125e+003;8.123124e-002
1.456054e+003;8.011327e-002
1.457982e+003;7.919404e-002
1.459911e+003;7.861838e-002
1.461839e+003;7.787709e-002
1.463768e+003;7.679234e-002
1.465697e+003;7.547942e-002
1.467625e+003;7.421733e-002
1.469554e+003;7.298365e-002
1.471482e+003;7.160718e-002
1.473411e+003;7.014591e-002
1.475339e+003;6.847512e-002
1.477268e+003;6.661771e-002
1.479196e+003;6.513326e-002
1.481125e+003;6.361892e-002
1.483053e+003;6.192387e-002
1.484982e+003;6.062039e-002
1.486911e+003;5.947946e-002
1.488839e+003;5.810943e-002
1.490768e+003;5.666154e-002
1.492696e+003;5.538846e-002
1.494625e+003;5.445994e-002
1.496553e+003;5.348877e-002
1.498482e+003;5.279642e-002
1.500410e+003;5.210684e-002
1.502339e+003;5.134888e-002
1.504267e+003;5.046750e-002
1.506196e+003;4.959453e-002
1.508125e+003;4.912385e-002
1.510053e+003;4.878094e-002
1.511982e+003;4.828986e-002
1.513910e+003;4.779552e-002
1.515839e+003;4.722789e-002
1.517767e+003;4.680166e-002
1.519696e+003;4.636570e-002
1.521624e+003;4.613560e-002
1.523553e+003;4.618196e-002
1.525481e+003;4.606446e-002
1.527410e+003;4.577708e-002
1.529339e+003;4.557842e-002
1.531267e+003;4.537239e-002
1.533196e+003;4.508315e-002
1.535124e+003;4.499619e-002
1.537053e+003;4.461267e-002
1.538981e+003;4.389904e-002
1.540910e+003;4.408612e-002
1.542838e+003;4.463408e-002
1.544767e+003;4.473250e-002
1.546695e+003;4.468619e-002
1.548624e+003;4.469346e-002
1.550553e+003;4.470139e-002
1.552481e+003;4.488517e-002
1.554410e+003;4.508381e-002
1.556338e+003;4.482063e-002
1.558267e+003;4.449714e-002
1.560195e+003;4.462211e-002
1.562124e+003;4.489693e-002
1.564052e+003;4.512524e-002
1.565981e+003;4.545740e-002
1.567910e+003;4.562457e-002
1.569838e+003;4.559487e-002
1.571767e+003;4.573257e-002
1.573695e+003;4.586114e-002
1.575624e+003;4.586468e-002
1.577552e+003;4.624671e-002
1.579481e+003;4.693823e-002
1.581409e+003;4.730806e-002
1.583338e+003;4.764241e-002
1.585266e+003;4.820318e-002
1.587195e+003;4.857220e-002
1.589124e+003;4.887160e-002
1.591052e+003;4.917543e-002
1.592981e+003;4.953365e-002
1.594909e+003;5.018951e-002
1.596838e+003;5.084997e-002
1.598766e+003;5.129995e-002
1.600695e+003;5.163575e-002
1.602623e+003;5.211850e-002
1.604552e+003;5.269922e-002
1.606480e+003;5.328622e-002
1.608409e+003;5.391423e-002
1.610338e+003;5.444943e-002
1.612266e+003;5.494979e-002
1.614195e+003;5.535319e-002
1.616123e+003;5.571704e-002
1.618052e+003;5.616355e-002
1.619980e+003;5.670768e-002
1.621909e+003;5.721069e-002
1.623837e+003;5.775772e-002
1.625766e+003;5.840262e-002
1.627694e+003;5.890612e-002
1.629623e+003;5.918497e-002
1.631552e+003;5.937016e-002
1.633480e+003;5.946153e-002
1.635409e+003;5.957287e-002
1.637337e+003;5.992065e-002
1.639266e+003;6.026219e-002
1.641194e+003;6.038566e-002
1.643123e+003;6.048132e-002
1.645051e+003;6.040138e-002
1.646980e+003;6.017785e-002
1.648909e+003;5.985394e-002
1.650837e+003;5.923874e-002
1.652766e+003;5.859742e-002
1.654694e+003;5.865597e-002
1.656623e+003;5.873843e-002
1.658551e+003;5.828605e-002
1.660480e+003;5.751932e-002
1.662408e+003;5.683531e-002
1.664337e+003;5.641487e-002
1.666266e+003;5.592239e-002
1.668194e+003;5.521178e-002
1.670123e+003;5.428900e-002
1.672051e+003;5.354657e-002
1.673980e+003;5.275552e-002
1.675908e+003;5.185953e-002
1.677837e+003;5.123716e-002
1.679765e+003;5.051678e-002
1.681694e+003;4.954071e-002
1.683622e+003;4.860796e-002
1.685551e+003;4.781298e-002
1.687479e+003;4.727706e-002
1.689408e+003;4.676763e-002
1.691337e+003;4.637894e-002
1.693265e+003;4.588099e-002
1.695194e+003;4.523488e-002
1.697122e+003;4.510825e-002
1.699051e+003;4.496991e-002
1.700979e+003;4.451758e-002
1.702908e+003;4.430772e-002
1.704836e+003;4.422114e-002
1.706765e+003;4.409055e-002
1.708693e+003;4.403778e-002
1.710622e+003;4.399037e-002
1.712551e+003;4.376409e-002
1.714479e+003;4.340118e-002
1.716408e+003;4.292342e-002
1.718336e+003;4.247468e-002
1.720265e+003;4.229290e-002
1.722193e+003;4.190892e-002
1.724122e+003;4.121786e-002
1.726050e+003;4.055642e-002
1.727979e+003;3.974872e-002
1.729908e+003;3.895361e-002
1.731836e+003;3.848505e-002
1.733765e+003;3.779700e-002
1.735693e+003;3.705344e-002
1.737622e+003;3.636076e-002
1.739550e+003;3.538465e-002
1.741479e+003;3.446919e-002
1.743407e+003;3.376672e-002
1.745336e+003;3.307078e-002
1.747265e+003;3.234848e-002
1.749193e+003;3.198831e-002
1.751122e+003;3.169965e-002
1.753050e+003;3.148089e-002
1.754979e+003;3.115686e-002
1.756907e+003;3.093119e-002
1.758836e+003;3.100157e-002
1.760764e+003;3.084001e-002
1.762693e+003;3.061411e-002
1.764621e+003;3.065350e-002
1.766550e+003;3.074568e-002
1.768479e+003;3.074771e-002
1.770407e+003;3.049296e-002
1.772336e+003;3.020039e-002
1.774264e+003;3.027268e-002
1.776193e+003;3.040624e-002
1.778121e+003;3.032050e-002
1.780050e+003;3.012527e-002
1.781978e+003;3.006660e-002
1.783907e+003;2.995075e-002
1.785835e+003;2.982325e-002
1.787764e+003;2.963747e-002
1.789693e+003;2.934952e-002
1.791621e+003;2.909258e-002
1.793550e+003;2.893955e-002
1.795478e+003;2.908783e-002
1.797407e+003;2.916040e-002
1.799335e+003;2.900355e-002
1.801264e+003;2.883281e-002
1.803192e+003;2.888519e-002
1.805121e+003;2.887825e-002
1.807049e+003;2.874820e-002
1.808978e+003;2.847480e-002
1.810907e+003;2.821997e-002
1.812835e+003;2.836369e-002
1.814764e+003;2.853304e-002
1.816692e+003;2.839935e-002
1.818621e+003;2.836129e-002
1.820549e+003;2.831552e-002
1.822478e+003;2.808174e-002
1.824406e+003;2.785296e-002
1.826335e+003;2.793868e-002
1.828264e+003;2.787734e-002
1.830192e+003;2.757724e-002
1.832121e+003;2.747578e-002
1.834049e+003;2.752301e-002
1.835978e+003;2.761760e-002
1.837906e+003;2.766869e-002
1.839835e+003;2.745192e-002
1.841763e+003;2.730194e-002
1.843692e+003;2.714926e-002
1.845620e+003;2.695961e-002
1.847549e+003;2.695696e-002
1.849478e+003;2.701630e-002
1.851406e+003;2.692495e-002
1.853335e+003;2.675478e-002
1.855263e+003;2.671063e-002
1.857192e+003;2.685276e-002
1.859120e+003;2.675993e-002
1.861049e+003;2.660863e-002
1.862977e+003;2.658539e-002
1.864906e+003;2.671644e-002
1.866834e+003;2.664390e-002
1.868763e+003;2.640257e-002
1.870692e+003;2.642443e-002
1.872620e+003;2.650300e-002
1.874549e+003;2.627403e-002
1.876477e+003;2.606358e-002
1.878406e+003;2.621124e-002
1.880334e+003;2.633303e-002
1.882263e+003;2.617794e-002
1.884191e+003;2.601387e-002
1.886120e+003;2.594602e-002
1.888048e+003;2.597317e-002
1.889977e+003;2.608360e-002
1.891906e+003;2.615764e-002
1.893834e+003;2.606035e-002
1.895763e+003;2.604233e-002
1.897691e+003;2.608047e-002
1.899620e+003;2.592871e-002
1.901548e+003;2.587079e-002
1.903477e+003;2.594074e-002
1.905405e+003;2.597876e-002
1.907334e+003;2.601120e-002
1.909262e+003;2.598541e-002
1.911191e+003;2.608290e-002
1.913120e+003;2.630205e-002
1.915048e+003;2.642334e-002
1.916977e+003;2.663474e-002
1.918905e+003;2.687024e-002
1.920834e+003;2.693102e-002
1.922762e+003;2.693317e-002
1.924691e+003;2.689009e-002
1.926619e+003;2.701232e-002
1.928548e+003;2.717472e-002
1.930477e+003;2.716703e-002
1.932405e+003;2.697494e-002
1.934334e+003;2.706687e-002
1.936262e+003;2.719649e-002
1.938191e+003;2.720742e-002
1.940119e+003;2.751285e-002
1.942048e+003;2.762512e-002
1.943976e+003;2.750388e-002
1.945905e+003;2.752760e-002
1.947833e+003;2.782636e-002
1.949762e+003;2.797819e-002
1.951691e+003;2.794271e-002
1.953619e+003;2.797027e-002
1.955548e+003;2.819444e-002
1.957476e+003;2.829961e-002
1.959405e+003;2.818670e-002
1.961333e+003;2.818171e-002
1.963262e+003;2.833508e-002
1.965190e+003;2.857554e-002
1.967119e+003;2.870688e-002
1.969047e+003;2.858442e-002
1.970976e+003;2.859047e-002
1.972905e+003;2.890112e-002
1.974833e+003;2.902112e-002
1.976762e+003;2.894302e-002
1.978690e+003;2.919480e-002
1.980619e+003;2.941589e-002
1.982547e+003;2.947950e-002
1.984476e+003;2.966628e-002
1.986404e+003;2.967391e-002
1.988333e+003;2.972940e-002
1.990261e+003;2.981999e-002
1.992190e+003;2.982553e-002
1.994119e+003;2.989612e-002
1.996047e+003;2.979075e-002
1.997976e+003;2.984636e-002
1.999904e+003;2.991941e-002
2.001833e+003;2.964932e-002
2.003761e+003;2.956983e-002
2.005690e+003;2.988001e-002
2.007618e+003;3.024717e-002
2.009547e+003;3.049274e-002
2.011476e+003;3.039167e-002
2.013404e+003;3.053121e-002
2.015333e+003;3.084794e-002
2.017261e+003;3.093763e-002
2.019190e+003;3.094731e-002
2.021118e+003;3.108674e-002
2.023047e+003;3.108741e-002
2.024975e+003;3.109546e-002
2.026904e+003;3.125665e-002
2.028833e+003;3.132224e-002
2.030761e+003;3.141681e-002
2.032690e+003;3.166732e-002
2.034618e+003;3.169772e-002
2.036547e+003;3.150134e-002
2.038475e+003;3.152753e-002
2.040404e+003;3.175094e-002
2.042332e+003;3.191606e-002
2.044261e+003;3.196170e-002
2.046189e+003;3.206510e-002
2.048118e+003;3.229744e-002
2.050047e+003;3.229412e-002
2.051975e+003;3.212383e-002
2.053904e+003;3.214284e-002
2.055832e+003;3.208073e-002
2.057761e+003;3.179654e-002
2.059689e+003;3.181386e-002
2.061618e+003;3.206272e-002
2.063546e+003;3.194401e-002
2.065475e+003;3.167452e-002
2.067404e+003;3.175589e-002
2.069332e+003;3.205466e-002
2.071260e+003;3.223301e-002
2.073189e+003;3.235112e-002
2.075118e+003;3.226353e-002
2.077046e+003;3.210520e-002
2.078975e+003;3.209361e-002
2.080903e+003;3.209425e-002
2.082832e+003;3.204445e-002
2.084760e+003;3.208112e-002
2.086689e+003;3.220144e-002
2.088617e+003;3.237850e-002
2.090546e+003;3.243880e-002
2.092475e+003;3.229826e-002
2.094403e+003;3.226735e-002
2.096332e+003;3.235994e-002
2.098260e+003;3.231692e-002
2.100189e+003;3.213096e-002
2.102117e+003;3.221400e-002
2.104046e+003;3.238921e-002
2.105974e+003;3.255232e-002
2.107903e+003;3.269083e-002
2.109832e+003;3.279202e-002
2.111760e+003;3.290084e-002
2.113688e+003;3.294813e-002
2.115617e+003;3.285523e-002
2.117546e+003;3.271331e-002
2.119474e+003;3.276782e-002
2.121403e+003;3.285623e-002
2.123331e+003;3.279855e-002
2.125260e+003;3.278005e-002
2.127188e+003;3.277790e-002
2.129117e+003;3.296257e-002
2.131045e+003;3.316855e-002
2.132974e+003;3.322886e-002
2.134903e+003;3.316551e-002
2.136831e+003;3.306800e-002
2.138760e+003;3.305412e-002
2.140688e+003;3.287929e-002
2.142617e+003;3.254374e-002
2.144545e+003;3.232699e-002
2.146474e+003;3.233737e-002
2.148402e+003;3.259246e-002
2.150331e+003;3.281413e-002
2.152260e+003;3.252028e-002
2.154188e+003;3.226753e-002
2.156117e+003;3.235897e-002
2.158045e+003;3.231246e-002
2.159974e+003;3.210599e-002
2.161902e+003;3.202326e-002
2.163831e+003;3.213899e-002
2.165759e+003;3.219062e-002
2.167688e+003;3.215708e-002
2.169616e+003;3.204805e-002
2.171545e+003;3.188385e-002
2.173474e+003;3.172299e-002
2.175402e+003;3.170849e-002
2.177331e+003;3.162933e-002
2.179259e+003;3.144911e-002
2.181188e+003;3.125156e-002
2.183116e+003;3.101883e-002
2.185045e+003;3.085950e-002
2.186973e+003;3.054539e-002
2.188902e+003;3.036157e-002
2.190831e+003;3.055925e-002
2.192759e+003;3.060675e-002
2.194688e+003;3.044629e-002
2.196616e+003;3.039256e-002
2.198545e+003;3.048468e-002
2.200473e+003;3.037376e-002
2.202402e+003;3.015517e-002
2.204330e+003;3.008255e-002
2.206259e+003;3.026173e-002
2.208188e+003;3.022635e-002
2.210116e+003;2.988270e-002
2.212044e+003;2.962066e-002
2.213973e+003;2.971222e-002
2.215902e+003;2.978596e-002
2.217830e+003;2.976016e-002
2.219759e+003;2.952971e-002
2.221687e+003;2.929096e-002
2.223616e+003;2.921610e-002
2.225544e+003;2.934583e-002
2.227473e+003;2.949021e-002
2.229401e+003;2.926452e-002
2.231330e+003;2.914268e-002
2.233259e+003;2.905074e-002
2.235187e+003;2.902431e-002
2.237116e+003;2.918105e-002
2.239044e+003;2.926313e-002
2.240973e+003;2.911398e-002
2.242901e+003;2.899112e-002
2.244830e+003;2.874572e-002
2.246758e+003;2.840561e-002
2.248687e+003;2.833936e-002
2.250615e+003;2.854359e-002
2.252544e+003;2.870773e-002
2.254473e+003;2.865089e-002
2.256401e+003;2.828447e-002
2.258330e+003;2.797052e-002
2.260258e+003;2.781502e-002
2.262187e+003;2.777263e-002
2.264115e+003;2.770821e-002
2.266044e+003;2.771061e-002
2.267972e+003;2.789723e-002
2.269901e+003;2.781269e-002
2.271830e+003;2.767417e-002
2.273758e+003;2.765746e-002
2.275687e+003;2.741274e-002
2.277615e+003;2.725053e-002
2.279544e+003;2.739736e-002
2.281472e+003;2.758437e-002
2.283401e+003;2.730889e-002
2.285329e+003;2.714457e-002
2.287258e+003;2.733828e-002
2.289187e+003;2.723882e-002
2.291115e+003;2.693743e-002
2.293043e+003;2.689552e-002
2.294972e+003;2.706451e-002
2.296901e+003;2.702177e-002
2.298829e+003;2.686161e-002
2.300758e+003;2.698097e-002
2.302686e+003;2.720912e-002
2.304615e+003;2.709752e-002
2.306543e+003;2.677519e-002
2.308472e+003;2.685572e-002
2.310400e+003;2.734583e-002
2.312329e+003;2.740082e-002
2.314258e+003;2.722199e-002
2.316186e+003;2.740925e-002
2.318115e+003;2.740614e-002
2.320043e+003;2.711702e-002
2.321972e+003;2.725198e-002
2.323900e+003;2.732050e-002
2.325829e+003;2.693870e-002
2.327757e+003;2.700192e-002
2.329686e+003;2.733902e-002
2.331615e+003;2.733027e-002
2.333543e+003;2.711437e-002
2.335472e+003;2.711078e-002
2.337400e+003;2.740226e-002
2.339329e+003;2.763024e-002
2.341257e+003;2.776454e-002
2.343186e+003;2.792695e-002
2.345114e+003;2.816524e-002
2.347043e+003;2.839110e-002
2.348971e+003;2.834403e-002
2.350900e+003;2.834799e-002
2.352829e+003;2.864285e-002
2.354757e+003;2.860134e-002
2.356686e+003;2.834307e-002
2.358614e+003;2.847636e-002
2.360543e+003;2.872993e-002
2.362471e+003;2.864629e-002
2.364400e+003;2.850091e-002
2.366328e+003;2.852703e-002
2.368257e+003;2.885916e-002
2.370186e+003;2.927192e-002
2.372114e+003;2.935257e-002
2.374042e+003;2.919144e-002
2.375971e+003;2.906700e-002
2.377900e+003;2.922202e-002
2.379828e+003;2.943241e-002
2.381757e+003;2.955004e-002
2.383685e+003;2.965078e-002
2.385614e+003;2.985324e-002
2.387542e+003;2.983972e-002
2.389471e+003;2.987560e-002
2.391399e+003;2.989218e-002
2.393328e+003;2.996346e-002
2.395257e+003;3.004878e-002
2.397185e+003;3.017929e-002
2.399114e+003;3.035688e-002
2.401042e+003;3.047138e-002
2.402971e+003;3.051709e-002
2.404899e+003;3.061880e-002
2.406828e+003;3.066890e-002
2.408756e+003;3.075055e-002
2.410685e+003;3.097271e-002
2.412614e+003;3.113675e-002
2.414542e+003;3.124131e-002
2.416471e+003;3.128375e-002
2.418399e+003;3.133927e-002
2.420328e+003;3.153348e-002
2.422256e+003;3.176135e-002
2.424185e+003;3.193175e-002
2.426113e+003;3.198275e-002
2.428042e+003;3.210078e-002
2.429970e+003;3.239060e-002
2.431899e+003;3.255124e-002
2.433828e+003;3.254975e-002
2.435756e+003;3.250600e-002
2.437685e+003;3.275160e-002
2.439613e+003;3.326691e-002
2.441542e+003;3.355204e-002
2.443470e+003;3.344574e-002
2.445399e+003;3.353700e-002
2.447327e+003;3.382692e-002
2.449256e+003;3.397319e-002
2.451185e+003;3.417149e-002
2.453113e+003;3.435560e-002
2.455042e+003;3.442636e-002
2.456970e+003;3.474792e-002
2.458899e+003;3.491680e-002
2.460827e+003;3.461915e-002
2.462756e+003;3.443673e-002
2.464684e+003;3.461316e-002
2.466613e+003;3.499204e-002
2.468542e+003;3.535905e-002
2.470470e+003;3.560290e-002
2.472398e+003;3.585678e-002
2.474327e+003;3.592936e-002
2.476256e+003;3.574412e-002
2.478184e+003;3.570526e-002
2.480113e+003;3.600603e-002
2.482041e+003;3.640666e-002
2.483970e+003;3.658650e-002
2.485898e+003;3.663004e-002
2.487827e+003;3.669609e-002
2.489755e+003;3.675047e-002
2.491684e+003;3.688196e-002
2.493613e+003;3.691302e-002
2.495541e+003;3.712757e-002
2.497470e+003;3.736562e-002
2.499398e+003;3.725224e-002
2.501327e+003;3.730264e-002
2.503255e+003;3.728170e-002
2.505184e+003;3.725166e-002
2.507112e+003;3.741477e-002
2.509041e+003;3.780675e-002
2.510969e+003;3.811332e-002
2.512898e+003;3.802033e-002
2.514827e+003;3.785917e-002
2.516755e+003;3.778514e-002
2.518684e+003;3.804254e-002
2.520612e+003;3.804510e-002
2.522541e+003;3.813774e-002
2.524469e+003;3.820684e-002
2.526398e+003;3.810591e-002
2.528326e+003;3.815706e-002
2.530255e+003;3.841624e-002
2.532184e+003;3.856562e-002
2.534112e+003;3.858937e-002
2.536041e+003;3.866687e-002
2.537969e+003;3.881826e-002
2.539898e+003;3.887700e-002
2.541826e+003;3.890403e-002
2.543755e+003;3.901824e-002
2.545683e+003;3.901345e-002
2.547612e+003;3.892154e-002
2.549541e+003;3.916061e-002
2.551469e+003;3.928003e-002
2.553397e+003;3.903890e-002
2.555326e+003;3.920829e-002
2.557255e+003;3.945264e-002
2.559183e+003;3.955251e-002
2.561112e+003;4.005256e-002
2.563040e+003;4.041715e-002
2.564969e+003;4.014337e-002
2.566897e+003;4.006905e-002
2.568826e+003;4.011284e-002
2.570754e+003;4.000118e-002
2.572683e+003;3.996183e-002
2.574612e+003;4.011019e-002
2.576540e+003;4.025317e-002
2.578469e+003;4.038471e-002
2.580397e+003;4.056758e-002
2.582326e+003;4.073517e-002
2.584254e+003;4.082391e-002
2.586183e+003;4.095504e-002
2.588111e+003;4.110202e-002
2.590040e+003;4.140083e-002
2.591969e+003;4.154435e-002
2.593897e+003;4.124926e-002
2.595826e+003;4.113746e-002
2.597754e+003;4.155353e-002
2.599683e+003;4.197764e-002
2.601611e+003;4.200643e-002
2.603540e+003;4.202337e-002
2.605468e+003;4.204429e-002
2.607397e+003;4.222344e-002
2.609325e+003;4.240157e-002
2.611254e+003;4.260002e-002
2.613183e+003;4.274412e-002
2.615111e+003;4.277140e-002
2.617040e+003;4.287364e-002
2.618968e+003;4.321550e-002
2.620897e+003;4.360558e-002
2.622825e+003;4.365413e-002
2.624754e+003;4.353654e-002
2.626682e+003;4.365581e-002
2.628611e+003;4.401303e-002
2.630540e+003;4.432710e-002
2.632468e+003;4.448965e-002
2.634396e+003;4.482577e-002
2.636325e+003;4.508951e-002
2.638254e+003;4.507429e-002
2.640182e+003;4.507594e-002
2.642111e+003;4.526804e-002
2.644039e+003;4.577358e-002
2.645968e+003;4.611567e-002
2.647896e+003;4.612171e-002
2.649825e+003;4.615672e-002
2.651753e+003;4.631966e-002
2.653682e+003;4.637042e-002
2.655611e+003;4.643413e-002
2.657539e+003;4.678885e-002
2.659468e+003;4.723842e-002
2.661396e+003;4.753678e-002
2.663325e+003;4.748733e-002
2.665253e+003;4.740664e-002
2.667182e+003;4.758928e-002
2.669110e+003;4.788570e-002
2.671039e+003;4.818555e-002
2.672968e+003;4.830556e-002
2.674896e+003;4.866273e-002
2.676825e+003;4.903715e-002
2.678753e+003;4.910096e-002
2.680682e+003;4.916170e-002
2.682610e+003;4.926275e-002
2.684539e+003;4.943733e-002
2.686467e+003;4.956853e-002
2.688396e+003;4.955516e-002
2.690324e+003;4.979848e-002
2.692253e+003;5.034173e-002
2.694182e+003;5.071127e-002
2.696110e+003;5.091016e-002
2.698039e+003;5.099690e-002
2.699967e+003;5.117494e-002
2.701896e+003;5.124533e-002
2.703824e+003;5.109782e-002
2.705753e+003;5.125827e-002
2.707681e+003;5.168845e-002
2.709610e+003;5.201954e-002
2.711539e+003;5.205241e-002
2.713467e+003;5.218037e-002
2.715396e+003;5.225753e-002
2.717324e+003;5.226048e-002
2.719253e+003;5.254168e-002
2.721181e+003;5.279900e-002
2.723110e+003;5.265945e-002
2.725038e+003;5.264449e-002
2.726967e+003;5.277105e-002
2.728896e+003;5.302611e-002
2.730824e+003;5.340056e-002
2.732752e+003;5.367226e-002
2.734681e+003;5.373653e-002
2.736610e+003;5.393235e-002
2.738538e+003;5.400577e-002
2.740467e+003;5.395918e-002
2.742395e+003;5.397692e-002
2.744324e+003;5.403876e-002
2.746252e+003;5.432392e-002
2.748181e+003;5.454894e-002
2.750109e+003;5.448924e-002
2.752038e+003;5.435929e-002
2.753967e+003;5.453913e-002
2.755895e+003;5.481523e-002
2.757824e+003;5.501936e-002
2.759752e+003;5.503128e-002
2.761681e+003;5.516994e-002
2.763609e+003;5.552170e-002
2.765538e+003;5.567425e-002
2.767466e+003;5.585625e-002
2.769395e+003;5.599073e-002
2.771323e+003;5.625108e-002
2.773252e+003;5.650060e-002
2.775181e+003;5.663908e-002
2.777109e+003;5.699321e-002
2.779038e+003;5.743002e-002
2.780966e+003;5.752756e-002
2.782895e+003;5.755540e-002
2.784823e+003;5.770092e-002
2.786752e+003;5.803516e-002
2.788680e+003;5.830060e-002
2.790609e+003;5.870558e-002
2.792538e+003;5.924565e-002
2.794466e+003;5.957777e-002
2.796395e+003;5.970196e-002
2.798323e+003;5.998767e-002
2.800252e+003;6.035646e-002
2.802180e+003;6.068097e-002
2.804109e+003;6.110465e-002
2.806037e+003;6.155260e-002
2.807966e+003;6.162855e-002
2.809895e+003;6.151358e-002
2.811823e+003;6.209639e-002
2.813751e+003;6.283794e-002
2.815680e+003;6.315254e-002
2.817609e+003;6.335431e-002
2.819537e+003;6.375678e-002
2.821466e+003;6.413980e-002
2.823394e+003;6.451597e-002
2.825323e+003;6.498073e-002
2.827251e+003;6.530938e-002
2.829180e+003;6.555665e-002
2.831108e+003;6.629846e-002
2.833037e+003;6.687222e-002
2.834966e+003;6.732915e-002
2.836894e+003;6.786399e-002
2.838823e+003;6.836151e-002
2.840751e+003;6.913852e-002
2.842680e+003;6.997994e-002
2.844608e+003;7.078522e-002
2.846537e+003;7.144970e-002
2.848465e+003;7.223132e-002
2.850394e+003;7.287516e-002
2.852323e+003;7.310671e-002
2.854251e+003;7.368817e-002
2.856180e+003;7.449117e-002
2.858108e+003;7.525299e-002
2.860037e+003;7.636561e-002
2.861965e+003;7.761934e-002
2.863894e+003;7.876100e-002
2.865822e+003;7.984507e-002
2.867751e+003;8.096694e-002
2.869679e+003;8.186590e-002
2.871608e+003;8.226976e-002
2.873536e+003;8.312800e-002
2.875465e+003;8.400109e-002
2.877394e+003;8.448748e-002
2.879322e+003;8.482868e-002
2.881251e+003;8.529188e-002
2.883179e+003;8.588146e-002
2.885108e+003;8.596493e-002
2.887036e+003;8.585905e-002
2.888965e+003;8.598602e-002
2.890893e+003;8.642866e-002
2.892822e+003;8.654018e-002
2.894750e+003;8.593396e-002
2.896679e+003;8.525733e-002
2.898608e+003;8.501587e-002
2.900536e+003;8.501253e-002
2.902465e+003;8.454149e-002
2.904393e+003;8.384002e-002
2.906322e+003;8.352397e-002
2.908250e+003;8.350814e-002
2.910179e+003;8.321335e-002
2.912107e+003;8.255257e-002
2.914036e+003;8.171857e-002
2.915965e+003;8.100715e-002
2.917893e+003;8.047343e-002
2.919822e+003;7.966030e-002
2.921750e+003;7.854155e-002
2.923679e+003;7.774787e-002
2.925607e+003;7.717418e-002
2.927536e+003;7.627124e-002
2.929464e+003;7.521485e-002
2.931393e+003;7.437979e-002
2.933322e+003;7.391154e-002
2.935250e+003;7.345632e-002
2.937178e+003;7.275954e-002
2.939107e+003;7.196958e-002
2.941036e+003;7.124083e-002
2.942964e+003;7.042284e-002
2.944893e+003;6.962027e-002
2.946821e+003;6.921953e-002
2.948750e+003;6.868073e-002
2.950678e+003;6.764346e-002
2.952607e+003;6.671077e-002
2.954535e+003;6.607839e-002
2.956464e+003;6.539218e-002
2.958393e+003;6.482144e-002
2.960321e+003;6.432204e-002
2.962250e+003;6.350259e-002
2.964178e+003;6.260663e-002
2.966107e+003;6.211351e-002
2.968035e+003;6.175324e-002
2.969964e+003;6.129058e-002
2.971892e+003;6.098292e-002
2.973821e+003;6.074179e-002
2.975750e+003;6.075710e-002
2.977678e+003;6.070909e-002
2.979607e+003;6.040607e-002
2.981535e+003;6.007563e-002
2.983464e+003;5.969595e-002
2.985392e+003;5.934706e-002
2.987321e+003;5.923229e-002
2.989249e+003;5.909882e-002
2.991178e+003;5.876627e-002
2.993106e+003;5.872709e-002
2.995035e+003;5.869625e-002
2.996964e+003;5.871711e-002
2.998892e+003;5.869166e-002
3.000821e+003;5.858812e-002
3.002749e+003;5.858085e-002
3.004678e+003;5.868968e-002
3.006606e+003;5.887212e-002
3.008535e+003;5.894623e-002
3.010463e+003;5.938930e-002
3.012392e+003;5.971842e-002
3.014321e+003;5.972070e-002
3.016249e+003;5.995895e-002
3.018177e+003;6.010965e-002
3.020106e+003;6.017400e-002
3.022035e+003;6.023996e-002
3.023963e+003;6.056729e-002
3.025892e+003;6.111445e-002
3.027820e+003;6.161702e-002
3.029749e+003;6.196758e-002
3.031677e+003;6.233763e-002
3.033606e+003;6.276075e-002
3.035534e+003;6.293383e-002
3.037463e+003;6.310925e-002
3.039392e+003;6.356411e-002
3.041320e+003;6.397138e-002
3.043249e+003;6.432669e-002
3.045177e+003;6.472944e-002
3.047106e+003;6.514839e-002
3.049034e+003;6.560027e-002
3.050963e+003;6.597817e-002
3.052891e+003;6.610744e-002
3.054820e+003;6.622443e-002
3.056749e+003;6.639586e-002
3.058677e+003;6.652892e-002
3.060606e+003;6.708674e-002
3.062534e+003;6.777451e-002
3.064463e+003;6.819032e-002
3.066391e+003;6.883693e-002
3.068320e+003;6.929862e-002
3.070248e+003;6.930856e-002
3.072177e+003;6.968438e-002
3.074105e+003;7.064512e-002
3.076034e+003;7.125449e-002
3.077963e+003;7.132293e-002
3.079891e+003;7.168733e-002
3.081820e+003;7.230078e-002
3.083748e+003;7.266352e-002
3.085677e+003;7.290373e-002
3.087605e+003;7.326530e-002
3.089534e+003;7.365252e-002
3.091462e+003;7.454289e-002
3.093391e+003;7.508359e-002
3.095320e+003;7.541441e-002
3.097248e+003;7.565697e-002
3.099177e+003;7.605941e-002
3.101105e+003;7.672801e-002
3.103034e+003;7.720893e-002
3.104962e+003;7.743946e-002
3.106891e+003;7.768867e-002
3.108819e+003;7.821056e-002
3.110748e+003;7.894051e-002
3.112677e+003;7.944027e-002
3.114605e+003;7.976989e-002
3.116533e+003;8.000921e-002
3.118462e+003;8.021501e-002
3.120391e+003;8.082595e-002
3.122319e+003;8.146808e-002
3.124248e+003;8.202315e-002
3.126176e+003;8.250232e-002
3.128105e+003;8.304106e-002
3.130033e+003;8.358449e-002
3.131962e+003;8.381531e-002
3.133890e+003;8.417115e-002
3.135819e+003;8.477761e-002
3.137748e+003;8.512070e-002
3.139676e+003;8.563805e-002
3.141605e+003;8.654564e-002
3.143533e+003;8.701351e-002
3.145462e+003;8.694214e-002
3.147390e+003;8.718674e-002
3.149319e+003;8.782931e-002
3.151247e+003;8.824570e-002
3.153176e+003;8.857569e-002
3.155104e+003;8.918964e-002
3.157033e+003;8.976290e-002
3.158962e+003;9.014213e-002
3.160890e+003;9.055985e-002
3.162819e+003;9.087956e-002
3.164747e+003;9.109904e-002
3.166676e+003;9.155957e-002
3.168604e+003;9.202345e-002
3.170533e+003;9.230015e-002
3.172461e+003;9.278427e-002
3.174390e+003;9.322524e-002
3.176319e+003;9.350257e-002
3.178247e+003;9.382771e-002
3.180176e+003;9.416453e-002
3.182104e+003;9.455857e-002
3.184033e+003;9.513316e-002
3.185961e+003;9.586035e-002
3.187890e+003;9.644622e-002
3.189818e+003;9.660326e-002
3.191747e+003;9.683269e-002
3.193676e+003;9.753665e-002
3.195604e+003;9.790065e-002
3.197532e+003;9.811474e-002
3.199461e+003;9.840190e-002
3.201390e+003;9.867612e-002
3.203318e+003;9.899454e-002
3.205247e+003;9.932427e-002
3.207175e+003;9.973770e-002
3.209104e+003;9.974796e-002
3.211032e+003;9.994115e-002
3.212961e+003;1.006986e-001
3.214889e+003;1.013032e-001
3.216818e+003;1.016922e-001
3.218747e+003;1.020370e-001
3.220675e+003;1.024753e-001
3.222604e+003;1.026113e-001
3.224532e+003;1.027967e-001
3.226461e+003;1.030941e-001
3.228389e+003;1.034693e-001
3.230318e+003;1.037873e-001
3.232246e+003;1.040462e-001
3.234175e+003;1.046192e-001
3.236104e+003;1.054245e-001
3.238032e+003;1.055934e-001
3.239961e+003;1.056207e-001
3.241889e+003;1.059323e-001
3.243818e+003;1.062134e-001
3.245746e+003;1.060538e-001
3.247675e+003;1.061530e-001
3.249603e+003;1.067628e-001
3.251532e+003;1.072293e-001
3.253460e+003;1.074363e-001
3.255389e+003;1.077878e-001
3.257318e+003;1.081473e-001
3.259246e+003;1.083957e-001
3.261175e+003;1.088750e-001
3.263103e+003;1.087639e-001
3.265032e+003;1.087242e-001
3.266960e+003;1.091139e-001
3.268889e+003;1.095395e-001
3.270817e+003;1.099476e-001
3.272746e+003;1.102730e-001
3.274675e+003;1.105876e-001
3.276603e+003;1.105842e-001
3.278531e+003;1.109685e-001
3.280460e+003;1.115542e-001
3.282389e+003;1.116420e-001
3.284317e+003;1.116491e-001
3.286246e+003;1.115697e-001
3.288174e+003;1.114412e-001
3.290103e+003;1.117986e-001
3.292031e+003;1.120594e-001
3.293960e+003;1.120434e-001
3.295888e+003;1.118431e-001
3.297817e+003;1.117106e-001
3.299746e+003;1.120734e-001
3.301674e+003;1.127458e-001
3.303603e+003;1.132413e-001
3.305531e+003;1.130284e-001
3.307460e+003;1.128665e-001
3.309388e+003;1.135542e-001
3.311317e+003;1.136703e-001
3.313245e+003;1.137431e-001
3.315174e+003;1.143365e-001
3.317103e+003;1.148119e-001
3.319031e+003;1.146938e-001
3.320960e+003;1.142097e-001
3.322888e+003;1.140353e-001
3.324817e+003;1.141611e-001
3.326745e+003;1.141812e-001
3.328674e+003;1.143839e-001
3.330602e+003;1.143436e-001
3.332531e+003;1.138395e-001
3.334459e+003;1.136674e-001
3.336388e+003;1.144362e-001
3.338317e+003;1.152772e-001
3.340245e+003;1.151657e-001
3.342174e+003;1.146188e-001
3.344102e+003;1.144396e-001
3.346031e+003;1.146623e-001
3.347959e+003;1.142703e-001
3.349888e+003;1.137952e-001
3.351816e+003;1.138057e-001
3.353745e+003;1.137126e-001
3.355674e+003;1.138366e-001
3.357602e+003;1.139107e-001
3.359531e+003;1.136565e-001
3.361459e+003;1.134449e-001
3.363388e+003;1.132829e-001
3.365316e+003;1.129025e-001
3.367245e+003;1.125363e-001
3.369173e+003;1.124095e-001
3.371102e+003;1.120897e-001
3.373031e+003;1.121444e-001
3.374959e+003;1.125619e-001
3.376887e+003;1.123927e-001
3.378816e+003;1.118461e-001
3.380745e+003;1.114450e-001
3.382673e+003;1.110131e-001
3.384602e+003;1.110159e-001
3.386530e+003;1.109538e-001
3.388459e+003;1.106364e-001
3.390387e+003;1.101851e-001
3.392316e+003;1.098870e-001
3.394244e+003;1.095262e-001
3.396173e+003;1.092014e-001
3.398102e+003;1.086636e-001
3.400030e+003;1.082028e-001
3.401959e+003;1.081298e-001
3.403887e+003;1.082508e-001
3.405816e+003;1.082057e-001
3.407744e+003;1.078525e-001
3.409673e+003;1.070168e-001
3.411601e+003;1.066005e-001
3.413530e+003;1.067623e-001
3.415458e+003;1.065335e-001
3.417387e+003;1.061687e-001
3.419316e+003;1.057065e-001
3.421244e+003;1.052576e-001
3.423173e+003;1.049364e-001
3.425101e+003;1.044007e-001
3.427030e+003;1.039585e-001
3.428958e+003;1.040421e-001
3.430887e+003;1.039565e-001
3.432815e+003;1.035341e-001
3.434744e+003;1.033230e-001
3.436673e+003;1.028309e-001
3.438601e+003;1.020905e-001
3.440530e+003;1.015686e-001
3.442458e+003;1.013237e-001
3.444387e+003;1.007054e-001
3.446315e+003;9.972057e-002
3.448244e+003;9.901714e-002
3.450172e+003;9.869637e-002
3.452101e+003;9.799004e-002
3.454030e+003;9.669449e-002
3.455958e+003;9.597167e-002
3.457886e+003;9.589345e-002
3.459815e+003;9.525914e-002
3.461744e+003;9.382799e-002
3.463672e+003;9.282969e-002
3.465601e+003;9.257841e-002
3.467529e+003;9.204689e-002
3.469458e+003;9.124316e-002
3.471386e+003;9.051438e-002
3.473315e+003;8.993205e-002
3.475243e+003;8.915038e-002
3.477172e+003;8.835038e-002
3.479101e+003;8.775558e-002
3.481029e+003;8.727819e-002
3.482958e+003;8.683711e-002
3.484886e+003;8.620065e-002
3.486815e+003;8.547955e-002
3.488743e+003;8.476118e-002
3.490672e+003;8.384878e-002
3.492600e+003;8.328102e-002
3.494529e+003;8.265031e-002
3.496458e+003;8.154447e-002
3.498386e+003;8.035588e-002
3.500315e+003;7.932686e-002
3.502243e+003;7.832333e-002
3.504172e+003;7.730366e-002
3.506100e+003;7.655168e-002
3.508029e+003;7.580309e-002
3.509957e+003;7.494717e-002
3.511886e+003;7.415897e-002
3.513814e+003;7.327048e-002
3.515743e+003;7.252900e-002
3.517672e+003;7.229150e-002
3.519600e+003;7.152756e-002
3.521529e+003;7.060029e-002
3.523457e+003;7.018501e-002
3.525386e+003;6.953767e-002
3.527314e+003;6.840231e-002
3.529243e+003;6.730589e-002
3.531171e+003;6.658033e-002
3.533100e+003;6.598619e-002
3.535029e+003;6.524310e-002
3.536957e+003;6.445354e-002
3.538885e+003;6.384093e-002
3.540814e+003;6.323487e-002
3.542743e+003;6.277307e-002
3.544671e+003;6.210866e-002
3.546600e+003;6.139117e-002
3.548528e+003;6.073333e-002
3.550457e+003;6.001601e-002
3.552385e+003;5.961616e-002
3.554314e+003;5.916492e-002
3.556242e+003;5.838599e-002
3.558171e+003;5.737178e-002
3.560100e+003;5.615631e-002
3.562028e+003;5.569591e-002
3.563957e+003;5.553393e-002
3.565885e+003;5.461003e-002
3.567814e+003;5.378607e-002
3.569742e+003;5.347029e-002
3.571671e+003;5.307796e-002
3.573599e+003;5.237224e-002
3.575528e+003;5.173712e-002
3.577457e+003;5.116033e-002
3.579385e+003;5.022692e-002
3.581314e+003;4.960103e-002
3.583242e+003;4.965210e-002
3.585171e+003;4.959928e-002
3.587099e+003;4.919038e-002
3.589028e+003;4.849517e-002
3.590956e+003;4.794868e-002
3.592885e+003;4.753497e-002
3.594813e+003;4.698740e-002
3.596742e+003;4.643277e-002
3.598671e+003;4.581548e-002
3.600599e+003;4.491571e-002
3.602528e+003;4.436453e-002
3.604456e+003;4.415859e-002
3.606385e+003;4.360386e-002
3.608313e+003;4.311153e-002
3.610242e+003;4.261877e-002
3.612170e+003;4.206316e-002
3.614099e+003;4.154912e-002
3.616028e+003;4.097867e-002
3.617956e+003;4.021933e-002
3.619885e+003;3.951349e-002
3.621813e+003;3.893897e-002
3.623742e+003;3.849074e-002
3.625670e+003;3.806062e-002
3.627599e+003;3.708736e-002
3.629527e+003;3.594185e-002
3.631456e+003;3.563095e-002
3.633385e+003;3.522529e-002
3.635313e+003;3.446427e-002
3.637241e+003;3.396409e-002
3.639170e+003;3.340924e-002
3.641099e+003;3.298484e-002
3.643027e+003;3.267997e-002
3.644956e+003;3.199337e-002
3.646884e+003;3.094037e-002
3.648813e+003;2.994969e-002
3.650741e+003;2.933218e-002
3.652670e+003;2.870713e-002
3.654598e+003;2.790536e-002
3.656527e+003;2.747610e-002
3.658456e+003;2.749710e-002
3.660384e+003;2.691424e-002
3.662313e+003;2.623285e-002
3.664241e+003;2.572701e-002
3.666170e+003;2.518843e-002
3.668098e+003;2.457776e-002
3.670027e+003;2.375613e-002
3.671955e+003;2.304977e-002
3.673884e+003;2.246097e-002
3.675813e+003;2.199955e-002
3.677741e+003;2.181012e-002
3.679669e+003;2.148424e-002
3.681598e+003;2.095253e-002
3.683527e+003;2.067896e-002
3.685455e+003;2.013984e-002
3.687384e+003;1.913752e-002
3.689312e+003;1.884738e-002
3.691241e+003;1.901385e-002
3.693169e+003;1.885859e-002
3.695098e+003;1.842085e-002
3.697026e+003;1.838165e-002
3.698955e+003;1.853937e-002
3.700884e+003;1.840588e-002
3.702812e+003;1.811067e-002
3.704741e+003;1.807181e-002
3.706669e+003;1.775445e-002
3.708598e+003;1.715572e-002
3.710526e+003;1.673791e-002
3.712455e+003;1.663730e-002
3.714383e+003;1.676977e-002
3.716312e+003;1.694351e-002
3.718240e+003;1.675506e-002
3.720169e+003;1.653259e-002
3.722098e+003;1.631889e-002
3.724026e+003;1.639486e-002
3.725955e+003;1.611737e-002
3.727883e+003;1.562252e-002
3.729812e+003;1.565010e-002
3.731740e+003;1.556746e-002
3.733669e+003;1.557540e-002
3.735597e+003;1.564278e-002
3.737526e+003;1.553546e-002
3.739455e+003;1.550981e-002
3.741383e+003;1.572235e-002
3.743312e+003;1.551132e-002
3.745240e+003;1.510909e-002
3.747169e+003;1.512816e-002
3.749097e+003;1.510761e-002
3.751026e+003;1.508202e-002
3.752954e+003;1.520485e-002
3.754883e+003;1.549968e-002
3.756812e+003;1.541861e-002
3.758740e+003;1.523144e-002
3.760668e+003;1.519301e-002
3.762597e+003;1.511962e-002
3.764526e+003;1.497579e-002
3.766454e+003;1.490209e-002
3.768383e+003;1.537803e-002
3.770311e+003;1.561764e-002
3.772240e+003;1.509883e-002
3.774168e+003;1.509306e-002
3.776097e+003;1.519016e-002
3.778025e+003;1.486742e-002
3.779954e+003;1.482680e-002
3.781883e+003;1.478929e-002
3.783811e+003;1.472676e-002
3.785740e+003;1.491865e-002
3.787668e+003;1.488375e-002
3.789597e+003;1.462429e-002
3.791525e+003;1.442647e-002
3.793454e+003;1.451564e-002
3.795382e+003;1.458276e-002
3.797311e+003;1.459838e-002
3.799240e+003;1.457796e-002
3.801168e+003;1.441944e-002
3.803097e+003;1.460572e-002
3.805025e+003;1.458464e-002
3.806954e+003;1.428417e-002
3.808882e+003;1.447877e-002
3.810811e+003;1.466689e-002
3.812739e+003;1.483273e-002
3.814668e+003;1.472652e-002
3.816596e+003;1.471796e-002
3.818525e+003;1.482618e-002
3.820454e+003;1.479042e-002
3.822382e+003;1.478230e-002
3.824311e+003;1.497853e-002
3.826239e+003;1.500731e-002
3.828168e+003;1.474483e-002
3.830096e+003;1.469732e-002
3.832025e+003;1.480170e-002
3.833953e+003;1.497860e-002
3.835882e+003;1.502755e-002
3.837811e+003;1.472560e-002
3.839739e+003;1.447699e-002
3.841667e+003;1.444212e-002
3.843596e+003;1.449022e-002
3.845525e+003;1.470185e-002
3.847453e+003;1.485464e-002
3.849382e+003;1.488673e-002
3.851310e+003;1.467460e-002
3.853239e+003;1.434327e-002
3.855167e+003;1.438475e-002
3.857096e+003;1.410026e-002
3.859024e+003;1.425010e-002
3.860953e+003;1.464279e-002
3.862882e+003;1.488556e-002
3.864810e+003;1.540210e-002
3.866739e+003;1.522973e-002
3.868667e+003;1.494211e-002
3.870596e+003;1.541308e-002
3.872524e+003;1.585460e-002
3.874453e+003;1.558759e-002
3.876381e+003;1.563815e-002
3.878310e+003;1.603805e-002
3.880239e+003;1.589412e-002
3.882167e+003;1.584364e-002
3.884096e+003;1.610479e-002
3.886024e+003;1.608216e-002
3.887953e+003;1.615613e-002
3.889881e+003;1.602340e-002
3.891810e+003;1.582855e-002
3.893738e+003;1.590533e-002
3.895667e+003;1.602506e-002
3.897595e+003;1.571139e-002
3.899524e+003;1.536719e-002
3.901453e+003;1.570132e-002
3.903381e+003;1.625050e-002
3.905310e+003;1.664185e-002
3.907238e+003;1.682577e-002
3.909167e+003;1.689080e-002
3.911095e+003;1.711711e-002
3.913024e+003;1.713562e-002
3.914952e+003;1.669394e-002
3.916881e+003;1.666640e-002
3.918810e+003;1.701321e-002
3.920738e+003;1.681974e-002
3.922667e+003;1.629976e-002
3.924595e+003;1.644379e-002
3.926524e+003;1.720591e-002
3.928452e+003;1.748944e-002
3.930381e+003;1.749989e-002
3.932309e+003;1.777177e-002
3.934238e+003;1.782783e-002
3.936167e+003;1.763052e-002
3.938095e+003;1.750255e-002
3.940023e+003;1.752169e-002
3.941952e+003;1.788746e-002
3.943881e+003;1.797614e-002
3.945809e+003;1.805419e-002
3.947738e+003;1.808269e-002
3.949666e+003;1.804814e-002
3.951595e+003;1.817976e-002
3.953523e+003;1.826580e-002
3.955452e+003;1.812597e-002
3.957380e+003;1.807491e-002
3.959309e+003;1.788977e-002
3.961238e+003;1.773073e-002
3.963166e+003;1.797196e-002
3.965095e+003;1.828139e-002
3.967023e+003;1.819559e-002
3.968952e+003;1.836765e-002
3.970880e+003;1.845356e-002
3.972809e+003;1.808725e-002
3.974737e+003;1.771672e-002
3.976666e+003;1.807160e-002
3.978594e+003;1.896176e-002
3.980523e+003;1.936030e-002
3.982452e+003;1.885627e-002
3.984380e+003;1.852703e-002
3.986309e+003;1.844647e-002
3.988237e+003;1.811975e-002
3.990166e+003;1.870566e-002
3.992094e+003;1.898159e-002
3.994023e+003;1.848004e-002
3.995951e+003;1.814027e-002
3.997880e+003;1.816000e-002
3.999809e+003;1.817890e-002
4.001737e+003;0.000000e+000
