3.992094e+002;0.000000e+000
4.011380e+002;0.000000e+000
4.030665e+002;0.000000e+000
4.049951e+002;0.000000e+000
4.069236e+002;0.000000e+000
4.088522e+002;0.000000e+000
4.107807e+002;0.000000e+000
4.127093e+002;0.000000e+000
4.146378e+002;0.000000e+000
4.165664e+002;0.000000e+000
4.184949e+002;0.000000e+000
4.204235e+002;0.000000e+000
4.223520e+002;0.000000e+000
4.242806e+002;0.000000e+000
4.262091e+002;0.000000e+000
4.281377e+002;0.000000e+000
4.300662e+002;0.000000e+000
4.319948e+002;0.000000e+000
4.339233e+002;0.000000e+000
4.358519e+002;0.000000e+000
4.377804e+002;0.000000e+000
4.397090e+002;0.000000e+000
4.416375e+002;0.000000e+000
4.435660e+002;0.000000e+000
4.454946e+002;0.000000e+000
4.474232e+002;0.000000e+000
4.493517e+002;0.000000e+000
4.512802e+002;0.000000e+000
4.532088e+002;0.000000e+000
4.551373e+002;0.000000e+000
4.570659e+002;0.000000e+000
4.589944e+002;0.000000e+000
4.609230e+002;0.000000e+000
4.628515e+002;0.000000e+000
4.647801e+002;0.000000e+000
4.667086e+002;0.000000e+000
4.686372e+002;0.000000e+000
4.705657e+002;0.000000e+000
4.724943e+002;0.000000e+000
4.744228e+002;0.000000e+000
4.763513e+002;0.000000e+000
4.782799e+002;0.000000e+000
4.802085e+002;0.000000e+000
4.821370e+002;0.000000e+000
4.840656e+002;0.000000e+000
4.859941e+002;0.000000e+000
4.879226e+002;0.000000e+000
4.898512e+002;0.000000e+000
4.917798e+002;0.000000e+000
4.937083e+002;0.000000e+000
4.956368e+002;0.000000e+000
4.975654e+002;0.000000e+000
4.994939e+002;0.000000e+000
5.014225e+002;0.000000e+000
5.033510e+002;0.000000e+000
5.052796e+002;0.000000e+000
5.072081e+002;0.000000e+000
5.091367e+002;0.000000e+000
5.110652e+002;0.000000e+000
5.129938e+002;0.000000e+000
5.149223e+002;0.000000e+000
5.168509e+002;0.000000e+000
5.187794e+002;0.000000e+000
5.207079e+002;0.000000e+000
5.226365e+002;0.000000e+000
5.245651e+002;0.000000e+000
5.264936e+002;0.000000e+000
5.284222e+002;0.000000e+000
5.303507e+002;0.000000e+000
5.322792e+002;0.000000e+000
5.342078e+002;0.000000e+000
5.361364e+002;0.000000e+000
5.380649e+002;0.000000e+000
5.399935e+002;0.000000e+000
5.419220e+002;0.000000e+000
5.438505e+002;0.000000e+000
5.457791e+002;0.000000e+000
5.477076e+002;0.000000e+000
5.496362e+002;0.000000e+000
5.515648e+002;0.000000e+000
5.534933e+002;0.000000e+000
5.554218e+002;0.000000e+000
5.573504e+002;0.000000e+000
5.592789e+002;0.000000e+000
5.612075e+002;0.000000e+000
5.631360e+002;0.000000e+000
5.650646e+002;0.000000e+000
5.669931e+002;0.000000e+000
5.689217e+002;0.000000e+000
5.708502e+002;0.000000e+000
5.727787e+002;0.000000e+000
5.747073e+002;0.000000e+000
5.766359e+002;0.000000e+000
5.785644e+002;0.000000e+000
5.804930e+002;0.000000e+000
5.824215e+002;0.000000e+000
5.843500e+002;0.000000e+000
5.862786e+002;0.000000e+000
5.882072e+002;0.000000e+000
5.901357e+002;0.000000e+000
5.920643e+002;0.000000e+000
5.939928e+002;0.000000e+000
5.959213e+002;0.000000e+000
5.978499e+002;0.000000e+000
5.997784e+002;2.703926e-001
6.017070e+002;2.759293e-001
6.036355e+002;2.889836e-001
6.055641e+002;2.945963e-001
6.074926e+002;2.845849e-001
6.094211e+002;2.831975e-001
6.113497e+002;2.876137e-001
6.132783e+002;2.872436e-001
6.152068e+002;2.850046e-001
6.171354e+002;2.806133e-001
6.190639e+002;2.707598e-001
6.209924e+002;2.656906e-001
6.229210e+002;2.611982e-001
6.248495e+002;2.589031e-001
6.267781e+002;2.592852e-001
6.287067e+002;2.594926e-001
6.306352e+002;2.595619e-001
6.325637e+002;2.586494e-001
6.344923e+002;2.579570e-001
6.364208e+002;2.568921e-001
6.383494e+002;2.561170e-001
6.402780e+002;2.558095e-001
6.422065e+002;2.537107e-001
6.441350e+002;2.488467e-001
6.460636e+002;2.477648e-001
6.479921e+002;2.482202e-001
6.499207e+002;2.478101e-001
6.518492e+002;2.494648e-001
6.537778e+002;2.540527e-001
6.557063e+002;2.559655e-001
6.576349e+002;2.569817e-001
6.595634e+002;2.615785e-001
6.614919e+002;2.661337e-001
6.634205e+002;2.694998e-001
6.653491e+002;2.700687e-001
6.672776e+002;2.692887e-001
6.692062e+002;2.682593e-001
6.711347e+002;2.647597e-001
6.730632e+002;2.545127e-001
6.749918e+002;2.404702e-001
6.769203e+002;2.256433e-001
6.788489e+002;2.135615e-001
6.807775e+002;2.054046e-001
6.827060e+002;2.006472e-001
6.846345e+002;1.974614e-001
6.865631e+002;1.950278e-001
6.884916e+002;1.929613e-001
6.904202e+002;1.918610e-001
6.923488e+002;1.919236e-001
6.942773e+002;1.914459e-001
6.962058e+002;1.915484e-001
6.981344e+002;1.928319e-001
7.000629e+002;1.920012e-001
7.019915e+002;1.897489e-001
7.039200e+002;1.883511e-001
7.058486e+002;1.883197e-001
7.077771e+002;1.873866e-001
7.097057e+002;1.863310e-001
7.116342e+002;1.861742e-001
7.135627e+002;1.852995e-001
7.154913e+002;1.843655e-001
7.174199e+002;1.838818e-001
7.193484e+002;1.824232e-001
7.212770e+002;1.803795e-001
7.232055e+002;1.781712e-001
7.251340e+002;1.768244e-001
7.270626e+002;1.764803e-001
7.289911e+002;1.749807e-001
7.309197e+002;1.728624e-001
7.328483e+002;1.720075e-001
7.347768e+002;1.714959e-001
7.367053e+002;1.703992e-001
7.386339e+002;1.687441e-001
7.405624e+002;1.670560e-001
7.424910e+002;1.652688e-001
7.444196e+002;1.632087e-001
7.463481e+002;1.620469e-001
7.482766e+002;1.623915e-001
7.502052e+002;1.626387e-001
7.521337e+002;1.620496e-001
7.540623e+002;1.602397e-001
7.559908e+002;1.572978e-001
7.579194e+002;1.552961e-001
7.598479e+002;1.552014e-001
7.617765e+002;1.540210e-001
7.637050e+002;1.520128e-001
7.656335e+002;1.511453e-001
7.675621e+002;1.508468e-001
7.694907e+002;1.506085e-001
7.714192e+002;1.500095e-001
7.733478e+002;1.487895e-001
7.752763e+002;1.473693e-001
7.772048e+002;1.459338e-001
7.791334e+002;1.452504e-001
7.810620e+002;1.452468e-001
7.829905e+002;1.448763e-001
7.849191e+002;1.438429e-001
7.868476e+002;1.430029e-001
7.887761e+002;1.422639e-001
7.907047e+002;1.416852e-001
7.926332e+002;1.410446e-001
7.945618e+002;1.397813e-001
7.964903e+002;1.390669e-001
7.984189e+002;1.393170e-001
8.003474e+002;1.385965e-001
8.022759e+002;1.375829e-001
8.042045e+002;1.371070e-001
8.061331e+002;1.373191e-001
8.080616e+002;1.373991e-001
8.099902e+002;1.372507e-001
8.119187e+002;1.369325e-001
8.138472e+002;1.366515e-001
8.157758e+002;1.361172e-001
8.177043e+002;1.358828e-001
8.196329e+002;1.361223e-001
8.215615e+002;1.362083e-001
8.234900e+002;1.358967e-001
8.254185e+002;1.356362e-001
8.273471e+002;1.360057e-001
8.292756e+002;1.363045e-001
8.312042e+002;1.354967e-001
8.331328e+002;1.347165e-001
8.350613e+002;1.344163e-001
8.369898e+002;1.335464e-001
8.389184e+002;1.328590e-001
8.408469e+002;1.325086e-001
8.427755e+002;1.321241e-001
8.447040e+002;1.317865e-001
8.466326e+002;1.317301e-001
8.485611e+002;1.318351e-001
8.504897e+002;1.322098e-001
8.524182e+002;1.326656e-001
8.543467e+002;1.326579e-001
8.562753e+002;1.326320e-001
8.582039e+002;1.329453e-001
8.601324e+002;1.340947e-001
8.620610e+002;1.354111e-001
8.639895e+002;1.361585e-001
8.659180e+002;1.373004e-001
8.678466e+002;1.391377e-001
8.697751e+002;1.410767e-001
8.717037e+002;1.433953e-001
8.736323e+002;1.465669e-001
8.755608e+002;1.502202e-001
8.774893e+002;1.544928e-001
8.794179e+002;1.592641e-001
8.813464e+002;1.645265e-001
8.832750e+002;1.705487e-001
8.852036e+002;1.773217e-001
8.871321e+002;1.848171e-001
8.890606e+002;1.917780e-001
8.909892e+002;1.973542e-001
8.929177e+002;2.011540e-001
8.948463e+002;2.018755e-001
8.967748e+002;1.994363e-001
8.987034e+002;1.951921e-001
9.006319e+002;1.901432e-001
9.025605e+002;1.846719e-001
9.044890e+002;1.796498e-001
9.064175e+002;1.752359e-001
9.083461e+002;1.713408e-001
9.102747e+002;1.677449e-001
9.122032e+002;1.643166e-001
9.141318e+002;1.623660e-001
9.160603e+002;1.618546e-001
9.179888e+002;1.621197e-001
9.199174e+002;1.623908e-001
9.218459e+002;1.633566e-001
9.237745e+002;1.646622e-001
9.257031e+002;1.658413e-001
9.276316e+002;1.672321e-001
9.295601e+002;1.691761e-001
9.314887e+002;1.712231e-001
9.334172e+002;1.730788e-001
9.353458e+002;1.751277e-001
9.372744e+002;1.769776e-001
9.392029e+002;1.794437e-001
9.411314e+002;1.824526e-001
9.430600e+002;1.854853e-001
9.449885e+002;1.887469e-001
9.469171e+002;1.925595e-001
9.488456e+002;1.969311e-001
9.507742e+002;2.020329e-001
9.527027e+002;2.078669e-001
9.546313e+002;2.139959e-001
9.565598e+002;2.203135e-001
9.584883e+002;2.269986e-001
9.604169e+002;2.333001e-001
9.623455e+002;2.392870e-001
9.642740e+002;2.454300e-001
9.662026e+002;2.519035e-001
9.681311e+002;2.585338e-001
9.700596e+002;2.658262e-001
9.719882e+002;2.743964e-001
9.739167e+002;2.841079e-001
9.758453e+002;2.955222e-001
9.777739e+002;3.089889e-001
9.797024e+002;3.244019e-001
9.816309e+002;3.417799e-001
9.835595e+002;3.604039e-001
9.854880e+002;3.804833e-001
9.874166e+002;4.006806e-001
9.893452e+002;4.192952e-001
9.912737e+002;4.361160e-001
9.932022e+002;4.493924e-001
9.951307e+002;4.592159e-001
9.970593e+002;4.663364e-001
9.989879e+002;4.710022e-001
1.000916e+003;4.736650e-001
1.002845e+003;4.762805e-001
1.004773e+003;4.809552e-001
1.006702e+003;4.874334e-001
1.008631e+003;4.963574e-001
1.010559e+003;5.071516e-001
1.012488e+003;5.181081e-001
1.014416e+003;5.293042e-001
1.016345e+003;5.396916e-001
1.018273e+003;5.468122e-001
1.020202e+003;5.510304e-001
1.022130e+003;5.540964e-001
1.024059e+003;5.544983e-001
1.025988e+003;5.519248e-001
1.027916e+003;5.460593e-001
1.029845e+003;5.376775e-001
1.031773e+003;5.280861e-001
1.033702e+003;5.185181e-001
1.035630e+003;5.095739e-001
1.037559e+003;5.027979e-001
1.039487e+003;4.980690e-001
1.041416e+003;4.940686e-001
1.043344e+003;4.902878e-001
1.045273e+003;4.865254e-001
1.047202e+003;4.827070e-001
1.049130e+003;4.785222e-001
1.051059e+003;4.744057e-001
1.052987e+003;4.705572e-001
1.054916e+003;4.662979e-001
1.056844e+003;4.612394e-001
1.058773e+003;4.547046e-001
1.060701e+003;4.464387e-001
1.062630e+003;4.364483e-001
1.064558e+003;4.254505e-001
1.066487e+003;4.150697e-001
1.068416e+003;4.073995e-001
1.070344e+003;4.017877e-001
1.072273e+003;3.959090e-001
1.074201e+003;3.895855e-001
1.076130e+003;3.832656e-001
1.078058e+003;3.760769e-001
1.079987e+003;3.697930e-001
1.081915e+003;3.639867e-001
1.083844e+003;3.571520e-001
1.085773e+003;3.496109e-001
1.087701e+003;3.421923e-001
1.089630e+003;3.343976e-001
1.091558e+003;3.268242e-001
1.093487e+003;3.203179e-001
1.095415e+003;3.133675e-001
1.097344e+003;3.053211e-001
1.099272e+003;2.957493e-001
1.101201e+003;2.862331e-001
1.103129e+003;2.786246e-001
1.105058e+003;2.731066e-001
1.106987e+003;2.695025e-001
1.108915e+003;2.668248e-001
1.110844e+003;2.637931e-001
1.112772e+003;2.594939e-001
1.114701e+003;2.538983e-001
1.116629e+003;2.479818e-001
1.118558e+003;2.423270e-001
1.120486e+003;2.359522e-001
1.122415e+003;2.288305e-001
1.124344e+003;2.213084e-001
1.126272e+003;2.139507e-001
1.128201e+003;2.067687e-001
1.130129e+003;2.004448e-001
1.132058e+003;1.950738e-001
1.133986e+003;1.900821e-001
1.135915e+003;1.852774e-001
1.137843e+003;1.813540e-001
1.139772e+003;1.792429e-001
1.141700e+003;1.784129e-001
1.143629e+003;1.784466e-001
1.145557e+003;1.795800e-001
1.147486e+003;1.816817e-001
1.149415e+003;1.840940e-001
1.151343e+003;1.868649e-001
1.153272e+003;1.899155e-001
1.155200e+003;1.914622e-001
1.157129e+003;1.912002e-001
1.159057e+003;1.885702e-001
1.160986e+003;1.834085e-001
1.162914e+003;1.766564e-001
1.164843e+003;1.691436e-001
1.166771e+003;1.612729e-001
1.168700e+003;1.534569e-001
1.170629e+003;1.459773e-001
1.172557e+003;1.394983e-001
1.174486e+003;1.340057e-001
1.176414e+003;1.293804e-001
1.178343e+003;1.254851e-001
1.180271e+003;1.224045e-001
1.182200e+003;1.205713e-001
1.184128e+003;1.198007e-001
1.186057e+003;1.202469e-001
1.187986e+003;1.220891e-001
1.189914e+003;1.249387e-001
1.191843e+003;1.284589e-001
1.193771e+003;1.319886e-001
1.195700e+003;1.347271e-001
1.197628e+003;1.360861e-001
1.199557e+003;1.360796e-001
1.201485e+003;1.346742e-001
1.203414e+003;1.320313e-001
1.205343e+003;1.291696e-001
1.207271e+003;1.267595e-001
1.209200e+003;1.247861e-001
1.211128e+003;1.234770e-001
1.213057e+003;1.233039e-001
1.214985e+003;1.244598e-001
1.216914e+003;1.266494e-001
1.218842e+003;1.293201e-001
1.220771e+003;1.323477e-001
1.222699e+003;1.352164e-001
1.224628e+003;1.376359e-001
1.226557e+003;1.391403e-001
1.228485e+003;1.394514e-001
1.230414e+003;1.394811e-001
1.232342e+003;1.395351e-001
1.234271e+003;1.394534e-001
1.236199e+003;1.393830e-001
1.238128e+003;1.391164e-001
1.240056e+003;1.384998e-001
1.241985e+003;1.380696e-001
1.243913e+003;1.379150e-001
1.245842e+003;1.382150e-001
1.247771e+003;1.388106e-001
1.249699e+003;1.397152e-001
1.251628e+003;1.411135e-001
1.253556e+003;1.428537e-001
1.255485e+003;1.444969e-001
1.257413e+003;1.456434e-001
1.259342e+003;1.463887e-001
1.261270e+003;1.465360e-001
1.263199e+003;1.458362e-001
1.265127e+003;1.447563e-001
1.267056e+003;1.435523e-001
1.268985e+003;1.422086e-001
1.270913e+003;1.409332e-001
1.272842e+003;1.399867e-001
1.274770e+003;1.394388e-001
1.276699e+003;1.389056e-001
1.278627e+003;1.380627e-001
1.280556e+003;1.371997e-001
1.282484e+003;1.364927e-001
1.284413e+003;1.361091e-001
1.286342e+003;1.361267e-001
1.288270e+003;1.372224e-001
1.290199e+003;1.394845e-001
1.292127e+003;1.419827e-001
1.294056e+003;1.442395e-001
1.295984e+003;1.458709e-001
1.297913e+003;1.475915e-001
1.299841e+003;1.496841e-001
1.301770e+003;1.518938e-001
1.303698e+003;1.542392e-001
1.305627e+003;1.569336e-001
1.307556e+003;1.600900e-001
1.309484e+003;1.629995e-001
1.311413e+003;1.648401e-001
1.313341e+003;1.658718e-001
1.315270e+003;1.658476e-001
1.317198e+003;1.642911e-001
1.319127e+003;1.619309e-001
1.321055e+003;1.595417e-001
1.322984e+003;1.577363e-001
1.324912e+003;1.570353e-001
1.326841e+003;1.569531e-001
1.328770e+003;1.570794e-001
1.330698e+003;1.573267e-001
1.332627e+003;1.576451e-001
1.334555e+003;1.581253e-001
1.336484e+003;1.580265e-001
1.338412e+003;1.571732e-001
1.340341e+003;1.562925e-001
1.342269e+003;1.556198e-001
1.344198e+003;1.549894e-001
1.346126e+003;1.547547e-001
1.348055e+003;1.546442e-001
1.349984e+003;1.547325e-001
1.351912e+003;1.556088e-001
1.353841e+003;1.569209e-001
1.355769e+003;1.582345e-001
1.357698e+003;1.598305e-001
1.359626e+003;1.615525e-001
1.361555e+003;1.629166e-001
1.363483e+003;1.638298e-001
1.365412e+003;1.638090e-001
1.367341e+003;1.631814e-001
1.369269e+003;1.622491e-001
1.371198e+003;1.608397e-001
1.373126e+003;1.589734e-001
1.375055e+003;1.569814e-001
1.376983e+003;1.547623e-001
1.378912e+003;1.516271e-001
1.380840e+003;1.480026e-001
1.382769e+003;1.445014e-001
1.384698e+003;1.415822e-001
1.386626e+003;1.395196e-001
1.388555e+003;1.382088e-001
1.390483e+003;1.372731e-001
1.392412e+003;1.363474e-001
1.394340e+003;1.357883e-001
1.396269e+003;1.357266e-001
1.398197e+003;1.353039e-001
1.400126e+003;1.346385e-001
1.402054e+003;1.343415e-001
1.403983e+003;1.342708e-001
1.405911e+003;1.342331e-001
1.407840e+003;1.343792e-001
1.409769e+003;1.347218e-001
1.411697e+003;1.350811e-001
1.413626e+003;1.352584e-001
1.415554e+003;1.355172e-001
1.417483e+003;1.354725e-001
1.419411e+003;1.351268e-001
1.421340e+003;1.352289e-001
1.423268e+003;1.350195e-001
1.425197e+003;1.346514e-001
1.427125e+003;1.344122e-001
1.429054e+003;1.340701e-001
1.430983e+003;1.338705e-001
1.432911e+003;1.335524e-001
1.434840e+003;1.327889e-001
1.436768e+003;1.318988e-001
1.438697e+003;1.314297e-001
1.440625e+003;1.308472e-001
1.442554e+003;1.298536e-001
1.444482e+003;1.287403e-001
1.446411e+003;1.277872e-001
1.448340e+003;1.266762e-001
1.450268e+003;1.255463e-001
1.452197e+003;1.244276e-001
1.454125e+003;1.230568e-001
1.456054e+003;1.214748e-001
1.457982e+003;1.203288e-001
1.459911e+003;1.197045e-001
1.461839e+003;1.187850e-001
1.463768e+003;1.175082e-001
1.465697e+003;1.162631e-001
1.467625e+003;1.150002e-001
1.469554e+003;1.133411e-001
1.471482e+003;1.112910e-001
1.473411e+003;1.093457e-001
1.475339e+003;1.074956e-001
1.477268e+003;1.053811e-001
1.479196e+003;1.032364e-001
1.481125e+003;1.010444e-001
1.483053e+003;9.914505e-002
1.484982e+003;9.740391e-002
1.486911e+003;9.581239e-002
1.488839e+003;9.430629e-002
1.490768e+003;9.298190e-002
1.492696e+003;9.182540e-002
1.494625e+003;9.042098e-002
1.496553e+003;8.933920e-002
1.498482e+003;8.880804e-002
1.500410e+003;8.832065e-002
1.502339e+003;8.803232e-002
1.504267e+003;8.728529e-002
1.506196e+003;8.647269e-002
1.508125e+003;8.638924e-002
1.510053e+003;8.621241e-002
1.511982e+003;8.573939e-002
1.513910e+003;8.552074e-002
1.515839e+003;8.520443e-002
1.517767e+003;8.490381e-002
1.519696e+003;8.443801e-002
1.521624e+003;8.399550e-002
1.523553e+003;8.405650e-002
1.525481e+003;8.425891e-002
1.527410e+003;8.453115e-002
1.529339e+003;8.451702e-002
1.531267e+003;8.448051e-002
1.533196e+003;8.443226e-002
1.535124e+003;8.432719e-002
1.537053e+003;8.447729e-002
1.538981e+003;8.426543e-002
1.540910e+003;8.390835e-002
1.542838e+003;8.398750e-002
1.544767e+003;8.445447e-002
1.546695e+003;8.472940e-002
1.548624e+003;8.483956e-002
1.550553e+003;8.497719e-002
1.552481e+003;8.506838e-002
1.554410e+003;8.504735e-002
1.556338e+003;8.471817e-002
1.558267e+003;8.398501e-002
1.560195e+003;8.430020e-002
1.562124e+003;8.526434e-002
1.564052e+003;8.552175e-002
1.565981e+003;8.550626e-002
1.567910e+003;8.551526e-002
1.569838e+003;8.557993e-002
1.571767e+003;8.597503e-002
1.573695e+003;8.624405e-002
1.575624e+003;8.630161e-002
1.577552e+003;8.681445e-002
1.579481e+003;8.721481e-002
1.581409e+003;8.725600e-002
1.583338e+003;8.719459e-002
1.585266e+003;8.718629e-002
1.587195e+003;8.739188e-002
1.589124e+003;8.759384e-002
1.591052e+003;8.788431e-002
1.592981e+003;8.852348e-002
1.594909e+003;8.911503e-002
1.596838e+003;8.928051e-002
1.598766e+003;8.945826e-002
1.600695e+003;8.994779e-002
1.602623e+003;9.043905e-002
1.604552e+003;9.086122e-002
1.606480e+003;9.105524e-002
1.608409e+003;9.128474e-002
1.610338e+003;9.179520e-002
1.612266e+003;9.233093e-002
1.614195e+003;9.255721e-002
1.616123e+003;9.275941e-002
1.618052e+003;9.332044e-002
1.619980e+003;9.398800e-002
1.621909e+003;9.430098e-002
1.623837e+003;9.465955e-002
1.625766e+003;9.520072e-002
1.627694e+003;9.568463e-002
1.629623e+003;9.621273e-002
1.631552e+003;9.656895e-002
1.633480e+003;9.632386e-002
1.635409e+003;9.610064e-002
1.637337e+003;9.648205e-002
1.639266e+003;9.684810e-002
1.641194e+003;9.698163e-002
1.643123e+003;9.673481e-002
1.645051e+003;9.619135e-002
1.646980e+003;9.607278e-002
1.648909e+003;9.615956e-002
1.650837e+003;9.537552e-002
1.652766e+003;9.429374e-002
1.654694e+003;9.420647e-002
1.656623e+003;9.423314e-002
1.658551e+003;9.363479e-002
1.660480e+003;9.299663e-002
1.662408e+003;9.219841e-002
1.664337e+003;9.149253e-002
1.666266e+003;9.089901e-002
1.668194e+003;8.985683e-002
1.670123e+003;8.910458e-002
1.672051e+003;8.885312e-002
1.673980e+003;8.808435e-002
1.675908e+003;8.726673e-002
1.677837e+003;8.697748e-002
1.679765e+003;8.636883e-002
1.681694e+003;8.528608e-002
1.683622e+003;8.443950e-002
1.685551e+003;8.411135e-002
1.687479e+003;8.379778e-002
1.689408e+003;8.310613e-002
1.691337e+003;8.279045e-002
1.693265e+003;8.235214e-002
1.695194e+003;8.147100e-002
1.697122e+003;8.099804e-002
1.699051e+003;8.058555e-002
1.700979e+003;8.017082e-002
1.702908e+003;8.020222e-002
1.704836e+003;7.992186e-002
1.706765e+003;7.977368e-002
1.708693e+003;7.994603e-002
1.710622e+003;7.998873e-002
1.712551e+003;7.994021e-002
1.714479e+003;7.992572e-002
1.716408e+003;7.968303e-002
1.718336e+003;7.973263e-002
1.720265e+003;8.010837e-002
1.722193e+003;8.028995e-002
1.724122e+003;8.073688e-002
1.726050e+003;8.126815e-002
1.727979e+003;8.140761e-002
1.729908e+003;8.137580e-002
1.731836e+003;8.101074e-002
1.733765e+003;8.042885e-002
1.735693e+003;8.025818e-002
1.737622e+003;7.991496e-002
1.739550e+003;7.933621e-002
1.741479e+003;7.894675e-002
1.743407e+003;7.833619e-002
1.745336e+003;7.766090e-002
1.747265e+003;7.672390e-002
1.749193e+003;7.572931e-002
1.751122e+003;7.534122e-002
1.753050e+003;7.553592e-002
1.754979e+003;7.550713e-002
1.756907e+003;7.528656e-002
1.758836e+003;7.523009e-002
1.760764e+003;7.516119e-002
1.762693e+003;7.524724e-002
1.764621e+003;7.550074e-002
1.766550e+003;7.522320e-002
1.768479e+003;7.496402e-002
1.770407e+003;7.483012e-002
1.772336e+003;7.452866e-002
1.774264e+003;7.472598e-002
1.776193e+003;7.515646e-002
1.778121e+003;7.518506e-002
1.780050e+003;7.492402e-002
1.781978e+003;7.502683e-002
1.783907e+003;7.513188e-002
1.785835e+003;7.508752e-002
1.787764e+003;7.521004e-002
1.789693e+003;7.501210e-002
1.791621e+003;7.456454e-002
1.793550e+003;7.445298e-002
1.795478e+003;7.435262e-002
1.797407e+003;7.423393e-002
1.799335e+003;7.430143e-002
1.801264e+003;7.431110e-002
1.803192e+003;7.444169e-002
1.805121e+003;7.457063e-002
1.807049e+003;7.449294e-002
1.808978e+003;7.439721e-002
1.810907e+003;7.427595e-002
1.812835e+003;7.426494e-002
1.814764e+003;7.433579e-002
1.816692e+003;7.422253e-002
1.818621e+003;7.413649e-002
1.820549e+003;7.414435e-002
1.822478e+003;7.406379e-002
1.824406e+003;7.401369e-002
1.826335e+003;7.396615e-002
1.828264e+003;7.386178e-002
1.830192e+003;7.380299e-002
1.832121e+003;7.380585e-002
1.834049e+003;7.381975e-002
1.835978e+003;7.384674e-002
1.837906e+003;7.380334e-002
1.839835e+003;7.388837e-002
1.841763e+003;7.384171e-002
1.843692e+003;7.346655e-002
1.845620e+003;7.352664e-002
1.847549e+003;7.357554e-002
1.849478e+003;7.336435e-002
1.851406e+003;7.329236e-002
1.853335e+003;7.332245e-002
1.855263e+003;7.330460e-002
1.857192e+003;7.321039e-002
1.859120e+003;7.329597e-002
1.861049e+003;7.342940e-002
1.862977e+003;7.330970e-002
1.864906e+003;7.326651e-002
1.866834e+003;7.318435e-002
1.868763e+003;7.297036e-002
1.870692e+003;7.302128e-002
1.872620e+003;7.325228e-002
1.874549e+003;7.332688e-002
1.876477e+003;7.325294e-002
1.878406e+003;7.324772e-002
1.880334e+003;7.335842e-002
1.882263e+003;7.333912e-002
1.884191e+003;7.319533e-002
1.886120e+003;7.304320e-002
1.888048e+003;7.289076e-002
1.889977e+003;7.287709e-002
1.891906e+003;7.304712e-002
1.893834e+003;7.310937e-002
1.895763e+003;7.303394e-002
1.897691e+003;7.299184e-002
1.899620e+003;7.304171e-002
1.901548e+003;7.294010e-002
1.903477e+003;7.297295e-002
1.905405e+003;7.300356e-002
1.907334e+003;7.292984e-002
1.909262e+003;7.311372e-002
1.911191e+003;7.334677e-002
1.913120e+003;7.336568e-002
1.915048e+003;7.344874e-002
1.916977e+003;7.345345e-002
1.918905e+003;7.341214e-002
1.920834e+003;7.358516e-002
1.922762e+003;7.392411e-002
1.924691e+003;7.411896e-002
1.926619e+003;7.389658e-002
1.928548e+003;7.356796e-002
1.930477e+003;7.355309e-002
1.932405e+003;7.388581e-002
1.934334e+003;7.397067e-002
1.936262e+003;7.393201e-002
1.938191e+003;7.398241e-002
1.940119e+003;7.376756e-002
1.942048e+003;7.375515e-002
1.943976e+003;7.416522e-002
1.945905e+003;7.435112e-002
1.947833e+003;7.437681e-002
1.949762e+003;7.432824e-002
1.951691e+003;7.433598e-002
1.953619e+003;7.439202e-002
1.955548e+003;7.436941e-002
1.957476e+003;7.441833e-002
1.959405e+003;7.437833e-002
1.961333e+003;7.424446e-002
1.963262e+003;7.425693e-002
1.965190e+003;7.447052e-002
1.967119e+003;7.472429e-002
1.969047e+003;7.466400e-002
1.970976e+003;7.462320e-002
1.972905e+003;7.464495e-002
1.974833e+003;7.468446e-002
1.976762e+003;7.490540e-002
1.978690e+003;7.508820e-002
1.980619e+003;7.516446e-002
1.982547e+003;7.504716e-002
1.984476e+003;7.484914e-002
1.986404e+003;7.486615e-002
1.988333e+003;7.505523e-002
1.990261e+003;7.520712e-002
1.992190e+003;7.510722e-002
1.994119e+003;7.489933e-002
1.996047e+003;7.500703e-002
1.997976e+003;7.524660e-002
1.999904e+003;7.535040e-002
2.001833e+003;7.521402e-002
2.003761e+003;7.521445e-002
2.005690e+003;7.538591e-002
2.007618e+003;7.535375e-002
2.009547e+003;7.535332e-002
2.011476e+003;7.545695e-002
2.013404e+003;7.540061e-002
2.015333e+003;7.545292e-002
2.017261e+003;7.562523e-002
2.019190e+003;7.569259e-002
2.021118e+003;7.569831e-002
2.023047e+003;7.590014e-002
2.024975e+003;7.601030e-002
2.026904e+003;7.575346e-002
2.028833e+003;7.587655e-002
2.030761e+003;7.613015e-002
2.032690e+003;7.619420e-002
2.034618e+003;7.616553e-002
2.036547e+003;7.615902e-002
2.038475e+003;7.617126e-002
2.040404e+003;7.614535e-002
2.042332e+003;7.614326e-002
2.044261e+003;7.615791e-002
2.046189e+003;7.623902e-002
2.048118e+003;7.611223e-002
2.050047e+003;7.587292e-002
2.051975e+003;7.596669e-002
2.053904e+003;7.611700e-002
2.055832e+003;7.614271e-002
2.057761e+003;7.603694e-002
2.059689e+003;7.579476e-002
2.061618e+003;7.592741e-002
2.063546e+003;7.632110e-002
2.065475e+003;7.627172e-002
2.067404e+003;7.606584e-002
2.069332e+003;7.602234e-002
2.071260e+003;7.582565e-002
2.073189e+003;7.589588e-002
2.075118e+003;7.613125e-002
2.077046e+003;7.615850e-002
2.078975e+003;7.595133e-002
2.080903e+003;7.572415e-002
2.082832e+003;7.578494e-002
2.084760e+003;7.600000e-002
2.086689e+003;7.622421e-002
2.088617e+003;7.624249e-002
2.090546e+003;7.603426e-002
2.092475e+003;7.612380e-002
2.094403e+003;7.621560e-002
2.096332e+003;7.610630e-002
2.098260e+003;7.583512e-002
2.100189e+003;7.579890e-002
2.102117e+003;7.595899e-002
2.104046e+003;7.621884e-002
2.105974e+003;7.625102e-002
2.107903e+003;7.607200e-002
2.109832e+003;7.602415e-002
2.111760e+003;7.584751e-002
2.113688e+003;7.583185e-002
2.115617e+003;7.612838e-002
2.117546e+003;7.635621e-002
2.119474e+003;7.638063e-002
2.121403e+003;7.644024e-002
2.123331e+003;7.643653e-002
2.125260e+003;7.639093e-002
2.127188e+003;7.636364e-002
2.129117e+003;7.621059e-002
2.131045e+003;7.627855e-002
2.132974e+003;7.626429e-002
2.134903e+003;7.607717e-002
2.136831e+003;7.611140e-002
2.138760e+003;7.643874e-002
2.140688e+003;7.665049e-002
2.142617e+003;7.648031e-002
2.144545e+003;7.627701e-002
2.146474e+003;7.635360e-002
2.148402e+003;7.650069e-002
2.150331e+003;7.649212e-002
2.152260e+003;7.629731e-002
2.154188e+003;7.619021e-002
2.156117e+003;7.614034e-002
2.158045e+003;7.618192e-002
2.159974e+003;7.618693e-002
2.161902e+003;7.597328e-002
2.163831e+003;7.608901e-002
2.165759e+003;7.636980e-002
2.167688e+003;7.604855e-002
2.169616e+003;7.573625e-002
2.171545e+003;7.581484e-002
2.173474e+003;7.576225e-002
2.175402e+003;7.577796e-002
2.177331e+003;7.576071e-002
2.179259e+003;7.566719e-002
2.181188e+003;7.562980e-002
2.183116e+003;7.581709e-002
2.185045e+003;7.588775e-002
2.186973e+003;7.553406e-002
2.188902e+003;7.543838e-002
2.190831e+003;7.559521e-002
2.192759e+003;7.545292e-002
2.194688e+003;7.534820e-002
2.196616e+003;7.531954e-002
2.198545e+003;7.526256e-002
2.200473e+003;7.536585e-002
2.202402e+003;7.555488e-002
2.204330e+003;7.554983e-002
2.206259e+003;7.531517e-002
2.208188e+003;7.514708e-002
2.210116e+003;7.512999e-002
2.212044e+003;7.514630e-002
2.213973e+003;7.512128e-002
2.215902e+003;7.478344e-002
2.217830e+003;7.455293e-002
2.219759e+003;7.462524e-002
2.221687e+003;7.474145e-002
2.223616e+003;7.470237e-002
2.225544e+003;7.452209e-002
2.227473e+003;7.457630e-002
2.229401e+003;7.480729e-002
2.231330e+003;7.477203e-002
2.233259e+003;7.472586e-002
2.235187e+003;7.452370e-002
2.237116e+003;7.428633e-002
2.239044e+003;7.435931e-002
2.240973e+003;7.447587e-002
2.242901e+003;7.440028e-002
2.244830e+003;7.414855e-002
2.246758e+003;7.407279e-002
2.248687e+003;7.403349e-002
2.250615e+003;7.410984e-002
2.252544e+003;7.424014e-002
2.254473e+003;7.412317e-002
2.256401e+003;7.396108e-002
2.258330e+003;7.396976e-002
2.260258e+003;7.398414e-002
2.262187e+003;7.389937e-002
2.264115e+003;7.392973e-002
2.266044e+003;7.409027e-002
2.267972e+003;7.412010e-002
2.269901e+003;7.408807e-002
2.271830e+003;7.409153e-002
2.273758e+003;7.374313e-002
2.275687e+003;7.349214e-002
2.277615e+003;7.348476e-002
2.279544e+003;7.340935e-002
2.281472e+003;7.340346e-002
2.283401e+003;7.369371e-002
2.285329e+003;7.379391e-002
2.287258e+003;7.353492e-002
2.289187e+003;7.339055e-002
2.291115e+003;7.347715e-002
2.293043e+003;7.347237e-002
2.294972e+003;7.334971e-002
2.296901e+003;7.317404e-002
2.298829e+003;7.312176e-002
2.300758e+003;7.329483e-002
2.302686e+003;7.326518e-002
2.304615e+003;7.314247e-002
2.306543e+003;7.330664e-002
2.308472e+003;7.360537e-002
2.310400e+003;7.376222e-002
2.312329e+003;7.374184e-002
2.314258e+003;7.372193e-002
2.316186e+003;7.347460e-002
2.318115e+003;7.312467e-002
2.320043e+003;7.293411e-002
2.321972e+003;7.310674e-002
2.323900e+003;7.333531e-002
2.325829e+003;7.334234e-002
2.327757e+003;7.322337e-002
2.329686e+003;7.328448e-002
2.331615e+003;7.332272e-002
2.333543e+003;7.316105e-002
2.335472e+003;7.320298e-002
2.337400e+003;7.333351e-002
2.339329e+003;7.344273e-002
2.341257e+003;7.374609e-002
2.343186e+003;7.383484e-002
2.345114e+003;7.381221e-002
2.347043e+003;7.410033e-002
2.348971e+003;7.426475e-002
2.350900e+003;7.414848e-002
2.352829e+003;7.414006e-002
2.354757e+003;7.402594e-002
2.356686e+003;7.383727e-002
2.358614e+003;7.374550e-002
2.360543e+003;7.378182e-002
2.362471e+003;7.378025e-002
2.364400e+003;7.375920e-002
2.366328e+003;7.390498e-002
2.368257e+003;7.407235e-002
2.370186e+003;7.428912e-002
2.372114e+003;7.455989e-002
2.374042e+003;7.471122e-002
2.375971e+003;7.479344e-002
2.377900e+003;7.455336e-002
2.379828e+003;7.434798e-002
2.381757e+003;7.453492e-002
2.383685e+003;7.464472e-002
2.385614e+003;7.456906e-002
2.387542e+003;7.458889e-002
2.389471e+003;7.464751e-002
2.391399e+003;7.483343e-002
2.393328e+003;7.493146e-002
2.395257e+003;7.500159e-002
2.397185e+003;7.515650e-002
2.399114e+003;7.512873e-002
2.401042e+003;7.526607e-002
2.402971e+003;7.558477e-002
2.404899e+003;7.583871e-002
2.406828e+003;7.593270e-002
2.408756e+003;7.597671e-002
2.410685e+003;7.601721e-002
2.412614e+003;7.606256e-002
2.414542e+003;7.599869e-002
2.416471e+003;7.609493e-002
2.418399e+003;7.637071e-002
2.420328e+003;7.641381e-002
2.422256e+003;7.618748e-002
2.424185e+003;7.624187e-002
2.426113e+003;7.646166e-002
2.428042e+003;7.671326e-002
2.429970e+003;7.685166e-002
2.431899e+003;7.700462e-002
2.433828e+003;7.720929e-002
2.435756e+003;7.733466e-002
2.437685e+003;7.730999e-002
2.439613e+003;7.733727e-002
2.441542e+003;7.757140e-002
2.443470e+003;7.753492e-002
2.445399e+003;7.736178e-002
2.447327e+003;7.752340e-002
2.449256e+003;7.768301e-002
2.451185e+003;7.788478e-002
2.453113e+003;7.802561e-002
2.455042e+003;7.815332e-002
2.456970e+003;7.815709e-002
2.458899e+003;7.800848e-002
2.460827e+003;7.812373e-002
2.462756e+003;7.833408e-002
2.464684e+003;7.832357e-002
2.466613e+003;7.839647e-002
2.468542e+003;7.858436e-002
2.470470e+003;7.873475e-002
2.472398e+003;7.878901e-002
2.474327e+003;7.875119e-002
2.476256e+003;7.892235e-002
2.478184e+003;7.914437e-002
2.480113e+003;7.916799e-002
2.482041e+003;7.934687e-002
2.483970e+003;7.943339e-002
2.485898e+003;7.922839e-002
2.487827e+003;7.910530e-002
2.489755e+003;7.928681e-002
2.491684e+003;7.954945e-002
2.493613e+003;7.972570e-002
2.495541e+003;7.962881e-002
2.497470e+003;7.956135e-002
2.499398e+003;7.961433e-002
2.501327e+003;7.961241e-002
2.503255e+003;7.971922e-002
2.505184e+003;7.977049e-002
2.507112e+003;7.982627e-002
2.509041e+003;7.997069e-002
2.510969e+003;8.002219e-002
2.512898e+003;8.018998e-002
2.514827e+003;8.028891e-002
2.516755e+003;8.012550e-002
2.518684e+003;8.017691e-002
2.520612e+003;8.051953e-002
2.522541e+003;8.070695e-002
2.524469e+003;8.063653e-002
2.526398e+003;8.057677e-002
2.528326e+003;8.066027e-002
2.530255e+003;8.072371e-002
2.532184e+003;8.069753e-002
2.534112e+003;8.062544e-002
2.536041e+003;8.065831e-002
2.537969e+003;8.073808e-002
2.539898e+003;8.084491e-002
2.541826e+003;8.088642e-002
2.543755e+003;8.072614e-002
2.545683e+003;8.081294e-002
2.547612e+003;8.111229e-002
2.549541e+003;8.127823e-002
2.551469e+003;8.125345e-002
2.553397e+003;8.125817e-002
2.555326e+003;8.131239e-002
2.557255e+003;8.143487e-002
2.559183e+003;8.160664e-002
2.561112e+003;8.189518e-002
2.563040e+003;8.214463e-002
2.564969e+003;8.194043e-002
2.566897e+003;8.157942e-002
2.568826e+003;8.157026e-002
2.570754e+003;8.195328e-002
2.572683e+003;8.202956e-002
2.574612e+003;8.190019e-002
2.576540e+003;8.197313e-002
2.578469e+003;8.218771e-002
2.580397e+003;8.247155e-002
2.582326e+003;8.260037e-002
2.584254e+003;8.274306e-002
2.586183e+003;8.270843e-002
2.588111e+003;8.247996e-002
2.590040e+003;8.257937e-002
2.591969e+003;8.267684e-002
2.593897e+003;8.245756e-002
2.595826e+003;8.272334e-002
2.597754e+003;8.326761e-002
2.599683e+003;8.336086e-002
2.601611e+003;8.301844e-002
2.603540e+003;8.315942e-002
2.605468e+003;8.343084e-002
2.607397e+003;8.345570e-002
2.609325e+003;8.361027e-002
2.611254e+003;8.376463e-002
2.613183e+003;8.384408e-002
2.615111e+003;8.386614e-002
2.617040e+003;8.402529e-002
2.618968e+003;8.415731e-002
2.620897e+003;8.430599e-002
2.622825e+003;8.432067e-002
2.624754e+003;8.430216e-002
2.626682e+003;8.448590e-002
2.628611e+003;8.462901e-002
2.630540e+003;8.486708e-002
2.632468e+003;8.489310e-002
2.634396e+003;8.484972e-002
2.636325e+003;8.505528e-002
2.638254e+003;8.530350e-002
2.640182e+003;8.546697e-002
2.642111e+003;8.548020e-002
2.644039e+003;8.530511e-002
2.645968e+003;8.542836e-002
2.647896e+003;8.568603e-002
2.649825e+003;8.589810e-002
2.651753e+003;8.613964e-002
2.653682e+003;8.626551e-002
2.655611e+003;8.631046e-002
2.657539e+003;8.649708e-002
2.659468e+003;8.674190e-002
2.661396e+003;8.695619e-002
2.663325e+003;8.713393e-002
2.665253e+003;8.720071e-002
2.667182e+003;8.733787e-002
2.669110e+003;8.744026e-002
2.671039e+003;8.759566e-002
2.672968e+003;8.786248e-002
2.674896e+003;8.799336e-002
2.676825e+003;8.807460e-002
2.678753e+003;8.820087e-002
2.680682e+003;8.817827e-002
2.682610e+003;8.842319e-002
2.684539e+003;8.893884e-002
2.686467e+003;8.901208e-002
2.688396e+003;8.897112e-002
2.690324e+003;8.927494e-002
2.692253e+003;8.970892e-002
2.694182e+003;8.985960e-002
2.696110e+003;8.964021e-002
2.698039e+003;8.964986e-002
2.699967e+003;8.981595e-002
2.701896e+003;8.988829e-002
2.703824e+003;9.024931e-002
2.705753e+003;9.058916e-002
2.707681e+003;9.064602e-002
2.709610e+003;9.073266e-002
2.711539e+003;9.098259e-002
2.713467e+003;9.113733e-002
2.715396e+003;9.114812e-002
2.717324e+003;9.097785e-002
2.719253e+003;9.099877e-002
2.721181e+003;9.146242e-002
2.723110e+003;9.158248e-002
2.725038e+003;9.159312e-002
2.726967e+003;9.186270e-002
2.728896e+003;9.200679e-002
2.730824e+003;9.213147e-002
2.732752e+003;9.236293e-002
2.734681e+003;9.256742e-002
2.736610e+003;9.254228e-002
2.738538e+003;9.256250e-002
2.740467e+003;9.262130e-002
2.742395e+003;9.280630e-002
2.744324e+003;9.271101e-002
2.746252e+003;9.259235e-002
2.748181e+003;9.285656e-002
2.750109e+003;9.298342e-002
2.752038e+003;9.305940e-002
2.753967e+003;9.321140e-002
2.755895e+003;9.329654e-002
2.757824e+003;9.355859e-002
2.759752e+003;9.380464e-002
2.761681e+003;9.398919e-002
2.763609e+003;9.426402e-002
2.765538e+003;9.441791e-002
2.767466e+003;9.448307e-002
2.769395e+003;9.455363e-002
2.771323e+003;9.470570e-002
2.773252e+003;9.500522e-002
2.775181e+003;9.503937e-002
2.777109e+003;9.524912e-002
2.779038e+003;9.558634e-002
2.780966e+003;9.603462e-002
2.782895e+003;9.656398e-002
2.784823e+003;9.698018e-002
2.786752e+003;9.722034e-002
2.788680e+003;9.738425e-002
2.790609e+003;9.779539e-002
2.792538e+003;9.820122e-002
2.794466e+003;9.826145e-002
2.796395e+003;9.849709e-002
2.798323e+003;9.916296e-002
2.800252e+003;9.943486e-002
2.802180e+003;9.975155e-002
2.804109e+003;1.001178e-001
2.806037e+003;1.005574e-001
2.807966e+003;1.011116e-001
2.809895e+003;1.014729e-001
2.811823e+003;1.017937e-001
2.813751e+003;1.022418e-001
2.815680e+003;1.025510e-001
2.817609e+003;1.029184e-001
2.819537e+003;1.033724e-001
2.821466e+003;1.037047e-001
2.823394e+003;1.040824e-001
2.825323e+003;1.047276e-001
2.827251e+003;1.053775e-001
2.829180e+003;1.058213e-001
2.831108e+003;1.062348e-001
2.833037e+003;1.070790e-001
2.834966e+003;1.079632e-001
2.836894e+003;1.087436e-001
2.838823e+003;1.095205e-001
2.840751e+003;1.104609e-001
2.842680e+003;1.116848e-001
2.844608e+003;1.128382e-001
2.846537e+003;1.139932e-001
2.848465e+003;1.153086e-001
2.850394e+003;1.162715e-001
2.852323e+003;1.170643e-001
2.854251e+003;1.179337e-001
2.856180e+003;1.191007e-001
2.858108e+003;1.205323e-001
2.860037e+003;1.221158e-001
2.861965e+003;1.238010e-001
2.863894e+003;1.253922e-001
2.865822e+003;1.271392e-001
2.867751e+003;1.287417e-001
2.869679e+003;1.299321e-001
2.871608e+003;1.311084e-001
2.873536e+003;1.321249e-001
2.875465e+003;1.329092e-001
2.877394e+003;1.338646e-001
2.879322e+003;1.349083e-001
2.881251e+003;1.354498e-001
2.883179e+003;1.358871e-001
2.885108e+003;1.363720e-001
2.887036e+003;1.369311e-001
2.888965e+003;1.376913e-001
2.890893e+003;1.380415e-001
2.892822e+003;1.378450e-001
2.894750e+003;1.377991e-001
2.896679e+003;1.373094e-001
2.898608e+003;1.365445e-001
2.900536e+003;1.359690e-001
2.902465e+003;1.354907e-001
2.904393e+003;1.350906e-001
2.906322e+003;1.343565e-001
2.908250e+003;1.335663e-001
2.910179e+003;1.325392e-001
2.912107e+003;1.313175e-001
2.914036e+003;1.302539e-001
2.915965e+003;1.291313e-001
2.917893e+003;1.282760e-001
2.919822e+003;1.272241e-001
2.921750e+003;1.255541e-001
2.923679e+003;1.237812e-001
2.925607e+003;1.221069e-001
2.927536e+003;1.206082e-001
2.929464e+003;1.194921e-001
2.931393e+003;1.186646e-001
2.933322e+003;1.177886e-001
2.935250e+003;1.169436e-001
2.937178e+003;1.156748e-001
2.939107e+003;1.142727e-001
2.941036e+003;1.129825e-001
2.942964e+003;1.113931e-001
2.944893e+003;1.099505e-001
2.946821e+003;1.088976e-001
2.948750e+003;1.076787e-001
2.950678e+003;1.062369e-001
2.952607e+003;1.050212e-001
2.954535e+003;1.042701e-001
2.956464e+003;1.035437e-001
2.958393e+003;1.028161e-001
2.960321e+003;1.017444e-001
2.962250e+003;1.003479e-001
2.964178e+003;9.932443e-002
2.966107e+003;9.899487e-002
2.968035e+003;9.838267e-002
2.969964e+003;9.767807e-002
2.971892e+003;9.775800e-002
2.973821e+003;9.758780e-002
2.975750e+003;9.676524e-002
2.977678e+003;9.630739e-002
2.979607e+003;9.618821e-002
2.981535e+003;9.614103e-002
2.983464e+003;9.598123e-002
2.985392e+003;9.537275e-002
2.987321e+003;9.504332e-002
2.989249e+003;9.508766e-002
2.991178e+003;9.493508e-002
2.993106e+003;9.455029e-002
2.995035e+003;9.413353e-002
2.996964e+003;9.413815e-002
2.998892e+003;9.443624e-002
3.000821e+003;9.460863e-002
3.002749e+003;9.489884e-002
3.004678e+003;9.510107e-002
3.006606e+003;9.512206e-002
3.008535e+003;9.502943e-002
3.010463e+003;9.524248e-002
3.012392e+003;9.578037e-002
3.014321e+003;9.620814e-002
3.016249e+003;9.617183e-002
3.018177e+003;9.615757e-002
3.020106e+003;9.671809e-002
3.022035e+003;9.732128e-002
3.023963e+003;9.778746e-002
3.025892e+003;9.827292e-002
3.027820e+003;9.869513e-002
3.029749e+003;9.911624e-002
3.031677e+003;9.936792e-002
3.033606e+003;9.921962e-002
3.035534e+003;9.967797e-002
3.037463e+003;1.003555e-001
3.039392e+003;1.010689e-001
3.041320e+003;1.015516e-001
3.043249e+003;1.016637e-001
3.045177e+003;1.018872e-001
3.047106e+003;1.024764e-001
3.049034e+003;1.030823e-001
3.050963e+003;1.036638e-001
3.052891e+003;1.045428e-001
3.054820e+003;1.050896e-001
3.056749e+003;1.051562e-001
3.058677e+003;1.055929e-001
3.060606e+003;1.062893e-001
3.062534e+003;1.068282e-001
3.064463e+003;1.075805e-001
3.066391e+003;1.081861e-001
3.068320e+003;1.083082e-001
3.070248e+003;1.091322e-001
3.072177e+003;1.099443e-001
3.074105e+003;1.104475e-001
3.076034e+003;1.114072e-001
3.077963e+003;1.119832e-001
3.079891e+003;1.122456e-001
3.081820e+003;1.129094e-001
3.083748e+003;1.136664e-001
3.085677e+003;1.142388e-001
3.087605e+003;1.148985e-001
3.089534e+003;1.153525e-001
3.091462e+003;1.158800e-001
3.093391e+003;1.168117e-001
3.095320e+003;1.176527e-001
3.097248e+003;1.182721e-001
3.099177e+003;1.188632e-001
3.101105e+003;1.196937e-001
3.103034e+003;1.205460e-001
3.104962e+003;1.213465e-001
3.106891e+003;1.222328e-001
3.108819e+003;1.227342e-001
3.110748e+003;1.231685e-001
3.112677e+003;1.240670e-001
3.114605e+003;1.249667e-001
3.116533e+003;1.258397e-001
3.118462e+003;1.264421e-001
3.120391e+003;1.268090e-001
3.122319e+003;1.273016e-001
3.124248e+003;1.281678e-001
3.126176e+003;1.292931e-001
3.128105e+003;1.300538e-001
3.130033e+003;1.305428e-001
3.131962e+003;1.311200e-001
3.133890e+003;1.320197e-001
3.135819e+003;1.327265e-001
3.137748e+003;1.332646e-001
3.139676e+003;1.340113e-001
3.141605e+003;1.345844e-001
3.143533e+003;1.351229e-001
3.145462e+003;1.357014e-001
3.147390e+003;1.362439e-001
3.149319e+003;1.370992e-001
3.151247e+003;1.380129e-001
3.153176e+003;1.382363e-001
3.155104e+003;1.384308e-001
3.157033e+003;1.390694e-001
3.158962e+003;1.397958e-001
3.160890e+003;1.406370e-001
3.162819e+003;1.412232e-001
3.164747e+003;1.417504e-001
3.166676e+003;1.426090e-001
3.168604e+003;1.433253e-001
3.170533e+003;1.434385e-001
3.172461e+003;1.437218e-001
3.174390e+003;1.446328e-001
3.176319e+003;1.450275e-001
3.178247e+003;1.452858e-001
3.180176e+003;1.460703e-001
3.182104e+003;1.465386e-001
3.184033e+003;1.468144e-001
3.185961e+003;1.476407e-001
3.187890e+003;1.484209e-001
3.189818e+003;1.490203e-001
3.191747e+003;1.493722e-001
3.193676e+003;1.497958e-001
3.195604e+003;1.503393e-001
3.197532e+003;1.507812e-001
3.199461e+003;1.515304e-001
3.201390e+003;1.521588e-001
3.203318e+003;1.526909e-001
3.205247e+003;1.532287e-001
3.207175e+003;1.537332e-001
3.209104e+003;1.541818e-001
3.211032e+003;1.546655e-001
3.212961e+003;1.552702e-001
3.214889e+003;1.559790e-001
3.216818e+003;1.561669e-001
3.218747e+003;1.565923e-001
3.220675e+003;1.572504e-001
3.222604e+003;1.577385e-001
3.224532e+003;1.582852e-001
3.226461e+003;1.590287e-001
3.228389e+003;1.597914e-001
3.230318e+003;1.601111e-001
3.232246e+003;1.602010e-001
3.234175e+003;1.606115e-001
3.236104e+003;1.615482e-001
3.238032e+003;1.622444e-001
3.239961e+003;1.627809e-001
3.241889e+003;1.636967e-001
3.243818e+003;1.641710e-001
3.245746e+003;1.647319e-001
3.247675e+003;1.655020e-001
3.249603e+003;1.656331e-001
3.251532e+003;1.657908e-001
3.253460e+003;1.667213e-001
3.255389e+003;1.671369e-001
3.257318e+003;1.673111e-001
3.259246e+003;1.679366e-001
3.261175e+003;1.684265e-001
3.263103e+003;1.687927e-001
3.265032e+003;1.692512e-001
3.266960e+003;1.698532e-001
3.268889e+003;1.699839e-001
3.270817e+003;1.704038e-001
3.272746e+003;1.709560e-001
3.274675e+003;1.712812e-001
3.276603e+003;1.716089e-001
3.278531e+003;1.721606e-001
3.280460e+003;1.722223e-001
3.282389e+003;1.719425e-001
3.284317e+003;1.724469e-001
3.286246e+003;1.728230e-001
3.288174e+003;1.727004e-001
3.290103e+003;1.729672e-001
3.292031e+003;1.734576e-001
3.293960e+003;1.736513e-001
3.295888e+003;1.740795e-001
3.297817e+003;1.745398e-001
3.299746e+003;1.744867e-001
3.301674e+003;1.745633e-001
3.303603e+003;1.750185e-001
3.305531e+003;1.751411e-001
3.307460e+003;1.748015e-001
3.309388e+003;1.751781e-001
3.311317e+003;1.755769e-001
3.313245e+003;1.760648e-001
3.315174e+003;1.768112e-001
3.317103e+003;1.768212e-001
3.319031e+003;1.765928e-001
3.320960e+003;1.768402e-001
3.322888e+003;1.768981e-001
3.324817e+003;1.765453e-001
3.326745e+003;1.763891e-001
3.328674e+003;1.762857e-001
3.330602e+003;1.763281e-001
3.332531e+003;1.765774e-001
3.334459e+003;1.763137e-001
3.336388e+003;1.759774e-001
3.338317e+003;1.763362e-001
3.340245e+003;1.768708e-001
3.342174e+003;1.766143e-001
3.344102e+003;1.762576e-001
3.346031e+003;1.764069e-001
3.347959e+003;1.763458e-001
3.349888e+003;1.761066e-001
3.351816e+003;1.756373e-001
3.353745e+003;1.751426e-001
3.355674e+003;1.749332e-001
3.357602e+003;1.745575e-001
3.359531e+003;1.739776e-001
3.361459e+003;1.735804e-001
3.363388e+003;1.735886e-001
3.365316e+003;1.739756e-001
3.367245e+003;1.738012e-001
3.369173e+003;1.733830e-001
3.371102e+003;1.732983e-001
3.373031e+003;1.731190e-001
3.374959e+003;1.726846e-001
3.376887e+003;1.721197e-001
3.378816e+003;1.717292e-001
3.380745e+003;1.711302e-001
3.382673e+003;1.709683e-001
3.384602e+003;1.704735e-001
3.386530e+003;1.697889e-001
3.388459e+003;1.695718e-001
3.390387e+003;1.693778e-001
3.392316e+003;1.688760e-001
3.394244e+003;1.688849e-001
3.396173e+003;1.687517e-001
3.398102e+003;1.680142e-001
3.400030e+003;1.670498e-001
3.401959e+003;1.661175e-001
3.403887e+003;1.657079e-001
3.405816e+003;1.656137e-001
3.407744e+003;1.651831e-001
3.409673e+003;1.649773e-001
3.411601e+003;1.646160e-001
3.413530e+003;1.639999e-001
3.415458e+003;1.635646e-001
3.417387e+003;1.633178e-001
3.419316e+003;1.628026e-001
3.421244e+003;1.622981e-001
3.423173e+003;1.618904e-001
3.425101e+003;1.614056e-001
3.427030e+003;1.611711e-001
3.428958e+003;1.612032e-001
3.430887e+003;1.609766e-001
3.432815e+003;1.608862e-001
3.434744e+003;1.608249e-001
3.436673e+003;1.601516e-001
3.438601e+003;1.595472e-001
3.440530e+003;1.592444e-001
3.442458e+003;1.586903e-001
3.444387e+003;1.573436e-001
3.446315e+003;1.562076e-001
3.448244e+003;1.554759e-001
3.450172e+003;1.544614e-001
3.452101e+003;1.529691e-001
3.454030e+003;1.510144e-001
3.455958e+003;1.489539e-001
3.457886e+003;1.474045e-001
3.459815e+003;1.460017e-001
3.461744e+003;1.451104e-001
3.463672e+003;1.441195e-001
3.465601e+003;1.428414e-001
3.467529e+003;1.419149e-001
3.469458e+003;1.408461e-001
3.471386e+003;1.391926e-001
3.473315e+003;1.377711e-001
3.475243e+003;1.370598e-001
3.477172e+003;1.367934e-001
3.479101e+003;1.360121e-001
3.481029e+003;1.350834e-001
3.482958e+003;1.341948e-001
3.484886e+003;1.331249e-001
3.486815e+003;1.320364e-001
3.488743e+003;1.304918e-001
3.490672e+003;1.286964e-001
3.492600e+003;1.273794e-001
3.494529e+003;1.261139e-001
3.496458e+003;1.245673e-001
3.498386e+003;1.225842e-001
3.500315e+003;1.208066e-001
3.502243e+003;1.194288e-001
3.504172e+003;1.179281e-001
3.506100e+003;1.160766e-001
3.508029e+003;1.142673e-001
3.509957e+003;1.124882e-001
3.511886e+003;1.115514e-001
3.513814e+003;1.105746e-001
3.515743e+003;1.087940e-001
3.517672e+003;1.072571e-001
3.519600e+003;1.060142e-001
3.521529e+003;1.045459e-001
3.523457e+003;1.033097e-001
3.525386e+003;1.023447e-001
3.527314e+003;1.013811e-001
3.529243e+003;9.992146e-002
3.531171e+003;9.874894e-002
3.533100e+003;9.788167e-002
3.535029e+003;9.674429e-002
3.536957e+003;9.571251e-002
3.538885e+003;9.464822e-002
3.540814e+003;9.370789e-002
3.542743e+003;9.265539e-002
3.544671e+003;9.209693e-002
3.546600e+003;9.174133e-002
3.548528e+003;9.108404e-002
3.550457e+003;8.979326e-002
3.552385e+003;8.838741e-002
3.554314e+003;8.729063e-002
3.556242e+003;8.676792e-002
3.558171e+003;8.623330e-002
3.560100e+003;8.525628e-002
3.562028e+003;8.408464e-002
3.563957e+003;8.318385e-002
3.565885e+003;8.244258e-002
3.567814e+003;8.162556e-002
3.569742e+003;8.081944e-002
3.571671e+003;7.993922e-002
3.573599e+003;7.924569e-002
3.575528e+003;7.832710e-002
3.577457e+003;7.769961e-002
3.579385e+003;7.722037e-002
3.581314e+003;7.660887e-002
3.583242e+003;7.585015e-002
3.585171e+003;7.499371e-002
3.587099e+003;7.410921e-002
3.589028e+003;7.355160e-002
3.590956e+003;7.307927e-002
3.592885e+003;7.228611e-002
3.594813e+003;7.194100e-002
3.596742e+003;7.197056e-002
3.598671e+003;7.119898e-002
3.600599e+003;7.027892e-002
3.602528e+003;6.987025e-002
3.604456e+003;6.935241e-002
3.606385e+003;6.904890e-002
3.608313e+003;6.853715e-002
3.610242e+003;6.762233e-002
3.612170e+003;6.688599e-002
3.614099e+003;6.632999e-002
3.616028e+003;6.578463e-002
3.617956e+003;6.538244e-002
3.619885e+003;6.503318e-002
3.621813e+003;6.488373e-002
3.623742e+003;6.471106e-002
3.625670e+003;6.443782e-002
3.627599e+003;6.427336e-002
3.629527e+003;6.392454e-002
3.631456e+003;6.359341e-002
3.633385e+003;6.330209e-002
3.635313e+003;6.286677e-002
3.637241e+003;6.237718e-002
3.639170e+003;6.218164e-002
3.641099e+003;6.226037e-002
3.643027e+003;6.187205e-002
3.644956e+003;6.103913e-002
3.646884e+003;6.029825e-002
3.648813e+003;6.035756e-002
3.650741e+003;6.057193e-002
3.652670e+003;6.022364e-002
3.654598e+003;5.990003e-002
3.656527e+003;5.946913e-002
3.658456e+003;5.907790e-002
3.660384e+003;5.910444e-002
3.662313e+003;5.922689e-002
3.664241e+003;5.901861e-002
3.666170e+003;5.900183e-002
3.668098e+003;5.868066e-002
3.670027e+003;5.788393e-002
3.671955e+003;5.739991e-002
3.673884e+003;5.722675e-002
3.675813e+003;5.703462e-002
3.677741e+003;5.710256e-002
3.679669e+003;5.733960e-002
3.681598e+003;5.776227e-002
3.683527e+003;5.789668e-002
3.685455e+003;5.742170e-002
3.687384e+003;5.685786e-002
3.689312e+003;5.659050e-002
3.691241e+003;5.677209e-002
3.693169e+003;5.675510e-002
3.695098e+003;5.646611e-002
3.697026e+003;5.631346e-002
3.698955e+003;5.626922e-002
3.700884e+003;5.645543e-002
3.702812e+003;5.634481e-002
3.704741e+003;5.578847e-002
3.706669e+003;5.548164e-002
3.708598e+003;5.559230e-002
3.710526e+003;5.536878e-002
3.712455e+003;5.518845e-002
3.714383e+003;5.515154e-002
3.716312e+003;5.497006e-002
3.718240e+003;5.482233e-002
3.720169e+003;5.478188e-002
3.722098e+003;5.483064e-002
3.724026e+003;5.491704e-002
3.725955e+003;5.484184e-002
3.727883e+003;5.494385e-002
3.729812e+003;5.464114e-002
3.731740e+003;5.423738e-002
3.733669e+003;5.437785e-002
3.735597e+003;5.428056e-002
3.737526e+003;5.410345e-002
3.739455e+003;5.429291e-002
3.741383e+003;5.465670e-002
3.743312e+003;5.433192e-002
3.745240e+003;5.380381e-002
3.747169e+003;5.414283e-002
3.749097e+003;5.436147e-002
3.751026e+003;5.403046e-002
3.752954e+003;5.405024e-002
3.754883e+003;5.447039e-002
3.756812e+003;5.434912e-002
3.758740e+003;5.456806e-002
3.760668e+003;5.489485e-002
3.762597e+003;5.445634e-002
3.764526e+003;5.416125e-002
3.766454e+003;5.423498e-002
3.768383e+003;5.380433e-002
3.770311e+003;5.384848e-002
3.772240e+003;5.434919e-002
3.774168e+003;5.449416e-002
3.776097e+003;5.461356e-002
3.778025e+003;5.440049e-002
3.779954e+003;5.419943e-002
3.781883e+003;5.438731e-002
3.783811e+003;5.476087e-002
3.785740e+003;5.485000e-002
3.787668e+003;5.436534e-002
3.789597e+003;5.426306e-002
3.791525e+003;5.457610e-002
3.793454e+003;5.496803e-002
3.795382e+003;5.485711e-002
3.797311e+003;5.439197e-002
3.799240e+003;5.394706e-002
3.801168e+003;5.349053e-002
3.803097e+003;5.383636e-002
3.805025e+003;5.426238e-002
3.806954e+003;5.426715e-002
3.808882e+003;5.439185e-002
3.810811e+003;5.447903e-002
3.812739e+003;5.448185e-002
3.814668e+003;5.409200e-002
3.816596e+003;5.391063e-002
3.818525e+003;5.424985e-002
3.820454e+003;5.423565e-002
3.822382e+003;5.423025e-002
3.824311e+003;5.426940e-002
3.826239e+003;5.426460e-002
3.828168e+003;5.446629e-002
3.830096e+003;5.473904e-002
3.832025e+003;5.480155e-002
3.833953e+003;5.480023e-002
3.835882e+003;5.461142e-002
3.837811e+003;5.385118e-002
3.839739e+003;5.397223e-002
3.841667e+003;5.457636e-002
3.843596e+003;5.484053e-002
3.845525e+003;5.502602e-002
3.847453e+003;5.474659e-002
3.849382e+003;5.458354e-002
3.851310e+003;5.468386e-002
3.853239e+003;5.429786e-002
3.855167e+003;5.412151e-002
3.857096e+003;5.465177e-002
3.859024e+003;5.532060e-002
3.860953e+003;5.540043e-002
3.862882e+003;5.499059e-002
3.864810e+003;5.507683e-002
3.866739e+003;5.576677e-002
3.868667e+003;5.588674e-002
3.870596e+003;5.576722e-002
3.872524e+003;5.592710e-002
3.874453e+003;5.570687e-002
3.876381e+003;5.592537e-002
3.878310e+003;5.589221e-002
3.880239e+003;5.555656e-002
3.882167e+003;5.578621e-002
3.884096e+003;5.577027e-002
3.886024e+003;5.550566e-002
3.887953e+003;5.576767e-002
3.889881e+003;5.600448e-002
3.891810e+003;5.641932e-002
3.893738e+003;5.685348e-002
3.895667e+003;5.681095e-002
3.897595e+003;5.647388e-002
3.899524e+003;5.602823e-002
3.901453e+003;5.624617e-002
3.903381e+003;5.650569e-002
3.905310e+003;5.648313e-002
3.907238e+003;5.636639e-002
3.909167e+003;5.656740e-002
3.911095e+003;5.659114e-002
3.913024e+003;5.633277e-002
3.914952e+003;5.676734e-002
3.916881e+003;5.719451e-002
3.918810e+003;5.707901e-002
3.920738e+003;5.697243e-002
3.922667e+003;5.725688e-002
3.924595e+003;5.728002e-002
3.926524e+003;5.705967e-002
3.928452e+003;5.741001e-002
3.930381e+003;5.776696e-002
3.932309e+003;5.792724e-002
3.934238e+003;5.805421e-002
3.936167e+003;5.783448e-002
3.938095e+003;5.773702e-002
3.940023e+003;5.786549e-002
3.941952e+003;5.788657e-002
3.943881e+003;5.793284e-002
3.945809e+003;5.768650e-002
3.947738e+003;5.716072e-002
3.949666e+003;5.730039e-002
3.951595e+003;5.761109e-002
3.953523e+003;5.757118e-002
3.955452e+003;5.755548e-002
3.957380e+003;5.752578e-002
3.959309e+003;5.788976e-002
3.961238e+003;5.865422e-002
3.963166e+003;5.868946e-002
3.965095e+003;5.803069e-002
3.967023e+003;5.785868e-002
3.968952e+003;5.766769e-002
3.970880e+003;5.759214e-002
3.972809e+003;5.750978e-002
3.974737e+003;5.734713e-002
3.976666e+003;5.763338e-002
3.978594e+003;5.810943e-002
3.980523e+003;5.844133e-002
3.982452e+003;5.815019e-002
3.984380e+003;5.781949e-002
3.986309e+003;5.762903e-002
3.988237e+003;5.775651e-002
3.990166e+003;5.812848e-002
3.992094e+003;5.807913e-002
3.994023e+003;5.803273e-002
3.995951e+003;5.774561e-002
3.997880e+003;5.725242e-002
3.999809e+003;5.711185e-002
4.001737e+003;0.000000e+000
