3.992094e+002;0.000000e+000
4.011380e+002;0.000000e+000
4.030665e+002;0.000000e+000
4.049951e+002;0.000000e+000
4.069236e+002;0.000000e+000
4.088522e+002;0.000000e+000
4.107807e+002;0.000000e+000
4.127093e+002;0.000000e+000
4.146378e+002;0.000000e+000
4.165664e+002;0.000000e+000
4.184949e+002;0.000000e+000
4.204235e+002;0.000000e+000
4.223520e+002;0.000000e+000
4.242806e+002;0.000000e+000
4.262091e+002;0.000000e+000
4.281377e+002;0.000000e+000
4.300662e+002;0.000000e+000
4.319948e+002;0.000000e+000
4.339233e+002;0.000000e+000
4.358519e+002;0.000000e+000
4.377804e+002;0.000000e+000
4.397090e+002;0.000000e+000
4.416375e+002;0.000000e+000
4.435660e+002;0.000000e+000
4.454946e+002;0.000000e+000
4.474232e+002;0.000000e+000
4.493517e+002;0.000000e+000
4.512802e+002;0.000000e+000
4.532088e+002;0.000000e+000
4.551373e+002;0.000000e+000
4.570659e+002;0.000000e+000
4.589944e+002;0.000000e+000
4.609230e+002;0.000000e+000
4.628515e+002;0.000000e+000
4.647801e+002;0.000000e+000
4.667086e+002;0.000000e+000
4.686372e+002;0.000000e+000
4.705657e+002;0.000000e+000
4.724943e+002;0.000000e+000
4.744228e+002;0.000000e+000
4.763513e+002;0.000000e+000
4.782799e+002;0.000000e+000
4.802085e+002;0.000000e+000
4.821370e+002;0.000000e+000
4.840656e+002;0.000000e+000
4.859941e+002;0.000000e+000
4.879226e+002;0.000000e+000
4.898512e+002;0.000000e+000
4.917798e+002;0.000000e+000
4.937083e+002;0.000000e+000
4.956368e+002;0.000000e+000
4.975654e+002;0.000000e+000
4.994939e+002;0.000000e+000
5.014225e+002;0.000000e+000
5.033510e+002;0.000000e+000
5.052796e+002;0.000000e+000
5.072081e+002;0.000000e+000
5.091367e+002;0.000000e+000
5.110652e+002;0.000000e+000
5.129938e+002;0.000000e+000
5.149223e+002;0.000000e+000
5.168509e+002;0.000000e+000
5.187794e+002;0.000000e+000
5.207079e+002;0.000000e+000
5.226365e+002;0.000000e+000
5.245651e+002;0.000000e+000
5.264936e+002;0.000000e+000
5.284222e+002;0.000000e+000
5.303507e+002;0.000000e+000
5.322792e+002;0.000000e+000
5.342078e+002;0.000000e+000
5.361364e+002;0.000000e+000
5.380649e+002;0.000000e+000
5.399935e+002;0.000000e+000
5.419220e+002;0.000000e+000
5.438505e+002;0.000000e+000
5.457791e+002;0.000000e+000
5.477076e+002;0.000000e+000
5.496362e+002;0.000000e+000
5.515648e+002;0.000000e+000
5.534933e+002;0.000000e+000
5.554218e+002;0.000000e+000
5.573504e+002;0.000000e+000
5.592789e+002;0.000000e+000
5.612075e+002;0.000000e+000
5.631360e+002;0.000000e+000
5.650646e+002;0.000000e+000
5.669931e+002;0.000000e+000
5.689217e+002;0.000000e+000
5.708502e+002;0.000000e+000
5.727787e+002;0.000000e+000
5.747073e+002;0.000000e+000
5.766359e+002;0.000000e+000
5.785644e+002;0.000000e+000
5.804930e+002;0.000000e+000
5.824215e+002;0.000000e+000
5.843500e+002;0.000000e+000
5.862786e+002;0.000000e+000
5.882072e+002;0.000000e+000
5.901357e+002;0.000000e+000
5.920643e+002;0.000000e+000
5.939928e+002;0.000000e+000
5.959213e+002;0.000000e+000
5.978499e+002;0.000000e+000
5.997784e+002;2.618553e-001
6.017070e+002;2.607248e-001
6.036355e+002;2.611433e-001
6.055641e+002;2.658611e-001
6.074926e+002;2.662089e-001
6.094211e+002;2.622886e-001
6.113497e+002;2.590312e-001
6.132783e+002;2.582909e-001
6.152068e+002;2.564182e-001
6.171354e+002;2.493320e-001
6.190639e+002;2.421412e-001
6.209924e+002;2.384786e-001
6.229210e+002;2.383199e-001
6.248495e+002;2.392401e-001
6.267781e+002;2.391800e-001
6.287067e+002;2.353493e-001
6.306352e+002;2.326725e-001
6.325637e+002;2.307130e-001
6.344923e+002;2.274775e-001
6.364208e+002;2.274711e-001
6.383494e+002;2.274287e-001
6.402780e+002;2.248009e-001
6.422065e+002;2.250297e-001
6.441350e+002;2.280046e-001
6.460636e+002;2.295637e-001
6.479921e+002;2.273887e-001
6.499207e+002;2.245302e-001
6.518492e+002;2.262738e-001
6.537778e+002;2.319732e-001
6.557063e+002;2.350465e-001
6.576349e+002;2.362321e-001
6.595634e+002;2.395755e-001
6.614919e+002;2.406904e-001
6.634205e+002;2.433702e-001
6.653491e+002;2.453799e-001
6.672776e+002;2.450080e-001
6.692062e+002;2.438800e-001
6.711347e+002;2.397352e-001
6.730632e+002;2.330788e-001
6.749918e+002;2.230651e-001
6.769203e+002;2.101365e-001
6.788489e+002;1.980524e-001
6.807775e+002;1.883829e-001
6.827060e+002;1.831048e-001
6.846345e+002;1.798867e-001
6.865631e+002;1.762202e-001
6.884916e+002;1.753773e-001
6.904202e+002;1.739800e-001
6.923488e+002;1.731248e-001
6.942773e+002;1.729853e-001
6.962058e+002;1.724516e-001
6.981344e+002;1.726599e-001
7.000629e+002;1.721791e-001
7.019915e+002;1.713041e-001
7.039200e+002;1.703379e-001
7.058486e+002;1.693962e-001
7.077771e+002;1.688517e-001
7.097057e+002;1.687162e-001
7.116342e+002;1.676664e-001
7.135627e+002;1.662309e-001
7.154913e+002;1.654697e-001
7.174199e+002;1.647544e-001
7.193484e+002;1.625535e-001
7.212770e+002;1.608082e-001
7.232055e+002;1.600797e-001
7.251340e+002;1.592144e-001
7.270626e+002;1.574170e-001
7.289911e+002;1.554859e-001
7.309197e+002;1.538258e-001
7.328483e+002;1.521843e-001
7.347768e+002;1.505652e-001
7.367053e+002;1.494497e-001
7.386339e+002;1.482103e-001
7.405624e+002;1.463616e-001
7.424910e+002;1.452365e-001
7.444196e+002;1.452062e-001
7.463481e+002;1.453830e-001
7.482766e+002;1.442656e-001
7.502052e+002;1.420991e-001
7.521337e+002;1.413994e-001
7.540623e+002;1.406463e-001
7.559908e+002;1.391505e-001
7.579194e+002;1.376667e-001
7.598479e+002;1.367475e-001
7.617765e+002;1.368226e-001
7.637050e+002;1.361635e-001
7.656335e+002;1.345146e-001
7.675621e+002;1.329549e-001
7.694907e+002;1.321498e-001
7.714192e+002;1.315097e-001
7.733478e+002;1.305894e-001
7.752763e+002;1.287341e-001
7.772048e+002;1.276677e-001
7.791334e+002;1.277204e-001
7.810620e+002;1.275203e-001
7.829905e+002;1.265787e-001
7.849191e+002;1.256575e-001
7.868476e+002;1.244511e-001
7.887761e+002;1.239462e-001
7.907047e+002;1.237720e-001
7.926332e+002;1.233653e-001
7.945618e+002;1.230506e-001
7.964903e+002;1.221684e-001
7.984189e+002;1.216197e-001
8.003474e+002;1.220512e-001
8.022759e+002;1.211922e-001
8.042045e+002;1.193880e-001
8.061331e+002;1.188448e-001
8.080616e+002;1.199410e-001
8.099902e+002;1.206583e-001
8.119187e+002;1.203971e-001
8.138472e+002;1.203835e-001
8.157758e+002;1.205659e-001
8.177043e+002;1.206644e-001
8.196329e+002;1.200177e-001
8.215615e+002;1.197454e-001
8.234900e+002;1.201025e-001
8.254185e+002;1.206170e-001
8.273471e+002;1.204752e-001
8.292756e+002;1.199625e-001
8.312042e+002;1.191242e-001
8.331328e+002;1.186748e-001
8.350613e+002;1.191256e-001
8.369898e+002;1.194543e-001
8.389184e+002;1.190270e-001
8.408469e+002;1.184653e-001
8.427755e+002;1.180406e-001
8.447040e+002;1.172964e-001
8.466326e+002;1.166777e-001
8.485611e+002;1.166513e-001
8.504897e+002;1.171041e-001
8.524182e+002;1.179584e-001
8.543467e+002;1.182776e-001
8.562753e+002;1.180994e-001
8.582039e+002;1.178017e-001
8.601324e+002;1.181944e-001
8.620610e+002;1.190252e-001
8.639895e+002;1.198141e-001
8.659180e+002;1.209915e-001
8.678466e+002;1.221206e-001
8.697751e+002;1.237188e-001
8.717037e+002;1.258344e-001
8.736323e+002;1.280728e-001
8.755608e+002;1.310732e-001
8.774893e+002;1.350502e-001
8.794179e+002;1.394931e-001
8.813464e+002;1.441872e-001
8.832750e+002;1.498691e-001
8.852036e+002;1.563151e-001
8.871321e+002;1.622536e-001
8.890606e+002;1.681794e-001
8.909892e+002;1.735512e-001
8.929177e+002;1.767330e-001
8.948463e+002;1.775002e-001
8.967748e+002;1.754649e-001
8.987034e+002;1.712045e-001
9.006319e+002;1.663479e-001
9.025605e+002;1.612453e-001
9.044890e+002;1.565005e-001
9.064175e+002;1.523303e-001
9.083461e+002;1.487996e-001
9.102747e+002;1.461203e-001
9.122032e+002;1.437128e-001
9.141318e+002;1.420150e-001
9.160603e+002;1.415599e-001
9.179888e+002;1.414178e-001
9.199174e+002;1.412829e-001
9.218459e+002;1.422810e-001
9.237745e+002;1.442111e-001
9.257031e+002;1.455974e-001
9.276316e+002;1.465212e-001
9.295601e+002;1.482715e-001
9.314887e+002;1.503073e-001
9.334172e+002;1.516769e-001
9.353458e+002;1.531508e-001
9.372744e+002;1.550275e-001
9.392029e+002;1.570651e-001
9.411314e+002;1.591565e-001
9.430600e+002;1.616217e-001
9.449885e+002;1.647408e-001
9.469171e+002;1.679854e-001
9.488456e+002;1.720578e-001
9.507742e+002;1.768430e-001
9.527027e+002;1.816956e-001
9.546313e+002;1.867266e-001
9.565598e+002;1.922867e-001
9.584883e+002;1.980744e-001
9.604169e+002;2.036271e-001
9.623455e+002;2.087216e-001
9.642740e+002;2.141236e-001
9.662026e+002;2.191357e-001
9.681311e+002;2.242263e-001
9.700596e+002;2.298550e-001
9.719882e+002;2.364244e-001
9.739167e+002;2.442505e-001
9.758453e+002;2.535777e-001
9.777739e+002;2.647004e-001
9.797024e+002;2.775295e-001
9.816309e+002;2.917691e-001
9.835595e+002;3.072430e-001
9.854880e+002;3.239518e-001
9.874166e+002;3.405564e-001
9.893452e+002;3.553867e-001
9.912737e+002;3.680070e-001
9.932022e+002;3.777642e-001
9.951307e+002;3.845870e-001
9.970593e+002;3.886338e-001
9.989879e+002;3.904459e-001
1.000916e+003;3.912074e-001
1.002845e+003;3.929940e-001
1.004773e+003;3.966073e-001
1.006702e+003;4.016007e-001
1.008631e+003;4.081593e-001
1.010559e+003;4.165556e-001
1.012488e+003;4.259050e-001
1.014416e+003;4.343795e-001
1.016345e+003;4.415003e-001
1.018273e+003;4.471745e-001
1.020202e+003;4.507562e-001
1.022130e+003;4.522532e-001
1.024059e+003;4.518411e-001
1.025988e+003;4.493022e-001
1.027916e+003;4.452389e-001
1.029845e+003;4.397801e-001
1.031773e+003;4.341123e-001
1.033702e+003;4.278491e-001
1.035630e+003;4.211705e-001
1.037559e+003;4.164108e-001
1.039487e+003;4.136933e-001
1.041416e+003;4.121135e-001
1.043344e+003;4.102990e-001
1.045273e+003;4.078468e-001
1.047202e+003;4.050446e-001
1.049130e+003;4.020591e-001
1.051059e+003;3.994725e-001
1.052987e+003;3.972251e-001
1.054916e+003;3.946255e-001
1.056844e+003;3.908175e-001
1.058773e+003;3.856714e-001
1.060701e+003;3.781658e-001
1.062630e+003;3.688962e-001
1.064558e+003;3.595838e-001
1.066487e+003;3.504045e-001
1.068416e+003;3.425474e-001
1.070344e+003;3.369590e-001
1.072273e+003;3.320754e-001
1.074201e+003;3.273721e-001
1.076130e+003;3.223712e-001
1.078058e+003;3.168162e-001
1.079987e+003;3.111636e-001
1.081915e+003;3.059392e-001
1.083844e+003;3.007938e-001
1.085773e+003;2.952790e-001
1.087701e+003;2.895799e-001
1.089630e+003;2.838709e-001
1.091558e+003;2.777032e-001
1.093487e+003;2.716833e-001
1.095415e+003;2.658426e-001
1.097344e+003;2.597268e-001
1.099272e+003;2.526027e-001
1.101201e+003;2.452679e-001
1.103129e+003;2.385804e-001
1.105058e+003;2.335225e-001
1.106987e+003;2.301780e-001
1.108915e+003;2.280349e-001
1.110844e+003;2.247128e-001
1.112772e+003;2.201037e-001
1.114701e+003;2.155820e-001
1.116629e+003;2.112356e-001
1.118558e+003;2.062618e-001
1.120486e+003;2.005687e-001
1.122415e+003;1.949122e-001
1.124344e+003;1.895327e-001
1.126272e+003;1.836414e-001
1.128201e+003;1.779048e-001
1.130129e+003;1.731556e-001
1.132058e+003;1.684868e-001
1.133986e+003;1.639900e-001
1.135915e+003;1.602455e-001
1.137843e+003;1.575614e-001
1.139772e+003;1.554526e-001
1.141700e+003;1.547189e-001
1.143629e+003;1.551703e-001
1.145557e+003;1.558407e-001
1.147486e+003;1.577476e-001
1.149415e+003;1.604396e-001
1.151343e+003;1.627967e-001
1.153272e+003;1.645725e-001
1.155200e+003;1.656189e-001
1.157129e+003;1.657494e-001
1.159057e+003;1.636043e-001
1.160986e+003;1.588050e-001
1.162914e+003;1.528617e-001
1.164843e+003;1.462399e-001
1.166771e+003;1.391120e-001
1.168700e+003;1.325894e-001
1.170629e+003;1.273557e-001
1.172557e+003;1.228484e-001
1.174486e+003;1.186828e-001
1.176414e+003;1.150988e-001
1.178343e+003;1.122470e-001
1.180271e+003;1.100315e-001
1.182200e+003;1.088113e-001
1.184128e+003;1.084870e-001
1.186057e+003;1.086985e-001
1.187986e+003;1.097750e-001
1.189914e+003;1.122611e-001
1.191843e+003;1.155215e-001
1.193771e+003;1.184861e-001
1.195700e+003;1.209244e-001
1.197628e+003;1.218550e-001
1.199557e+003;1.214346e-001
1.201485e+003;1.198829e-001
1.203414e+003;1.172298e-001
1.205343e+003;1.143725e-001
1.207271e+003;1.120474e-001
1.209200e+003;1.104835e-001
1.211128e+003;1.099046e-001
1.213057e+003;1.101445e-001
1.214985e+003;1.111099e-001
1.216914e+003;1.122385e-001
1.218842e+003;1.139569e-001
1.220771e+003;1.165076e-001
1.222699e+003;1.192152e-001
1.224628e+003;1.211466e-001
1.226557e+003;1.221995e-001
1.228485e+003;1.221986e-001
1.230414e+003;1.217254e-001
1.232342e+003;1.212419e-001
1.234271e+003;1.205997e-001
1.236199e+003;1.200385e-001
1.238128e+003;1.196075e-001
1.240056e+003;1.191015e-001
1.241985e+003;1.182580e-001
1.243913e+003;1.175537e-001
1.245842e+003;1.174280e-001
1.247771e+003;1.176715e-001
1.249699e+003;1.180550e-001
1.251628e+003;1.185962e-001
1.253556e+003;1.198343e-001
1.255485e+003;1.214051e-001
1.257413e+003;1.224717e-001
1.259342e+003;1.226754e-001
1.261270e+003;1.223888e-001
1.263199e+003;1.219608e-001
1.265127e+003;1.211392e-001
1.267056e+003;1.202060e-001
1.268985e+003;1.192924e-001
1.270913e+003;1.185651e-001
1.272842e+003;1.179777e-001
1.274770e+003;1.174427e-001
1.276699e+003;1.172111e-001
1.278627e+003;1.168469e-001
1.280556e+003;1.157523e-001
1.282484e+003;1.145585e-001
1.284413e+003;1.142868e-001
1.286342e+003;1.148134e-001
1.288270e+003;1.159141e-001
1.290199e+003;1.178964e-001
1.292127e+003;1.197489e-001
1.294056e+003;1.211101e-001
1.295984e+003;1.228044e-001
1.297913e+003;1.244528e-001
1.299841e+003;1.261053e-001
1.301770e+003;1.279291e-001
1.303698e+003;1.298212e-001
1.305627e+003;1.323008e-001
1.307556e+003;1.352615e-001
1.309484e+003;1.380545e-001
1.311413e+003;1.398649e-001
1.313341e+003;1.404093e-001
1.315270e+003;1.400755e-001
1.317198e+003;1.387258e-001
1.319127e+003;1.363775e-001
1.321055e+003;1.339747e-001
1.322984e+003;1.324158e-001
1.324912e+003;1.314460e-001
1.326841e+003;1.310484e-001
1.328770e+003;1.315207e-001
1.330698e+003;1.319679e-001
1.332627e+003;1.323512e-001
1.334555e+003;1.326855e-001
1.336484e+003;1.323858e-001
1.338412e+003;1.315506e-001
1.340341e+003;1.306773e-001
1.342269e+003;1.303791e-001
1.344198e+003;1.300802e-001
1.346126e+003;1.293625e-001
1.348055e+003;1.288039e-001
1.349984e+003;1.287880e-001
1.351912e+003;1.295702e-001
1.353841e+003;1.307765e-001
1.355769e+003;1.320160e-001
1.357698e+003;1.336048e-001
1.359626e+003;1.352495e-001
1.361555e+003;1.363537e-001
1.363483e+003;1.369996e-001
1.365412e+003;1.370528e-001
1.367341e+003;1.365287e-001
1.369269e+003;1.355889e-001
1.371198e+003;1.344289e-001
1.373126e+003;1.328792e-001
1.375055e+003;1.309235e-001
1.376983e+003;1.287230e-001
1.378912e+003;1.261004e-001
1.380840e+003;1.229901e-001
1.382769e+003;1.199695e-001
1.384698e+003;1.175477e-001
1.386626e+003;1.156289e-001
1.388555e+003;1.142639e-001
1.390483e+003;1.136062e-001
1.392412e+003;1.133297e-001
1.394340e+003;1.130426e-001
1.396269e+003;1.128356e-001
1.398197e+003;1.125124e-001
1.400126e+003;1.119750e-001
1.402054e+003;1.113953e-001
1.403983e+003;1.109888e-001
1.405911e+003;1.108432e-001
1.407840e+003;1.109509e-001
1.409769e+003;1.110744e-001
1.411697e+003;1.110927e-001
1.413626e+003;1.112941e-001
1.415554e+003;1.114003e-001
1.417483e+003;1.113219e-001
1.419411e+003;1.109580e-001
1.421340e+003;1.107074e-001
1.423268e+003;1.105547e-001
1.425197e+003;1.104242e-001
1.427125e+003;1.100571e-001
1.429054e+003;1.095563e-001
1.430983e+003;1.092555e-001
1.432911e+003;1.090127e-001
1.434840e+003;1.085680e-001
1.436768e+003;1.078900e-001
1.438697e+003;1.071629e-001
1.440625e+003;1.064898e-001
1.442554e+003;1.058308e-001
1.444482e+003;1.048184e-001
1.446411e+003;1.036556e-001
1.448340e+003;1.027998e-001
1.450268e+003;1.021987e-001
1.452197e+003;1.016214e-001
1.454125e+003;1.009067e-001
1.456054e+003;9.997568e-002
1.457982e+003;9.939933e-002
1.459911e+003;9.918864e-002
1.461839e+003;9.868772e-002
1.463768e+003;9.774330e-002
1.465697e+003;9.705405e-002
1.467625e+003;9.643550e-002
1.469554e+003;9.544411e-002
1.471482e+003;9.420692e-002
1.473411e+003;9.300336e-002
1.475339e+003;9.192801e-002
1.477268e+003;9.053393e-002
1.479196e+003;8.888488e-002
1.481125e+003;8.749153e-002
1.483053e+003;8.629761e-002
1.484982e+003;8.504585e-002
1.486911e+003;8.380815e-002
1.488839e+003;8.269877e-002
1.490768e+003;8.168074e-002
1.492696e+003;8.069777e-002
1.494625e+003;7.961579e-002
1.496553e+003;7.868860e-002
1.498482e+003;7.813499e-002
1.500410e+003;7.753987e-002
1.502339e+003;7.691222e-002
1.504267e+003;7.617449e-002
1.506196e+003;7.524648e-002
1.508125e+003;7.479025e-002
1.510053e+003;7.459105e-002
1.511982e+003;7.419080e-002
1.513910e+003;7.373293e-002
1.515839e+003;7.334661e-002
1.517767e+003;7.316564e-002
1.519696e+003;7.281811e-002
1.521624e+003;7.235835e-002
1.523553e+003;7.234693e-002
1.525481e+003;7.208598e-002
1.527410e+003;7.183883e-002
1.529339e+003;7.174732e-002
1.531267e+003;7.162965e-002
1.533196e+003;7.168764e-002
1.535124e+003;7.160597e-002
1.537053e+003;7.142650e-002
1.538981e+003;7.104114e-002
1.540910e+003;7.094391e-002
1.542838e+003;7.104574e-002
1.544767e+003;7.079974e-002
1.546695e+003;7.071219e-002
1.548624e+003;7.086343e-002
1.550553e+003;7.090291e-002
1.552481e+003;7.067362e-002
1.554410e+003;7.061998e-002
1.556338e+003;7.058135e-002
1.558267e+003;7.022458e-002
1.560195e+003;7.054248e-002
1.562124e+003;7.144986e-002
1.564052e+003;7.179860e-002
1.565981e+003;7.187132e-002
1.567910e+003;7.216320e-002
1.569838e+003;7.228751e-002
1.571767e+003;7.258445e-002
1.573695e+003;7.289382e-002
1.575624e+003;7.292791e-002
1.577552e+003;7.328401e-002
1.579481e+003;7.377070e-002
1.581409e+003;7.394419e-002
1.583338e+003;7.436450e-002
1.585266e+003;7.477864e-002
1.587195e+003;7.502817e-002
1.589124e+003;7.559963e-002
1.591052e+003;7.630873e-002
1.592981e+003;7.689454e-002
1.594909e+003;7.721712e-002
1.596838e+003;7.743990e-002
1.598766e+003;7.780566e-002
1.600695e+003;7.818815e-002
1.602623e+003;7.857729e-002
1.604552e+003;7.900084e-002
1.606480e+003;7.927751e-002
1.608409e+003;7.942392e-002
1.610338e+003;7.979621e-002
1.612266e+003;8.033659e-002
1.614195e+003;8.053752e-002
1.616123e+003;8.028501e-002
1.618052e+003;8.050909e-002
1.619980e+003;8.110470e-002
1.621909e+003;8.160652e-002
1.623837e+003;8.222251e-002
1.625766e+003;8.283808e-002
1.627694e+003;8.341121e-002
1.629623e+003;8.373964e-002
1.631552e+003;8.403965e-002
1.633480e+003;8.428498e-002
1.635409e+003;8.423587e-002
1.637337e+003;8.428784e-002
1.639266e+003;8.452100e-002
1.641194e+003;8.422524e-002
1.643123e+003;8.350922e-002
1.645051e+003;8.277902e-002
1.646980e+003;8.253542e-002
1.648909e+003;8.238298e-002
1.650837e+003;8.166443e-002
1.652766e+003;8.083892e-002
1.654694e+003;8.065847e-002
1.656623e+003;8.046841e-002
1.658551e+003;8.014610e-002
1.660480e+003;7.991668e-002
1.662408e+003;7.926295e-002
1.664337e+003;7.840583e-002
1.666266e+003;7.772608e-002
1.668194e+003;7.696063e-002
1.670123e+003;7.609335e-002
1.672051e+003;7.531036e-002
1.673980e+003;7.456993e-002
1.675908e+003;7.380475e-002
1.677837e+003;7.324914e-002
1.679765e+003;7.244185e-002
1.681694e+003;7.144678e-002
1.683622e+003;7.060178e-002
1.685551e+003;7.005382e-002
1.687479e+003;6.949945e-002
1.689408e+003;6.905907e-002
1.691337e+003;6.866948e-002
1.693265e+003;6.807873e-002
1.695194e+003;6.752857e-002
1.697122e+003;6.717434e-002
1.699051e+003;6.653386e-002
1.700979e+003;6.604243e-002
1.702908e+003;6.596266e-002
1.704836e+003;6.545158e-002
1.706765e+003;6.517830e-002
1.708693e+003;6.496572e-002
1.710622e+003;6.456402e-002
1.712551e+003;6.445089e-002
1.714479e+003;6.426560e-002
1.716408e+003;6.371265e-002
1.718336e+003;6.342359e-002
1.720265e+003;6.348383e-002
1.722193e+003;6.336098e-002
1.724122e+003;6.305376e-002
1.726050e+003;6.288619e-002
1.727979e+003;6.284510e-002
1.729908e+003;6.250495e-002
1.731836e+003;6.192310e-002
1.733765e+003;6.144217e-002
1.735693e+003;6.129711e-002
1.737622e+003;6.114302e-002
1.739550e+003;6.055570e-002
1.741479e+003;5.994100e-002
1.743407e+003;5.973211e-002
1.745336e+003;5.989787e-002
1.747265e+003;5.991262e-002
1.749193e+003;5.969914e-002
1.751122e+003;5.970097e-002
1.753050e+003;5.998539e-002
1.754979e+003;6.022870e-002
1.756907e+003;6.025462e-002
1.758836e+003;6.032166e-002
1.760764e+003;6.037580e-002
1.762693e+003;6.053765e-002
1.764621e+003;6.072502e-002
1.766550e+003;6.074788e-002
1.768479e+003;6.077635e-002
1.770407e+003;6.074205e-002
1.772336e+003;6.058904e-002
1.774264e+003;6.055799e-002
1.776193e+003;6.069876e-002
1.778121e+003;6.085799e-002
1.780050e+003;6.082845e-002
1.781978e+003;6.071671e-002
1.783907e+003;6.064161e-002
1.785835e+003;6.063121e-002
1.787764e+003;6.080215e-002
1.789693e+003;6.083016e-002
1.791621e+003;6.073839e-002
1.793550e+003;6.070337e-002
1.795478e+003;6.064801e-002
1.797407e+003;6.070905e-002
1.799335e+003;6.067087e-002
1.801264e+003;6.053822e-002
1.803192e+003;6.056252e-002
1.805121e+003;6.070730e-002
1.807049e+003;6.085117e-002
1.808978e+003;6.084587e-002
1.810907e+003;6.077170e-002
1.812835e+003;6.075886e-002
1.814764e+003;6.061608e-002
1.816692e+003;6.052710e-002
1.818621e+003;6.067495e-002
1.820549e+003;6.083390e-002
1.822478e+003;6.090130e-002
1.824406e+003;6.075215e-002
1.826335e+003;6.064759e-002
1.828264e+003;6.049792e-002
1.830192e+003;6.038341e-002
1.832121e+003;6.052272e-002
1.834049e+003;6.064500e-002
1.835978e+003;6.065693e-002
1.837906e+003;6.063712e-002
1.839835e+003;6.057948e-002
1.841763e+003;6.060424e-002
1.843692e+003;6.054009e-002
1.845620e+003;6.046231e-002
1.847549e+003;6.048063e-002
1.849478e+003;6.080177e-002
1.851406e+003;6.096081e-002
1.853335e+003;6.082102e-002
1.855263e+003;6.064523e-002
1.857192e+003;6.068847e-002
1.859120e+003;6.063807e-002
1.861049e+003;6.046007e-002
1.862977e+003;6.038387e-002
1.864906e+003;6.058805e-002
1.866834e+003;6.080413e-002
1.868763e+003;6.071587e-002
1.870692e+003;6.059045e-002
1.872620e+003;6.056043e-002
1.874549e+003;6.053616e-002
1.876477e+003;6.043455e-002
1.878406e+003;6.039240e-002
1.880334e+003;6.045371e-002
1.882263e+003;6.063685e-002
1.884191e+003;6.090198e-002
1.886120e+003;6.085327e-002
1.888048e+003;6.055970e-002
1.889977e+003;6.033049e-002
1.891906e+003;6.031766e-002
1.893834e+003;6.038330e-002
1.895763e+003;6.050147e-002
1.897691e+003;6.069587e-002
1.899620e+003;6.070166e-002
1.901548e+003;6.064595e-002
1.903477e+003;6.072616e-002
1.905405e+003;6.083607e-002
1.907334e+003;6.089184e-002
1.909262e+003;6.085746e-002
1.911191e+003;6.088037e-002
1.913120e+003;6.086710e-002
1.915048e+003;6.088944e-002
1.916977e+003;6.091170e-002
1.918905e+003;6.104187e-002
1.920834e+003;6.116736e-002
1.922762e+003;6.125685e-002
1.924691e+003;6.138709e-002
1.926619e+003;6.148931e-002
1.928548e+003;6.126238e-002
1.930477e+003;6.102658e-002
1.932405e+003;6.096912e-002
1.934334e+003;6.101167e-002
1.936262e+003;6.124281e-002
1.938191e+003;6.150870e-002
1.940119e+003;6.161179e-002
1.942048e+003;6.148305e-002
1.943976e+003;6.145854e-002
1.945905e+003;6.145388e-002
1.947833e+003;6.138709e-002
1.949762e+003;6.142064e-002
1.951691e+003;6.151706e-002
1.953619e+003;6.178731e-002
1.955548e+003;6.194133e-002
1.957476e+003;6.185700e-002
1.959405e+003;6.174824e-002
1.961333e+003;6.186322e-002
1.963262e+003;6.200721e-002
1.965190e+003;6.188359e-002
1.967119e+003;6.187400e-002
1.969047e+003;6.206722e-002
1.970976e+003;6.215182e-002
1.972905e+003;6.212808e-002
1.974833e+003;6.203267e-002
1.976762e+003;6.210694e-002
1.978690e+003;6.231319e-002
1.980619e+003;6.247917e-002
1.982547e+003;6.244868e-002
1.984476e+003;6.248564e-002
1.986404e+003;6.250469e-002
1.988333e+003;6.260036e-002
1.990261e+003;6.261896e-002
1.992190e+003;6.246077e-002
1.994119e+003;6.233327e-002
1.996047e+003;6.231889e-002
1.997976e+003;6.251004e-002
1.999904e+003;6.247592e-002
2.001833e+003;6.237194e-002
2.003761e+003;6.251919e-002
2.005690e+003;6.261501e-002
2.007618e+003;6.267982e-002
2.009547e+003;6.276335e-002
2.011476e+003;6.265406e-002
2.013404e+003;6.272958e-002
2.015333e+003;6.288527e-002
2.017261e+003;6.286673e-002
2.019190e+003;6.305204e-002
2.021118e+003;6.322467e-002
2.023047e+003;6.311864e-002
2.024975e+003;6.308373e-002
2.026904e+003;6.291376e-002
2.028833e+003;6.274761e-002
2.030761e+003;6.286041e-002
2.032690e+003;6.306009e-002
2.034618e+003;6.308534e-002
2.036547e+003;6.299711e-002
2.038475e+003;6.298615e-002
2.040404e+003;6.308200e-002
2.042332e+003;6.313998e-002
2.044261e+003;6.314385e-002
2.046189e+003;6.339020e-002
2.048118e+003;6.340595e-002
2.050047e+003;6.313745e-002
2.051975e+003;6.315289e-002
2.053904e+003;6.323314e-002
2.055832e+003;6.320566e-002
2.057761e+003;6.324518e-002
2.059689e+003;6.318757e-002
2.061618e+003;6.318975e-002
2.063546e+003;6.320582e-002
2.065475e+003;6.301335e-002
2.067404e+003;6.309561e-002
2.069332e+003;6.328806e-002
2.071260e+003;6.325974e-002
2.073189e+003;6.331635e-002
2.075118e+003;6.313166e-002
2.077046e+003;6.303396e-002
2.078975e+003;6.321397e-002
2.080903e+003;6.326576e-002
2.082832e+003;6.316461e-002
2.084760e+003;6.306028e-002
2.086689e+003;6.331559e-002
2.088617e+003;6.338766e-002
2.090546e+003;6.307806e-002
2.092475e+003;6.302978e-002
2.094403e+003;6.308614e-002
2.096332e+003;6.300615e-002
2.098260e+003;6.309940e-002
2.100189e+003;6.330746e-002
2.102117e+003;6.331628e-002
2.104046e+003;6.306537e-002
2.105974e+003;6.284410e-002
2.107903e+003;6.293977e-002
2.109832e+003;6.316358e-002
2.111760e+003;6.326009e-002
2.113688e+003;6.330317e-002
2.115617e+003;6.335089e-002
2.117546e+003;6.336056e-002
2.119474e+003;6.330555e-002
2.121403e+003;6.331728e-002
2.123331e+003;6.334031e-002
2.125260e+003;6.338069e-002
2.127188e+003;6.317722e-002
2.129117e+003;6.297244e-002
2.131045e+003;6.321950e-002
2.132974e+003;6.345017e-002
2.134903e+003;6.335772e-002
2.136831e+003;6.321792e-002
2.138760e+003;6.310323e-002
2.140688e+003;6.306411e-002
2.142617e+003;6.319316e-002
2.144545e+003;6.315316e-002
2.146474e+003;6.301764e-002
2.148402e+003;6.322712e-002
2.150331e+003;6.318550e-002
2.152260e+003;6.282917e-002
2.154188e+003;6.284824e-002
2.156117e+003;6.313691e-002
2.158045e+003;6.334771e-002
2.159974e+003;6.327488e-002
2.161902e+003;6.306170e-002
2.163831e+003;6.295911e-002
2.165759e+003;6.322245e-002
2.167688e+003;6.326790e-002
2.169616e+003;6.298393e-002
2.171545e+003;6.285004e-002
2.173474e+003;6.299431e-002
2.175402e+003;6.297313e-002
2.177331e+003;6.291499e-002
2.179259e+003;6.277736e-002
2.181188e+003;6.252944e-002
2.183116e+003;6.264858e-002
2.185045e+003;6.284463e-002
2.186973e+003;6.278261e-002
2.188902e+003;6.280126e-002
2.190831e+003;6.280921e-002
2.192759e+003;6.284502e-002
2.194688e+003;6.283013e-002
2.196616e+003;6.257958e-002
2.198545e+003;6.240878e-002
2.200473e+003;6.242052e-002
2.202402e+003;6.240024e-002
2.204330e+003;6.231881e-002
2.206259e+003;6.252512e-002
2.208188e+003;6.256959e-002
2.210116e+003;6.229101e-002
2.212044e+003;6.230183e-002
2.213973e+003;6.247209e-002
2.215902e+003;6.246773e-002
2.217830e+003;6.248066e-002
2.219759e+003;6.252122e-002
2.221687e+003;6.254885e-002
2.223616e+003;6.249268e-002
2.225544e+003;6.233266e-002
2.227473e+003;6.226798e-002
2.229401e+003;6.245729e-002
2.231330e+003;6.272679e-002
2.233259e+003;6.259596e-002
2.235187e+003;6.225506e-002
2.237116e+003;6.214983e-002
2.239044e+003;6.226653e-002
2.240973e+003;6.234210e-002
2.242901e+003;6.215721e-002
2.244830e+003;6.207536e-002
2.246758e+003;6.225143e-002
2.248687e+003;6.219804e-002
2.250615e+003;6.203821e-002
2.252544e+003;6.185062e-002
2.254473e+003;6.172318e-002
2.256401e+003;6.168720e-002
2.258330e+003;6.170283e-002
2.260258e+003;6.180084e-002
2.262187e+003;6.191832e-002
2.264115e+003;6.203664e-002
2.266044e+003;6.170936e-002
2.267972e+003;6.143167e-002
2.269901e+003;6.132538e-002
2.271830e+003;6.130176e-002
2.273758e+003;6.146148e-002
2.275687e+003;6.178441e-002
2.277615e+003;6.182281e-002
2.279544e+003;6.169492e-002
2.281472e+003;6.178292e-002
2.283401e+003;6.168713e-002
2.285329e+003;6.143716e-002
2.287258e+003;6.130188e-002
2.289187e+003;6.119779e-002
2.291115e+003;6.114447e-002
2.293043e+003;6.129153e-002
2.294972e+003;6.144824e-002
2.296901e+003;6.141549e-002
2.298829e+003;6.145366e-002
2.300758e+003;6.148564e-002
2.302686e+003;6.143820e-002
2.304615e+003;6.127917e-002
2.306543e+003;6.126788e-002
2.308472e+003;6.132386e-002
2.310400e+003;6.159323e-002
2.312329e+003;6.174362e-002
2.314258e+003;6.165119e-002
2.316186e+003;6.158219e-002
2.318115e+003;6.147930e-002
2.320043e+003;6.139774e-002
2.321972e+003;6.140335e-002
2.323900e+003;6.161996e-002
2.325829e+003;6.177479e-002
2.327757e+003;6.174625e-002
2.329686e+003;6.171753e-002
2.331615e+003;6.183316e-002
2.333543e+003;6.199613e-002
2.335472e+003;6.209398e-002
2.337400e+003;6.210312e-002
2.339329e+003;6.193315e-002
2.341257e+003;6.181868e-002
2.343186e+003;6.202873e-002
2.345114e+003;6.210323e-002
2.347043e+003;6.209807e-002
2.348971e+003;6.231334e-002
2.350900e+003;6.247232e-002
2.352829e+003;6.258696e-002
2.354757e+003;6.257185e-002
2.356686e+003;6.243234e-002
2.358614e+003;6.234566e-002
2.360543e+003;6.248881e-002
2.362471e+003;6.274444e-002
2.364400e+003;6.287971e-002
2.366328e+003;6.269046e-002
2.368257e+003;6.252600e-002
2.370186e+003;6.278823e-002
2.372114e+003;6.291238e-002
2.374042e+003;6.275443e-002
2.375971e+003;6.261146e-002
2.377900e+003;6.248223e-002
2.379828e+003;6.256802e-002
2.381757e+003;6.272858e-002
2.383685e+003;6.267978e-002
2.385614e+003;6.255689e-002
2.387542e+003;6.275029e-002
2.389471e+003;6.299806e-002
2.391399e+003;6.323065e-002
2.393328e+003;6.332035e-002
2.395257e+003;6.329554e-002
2.397185e+003;6.332966e-002
2.399114e+003;6.342409e-002
2.401042e+003;6.351241e-002
2.402971e+003;6.358439e-002
2.404899e+003;6.342681e-002
2.406828e+003;6.338360e-002
2.408756e+003;6.367367e-002
2.410685e+003;6.373674e-002
2.412614e+003;6.366922e-002
2.414542e+003;6.368046e-002
2.416471e+003;6.382678e-002
2.418399e+003;6.393552e-002
2.420328e+003;6.399069e-002
2.422256e+003;6.423229e-002
2.424185e+003;6.437403e-002
2.426113e+003;6.436976e-002
2.428042e+003;6.444401e-002
2.429970e+003;6.455806e-002
2.431899e+003;6.488284e-002
2.433828e+003;6.511167e-002
2.435756e+003;6.486976e-002
2.437685e+003;6.474298e-002
2.439613e+003;6.508942e-002
2.441542e+003;6.509797e-002
2.443470e+003;6.503876e-002
2.445399e+003;6.537885e-002
2.447327e+003;6.547269e-002
2.449256e+003;6.537959e-002
2.451185e+003;6.556663e-002
2.453113e+003;6.562478e-002
2.455042e+003;6.556720e-002
2.456970e+003;6.570788e-002
2.458899e+003;6.577827e-002
2.460827e+003;6.560709e-002
2.462756e+003;6.557214e-002
2.464684e+003;6.566590e-002
2.466613e+003;6.579053e-002
2.468542e+003;6.600131e-002
2.470470e+003;6.628434e-002
2.472398e+003;6.644956e-002
2.474327e+003;6.663474e-002
2.476256e+003;6.678592e-002
2.478184e+003;6.666330e-002
2.480113e+003;6.659368e-002
2.482041e+003;6.671093e-002
2.483970e+003;6.680254e-002
2.485898e+003;6.679361e-002
2.487827e+003;6.688822e-002
2.489755e+003;6.700844e-002
2.491684e+003;6.703223e-002
2.493613e+003;6.704201e-002
2.495541e+003;6.708980e-002
2.497470e+003;6.715399e-002
2.499398e+003;6.748467e-002
2.501327e+003;6.763948e-002
2.503255e+003;6.762508e-002
2.505184e+003;6.787863e-002
2.507112e+003;6.780263e-002
2.509041e+003;6.760130e-002
2.510969e+003;6.767448e-002
2.512898e+003;6.804706e-002
2.514827e+003;6.819800e-002
2.516755e+003;6.800145e-002
2.518684e+003;6.788433e-002
2.520612e+003;6.795805e-002
2.522541e+003;6.815284e-002
2.524469e+003;6.835309e-002
2.526398e+003;6.822122e-002
2.528326e+003;6.785477e-002
2.530255e+003;6.778183e-002
2.532184e+003;6.818842e-002
2.534112e+003;6.831478e-002
2.536041e+003;6.833491e-002
2.537969e+003;6.840029e-002
2.539898e+003;6.825945e-002
2.541826e+003;6.822827e-002
2.543755e+003;6.823223e-002
2.545683e+003;6.843284e-002
2.547612e+003;6.864429e-002
2.549541e+003;6.865352e-002
2.551469e+003;6.864720e-002
2.553397e+003;6.865807e-002
2.555326e+003;6.863214e-002
2.557255e+003;6.882121e-002
2.559183e+003;6.888963e-002
2.561112e+003;6.899980e-002
2.563040e+003;6.927316e-002
2.564969e+003;6.913028e-002
2.566897e+003;6.894422e-002
2.568826e+003;6.905360e-002
2.570754e+003;6.918876e-002
2.572683e+003;6.924557e-002
2.574612e+003;6.927440e-002
2.576540e+003;6.935525e-002
2.578469e+003;6.935727e-002
2.580397e+003;6.947880e-002
2.582326e+003;6.970450e-002
2.584254e+003;6.981087e-002
2.586183e+003;6.975558e-002
2.588111e+003;6.978421e-002
2.590040e+003;6.979126e-002
2.591969e+003;6.977328e-002
2.593897e+003;6.983608e-002
2.595826e+003;7.005846e-002
2.597754e+003;7.017512e-002
2.599683e+003;7.030229e-002
2.601611e+003;7.033034e-002
2.603540e+003;7.042447e-002
2.605468e+003;7.057043e-002
2.607397e+003;7.068809e-002
2.609325e+003;7.079978e-002
2.611254e+003;7.082824e-002
2.613183e+003;7.049797e-002
2.615111e+003;7.040569e-002
2.617040e+003;7.085126e-002
2.618968e+003;7.115144e-002
2.620897e+003;7.098628e-002
2.622825e+003;7.068396e-002
2.624754e+003;7.081611e-002
2.626682e+003;7.112555e-002
2.628611e+003;7.117590e-002
2.630540e+003;7.143068e-002
2.632468e+003;7.156353e-002
2.634396e+003;7.169072e-002
2.636325e+003;7.195672e-002
2.638254e+003;7.219489e-002
2.640182e+003;7.225046e-002
2.642111e+003;7.221989e-002
2.644039e+003;7.231213e-002
2.645968e+003;7.249286e-002
2.647896e+003;7.243370e-002
2.649825e+003;7.252442e-002
2.651753e+003;7.289374e-002
2.653682e+003;7.301454e-002
2.655611e+003;7.317874e-002
2.657539e+003;7.332468e-002
2.659468e+003;7.346903e-002
2.661396e+003;7.366195e-002
2.663325e+003;7.357142e-002
2.665253e+003;7.365452e-002
2.667182e+003;7.393260e-002
2.669110e+003;7.416211e-002
2.671039e+003;7.425339e-002
2.672968e+003;7.437491e-002
2.674896e+003;7.449121e-002
2.676825e+003;7.477321e-002
2.678753e+003;7.490012e-002
2.680682e+003;7.493646e-002
2.682610e+003;7.510959e-002
2.684539e+003;7.519582e-002
2.686467e+003;7.511632e-002
2.688396e+003;7.549211e-002
2.690324e+003;7.597454e-002
2.692253e+003;7.590023e-002
2.694182e+003;7.581993e-002
2.696110e+003;7.618543e-002
2.698039e+003;7.648505e-002
2.699967e+003;7.645632e-002
2.701896e+003;7.634120e-002
2.703824e+003;7.648595e-002
2.705753e+003;7.689026e-002
2.707681e+003;7.699722e-002
2.709610e+003;7.692080e-002
2.711539e+003;7.687602e-002
2.713467e+003;7.726577e-002
2.715396e+003;7.773353e-002
2.717324e+003;7.785556e-002
2.719253e+003;7.773282e-002
2.721181e+003;7.764553e-002
2.723110e+003;7.782032e-002
2.725038e+003;7.820251e-002
2.726967e+003;7.824746e-002
2.728896e+003;7.829825e-002
2.730824e+003;7.860278e-002
2.732752e+003;7.862212e-002
2.734681e+003;7.846605e-002
2.736610e+003;7.846776e-002
2.738538e+003;7.873499e-002
2.740467e+003;7.923114e-002
2.742395e+003;7.929548e-002
2.744324e+003;7.899738e-002
2.746252e+003;7.889525e-002
2.748181e+003;7.893062e-002
2.750109e+003;7.892752e-002
2.752038e+003;7.897814e-002
2.753967e+003;7.905847e-002
2.755895e+003;7.920203e-002
2.757824e+003;7.976424e-002
2.759752e+003;8.004801e-002
2.761681e+003;7.988844e-002
2.763609e+003;8.000259e-002
2.765538e+003;8.025909e-002
2.767466e+003;8.043483e-002
2.769395e+003;8.046917e-002
2.771323e+003;8.057741e-002
2.773252e+003;8.094478e-002
2.775181e+003;8.144271e-002
2.777109e+003;8.178801e-002
2.779038e+003;8.196332e-002
2.780966e+003;8.205877e-002
2.782895e+003;8.236492e-002
2.784823e+003;8.266690e-002
2.786752e+003;8.275758e-002
2.788680e+003;8.314569e-002
2.790609e+003;8.375575e-002
2.792538e+003;8.380678e-002
2.794466e+003;8.375362e-002
2.796395e+003;8.425356e-002
2.798323e+003;8.470903e-002
2.800252e+003;8.474000e-002
2.802180e+003;8.496989e-002
2.804109e+003;8.560874e-002
2.806037e+003;8.622833e-002
2.807966e+003;8.644754e-002
2.809895e+003;8.668353e-002
2.811823e+003;8.690300e-002
2.813751e+003;8.725867e-002
2.815680e+003;8.800960e-002
2.817609e+003;8.853254e-002
2.819537e+003;8.883727e-002
2.821466e+003;8.901277e-002
2.823394e+003;8.925829e-002
2.825323e+003;8.938373e-002
2.827251e+003;8.961728e-002
2.829180e+003;9.035525e-002
2.831108e+003;9.105527e-002
2.833037e+003;9.178632e-002
2.834966e+003;9.228900e-002
2.836894e+003;9.256665e-002
2.838823e+003;9.323764e-002
2.840751e+003;9.439622e-002
2.842680e+003;9.544622e-002
2.844608e+003;9.584234e-002
2.846537e+003;9.582627e-002
2.848465e+003;9.605666e-002
2.850394e+003;9.663360e-002
2.852323e+003;9.733061e-002
2.854251e+003;9.857100e-002
2.856180e+003;1.001007e-001
2.858108e+003;1.015830e-001
2.860037e+003;1.029764e-001
2.861965e+003;1.047507e-001
2.863894e+003;1.062307e-001
2.865822e+003;1.072415e-001
2.867751e+003;1.083045e-001
2.869679e+003;1.096432e-001
2.871608e+003;1.109563e-001
2.873536e+003;1.118039e-001
2.875465e+003;1.124267e-001
2.877394e+003;1.130297e-001
2.879322e+003;1.133759e-001
2.881251e+003;1.138271e-001
2.883179e+003;1.142840e-001
2.885108e+003;1.148059e-001
2.887036e+003;1.155711e-001
2.888965e+003;1.161423e-001
2.890893e+003;1.162148e-001
2.892822e+003;1.162035e-001
2.894750e+003;1.159551e-001
2.896679e+003;1.154096e-001
2.898608e+003;1.149553e-001
2.900536e+003;1.144987e-001
2.902465e+003;1.137590e-001
2.904393e+003;1.127169e-001
2.906322e+003;1.121767e-001
2.908250e+003;1.115286e-001
2.910179e+003;1.104025e-001
2.912107e+003;1.091412e-001
2.914036e+003;1.077627e-001
2.915965e+003;1.062357e-001
2.917893e+003;1.047519e-001
2.919822e+003;1.034926e-001
2.921750e+003;1.027475e-001
2.923679e+003;1.020729e-001
2.925607e+003;1.010554e-001
2.927536e+003;1.000976e-001
2.929464e+003;9.915347e-002
2.931393e+003;9.834290e-002
2.933322e+003;9.802134e-002
2.935250e+003;9.748058e-002
2.937178e+003;9.631199e-002
2.939107e+003;9.507454e-002
2.941036e+003;9.417663e-002
2.942964e+003;9.335671e-002
2.944893e+003;9.251781e-002
2.946821e+003;9.164696e-002
2.948750e+003;9.069685e-002
2.950678e+003;8.968490e-002
2.952607e+003;8.871996e-002
2.954535e+003;8.789096e-002
2.956464e+003;8.692069e-002
2.958393e+003;8.616445e-002
2.960321e+003;8.546329e-002
2.962250e+003;8.465221e-002
2.964178e+003;8.421479e-002
2.966107e+003;8.412401e-002
2.968035e+003;8.403687e-002
2.969964e+003;8.403667e-002
2.971892e+003;8.364000e-002
2.973821e+003;8.305971e-002
2.975750e+003;8.312298e-002
2.977678e+003;8.329623e-002
2.979607e+003;8.321508e-002
2.981535e+003;8.319449e-002
2.983464e+003;8.303083e-002
2.985392e+003;8.259051e-002
2.987321e+003;8.235406e-002
2.989249e+003;8.231105e-002
2.991178e+003;8.241726e-002
2.993106e+003;8.244839e-002
2.995035e+003;8.217006e-002
2.996964e+003;8.211777e-002
2.998892e+003;8.214888e-002
3.000821e+003;8.209540e-002
3.002749e+003;8.226568e-002
3.004678e+003;8.247440e-002
3.006606e+003;8.273280e-002
3.008535e+003;8.300191e-002
3.010463e+003;8.303043e-002
3.012392e+003;8.316556e-002
3.014321e+003;8.339334e-002
3.016249e+003;8.382768e-002
3.018177e+003;8.416697e-002
3.020106e+003;8.437290e-002
3.022035e+003;8.480190e-002
3.023963e+003;8.533338e-002
3.025892e+003;8.573075e-002
3.027820e+003;8.599725e-002
3.029749e+003;8.638253e-002
3.031677e+003;8.686366e-002
3.033606e+003;8.722436e-002
3.035534e+003;8.760875e-002
3.037463e+003;8.833645e-002
3.039392e+003;8.877791e-002
3.041320e+003;8.887236e-002
3.043249e+003;8.920612e-002
3.045177e+003;8.983763e-002
3.047106e+003;9.013748e-002
3.049034e+003;9.026554e-002
3.050963e+003;9.090497e-002
3.052891e+003;9.161942e-002
3.054820e+003;9.220771e-002
3.056749e+003;9.283995e-002
3.058677e+003;9.351207e-002
3.060606e+003;9.394053e-002
3.062534e+003;9.421906e-002
3.064463e+003;9.474567e-002
3.066391e+003;9.506077e-002
3.068320e+003;9.535711e-002
3.070248e+003;9.600350e-002
3.072177e+003;9.673999e-002
3.074105e+003;9.743621e-002
3.076034e+003;9.785756e-002
3.077963e+003;9.800357e-002
3.079891e+003;9.851824e-002
3.081820e+003;9.913627e-002
3.083748e+003;9.976034e-002
3.085677e+003;1.003609e-001
3.087605e+003;1.010757e-001
3.089534e+003;1.016453e-001
3.091462e+003;1.022100e-001
3.093391e+003;1.029292e-001
3.095320e+003;1.033935e-001
3.097248e+003;1.038257e-001
3.099177e+003;1.046214e-001
3.101105e+003;1.052369e-001
3.103034e+003;1.059519e-001
3.104962e+003;1.066987e-001
3.106891e+003;1.069597e-001
3.108819e+003;1.073017e-001
3.110748e+003;1.079568e-001
3.112677e+003;1.087265e-001
3.114605e+003;1.093582e-001
3.116533e+003;1.102235e-001
3.118462e+003;1.109124e-001
3.120391e+003;1.112529e-001
3.122319e+003;1.117317e-001
3.124248e+003;1.119095e-001
3.126176e+003;1.123767e-001
3.128105e+003;1.137406e-001
3.130033e+003;1.146451e-001
3.131962e+003;1.149544e-001
3.133890e+003;1.155977e-001
3.135819e+003;1.161522e-001
3.137748e+003;1.163795e-001
3.139676e+003;1.170711e-001
3.141605e+003;1.181122e-001
3.143533e+003;1.185787e-001
3.145462e+003;1.189351e-001
3.147390e+003;1.192947e-001
3.149319e+003;1.199384e-001
3.151247e+003;1.207411e-001
3.153176e+003;1.212207e-001
3.155104e+003;1.215422e-001
3.157033e+003;1.219858e-001
3.158962e+003;1.224724e-001
3.160890e+003;1.230727e-001
3.162819e+003;1.234572e-001
3.164747e+003;1.234394e-001
3.166676e+003;1.240024e-001
3.168604e+003;1.247799e-001
3.170533e+003;1.252266e-001
3.172461e+003;1.254261e-001
3.174390e+003;1.256537e-001
3.176319e+003;1.262296e-001
3.178247e+003;1.268126e-001
3.180176e+003;1.270554e-001
3.182104e+003;1.272115e-001
3.184033e+003;1.278794e-001
3.185961e+003;1.289973e-001
3.187890e+003;1.294834e-001
3.189818e+003;1.291262e-001
3.191747e+003;1.290278e-001
3.193676e+003;1.294928e-001
3.195604e+003;1.302056e-001
3.197532e+003;1.309180e-001
3.199461e+003;1.317422e-001
3.201390e+003;1.325538e-001
3.203318e+003;1.331380e-001
3.205247e+003;1.333881e-001
3.207175e+003;1.334769e-001
3.209104e+003;1.336166e-001
3.211032e+003;1.340925e-001
3.212961e+003;1.342217e-001
3.214889e+003;1.346963e-001
3.216818e+003;1.355429e-001
3.218747e+003;1.361210e-001
3.220675e+003;1.362395e-001
3.222604e+003;1.365796e-001
3.224532e+003;1.373183e-001
3.226461e+003;1.376275e-001
3.228389e+003;1.377955e-001
3.230318e+003;1.382645e-001
3.232246e+003;1.386469e-001
3.234175e+003;1.392484e-001
3.236104e+003;1.397767e-001
3.238032e+003;1.404805e-001
3.239961e+003;1.411525e-001
3.241889e+003;1.408862e-001
3.243818e+003;1.409025e-001
3.245746e+003;1.413858e-001
3.247675e+003;1.418431e-001
3.249603e+003;1.419915e-001
3.251532e+003;1.423734e-001
3.253460e+003;1.428111e-001
3.255389e+003;1.429818e-001
3.257318e+003;1.435375e-001
3.259246e+003;1.439697e-001
3.261175e+003;1.443917e-001
3.263103e+003;1.448264e-001
3.265032e+003;1.448777e-001
3.266960e+003;1.451123e-001
3.268889e+003;1.458871e-001
3.270817e+003;1.466635e-001
3.272746e+003;1.468472e-001
3.274675e+003;1.467659e-001
3.276603e+003;1.471961e-001
3.278531e+003;1.476505e-001
3.280460e+003;1.479974e-001
3.282389e+003;1.481284e-001
3.284317e+003;1.480100e-001
3.286246e+003;1.480525e-001
3.288174e+003;1.484345e-001
3.290103e+003;1.488309e-001
3.292031e+003;1.493302e-001
3.293960e+003;1.492924e-001
3.295888e+003;1.492811e-001
3.297817e+003;1.497138e-001
3.299746e+003;1.503425e-001
3.301674e+003;1.504810e-001
3.303603e+003;1.500760e-001
3.305531e+003;1.498878e-001
3.307460e+003;1.500735e-001
3.309388e+003;1.506876e-001
3.311317e+003;1.512575e-001
3.313245e+003;1.520814e-001
3.315174e+003;1.519973e-001
3.317103e+003;1.516731e-001
3.319031e+003;1.516721e-001
3.320960e+003;1.512651e-001
3.322888e+003;1.509909e-001
3.324817e+003;1.516011e-001
3.326745e+003;1.518791e-001
3.328674e+003;1.515870e-001
3.330602e+003;1.521200e-001
3.332531e+003;1.524872e-001
3.334459e+003;1.522371e-001
3.336388e+003;1.518218e-001
3.338317e+003;1.513910e-001
3.340245e+003;1.513461e-001
3.342174e+003;1.513329e-001
3.344102e+003;1.514706e-001
3.346031e+003;1.517812e-001
3.347959e+003;1.514674e-001
3.349888e+003;1.508820e-001
3.351816e+003;1.506574e-001
3.353745e+003;1.505961e-001
3.355674e+003;1.505127e-001
3.357602e+003;1.504980e-001
3.359531e+003;1.505170e-001
3.361459e+003;1.501990e-001
3.363388e+003;1.496473e-001
3.365316e+003;1.490104e-001
3.367245e+003;1.482287e-001
3.369173e+003;1.476689e-001
3.371102e+003;1.476244e-001
3.373031e+003;1.476652e-001
3.374959e+003;1.472662e-001
3.376887e+003;1.464714e-001
3.378816e+003;1.461367e-001
3.380745e+003;1.464669e-001
3.382673e+003;1.466616e-001
3.384602e+003;1.461823e-001
3.386530e+003;1.454217e-001
3.388459e+003;1.451188e-001
3.390387e+003;1.448093e-001
3.392316e+003;1.449157e-001
3.394244e+003;1.445004e-001
3.396173e+003;1.437335e-001
3.398102e+003;1.434570e-001
3.400030e+003;1.429598e-001
3.401959e+003;1.421674e-001
3.403887e+003;1.420911e-001
3.405816e+003;1.420442e-001
3.407744e+003;1.414519e-001
3.409673e+003;1.411077e-001
3.411601e+003;1.406449e-001
3.413530e+003;1.402186e-001
3.415458e+003;1.397727e-001
3.417387e+003;1.392434e-001
3.419316e+003;1.387582e-001
3.421244e+003;1.384149e-001
3.423173e+003;1.384085e-001
3.425101e+003;1.376243e-001
3.427030e+003;1.371571e-001
3.428958e+003;1.374950e-001
3.430887e+003;1.374699e-001
3.432815e+003;1.375447e-001
3.434744e+003;1.373439e-001
3.436673e+003;1.368863e-001
3.438601e+003;1.365105e-001
3.440530e+003;1.363337e-001
3.442458e+003;1.360923e-001
3.444387e+003;1.351541e-001
3.446315e+003;1.341106e-001
3.448244e+003;1.329688e-001
3.450172e+003;1.314732e-001
3.452101e+003;1.300795e-001
3.454030e+003;1.291436e-001
3.455958e+003;1.279173e-001
3.457886e+003;1.265531e-001
3.459815e+003;1.256588e-001
3.461744e+003;1.246141e-001
3.463672e+003;1.232144e-001
3.465601e+003;1.221621e-001
3.467529e+003;1.216203e-001
3.469458e+003;1.203209e-001
3.471386e+003;1.187260e-001
3.473315e+003;1.179618e-001
3.475243e+003;1.174815e-001
3.477172e+003;1.169162e-001
3.479101e+003;1.163934e-001
3.481029e+003;1.156647e-001
3.482958e+003;1.146290e-001
3.484886e+003;1.137615e-001
3.486815e+003;1.128854e-001
3.488743e+003;1.118201e-001
3.490672e+003;1.106419e-001
3.492600e+003;1.091319e-001
3.494529e+003;1.075361e-001
3.496458e+003;1.062353e-001
3.498386e+003;1.050411e-001
3.500315e+003;1.033297e-001
3.502243e+003;1.017830e-001
3.504172e+003;1.006018e-001
3.506100e+003;9.916013e-002
3.508029e+003;9.786375e-002
3.509957e+003;9.677932e-002
3.511886e+003;9.532620e-002
3.513814e+003;9.405629e-002
3.515743e+003;9.289526e-002
3.517672e+003;9.160981e-002
3.519600e+003;9.057083e-002
3.521529e+003;8.948086e-002
3.523457e+003;8.807558e-002
3.525386e+003;8.713721e-002
3.527314e+003;8.647924e-002
3.529243e+003;8.576845e-002
3.531171e+003;8.500379e-002
3.533100e+003;8.396885e-002
3.535029e+003;8.304716e-002
3.536957e+003;8.220769e-002
3.538885e+003;8.140405e-002
3.540814e+003;8.055743e-002
3.542743e+003;7.977180e-002
3.544671e+003;7.885750e-002
3.546600e+003;7.804433e-002
3.548528e+003;7.776860e-002
3.550457e+003;7.710049e-002
3.552385e+003;7.582999e-002
3.554314e+003;7.489414e-002
3.556242e+003;7.423947e-002
3.558171e+003;7.365394e-002
3.560100e+003;7.304108e-002
3.562028e+003;7.251996e-002
3.563957e+003;7.184912e-002
3.565885e+003;7.080056e-002
3.567814e+003;6.982733e-002
3.569742e+003;6.957224e-002
3.571671e+003;6.933507e-002
3.573599e+003;6.852552e-002
3.575528e+003;6.753039e-002
3.577457e+003;6.680641e-002
3.579385e+003;6.630749e-002
3.581314e+003;6.570236e-002
3.583242e+003;6.516922e-002
3.585171e+003;6.482553e-002
3.587099e+003;6.373782e-002
3.589028e+003;6.279647e-002
3.590956e+003;6.245419e-002
3.592885e+003;6.198803e-002
3.594813e+003;6.147789e-002
3.596742e+003;6.126376e-002
3.598671e+003;6.076282e-002
3.600599e+003;6.030388e-002
3.602528e+003;6.036799e-002
3.604456e+003;5.996325e-002
3.606385e+003;5.920935e-002
3.608313e+003;5.868305e-002
3.610242e+003;5.792273e-002
3.612170e+003;5.754549e-002
3.614099e+003;5.750244e-002
3.616028e+003;5.718370e-002
3.617956e+003;5.692120e-002
3.619885e+003;5.639099e-002
3.621813e+003;5.557415e-002
3.623742e+003;5.488222e-002
3.625670e+003;5.484617e-002
3.627599e+003;5.505317e-002
3.629527e+003;5.479001e-002
3.631456e+003;5.450821e-002
3.633385e+003;5.426434e-002
3.635313e+003;5.378561e-002
3.637241e+003;5.332529e-002
3.639170e+003;5.348090e-002
3.641099e+003;5.319996e-002
3.643027e+003;5.267883e-002
3.644956e+003;5.240102e-002
3.646884e+003;5.187334e-002
3.648813e+003;5.169699e-002
3.650741e+003;5.191658e-002
3.652670e+003;5.182126e-002
3.654598e+003;5.140400e-002
3.656527e+003;5.079342e-002
3.658456e+003;5.036227e-002
3.660384e+003;5.013629e-002
3.662313e+003;5.003607e-002
3.664241e+003;5.011866e-002
3.666170e+003;5.030999e-002
3.668098e+003;4.985460e-002
3.670027e+003;4.907384e-002
3.671955e+003;4.920782e-002
3.673884e+003;4.936367e-002
3.675813e+003;4.858180e-002
3.677741e+003;4.840011e-002
3.679669e+003;4.874725e-002
3.681598e+003;4.840404e-002
3.683527e+003;4.810952e-002
3.685455e+003;4.815212e-002
3.687384e+003;4.782311e-002
3.689312e+003;4.790557e-002
3.691241e+003;4.802650e-002
3.693169e+003;4.783691e-002
3.695098e+003;4.831545e-002
3.697026e+003;4.857465e-002
3.698955e+003;4.800067e-002
3.700884e+003;4.770675e-002
3.702812e+003;4.781863e-002
3.704741e+003;4.779115e-002
3.706669e+003;4.768024e-002
3.708598e+003;4.754625e-002
3.710526e+003;4.711431e-002
3.712455e+003;4.680387e-002
3.714383e+003;4.696960e-002
3.716312e+003;4.715412e-002
3.718240e+003;4.712151e-002
3.720169e+003;4.696381e-002
3.722098e+003;4.680350e-002
3.724026e+003;4.709060e-002
3.725955e+003;4.720251e-002
3.727883e+003;4.692549e-002
3.729812e+003;4.661216e-002
3.731740e+003;4.654621e-002
3.733669e+003;4.689828e-002
3.735597e+003;4.692228e-002
3.737526e+003;4.670653e-002
3.739455e+003;4.668380e-002
3.741383e+003;4.633227e-002
3.743312e+003;4.609198e-002
3.745240e+003;4.640538e-002
3.747169e+003;4.658951e-002
3.749097e+003;4.667583e-002
3.751026e+003;4.678254e-002
3.752954e+003;4.686960e-002
3.754883e+003;4.713751e-002
3.756812e+003;4.700350e-002
3.758740e+003;4.665499e-002
3.760668e+003;4.694875e-002
3.762597e+003;4.730082e-002
3.764526e+003;4.701649e-002
3.766454e+003;4.664182e-002
3.768383e+003;4.641433e-002
3.770311e+003;4.663761e-002
3.772240e+003;4.707494e-002
3.774168e+003;4.729771e-002
3.776097e+003;4.730055e-002
3.778025e+003;4.692098e-002
3.779954e+003;4.628221e-002
3.781883e+003;4.613144e-002
3.783811e+003;4.666034e-002
3.785740e+003;4.702834e-002
3.787668e+003;4.735155e-002
3.789597e+003;4.747250e-002
3.791525e+003;4.698002e-002
3.793454e+003;4.666797e-002
3.795382e+003;4.688839e-002
3.797311e+003;4.718703e-002
3.799240e+003;4.749693e-002
3.801168e+003;4.733355e-002
3.803097e+003;4.762451e-002
3.805025e+003;4.782344e-002
3.806954e+003;4.692652e-002
3.808882e+003;4.665429e-002
3.810811e+003;4.701874e-002
3.812739e+003;4.727274e-002
3.814668e+003;4.723229e-002
3.816596e+003;4.706852e-002
3.818525e+003;4.684373e-002
3.820454e+003;4.647082e-002
3.822382e+003;4.661832e-002
3.824311e+003;4.720288e-002
3.826239e+003;4.747919e-002
3.828168e+003;4.741126e-002
3.830096e+003;4.725862e-002
3.832025e+003;4.704422e-002
3.833953e+003;4.688418e-002
3.835882e+003;4.678402e-002
3.837811e+003;4.675922e-002
3.839739e+003;4.681188e-002
3.841667e+003;4.698230e-002
3.843596e+003;4.670166e-002
3.845525e+003;4.690186e-002
3.847453e+003;4.743887e-002
3.849382e+003;4.775750e-002
3.851310e+003;4.734209e-002
3.853239e+003;4.667661e-002
3.855167e+003;4.683140e-002
3.857096e+003;4.748784e-002
3.859024e+003;4.785877e-002
3.860953e+003;4.804756e-002
3.862882e+003;4.802594e-002
3.864810e+003;4.748389e-002
3.866739e+003;4.749117e-002
3.868667e+003;4.774351e-002
3.870596e+003;4.801669e-002
3.872524e+003;4.782296e-002
3.874453e+003;4.725187e-002
3.876381e+003;4.752015e-002
3.878310e+003;4.846757e-002
3.880239e+003;4.853270e-002
3.882167e+003;4.813920e-002
3.884096e+003;4.788722e-002
3.886024e+003;4.756532e-002
3.887953e+003;4.778216e-002
3.889881e+003;4.841156e-002
3.891810e+003;4.840004e-002
3.893738e+003;4.800411e-002
3.895667e+003;4.806965e-002
3.897595e+003;4.836611e-002
3.899524e+003;4.858265e-002
3.901453e+003;4.853196e-002
3.903381e+003;4.819533e-002
3.905310e+003;4.821658e-002
3.907238e+003;4.856160e-002
3.909167e+003;4.871763e-002
3.911095e+003;4.880819e-002
3.913024e+003;4.931909e-002
3.914952e+003;4.948917e-002
3.916881e+003;4.918311e-002
3.918810e+003;4.899472e-002
3.920738e+003;4.924579e-002
3.922667e+003;4.944765e-002
3.924595e+003;4.893070e-002
3.926524e+003;4.859369e-002
3.928452e+003;4.867930e-002
3.930381e+003;4.899053e-002
3.932309e+003;4.979555e-002
3.934238e+003;4.989786e-002
3.936167e+003;4.959861e-002
3.938095e+003;4.990771e-002
3.940023e+003;4.960715e-002
3.941952e+003;4.922775e-002
3.943881e+003;4.925800e-002
3.945809e+003;4.942530e-002
3.947738e+003;4.949136e-002
3.949666e+003;4.927908e-002
3.951595e+003;4.942200e-002
3.953523e+003;4.950666e-002
3.955452e+003;4.928271e-002
3.957380e+003;4.897258e-002
3.959309e+003;4.917929e-002
3.961238e+003;4.965020e-002
3.963166e+003;4.959928e-002
3.965095e+003;4.926420e-002
3.967023e+003;4.930640e-002
3.968952e+003;4.934073e-002
3.970880e+003;4.938947e-002
3.972809e+003;4.936520e-002
3.974737e+003;4.894680e-002
3.976666e+003;4.937507e-002
3.978594e+003;4.967309e-002
3.980523e+003;4.950432e-002
3.982452e+003;4.912838e-002
3.984380e+003;4.906153e-002
3.986309e+003;4.933156e-002
3.988237e+003;4.947442e-002
3.990166e+003;4.908716e-002
3.992094e+003;4.905514e-002
3.994023e+003;4.968305e-002
3.995951e+003;4.989444e-002
3.997880e+003;4.932425e-002
3.999809e+003;4.941784e-002
4.001737e+003;0.000000e+000
