3.992094e+002;0.000000e+000
4.011380e+002;0.000000e+000
4.030665e+002;0.000000e+000
4.049951e+002;0.000000e+000
4.069236e+002;0.000000e+000
4.088522e+002;0.000000e+000
4.107807e+002;0.000000e+000
4.127093e+002;0.000000e+000
4.146378e+002;0.000000e+000
4.165664e+002;0.000000e+000
4.184949e+002;0.000000e+000
4.204235e+002;0.000000e+000
4.223520e+002;0.000000e+000
4.242806e+002;0.000000e+000
4.262091e+002;0.000000e+000
4.281377e+002;0.000000e+000
4.300662e+002;0.000000e+000
4.319948e+002;0.000000e+000
4.339233e+002;0.000000e+000
4.358519e+002;0.000000e+000
4.377804e+002;0.000000e+000
4.397090e+002;0.000000e+000
4.416375e+002;0.000000e+000
4.435660e+002;0.000000e+000
4.454946e+002;0.000000e+000
4.474232e+002;0.000000e+000
4.493517e+002;0.000000e+000
4.512802e+002;0.000000e+000
4.532088e+002;0.000000e+000
4.551373e+002;0.000000e+000
4.570659e+002;0.000000e+000
4.589944e+002;0.000000e+000
4.609230e+002;0.000000e+000
4.628515e+002;0.000000e+000
4.647801e+002;0.000000e+000
4.667086e+002;0.000000e+000
4.686372e+002;0.000000e+000
4.705657e+002;0.000000e+000
4.724943e+002;0.000000e+000
4.744228e+002;0.000000e+000
4.763513e+002;0.000000e+000
4.782799e+002;0.000000e+000
4.802085e+002;0.000000e+000
4.821370e+002;0.000000e+000
4.840656e+002;0.000000e+000
4.859941e+002;0.000000e+000
4.879226e+002;0.000000e+000
4.898512e+002;0.000000e+000
4.917798e+002;0.000000e+000
4.937083e+002;0.000000e+000
4.956368e+002;0.000000e+000
4.975654e+002;0.000000e+000
4.994939e+002;0.000000e+000
5.014225e+002;0.000000e+000
5.033510e+002;0.000000e+000
5.052796e+002;0.000000e+000
5.072081e+002;0.000000e+000
5.091367e+002;0.000000e+000
5.110652e+002;0.000000e+000
5.129938e+002;0.000000e+000
5.149223e+002;0.000000e+000
5.168509e+002;0.000000e+000
5.187794e+002;0.000000e+000
5.207079e+002;0.000000e+000
5.226365e+002;0.000000e+000
5.245651e+002;0.000000e+000
5.264936e+002;0.000000e+000
5.284222e+002;0.000000e+000
5.303507e+002;0.000000e+000
5.322792e+002;0.000000e+000
5.342078e+002;0.000000e+000
5.361364e+002;0.000000e+000
5.380649e+002;0.000000e+000
5.399935e+002;0.000000e+000
5.419220e+002;0.000000e+000
5.438505e+002;0.000000e+000
5.457791e+002;0.000000e+000
5.477076e+002;0.000000e+000
5.496362e+002;0.000000e+000
5.515648e+002;0.000000e+000
5.534933e+002;0.000000e+000
5.554218e+002;0.000000e+000
5.573504e+002;0.000000e+000
5.592789e+002;0.000000e+000
5.612075e+002;0.000000e+000
5.631360e+002;0.000000e+000
5.650646e+002;0.000000e+000
5.669931e+002;0.000000e+000
5.689217e+002;0.000000e+000
5.708502e+002;0.000000e+000
5.727787e+002;0.000000e+000
5.747073e+002;0.000000e+000
5.766359e+002;0.000000e+000
5.785644e+002;0.000000e+000
5.804930e+002;0.000000e+000
5.824215e+002;0.000000e+000
5.843500e+002;0.000000e+000
5.862786e+002;0.000000e+000
5.882072e+002;0.000000e+000
5.901357e+002;0.000000e+000
5.920643e+002;0.000000e+000
5.939928e+002;0.000000e+000
5.959213e+002;0.000000e+000
5.978499e+002;0.000000e+000
5.997784e+002;2.697490e-001
6.017070e+002;2.682440e-001
6.036355e+002;2.696368e-001
6.055641e+002;2.715379e-001
6.074926e+002;2.702371e-001
6.094211e+002;2.728885e-001
6.113497e+002;2.735180e-001
6.132783e+002;2.686272e-001
6.152068e+002;2.650271e-001
6.171354e+002;2.608080e-001
6.190639e+002;2.532699e-001
6.209924e+002;2.492758e-001
6.229210e+002;2.503531e-001
6.248495e+002;2.501387e-001
6.267781e+002;2.481190e-001
6.287067e+002;2.437662e-001
6.306352e+002;2.418419e-001
6.325637e+002;2.440358e-001
6.344923e+002;2.443246e-001
6.364208e+002;2.426725e-001
6.383494e+002;2.389571e-001
6.402780e+002;2.350859e-001
6.422065e+002;2.362814e-001
6.441350e+002;2.406035e-001
6.460636e+002;2.403180e-001
6.479921e+002;2.374042e-001
6.499207e+002;2.356580e-001
6.518492e+002;2.397432e-001
6.537778e+002;2.413691e-001
6.557063e+002;2.409694e-001
6.576349e+002;2.436062e-001
6.595634e+002;2.447851e-001
6.614919e+002;2.440187e-001
6.634205e+002;2.446978e-001
6.653491e+002;2.455192e-001
6.672776e+002;2.423883e-001
6.692062e+002;2.373496e-001
6.711347e+002;2.333126e-001
6.730632e+002;2.271428e-001
6.749918e+002;2.180048e-001
6.769203e+002;2.113702e-001
6.788489e+002;2.065157e-001
6.807775e+002;2.012116e-001
6.827060e+002;1.961068e-001
6.846345e+002;1.924298e-001
6.865631e+002;1.919710e-001
6.884916e+002;1.913421e-001
6.904202e+002;1.889653e-001
6.923488e+002;1.865438e-001
6.942773e+002;1.860570e-001
6.962058e+002;1.858381e-001
6.981344e+002;1.844458e-001
7.000629e+002;1.832466e-001
7.019915e+002;1.828126e-001
7.039200e+002;1.826942e-001
7.058486e+002;1.827310e-001
7.077771e+002;1.822386e-001
7.097057e+002;1.797916e-001
7.116342e+002;1.778399e-001
7.135627e+002;1.772310e-001
7.154913e+002;1.761723e-001
7.174199e+002;1.747986e-001
7.193484e+002;1.728227e-001
7.212770e+002;1.711037e-001
7.232055e+002;1.700598e-001
7.251340e+002;1.681094e-001
7.270626e+002;1.659900e-001
7.289911e+002;1.655143e-001
7.309197e+002;1.654381e-001
7.328483e+002;1.646363e-001
7.347768e+002;1.627705e-001
7.367053e+002;1.605872e-001
7.386339e+002;1.586906e-001
7.405624e+002;1.578859e-001
7.424910e+002;1.575951e-001
7.444196e+002;1.569987e-001
7.463481e+002;1.556782e-001
7.482766e+002;1.538649e-001
7.502052e+002;1.520378e-001
7.521337e+002;1.495705e-001
7.540623e+002;1.472067e-001
7.559908e+002;1.466760e-001
7.579194e+002;1.472188e-001
7.598479e+002;1.466862e-001
7.617765e+002;1.453798e-001
7.637050e+002;1.446188e-001
7.656335e+002;1.433628e-001
7.675621e+002;1.417497e-001
7.694907e+002;1.410777e-001
7.714192e+002;1.408825e-001
7.733478e+002;1.394489e-001
7.752763e+002;1.377086e-001
7.772048e+002;1.371952e-001
7.791334e+002;1.374074e-001
7.810620e+002;1.373726e-001
7.829905e+002;1.371697e-001
7.849191e+002;1.369006e-001
7.868476e+002;1.359519e-001
7.887761e+002;1.350273e-001
7.907047e+002;1.348987e-001
7.926332e+002;1.355723e-001
7.945618e+002;1.356756e-001
7.964903e+002;1.352901e-001
7.984189e+002;1.354368e-001
8.003474e+002;1.356341e-001
8.022759e+002;1.353128e-001
8.042045e+002;1.352082e-001
8.061331e+002;1.346382e-001
8.080616e+002;1.340765e-001
8.099902e+002;1.340092e-001
8.119187e+002;1.331528e-001
8.138472e+002;1.322509e-001
8.157758e+002;1.322801e-001
8.177043e+002;1.313277e-001
8.196329e+002;1.311645e-001
8.215615e+002;1.310985e-001
8.234900e+002;1.306460e-001
8.254185e+002;1.301706e-001
8.273471e+002;1.292649e-001
8.292756e+002;1.282538e-001
8.312042e+002;1.272687e-001
8.331328e+002;1.262449e-001
8.350613e+002;1.255972e-001
8.369898e+002;1.248708e-001
8.389184e+002;1.245964e-001
8.408469e+002;1.235826e-001
8.427755e+002;1.225209e-001
8.447040e+002;1.226970e-001
8.466326e+002;1.226557e-001
8.485611e+002;1.220379e-001
8.504897e+002;1.215383e-001
8.524182e+002;1.215202e-001
8.543467e+002;1.214180e-001
8.562753e+002;1.219478e-001
8.582039e+002;1.232999e-001
8.601324e+002;1.244091e-001
8.620610e+002;1.254957e-001
8.639895e+002;1.266269e-001
8.659180e+002;1.275711e-001
8.678466e+002;1.291503e-001
8.697751e+002;1.310388e-001
8.717037e+002;1.332382e-001
8.736323e+002;1.364241e-001
8.755608e+002;1.404361e-001
8.774893e+002;1.446499e-001
8.794179e+002;1.489588e-001
8.813464e+002;1.537916e-001
8.832750e+002;1.590200e-001
8.852036e+002;1.640584e-001
8.871321e+002;1.692045e-001
8.890606e+002;1.743200e-001
8.909892e+002;1.783179e-001
8.929177e+002;1.811611e-001
8.948463e+002;1.827992e-001
8.967748e+002;1.822549e-001
8.987034e+002;1.801415e-001
9.006319e+002;1.771508e-001
9.025605e+002;1.738744e-001
9.044890e+002;1.704551e-001
9.064175e+002;1.665823e-001
9.083461e+002;1.627022e-001
9.102747e+002;1.594958e-001
9.122032e+002;1.570829e-001
9.141318e+002;1.552593e-001
9.160603e+002;1.542753e-001
9.179888e+002;1.540713e-001
9.199174e+002;1.546943e-001
9.218459e+002;1.558636e-001
9.237745e+002;1.570344e-001
9.257031e+002;1.587770e-001
9.276316e+002;1.605909e-001
9.295601e+002;1.621084e-001
9.314887e+002;1.638046e-001
9.334172e+002;1.653434e-001
9.353458e+002;1.669362e-001
9.372744e+002;1.689093e-001
9.392029e+002;1.713343e-001
9.411314e+002;1.742277e-001
9.430600e+002;1.775559e-001
9.449885e+002;1.813533e-001
9.469171e+002;1.852889e-001
9.488456e+002;1.896429e-001
9.507742e+002;1.947325e-001
9.527027e+002;2.005142e-001
9.546313e+002;2.063604e-001
9.565598e+002;2.118664e-001
9.584883e+002;2.180495e-001
9.604169e+002;2.247867e-001
9.623455e+002;2.307513e-001
9.642740e+002;2.364626e-001
9.662026e+002;2.430545e-001
9.681311e+002;2.504059e-001
9.700596e+002;2.586858e-001
9.719882e+002;2.679751e-001
9.739167e+002;2.783631e-001
9.758453e+002;2.904336e-001
9.777739e+002;3.043965e-001
9.797024e+002;3.205193e-001
9.816309e+002;3.384335e-001
9.835595e+002;3.571088e-001
9.854880e+002;3.763533e-001
9.874166e+002;3.942542e-001
9.893452e+002;4.093450e-001
9.912737e+002;4.218067e-001
9.932022e+002;4.308065e-001
9.951307e+002;4.367960e-001
9.970593e+002;4.406563e-001
9.989879e+002;4.430718e-001
1.000916e+003;4.450449e-001
1.002845e+003;4.481750e-001
1.004773e+003;4.537716e-001
1.006702e+003;4.616694e-001
1.008631e+003;4.715688e-001
1.010559e+003;4.825154e-001
1.012488e+003;4.933646e-001
1.014416e+003;5.031332e-001
1.016345e+003;5.104497e-001
1.018273e+003;5.155967e-001
1.020202e+003;5.180929e-001
1.022130e+003;5.171695e-001
1.024059e+003;5.137625e-001
1.025988e+003;5.082595e-001
1.027916e+003;5.022644e-001
1.029845e+003;4.960186e-001
1.031773e+003;4.884718e-001
1.033702e+003;4.811601e-001
1.035630e+003;4.747790e-001
1.037559e+003;4.697708e-001
1.039487e+003;4.663037e-001
1.041416e+003;4.634581e-001
1.043344e+003;4.590560e-001
1.045273e+003;4.546109e-001
1.047202e+003;4.505381e-001
1.049130e+003;4.458039e-001
1.051059e+003;4.415144e-001
1.052987e+003;4.373247e-001
1.054916e+003;4.330383e-001
1.056844e+003;4.289607e-001
1.058773e+003;4.233800e-001
1.060701e+003;4.166094e-001
1.062630e+003;4.089251e-001
1.064558e+003;4.009905e-001
1.066487e+003;3.930307e-001
1.068416e+003;3.843318e-001
1.070344e+003;3.746502e-001
1.072273e+003;3.651071e-001
1.074201e+003;3.566003e-001
1.076130e+003;3.486307e-001
1.078058e+003;3.409249e-001
1.079987e+003;3.341243e-001
1.081915e+003;3.279675e-001
1.083844e+003;3.222218e-001
1.085773e+003;3.170061e-001
1.087701e+003;3.119940e-001
1.089630e+003;3.063376e-001
1.091558e+003;3.005844e-001
1.093487e+003;2.954561e-001
1.095415e+003;2.899497e-001
1.097344e+003;2.839301e-001
1.099272e+003;2.771265e-001
1.101201e+003;2.701717e-001
1.103129e+003;2.642279e-001
1.105058e+003;2.590722e-001
1.106987e+003;2.540449e-001
1.108915e+003;2.492762e-001
1.110844e+003;2.447590e-001
1.112772e+003;2.401989e-001
1.114701e+003;2.350863e-001
1.116629e+003;2.294486e-001
1.118558e+003;2.233574e-001
1.120486e+003;2.166665e-001
1.122415e+003;2.103320e-001
1.124344e+003;2.040466e-001
1.126272e+003;1.973033e-001
1.128201e+003;1.913676e-001
1.130129e+003;1.859325e-001
1.132058e+003;1.804228e-001
1.133986e+003;1.752100e-001
1.135915e+003;1.711129e-001
1.137843e+003;1.678185e-001
1.139772e+003;1.651212e-001
1.141700e+003;1.637459e-001
1.143629e+003;1.636135e-001
1.145557e+003;1.641111e-001
1.147486e+003;1.648499e-001
1.149415e+003;1.660452e-001
1.151343e+003;1.677122e-001
1.153272e+003;1.692475e-001
1.155200e+003;1.696051e-001
1.157129e+003;1.687332e-001
1.159057e+003;1.663367e-001
1.160986e+003;1.620772e-001
1.162914e+003;1.562627e-001
1.164843e+003;1.496711e-001
1.166771e+003;1.427038e-001
1.168700e+003;1.357922e-001
1.170629e+003;1.290160e-001
1.172557e+003;1.226820e-001
1.174486e+003;1.172896e-001
1.176414e+003;1.128898e-001
1.178343e+003;1.090566e-001
1.180271e+003;1.058158e-001
1.182200e+003;1.037005e-001
1.184128e+003;1.024447e-001
1.186057e+003;1.023554e-001
1.187986e+003;1.035597e-001
1.189914e+003;1.054292e-001
1.191843e+003;1.081160e-001
1.193771e+003;1.108825e-001
1.195700e+003;1.133100e-001
1.197628e+003;1.148324e-001
1.199557e+003;1.150404e-001
1.201485e+003;1.141844e-001
1.203414e+003;1.124676e-001
1.205343e+003;1.098701e-001
1.207271e+003;1.075707e-001
1.209200e+003;1.058178e-001
1.211128e+003;1.046779e-001
1.213057e+003;1.046333e-001
1.214985e+003;1.053360e-001
1.216914e+003;1.064680e-001
1.218842e+003;1.081887e-001
1.220771e+003;1.102734e-001
1.222699e+003;1.124450e-001
1.224628e+003;1.144635e-001
1.226557e+003;1.162927e-001
1.228485e+003;1.175052e-001
1.230414e+003;1.180034e-001
1.232342e+003;1.185434e-001
1.234271e+003;1.191389e-001
1.236199e+003;1.192255e-001
1.238128e+003;1.191858e-001
1.240056e+003;1.192429e-001
1.241985e+003;1.192157e-001
1.243913e+003;1.190769e-001
1.245842e+003;1.191028e-001
1.247771e+003;1.199878e-001
1.249699e+003;1.212182e-001
1.251628e+003;1.225452e-001
1.253556e+003;1.242980e-001
1.255485e+003;1.262201e-001
1.257413e+003;1.280185e-001
1.259342e+003;1.292794e-001
1.261270e+003;1.296627e-001
1.263199e+003;1.288140e-001
1.265127e+003;1.269638e-001
1.267056e+003;1.246984e-001
1.268985e+003;1.223402e-001
1.270913e+003;1.201400e-001
1.272842e+003;1.183302e-001
1.274770e+003;1.170947e-001
1.276699e+003;1.162127e-001
1.278627e+003;1.154800e-001
1.280556e+003;1.146753e-001
1.282484e+003;1.139589e-001
1.284413e+003;1.138917e-001
1.286342e+003;1.145252e-001
1.288270e+003;1.156360e-001
1.290199e+003;1.171580e-001
1.292127e+003;1.188449e-001
1.294056e+003;1.203288e-001
1.295984e+003;1.217259e-001
1.297913e+003;1.233410e-001
1.299841e+003;1.249578e-001
1.301770e+003;1.265106e-001
1.303698e+003;1.280090e-001
1.305627e+003;1.295703e-001
1.307556e+003;1.312354e-001
1.309484e+003;1.327979e-001
1.311413e+003;1.338994e-001
1.313341e+003;1.344160e-001
1.315270e+003;1.347077e-001
1.317198e+003;1.346652e-001
1.319127e+003;1.342169e-001
1.321055e+003;1.338697e-001
1.322984e+003;1.333982e-001
1.324912e+003;1.328758e-001
1.326841e+003;1.330082e-001
1.328770e+003;1.332444e-001
1.330698e+003;1.332396e-001
1.332627e+003;1.332549e-001
1.334555e+003;1.333296e-001
1.336484e+003;1.330025e-001
1.338412e+003;1.323686e-001
1.340341e+003;1.318139e-001
1.342269e+003;1.313643e-001
1.344198e+003;1.308823e-001
1.346126e+003;1.307797e-001
1.348055e+003;1.311716e-001
1.349984e+003;1.314570e-001
1.351912e+003;1.314332e-001
1.353841e+003;1.318964e-001
1.355769e+003;1.329512e-001
1.357698e+003;1.338893e-001
1.359626e+003;1.345092e-001
1.361555e+003;1.349248e-001
1.363483e+003;1.349955e-001
1.365412e+003;1.349117e-001
1.367341e+003;1.347127e-001
1.369269e+003;1.341036e-001
1.371198e+003;1.328885e-001
1.373126e+003;1.312507e-001
1.375055e+003;1.296388e-001
1.376983e+003;1.281614e-001
1.378912e+003;1.261928e-001
1.380840e+003;1.238016e-001
1.382769e+003;1.216652e-001
1.384698e+003;1.198192e-001
1.386626e+003;1.182505e-001
1.388555e+003;1.172098e-001
1.390483e+003;1.165712e-001
1.392412e+003;1.159379e-001
1.394340e+003;1.154173e-001
1.396269e+003;1.153158e-001
1.398197e+003;1.153043e-001
1.400126e+003;1.151554e-001
1.402054e+003;1.148423e-001
1.403983e+003;1.146730e-001
1.405911e+003;1.147989e-001
1.407840e+003;1.149014e-001
1.409769e+003;1.150942e-001
1.411697e+003;1.152144e-001
1.413626e+003;1.151813e-001
1.415554e+003;1.152443e-001
1.417483e+003;1.151026e-001
1.419411e+003;1.146765e-001
1.421340e+003;1.144460e-001
1.423268e+003;1.141523e-001
1.425197e+003;1.135052e-001
1.427125e+003;1.128709e-001
1.429054e+003;1.121517e-001
1.430983e+003;1.114703e-001
1.432911e+003;1.110275e-001
1.434840e+003;1.106453e-001
1.436768e+003;1.097426e-001
1.438697e+003;1.088006e-001
1.440625e+003;1.079482e-001
1.442554e+003;1.069875e-001
1.444482e+003;1.060605e-001
1.446411e+003;1.049641e-001
1.448340e+003;1.034901e-001
1.450268e+003;1.023872e-001
1.452197e+003;1.014990e-001
1.454125e+003;1.002446e-001
1.456054e+003;9.892184e-002
1.457982e+003;9.800129e-002
1.459911e+003;9.725321e-002
1.461839e+003;9.617551e-002
1.463768e+003;9.489155e-002
1.465697e+003;9.337697e-002
1.467625e+003;9.158183e-002
1.469554e+003;8.970375e-002
1.471482e+003;8.766940e-002
1.473411e+003;8.560249e-002
1.475339e+003;8.349898e-002
1.477268e+003;8.139782e-002
1.479196e+003;7.936365e-002
1.481125e+003;7.740735e-002
1.483053e+003;7.562909e-002
1.484982e+003;7.393193e-002
1.486911e+003;7.242924e-002
1.488839e+003;7.119628e-002
1.490768e+003;7.005690e-002
1.492696e+003;6.919183e-002
1.494625e+003;6.856731e-002
1.496553e+003;6.765690e-002
1.498482e+003;6.672256e-002
1.500410e+003;6.596433e-002
1.502339e+003;6.537519e-002
1.504267e+003;6.486885e-002
1.506196e+003;6.418450e-002
1.508125e+003;6.353734e-002
1.510053e+003;6.307480e-002
1.511982e+003;6.253358e-002
1.513910e+003;6.208993e-002
1.515839e+003;6.169435e-002
1.517767e+003;6.125372e-002
1.519696e+003;6.087991e-002
1.521624e+003;6.050634e-002
1.523553e+003;6.027544e-002
1.525481e+003;6.027145e-002
1.527410e+003;6.027818e-002
1.529339e+003;6.029855e-002
1.531267e+003;6.062839e-002
1.533196e+003;6.081355e-002
1.535124e+003;6.097774e-002
1.537053e+003;6.129478e-002
1.538981e+003;6.106514e-002
1.540910e+003;6.109031e-002
1.542838e+003;6.141720e-002
1.544767e+003;6.161179e-002
1.546695e+003;6.183079e-002
1.548624e+003;6.177765e-002
1.550553e+003;6.150378e-002
1.552481e+003;6.162255e-002
1.554410e+003;6.220252e-002
1.556338e+003;6.239734e-002
1.558267e+003;6.231774e-002
1.560195e+003;6.245924e-002
1.562124e+003;6.275121e-002
1.564052e+003;6.311917e-002
1.565981e+003;6.345438e-002
1.567910e+003;6.363718e-002
1.569838e+003;6.396623e-002
1.571767e+003;6.440343e-002
1.573695e+003;6.470267e-002
1.575624e+003;6.500478e-002
1.577552e+003;6.537574e-002
1.579481e+003;6.579489e-002
1.581409e+003;6.620780e-002
1.583338e+003;6.646628e-002
1.585266e+003;6.663594e-002
1.587195e+003;6.697999e-002
1.589124e+003;6.754339e-002
1.591052e+003;6.784477e-002
1.592981e+003;6.812144e-002
1.594909e+003;6.863350e-002
1.596838e+003;6.910037e-002
1.598766e+003;6.945306e-002
1.600695e+003;6.973215e-002
1.602623e+003;6.992812e-002
1.604552e+003;6.998285e-002
1.606480e+003;7.011522e-002
1.608409e+003;7.068247e-002
1.610338e+003;7.148463e-002
1.612266e+003;7.198225e-002
1.614195e+003;7.222451e-002
1.616123e+003;7.239009e-002
1.618052e+003;7.261892e-002
1.619980e+003;7.343454e-002
1.621909e+003;7.422654e-002
1.623837e+003;7.441876e-002
1.625766e+003;7.452897e-002
1.627694e+003;7.502814e-002
1.629623e+003;7.540531e-002
1.631552e+003;7.554822e-002
1.633480e+003;7.592114e-002
1.635409e+003;7.613153e-002
1.637337e+003;7.616032e-002
1.639266e+003;7.645288e-002
1.641194e+003;7.663579e-002
1.643123e+003;7.643159e-002
1.645051e+003;7.617600e-002
1.646980e+003;7.581015e-002
1.648909e+003;7.535580e-002
1.650837e+003;7.476124e-002
1.652766e+003;7.382458e-002
1.654694e+003;7.319611e-002
1.656623e+003;7.271115e-002
1.658551e+003;7.198178e-002
1.660480e+003;7.111041e-002
1.662408e+003;7.038508e-002
1.664337e+003;6.983779e-002
1.666266e+003;6.918487e-002
1.668194e+003;6.830462e-002
1.670123e+003;6.740712e-002
1.672051e+003;6.657770e-002
1.673980e+003;6.576585e-002
1.675908e+003;6.477094e-002
1.677837e+003;6.388205e-002
1.679765e+003;6.322341e-002
1.681694e+003;6.244347e-002
1.683622e+003;6.153145e-002
1.685551e+003;6.072601e-002
1.687479e+003;6.002165e-002
1.689408e+003;5.927243e-002
1.691337e+003;5.852094e-002
1.693265e+003;5.792353e-002
1.695194e+003;5.739179e-002
1.697122e+003;5.685427e-002
1.699051e+003;5.623836e-002
1.700979e+003;5.558131e-002
1.702908e+003;5.528647e-002
1.704836e+003;5.503707e-002
1.706765e+003;5.449755e-002
1.708693e+003;5.396217e-002
1.710622e+003;5.356077e-002
1.712551e+003;5.305317e-002
1.714479e+003;5.268257e-002
1.716408e+003;5.237620e-002
1.718336e+003;5.216669e-002
1.720265e+003;5.218627e-002
1.722193e+003;5.203792e-002
1.724122e+003;5.189791e-002
1.726050e+003;5.190784e-002
1.727979e+003;5.198324e-002
1.729908e+003;5.204072e-002
1.731836e+003;5.195803e-002
1.733765e+003;5.164799e-002
1.735693e+003;5.134735e-002
1.737622e+003;5.109324e-002
1.739550e+003;5.085946e-002
1.741479e+003;5.063524e-002
1.743407e+003;5.011059e-002
1.745336e+003;4.949770e-002
1.747265e+003;4.885087e-002
1.749193e+003;4.832274e-002
1.751122e+003;4.795945e-002
1.753050e+003;4.783684e-002
1.754979e+003;4.785707e-002
1.756907e+003;4.763993e-002
1.758836e+003;4.746371e-002
1.760764e+003;4.750758e-002
1.762693e+003;4.756455e-002
1.764621e+003;4.739386e-002
1.766550e+003;4.728922e-002
1.768479e+003;4.734438e-002
1.770407e+003;4.726284e-002
1.772336e+003;4.699822e-002
1.774264e+003;4.706328e-002
1.776193e+003;4.722098e-002
1.778121e+003;4.707103e-002
1.780050e+003;4.695103e-002
1.781978e+003;4.698031e-002
1.783907e+003;4.696200e-002
1.785835e+003;4.687027e-002
1.787764e+003;4.665089e-002
1.789693e+003;4.635299e-002
1.791621e+003;4.632128e-002
1.793550e+003;4.643292e-002
1.795478e+003;4.653669e-002
1.797407e+003;4.641024e-002
1.799335e+003;4.612105e-002
1.801264e+003;4.600382e-002
1.803192e+003;4.595682e-002
1.805121e+003;4.588500e-002
1.807049e+003;4.583485e-002
1.808978e+003;4.568909e-002
1.810907e+003;4.564658e-002
1.812835e+003;4.571501e-002
1.814764e+003;4.563889e-002
1.816692e+003;4.558670e-002
1.818621e+003;4.567253e-002
1.820549e+003;4.563903e-002
1.822478e+003;4.557054e-002
1.824406e+003;4.552955e-002
1.826335e+003;4.546108e-002
1.828264e+003;4.538037e-002
1.830192e+003;4.537459e-002
1.832121e+003;4.540090e-002
1.834049e+003;4.536812e-002
1.835978e+003;4.535521e-002
1.837906e+003;4.517134e-002
1.839835e+003;4.493754e-002
1.841763e+003;4.467345e-002
1.843692e+003;4.453087e-002
1.845620e+003;4.460393e-002
1.847549e+003;4.473801e-002
1.849478e+003;4.472733e-002
1.851406e+003;4.467572e-002
1.853335e+003;4.467690e-002
1.855263e+003;4.455213e-002
1.857192e+003;4.441458e-002
1.859120e+003;4.455672e-002
1.861049e+003;4.462754e-002
1.862977e+003;4.449108e-002
1.864906e+003;4.446061e-002
1.866834e+003;4.436944e-002
1.868763e+003;4.407721e-002
1.870692e+003;4.391290e-002
1.872620e+003;4.404911e-002
1.874549e+003;4.419380e-002
1.876477e+003;4.428288e-002
1.878406e+003;4.428541e-002
1.880334e+003;4.428259e-002
1.882263e+003;4.424832e-002
1.884191e+003;4.406455e-002
1.886120e+003;4.395711e-002
1.888048e+003;4.400364e-002
1.889977e+003;4.413776e-002
1.891906e+003;4.404959e-002
1.893834e+003;4.396889e-002
1.895763e+003;4.419689e-002
1.897691e+003;4.449251e-002
1.899620e+003;4.453542e-002
1.901548e+003;4.440045e-002
1.903477e+003;4.441591e-002
1.905405e+003;4.446766e-002
1.907334e+003;4.471318e-002
1.909262e+003;4.483918e-002
1.911191e+003;4.490498e-002
1.913120e+003;4.516660e-002
1.915048e+003;4.526878e-002
1.916977e+003;4.534153e-002
1.918905e+003;4.544508e-002
1.920834e+003;4.548422e-002
1.922762e+003;4.560874e-002
1.924691e+003;4.591100e-002
1.926619e+003;4.613269e-002
1.928548e+003;4.604637e-002
1.930477e+003;4.597063e-002
1.932405e+003;4.621867e-002
1.934334e+003;4.643616e-002
1.936262e+003;4.645287e-002
1.938191e+003;4.646242e-002
1.940119e+003;4.642289e-002
1.942048e+003;4.644332e-002
1.943976e+003;4.655572e-002
1.945905e+003;4.680051e-002
1.947833e+003;4.705574e-002
1.949762e+003;4.732960e-002
1.951691e+003;4.752466e-002
1.953619e+003;4.768131e-002
1.955548e+003;4.786203e-002
1.957476e+003;4.784597e-002
1.959405e+003;4.766800e-002
1.961333e+003;4.774355e-002
1.963262e+003;4.789791e-002
1.965190e+003;4.815760e-002
1.967119e+003;4.833274e-002
1.969047e+003;4.829904e-002
1.970976e+003;4.825746e-002
1.972905e+003;4.824938e-002
1.974833e+003;4.838378e-002
1.976762e+003;4.862156e-002
1.978690e+003;4.884950e-002
1.980619e+003;4.895351e-002
1.982547e+003;4.895934e-002
1.984476e+003;4.896327e-002
1.986404e+003;4.885057e-002
1.988333e+003;4.883604e-002
1.990261e+003;4.900577e-002
1.992190e+003;4.911309e-002
1.994119e+003;4.915398e-002
1.996047e+003;4.933487e-002
1.997976e+003;4.943325e-002
1.999904e+003;4.957647e-002
2.001833e+003;4.973796e-002
2.003761e+003;4.966306e-002
2.005690e+003;4.970704e-002
2.007618e+003;4.976419e-002
2.009547e+003;5.000031e-002
2.011476e+003;5.038530e-002
2.013404e+003;5.055531e-002
2.015333e+003;5.063498e-002
2.017261e+003;5.076631e-002
2.019190e+003;5.097853e-002
2.021118e+003;5.096568e-002
2.023047e+003;5.087459e-002
2.024975e+003;5.095137e-002
2.026904e+003;5.103577e-002
2.028833e+003;5.116499e-002
2.030761e+003;5.142739e-002
2.032690e+003;5.168748e-002
2.034618e+003;5.183858e-002
2.036547e+003;5.196968e-002
2.038475e+003;5.203912e-002
2.040404e+003;5.190146e-002
2.042332e+003;5.182522e-002
2.044261e+003;5.183911e-002
2.046189e+003;5.199967e-002
2.048118e+003;5.197316e-002
2.050047e+003;5.185475e-002
2.051975e+003;5.192603e-002
2.053904e+003;5.197532e-002
2.055832e+003;5.204662e-002
2.057761e+003;5.220095e-002
2.059689e+003;5.211584e-002
2.061618e+003;5.202145e-002
2.063546e+003;5.191195e-002
2.065475e+003;5.177303e-002
2.067404e+003;5.185740e-002
2.069332e+003;5.199456e-002
2.071260e+003;5.182645e-002
2.073189e+003;5.174115e-002
2.075118e+003;5.196558e-002
2.077046e+003;5.199923e-002
2.078975e+003;5.199011e-002
2.080903e+003;5.213949e-002
2.082832e+003;5.215627e-002
2.084760e+003;5.198085e-002
2.086689e+003;5.195098e-002
2.088617e+003;5.192267e-002
2.090546e+003;5.208058e-002
2.092475e+003;5.247684e-002
2.094403e+003;5.270434e-002
2.096332e+003;5.272133e-002
2.098260e+003;5.263850e-002
2.100189e+003;5.258428e-002
2.102117e+003;5.277819e-002
2.104046e+003;5.291938e-002
2.105974e+003;5.274987e-002
2.107903e+003;5.260630e-002
2.109832e+003;5.269540e-002
2.111760e+003;5.294098e-002
2.113688e+003;5.289768e-002
2.115617e+003;5.274003e-002
2.117546e+003;5.263424e-002
2.119474e+003;5.268474e-002
2.121403e+003;5.274568e-002
2.123331e+003;5.272230e-002
2.125260e+003;5.286564e-002
2.127188e+003;5.293556e-002
2.129117e+003;5.289498e-002
2.131045e+003;5.293200e-002
2.132974e+003;5.294974e-002
2.134903e+003;5.282152e-002
2.136831e+003;5.271601e-002
2.138760e+003;5.281958e-002
2.140688e+003;5.302030e-002
2.142617e+003;5.273906e-002
2.144545e+003;5.253857e-002
2.146474e+003;5.276959e-002
2.148402e+003;5.280843e-002
2.150331e+003;5.264124e-002
2.152260e+003;5.243482e-002
2.154188e+003;5.228037e-002
2.156117e+003;5.243960e-002
2.158045e+003;5.237493e-002
2.159974e+003;5.227083e-002
2.161902e+003;5.230518e-002
2.163831e+003;5.224326e-002
2.165759e+003;5.233886e-002
2.167688e+003;5.232562e-002
2.169616e+003;5.204479e-002
2.171545e+003;5.180413e-002
2.173474e+003;5.177628e-002
2.175402e+003;5.180420e-002
2.177331e+003;5.165624e-002
2.179259e+003;5.149998e-002
2.181188e+003;5.126121e-002
2.183116e+003;5.115440e-002
2.185045e+003;5.125637e-002
2.186973e+003;5.123452e-002
2.188902e+003;5.098036e-002
2.190831e+003;5.079413e-002
2.192759e+003;5.082393e-002
2.194688e+003;5.071399e-002
2.196616e+003;5.049244e-002
2.198545e+003;5.057597e-002
2.200473e+003;5.079458e-002
2.202402e+003;5.059957e-002
2.204330e+003;5.033979e-002
2.206259e+003;5.054362e-002
2.208188e+003;5.069306e-002
2.210116e+003;5.063896e-002
2.212044e+003;5.056145e-002
2.213973e+003;5.035996e-002
2.215902e+003;5.019166e-002
2.217830e+003;5.018411e-002
2.219759e+003;5.014465e-002
2.221687e+003;4.990318e-002
2.223616e+003;4.995507e-002
2.225544e+003;4.997644e-002
2.227473e+003;4.991451e-002
2.229401e+003;4.998428e-002
2.231330e+003;4.988340e-002
2.233259e+003;4.978581e-002
2.235187e+003;4.988976e-002
2.237116e+003;4.985270e-002
2.239044e+003;4.970240e-002
2.240973e+003;4.940458e-002
2.242901e+003;4.939987e-002
2.244830e+003;4.952288e-002
2.246758e+003;4.940183e-002
2.248687e+003;4.925095e-002
2.250615e+003;4.916927e-002
2.252544e+003;4.903912e-002
2.254473e+003;4.893070e-002
2.256401e+003;4.881913e-002
2.258330e+003;4.874194e-002
2.260258e+003;4.870773e-002
2.262187e+003;4.848509e-002
2.264115e+003;4.833645e-002
2.266044e+003;4.829175e-002
2.267972e+003;4.823491e-002
2.269901e+003;4.801406e-002
2.271830e+003;4.804608e-002
2.273758e+003;4.831378e-002
2.275687e+003;4.830200e-002
2.277615e+003;4.812936e-002
2.279544e+003;4.805392e-002
2.281472e+003;4.794405e-002
2.283401e+003;4.770450e-002
2.285329e+003;4.781520e-002
2.287258e+003;4.788245e-002
2.289187e+003;4.758377e-002
2.291115e+003;4.746940e-002
2.293043e+003;4.762278e-002
2.294972e+003;4.766290e-002
2.296901e+003;4.756203e-002
2.298829e+003;4.764256e-002
2.300758e+003;4.780018e-002
2.302686e+003;4.770442e-002
2.304615e+003;4.761867e-002
2.306543e+003;4.768279e-002
2.308472e+003;4.761183e-002
2.310400e+003;4.744016e-002
2.312329e+003;4.759168e-002
2.314258e+003;4.766426e-002
2.316186e+003;4.744538e-002
2.318115e+003;4.747313e-002
2.320043e+003;4.775483e-002
2.321972e+003;4.781482e-002
2.323900e+003;4.769607e-002
2.325829e+003;4.784453e-002
2.327757e+003;4.823802e-002
2.329686e+003;4.833663e-002
2.331615e+003;4.813539e-002
2.333543e+003;4.824542e-002
2.335472e+003;4.857880e-002
2.337400e+003;4.865076e-002
2.339329e+003;4.854834e-002
2.341257e+003;4.859680e-002
2.343186e+003;4.884939e-002
2.345114e+003;4.897569e-002
2.347043e+003;4.871644e-002
2.348971e+003;4.856983e-002
2.350900e+003;4.881261e-002
2.352829e+003;4.908638e-002
2.354757e+003;4.937941e-002
2.356686e+003;4.961547e-002
2.358614e+003;4.966395e-002
2.360543e+003;4.970240e-002
2.362471e+003;4.964389e-002
2.364400e+003;4.959909e-002
2.366328e+003;4.980038e-002
2.368257e+003;4.979098e-002
2.370186e+003;4.979343e-002
2.372114e+003;4.974238e-002
2.374042e+003;4.960804e-002
2.375971e+003;4.955865e-002
2.377900e+003;4.950792e-002
2.379828e+003;4.981045e-002
2.381757e+003;5.000280e-002
2.383685e+003;5.003061e-002
2.385614e+003;5.023500e-002
2.387542e+003;5.040856e-002
2.389471e+003;5.045347e-002
2.391399e+003;5.037886e-002
2.393328e+003;5.028265e-002
2.395257e+003;5.033566e-002
2.397185e+003;5.048380e-002
2.399114e+003;5.080810e-002
2.401042e+003;5.112928e-002
2.402971e+003;5.109741e-002
2.404899e+003;5.109484e-002
2.406828e+003;5.131103e-002
2.408756e+003;5.138050e-002
2.410685e+003;5.145913e-002
2.412614e+003;5.146920e-002
2.414542e+003;5.161545e-002
2.416471e+003;5.192812e-002
2.418399e+003;5.223821e-002
2.420328e+003;5.250978e-002
2.422256e+003;5.271325e-002
2.424185e+003;5.283731e-002
2.426113e+003;5.298837e-002
2.428042e+003;5.315172e-002
2.429970e+003;5.326169e-002
2.431899e+003;5.337520e-002
2.433828e+003;5.354878e-002
2.435756e+003;5.371459e-002
2.437685e+003;5.388414e-002
2.439613e+003;5.396255e-002
2.441542e+003;5.405354e-002
2.443470e+003;5.399328e-002
2.445399e+003;5.398176e-002
2.447327e+003;5.433740e-002
2.449256e+003;5.453312e-002
2.451185e+003;5.472374e-002
2.453113e+003;5.498390e-002
2.455042e+003;5.512479e-002
2.456970e+003;5.542155e-002
2.458899e+003;5.557035e-002
2.460827e+003;5.547625e-002
2.462756e+003;5.556609e-002
2.464684e+003;5.554335e-002
2.466613e+003;5.565030e-002
2.468542e+003;5.593121e-002
2.470470e+003;5.617490e-002
2.472398e+003;5.643611e-002
2.474327e+003;5.657295e-002
2.476256e+003;5.675563e-002
2.478184e+003;5.699604e-002
2.480113e+003;5.707837e-002
2.482041e+003;5.697673e-002
2.483970e+003;5.690632e-002
2.485898e+003;5.701002e-002
2.487827e+003;5.707599e-002
2.489755e+003;5.719224e-002
2.491684e+003;5.748221e-002
2.493613e+003;5.776541e-002
2.495541e+003;5.783914e-002
2.497470e+003;5.780269e-002
2.499398e+003;5.773335e-002
2.501327e+003;5.778426e-002
2.503255e+003;5.819466e-002
2.505184e+003;5.825157e-002
2.507112e+003;5.838833e-002
2.509041e+003;5.861224e-002
2.510969e+003;5.845084e-002
2.512898e+003;5.826975e-002
2.514827e+003;5.846479e-002
2.516755e+003;5.867102e-002
2.518684e+003;5.875720e-002
2.520612e+003;5.866192e-002
2.522541e+003;5.856082e-002
2.524469e+003;5.869898e-002
2.526398e+003;5.901796e-002
2.528326e+003;5.907771e-002
2.530255e+003;5.888195e-002
2.532184e+003;5.881828e-002
2.534112e+003;5.905388e-002
2.536041e+003;5.927835e-002
2.537969e+003;5.943641e-002
2.539898e+003;5.962392e-002
2.541826e+003;5.968447e-002
2.543755e+003;5.958237e-002
2.545683e+003;5.962065e-002
2.547612e+003;5.977515e-002
2.549541e+003;5.994225e-002
2.551469e+003;5.986398e-002
2.553397e+003;5.995987e-002
2.555326e+003;6.029630e-002
2.557255e+003;6.034488e-002
2.559183e+003;6.036038e-002
2.561112e+003;6.039023e-002
2.563040e+003;6.043417e-002
2.564969e+003;6.041700e-002
2.566897e+003;6.037268e-002
2.568826e+003;6.037191e-002
2.570754e+003;6.036955e-002
2.572683e+003;6.048360e-002
2.574612e+003;6.053594e-002
2.576540e+003;6.055917e-002
2.578469e+003;6.075078e-002
2.580397e+003;6.107917e-002
2.582326e+003;6.129222e-002
2.584254e+003;6.136610e-002
2.586183e+003;6.152527e-002
2.588111e+003;6.163141e-002
2.590040e+003;6.185761e-002
2.591969e+003;6.216872e-002
2.593897e+003;6.204436e-002
2.595826e+003;6.199112e-002
2.597754e+003;6.207016e-002
2.599683e+003;6.204501e-002
2.601611e+003;6.246413e-002
2.603540e+003;6.283158e-002
2.605468e+003;6.285111e-002
2.607397e+003;6.294482e-002
2.609325e+003;6.294329e-002
2.611254e+003;6.274953e-002
2.613183e+003;6.269038e-002
2.615111e+003;6.285900e-002
2.617040e+003;6.340089e-002
2.618968e+003;6.367374e-002
2.620897e+003;6.358996e-002
2.622825e+003;6.379937e-002
2.624754e+003;6.407105e-002
2.626682e+003;6.406456e-002
2.628611e+003;6.402037e-002
2.630540e+003;6.431028e-002
2.632468e+003;6.485034e-002
2.634396e+003;6.504192e-002
2.636325e+003;6.506325e-002
2.638254e+003;6.521893e-002
2.640182e+003;6.540073e-002
2.642111e+003;6.559137e-002
2.644039e+003;6.571820e-002
2.645968e+003;6.584566e-002
2.647896e+003;6.612465e-002
2.649825e+003;6.613919e-002
2.651753e+003;6.633054e-002
2.653682e+003;6.648876e-002
2.655611e+003;6.642415e-002
2.657539e+003;6.654823e-002
2.659468e+003;6.698278e-002
2.661396e+003;6.730825e-002
2.663325e+003;6.729089e-002
2.665253e+003;6.737960e-002
2.667182e+003;6.740724e-002
2.669110e+003;6.739648e-002
2.671039e+003;6.772594e-002
2.672968e+003;6.801683e-002
2.674896e+003;6.815659e-002
2.676825e+003;6.834212e-002
2.678753e+003;6.854620e-002
2.680682e+003;6.882742e-002
2.682610e+003;6.888462e-002
2.684539e+003;6.898912e-002
2.686467e+003;6.918269e-002
2.688396e+003;6.913479e-002
2.690324e+003;6.920985e-002
2.692253e+003;6.951527e-002
2.694182e+003;6.977724e-002
2.696110e+003;6.991395e-002
2.698039e+003;7.008209e-002
2.699967e+003;7.011125e-002
2.701896e+003;7.018715e-002
2.703824e+003;7.061117e-002
2.705753e+003;7.063261e-002
2.707681e+003;7.056455e-002
2.709610e+003;7.056458e-002
2.711539e+003;7.077244e-002
2.713467e+003;7.116716e-002
2.715396e+003;7.110456e-002
2.717324e+003;7.095464e-002
2.719253e+003;7.121963e-002
2.721181e+003;7.147064e-002
2.723110e+003;7.164574e-002
2.725038e+003;7.197005e-002
2.726967e+003;7.222886e-002
2.728896e+003;7.224724e-002
2.730824e+003;7.235248e-002
2.732752e+003;7.262663e-002
2.734681e+003;7.261942e-002
2.736610e+003;7.280949e-002
2.738538e+003;7.291984e-002
2.740467e+003;7.275625e-002
2.742395e+003;7.267093e-002
2.744324e+003;7.279918e-002
2.746252e+003;7.305170e-002
2.748181e+003;7.328028e-002
2.750109e+003;7.340208e-002
2.752038e+003;7.365617e-002
2.753967e+003;7.399011e-002
2.755895e+003;7.410524e-002
2.757824e+003;7.407939e-002
2.759752e+003;7.423954e-002
2.761681e+003;7.444575e-002
2.763609e+003;7.453944e-002
2.765538e+003;7.455423e-002
2.767466e+003;7.464799e-002
2.769395e+003;7.508678e-002
2.771323e+003;7.566155e-002
2.773252e+003;7.586546e-002
2.775181e+003;7.594822e-002
2.777109e+003;7.626113e-002
2.779038e+003;7.651512e-002
2.780966e+003;7.651421e-002
2.782895e+003;7.655855e-002
2.784823e+003;7.687199e-002
2.786752e+003;7.730944e-002
2.788680e+003;7.760309e-002
2.790609e+003;7.769521e-002
2.792538e+003;7.802613e-002
2.794466e+003;7.866278e-002
2.796395e+003;7.894460e-002
2.798323e+003;7.900850e-002
2.800252e+003;7.937849e-002
2.802180e+003;7.982066e-002
2.804109e+003;8.008674e-002
2.806037e+003;8.020405e-002
2.807966e+003;8.060314e-002
2.809895e+003;8.121450e-002
2.811823e+003;8.176913e-002
2.813751e+003;8.236067e-002
2.815680e+003;8.258338e-002
2.817609e+003;8.281547e-002
2.819537e+003;8.323013e-002
2.821466e+003;8.370826e-002
2.823394e+003;8.421495e-002
2.825323e+003;8.481894e-002
2.827251e+003;8.552671e-002
2.829180e+003;8.622373e-002
2.831108e+003;8.674134e-002
2.833037e+003;8.741858e-002
2.834966e+003;8.807010e-002
2.836894e+003;8.884931e-002
2.838823e+003;8.967638e-002
2.840751e+003;9.068448e-002
2.842680e+003;9.213319e-002
2.844608e+003;9.372886e-002
2.846537e+003;9.520093e-002
2.848465e+003;9.691776e-002
2.850394e+003;9.794486e-002
2.852323e+003;9.839845e-002
2.854251e+003;9.908091e-002
2.856180e+003;1.001699e-001
2.858108e+003;1.013282e-001
2.860037e+003;1.022721e-001
2.861965e+003;1.032166e-001
2.863894e+003;1.046104e-001
2.865822e+003;1.060865e-001
2.867751e+003;1.072596e-001
2.869679e+003;1.082331e-001
2.871608e+003;1.089308e-001
2.873536e+003;1.097513e-001
2.875465e+003;1.105182e-001
2.877394e+003;1.110750e-001
2.879322e+003;1.114394e-001
2.881251e+003;1.116781e-001
2.883179e+003;1.120133e-001
2.885108e+003;1.124472e-001
2.887036e+003;1.128132e-001
2.888965e+003;1.131800e-001
2.890893e+003;1.133108e-001
2.892822e+003;1.131573e-001
2.894750e+003;1.131254e-001
2.896679e+003;1.131012e-001
2.898608e+003;1.127610e-001
2.900536e+003;1.120685e-001
2.902465e+003;1.113540e-001
2.904393e+003;1.107721e-001
2.906322e+003;1.105810e-001
2.908250e+003;1.105071e-001
2.910179e+003;1.102230e-001
2.912107e+003;1.105257e-001
2.914036e+003;1.106335e-001
2.915965e+003;1.102649e-001
2.917893e+003;1.097265e-001
2.919822e+003;1.085477e-001
2.921750e+003;1.072544e-001
2.923679e+003;1.062188e-001
2.925607e+003;1.048956e-001
2.927536e+003;1.034301e-001
2.929464e+003;1.022069e-001
2.931393e+003;1.008153e-001
2.933322e+003;9.948244e-002
2.935250e+003;9.837764e-002
2.937178e+003;9.739943e-002
2.939107e+003;9.602536e-002
2.941036e+003;9.443843e-002
2.942964e+003;9.318327e-002
2.944893e+003;9.232486e-002
2.946821e+003;9.111114e-002
2.948750e+003;8.953359e-002
2.950678e+003;8.826202e-002
2.952607e+003;8.786695e-002
2.954535e+003;8.769832e-002
2.956464e+003;8.705529e-002
2.958393e+003;8.618680e-002
2.960321e+003;8.502559e-002
2.962250e+003;8.414287e-002
2.964178e+003;8.341956e-002
2.966107e+003;8.262426e-002
2.968035e+003;8.186550e-002
2.969964e+003;8.118778e-002
2.971892e+003;8.052608e-002
2.973821e+003;8.024701e-002
2.975750e+003;7.987860e-002
2.977678e+003;7.904396e-002
2.979607e+003;7.833118e-002
2.981535e+003;7.831611e-002
2.983464e+003;7.817803e-002
2.985392e+003;7.772493e-002
2.987321e+003;7.756645e-002
2.989249e+003;7.737449e-002
2.991178e+003;7.706800e-002
2.993106e+003;7.697871e-002
2.995035e+003;7.688793e-002
2.996964e+003;7.658219e-002
2.998892e+003;7.645818e-002
3.000821e+003;7.660570e-002
3.002749e+003;7.656831e-002
3.004678e+003;7.687033e-002
3.006606e+003;7.722931e-002
3.008535e+003;7.711498e-002
3.010463e+003;7.725583e-002
3.012392e+003;7.775608e-002
3.014321e+003;7.812960e-002
3.016249e+003;7.844922e-002
3.018177e+003;7.847665e-002
3.020106e+003;7.840012e-002
3.022035e+003;7.885162e-002
3.023963e+003;7.941378e-002
3.025892e+003;7.989652e-002
3.027820e+003;8.009347e-002
3.029749e+003;8.028305e-002
3.031677e+003;8.066589e-002
3.033606e+003;8.102515e-002
3.035534e+003;8.164419e-002
3.037463e+003;8.216617e-002
3.039392e+003;8.235838e-002
3.041320e+003;8.268686e-002
3.043249e+003;8.329563e-002
3.045177e+003;8.375603e-002
3.047106e+003;8.407278e-002
3.049034e+003;8.424311e-002
3.050963e+003;8.488073e-002
3.052891e+003;8.561052e-002
3.054820e+003;8.578561e-002
3.056749e+003;8.629438e-002
3.058677e+003;8.697590e-002
3.060606e+003;8.740918e-002
3.062534e+003;8.733685e-002
3.064463e+003;8.757576e-002
3.066391e+003;8.840037e-002
3.068320e+003;8.909985e-002
3.070248e+003;8.963312e-002
3.072177e+003;9.024947e-002
3.074105e+003;9.052785e-002
3.076034e+003;9.069808e-002
3.077963e+003;9.121230e-002
3.079891e+003;9.202141e-002
3.081820e+003;9.270944e-002
3.083748e+003;9.325346e-002
3.085677e+003;9.375772e-002
3.087605e+003;9.421705e-002
3.089534e+003;9.477720e-002
3.091462e+003;9.549575e-002
3.093391e+003;9.606376e-002
3.095320e+003;9.683555e-002
3.097248e+003;9.774496e-002
3.099177e+003;9.854922e-002
3.101105e+003;9.866535e-002
3.103034e+003;9.865113e-002
3.104962e+003;9.931715e-002
3.106891e+003;1.003181e-001
3.108819e+003;1.011934e-001
3.110748e+003;1.018147e-001
3.112677e+003;1.022506e-001
3.114605e+003;1.028015e-001
3.116533e+003;1.032526e-001
3.118462e+003;1.037792e-001
3.120391e+003;1.043241e-001
3.122319e+003;1.047383e-001
3.124248e+003;1.053238e-001
3.126176e+003;1.061994e-001
3.128105e+003;1.071917e-001
3.130033e+003;1.077928e-001
3.131962e+003;1.082637e-001
3.133890e+003;1.088551e-001
3.135819e+003;1.095444e-001
3.137748e+003;1.103349e-001
3.139676e+003;1.108632e-001
3.141605e+003;1.113366e-001
3.143533e+003;1.121124e-001
3.145462e+003;1.128734e-001
3.147390e+003;1.131769e-001
3.149319e+003;1.135348e-001
3.151247e+003;1.143906e-001
3.153176e+003;1.152277e-001
3.155104e+003;1.156694e-001
3.157033e+003;1.163427e-001
3.158962e+003;1.169983e-001
3.160890e+003;1.174764e-001
3.162819e+003;1.181896e-001
3.164747e+003;1.189505e-001
3.166676e+003;1.195479e-001
3.168604e+003;1.198865e-001
3.170533e+003;1.205501e-001
3.172461e+003;1.211644e-001
3.174390e+003;1.214142e-001
3.176319e+003;1.222602e-001
3.178247e+003;1.229870e-001
3.180176e+003;1.237101e-001
3.182104e+003;1.246403e-001
3.184033e+003;1.252664e-001
3.185961e+003;1.257399e-001
3.187890e+003;1.261908e-001
3.189818e+003;1.267144e-001
3.191747e+003;1.270663e-001
3.193676e+003;1.274047e-001
3.195604e+003;1.281948e-001
3.197532e+003;1.290172e-001
3.199461e+003;1.297603e-001
3.201390e+003;1.305028e-001
3.203318e+003;1.313956e-001
3.205247e+003;1.321183e-001
3.207175e+003;1.322854e-001
3.209104e+003;1.325099e-001
3.211032e+003;1.332442e-001
3.212961e+003;1.339984e-001
3.214889e+003;1.348480e-001
3.216818e+003;1.351655e-001
3.218747e+003;1.354759e-001
3.220675e+003;1.361606e-001
3.222604e+003;1.367751e-001
3.224532e+003;1.374102e-001
3.226461e+003;1.378072e-001
3.228389e+003;1.379239e-001
3.230318e+003;1.388798e-001
3.232246e+003;1.395552e-001
3.234175e+003;1.397477e-001
3.236104e+003;1.404560e-001
3.238032e+003;1.412219e-001
3.239961e+003;1.417508e-001
3.241889e+003;1.421759e-001
3.243818e+003;1.425720e-001
3.245746e+003;1.427944e-001
3.247675e+003;1.431555e-001
3.249603e+003;1.437370e-001
3.251532e+003;1.442002e-001
3.253460e+003;1.446984e-001
3.255389e+003;1.456438e-001
3.257318e+003;1.459456e-001
3.259246e+003;1.460868e-001
3.261175e+003;1.464355e-001
3.263103e+003;1.465103e-001
3.265032e+003;1.466311e-001
3.266960e+003;1.469585e-001
3.268889e+003;1.476086e-001
3.270817e+003;1.481327e-001
3.272746e+003;1.487006e-001
3.274675e+003;1.490347e-001
3.276603e+003;1.490688e-001
3.278531e+003;1.496899e-001
3.280460e+003;1.501845e-001
3.282389e+003;1.500622e-001
3.284317e+003;1.501019e-001
3.286246e+003;1.507292e-001
3.288174e+003;1.509323e-001
3.290103e+003;1.510026e-001
3.292031e+003;1.515508e-001
3.293960e+003;1.521144e-001
3.295888e+003;1.523344e-001
3.297817e+003;1.526312e-001
3.299746e+003;1.528213e-001
3.301674e+003;1.528920e-001
3.303603e+003;1.533801e-001
3.305531e+003;1.536950e-001
3.307460e+003;1.540411e-001
3.309388e+003;1.542253e-001
3.311317e+003;1.541416e-001
3.313245e+003;1.542052e-001
3.315174e+003;1.543877e-001
3.317103e+003;1.548186e-001
3.319031e+003;1.549522e-001
3.320960e+003;1.548395e-001
3.322888e+003;1.548317e-001
3.324817e+003;1.551400e-001
3.326745e+003;1.552936e-001
3.328674e+003;1.554884e-001
3.330602e+003;1.558494e-001
3.332531e+003;1.554809e-001
3.334459e+003;1.550165e-001
3.336388e+003;1.547681e-001
3.338317e+003;1.547889e-001
3.340245e+003;1.552236e-001
3.342174e+003;1.555200e-001
3.344102e+003;1.553994e-001
3.346031e+003;1.555482e-001
3.347959e+003;1.561289e-001
3.349888e+003;1.560259e-001
3.351816e+003;1.554585e-001
3.353745e+003;1.552400e-001
3.355674e+003;1.548874e-001
3.357602e+003;1.544119e-001
3.359531e+003;1.543768e-001
3.361459e+003;1.545576e-001
3.363388e+003;1.544263e-001
3.365316e+003;1.543321e-001
3.367245e+003;1.541211e-001
3.369173e+003;1.538511e-001
3.371102e+003;1.535750e-001
3.373031e+003;1.532977e-001
3.374959e+003;1.530656e-001
3.376887e+003;1.526981e-001
3.378816e+003;1.524785e-001
3.380745e+003;1.522561e-001
3.382673e+003;1.519590e-001
3.384602e+003;1.516227e-001
3.386530e+003;1.514273e-001
3.388459e+003;1.515518e-001
3.390387e+003;1.511823e-001
3.392316e+003;1.506513e-001
3.394244e+003;1.504983e-001
3.396173e+003;1.502755e-001
3.398102e+003;1.497183e-001
3.400030e+003;1.489780e-001
3.401959e+003;1.482744e-001
3.403887e+003;1.476995e-001
3.405816e+003;1.472870e-001
3.407744e+003;1.470565e-001
3.409673e+003;1.464888e-001
3.411601e+003;1.459656e-001
3.413530e+003;1.457978e-001
3.415458e+003;1.456565e-001
3.417387e+003;1.450677e-001
3.419316e+003;1.445502e-001
3.421244e+003;1.440836e-001
3.423173e+003;1.432388e-001
3.425101e+003;1.421310e-001
3.427030e+003;1.414200e-001
3.428958e+003;1.413546e-001
3.430887e+003;1.407638e-001
3.432815e+003;1.400435e-001
3.434744e+003;1.393858e-001
3.436673e+003;1.388998e-001
3.438601e+003;1.386174e-001
3.440530e+003;1.381374e-001
3.442458e+003;1.371889e-001
3.444387e+003;1.358834e-001
3.446315e+003;1.346893e-001
3.448244e+003;1.336975e-001
3.450172e+003;1.328794e-001
3.452101e+003;1.320087e-001
3.454030e+003;1.307175e-001
3.455958e+003;1.294457e-001
3.457886e+003;1.285980e-001
3.459815e+003;1.277223e-001
3.461744e+003;1.268317e-001
3.463672e+003;1.257460e-001
3.465601e+003;1.241816e-001
3.467529e+003;1.228310e-001
3.469458e+003;1.221018e-001
3.471386e+003;1.215435e-001
3.473315e+003;1.209733e-001
3.475243e+003;1.204761e-001
3.477172e+003;1.194955e-001
3.479101e+003;1.180853e-001
3.481029e+003;1.166872e-001
3.482958e+003;1.152765e-001
3.484886e+003;1.140166e-001
3.486815e+003;1.132888e-001
3.488743e+003;1.122895e-001
3.490672e+003;1.107296e-001
3.492600e+003;1.093820e-001
3.494529e+003;1.080768e-001
3.496458e+003;1.070577e-001
3.498386e+003;1.059135e-001
3.500315e+003;1.044386e-001
3.502243e+003;1.030399e-001
3.504172e+003;1.017810e-001
3.506100e+003;1.011544e-001
3.508029e+003;1.002754e-001
3.509957e+003;9.887341e-002
3.511886e+003;9.777962e-002
3.513814e+003;9.682433e-002
3.515743e+003;9.548366e-002
3.517672e+003;9.421033e-002
3.519600e+003;9.302052e-002
3.521529e+003;9.199520e-002
3.523457e+003;9.111502e-002
3.525386e+003;9.010951e-002
3.527314e+003;8.883792e-002
3.529243e+003;8.782204e-002
3.531171e+003;8.714280e-002
3.533100e+003;8.618207e-002
3.535029e+003;8.518536e-002
3.536957e+003;8.418731e-002
3.538885e+003;8.329181e-002
3.540814e+003;8.203720e-002
3.542743e+003;8.063984e-002
3.544671e+003;7.957898e-002
3.546600e+003;7.882071e-002
3.548528e+003;7.826527e-002
3.550457e+003;7.729099e-002
3.552385e+003;7.636557e-002
3.554314e+003;7.545619e-002
3.556242e+003;7.427622e-002
3.558171e+003;7.334002e-002
3.560100e+003;7.275911e-002
3.562028e+003;7.212204e-002
3.563957e+003;7.117134e-002
3.565885e+003;6.985141e-002
3.567814e+003;6.881981e-002
3.569742e+003;6.826992e-002
3.571671e+003;6.771193e-002
3.573599e+003;6.704065e-002
3.575528e+003;6.626719e-002
3.577457e+003;6.554478e-002
3.579385e+003;6.488204e-002
3.581314e+003;6.397621e-002
3.583242e+003;6.297424e-002
3.585171e+003;6.240430e-002
3.587099e+003;6.186353e-002
3.589028e+003;6.118158e-002
3.590956e+003;6.075977e-002
3.592885e+003;6.035295e-002
3.594813e+003;5.962909e-002
3.596742e+003;5.861452e-002
3.598671e+003;5.779561e-002
3.600599e+003;5.710274e-002
3.602528e+003;5.647747e-002
3.604456e+003;5.617697e-002
3.606385e+003;5.591451e-002
3.608313e+003;5.531221e-002
3.610242e+003;5.451479e-002
3.612170e+003;5.390377e-002
3.614099e+003;5.382383e-002
3.616028e+003;5.364718e-002
3.617956e+003;5.319509e-002
3.619885e+003;5.221811e-002
3.621813e+003;5.161336e-002
3.623742e+003;5.150792e-002
3.625670e+003;5.129790e-002
3.627599e+003;5.079730e-002
3.629527e+003;5.022161e-002
3.631456e+003;4.999849e-002
3.633385e+003;4.956351e-002
3.635313e+003;4.873697e-002
3.637241e+003;4.821062e-002
3.639170e+003;4.797310e-002
3.641099e+003;4.790705e-002
3.643027e+003;4.797639e-002
3.644956e+003;4.767698e-002
3.646884e+003;4.679199e-002
3.648813e+003;4.597262e-002
3.650741e+003;4.543025e-002
3.652670e+003;4.507168e-002
3.654598e+003;4.461392e-002
3.656527e+003;4.413284e-002
3.658456e+003;4.370253e-002
3.660384e+003;4.323285e-002
3.662313e+003;4.299339e-002
3.664241e+003;4.287400e-002
3.666170e+003;4.234958e-002
3.668098e+003;4.134554e-002
3.670027e+003;4.042340e-002
3.671955e+003;4.001633e-002
3.673884e+003;3.975227e-002
3.675813e+003;3.942202e-002
3.677741e+003;3.879105e-002
3.679669e+003;3.825884e-002
3.681598e+003;3.815670e-002
3.683527e+003;3.777249e-002
3.685455e+003;3.718167e-002
3.687384e+003;3.687511e-002
3.689312e+003;3.677015e-002
3.691241e+003;3.644932e-002
3.693169e+003;3.611181e-002
3.695098e+003;3.595409e-002
3.697026e+003;3.562415e-002
3.698955e+003;3.548682e-002
3.700884e+003;3.546920e-002
3.702812e+003;3.518749e-002
3.704741e+003;3.484011e-002
3.706669e+003;3.436292e-002
3.708598e+003;3.395224e-002
3.710526e+003;3.384551e-002
3.712455e+003;3.352032e-002
3.714383e+003;3.332007e-002
3.716312e+003;3.334873e-002
3.718240e+003;3.334687e-002
3.720169e+003;3.314666e-002
3.722098e+003;3.269108e-002
3.724026e+003;3.272899e-002
3.725955e+003;3.290162e-002
3.727883e+003;3.284619e-002
3.729812e+003;3.250571e-002
3.731740e+003;3.215833e-002
3.733669e+003;3.241038e-002
3.735597e+003;3.248340e-002
3.737526e+003;3.215826e-002
3.739455e+003;3.195817e-002
3.741383e+003;3.207178e-002
3.743312e+003;3.212633e-002
3.745240e+003;3.178427e-002
3.747169e+003;3.148071e-002
3.749097e+003;3.126107e-002
3.751026e+003;3.107755e-002
3.752954e+003;3.083471e-002
3.754883e+003;3.089949e-002
3.756812e+003;3.116184e-002
3.758740e+003;3.111254e-002
3.760668e+003;3.076488e-002
3.762597e+003;3.077986e-002
3.764526e+003;3.114554e-002
3.766454e+003;3.156982e-002
3.768383e+003;3.146757e-002
3.770311e+003;3.093645e-002
3.772240e+003;3.072889e-002
3.774168e+003;3.072274e-002
3.776097e+003;3.076101e-002
3.778025e+003;3.094578e-002
3.779954e+003;3.095417e-002
3.781883e+003;3.093684e-002
3.783811e+003;3.086235e-002
3.785740e+003;3.080280e-002
3.787668e+003;3.082215e-002
3.789597e+003;3.095314e-002
3.791525e+003;3.107730e-002
3.793454e+003;3.108076e-002
3.795382e+003;3.070226e-002
3.797311e+003;3.035755e-002
3.799240e+003;3.026053e-002
3.801168e+003;3.005169e-002
3.803097e+003;3.009416e-002
3.805025e+003;3.044931e-002
3.806954e+003;3.033901e-002
3.808882e+003;3.036438e-002
3.810811e+003;3.022617e-002
3.812739e+003;3.007527e-002
3.814668e+003;3.035979e-002
3.816596e+003;3.070172e-002
3.818525e+003;3.119969e-002
3.820454e+003;3.125010e-002
3.822382e+003;3.087419e-002
3.824311e+003;3.050455e-002
3.826239e+003;3.042912e-002
3.828168e+003;3.039320e-002
3.830096e+003;3.050511e-002
3.832025e+003;3.062794e-002
3.833953e+003;3.068174e-002
3.835882e+003;3.079874e-002
3.837811e+003;3.084054e-002
3.839739e+003;3.093500e-002
3.841667e+003;3.071865e-002
3.843596e+003;3.073903e-002
3.845525e+003;3.089212e-002
3.847453e+003;3.089543e-002
3.849382e+003;3.113724e-002
3.851310e+003;3.094933e-002
3.853239e+003;3.057120e-002
3.855167e+003;3.084677e-002
3.857096e+003;3.130668e-002
3.859024e+003;3.148253e-002
3.860953e+003;3.173205e-002
3.862882e+003;3.162933e-002
3.864810e+003;3.134229e-002
3.866739e+003;3.168061e-002
3.868667e+003;3.223498e-002
3.870596e+003;3.230686e-002
3.872524e+003;3.199359e-002
3.874453e+003;3.176096e-002
3.876381e+003;3.186945e-002
3.878310e+003;3.207096e-002
3.880239e+003;3.222727e-002
3.882167e+003;3.258524e-002
3.884096e+003;3.319523e-002
3.886024e+003;3.347781e-002
3.887953e+003;3.347168e-002
3.889881e+003;3.312474e-002
3.891810e+003;3.288203e-002
3.893738e+003;3.302992e-002
3.895667e+003;3.310200e-002
3.897595e+003;3.321823e-002
3.899524e+003;3.329847e-002
3.901453e+003;3.327392e-002
3.903381e+003;3.348260e-002
3.905310e+003;3.403483e-002
3.907238e+003;3.423544e-002
3.909167e+003;3.387417e-002
3.911095e+003;3.356063e-002
3.913024e+003;3.368114e-002
3.914952e+003;3.420641e-002
3.916881e+003;3.410525e-002
3.918810e+003;3.384311e-002
3.920738e+003;3.415088e-002
3.922667e+003;3.453046e-002
3.924595e+003;3.455274e-002
3.926524e+003;3.470320e-002
3.928452e+003;3.491041e-002
3.930381e+003;3.483110e-002
3.932309e+003;3.503032e-002
3.934238e+003;3.560883e-002
3.936167e+003;3.566631e-002
3.938095e+003;3.557330e-002
3.940023e+003;3.515619e-002
3.941952e+003;3.513949e-002
3.943881e+003;3.560692e-002
3.945809e+003;3.584605e-002
3.947738e+003;3.620461e-002
3.949666e+003;3.622395e-002
3.951595e+003;3.615354e-002
3.953523e+003;3.620918e-002
3.955452e+003;3.589219e-002
3.957380e+003;3.539478e-002
3.959309e+003;3.561639e-002
3.961238e+003;3.579579e-002
3.963166e+003;3.558812e-002
3.965095e+003;3.551217e-002
3.967023e+003;3.556068e-002
3.968952e+003;3.593170e-002
3.970880e+003;3.612243e-002
3.972809e+003;3.640021e-002
3.974737e+003;3.626411e-002
3.976666e+003;3.595175e-002
3.978594e+003;3.618815e-002
3.980523e+003;3.628900e-002
3.982452e+003;3.614166e-002
3.984380e+003;3.584458e-002
3.986309e+003;3.555144e-002
3.988237e+003;3.554313e-002
3.990166e+003;3.581306e-002
3.992094e+003;3.650493e-002
3.994023e+003;3.655528e-002
3.995951e+003;3.633889e-002
3.997880e+003;3.634379e-002
3.999809e+003;3.682075e-002
4.001737e+003;0.000000e+000
