3.992094e+002;0.000000e+000
4.011380e+002;0.000000e+000
4.030665e+002;0.000000e+000
4.049951e+002;0.000000e+000
4.069236e+002;0.000000e+000
4.088522e+002;0.000000e+000
4.107807e+002;0.000000e+000
4.127093e+002;0.000000e+000
4.146378e+002;0.000000e+000
4.165664e+002;0.000000e+000
4.184949e+002;0.000000e+000
4.204235e+002;0.000000e+000
4.223520e+002;0.000000e+000
4.242806e+002;0.000000e+000
4.262091e+002;0.000000e+000
4.281377e+002;0.000000e+000
4.300662e+002;0.000000e+000
4.319948e+002;0.000000e+000
4.339233e+002;0.000000e+000
4.358519e+002;0.000000e+000
4.377804e+002;0.000000e+000
4.397090e+002;0.000000e+000
4.416375e+002;0.000000e+000
4.435660e+002;0.000000e+000
4.454946e+002;0.000000e+000
4.474232e+002;0.000000e+000
4.493517e+002;0.000000e+000
4.512802e+002;0.000000e+000
4.532088e+002;0.000000e+000
4.551373e+002;0.000000e+000
4.570659e+002;0.000000e+000
4.589944e+002;0.000000e+000
4.609230e+002;0.000000e+000
4.628515e+002;0.000000e+000
4.647801e+002;0.000000e+000
4.667086e+002;0.000000e+000
4.686372e+002;0.000000e+000
4.705657e+002;0.000000e+000
4.724943e+002;0.000000e+000
4.744228e+002;0.000000e+000
4.763513e+002;0.000000e+000
4.782799e+002;0.000000e+000
4.802085e+002;0.000000e+000
4.821370e+002;0.000000e+000
4.840656e+002;0.000000e+000
4.859941e+002;0.000000e+000
4.879226e+002;0.000000e+000
4.898512e+002;0.000000e+000
4.917798e+002;0.000000e+000
4.937083e+002;0.000000e+000
4.956368e+002;0.000000e+000
4.975654e+002;0.000000e+000
4.994939e+002;0.000000e+000
5.014225e+002;0.000000e+000
5.033510e+002;0.000000e+000
5.052796e+002;0.000000e+000
5.072081e+002;0.000000e+000
5.091367e+002;0.000000e+000
5.110652e+002;0.000000e+000
5.129938e+002;0.000000e+000
5.149223e+002;0.000000e+000
5.168509e+002;0.000000e+000
5.187794e+002;0.000000e+000
5.207079e+002;0.000000e+000
5.226365e+002;0.000000e+000
5.245651e+002;0.000000e+000
5.264936e+002;0.000000e+000
5.284222e+002;0.000000e+000
5.303507e+002;0.000000e+000
5.322792e+002;0.000000e+000
5.342078e+002;0.000000e+000
5.361364e+002;0.000000e+000
5.380649e+002;0.000000e+000
5.399935e+002;0.000000e+000
5.419220e+002;0.000000e+000
5.438505e+002;0.000000e+000
5.457791e+002;0.000000e+000
5.477076e+002;0.000000e+000
5.496362e+002;0.000000e+000
5.515648e+002;0.000000e+000
5.534933e+002;0.000000e+000
5.554218e+002;0.000000e+000
5.573504e+002;0.000000e+000
5.592789e+002;0.000000e+000
5.612075e+002;0.000000e+000
5.631360e+002;0.000000e+000
5.650646e+002;0.000000e+000
5.669931e+002;0.000000e+000
5.689217e+002;0.000000e+000
5.708502e+002;0.000000e+000
5.727787e+002;0.000000e+000
5.747073e+002;0.000000e+000
5.766359e+002;0.000000e+000
5.785644e+002;0.000000e+000
5.804930e+002;0.000000e+000
5.824215e+002;0.000000e+000
5.843500e+002;0.000000e+000
5.862786e+002;0.000000e+000
5.882072e+002;0.000000e+000
5.901357e+002;0.000000e+000
5.920643e+002;0.000000e+000
5.939928e+002;0.000000e+000
5.959213e+002;0.000000e+000
5.978499e+002;0.000000e+000
5.997784e+002;2.056040e-001
6.017070e+002;2.111894e-001
6.036355e+002;2.203296e-001
6.055641e+002;2.204800e-001
6.074926e+002;2.139885e-001
6.094211e+002;2.118641e-001
6.113497e+002;2.089577e-001
6.132783e+002;2.041176e-001
6.152068e+002;2.029058e-001
6.171354e+002;2.009753e-001
6.190639e+002;1.956088e-001
6.209924e+002;1.925751e-001
6.229210e+002;1.907401e-001
6.248495e+002;1.868910e-001
6.267781e+002;1.846190e-001
6.287067e+002;1.845365e-001
6.306352e+002;1.853222e-001
6.325637e+002;1.881607e-001
6.344923e+002;1.867878e-001
6.364208e+002;1.818423e-001
6.383494e+002;1.820677e-001
6.402780e+002;1.826062e-001
6.422065e+002;1.825671e-001
6.441350e+002;1.848638e-001
6.460636e+002;1.849256e-001
6.479921e+002;1.848964e-001
6.499207e+002;1.843828e-001
6.518492e+002;1.823083e-001
6.537778e+002;1.840840e-001
6.557063e+002;1.876206e-001
6.576349e+002;1.898191e-001
6.595634e+002;1.913646e-001
6.614919e+002;1.923848e-001
6.634205e+002;1.934685e-001
6.653491e+002;1.945351e-001
6.672776e+002;1.944643e-001
6.692062e+002;1.938061e-001
6.711347e+002;1.922792e-001
6.730632e+002;1.884091e-001
6.749918e+002;1.805158e-001
6.769203e+002;1.697307e-001
6.788489e+002;1.612820e-001
6.807775e+002;1.559042e-001
6.827060e+002;1.527463e-001
6.846345e+002;1.507716e-001
6.865631e+002;1.489837e-001
6.884916e+002;1.465108e-001
6.904202e+002;1.451763e-001
6.923488e+002;1.460932e-001
6.942773e+002;1.463439e-001
6.962058e+002;1.461478e-001
6.981344e+002;1.454349e-001
7.000629e+002;1.438722e-001
7.019915e+002;1.422791e-001
7.039200e+002;1.411453e-001
7.058486e+002;1.411308e-001
7.077771e+002;1.410918e-001
7.097057e+002;1.407383e-001
7.116342e+002;1.401887e-001
7.135627e+002;1.391230e-001
7.154913e+002;1.388327e-001
7.174199e+002;1.389620e-001
7.193484e+002;1.380899e-001
7.212770e+002;1.362475e-001
7.232055e+002;1.350208e-001
7.251340e+002;1.350408e-001
7.270626e+002;1.348820e-001
7.289911e+002;1.343000e-001
7.309197e+002;1.328656e-001
7.328483e+002;1.314030e-001
7.347768e+002;1.304074e-001
7.367053e+002;1.292538e-001
7.386339e+002;1.278604e-001
7.405624e+002;1.274183e-001
7.424910e+002;1.273399e-001
7.444196e+002;1.258486e-001
7.463481e+002;1.248438e-001
7.482766e+002;1.243754e-001
7.502052e+002;1.244916e-001
7.521337e+002;1.244237e-001
7.540623e+002;1.229842e-001
7.559908e+002;1.204403e-001
7.579194e+002;1.194749e-001
7.598479e+002;1.198640e-001
7.617765e+002;1.192089e-001
7.637050e+002;1.175831e-001
7.656335e+002;1.163517e-001
7.675621e+002;1.160206e-001
7.694907e+002;1.164361e-001
7.714192e+002;1.162671e-001
7.733478e+002;1.157467e-001
7.752763e+002;1.147699e-001
7.772048e+002;1.138973e-001
7.791334e+002;1.137268e-001
7.810620e+002;1.136462e-001
7.829905e+002;1.130297e-001
7.849191e+002;1.125383e-001
7.868476e+002;1.121339e-001
7.887761e+002;1.116350e-001
7.907047e+002;1.118616e-001
7.926332e+002;1.121087e-001
7.945618e+002;1.112678e-001
7.964903e+002;1.106992e-001
7.984189e+002;1.104740e-001
8.003474e+002;1.104494e-001
8.022759e+002;1.100717e-001
8.042045e+002;1.095140e-001
8.061331e+002;1.097583e-001
8.080616e+002;1.099342e-001
8.099902e+002;1.092742e-001
8.119187e+002;1.086695e-001
8.138472e+002;1.085038e-001
8.157758e+002;1.082604e-001
8.177043e+002;1.080788e-001
8.196329e+002;1.083267e-001
8.215615e+002;1.086344e-001
8.234900e+002;1.083351e-001
8.254185e+002;1.077190e-001
8.273471e+002;1.074734e-001
8.292756e+002;1.075849e-001
8.312042e+002;1.076199e-001
8.331328e+002;1.075884e-001
8.350613e+002;1.071311e-001
8.369898e+002;1.065811e-001
8.389184e+002;1.059796e-001
8.408469e+002;1.056085e-001
8.427755e+002;1.055480e-001
8.447040e+002;1.055555e-001
8.466326e+002;1.061493e-001
8.485611e+002;1.065158e-001
8.504897e+002;1.066807e-001
8.524182e+002;1.067365e-001
8.543467e+002;1.065718e-001
8.562753e+002;1.065739e-001
8.582039e+002;1.071110e-001
8.601324e+002;1.079840e-001
8.620610e+002;1.086649e-001
8.639895e+002;1.092007e-001
8.659180e+002;1.099811e-001
8.678466e+002;1.111053e-001
8.697751e+002;1.120039e-001
8.717037e+002;1.132524e-001
8.736323e+002;1.156968e-001
8.755608e+002;1.182915e-001
8.774893e+002;1.209266e-001
8.794179e+002;1.237154e-001
8.813464e+002;1.268595e-001
8.832750e+002;1.308444e-001
8.852036e+002;1.353027e-001
8.871321e+002;1.398412e-001
8.890606e+002;1.443918e-001
8.909892e+002;1.484940e-001
8.929177e+002;1.510280e-001
8.948463e+002;1.508150e-001
8.967748e+002;1.486228e-001
8.987034e+002;1.450746e-001
9.006319e+002;1.412999e-001
9.025605e+002;1.379213e-001
9.044890e+002;1.343595e-001
9.064175e+002;1.313260e-001
9.083461e+002;1.289663e-001
9.102747e+002;1.265567e-001
9.122032e+002;1.241416e-001
9.141318e+002;1.231315e-001
9.160603e+002;1.230975e-001
9.179888e+002;1.233156e-001
9.199174e+002;1.236904e-001
9.218459e+002;1.247358e-001
9.237745e+002;1.255612e-001
9.257031e+002;1.261228e-001
9.276316e+002;1.270706e-001
9.295601e+002;1.287230e-001
9.314887e+002;1.303977e-001
9.334172e+002;1.316407e-001
9.353458e+002;1.328052e-001
9.372744e+002;1.339583e-001
9.392029e+002;1.358139e-001
9.411314e+002;1.381131e-001
9.430600e+002;1.400027e-001
9.449885e+002;1.421670e-001
9.469171e+002;1.451472e-001
9.488456e+002;1.483971e-001
9.507742e+002;1.517874e-001
9.527027e+002;1.554227e-001
9.546313e+002;1.592027e-001
9.565598e+002;1.631012e-001
9.584883e+002;1.672636e-001
9.604169e+002;1.713387e-001
9.623455e+002;1.751158e-001
9.642740e+002;1.788486e-001
9.662026e+002;1.823682e-001
9.681311e+002;1.858805e-001
9.700596e+002;1.898712e-001
9.719882e+002;1.945053e-001
9.739167e+002;1.997945e-001
9.758453e+002;2.061534e-001
9.777739e+002;2.139975e-001
9.797024e+002;2.232218e-001
9.816309e+002;2.336420e-001
9.835595e+002;2.445713e-001
9.854880e+002;2.553023e-001
9.874166e+002;2.658906e-001
9.893452e+002;2.758187e-001
9.912737e+002;2.842282e-001
9.932022e+002;2.900854e-001
9.951307e+002;2.934900e-001
9.970593e+002;2.952968e-001
9.989879e+002;2.953784e-001
1.000916e+003;2.948402e-001
1.002845e+003;2.956703e-001
1.004773e+003;2.980027e-001
1.006702e+003;3.013236e-001
1.008631e+003;3.060610e-001
1.010559e+003;3.115660e-001
1.012488e+003;3.168485e-001
1.014416e+003;3.217824e-001
1.016345e+003;3.265564e-001
1.018273e+003;3.301735e-001
1.020202e+003;3.321281e-001
1.022130e+003;3.332255e-001
1.024059e+003;3.332655e-001
1.025988e+003;3.315524e-001
1.027916e+003;3.281986e-001
1.029845e+003;3.244984e-001
1.031773e+003;3.208459e-001
1.033702e+003;3.168324e-001
1.035630e+003;3.132475e-001
1.037559e+003;3.102044e-001
1.039487e+003;3.082355e-001
1.041416e+003;3.069552e-001
1.043344e+003;3.059635e-001
1.045273e+003;3.054729e-001
1.047202e+003;3.047657e-001
1.049130e+003;3.030221e-001
1.051059e+003;3.010256e-001
1.052987e+003;2.999089e-001
1.054916e+003;2.990445e-001
1.056844e+003;2.971023e-001
1.058773e+003;2.938264e-001
1.060701e+003;2.889901e-001
1.062630e+003;2.827420e-001
1.064558e+003;2.763689e-001
1.066487e+003;2.698658e-001
1.068416e+003;2.642630e-001
1.070344e+003;2.605702e-001
1.072273e+003;2.571736e-001
1.074201e+003;2.534008e-001
1.076130e+003;2.496770e-001
1.078058e+003;2.458093e-001
1.079987e+003;2.424417e-001
1.081915e+003;2.394258e-001
1.083844e+003;2.357465e-001
1.085773e+003;2.322008e-001
1.087701e+003;2.288130e-001
1.089630e+003;2.252204e-001
1.091558e+003;2.213190e-001
1.093487e+003;2.175630e-001
1.095415e+003;2.140865e-001
1.097344e+003;2.101804e-001
1.099272e+003;2.051903e-001
1.101201e+003;1.994877e-001
1.103129e+003;1.949666e-001
1.105058e+003;1.920412e-001
1.106987e+003;1.900654e-001
1.108915e+003;1.880176e-001
1.110844e+003;1.852875e-001
1.112772e+003;1.818764e-001
1.114701e+003;1.775490e-001
1.116629e+003;1.734586e-001
1.118558e+003;1.700124e-001
1.120486e+003;1.660606e-001
1.122415e+003;1.619430e-001
1.124344e+003;1.575128e-001
1.126272e+003;1.532841e-001
1.128201e+003;1.493551e-001
1.130129e+003;1.453209e-001
1.132058e+003;1.415191e-001
1.133986e+003;1.384878e-001
1.135915e+003;1.356361e-001
1.137843e+003;1.332703e-001
1.139772e+003;1.321820e-001
1.141700e+003;1.320769e-001
1.143629e+003;1.321282e-001
1.145557e+003;1.331476e-001
1.147486e+003;1.353498e-001
1.149415e+003;1.375362e-001
1.151343e+003;1.392396e-001
1.153272e+003;1.409113e-001
1.155200e+003;1.420089e-001
1.157129e+003;1.419800e-001
1.159057e+003;1.400611e-001
1.160986e+003;1.359893e-001
1.162914e+003;1.310625e-001
1.164843e+003;1.260055e-001
1.166771e+003;1.205127e-001
1.168700e+003;1.153603e-001
1.170629e+003;1.109504e-001
1.172557e+003;1.072088e-001
1.174486e+003;1.038840e-001
1.176414e+003;1.011397e-001
1.178343e+003;9.882249e-002
1.180271e+003;9.692803e-002
1.182200e+003;9.593758e-002
1.184128e+003;9.566249e-002
1.186057e+003;9.631331e-002
1.187986e+003;9.794378e-002
1.189914e+003;9.988547e-002
1.191843e+003;1.020470e-001
1.193771e+003;1.044157e-001
1.195700e+003;1.063693e-001
1.197628e+003;1.073782e-001
1.199557e+003;1.071564e-001
1.201485e+003;1.058378e-001
1.203414e+003;1.042170e-001
1.205343e+003;1.024448e-001
1.207271e+003;1.005522e-001
1.209200e+003;9.920734e-002
1.211128e+003;9.875835e-002
1.213057e+003;9.913431e-002
1.214985e+003;1.001303e-001
1.216914e+003;1.015126e-001
1.218842e+003;1.034914e-001
1.220771e+003;1.058142e-001
1.222699e+003;1.079101e-001
1.224628e+003;1.094809e-001
1.226557e+003;1.103656e-001
1.228485e+003;1.107120e-001
1.230414e+003;1.107452e-001
1.232342e+003;1.107544e-001
1.234271e+003;1.108330e-001
1.236199e+003;1.108876e-001
1.238128e+003;1.106296e-001
1.240056e+003;1.100722e-001
1.241985e+003;1.096504e-001
1.243913e+003;1.096653e-001
1.245842e+003;1.098025e-001
1.247771e+003;1.099632e-001
1.249699e+003;1.104217e-001
1.251628e+003;1.114069e-001
1.253556e+003;1.127285e-001
1.255485e+003;1.138888e-001
1.257413e+003;1.148754e-001
1.259342e+003;1.155936e-001
1.261270e+003;1.157983e-001
1.263199e+003;1.156264e-001
1.265127e+003;1.150229e-001
1.267056e+003;1.138590e-001
1.268985e+003;1.127525e-001
1.270913e+003;1.119386e-001
1.272842e+003;1.112242e-001
1.274770e+003;1.111395e-001
1.276699e+003;1.110760e-001
1.278627e+003;1.103186e-001
1.280556e+003;1.093545e-001
1.282484e+003;1.086879e-001
1.284413e+003;1.083640e-001
1.286342e+003;1.083890e-001
1.288270e+003;1.090102e-001
1.290199e+003;1.101859e-001
1.292127e+003;1.117044e-001
1.294056e+003;1.131913e-001
1.295984e+003;1.143513e-001
1.297913e+003;1.152665e-001
1.299841e+003;1.164247e-001
1.301770e+003;1.178246e-001
1.303698e+003;1.191718e-001
1.305627e+003;1.208725e-001
1.307556e+003;1.228952e-001
1.309484e+003;1.247088e-001
1.311413e+003;1.258919e-001
1.313341e+003;1.263566e-001
1.315270e+003;1.261703e-001
1.317198e+003;1.247672e-001
1.319127e+003;1.226881e-001
1.321055e+003;1.208419e-001
1.322984e+003;1.194852e-001
1.324912e+003;1.189517e-001
1.326841e+003;1.188027e-001
1.328770e+003;1.187181e-001
1.330698e+003;1.187089e-001
1.332627e+003;1.187141e-001
1.334555e+003;1.188233e-001
1.336484e+003;1.186968e-001
1.338412e+003;1.181185e-001
1.340341e+003;1.172621e-001
1.342269e+003;1.166318e-001
1.344198e+003;1.162648e-001
1.346126e+003;1.159981e-001
1.348055e+003;1.156994e-001
1.349984e+003;1.155811e-001
1.351912e+003;1.161803e-001
1.353841e+003;1.172004e-001
1.355769e+003;1.180116e-001
1.357698e+003;1.189494e-001
1.359626e+003;1.202599e-001
1.361555e+003;1.215466e-001
1.363483e+003;1.221965e-001
1.365412e+003;1.220387e-001
1.367341e+003;1.215615e-001
1.369269e+003;1.209104e-001
1.371198e+003;1.200294e-001
1.373126e+003;1.189572e-001
1.375055e+003;1.175429e-001
1.376983e+003;1.156402e-001
1.378912e+003;1.133700e-001
1.380840e+003;1.108745e-001
1.382769e+003;1.083318e-001
1.384698e+003;1.062386e-001
1.386626e+003;1.049239e-001
1.388555e+003;1.042065e-001
1.390483e+003;1.036889e-001
1.392412e+003;1.031736e-001
1.394340e+003;1.025965e-001
1.396269e+003;1.023201e-001
1.398197e+003;1.021905e-001
1.400126e+003;1.017506e-001
1.402054e+003;1.012412e-001
1.403983e+003;1.009916e-001
1.405911e+003;1.009944e-001
1.407840e+003;1.011117e-001
1.409769e+003;1.014027e-001
1.411697e+003;1.016434e-001
1.413626e+003;1.018691e-001
1.415554e+003;1.022354e-001
1.417483e+003;1.022786e-001
1.419411e+003;1.021391e-001
1.421340e+003;1.022725e-001
1.423268e+003;1.018689e-001
1.425197e+003;1.012886e-001
1.427125e+003;1.011608e-001
1.429054e+003;1.009295e-001
1.430983e+003;1.006129e-001
1.432911e+003;1.002780e-001
1.434840e+003;9.984194e-002
1.436768e+003;9.952823e-002
1.438697e+003;9.929066e-002
1.440625e+003;9.875543e-002
1.442554e+003;9.814958e-002
1.444482e+003;9.766683e-002
1.446411e+003;9.687187e-002
1.448340e+003;9.590750e-002
1.450268e+003;9.515382e-002
1.452197e+003;9.436928e-002
1.454125e+003;9.344381e-002
1.456054e+003;9.237318e-002
1.457982e+003;9.161530e-002
1.459911e+003;9.138651e-002
1.461839e+003;9.098520e-002
1.463768e+003;9.028186e-002
1.465697e+003;8.967406e-002
1.467625e+003;8.901021e-002
1.469554e+003;8.807176e-002
1.471482e+003;8.706744e-002
1.473411e+003;8.591801e-002
1.475339e+003;8.465688e-002
1.477268e+003;8.339896e-002
1.479196e+003;8.200815e-002
1.481125e+003;8.059309e-002
1.483053e+003;7.943621e-002
1.484982e+003;7.845299e-002
1.486911e+003;7.740775e-002
1.488839e+003;7.642701e-002
1.490768e+003;7.572193e-002
1.492696e+003;7.509781e-002
1.494625e+003;7.425051e-002
1.496553e+003;7.338675e-002
1.498482e+003;7.309777e-002
1.500410e+003;7.300372e-002
1.502339e+003;7.275088e-002
1.504267e+003;7.205468e-002
1.506196e+003;7.122642e-002
1.508125e+003;7.095842e-002
1.510053e+003;7.099050e-002
1.511982e+003;7.085286e-002
1.513910e+003;7.061253e-002
1.515839e+003;7.037460e-002
1.517767e+003;7.028367e-002
1.519696e+003;7.003841e-002
1.521624e+003;6.983970e-002
1.523553e+003;6.992991e-002
1.525481e+003;6.983573e-002
1.527410e+003;6.988616e-002
1.529339e+003;6.999259e-002
1.531267e+003;6.990489e-002
1.533196e+003;6.972324e-002
1.535124e+003;6.986694e-002
1.537053e+003;6.994455e-002
1.538981e+003;6.942767e-002
1.540910e+003;6.924448e-002
1.542838e+003;6.937744e-002
1.544767e+003;6.947950e-002
1.546695e+003;6.969088e-002
1.548624e+003;6.973492e-002
1.550553e+003;6.978020e-002
1.552481e+003;6.987897e-002
1.554410e+003;6.983779e-002
1.556338e+003;6.951302e-002
1.558267e+003;6.890613e-002
1.560195e+003;6.902093e-002
1.562124e+003;6.967018e-002
1.564052e+003;6.965015e-002
1.565981e+003;6.976176e-002
1.567910e+003;6.988449e-002
1.569838e+003;7.004319e-002
1.571767e+003;7.051247e-002
1.573695e+003;7.053742e-002
1.575624e+003;7.048145e-002
1.577552e+003;7.075649e-002
1.579481e+003;7.111045e-002
1.581409e+003;7.137729e-002
1.583338e+003;7.148959e-002
1.585266e+003;7.150509e-002
1.587195e+003;7.144994e-002
1.589124e+003;7.158639e-002
1.591052e+003;7.186279e-002
1.592981e+003;7.217669e-002
1.594909e+003;7.237566e-002
1.596838e+003;7.229867e-002
1.598766e+003;7.233948e-002
1.600695e+003;7.250343e-002
1.602623e+003;7.286023e-002
1.604552e+003;7.316266e-002
1.606480e+003;7.320937e-002
1.608409e+003;7.321886e-002
1.610338e+003;7.347715e-002
1.612266e+003;7.381465e-002
1.614195e+003;7.391033e-002
1.616123e+003;7.398528e-002
1.618052e+003;7.439470e-002
1.619980e+003;7.482946e-002
1.621909e+003;7.508595e-002
1.623837e+003;7.531446e-002
1.625766e+003;7.555452e-002
1.627694e+003;7.581141e-002
1.629623e+003;7.612928e-002
1.631552e+003;7.623626e-002
1.633480e+003;7.596672e-002
1.635409e+003;7.591578e-002
1.637337e+003;7.616640e-002
1.639266e+003;7.633974e-002
1.641194e+003;7.640496e-002
1.643123e+003;7.634926e-002
1.645051e+003;7.606979e-002
1.646980e+003;7.579283e-002
1.648909e+003;7.585560e-002
1.650837e+003;7.541918e-002
1.652766e+003;7.459605e-002
1.654694e+003;7.448897e-002
1.656623e+003;7.464799e-002
1.658551e+003;7.439210e-002
1.660480e+003;7.395283e-002
1.662408e+003;7.329632e-002
1.664337e+003;7.285111e-002
1.666266e+003;7.256839e-002
1.668194e+003;7.188489e-002
1.670123e+003;7.146885e-002
1.672051e+003;7.136945e-002
1.673980e+003;7.076550e-002
1.675908e+003;7.012539e-002
1.677837e+003;6.999831e-002
1.679765e+003;6.978962e-002
1.681694e+003;6.919443e-002
1.683622e+003;6.849491e-002
1.685551e+003;6.827523e-002
1.687479e+003;6.826112e-002
1.689408e+003;6.791962e-002
1.691337e+003;6.759507e-002
1.693265e+003;6.717674e-002
1.695194e+003;6.638682e-002
1.697122e+003;6.598453e-002
1.699051e+003;6.577827e-002
1.700979e+003;6.554540e-002
1.702908e+003;6.557106e-002
1.704836e+003;6.528739e-002
1.706765e+003;6.511933e-002
1.708693e+003;6.515490e-002
1.710622e+003;6.514743e-002
1.712551e+003;6.501105e-002
1.714479e+003;6.483245e-002
1.716408e+003;6.461235e-002
1.718336e+003;6.440977e-002
1.720265e+003;6.443167e-002
1.722193e+003;6.453342e-002
1.724122e+003;6.478071e-002
1.726050e+003;6.505370e-002
1.727979e+003;6.498685e-002
1.729908e+003;6.467956e-002
1.731836e+003;6.417125e-002
1.733765e+003;6.380194e-002
1.735693e+003;6.387310e-002
1.737622e+003;6.380037e-002
1.739550e+003;6.346412e-002
1.741479e+003;6.308323e-002
1.743407e+003;6.261827e-002
1.745336e+003;6.229755e-002
1.747265e+003;6.201967e-002
1.749193e+003;6.181959e-002
1.751122e+003;6.168243e-002
1.753050e+003;6.183343e-002
1.754979e+003;6.204819e-002
1.756907e+003;6.197721e-002
1.758836e+003;6.198730e-002
1.760764e+003;6.196246e-002
1.762693e+003;6.197419e-002
1.764621e+003;6.219667e-002
1.766550e+003;6.197496e-002
1.768479e+003;6.168564e-002
1.770407e+003;6.166395e-002
1.772336e+003;6.158460e-002
1.774264e+003;6.166964e-002
1.776193e+003;6.195134e-002
1.778121e+003;6.210300e-002
1.780050e+003;6.193510e-002
1.781978e+003;6.183442e-002
1.783907e+003;6.182674e-002
1.785835e+003;6.181337e-002
1.787764e+003;6.202430e-002
1.789693e+003;6.198275e-002
1.791621e+003;6.168797e-002
1.793550e+003;6.154073e-002
1.795478e+003;6.146396e-002
1.797407e+003;6.141316e-002
1.799335e+003;6.141545e-002
1.801264e+003;6.139133e-002
1.803192e+003;6.149736e-002
1.805121e+003;6.164890e-002
1.807049e+003;6.147278e-002
1.808978e+003;6.135457e-002
1.810907e+003;6.130749e-002
1.812835e+003;6.121264e-002
1.814764e+003;6.128066e-002
1.816692e+003;6.146766e-002
1.818621e+003;6.144037e-002
1.820549e+003;6.129150e-002
1.822478e+003;6.120627e-002
1.824406e+003;6.129810e-002
1.826335e+003;6.133225e-002
1.828264e+003;6.129501e-002
1.830192e+003;6.125655e-002
1.832121e+003;6.108642e-002
1.834049e+003;6.101976e-002
1.835978e+003;6.110274e-002
1.837906e+003;6.102712e-002
1.839835e+003;6.107059e-002
1.841763e+003;6.094480e-002
1.843692e+003;6.066938e-002
1.845620e+003;6.082628e-002
1.847549e+003;6.080997e-002
1.849478e+003;6.047519e-002
1.851406e+003;6.046913e-002
1.853335e+003;6.053658e-002
1.855263e+003;6.034629e-002
1.857192e+003;6.026547e-002
1.859120e+003;6.031176e-002
1.861049e+003;6.036339e-002
1.862977e+003;6.035809e-002
1.864906e+003;6.028663e-002
1.866834e+003;6.014002e-002
1.868763e+003;6.009611e-002
1.870692e+003;6.015463e-002
1.872620e+003;6.017937e-002
1.874549e+003;6.016418e-002
1.876477e+003;6.025846e-002
1.878406e+003;6.030578e-002
1.880334e+003;6.033133e-002
1.882263e+003;6.033567e-002
1.884191e+003;6.025694e-002
1.886120e+003;6.010775e-002
1.888048e+003;6.004196e-002
1.889977e+003;6.009021e-002
1.891906e+003;6.020251e-002
1.893834e+003;6.039065e-002
1.895763e+003;6.042537e-002
1.897691e+003;6.033887e-002
1.899620e+003;6.032858e-002
1.901548e+003;6.007963e-002
1.903477e+003;5.997706e-002
1.905405e+003;5.997618e-002
1.907334e+003;5.985869e-002
1.909262e+003;6.009382e-002
1.911191e+003;6.028633e-002
1.913120e+003;6.045036e-002
1.915048e+003;6.062949e-002
1.916977e+003;6.059772e-002
1.918905e+003;6.055056e-002
1.920834e+003;6.072856e-002
1.922762e+003;6.074114e-002
1.924691e+003;6.077616e-002
1.926619e+003;6.092127e-002
1.928548e+003;6.094739e-002
1.930477e+003;6.076240e-002
1.932405e+003;6.079323e-002
1.934334e+003;6.094167e-002
1.936262e+003;6.097553e-002
1.938191e+003;6.092478e-002
1.940119e+003;6.077898e-002
1.942048e+003;6.091121e-002
1.943976e+003;6.117235e-002
1.945905e+003;6.122752e-002
1.947833e+003;6.140381e-002
1.949762e+003;6.150305e-002
1.951691e+003;6.137198e-002
1.953619e+003;6.126590e-002
1.955548e+003;6.132065e-002
1.957476e+003;6.164585e-002
1.959405e+003;6.177994e-002
1.961333e+003;6.169255e-002
1.963262e+003;6.159353e-002
1.965190e+003;6.178395e-002
1.967119e+003;6.188470e-002
1.969047e+003;6.175878e-002
1.970976e+003;6.186139e-002
1.972905e+003;6.202326e-002
1.974833e+003;6.214643e-002
1.976762e+003;6.229296e-002
1.978690e+003;6.238525e-002
1.980619e+003;6.235863e-002
1.982547e+003;6.234673e-002
1.984476e+003;6.247133e-002
1.986404e+003;6.255979e-002
1.988333e+003;6.254897e-002
1.990261e+003;6.259818e-002
1.992190e+003;6.257407e-002
1.994119e+003;6.246199e-002
1.996047e+003;6.256550e-002
1.997976e+003;6.279141e-002
1.999904e+003;6.287148e-002
2.001833e+003;6.289921e-002
2.003761e+003;6.309277e-002
2.005690e+003;6.303840e-002
2.007618e+003;6.286827e-002
2.009547e+003;6.295382e-002
2.011476e+003;6.320424e-002
2.013404e+003;6.321950e-002
2.015333e+003;6.302117e-002
2.017261e+003;6.305648e-002
2.019190e+003;6.332253e-002
2.021118e+003;6.330340e-002
2.023047e+003;6.318753e-002
2.024975e+003;6.315347e-002
2.026904e+003;6.306277e-002
2.028833e+003;6.317358e-002
2.030761e+003;6.329999e-002
2.032690e+003;6.334955e-002
2.034618e+003;6.354877e-002
2.036547e+003;6.383909e-002
2.038475e+003;6.391563e-002
2.040404e+003;6.371380e-002
2.042332e+003;6.365959e-002
2.044261e+003;6.363968e-002
2.046189e+003;6.364915e-002
2.048118e+003;6.356177e-002
2.050047e+003;6.343375e-002
2.051975e+003;6.354450e-002
2.053904e+003;6.371733e-002
2.055832e+003;6.381653e-002
2.057761e+003;6.373134e-002
2.059689e+003;6.353039e-002
2.061618e+003;6.363872e-002
2.063546e+003;6.385352e-002
2.065475e+003;6.387564e-002
2.067404e+003;6.375359e-002
2.069332e+003;6.376372e-002
2.071260e+003;6.363499e-002
2.073189e+003;6.351827e-002
2.075118e+003;6.356288e-002
2.077046e+003;6.367213e-002
2.078975e+003;6.364781e-002
2.080903e+003;6.350189e-002
2.082832e+003;6.344679e-002
2.084760e+003;6.356518e-002
2.086689e+003;6.370053e-002
2.088617e+003;6.354930e-002
2.090546e+003;6.340185e-002
2.092475e+003;6.351275e-002
2.094403e+003;6.358916e-002
2.096332e+003;6.371602e-002
2.098260e+003;6.367712e-002
2.100189e+003;6.352046e-002
2.102117e+003;6.340906e-002
2.104046e+003;6.362276e-002
2.105974e+003;6.380992e-002
2.107903e+003;6.362644e-002
2.109832e+003;6.368606e-002
2.111760e+003;6.377470e-002
2.113688e+003;6.365214e-002
2.115617e+003;6.372274e-002
2.117546e+003;6.389034e-002
2.119474e+003;6.393060e-002
2.121403e+003;6.392204e-002
2.123331e+003;6.394646e-002
2.125260e+003;6.379484e-002
2.127188e+003;6.363104e-002
2.129117e+003;6.381173e-002
2.131045e+003;6.400789e-002
2.132974e+003;6.393137e-002
2.134903e+003;6.383403e-002
2.136831e+003;6.414010e-002
2.138760e+003;6.442037e-002
2.140688e+003;6.440919e-002
2.142617e+003;6.412105e-002
2.144545e+003;6.368852e-002
2.146474e+003;6.359257e-002
2.148402e+003;6.380145e-002
2.150331e+003;6.390527e-002
2.152260e+003;6.385848e-002
2.154188e+003;6.395821e-002
2.156117e+003;6.399107e-002
2.158045e+003;6.390527e-002
2.159974e+003;6.377834e-002
2.161902e+003;6.358486e-002
2.163831e+003;6.350566e-002
2.165759e+003;6.365901e-002
2.167688e+003;6.356066e-002
2.169616e+003;6.330321e-002
2.171545e+003;6.332766e-002
2.173474e+003;6.349438e-002
2.175402e+003;6.340139e-002
2.177331e+003;6.319447e-002
2.179259e+003;6.311511e-002
2.181188e+003;6.311546e-002
2.183116e+003;6.336784e-002
2.185045e+003;6.344924e-002
2.186973e+003;6.318730e-002
2.188902e+003;6.309874e-002
2.190831e+003;6.324847e-002
2.192759e+003;6.332786e-002
2.194688e+003;6.331655e-002
2.196616e+003;6.318174e-002
2.198545e+003;6.315381e-002
2.200473e+003;6.323095e-002
2.202402e+003;6.334277e-002
2.204330e+003;6.318428e-002
2.206259e+003;6.291120e-002
2.208188e+003;6.281037e-002
2.210116e+003;6.284241e-002
2.212044e+003;6.291805e-002
2.213973e+003;6.306231e-002
2.215902e+003;6.306208e-002
2.217830e+003;6.306587e-002
2.219759e+003;6.288914e-002
2.221687e+003;6.260009e-002
2.223616e+003;6.228489e-002
2.225544e+003;6.205820e-002
2.227473e+003;6.202858e-002
2.229401e+003;6.214532e-002
2.231330e+003;6.224313e-002
2.233259e+003;6.233855e-002
2.235187e+003;6.228978e-002
2.237116e+003;6.199662e-002
2.239044e+003;6.180657e-002
2.240973e+003;6.184844e-002
2.242901e+003;6.192891e-002
2.244830e+003;6.195451e-002
2.246758e+003;6.205808e-002
2.248687e+003;6.212689e-002
2.250615e+003;6.210881e-002
2.252544e+003;6.204883e-002
2.254473e+003;6.200920e-002
2.256401e+003;6.195952e-002
2.258330e+003;6.173124e-002
2.260258e+003;6.148789e-002
2.262187e+003;6.137049e-002
2.264115e+003;6.153172e-002
2.266044e+003;6.177922e-002
2.267972e+003;6.181849e-002
2.269901e+003;6.178636e-002
2.271830e+003;6.180068e-002
2.273758e+003;6.137346e-002
2.275687e+003;6.091025e-002
2.277615e+003;6.099558e-002
2.279544e+003;6.093496e-002
2.281472e+003;6.094884e-002
2.283401e+003;6.135965e-002
2.285329e+003;6.139144e-002
2.287258e+003;6.112029e-002
2.289187e+003;6.099772e-002
2.291115e+003;6.100855e-002
2.293043e+003;6.107086e-002
2.294972e+003;6.109332e-002
2.296901e+003;6.108077e-002
2.298829e+003;6.105900e-002
2.300758e+003;6.105191e-002
2.302686e+003;6.107620e-002
2.304615e+003;6.111868e-002
2.306543e+003;6.137037e-002
2.308472e+003;6.155737e-002
2.310400e+003;6.159243e-002
2.312329e+003;6.152970e-002
2.314258e+003;6.161469e-002
2.316186e+003;6.153653e-002
2.318115e+003;6.110038e-002
2.320043e+003;6.084526e-002
2.321972e+003;6.121672e-002
2.323900e+003;6.154936e-002
2.325829e+003;6.139373e-002
2.327757e+003;6.124095e-002
2.329686e+003;6.124781e-002
2.331615e+003;6.111163e-002
2.333543e+003;6.115530e-002
2.335472e+003;6.136839e-002
2.337400e+003;6.161942e-002
2.339329e+003;6.190503e-002
2.341257e+003;6.190495e-002
2.343186e+003;6.185104e-002
2.345114e+003;6.201986e-002
2.347043e+003;6.231261e-002
2.348971e+003;6.238031e-002
2.350900e+003;6.221158e-002
2.352829e+003;6.197755e-002
2.354757e+003;6.194874e-002
2.356686e+003;6.206004e-002
2.358614e+003;6.209807e-002
2.360543e+003;6.220156e-002
2.362471e+003;6.235025e-002
2.364400e+003;6.240954e-002
2.366328e+003;6.233147e-002
2.368257e+003;6.233116e-002
2.370186e+003;6.248024e-002
2.372114e+003;6.266711e-002
2.374042e+003;6.268100e-002
2.375971e+003;6.279249e-002
2.377900e+003;6.289680e-002
2.379828e+003;6.294195e-002
2.381757e+003;6.298152e-002
2.383685e+003;6.297964e-002
2.385614e+003;6.299926e-002
2.387542e+003;6.285597e-002
2.389471e+003;6.277154e-002
2.391399e+003;6.308419e-002
2.393328e+003;6.314097e-002
2.395257e+003;6.316427e-002
2.397185e+003;6.353714e-002
2.399114e+003;6.359621e-002
2.401042e+003;6.346317e-002
2.402971e+003;6.352188e-002
2.404899e+003;6.371679e-002
2.406828e+003;6.365260e-002
2.408756e+003;6.365744e-002
2.410685e+003;6.388139e-002
2.412614e+003;6.398328e-002
2.414542e+003;6.400812e-002
2.416471e+003;6.406383e-002
2.418399e+003;6.423943e-002
2.420328e+003;6.444190e-002
2.422256e+003;6.459463e-002
2.424185e+003;6.452069e-002
2.426113e+003;6.448925e-002
2.428042e+003;6.473310e-002
2.429970e+003;6.491028e-002
2.431899e+003;6.502152e-002
2.433828e+003;6.487865e-002
2.435756e+003;6.497446e-002
2.437685e+003;6.512148e-002
2.439613e+003;6.514046e-002
2.441542e+003;6.534034e-002
2.443470e+003;6.531268e-002
2.445399e+003;6.530337e-002
2.447327e+003;6.551399e-002
2.449256e+003;6.556628e-002
2.451185e+003;6.556933e-002
2.453113e+003;6.566501e-002
2.455042e+003;6.581531e-002
2.456970e+003;6.585808e-002
2.458899e+003;6.570545e-002
2.460827e+003;6.561923e-002
2.462756e+003;6.600074e-002
2.464684e+003;6.622953e-002
2.466613e+003;6.626901e-002
2.468542e+003;6.628468e-002
2.470470e+003;6.620753e-002
2.472398e+003;6.604791e-002
2.474327e+003;6.601323e-002
2.476256e+003;6.618364e-002
2.478184e+003;6.652814e-002
2.480113e+003;6.691246e-002
2.482041e+003;6.689085e-002
2.483970e+003;6.664301e-002
2.485898e+003;6.646794e-002
2.487827e+003;6.642778e-002
2.489755e+003;6.675316e-002
2.491684e+003;6.694245e-002
2.493613e+003;6.692085e-002
2.495541e+003;6.682152e-002
2.497470e+003;6.690709e-002
2.499398e+003;6.698896e-002
2.501327e+003;6.671637e-002
2.503255e+003;6.658585e-002
2.505184e+003;6.673546e-002
2.507112e+003;6.691714e-002
2.509041e+003;6.711760e-002
2.510969e+003;6.728411e-002
2.512898e+003;6.739930e-002
2.514827e+003;6.738905e-002
2.516755e+003;6.717484e-002
2.518684e+003;6.727239e-002
2.520612e+003;6.758005e-002
2.522541e+003;6.783536e-002
2.524469e+003;6.777412e-002
2.526398e+003;6.756317e-002
2.528326e+003;6.753673e-002
2.530255e+003;6.776905e-002
2.532184e+003;6.792635e-002
2.534112e+003;6.763011e-002
2.536041e+003;6.742039e-002
2.537969e+003;6.756708e-002
2.539898e+003;6.792535e-002
2.541826e+003;6.807512e-002
2.543755e+003;6.779515e-002
2.545683e+003;6.760928e-002
2.547612e+003;6.779589e-002
2.549541e+003;6.792221e-002
2.551469e+003;6.785674e-002
2.553397e+003;6.784597e-002
2.555326e+003;6.801145e-002
2.557255e+003;6.819610e-002
2.559183e+003;6.838439e-002
2.561112e+003;6.853005e-002
2.563040e+003;6.835651e-002
2.564969e+003;6.814563e-002
2.566897e+003;6.817385e-002
2.568826e+003;6.833351e-002
2.570754e+003;6.841759e-002
2.572683e+003;6.836679e-002
2.574612e+003;6.824192e-002
2.576540e+003;6.820591e-002
2.578469e+003;6.848164e-002
2.580397e+003;6.883860e-002
2.582326e+003;6.892116e-002
2.584254e+003;6.900310e-002
2.586183e+003;6.892349e-002
2.588111e+003;6.888085e-002
2.590040e+003;6.912795e-002
2.591969e+003;6.899320e-002
2.593897e+003;6.877358e-002
2.595826e+003;6.890310e-002
2.597754e+003;6.911854e-002
2.599683e+003;6.940345e-002
2.601611e+003;6.919404e-002
2.603540e+003;6.925031e-002
2.605468e+003;6.952756e-002
2.607397e+003;6.939673e-002
2.609325e+003;6.935490e-002
2.611254e+003;6.952491e-002
2.613183e+003;6.963618e-002
2.615111e+003;6.971126e-002
2.617040e+003;6.977153e-002
2.618968e+003;6.979981e-002
2.620897e+003;6.983172e-002
2.622825e+003;6.980355e-002
2.624754e+003;6.974437e-002
2.626682e+003;6.983717e-002
2.628611e+003;7.006294e-002
2.630540e+003;7.034086e-002
2.632468e+003;7.052156e-002
2.634396e+003;7.054556e-002
2.636325e+003;7.059667e-002
2.638254e+003;7.070567e-002
2.640182e+003;7.071133e-002
2.642111e+003;7.054439e-002
2.644039e+003;7.039081e-002
2.645968e+003;7.046866e-002
2.647896e+003;7.048266e-002
2.649825e+003;7.076534e-002
2.651753e+003;7.119808e-002
2.653682e+003;7.125277e-002
2.655611e+003;7.119633e-002
2.657539e+003;7.127659e-002
2.659468e+003;7.160042e-002
2.661396e+003;7.183254e-002
2.663325e+003;7.179661e-002
2.665253e+003;7.185220e-002
2.667182e+003;7.207499e-002
2.669110e+003;7.209063e-002
2.671039e+003;7.190353e-002
2.672968e+003;7.181744e-002
2.674896e+003;7.201823e-002
2.676825e+003;7.242047e-002
2.678753e+003;7.256711e-002
2.680682e+003;7.243946e-002
2.682610e+003;7.238892e-002
2.684539e+003;7.262902e-002
2.686467e+003;7.287638e-002
2.688396e+003;7.299768e-002
2.690324e+003;7.332849e-002
2.692253e+003;7.367226e-002
2.694182e+003;7.362857e-002
2.696110e+003;7.327722e-002
2.698039e+003;7.303551e-002
2.699967e+003;7.331444e-002
2.701896e+003;7.358111e-002
2.703824e+003;7.371620e-002
2.705753e+003;7.372731e-002
2.707681e+003;7.376069e-002
2.709610e+003;7.385011e-002
2.711539e+003;7.401258e-002
2.713467e+003;7.402111e-002
2.715396e+003;7.418617e-002
2.717324e+003;7.411542e-002
2.719253e+003;7.402394e-002
2.721181e+003;7.445318e-002
2.723110e+003;7.461627e-002
2.725038e+003;7.451363e-002
2.726967e+003;7.446045e-002
2.728896e+003;7.459188e-002
2.730824e+003;7.485418e-002
2.732752e+003;7.488937e-002
2.734681e+003;7.480403e-002
2.736610e+003;7.488138e-002
2.738538e+003;7.507023e-002
2.740467e+003;7.528656e-002
2.742395e+003;7.528203e-002
2.744324e+003;7.524247e-002
2.746252e+003;7.503877e-002
2.748181e+003;7.489355e-002
2.750109e+003;7.482705e-002
2.752038e+003;7.494871e-002
2.753967e+003;7.532159e-002
2.755895e+003;7.561690e-002
2.757824e+003;7.573042e-002
2.759752e+003;7.576604e-002
2.761681e+003;7.565501e-002
2.763609e+003;7.569535e-002
2.765538e+003;7.610106e-002
2.767466e+003;7.645755e-002
2.769395e+003;7.643874e-002
2.771323e+003;7.638272e-002
2.773252e+003;7.647204e-002
2.775181e+003;7.665104e-002
2.777109e+003;7.661626e-002
2.779038e+003;7.662566e-002
2.780966e+003;7.703239e-002
2.782895e+003;7.760670e-002
2.784823e+003;7.785025e-002
2.786752e+003;7.775132e-002
2.788680e+003;7.783836e-002
2.790609e+003;7.819322e-002
2.792538e+003;7.820616e-002
2.794466e+003;7.811528e-002
2.796395e+003;7.843731e-002
2.798323e+003;7.879668e-002
2.800252e+003;7.898780e-002
2.802180e+003;7.917010e-002
2.804109e+003;7.937268e-002
2.806037e+003;7.968721e-002
2.807966e+003;8.005590e-002
2.809895e+003;8.041812e-002
2.811823e+003;8.071329e-002
2.813751e+003;8.098379e-002
2.815680e+003;8.106165e-002
2.817609e+003;8.138963e-002
2.819537e+003;8.175085e-002
2.821466e+003;8.195876e-002
2.823394e+003;8.220653e-002
2.825323e+003;8.253413e-002
2.827251e+003;8.278103e-002
2.829180e+003;8.296649e-002
2.831108e+003;8.336744e-002
2.833037e+003;8.398400e-002
2.834966e+003;8.431548e-002
2.836894e+003;8.478023e-002
2.838823e+003;8.525556e-002
2.840751e+003;8.564454e-002
2.842680e+003;8.645510e-002
2.844608e+003;8.739711e-002
2.846537e+003;8.827923e-002
2.848465e+003;8.875341e-002
2.850394e+003;8.872731e-002
2.852323e+003;8.886146e-002
2.854251e+003;8.932227e-002
2.856180e+003;8.999703e-002
2.858108e+003;9.087212e-002
2.860037e+003;9.182668e-002
2.861965e+003;9.271699e-002
2.863894e+003;9.365752e-002
2.865822e+003;9.465189e-002
2.867751e+003;9.556892e-002
2.869679e+003;9.639145e-002
2.871608e+003;9.722979e-002
2.873536e+003;9.765526e-002
2.875465e+003;9.788180e-002
2.877394e+003;9.839430e-002
2.879322e+003;9.896670e-002
2.881251e+003;9.942878e-002
2.883179e+003;9.966113e-002
2.885108e+003;9.978786e-002
2.887036e+003;1.004593e-001
2.888965e+003;1.013040e-001
2.890893e+003;1.014375e-001
2.892822e+003;1.012979e-001
2.894750e+003;1.009065e-001
2.896679e+003;1.002863e-001
2.898608e+003;9.991591e-002
2.900536e+003;9.980500e-002
2.902465e+003;9.962799e-002
2.904393e+003;9.906092e-002
2.906322e+003;9.822261e-002
2.908250e+003;9.761510e-002
2.910179e+003;9.704278e-002
2.912107e+003;9.652343e-002
2.914036e+003;9.618275e-002
2.915965e+003;9.563730e-002
2.917893e+003;9.511356e-002
2.919822e+003;9.429962e-002
2.921750e+003;9.314989e-002
2.923679e+003;9.156653e-002
2.925607e+003;9.019583e-002
2.927536e+003;8.923990e-002
2.929464e+003;8.847047e-002
2.931393e+003;8.782481e-002
2.933322e+003;8.728918e-002
2.935250e+003;8.669311e-002
2.937178e+003;8.598008e-002
2.939107e+003;8.529217e-002
2.941036e+003;8.452825e-002
2.942964e+003;8.362188e-002
2.944893e+003;8.290004e-002
2.946821e+003;8.232282e-002
2.948750e+003;8.176325e-002
2.950678e+003;8.132633e-002
2.952607e+003;8.097229e-002
2.954535e+003;8.052867e-002
2.956464e+003;7.986172e-002
2.958393e+003;7.942842e-002
2.960321e+003;7.882059e-002
2.962250e+003;7.808748e-002
2.964178e+003;7.757354e-002
2.966107e+003;7.716333e-002
2.968035e+003;7.694797e-002
2.969964e+003;7.689042e-002
2.971892e+003;7.687009e-002
2.973821e+003;7.677625e-002
2.975750e+003;7.646213e-002
2.977678e+003;7.621370e-002
2.979607e+003;7.602470e-002
2.981535e+003;7.591940e-002
2.983464e+003;7.599656e-002
2.985392e+003;7.555066e-002
2.987321e+003;7.504452e-002
2.989249e+003;7.510687e-002
2.991178e+003;7.524121e-002
2.993106e+003;7.515449e-002
2.995035e+003;7.495965e-002
2.996964e+003;7.500073e-002
2.998892e+003;7.509848e-002
3.000821e+003;7.506902e-002
3.002749e+003;7.521666e-002
3.004678e+003;7.544878e-002
3.006606e+003;7.542328e-002
3.008535e+003;7.527324e-002
3.010463e+003;7.541169e-002
3.012392e+003;7.589620e-002
3.014321e+003;7.600331e-002
3.016249e+003;7.587643e-002
3.018177e+003;7.620798e-002
3.020106e+003;7.651496e-002
3.022035e+003;7.677178e-002
3.023963e+003;7.723410e-002
3.025892e+003;7.736260e-002
3.027820e+003;7.738339e-002
3.029749e+003;7.763602e-002
3.031677e+003;7.811163e-002
3.033606e+003;7.825845e-002
3.035534e+003;7.853151e-002
3.037463e+003;7.893936e-002
3.039392e+003;7.921714e-002
3.041320e+003;7.923952e-002
3.043249e+003;7.929985e-002
3.045177e+003;7.964271e-002
3.047106e+003;7.990026e-002
3.049034e+003;7.985248e-002
3.050963e+003;8.021884e-002
3.052891e+003;8.097632e-002
3.054820e+003;8.129289e-002
3.056749e+003;8.104384e-002
3.058677e+003;8.122357e-002
3.060606e+003;8.166114e-002
3.062534e+003;8.167458e-002
3.064463e+003;8.227400e-002
3.066391e+003;8.313570e-002
3.068320e+003;8.342482e-002
3.070248e+003;8.350705e-002
3.072177e+003;8.354148e-002
3.074105e+003;8.389966e-002
3.076034e+003;8.471636e-002
3.077963e+003;8.513070e-002
3.079891e+003;8.530668e-002
3.081820e+003;8.580257e-002
3.083748e+003;8.623739e-002
3.085677e+003;8.645745e-002
3.087605e+003;8.672139e-002
3.089534e+003;8.714554e-002
3.091462e+003;8.750150e-002
3.093391e+003;8.779500e-002
3.095320e+003;8.807445e-002
3.097248e+003;8.840260e-002
3.099177e+003;8.900053e-002
3.101105e+003;8.971044e-002
3.103034e+003;9.027929e-002
3.104962e+003;9.070379e-002
3.106891e+003;9.102843e-002
3.108819e+003;9.125506e-002
3.110748e+003;9.156133e-002
3.112677e+003;9.188305e-002
3.114605e+003;9.240925e-002
3.116533e+003;9.303715e-002
3.118462e+003;9.335939e-002
3.120391e+003;9.372190e-002
3.122319e+003;9.389232e-002
3.124248e+003;9.454638e-002
3.126176e+003;9.555905e-002
3.128105e+003;9.588630e-002
3.130033e+003;9.570197e-002
3.131962e+003;9.570131e-002
3.133890e+003;9.612896e-002
3.135819e+003;9.669089e-002
3.137748e+003;9.711421e-002
3.139676e+003;9.766044e-002
3.141605e+003;9.819133e-002
3.143533e+003;9.849065e-002
3.145462e+003;9.862182e-002
3.147390e+003;9.889276e-002
3.149319e+003;9.958591e-002
3.151247e+003;1.001907e-001
3.153176e+003;1.001863e-001
3.155104e+003;1.001169e-001
3.157033e+003;1.005828e-001
3.158962e+003;1.011542e-001
3.160890e+003;1.015779e-001
3.162819e+003;1.018354e-001
3.164747e+003;1.020470e-001
3.166676e+003;1.022700e-001
3.168604e+003;1.026100e-001
3.170533e+003;1.029017e-001
3.172461e+003;1.031644e-001
3.174390e+003;1.038120e-001
3.176319e+003;1.039842e-001
3.178247e+003;1.041136e-001
3.180176e+003;1.045672e-001
3.182104e+003;1.045203e-001
3.184033e+003;1.046742e-001
3.185961e+003;1.051227e-001
3.187890e+003;1.053452e-001
3.189818e+003;1.058600e-001
3.191747e+003;1.064405e-001
3.193676e+003;1.064735e-001
3.195604e+003;1.065331e-001
3.197532e+003;1.069307e-001
3.199461e+003;1.073647e-001
3.201390e+003;1.075827e-001
3.203318e+003;1.076755e-001
3.205247e+003;1.078332e-001
3.207175e+003;1.082628e-001
3.209104e+003;1.085727e-001
3.211032e+003;1.089208e-001
3.212961e+003;1.095963e-001
3.214889e+003;1.097502e-001
3.216818e+003;1.094962e-001
3.218747e+003;1.098866e-001
3.220675e+003;1.105908e-001
3.222604e+003;1.112065e-001
3.224532e+003;1.112719e-001
3.226461e+003;1.111676e-001
3.228389e+003;1.114479e-001
3.230318e+003;1.117934e-001
3.232246e+003;1.119451e-001
3.234175e+003;1.124326e-001
3.236104e+003;1.130056e-001
3.238032e+003;1.129238e-001
3.239961e+003;1.131008e-001
3.241889e+003;1.139142e-001
3.243818e+003;1.143342e-001
3.245746e+003;1.144905e-001
3.247675e+003;1.151466e-001
3.249603e+003;1.158254e-001
3.251532e+003;1.159575e-001
3.253460e+003;1.161384e-001
3.255389e+003;1.160863e-001
3.257318e+003;1.160344e-001
3.259246e+003;1.163417e-001
3.261175e+003;1.168321e-001
3.263103e+003;1.173158e-001
3.265032e+003;1.176031e-001
3.266960e+003;1.177975e-001
3.268889e+003;1.179431e-001
3.270817e+003;1.180717e-001
3.272746e+003;1.182807e-001
3.274675e+003;1.186622e-001
3.276603e+003;1.191058e-001
3.278531e+003;1.191536e-001
3.280460e+003;1.192544e-001
3.282389e+003;1.195345e-001
3.284317e+003;1.196006e-001
3.286246e+003;1.196402e-001
3.288174e+003;1.200542e-001
3.290103e+003;1.205792e-001
3.292031e+003;1.204802e-001
3.293960e+003;1.202843e-001
3.295888e+003;1.204496e-001
3.297817e+003;1.206767e-001
3.299746e+003;1.207468e-001
3.301674e+003;1.209891e-001
3.303603e+003;1.213901e-001
3.305531e+003;1.217152e-001
3.307460e+003;1.215039e-001
3.309388e+003;1.214455e-001
3.311317e+003;1.219372e-001
3.313245e+003;1.224684e-001
3.315174e+003;1.225457e-001
3.317103e+003;1.222363e-001
3.319031e+003;1.220981e-001
3.320960e+003;1.222961e-001
3.322888e+003;1.224462e-001
3.324817e+003;1.222349e-001
3.326745e+003;1.225143e-001
3.328674e+003;1.227837e-001
3.330602e+003;1.229300e-001
3.332531e+003;1.229371e-001
3.334459e+003;1.224703e-001
3.336388e+003;1.222245e-001
3.338317e+003;1.223156e-001
3.340245e+003;1.225550e-001
3.342174e+003;1.228185e-001
3.344102e+003;1.230552e-001
3.346031e+003;1.229679e-001
3.347959e+003;1.227475e-001
3.349888e+003;1.225369e-001
3.351816e+003;1.222543e-001
3.353745e+003;1.221370e-001
3.355674e+003;1.219495e-001
3.357602e+003;1.217815e-001
3.359531e+003;1.218569e-001
3.361459e+003;1.215916e-001
3.363388e+003;1.212318e-001
3.365316e+003;1.212476e-001
3.367245e+003;1.212845e-001
3.369173e+003;1.210832e-001
3.371102e+003;1.209642e-001
3.373031e+003;1.212385e-001
3.374959e+003;1.211520e-001
3.376887e+003;1.205277e-001
3.378816e+003;1.202137e-001
3.380745e+003;1.200531e-001
3.382673e+003;1.201762e-001
3.384602e+003;1.203169e-001
3.386530e+003;1.195442e-001
3.388459e+003;1.188259e-001
3.390387e+003;1.187816e-001
3.392316e+003;1.189807e-001
3.394244e+003;1.188011e-001
3.396173e+003;1.181908e-001
3.398102e+003;1.179442e-001
3.400030e+003;1.176602e-001
3.401959e+003;1.169376e-001
3.403887e+003;1.164992e-001
3.405816e+003;1.166339e-001
3.407744e+003;1.166734e-001
3.409673e+003;1.164039e-001
3.411601e+003;1.163095e-001
3.413530e+003;1.165038e-001
3.415458e+003;1.167243e-001
3.417387e+003;1.164704e-001
3.419316e+003;1.159596e-001
3.421244e+003;1.155887e-001
3.423173e+003;1.151679e-001
3.425101e+003;1.147834e-001
3.427030e+003;1.147838e-001
3.428958e+003;1.146171e-001
3.430887e+003;1.146798e-001
3.432815e+003;1.151365e-001
3.434744e+003;1.150474e-001
3.436673e+003;1.146851e-001
3.438601e+003;1.145772e-001
3.440530e+003;1.143715e-001
3.442458e+003;1.139522e-001
3.444387e+003;1.131125e-001
3.446315e+003;1.125853e-001
3.448244e+003;1.122195e-001
3.450172e+003;1.111027e-001
3.452101e+003;1.098259e-001
3.454030e+003;1.087842e-001
3.455958e+003;1.076110e-001
3.457886e+003;1.065067e-001
3.459815e+003;1.056473e-001
3.461744e+003;1.048898e-001
3.463672e+003;1.040187e-001
3.465601e+003;1.033643e-001
3.467529e+003;1.029893e-001
3.469458e+003;1.024111e-001
3.471386e+003;1.015924e-001
3.473315e+003;1.008373e-001
3.475243e+003;1.001405e-001
3.477172e+003;9.990795e-002
3.479101e+003;9.980487e-002
3.481029e+003;9.937050e-002
3.482958e+003;9.890058e-002
3.484886e+003;9.838799e-002
3.486815e+003;9.749709e-002
3.488743e+003;9.618275e-002
3.490672e+003;9.501305e-002
3.492600e+003;9.414638e-002
3.494529e+003;9.306391e-002
3.496458e+003;9.165106e-002
3.498386e+003;9.042118e-002
3.500315e+003;8.939724e-002
3.502243e+003;8.856176e-002
3.504172e+003;8.758982e-002
3.506100e+003;8.643182e-002
3.508029e+003;8.515117e-002
3.509957e+003;8.417054e-002
3.511886e+003;8.350135e-002
3.513814e+003;8.278909e-002
3.515743e+003;8.159145e-002
3.517672e+003;8.067284e-002
3.519600e+003;8.027536e-002
3.521529e+003;7.966451e-002
3.523457e+003;7.860167e-002
3.525386e+003;7.760171e-002
3.527314e+003;7.702721e-002
3.529243e+003;7.622378e-002
3.531171e+003;7.553749e-002
3.533100e+003;7.514972e-002
3.535029e+003;7.468218e-002
3.536957e+003;7.397565e-002
3.538885e+003;7.329907e-002
3.540814e+003;7.286106e-002
3.542743e+003;7.227957e-002
3.544671e+003;7.220647e-002
3.546600e+003;7.204338e-002
3.548528e+003;7.121307e-002
3.550457e+003;7.019911e-002
3.552385e+003;6.941453e-002
3.554314e+003;6.896085e-002
3.556242e+003;6.859706e-002
3.558171e+003;6.825805e-002
3.560100e+003;6.789808e-002
3.562028e+003;6.733638e-002
3.563957e+003;6.660608e-002
3.565885e+003;6.613819e-002
3.567814e+003;6.596348e-002
3.569742e+003;6.544765e-002
3.571671e+003;6.455072e-002
3.573599e+003;6.400109e-002
3.575528e+003;6.380647e-002
3.577457e+003;6.381649e-002
3.579385e+003;6.315017e-002
3.581314e+003;6.233296e-002
3.583242e+003;6.228133e-002
3.585171e+003;6.214605e-002
3.587099e+003;6.128112e-002
3.589028e+003;6.055220e-002
3.590956e+003;6.039739e-002
3.592885e+003;6.043592e-002
3.594813e+003;6.032276e-002
3.596742e+003;6.024545e-002
3.598671e+003;5.961616e-002
3.600599e+003;5.904473e-002
3.602528e+003;5.878619e-002
3.604456e+003;5.828381e-002
3.606385e+003;5.796786e-002
3.608313e+003;5.780106e-002
3.610242e+003;5.761487e-002
3.612170e+003;5.749094e-002
3.614099e+003;5.715490e-002
3.616028e+003;5.663546e-002
3.617956e+003;5.652226e-002
3.619885e+003;5.612441e-002
3.621813e+003;5.575863e-002
3.623742e+003;5.584827e-002
3.625670e+003;5.591764e-002
3.627599e+003;5.550129e-002
3.629527e+003;5.491298e-002
3.631456e+003;5.486635e-002
3.633385e+003;5.481730e-002
3.635313e+003;5.468285e-002
3.637241e+003;5.479876e-002
3.639170e+003;5.466312e-002
3.641099e+003;5.434213e-002
3.643027e+003;5.398934e-002
3.644956e+003;5.363031e-002
3.646884e+003;5.312971e-002
3.648813e+003;5.258757e-002
3.650741e+003;5.251782e-002
3.652670e+003;5.257717e-002
3.654598e+003;5.254325e-002
3.656527e+003;5.226770e-002
3.658456e+003;5.186576e-002
3.660384e+003;5.166243e-002
3.662313e+003;5.162310e-002
3.664241e+003;5.128127e-002
3.666170e+003;5.136764e-002
3.668098e+003;5.151702e-002
3.670027e+003;5.069812e-002
3.671955e+003;5.028473e-002
3.673884e+003;5.028060e-002
3.675813e+003;4.960860e-002
3.677741e+003;4.928509e-002
3.679669e+003;4.925206e-002
3.681598e+003;4.955274e-002
3.683527e+003;4.998507e-002
3.685455e+003;4.949782e-002
3.687384e+003;4.882995e-002
3.689312e+003;4.883377e-002
3.691241e+003;4.942463e-002
3.693169e+003;4.936467e-002
3.695098e+003;4.873775e-002
3.697026e+003;4.850832e-002
3.698955e+003;4.846201e-002
3.700884e+003;4.848379e-002
3.702812e+003;4.835171e-002
3.704741e+003;4.810052e-002
3.706669e+003;4.806817e-002
3.708598e+003;4.793480e-002
3.710526e+003;4.751616e-002
3.712455e+003;4.756543e-002
3.714383e+003;4.797532e-002
3.716312e+003;4.781068e-002
3.718240e+003;4.735162e-002
3.720169e+003;4.731157e-002
3.722098e+003;4.716000e-002
3.724026e+003;4.691667e-002
3.725955e+003;4.700021e-002
3.727883e+003;4.698592e-002
3.729812e+003;4.662086e-002
3.731740e+003;4.649985e-002
3.733669e+003;4.678933e-002
3.735597e+003;4.673582e-002
3.737526e+003;4.665739e-002
3.739455e+003;4.661264e-002
3.741383e+003;4.658062e-002
3.743312e+003;4.643310e-002
3.745240e+003;4.607205e-002
3.747169e+003;4.648521e-002
3.749097e+003;4.689898e-002
3.751026e+003;4.677372e-002
3.752954e+003;4.662289e-002
3.754883e+003;4.661290e-002
3.756812e+003;4.681188e-002
3.758740e+003;4.693287e-002
3.760668e+003;4.689445e-002
3.762597e+003;4.670402e-002
3.764526e+003;4.651349e-002
3.766454e+003;4.642816e-002
3.768383e+003;4.605996e-002
3.770311e+003;4.599560e-002
3.772240e+003;4.649598e-002
3.774168e+003;4.680494e-002
3.776097e+003;4.697898e-002
3.778025e+003;4.682099e-002
3.779954e+003;4.673915e-002
3.781883e+003;4.693763e-002
3.783811e+003;4.708998e-002
3.785740e+003;4.694114e-002
3.787668e+003;4.688396e-002
3.789597e+003;4.691958e-002
3.791525e+003;4.673852e-002
3.793454e+003;4.700077e-002
3.795382e+003;4.700660e-002
3.797311e+003;4.666447e-002
3.799240e+003;4.649233e-002
3.801168e+003;4.613424e-002
3.803097e+003;4.645763e-002
3.805025e+003;4.713396e-002
3.806954e+003;4.684089e-002
3.808882e+003;4.656104e-002
3.810811e+003;4.654694e-002
3.812739e+003;4.667724e-002
3.814668e+003;4.682579e-002
3.816596e+003;4.669535e-002
3.818525e+003;4.636043e-002
3.820454e+003;4.601001e-002
3.822382e+003;4.628022e-002
3.824311e+003;4.675712e-002
3.826239e+003;4.677018e-002
3.828168e+003;4.671402e-002
3.830096e+003;4.662227e-002
3.832025e+003;4.658641e-002
3.833953e+003;4.687979e-002
3.835882e+003;4.680457e-002
3.837811e+003;4.627506e-002
3.839739e+003;4.633544e-002
3.841667e+003;4.651925e-002
3.843596e+003;4.631007e-002
3.845525e+003;4.639572e-002
3.847453e+003;4.667476e-002
3.849382e+003;4.697724e-002
3.851310e+003;4.707642e-002
3.853239e+003;4.663957e-002
3.855167e+003;4.655882e-002
3.857096e+003;4.673520e-002
3.859024e+003;4.697884e-002
3.860953e+003;4.710556e-002
3.862882e+003;4.707025e-002
3.864810e+003;4.715098e-002
3.866739e+003;4.736958e-002
3.868667e+003;4.745062e-002
3.870596e+003;4.746544e-002
3.872524e+003;4.784919e-002
3.874453e+003;4.765483e-002
3.876381e+003;4.769022e-002
3.878310e+003;4.806399e-002
3.880239e+003;4.791024e-002
3.882167e+003;4.750729e-002
3.884096e+003;4.749960e-002
3.886024e+003;4.769851e-002
3.887953e+003;4.798302e-002
3.889881e+003;4.778331e-002
3.891810e+003;4.797651e-002
3.893738e+003;4.840693e-002
3.895667e+003;4.842878e-002
3.897595e+003;4.825535e-002
3.899524e+003;4.818063e-002
3.901453e+003;4.834348e-002
3.903381e+003;4.863646e-002
3.905310e+003;4.878146e-002
3.907238e+003;4.859862e-002
3.909167e+003;4.856608e-002
3.911095e+003;4.880070e-002
3.913024e+003;4.888498e-002
3.914952e+003;4.888747e-002
3.916881e+003;4.870580e-002
3.918810e+003;4.850895e-002
3.920738e+003;4.868075e-002
3.922667e+003;4.908890e-002
3.924595e+003;4.942174e-002
3.926524e+003;4.942285e-002
3.928452e+003;4.939537e-002
3.930381e+003;4.972922e-002
3.932309e+003;4.975386e-002
3.934238e+003;4.958565e-002
3.936167e+003;4.984185e-002
3.938095e+003;5.000016e-002
3.940023e+003;5.007117e-002
3.941952e+003;4.978689e-002
3.943881e+003;4.972012e-002
3.945809e+003;4.982156e-002
3.947738e+003;4.944152e-002
3.949666e+003;4.940974e-002
3.951595e+003;4.967806e-002
3.953523e+003;5.019486e-002
3.955452e+003;5.050137e-002
3.957380e+003;5.004433e-002
3.959309e+003;4.946414e-002
3.961238e+003;4.987954e-002
3.963166e+003;5.041626e-002
3.965095e+003;5.028882e-002
3.967023e+003;4.982747e-002
3.968952e+003;4.952010e-002
3.970880e+003;4.980350e-002
3.972809e+003;4.958063e-002
3.974737e+003;4.955122e-002
3.976666e+003;4.994663e-002
3.978594e+003;4.999904e-002
3.980523e+003;4.997908e-002
3.982452e+003;4.974828e-002
3.984380e+003;4.945764e-002
3.986309e+003;4.930291e-002
3.988237e+003;4.927061e-002
3.990166e+003;4.952288e-002
3.992094e+003;4.966603e-002
3.994023e+003;4.993049e-002
3.995951e+003;5.010943e-002
3.997880e+003;4.998763e-002
3.999809e+003;4.992388e-002
4.001737e+003;0.000000e+000
