3.992094e+002;0.000000e+000
4.011380e+002;0.000000e+000
4.030665e+002;0.000000e+000
4.049951e+002;0.000000e+000
4.069236e+002;0.000000e+000
4.088522e+002;0.000000e+000
4.107807e+002;0.000000e+000
4.127093e+002;0.000000e+000
4.146378e+002;0.000000e+000
4.165664e+002;0.000000e+000
4.184949e+002;0.000000e+000
4.204235e+002;0.000000e+000
4.223520e+002;0.000000e+000
4.242806e+002;0.000000e+000
4.262091e+002;0.000000e+000
4.281377e+002;0.000000e+000
4.300662e+002;0.000000e+000
4.319948e+002;0.000000e+000
4.339233e+002;0.000000e+000
4.358519e+002;0.000000e+000
4.377804e+002;0.000000e+000
4.397090e+002;0.000000e+000
4.416375e+002;0.000000e+000
4.435660e+002;0.000000e+000
4.454946e+002;0.000000e+000
4.474232e+002;0.000000e+000
4.493517e+002;0.000000e+000
4.512802e+002;0.000000e+000
4.532088e+002;0.000000e+000
4.551373e+002;0.000000e+000
4.570659e+002;0.000000e+000
4.589944e+002;0.000000e+000
4.609230e+002;0.000000e+000
4.628515e+002;0.000000e+000
4.647801e+002;0.000000e+000
4.667086e+002;0.000000e+000
4.686372e+002;0.000000e+000
4.705657e+002;0.000000e+000
4.724943e+002;0.000000e+000
4.744228e+002;0.000000e+000
4.763513e+002;0.000000e+000
4.782799e+002;0.000000e+000
4.802085e+002;0.000000e+000
4.821370e+002;0.000000e+000
4.840656e+002;0.000000e+000
4.859941e+002;0.000000e+000
4.879226e+002;0.000000e+000
4.898512e+002;0.000000e+000
4.917798e+002;0.000000e+000
4.937083e+002;0.000000e+000
4.956368e+002;0.000000e+000
4.975654e+002;0.000000e+000
4.994939e+002;0.000000e+000
5.014225e+002;0.000000e+000
5.033510e+002;0.000000e+000
5.052796e+002;0.000000e+000
5.072081e+002;0.000000e+000
5.091367e+002;0.000000e+000
5.110652e+002;0.000000e+000
5.129938e+002;0.000000e+000
5.149223e+002;0.000000e+000
5.168509e+002;0.000000e+000
5.187794e+002;0.000000e+000
5.207079e+002;0.000000e+000
5.226365e+002;0.000000e+000
5.245651e+002;0.000000e+000
5.264936e+002;0.000000e+000
5.284222e+002;0.000000e+000
5.303507e+002;0.000000e+000
5.322792e+002;0.000000e+000
5.342078e+002;0.000000e+000
5.361364e+002;0.000000e+000
5.380649e+002;0.000000e+000
5.399935e+002;0.000000e+000
5.419220e+002;0.000000e+000
5.438505e+002;0.000000e+000
5.457791e+002;0.000000e+000
5.477076e+002;0.000000e+000
5.496362e+002;0.000000e+000
5.515648e+002;0.000000e+000
5.534933e+002;0.000000e+000
5.554218e+002;0.000000e+000
5.573504e+002;0.000000e+000
5.592789e+002;0.000000e+000
5.612075e+002;0.000000e+000
5.631360e+002;0.000000e+000
5.650646e+002;0.000000e+000
5.669931e+002;0.000000e+000
5.689217e+002;0.000000e+000
5.708502e+002;0.000000e+000
5.727787e+002;0.000000e+000
5.747073e+002;0.000000e+000
5.766359e+002;0.000000e+000
5.785644e+002;0.000000e+000
5.804930e+002;0.000000e+000
5.824215e+002;0.000000e+000
5.843500e+002;0.000000e+000
5.862786e+002;0.000000e+000
5.882072e+002;0.000000e+000
5.901357e+002;0.000000e+000
5.920643e+002;0.000000e+000
5.939928e+002;0.000000e+000
5.959213e+002;0.000000e+000
5.978499e+002;0.000000e+000
5.997784e+002;2.732837e-001
6.017070e+002;2.578658e-001
6.036355e+002;2.571682e-001
6.055641e+002;2.655379e-001
6.074926e+002;2.691251e-001
6.094211e+002;2.656384e-001
6.113497e+002;2.616028e-001
6.132783e+002;2.616514e-001
6.152068e+002;2.623668e-001
6.171354e+002;2.620004e-001
6.190639e+002;2.566894e-001
6.209924e+002;2.517782e-001
6.229210e+002;2.530062e-001
6.248495e+002;2.527891e-001
6.267781e+002;2.521141e-001
6.287067e+002;2.500742e-001
6.306352e+002;2.479870e-001
6.325637e+002;2.448376e-001
6.344923e+002;2.400358e-001
6.364208e+002;2.418654e-001
6.383494e+002;2.448290e-001
6.402780e+002;2.448404e-001
6.422065e+002;2.409231e-001
6.441350e+002;2.380363e-001
6.460636e+002;2.373825e-001
6.479921e+002;2.355949e-001
6.499207e+002;2.374808e-001
6.518492e+002;2.379758e-001
6.537778e+002;2.359838e-001
6.557063e+002;2.349540e-001
6.576349e+002;2.348859e-001
6.595634e+002;2.374248e-001
6.614919e+002;2.402828e-001
6.634205e+002;2.416545e-001
6.653491e+002;2.426206e-001
6.672776e+002;2.421693e-001
6.692062e+002;2.398428e-001
6.711347e+002;2.374828e-001
6.730632e+002;2.318861e-001
6.749918e+002;2.218452e-001
6.769203e+002;2.123058e-001
6.788489e+002;2.061755e-001
6.807775e+002;2.023389e-001
6.827060e+002;1.995288e-001
6.846345e+002;1.971854e-001
6.865631e+002;1.950809e-001
6.884916e+002;1.936040e-001
6.904202e+002;1.910015e-001
6.923488e+002;1.894386e-001
6.942773e+002;1.897088e-001
6.962058e+002;1.896987e-001
6.981344e+002;1.892046e-001
7.000629e+002;1.887342e-001
7.019915e+002;1.876118e-001
7.039200e+002;1.863552e-001
7.058486e+002;1.866409e-001
7.077771e+002;1.872686e-001
7.097057e+002;1.860577e-001
7.116342e+002;1.845262e-001
7.135627e+002;1.833174e-001
7.154913e+002;1.819565e-001
7.174199e+002;1.822892e-001
7.193484e+002;1.814624e-001
7.212770e+002;1.788134e-001
7.232055e+002;1.774432e-001
7.251340e+002;1.774200e-001
7.270626e+002;1.770862e-001
7.289911e+002;1.758649e-001
7.309197e+002;1.750393e-001
7.328483e+002;1.750280e-001
7.347768e+002;1.733909e-001
7.367053e+002;1.718493e-001
7.386339e+002;1.707207e-001
7.405624e+002;1.686918e-001
7.424910e+002;1.673279e-001
7.444196e+002;1.663328e-001
7.463481e+002;1.661177e-001
7.482766e+002;1.659649e-001
7.502052e+002;1.647105e-001
7.521337e+002;1.629740e-001
7.540623e+002;1.614597e-001
7.559908e+002;1.598520e-001
7.579194e+002;1.587056e-001
7.598479e+002;1.589811e-001
7.617765e+002;1.577984e-001
7.637050e+002;1.563977e-001
7.656335e+002;1.560760e-001
7.675621e+002;1.551621e-001
7.694907e+002;1.532413e-001
7.714192e+002;1.517326e-001
7.733478e+002;1.516745e-001
7.752763e+002;1.509625e-001
7.772048e+002;1.497067e-001
7.791334e+002;1.485645e-001
7.810620e+002;1.480022e-001
7.829905e+002;1.478979e-001
7.849191e+002;1.466064e-001
7.868476e+002;1.452086e-001
7.887761e+002;1.444363e-001
7.907047e+002;1.433703e-001
7.926332e+002;1.425966e-001
7.945618e+002;1.425302e-001
7.964903e+002;1.425191e-001
7.984189e+002;1.418507e-001
8.003474e+002;1.404535e-001
8.022759e+002;1.397803e-001
8.042045e+002;1.394747e-001
8.061331e+002;1.395218e-001
8.080616e+002;1.401664e-001
8.099902e+002;1.400892e-001
8.119187e+002;1.398667e-001
8.138472e+002;1.395250e-001
8.157758e+002;1.386784e-001
8.177043e+002;1.387296e-001
8.196329e+002;1.389938e-001
8.215615e+002;1.388144e-001
8.234900e+002;1.389210e-001
8.254185e+002;1.393598e-001
8.273471e+002;1.397937e-001
8.292756e+002;1.392292e-001
8.312042e+002;1.390820e-001
8.331328e+002;1.398087e-001
8.350613e+002;1.388794e-001
8.369898e+002;1.379103e-001
8.389184e+002;1.374277e-001
8.408469e+002;1.363544e-001
8.427755e+002;1.355539e-001
8.447040e+002;1.351218e-001
8.466326e+002;1.351032e-001
8.485611e+002;1.349347e-001
8.504897e+002;1.347937e-001
8.524182e+002;1.351341e-001
8.543467e+002;1.352404e-001
8.562753e+002;1.350136e-001
8.582039e+002;1.353618e-001
8.601324e+002;1.363513e-001
8.620610e+002;1.377136e-001
8.639895e+002;1.385395e-001
8.659180e+002;1.392807e-001
8.678466e+002;1.406241e-001
8.697751e+002;1.430649e-001
8.717037e+002;1.466090e-001
8.736323e+002;1.497168e-001
8.755608e+002;1.525480e-001
8.774893e+002;1.558838e-001
8.794179e+002;1.600159e-001
8.813464e+002;1.647709e-001
8.832750e+002;1.694144e-001
8.852036e+002;1.742837e-001
8.871321e+002;1.795058e-001
8.890606e+002;1.844312e-001
8.909892e+002;1.883501e-001
8.929177e+002;1.906611e-001
8.948463e+002;1.920379e-001
8.967748e+002;1.918442e-001
8.987034e+002;1.899179e-001
9.006319e+002;1.872161e-001
9.025605e+002;1.838849e-001
9.044890e+002;1.805754e-001
9.064175e+002;1.773924e-001
9.083461e+002;1.742095e-001
9.102747e+002;1.717611e-001
9.122032e+002;1.697466e-001
9.141318e+002;1.681543e-001
9.160603e+002;1.673900e-001
9.179888e+002;1.669517e-001
9.199174e+002;1.673137e-001
9.218459e+002;1.687758e-001
9.237745e+002;1.702397e-001
9.257031e+002;1.715139e-001
9.276316e+002;1.730877e-001
9.295601e+002;1.749209e-001
9.314887e+002;1.765815e-001
9.334172e+002;1.782984e-001
9.353458e+002;1.802177e-001
9.372744e+002;1.821936e-001
9.392029e+002;1.843619e-001
9.411314e+002;1.867673e-001
9.430600e+002;1.899900e-001
9.449885e+002;1.934499e-001
9.469171e+002;1.965735e-001
9.488456e+002;2.006125e-001
9.507742e+002;2.053880e-001
9.527027e+002;2.101236e-001
9.546313e+002;2.150545e-001
9.565598e+002;2.206943e-001
9.584883e+002;2.264454e-001
9.604169e+002;2.318905e-001
9.623455e+002;2.372705e-001
9.642740e+002;2.429555e-001
9.662026e+002;2.490768e-001
9.681311e+002;2.554888e-001
9.700596e+002;2.626728e-001
9.719882e+002;2.706874e-001
9.739167e+002;2.796729e-001
9.758453e+002;2.898025e-001
9.777739e+002;3.011777e-001
9.797024e+002;3.146872e-001
9.816309e+002;3.290897e-001
9.835595e+002;3.438117e-001
9.854880e+002;3.588945e-001
9.874166e+002;3.730309e-001
9.893452e+002;3.855787e-001
9.912737e+002;3.958539e-001
9.932022e+002;4.026598e-001
9.951307e+002;4.068735e-001
9.970593e+002;4.103908e-001
9.989879e+002;4.125815e-001
1.000916e+003;4.138737e-001
1.002845e+003;4.160100e-001
1.004773e+003;4.193241e-001
1.006702e+003;4.241935e-001
1.008631e+003;4.309685e-001
1.010559e+003;4.384234e-001
1.012488e+003;4.454023e-001
1.014416e+003;4.523309e-001
1.016345e+003;4.573619e-001
1.018273e+003;4.607049e-001
1.020202e+003;4.625777e-001
1.022130e+003;4.623798e-001
1.024059e+003;4.613169e-001
1.025988e+003;4.585257e-001
1.027916e+003;4.538445e-001
1.029845e+003;4.488766e-001
1.031773e+003;4.441404e-001
1.033702e+003;4.391657e-001
1.035630e+003;4.342350e-001
1.037559e+003;4.304018e-001
1.039487e+003;4.273365e-001
1.041416e+003;4.245440e-001
1.043344e+003;4.214478e-001
1.045273e+003;4.180672e-001
1.047202e+003;4.147857e-001
1.049130e+003;4.117116e-001
1.051059e+003;4.080809e-001
1.052987e+003;4.040143e-001
1.054916e+003;4.000458e-001
1.056844e+003;3.960733e-001
1.058773e+003;3.909478e-001
1.060701e+003;3.847972e-001
1.062630e+003;3.778393e-001
1.064558e+003;3.708064e-001
1.066487e+003;3.644707e-001
1.068416e+003;3.585171e-001
1.070344e+003;3.513865e-001
1.072273e+003;3.438470e-001
1.074201e+003;3.368999e-001
1.076130e+003;3.300943e-001
1.078058e+003;3.231774e-001
1.079987e+003;3.175142e-001
1.081915e+003;3.120304e-001
1.083844e+003;3.070315e-001
1.085773e+003;3.022039e-001
1.087701e+003;2.971125e-001
1.089630e+003;2.916639e-001
1.091558e+003;2.869173e-001
1.093487e+003;2.820539e-001
1.095415e+003;2.765459e-001
1.097344e+003;2.713284e-001
1.099272e+003;2.657965e-001
1.101201e+003;2.593408e-001
1.103129e+003;2.531145e-001
1.105058e+003;2.485092e-001
1.106987e+003;2.444404e-001
1.108915e+003;2.400437e-001
1.110844e+003;2.362916e-001
1.112772e+003;2.327285e-001
1.114701e+003;2.285411e-001
1.116629e+003;2.235569e-001
1.118558e+003;2.180960e-001
1.120486e+003;2.125649e-001
1.122415e+003;2.068657e-001
1.124344e+003;2.009532e-001
1.126272e+003;1.953545e-001
1.128201e+003;1.903824e-001
1.130129e+003;1.854290e-001
1.132058e+003;1.808262e-001
1.133986e+003;1.764749e-001
1.135915e+003;1.724702e-001
1.137843e+003;1.694478e-001
1.139772e+003;1.674708e-001
1.141700e+003;1.659725e-001
1.143629e+003;1.647367e-001
1.145557e+003;1.649831e-001
1.147486e+003;1.663140e-001
1.149415e+003;1.672801e-001
1.151343e+003;1.679156e-001
1.153272e+003;1.688445e-001
1.155200e+003;1.691418e-001
1.157129e+003;1.679463e-001
1.159057e+003;1.653074e-001
1.160986e+003;1.614344e-001
1.162914e+003;1.563874e-001
1.164843e+003;1.505416e-001
1.166771e+003;1.441591e-001
1.168700e+003;1.375274e-001
1.170629e+003;1.315331e-001
1.172557e+003;1.260271e-001
1.174486e+003;1.208611e-001
1.176414e+003;1.165850e-001
1.178343e+003;1.132838e-001
1.180271e+003;1.107480e-001
1.182200e+003;1.090910e-001
1.184128e+003;1.081599e-001
1.186057e+003;1.081609e-001
1.187986e+003;1.093849e-001
1.189914e+003;1.115175e-001
1.191843e+003;1.139400e-001
1.193771e+003;1.164488e-001
1.195700e+003;1.186400e-001
1.197628e+003;1.200522e-001
1.199557e+003;1.203785e-001
1.201485e+003;1.197864e-001
1.203414e+003;1.183161e-001
1.205343e+003;1.164130e-001
1.207271e+003;1.142690e-001
1.209200e+003;1.124735e-001
1.211128e+003;1.114769e-001
1.213057e+003;1.112441e-001
1.214985e+003;1.120454e-001
1.216914e+003;1.132767e-001
1.218842e+003;1.146422e-001
1.220771e+003;1.163670e-001
1.222699e+003;1.184987e-001
1.224628e+003;1.206940e-001
1.226557e+003;1.220053e-001
1.228485e+003;1.228529e-001
1.230414e+003;1.239211e-001
1.232342e+003;1.245783e-001
1.234271e+003;1.249884e-001
1.236199e+003;1.252154e-001
1.238128e+003;1.251451e-001
1.240056e+003;1.250527e-001
1.241985e+003;1.250589e-001
1.243913e+003;1.250802e-001
1.245842e+003;1.253041e-001
1.247771e+003;1.257495e-001
1.249699e+003;1.265295e-001
1.251628e+003;1.274086e-001
1.253556e+003;1.282652e-001
1.255485e+003;1.290502e-001
1.257413e+003;1.296393e-001
1.259342e+003;1.301443e-001
1.261270e+003;1.300884e-001
1.263199e+003;1.295766e-001
1.265127e+003;1.290677e-001
1.267056e+003;1.282803e-001
1.268985e+003;1.270463e-001
1.270913e+003;1.260491e-001
1.272842e+003;1.253970e-001
1.274770e+003;1.245751e-001
1.276699e+003;1.237397e-001
1.278627e+003;1.232968e-001
1.280556e+003;1.229508e-001
1.282484e+003;1.226542e-001
1.284413e+003;1.226700e-001
1.286342e+003;1.229724e-001
1.288270e+003;1.237141e-001
1.290199e+003;1.251703e-001
1.292127e+003;1.269080e-001
1.294056e+003;1.284664e-001
1.295984e+003;1.299329e-001
1.297913e+003;1.314313e-001
1.299841e+003;1.331974e-001
1.301770e+003;1.349689e-001
1.303698e+003;1.365519e-001
1.305627e+003;1.381616e-001
1.307556e+003;1.400951e-001
1.309484e+003;1.417528e-001
1.311413e+003;1.428321e-001
1.313341e+003;1.438830e-001
1.315270e+003;1.443777e-001
1.317198e+003;1.438227e-001
1.319127e+003;1.430370e-001
1.321055e+003;1.425192e-001
1.322984e+003;1.421385e-001
1.324912e+003;1.420518e-001
1.326841e+003;1.421344e-001
1.328770e+003;1.419632e-001
1.330698e+003;1.422096e-001
1.332627e+003;1.427463e-001
1.334555e+003;1.427801e-001
1.336484e+003;1.424334e-001
1.338412e+003;1.418620e-001
1.340341e+003;1.413954e-001
1.342269e+003;1.414541e-001
1.344198e+003;1.413859e-001
1.346126e+003;1.411572e-001
1.348055e+003;1.411176e-001
1.349984e+003;1.412605e-001
1.351912e+003;1.417210e-001
1.353841e+003;1.425989e-001
1.355769e+003;1.434362e-001
1.357698e+003;1.441006e-001
1.359626e+003;1.448229e-001
1.361555e+003;1.454157e-001
1.363483e+003;1.457176e-001
1.365412e+003;1.459545e-001
1.367341e+003;1.458258e-001
1.369269e+003;1.450304e-001
1.371198e+003;1.438582e-001
1.373126e+003;1.423123e-001
1.375055e+003;1.406652e-001
1.376983e+003;1.390776e-001
1.378912e+003;1.371201e-001
1.380840e+003;1.350067e-001
1.382769e+003;1.328581e-001
1.384698e+003;1.306936e-001
1.386626e+003;1.286319e-001
1.388555e+003;1.274866e-001
1.390483e+003;1.268893e-001
1.392412e+003;1.261153e-001
1.394340e+003;1.253199e-001
1.396269e+003;1.251781e-001
1.398197e+003;1.250261e-001
1.400126e+003;1.250821e-001
1.402054e+003;1.253127e-001
1.403983e+003;1.251332e-001
1.405911e+003;1.249722e-001
1.407840e+003;1.250319e-001
1.409769e+003;1.249119e-001
1.411697e+003;1.249294e-001
1.413626e+003;1.252382e-001
1.415554e+003;1.250738e-001
1.417483e+003;1.239460e-001
1.419411e+003;1.233637e-001
1.421340e+003;1.241658e-001
1.423268e+003;1.243077e-001
1.425197e+003;1.242620e-001
1.427125e+003;1.238158e-001
1.429054e+003;1.228912e-001
1.430983e+003;1.225502e-001
1.432911e+003;1.222344e-001
1.434840e+003;1.207848e-001
1.436768e+003;1.192955e-001
1.438697e+003;1.194979e-001
1.440625e+003;1.193059e-001
1.442554e+003;1.185747e-001
1.444482e+003;1.175071e-001
1.446411e+003;1.161780e-001
1.448340e+003;1.147893e-001
1.450268e+003;1.137460e-001
1.452197e+003;1.127549e-001
1.454125e+003;1.110548e-001
1.456054e+003;1.079121e-001
1.457982e+003;1.067494e-001
1.459911e+003;1.075462e-001
1.461839e+003;1.070482e-001
1.463768e+003;1.048987e-001
1.465697e+003;1.030679e-001
1.467625e+003;1.021720e-001
1.469554e+003;1.006307e-001
1.471482e+003;9.780514e-002
1.473411e+003;9.588217e-002
1.475339e+003;9.517135e-002
1.477268e+003;9.387899e-002
1.479196e+003;9.218808e-002
1.481125e+003;9.028724e-002
1.483053e+003;8.865794e-002
1.484982e+003;8.710222e-002
1.486911e+003;8.507270e-002
1.488839e+003;8.308519e-002
1.490768e+003;8.230180e-002
1.492696e+003;8.191751e-002
1.494625e+003;8.019979e-002
1.496553e+003;7.855954e-002
1.498482e+003;7.867652e-002
1.500410e+003;7.903975e-002
1.502339e+003;7.869983e-002
1.504267e+003;7.639824e-002
1.506196e+003;7.402304e-002
1.508125e+003;7.466380e-002
1.510053e+003;7.607776e-002
1.511982e+003;7.613548e-002
1.513910e+003;7.578722e-002
1.515839e+003;7.494576e-002
1.517767e+003;7.435325e-002
1.519696e+003;7.324902e-002
1.521624e+003;7.260677e-002
1.523553e+003;7.371812e-002
1.525481e+003;7.414702e-002
1.527410e+003;7.450360e-002
1.529339e+003;7.506342e-002
1.531267e+003;7.485548e-002
1.533196e+003;7.411334e-002
1.535124e+003;7.464311e-002
1.537053e+003;7.375346e-002
1.538981e+003;7.115881e-002
1.540910e+003;7.108395e-002
1.542838e+003;7.272369e-002
1.544767e+003;7.382395e-002
1.546695e+003;7.475648e-002
1.548624e+003;7.507019e-002
1.550553e+003;7.499667e-002
1.552481e+003;7.478659e-002
1.554410e+003;7.438593e-002
1.556338e+003;7.344572e-002
1.558267e+003;7.135694e-002
1.560195e+003;7.238963e-002
1.562124e+003;7.553043e-002
1.564052e+003;7.678103e-002
1.565981e+003;7.696661e-002
1.567910e+003;7.644399e-002
1.569838e+003;7.630181e-002
1.571767e+003;7.728805e-002
1.573695e+003;7.691158e-002
1.575624e+003;7.564230e-002
1.577552e+003;7.708854e-002
1.579481e+003;7.891265e-002
1.581409e+003;7.948440e-002
1.583338e+003;8.019166e-002
1.585266e+003;8.071150e-002
1.587195e+003;8.099680e-002
1.589124e+003;8.144334e-002
1.591052e+003;8.204108e-002
1.592981e+003;8.247684e-002
1.594909e+003;8.292297e-002
1.596838e+003;8.328828e-002
1.598766e+003;8.372132e-002
1.600695e+003;8.408915e-002
1.602623e+003;8.452177e-002
1.604552e+003;8.520600e-002
1.606480e+003;8.581856e-002
1.608409e+003;8.620486e-002
1.610338e+003;8.650298e-002
1.612266e+003;8.698096e-002
1.614195e+003;8.674473e-002
1.616123e+003;8.580443e-002
1.618052e+003;8.670076e-002
1.619980e+003;8.803698e-002
1.621909e+003;8.806060e-002
1.623837e+003;8.844809e-002
1.625766e+003;8.939700e-002
1.627694e+003;8.992949e-002
1.629623e+003;9.036826e-002
1.631552e+003;9.039959e-002
1.633480e+003;8.939850e-002
1.635409e+003;8.854993e-002
1.637337e+003;8.975973e-002
1.639266e+003;9.088188e-002
1.641194e+003;9.102022e-002
1.643123e+003;9.053903e-002
1.645051e+003;8.911641e-002
1.646980e+003;8.848339e-002
1.648909e+003;8.872820e-002
1.650837e+003;8.632582e-002
1.652766e+003;8.320842e-002
1.654694e+003;8.506346e-002
1.656623e+003;8.717155e-002
1.658551e+003;8.696169e-002
1.660480e+003;8.599341e-002
1.662408e+003;8.491731e-002
1.664337e+003;8.473444e-002
1.666266e+003;8.426226e-002
1.668194e+003;8.268362e-002
1.670123e+003;8.187262e-002
1.672051e+003;8.161632e-002
1.673980e+003;8.013069e-002
1.675908e+003;7.914696e-002
1.677837e+003;7.932726e-002
1.679765e+003;7.889795e-002
1.681694e+003;7.732448e-002
1.683622e+003;7.436351e-002
1.685551e+003;7.437263e-002
1.687479e+003;7.590114e-002
1.689408e+003;7.555027e-002
1.691337e+003;7.496721e-002
1.693265e+003;7.386535e-002
1.695194e+003;7.167912e-002
1.697122e+003;7.131021e-002
1.699051e+003;7.033837e-002
1.700979e+003;6.988558e-002
1.702908e+003;7.137717e-002
1.704836e+003;7.124618e-002
1.706765e+003;7.098003e-002
1.708693e+003;7.089780e-002
1.710622e+003;7.077852e-002
1.712551e+003;7.034799e-002
1.714479e+003;6.924677e-002
1.716408e+003;6.766833e-002
1.718336e+003;6.775038e-002
1.720265e+003;6.930041e-002
1.722193e+003;6.974324e-002
1.724122e+003;6.943727e-002
1.726050e+003;6.932174e-002
1.727979e+003;6.880778e-002
1.729908e+003;6.796828e-002
1.731836e+003;6.633277e-002
1.733765e+003;6.455633e-002
1.735693e+003;6.531715e-002
1.737622e+003;6.571424e-002
1.739550e+003;6.476437e-002
1.741479e+003;6.500778e-002
1.743407e+003;6.514716e-002
1.745336e+003;6.477771e-002
1.747265e+003;6.429403e-002
1.749193e+003;6.400105e-002
1.751122e+003;6.431942e-002
1.753050e+003;6.552652e-002
1.754979e+003;6.615169e-002
1.756907e+003;6.631486e-002
1.758836e+003;6.666905e-002
1.760764e+003;6.655387e-002
1.762693e+003;6.659798e-002
1.764621e+003;6.695776e-002
1.766550e+003;6.671016e-002
1.768479e+003;6.650914e-002
1.770407e+003;6.625947e-002
1.772336e+003;6.590412e-002
1.774264e+003;6.665205e-002
1.776193e+003;6.743262e-002
1.778121e+003;6.744105e-002
1.780050e+003;6.708744e-002
1.781978e+003;6.702499e-002
1.783907e+003;6.699986e-002
1.785835e+003;6.724180e-002
1.787764e+003;6.734052e-002
1.789693e+003;6.665827e-002
1.791621e+003;6.599599e-002
1.793550e+003;6.640724e-002
1.795478e+003;6.683578e-002
1.797407e+003;6.655525e-002
1.799335e+003;6.640165e-002
1.801264e+003;6.639740e-002
1.803192e+003;6.668466e-002
1.805121e+003;6.692371e-002
1.807049e+003;6.681097e-002
1.808978e+003;6.646138e-002
1.810907e+003;6.624380e-002
1.812835e+003;6.620749e-002
1.814764e+003;6.627310e-002
1.816692e+003;6.640172e-002
1.818621e+003;6.660157e-002
1.820549e+003;6.650741e-002
1.822478e+003;6.610540e-002
1.824406e+003;6.574118e-002
1.826335e+003;6.596208e-002
1.828264e+003;6.583167e-002
1.830192e+003;6.546140e-002
1.832121e+003;6.563997e-002
1.834049e+003;6.586803e-002
1.835978e+003;6.586637e-002
1.837906e+003;6.597319e-002
1.839835e+003;6.596541e-002
1.841763e+003;6.534881e-002
1.843692e+003;6.440055e-002
1.845620e+003;6.466134e-002
1.847549e+003;6.537504e-002
1.849478e+003;6.568220e-002
1.851406e+003;6.564470e-002
1.853335e+003;6.539422e-002
1.855263e+003;6.527460e-002
1.857192e+003;6.537993e-002
1.859120e+003;6.542534e-002
1.861049e+003;6.544048e-002
1.862977e+003;6.566320e-002
1.864906e+003;6.558655e-002
1.866834e+003;6.505470e-002
1.868763e+003;6.473679e-002
1.870692e+003;6.500759e-002
1.872620e+003;6.526332e-002
1.874549e+003;6.533283e-002
1.876477e+003;6.526058e-002
1.878406e+003;6.514512e-002
1.880334e+003;6.523575e-002
1.882263e+003;6.531573e-002
1.884191e+003;6.542246e-002
1.886120e+003;6.533730e-002
1.888048e+003;6.503392e-002
1.889977e+003;6.499328e-002
1.891906e+003;6.519871e-002
1.893834e+003;6.524861e-002
1.895763e+003;6.530187e-002
1.897691e+003;6.529012e-002
1.899620e+003;6.534015e-002
1.901548e+003;6.541699e-002
1.903477e+003;6.550783e-002
1.905405e+003;6.551496e-002
1.907334e+003;6.555522e-002
1.909262e+003;6.577881e-002
1.911191e+003;6.607947e-002
1.913120e+003;6.614112e-002
1.915048e+003;6.608090e-002
1.916977e+003;6.584975e-002
1.918905e+003;6.596158e-002
1.920834e+003;6.620379e-002
1.922762e+003;6.623412e-002
1.924691e+003;6.648339e-002
1.926619e+003;6.672820e-002
1.928548e+003;6.670208e-002
1.930477e+003;6.671163e-002
1.932405e+003;6.692591e-002
1.934334e+003;6.706540e-002
1.936262e+003;6.688880e-002
1.938191e+003;6.686117e-002
1.940119e+003;6.695881e-002
1.942048e+003;6.699410e-002
1.943976e+003;6.721487e-002
1.945905e+003;6.732938e-002
1.947833e+003;6.732741e-002
1.949762e+003;6.743324e-002
1.951691e+003;6.754575e-002
1.953619e+003;6.751223e-002
1.955548e+003;6.763460e-002
1.957476e+003;6.791710e-002
1.959405e+003;6.796212e-002
1.961333e+003;6.775801e-002
1.963262e+003;6.767061e-002
1.965190e+003;6.765474e-002
1.967119e+003;6.780119e-002
1.969047e+003;6.806725e-002
1.970976e+003;6.822293e-002
1.972905e+003;6.829663e-002
1.974833e+003;6.836066e-002
1.976762e+003;6.849103e-002
1.978690e+003;6.845425e-002
1.980619e+003;6.860758e-002
1.982547e+003;6.872866e-002
1.984476e+003;6.862582e-002
1.986404e+003;6.848117e-002
1.988333e+003;6.851012e-002
1.990261e+003;6.857584e-002
1.992190e+003;6.860261e-002
1.994119e+003;6.880720e-002
1.996047e+003;6.895137e-002
1.997976e+003;6.897902e-002
1.999904e+003;6.904451e-002
2.001833e+003;6.912103e-002
2.003761e+003;6.929500e-002
2.005690e+003;6.936648e-002
2.007618e+003;6.941503e-002
2.009547e+003;6.965672e-002
2.011476e+003;6.987289e-002
2.013404e+003;7.018477e-002
2.015333e+003;7.017699e-002
2.017261e+003;6.999831e-002
2.019190e+003;7.009996e-002
2.021118e+003;7.021990e-002
2.023047e+003;7.021878e-002
2.024975e+003;7.061986e-002
2.026904e+003;7.077938e-002
2.028833e+003;7.045791e-002
2.030761e+003;7.043628e-002
2.032690e+003;7.051953e-002
2.034618e+003;7.036190e-002
2.036547e+003;7.031254e-002
2.038475e+003;7.052834e-002
2.040404e+003;7.071004e-002
2.042332e+003;7.081428e-002
2.044261e+003;7.064758e-002
2.046189e+003;7.042771e-002
2.048118e+003;7.044119e-002
2.050047e+003;7.058279e-002
2.051975e+003;7.098222e-002
2.053904e+003;7.106268e-002
2.055832e+003;7.084213e-002
2.057761e+003;7.076561e-002
2.059689e+003;7.094047e-002
2.061618e+003;7.106858e-002
2.063546e+003;7.080138e-002
2.065475e+003;7.060143e-002
2.067404e+003;7.077310e-002
2.069332e+003;7.102444e-002
2.071260e+003;7.104118e-002
2.073189e+003;7.094882e-002
2.075118e+003;7.084119e-002
2.077046e+003;7.075851e-002
2.078975e+003;7.089046e-002
2.080903e+003;7.099357e-002
2.082832e+003;7.106682e-002
2.084760e+003;7.129057e-002
2.086689e+003;7.150497e-002
2.088617e+003;7.148892e-002
2.090546e+003;7.123801e-002
2.092475e+003;7.104028e-002
2.094403e+003;7.114304e-002
2.096332e+003;7.132126e-002
2.098260e+003;7.106163e-002
2.100189e+003;7.078777e-002
2.102117e+003;7.097848e-002
2.104046e+003;7.139670e-002
2.105974e+003;7.170030e-002
2.107903e+003;7.162046e-002
2.109832e+003;7.155392e-002
2.111760e+003;7.168174e-002
2.113688e+003;7.164074e-002
2.115617e+003;7.150626e-002
2.117546e+003;7.149892e-002
2.119474e+003;7.168189e-002
2.121403e+003;7.177820e-002
2.123331e+003;7.179254e-002
2.125260e+003;7.164184e-002
2.127188e+003;7.156342e-002
2.129117e+003;7.168248e-002
2.131045e+003;7.169295e-002
2.132974e+003;7.162578e-002
2.134903e+003;7.156353e-002
2.136831e+003;7.161672e-002
2.138760e+003;7.183445e-002
2.140688e+003;7.169358e-002
2.142617e+003;7.131376e-002
2.144545e+003;7.123544e-002
2.146474e+003;7.120299e-002
2.148402e+003;7.115615e-002
2.150331e+003;7.140022e-002
2.152260e+003;7.161734e-002
2.154188e+003;7.139963e-002
2.156117e+003;7.128381e-002
2.158045e+003;7.144798e-002
2.159974e+003;7.146107e-002
2.161902e+003;7.134574e-002
2.163831e+003;7.128010e-002
2.165759e+003;7.124048e-002
2.167688e+003;7.117970e-002
2.169616e+003;7.125129e-002
2.171545e+003;7.110729e-002
2.173474e+003;7.112052e-002
2.175402e+003;7.116861e-002
2.177331e+003;7.106319e-002
2.179259e+003;7.089628e-002
2.181188e+003;7.072131e-002
2.183116e+003;7.072299e-002
2.185045e+003;7.071067e-002
2.186973e+003;7.075851e-002
2.188902e+003;7.086904e-002
2.190831e+003;7.077618e-002
2.192759e+003;7.054482e-002
2.194688e+003;7.036614e-002
2.196616e+003;7.019950e-002
2.198545e+003;7.035894e-002
2.200473e+003;7.044178e-002
2.202402e+003;7.042393e-002
2.204330e+003;7.030498e-002
2.206259e+003;7.019276e-002
2.208188e+003;7.011048e-002
2.210116e+003;7.012761e-002
2.212044e+003;7.021289e-002
2.213973e+003;7.019521e-002
2.215902e+003;7.016293e-002
2.217830e+003;7.040538e-002
2.219759e+003;7.041474e-002
2.221687e+003;7.011203e-002
2.223616e+003;7.006379e-002
2.225544e+003;7.006196e-002
2.227473e+003;6.998410e-002
2.229401e+003;6.997674e-002
2.231330e+003;6.983834e-002
2.233259e+003;6.963968e-002
2.235187e+003;6.951042e-002
2.237116e+003;6.943506e-002
2.239044e+003;6.959897e-002
2.240973e+003;6.979997e-002
2.242901e+003;6.972597e-002
2.244830e+003;6.975351e-002
2.246758e+003;6.979417e-002
2.248687e+003;6.956672e-002
2.250615e+003;6.948720e-002
2.252544e+003;6.935746e-002
2.254473e+003;6.934075e-002
2.256401e+003;6.941920e-002
2.258330e+003;6.954841e-002
2.260258e+003;6.944054e-002
2.262187e+003;6.917613e-002
2.264115e+003;6.897739e-002
2.266044e+003;6.888252e-002
2.267972e+003;6.913591e-002
2.269901e+003;6.923845e-002
2.271830e+003;6.896178e-002
2.273758e+003;6.884140e-002
2.275687e+003;6.899483e-002
2.277615e+003;6.908052e-002
2.279544e+003;6.877707e-002
2.281472e+003;6.887087e-002
2.283401e+003;6.903270e-002
2.285329e+003;6.911493e-002
2.287258e+003;6.916175e-002
2.289187e+003;6.896111e-002
2.291115e+003;6.866179e-002
2.293043e+003;6.858989e-002
2.294972e+003;6.878953e-002
2.296901e+003;6.878581e-002
2.298829e+003;6.871958e-002
2.300758e+003;6.890632e-002
2.302686e+003;6.875529e-002
2.304615e+003;6.862757e-002
2.306543e+003;6.861507e-002
2.308472e+003;6.862927e-002
2.310400e+003;6.882180e-002
2.312329e+003;6.908374e-002
2.314258e+003;6.937990e-002
2.316186e+003;6.929345e-002
2.318115e+003;6.914353e-002
2.320043e+003;6.922874e-002
2.321972e+003;6.926511e-002
2.323900e+003;6.919245e-002
2.325829e+003;6.894407e-002
2.327757e+003;6.897335e-002
2.329686e+003;6.912585e-002
2.331615e+003;6.910452e-002
2.333543e+003;6.908491e-002
2.335472e+003;6.910662e-002
2.337400e+003;6.936477e-002
2.339329e+003;6.957388e-002
2.341257e+003;6.962556e-002
2.343186e+003;6.945951e-002
2.345114e+003;6.946931e-002
2.347043e+003;6.983873e-002
2.348971e+003;7.011846e-002
2.350900e+003;7.001859e-002
2.352829e+003;6.992707e-002
2.354757e+003;6.993446e-002
2.356686e+003;7.004541e-002
2.358614e+003;7.014284e-002
2.360543e+003;7.011051e-002
2.362471e+003;7.017337e-002
2.364400e+003;7.016753e-002
2.366328e+003;7.009965e-002
2.368257e+003;7.026992e-002
2.370186e+003;7.035286e-002
2.372114e+003;7.034145e-002
2.374042e+003;7.034826e-002
2.375971e+003;7.040955e-002
2.377900e+003;7.040001e-002
2.379828e+003;7.051419e-002
2.381757e+003;7.080235e-002
2.383685e+003;7.099389e-002
2.385614e+003;7.093634e-002
2.387542e+003;7.086546e-002
2.389471e+003;7.107045e-002
2.391399e+003;7.132375e-002
2.393328e+003;7.156205e-002
2.395257e+003;7.167126e-002
2.397185e+003;7.156174e-002
2.399114e+003;7.160222e-002
2.401042e+003;7.172309e-002
2.402971e+003;7.166263e-002
2.404899e+003;7.186655e-002
2.406828e+003;7.206900e-002
2.408756e+003;7.209039e-002
2.410685e+003;7.213057e-002
2.412614e+003;7.217110e-002
2.414542e+003;7.230019e-002
2.416471e+003;7.246593e-002
2.418399e+003;7.256671e-002
2.420328e+003;7.266642e-002
2.422256e+003;7.276346e-002
2.424185e+003;7.288496e-002
2.426113e+003;7.311882e-002
2.428042e+003;7.314827e-002
2.429970e+003;7.313098e-002
2.431899e+003;7.312396e-002
2.433828e+003;7.317094e-002
2.435756e+003;7.354567e-002
2.437685e+003;7.381433e-002
2.439613e+003;7.382203e-002
2.441542e+003;7.379273e-002
2.443470e+003;7.395577e-002
2.445399e+003;7.421093e-002
2.447327e+003;7.440642e-002
2.449256e+003;7.472346e-002
2.451185e+003;7.479986e-002
2.453113e+003;7.476309e-002
2.455042e+003;7.490929e-002
2.456970e+003;7.484744e-002
2.458899e+003;7.502943e-002
2.460827e+003;7.521717e-002
2.462756e+003;7.512235e-002
2.464684e+003;7.537650e-002
2.466613e+003;7.565776e-002
2.468542e+003;7.557830e-002
2.470470e+003;7.545600e-002
2.472398e+003;7.547247e-002
2.474327e+003;7.584049e-002
2.476256e+003;7.616395e-002
2.478184e+003;7.632393e-002
2.480113e+003;7.646710e-002
2.482041e+003;7.671666e-002
2.483970e+003;7.669476e-002
2.485898e+003;7.660116e-002
2.487827e+003;7.677036e-002
2.489755e+003;7.692337e-002
2.491684e+003;7.695023e-002
2.493613e+003;7.690866e-002
2.495541e+003;7.675704e-002
2.497470e+003;7.668140e-002
2.499398e+003;7.688591e-002
2.501327e+003;7.703861e-002
2.503255e+003;7.707580e-002
2.505184e+003;7.733121e-002
2.507112e+003;7.751535e-002
2.509041e+003;7.762370e-002
2.510969e+003;7.769509e-002
2.512898e+003;7.761014e-002
2.514827e+003;7.753393e-002
2.516755e+003;7.757179e-002
2.518684e+003;7.759517e-002
2.520612e+003;7.782223e-002
2.522541e+003;7.811643e-002
2.524469e+003;7.820425e-002
2.526398e+003;7.820481e-002
2.528326e+003;7.817407e-002
2.530255e+003;7.816538e-002
2.532184e+003;7.824869e-002
2.534112e+003;7.816204e-002
2.536041e+003;7.811774e-002
2.537969e+003;7.824937e-002
2.539898e+003;7.831015e-002
2.541826e+003;7.846244e-002
2.543755e+003;7.850642e-002
2.545683e+003;7.836678e-002
2.547612e+003;7.859027e-002
2.549541e+003;7.882111e-002
2.551469e+003;7.904682e-002
2.553397e+003;7.926036e-002
2.555326e+003;7.933577e-002
2.557255e+003;7.934210e-002
2.559183e+003;7.925269e-002
2.561112e+003;7.906538e-002
2.563040e+003;7.920115e-002
2.564969e+003;7.949510e-002
2.566897e+003;7.967506e-002
2.568826e+003;7.974963e-002
2.570754e+003;7.969373e-002
2.572683e+003;7.960350e-002
2.574612e+003;7.957063e-002
2.576540e+003;7.977897e-002
2.578469e+003;8.021206e-002
2.580397e+003;8.014651e-002
2.582326e+003;7.989362e-002
2.584254e+003;8.002048e-002
2.586183e+003;8.014300e-002
2.588111e+003;8.005144e-002
2.590040e+003;8.002430e-002
2.591969e+003;8.032578e-002
2.593897e+003;8.064367e-002
2.595826e+003;8.099069e-002
2.597754e+003;8.127631e-002
2.599683e+003;8.122453e-002
2.601611e+003;8.089508e-002
2.603540e+003;8.105362e-002
2.605468e+003;8.131195e-002
2.607397e+003;8.134104e-002
2.609325e+003;8.144043e-002
2.611254e+003;8.166019e-002
2.613183e+003;8.166727e-002
2.615111e+003;8.175673e-002
2.617040e+003;8.211457e-002
2.618968e+003;8.231369e-002
2.620897e+003;8.227268e-002
2.622825e+003;8.220997e-002
2.624754e+003;8.244915e-002
2.626682e+003;8.269340e-002
2.628611e+003;8.278845e-002
2.630540e+003;8.292233e-002
2.632468e+003;8.281082e-002
2.634396e+003;8.289751e-002
2.636325e+003;8.309699e-002
2.638254e+003;8.344533e-002
2.640182e+003;8.376568e-002
2.642111e+003;8.375917e-002
2.644039e+003;8.370251e-002
2.645968e+003;8.393259e-002
2.647896e+003;8.398111e-002
2.649825e+003;8.402075e-002
2.651753e+003;8.446582e-002
2.653682e+003;8.489870e-002
2.655611e+003;8.495229e-002
2.657539e+003;8.501321e-002
2.659468e+003;8.521576e-002
2.661396e+003;8.528640e-002
2.663325e+003;8.551513e-002
2.665253e+003;8.579712e-002
2.667182e+003;8.568389e-002
2.669110e+003;8.567610e-002
2.671039e+003;8.592112e-002
2.672968e+003;8.621366e-002
2.674896e+003;8.645466e-002
2.676825e+003;8.654620e-002
2.678753e+003;8.654661e-002
2.680682e+003;8.662543e-002
2.682610e+003;8.661848e-002
2.684539e+003;8.668085e-002
2.686467e+003;8.727095e-002
2.688396e+003;8.775853e-002
2.690324e+003;8.776320e-002
2.692253e+003;8.774024e-002
2.694182e+003;8.807676e-002
2.696110e+003;8.835212e-002
2.698039e+003;8.824338e-002
2.699967e+003;8.812805e-002
2.701896e+003;8.830721e-002
2.703824e+003;8.850561e-002
2.705753e+003;8.864912e-002
2.707681e+003;8.896474e-002
2.709610e+003;8.924913e-002
2.711539e+003;8.928979e-002
2.713467e+003;8.923224e-002
2.715396e+003;8.935275e-002
2.717324e+003;8.953184e-002
2.719253e+003;8.972710e-002
2.721181e+003;8.991575e-002
2.723110e+003;9.000298e-002
2.725038e+003;8.988971e-002
2.726967e+003;9.022997e-002
2.728896e+003;9.045766e-002
2.730824e+003;9.035125e-002
2.732752e+003;9.062916e-002
2.734681e+003;9.092976e-002
2.736610e+003;9.095325e-002
2.738538e+003;9.087417e-002
2.740467e+003;9.114690e-002
2.742395e+003;9.142450e-002
2.744324e+003;9.155143e-002
2.746252e+003;9.157041e-002
2.748181e+003;9.173744e-002
2.750109e+003;9.181222e-002
2.752038e+003;9.203918e-002
2.753967e+003;9.231085e-002
2.755895e+003;9.229003e-002
2.757824e+003;9.227028e-002
2.759752e+003;9.254971e-002
2.761681e+003;9.283560e-002
2.763609e+003;9.309257e-002
2.765538e+003;9.343325e-002
2.767466e+003;9.365539e-002
2.769395e+003;9.364490e-002
2.771323e+003;9.380160e-002
2.773252e+003;9.402137e-002
2.775181e+003;9.425911e-002
2.777109e+003;9.468333e-002
2.779038e+003;9.499104e-002
2.780966e+003;9.506473e-002
2.782895e+003;9.523159e-002
2.784823e+003;9.533685e-002
2.786752e+003;9.551913e-002
2.788680e+003;9.576794e-002
2.790609e+003;9.585895e-002
2.792538e+003;9.612722e-002
2.794466e+003;9.668691e-002
2.796395e+003;9.712962e-002
2.798323e+003;9.757743e-002
2.800252e+003;9.804431e-002
2.802180e+003;9.842256e-002
2.804109e+003;9.878289e-002
2.806037e+003;9.894785e-002
2.807966e+003;9.922112e-002
2.809895e+003;9.949456e-002
2.811823e+003;9.976718e-002
2.813751e+003;1.002438e-001
2.815680e+003;1.006537e-001
2.817609e+003;1.010990e-001
2.819537e+003;1.013735e-001
2.821466e+003;1.017773e-001
2.823394e+003;1.023756e-001
2.825323e+003;1.027167e-001
2.827251e+003;1.032528e-001
2.829180e+003;1.037964e-001
2.831108e+003;1.043614e-001
2.833037e+003;1.051276e-001
2.834966e+003;1.059587e-001
2.836894e+003;1.066383e-001
2.838823e+003;1.069591e-001
2.840751e+003;1.073937e-001
2.842680e+003;1.081817e-001
2.844608e+003;1.084468e-001
2.846537e+003;1.080982e-001
2.848465e+003;1.082098e-001
2.850394e+003;1.089010e-001
2.852323e+003;1.100181e-001
2.854251e+003;1.112002e-001
2.856180e+003;1.125703e-001
2.858108e+003;1.143704e-001
2.860037e+003;1.161637e-001
2.861965e+003;1.178942e-001
2.863894e+003;1.194594e-001
2.865822e+003;1.207448e-001
2.867751e+003;1.216943e-001
2.869679e+003;1.228125e-001
2.871608e+003;1.241846e-001
2.873536e+003;1.249353e-001
2.875465e+003;1.256296e-001
2.877394e+003;1.267136e-001
2.879322e+003;1.274996e-001
2.881251e+003;1.276156e-001
2.883179e+003;1.277077e-001
2.885108e+003;1.279316e-001
2.887036e+003;1.281982e-001
2.888965e+003;1.285553e-001
2.890893e+003;1.287754e-001
2.892822e+003;1.289030e-001
2.894750e+003;1.287197e-001
2.896679e+003;1.281767e-001
2.898608e+003;1.277393e-001
2.900536e+003;1.272311e-001
2.902465e+003;1.265970e-001
2.904393e+003;1.257885e-001
2.906322e+003;1.250040e-001
2.908250e+003;1.242234e-001
2.910179e+003;1.232015e-001
2.912107e+003;1.221431e-001
2.914036e+003;1.207944e-001
2.915965e+003;1.193478e-001
2.917893e+003;1.177828e-001
2.919822e+003;1.165275e-001
2.921750e+003;1.157447e-001
2.923679e+003;1.151051e-001
2.925607e+003;1.141465e-001
2.927536e+003;1.131137e-001
2.929464e+003;1.125724e-001
2.931393e+003;1.121005e-001
2.933322e+003;1.116750e-001
2.935250e+003;1.113834e-001
2.937178e+003;1.106930e-001
2.939107e+003;1.101116e-001
2.941036e+003;1.093835e-001
2.942964e+003;1.085418e-001
2.944893e+003;1.078737e-001
2.946821e+003;1.069808e-001
2.948750e+003;1.057392e-001
2.950678e+003;1.044879e-001
2.952607e+003;1.034326e-001
2.954535e+003;1.023999e-001
2.956464e+003;1.010226e-001
2.958393e+003;9.990303e-002
2.960321e+003;9.924336e-002
2.962250e+003;9.855633e-002
2.964178e+003;9.821089e-002
2.966107e+003;9.793415e-002
2.968035e+003;9.771484e-002
2.969964e+003;9.812803e-002
2.971892e+003;9.800054e-002
2.973821e+003;9.734710e-002
2.975750e+003;9.699526e-002
2.977678e+003;9.689809e-002
2.979607e+003;9.650055e-002
2.981535e+003;9.646976e-002
2.983464e+003;9.646976e-002
2.985392e+003;9.589696e-002
2.987321e+003;9.554852e-002
2.989249e+003;9.544577e-002
2.991178e+003;9.533433e-002
2.993106e+003;9.519231e-002
2.995035e+003;9.515654e-002
2.996964e+003;9.520736e-002
2.998892e+003;9.540048e-002
3.000821e+003;9.538860e-002
3.002749e+003;9.519746e-002
3.004678e+003;9.538946e-002
3.006606e+003;9.570520e-002
3.008535e+003;9.583317e-002
3.010463e+003;9.596696e-002
3.012392e+003;9.616812e-002
3.014321e+003;9.679592e-002
3.016249e+003;9.751322e-002
3.018177e+003;9.765563e-002
3.020106e+003;9.772629e-002
3.022035e+003;9.803040e-002
3.023963e+003;9.830803e-002
3.025892e+003;9.857408e-002
3.027820e+003;9.906971e-002
3.029749e+003;9.986320e-002
3.031677e+003;1.002429e-001
3.033606e+003;1.002198e-001
3.035534e+003;1.006386e-001
3.037463e+003;1.014576e-001
3.039392e+003;1.019600e-001
3.041320e+003;1.021413e-001
3.043249e+003;1.026575e-001
3.045177e+003;1.029944e-001
3.047106e+003;1.031495e-001
3.049034e+003;1.036031e-001
3.050963e+003;1.041169e-001
3.052891e+003;1.045952e-001
3.054820e+003;1.051927e-001
3.056749e+003;1.057847e-001
3.058677e+003;1.061825e-001
3.060606e+003;1.067087e-001
3.062534e+003;1.074446e-001
3.064463e+003;1.079936e-001
3.066391e+003;1.083813e-001
3.068320e+003;1.088846e-001
3.070248e+003;1.093132e-001
3.072177e+003;1.098889e-001
3.074105e+003;1.105142e-001
3.076034e+003;1.109214e-001
3.077963e+003;1.115647e-001
3.079891e+003;1.125161e-001
3.081820e+003;1.132949e-001
3.083748e+003;1.134398e-001
3.085677e+003;1.135617e-001
3.087605e+003;1.141624e-001
3.089534e+003;1.148014e-001
3.091462e+003;1.158563e-001
3.093391e+003;1.164241e-001
3.095320e+003;1.165156e-001
3.097248e+003;1.170638e-001
3.099177e+003;1.177559e-001
3.101105e+003;1.182342e-001
3.103034e+003;1.189652e-001
3.104962e+003;1.196780e-001
3.106891e+003;1.205537e-001
3.108819e+003;1.211836e-001
3.110748e+003;1.215635e-001
3.112677e+003;1.223344e-001
3.114605e+003;1.229580e-001
3.116533e+003;1.234792e-001
3.118462e+003;1.239155e-001
3.120391e+003;1.244869e-001
3.122319e+003;1.250536e-001
3.124248e+003;1.259054e-001
3.126176e+003;1.269531e-001
3.128105e+003;1.277519e-001
3.130033e+003;1.284625e-001
3.131962e+003;1.291064e-001
3.133890e+003;1.292215e-001
3.135819e+003;1.297237e-001
3.137748e+003;1.304756e-001
3.139676e+003;1.309591e-001
3.141605e+003;1.314838e-001
3.143533e+003;1.319873e-001
3.145462e+003;1.326383e-001
3.147390e+003;1.333330e-001
3.149319e+003;1.340703e-001
3.151247e+003;1.347902e-001
3.153176e+003;1.352352e-001
3.155104e+003;1.355619e-001
3.157033e+003;1.363975e-001
3.158962e+003;1.374137e-001
3.160890e+003;1.381346e-001
3.162819e+003;1.386880e-001
3.164747e+003;1.388493e-001
3.166676e+003;1.391733e-001
3.168604e+003;1.400450e-001
3.170533e+003;1.407553e-001
3.172461e+003;1.413042e-001
3.174390e+003;1.424137e-001
3.176319e+003;1.430594e-001
3.178247e+003;1.430707e-001
3.180176e+003;1.437386e-001
3.182104e+003;1.447208e-001
3.184033e+003;1.454372e-001
3.185961e+003;1.458064e-001
3.187890e+003;1.460679e-001
3.189818e+003;1.467356e-001
3.191747e+003;1.476660e-001
3.193676e+003;1.483763e-001
3.195604e+003;1.487891e-001
3.197532e+003;1.491915e-001
3.199461e+003;1.497230e-001
3.201390e+003;1.503580e-001
3.203318e+003;1.506553e-001
3.205247e+003;1.507912e-001
3.207175e+003;1.512166e-001
3.209104e+003;1.520347e-001
3.211032e+003;1.528278e-001
3.212961e+003;1.535850e-001
3.214889e+003;1.542242e-001
3.216818e+003;1.544686e-001
3.218747e+003;1.548880e-001
3.220675e+003;1.557723e-001
3.222604e+003;1.567400e-001
3.224532e+003;1.570171e-001
3.226461e+003;1.571445e-001
3.228389e+003;1.579239e-001
3.230318e+003;1.584937e-001
3.232246e+003;1.587783e-001
3.234175e+003;1.588350e-001
3.236104e+003;1.590323e-001
3.238032e+003;1.599456e-001
3.239961e+003;1.608451e-001
3.241889e+003;1.614367e-001
3.243818e+003;1.617084e-001
3.245746e+003;1.619752e-001
3.247675e+003;1.624574e-001
3.249603e+003;1.629379e-001
3.251532e+003;1.633410e-001
3.253460e+003;1.634053e-001
3.255389e+003;1.631598e-001
3.257318e+003;1.630514e-001
3.259246e+003;1.636421e-001
3.261175e+003;1.645910e-001
3.263103e+003;1.655705e-001
3.265032e+003;1.661603e-001
3.266960e+003;1.660730e-001
3.268889e+003;1.664340e-001
3.270817e+003;1.668203e-001
3.272746e+003;1.667373e-001
3.274675e+003;1.668117e-001
3.276603e+003;1.667960e-001
3.278531e+003;1.671847e-001
3.280460e+003;1.676428e-001
3.282389e+003;1.679310e-001
3.284317e+003;1.680881e-001
3.286246e+003;1.683325e-001
3.288174e+003;1.687730e-001
3.290103e+003;1.694713e-001
3.292031e+003;1.699320e-001
3.293960e+003;1.699521e-001
3.295888e+003;1.697956e-001
3.297817e+003;1.699214e-001
3.299746e+003;1.701856e-001
3.301674e+003;1.705271e-001
3.303603e+003;1.706719e-001
3.305531e+003;1.701607e-001
3.307460e+003;1.704185e-001
3.309388e+003;1.715714e-001
3.311317e+003;1.719202e-001
3.313245e+003;1.714316e-001
3.315174e+003;1.709732e-001
3.317103e+003;1.712923e-001
3.319031e+003;1.715470e-001
3.320960e+003;1.716181e-001
3.322888e+003;1.715848e-001
3.324817e+003;1.714510e-001
3.326745e+003;1.716635e-001
3.328674e+003;1.721504e-001
3.330602e+003;1.721592e-001
3.332531e+003;1.716459e-001
3.334459e+003;1.717612e-001
3.336388e+003;1.721642e-001
3.338317e+003;1.719607e-001
3.340245e+003;1.713869e-001
3.342174e+003;1.711530e-001
3.344102e+003;1.711895e-001
3.346031e+003;1.711820e-001
3.347959e+003;1.710021e-001
3.349888e+003;1.707884e-001
3.351816e+003;1.704829e-001
3.353745e+003;1.703497e-001
3.355674e+003;1.702512e-001
3.357602e+003;1.699782e-001
3.359531e+003;1.699385e-001
3.361459e+003;1.696541e-001
3.363388e+003;1.692428e-001
3.365316e+003;1.694107e-001
3.367245e+003;1.695599e-001
3.369173e+003;1.692663e-001
3.371102e+003;1.686292e-001
3.373031e+003;1.682518e-001
3.374959e+003;1.681404e-001
3.376887e+003;1.680429e-001
3.378816e+003;1.677195e-001
3.380745e+003;1.670536e-001
3.382673e+003;1.661362e-001
3.384602e+003;1.662063e-001
3.386530e+003;1.663917e-001
3.388459e+003;1.660955e-001
3.390387e+003;1.659165e-001
3.392316e+003;1.657538e-001
3.394244e+003;1.650171e-001
3.396173e+003;1.642419e-001
3.398102e+003;1.638505e-001
3.400030e+003;1.638195e-001
3.401959e+003;1.638481e-001
3.403887e+003;1.633247e-001
3.405816e+003;1.625590e-001
3.407744e+003;1.620913e-001
3.409673e+003;1.615281e-001
3.411601e+003;1.605909e-001
3.413530e+003;1.602753e-001
3.415458e+003;1.598928e-001
3.417387e+003;1.594232e-001
3.419316e+003;1.585957e-001
3.421244e+003;1.574751e-001
3.423173e+003;1.574167e-001
3.425101e+003;1.571604e-001
3.427030e+003;1.566512e-001
3.428958e+003;1.562626e-001
3.430887e+003;1.552620e-001
3.432815e+003;1.545697e-001
3.434744e+003;1.544280e-001
3.436673e+003;1.534932e-001
3.438601e+003;1.525004e-001
3.440530e+003;1.523301e-001
3.442458e+003;1.517388e-001
3.444387e+003;1.505227e-001
3.446315e+003;1.494120e-001
3.448244e+003;1.485269e-001
3.450172e+003;1.475016e-001
3.452101e+003;1.464016e-001
3.454030e+003;1.452946e-001
3.455958e+003;1.441136e-001
3.457886e+003;1.430190e-001
3.459815e+003;1.421088e-001
3.461744e+003;1.413480e-001
3.463672e+003;1.403437e-001
3.465601e+003;1.394171e-001
3.467529e+003;1.383814e-001
3.469458e+003;1.375654e-001
3.471386e+003;1.368977e-001
3.473315e+003;1.357209e-001
3.475243e+003;1.345006e-001
3.477172e+003;1.332563e-001
3.479101e+003;1.322315e-001
3.481029e+003;1.312856e-001
3.482958e+003;1.300739e-001
3.484886e+003;1.289331e-001
3.486815e+003;1.281257e-001
3.488743e+003;1.272595e-001
3.490672e+003;1.261903e-001
3.492600e+003;1.250588e-001
3.494529e+003;1.236430e-001
3.496458e+003;1.221048e-001
3.498386e+003;1.205551e-001
3.500315e+003;1.190618e-001
3.502243e+003;1.176647e-001
3.504172e+003;1.163860e-001
3.506100e+003;1.154746e-001
3.508029e+003;1.145299e-001
3.509957e+003;1.131652e-001
3.511886e+003;1.121420e-001
3.513814e+003;1.114692e-001
3.515743e+003;1.101372e-001
3.517672e+003;1.088009e-001
3.519600e+003;1.079387e-001
3.521529e+003;1.067296e-001
3.523457e+003;1.052050e-001
3.525386e+003;1.041688e-001
3.527314e+003;1.034136e-001
3.529243e+003;1.022663e-001
3.531171e+003;1.010142e-001
3.533100e+003;9.993690e-002
3.535029e+003;9.904178e-002
3.536957e+003;9.789907e-002
3.538885e+003;9.688483e-002
3.540814e+003;9.619544e-002
3.542743e+003;9.526901e-002
3.544671e+003;9.428048e-002
3.546600e+003;9.364285e-002
3.548528e+003;9.256238e-002
3.550457e+003;9.105536e-002
3.552385e+003;8.996353e-002
3.554314e+003;8.926948e-002
3.556242e+003;8.867509e-002
3.558171e+003;8.806057e-002
3.560100e+003;8.724210e-002
3.562028e+003;8.624155e-002
3.563957e+003;8.480536e-002
3.565885e+003;8.345851e-002
3.567814e+003;8.270197e-002
3.569742e+003;8.246438e-002
3.571671e+003;8.200631e-002
3.573599e+003;8.102579e-002
3.575528e+003;7.999256e-002
3.577457e+003;7.907254e-002
3.579385e+003;7.863510e-002
3.581314e+003;7.802335e-002
3.583242e+003;7.732666e-002
3.585171e+003;7.646221e-002
3.587099e+003;7.552582e-002
3.589028e+003;7.490205e-002
3.590956e+003;7.441239e-002
3.592885e+003;7.386323e-002
3.594813e+003;7.319870e-002
3.596742e+003;7.264496e-002
3.598671e+003;7.236873e-002
3.600599e+003;7.183445e-002
3.602528e+003;7.119628e-002
3.604456e+003;7.075278e-002
3.606385e+003;7.005596e-002
3.608313e+003;6.898683e-002
3.610242e+003;6.868511e-002
3.612170e+003;6.811973e-002
3.614099e+003;6.720176e-002
3.616028e+003;6.662957e-002
3.617956e+003;6.611916e-002
3.619885e+003;6.608707e-002
3.621813e+003;6.645663e-002
3.623742e+003;6.640269e-002
3.625670e+003;6.555002e-002
3.627599e+003;6.321547e-002
3.629527e+003;6.220948e-002
3.631456e+003;6.358121e-002
3.633385e+003;6.394976e-002
3.635313e+003;6.368606e-002
3.637241e+003;6.338605e-002
3.639170e+003;6.321133e-002
3.641099e+003;6.290832e-002
3.643027e+003;6.250144e-002
3.644956e+003;6.195275e-002
3.646884e+003;6.062283e-002
3.648813e+003;5.946046e-002
3.650741e+003;5.977199e-002
3.652670e+003;6.034294e-002
3.654598e+003;5.999414e-002
3.656527e+003;5.968139e-002
3.658456e+003;5.990338e-002
3.660384e+003;5.995161e-002
3.662313e+003;5.973739e-002
3.664241e+003;5.959811e-002
3.666170e+003;5.897595e-002
3.668098e+003;5.732176e-002
3.670027e+003;5.611702e-002
3.671955e+003;5.659937e-002
3.673884e+003;5.582306e-002
3.675813e+003;5.534559e-002
3.677741e+003;5.661636e-002
3.679669e+003;5.680219e-002
3.681598e+003;5.661515e-002
3.683527e+003;5.643283e-002
3.685455e+003;5.587544e-002
3.687384e+003;5.460822e-002
3.689312e+003;5.422514e-002
3.691241e+003;5.470318e-002
3.693169e+003;5.494829e-002
3.695098e+003;5.497995e-002
3.697026e+003;5.486019e-002
3.698955e+003;5.454909e-002
3.700884e+003;5.423059e-002
3.702812e+003;5.421512e-002
3.704741e+003;5.426696e-002
3.706669e+003;5.422120e-002
3.708598e+003;5.354911e-002
3.710526e+003;5.275556e-002
3.712455e+003;5.254747e-002
3.714383e+003;5.340641e-002
3.716312e+003;5.406352e-002
3.718240e+003;5.356741e-002
3.720169e+003;5.312506e-002
3.722098e+003;5.326734e-002
3.724026e+003;5.346797e-002
3.725955e+003;5.291243e-002
3.727883e+003;5.268687e-002
3.729812e+003;5.238985e-002
3.731740e+003;5.179658e-002
3.733669e+003;5.153497e-002
3.735597e+003;5.096791e-002
3.737526e+003;5.148106e-002
3.739455e+003;5.238087e-002
3.741383e+003;5.186128e-002
3.743312e+003;4.907974e-002
3.745240e+003;4.916734e-002
3.747169e+003;5.074840e-002
3.749097e+003;5.006969e-002
3.751026e+003;4.959724e-002
3.752954e+003;5.062972e-002
3.754883e+003;5.186629e-002
3.756812e+003;5.170849e-002
3.758740e+003;5.191460e-002
3.760668e+003;5.236125e-002
3.762597e+003;5.200957e-002
3.764526e+003;5.154284e-002
3.766454e+003;5.186830e-002
3.768383e+003;5.162612e-002
3.770311e+003;5.155187e-002
3.772240e+003;5.212910e-002
3.774168e+003;5.273865e-002
3.776097e+003;5.267348e-002
3.778025e+003;5.211551e-002
3.779954e+003;5.201831e-002
3.781883e+003;5.220066e-002
3.783811e+003;5.230978e-002
3.785740e+003;5.280491e-002
3.787668e+003;5.257642e-002
3.789597e+003;5.223219e-002
3.791525e+003;5.222065e-002
3.793454e+003;5.190202e-002
3.795382e+003;5.127519e-002
3.797311e+003;5.135981e-002
3.799240e+003;5.116272e-002
3.801168e+003;5.053576e-002
3.803097e+003;5.130223e-002
3.805025e+003;5.169151e-002
3.806954e+003;5.114598e-002
3.808882e+003;5.212754e-002
3.810811e+003;5.294794e-002
3.812739e+003;5.261887e-002
3.814668e+003;5.112473e-002
3.816596e+003;5.061844e-002
3.818525e+003;5.104658e-002
3.820454e+003;5.039505e-002
3.822382e+003;5.091426e-002
3.824311e+003;5.234203e-002
3.826239e+003;5.267602e-002
3.828168e+003;5.254029e-002
3.830096e+003;5.217876e-002
3.832025e+003;5.197480e-002
3.833953e+003;5.209563e-002
3.835882e+003;5.139636e-002
3.837811e+003;5.055151e-002
3.839739e+003;5.136267e-002
3.841667e+003;5.210676e-002
3.843596e+003;5.207513e-002
3.845525e+003;5.252074e-002
3.847453e+003;5.285198e-002
3.849382e+003;5.179587e-002
3.851310e+003;4.960845e-002
3.853239e+003;4.848590e-002
3.855167e+003;5.029656e-002
3.857096e+003;5.244416e-002
3.859024e+003;5.341903e-002
3.860953e+003;5.321730e-002
3.862882e+003;5.263188e-002
3.864810e+003;5.240936e-002
3.866739e+003;5.259033e-002
3.868667e+003;5.167031e-002
3.870596e+003;5.173226e-002
3.872524e+003;5.242536e-002
3.874453e+003;5.257148e-002
3.876381e+003;5.358810e-002
3.878310e+003;5.376687e-002
3.880239e+003;5.321494e-002
3.882167e+003;5.341030e-002
3.884096e+003;5.297658e-002
3.886024e+003;5.307500e-002
3.887953e+003;5.388632e-002
3.889881e+003;5.327292e-002
3.891810e+003;5.295610e-002
3.893738e+003;5.402161e-002
3.895667e+003;5.438359e-002
3.897595e+003;5.381562e-002
3.899524e+003;5.328172e-002
3.901453e+003;5.310803e-002
3.903381e+003;5.344032e-002
3.905310e+003;5.421895e-002
3.907238e+003;5.461777e-002
3.909167e+003;5.455671e-002
3.911095e+003;5.463013e-002
3.913024e+003;5.453218e-002
3.914952e+003;5.452279e-002
3.916881e+003;5.466365e-002
3.918810e+003;5.480940e-002
3.920738e+003;5.453770e-002
3.922667e+003;5.461980e-002
3.924595e+003;5.530148e-002
3.926524e+003;5.571829e-002
3.928452e+003;5.554673e-002
3.930381e+003;5.534228e-002
3.932309e+003;5.539407e-002
3.934238e+003;5.576266e-002
3.936167e+003;5.588584e-002
3.938095e+003;5.606789e-002
3.940023e+003;5.556711e-002
3.941952e+003;5.517919e-002
3.943881e+003;5.557208e-002
3.945809e+003;5.564917e-002
3.947738e+003;5.518325e-002
3.949666e+003;5.549508e-002
3.951595e+003;5.652608e-002
3.953523e+003;5.678036e-002
3.955452e+003;5.679989e-002
3.957380e+003;5.734777e-002
3.959309e+003;5.719095e-002
3.961238e+003;5.627363e-002
3.963166e+003;5.626002e-002
3.965095e+003;5.674713e-002
3.967023e+003;5.663474e-002
3.968952e+003;5.615420e-002
3.970880e+003;5.574925e-002
3.972809e+003;5.582713e-002
3.974737e+003;5.584525e-002
3.976666e+003;5.595198e-002
3.978594e+003;5.623810e-002
3.980523e+003;5.613455e-002
3.982452e+003;5.617950e-002
3.984380e+003;5.642793e-002
3.986309e+003;5.625217e-002
3.988237e+003;5.639359e-002
3.990166e+003;5.690934e-002
3.992094e+003;5.649954e-002
3.994023e+003;5.602382e-002
3.995951e+003;5.596313e-002
3.997880e+003;5.613323e-002
3.999809e+003;5.634292e-002
4.001737e+003;0.000000e+000
