3.992094e+002;0.000000e+000
4.011380e+002;0.000000e+000
4.030665e+002;0.000000e+000
4.049951e+002;0.000000e+000
4.069236e+002;0.000000e+000
4.088522e+002;0.000000e+000
4.107807e+002;0.000000e+000
4.127093e+002;0.000000e+000
4.146378e+002;0.000000e+000
4.165664e+002;0.000000e+000
4.184949e+002;0.000000e+000
4.204235e+002;0.000000e+000
4.223520e+002;0.000000e+000
4.242806e+002;0.000000e+000
4.262091e+002;0.000000e+000
4.281377e+002;0.000000e+000
4.300662e+002;0.000000e+000
4.319948e+002;0.000000e+000
4.339233e+002;0.000000e+000
4.358519e+002;0.000000e+000
4.377804e+002;0.000000e+000
4.397090e+002;0.000000e+000
4.416375e+002;0.000000e+000
4.435660e+002;0.000000e+000
4.454946e+002;0.000000e+000
4.474232e+002;0.000000e+000
4.493517e+002;0.000000e+000
4.512802e+002;0.000000e+000
4.532088e+002;0.000000e+000
4.551373e+002;0.000000e+000
4.570659e+002;0.000000e+000
4.589944e+002;0.000000e+000
4.609230e+002;0.000000e+000
4.628515e+002;0.000000e+000
4.647801e+002;0.000000e+000
4.667086e+002;0.000000e+000
4.686372e+002;0.000000e+000
4.705657e+002;0.000000e+000
4.724943e+002;0.000000e+000
4.744228e+002;0.000000e+000
4.763513e+002;0.000000e+000
4.782799e+002;0.000000e+000
4.802085e+002;0.000000e+000
4.821370e+002;0.000000e+000
4.840656e+002;0.000000e+000
4.859941e+002;0.000000e+000
4.879226e+002;0.000000e+000
4.898512e+002;0.000000e+000
4.917798e+002;0.000000e+000
4.937083e+002;0.000000e+000
4.956368e+002;0.000000e+000
4.975654e+002;0.000000e+000
4.994939e+002;0.000000e+000
5.014225e+002;0.000000e+000
5.033510e+002;0.000000e+000
5.052796e+002;0.000000e+000
5.072081e+002;0.000000e+000
5.091367e+002;0.000000e+000
5.110652e+002;0.000000e+000
5.129938e+002;0.000000e+000
5.149223e+002;0.000000e+000
5.168509e+002;0.000000e+000
5.187794e+002;0.000000e+000
5.207079e+002;0.000000e+000
5.226365e+002;0.000000e+000
5.245651e+002;0.000000e+000
5.264936e+002;0.000000e+000
5.284222e+002;0.000000e+000
5.303507e+002;0.000000e+000
5.322792e+002;0.000000e+000
5.342078e+002;0.000000e+000
5.361364e+002;0.000000e+000
5.380649e+002;0.000000e+000
5.399935e+002;0.000000e+000
5.419220e+002;0.000000e+000
5.438505e+002;0.000000e+000
5.457791e+002;0.000000e+000
5.477076e+002;0.000000e+000
5.496362e+002;0.000000e+000
5.515648e+002;0.000000e+000
5.534933e+002;0.000000e+000
5.554218e+002;0.000000e+000
5.573504e+002;0.000000e+000
5.592789e+002;0.000000e+000
5.612075e+002;0.000000e+000
5.631360e+002;0.000000e+000
5.650646e+002;0.000000e+000
5.669931e+002;0.000000e+000
5.689217e+002;0.000000e+000
5.708502e+002;0.000000e+000
5.727787e+002;0.000000e+000
5.747073e+002;0.000000e+000
5.766359e+002;0.000000e+000
5.785644e+002;0.000000e+000
5.804930e+002;0.000000e+000
5.824215e+002;0.000000e+000
5.843500e+002;0.000000e+000
5.862786e+002;0.000000e+000
5.882072e+002;0.000000e+000
5.901357e+002;0.000000e+000
5.920643e+002;0.000000e+000
5.939928e+002;0.000000e+000
5.959213e+002;0.000000e+000
5.978499e+002;0.000000e+000
5.997784e+002;3.039217e-001
6.017070e+002;2.952605e-001
6.036355e+002;2.927794e-001
6.055641e+002;2.926160e-001
6.074926e+002;2.920814e-001
6.094211e+002;2.994475e-001
6.113497e+002;3.006298e-001
6.132783e+002;2.939462e-001
6.152068e+002;2.915894e-001
6.171354e+002;2.858679e-001
6.190639e+002;2.797367e-001
6.209924e+002;2.763394e-001
6.229210e+002;2.754177e-001
6.248495e+002;2.764708e-001
6.267781e+002;2.769449e-001
6.287067e+002;2.748876e-001
6.306352e+002;2.710380e-001
6.325637e+002;2.694742e-001
6.344923e+002;2.648788e-001
6.364208e+002;2.622306e-001
6.383494e+002;2.622772e-001
6.402780e+002;2.619371e-001
6.422065e+002;2.600349e-001
6.441350e+002;2.582583e-001
6.460636e+002;2.572749e-001
6.479921e+002;2.569913e-001
6.499207e+002;2.598463e-001
6.518492e+002;2.613561e-001
6.537778e+002;2.609134e-001
6.557063e+002;2.631426e-001
6.576349e+002;2.644667e-001
6.595634e+002;2.674316e-001
6.614919e+002;2.704597e-001
6.634205e+002;2.699089e-001
6.653491e+002;2.703344e-001
6.672776e+002;2.709654e-001
6.692062e+002;2.684077e-001
6.711347e+002;2.607045e-001
6.730632e+002;2.520877e-001
6.749918e+002;2.443419e-001
6.769203e+002;2.351218e-001
6.788489e+002;2.257040e-001
6.807775e+002;2.187969e-001
6.827060e+002;2.153538e-001
6.846345e+002;2.122870e-001
6.865631e+002;2.088641e-001
6.884916e+002;2.060285e-001
6.904202e+002;2.047606e-001
6.923488e+002;2.042063e-001
6.942773e+002;2.043218e-001
6.962058e+002;2.041630e-001
6.981344e+002;2.035737e-001
7.000629e+002;2.029019e-001
7.019915e+002;2.024816e-001
7.039200e+002;2.022281e-001
7.058486e+002;2.004893e-001
7.077771e+002;1.987733e-001
7.097057e+002;1.984384e-001
7.116342e+002;1.978057e-001
7.135627e+002;1.962655e-001
7.154913e+002;1.952342e-001
7.174199e+002;1.941238e-001
7.193484e+002;1.922981e-001
7.212770e+002;1.890208e-001
7.232055e+002;1.872820e-001
7.251340e+002;1.868303e-001
7.270626e+002;1.856350e-001
7.289911e+002;1.833674e-001
7.309197e+002;1.811983e-001
7.328483e+002;1.797136e-001
7.347768e+002;1.787909e-001
7.367053e+002;1.772761e-001
7.386339e+002;1.757488e-001
7.405624e+002;1.746748e-001
7.424910e+002;1.734169e-001
7.444196e+002;1.727186e-001
7.463481e+002;1.715270e-001
7.482766e+002;1.692282e-001
7.502052e+002;1.681048e-001
7.521337e+002;1.662733e-001
7.540623e+002;1.642155e-001
7.559908e+002;1.631331e-001
7.579194e+002;1.624089e-001
7.598479e+002;1.617702e-001
7.617765e+002;1.605680e-001
7.637050e+002;1.598253e-001
7.656335e+002;1.582268e-001
7.675621e+002;1.563519e-001
7.694907e+002;1.546147e-001
7.714192e+002;1.537095e-001
7.733478e+002;1.530170e-001
7.752763e+002;1.511142e-001
7.772048e+002;1.497617e-001
7.791334e+002;1.492482e-001
7.810620e+002;1.485776e-001
7.829905e+002;1.471967e-001
7.849191e+002;1.463051e-001
7.868476e+002;1.450722e-001
7.887761e+002;1.434848e-001
7.907047e+002;1.424529e-001
7.926332e+002;1.416543e-001
7.945618e+002;1.406653e-001
7.964903e+002;1.397931e-001
7.984189e+002;1.391883e-001
8.003474e+002;1.387488e-001
8.022759e+002;1.380942e-001
8.042045e+002;1.380118e-001
8.061331e+002;1.376377e-001
8.080616e+002;1.366296e-001
8.099902e+002;1.364447e-001
8.119187e+002;1.359319e-001
8.138472e+002;1.349486e-001
8.157758e+002;1.347793e-001
8.177043e+002;1.346988e-001
8.196329e+002;1.342903e-001
8.215615e+002;1.339994e-001
8.234900e+002;1.340444e-001
8.254185e+002;1.346582e-001
8.273471e+002;1.347508e-001
8.292756e+002;1.341912e-001
8.312042e+002;1.338154e-001
8.331328e+002;1.333974e-001
8.350613e+002;1.324102e-001
8.369898e+002;1.312603e-001
8.389184e+002;1.308286e-001
8.408469e+002;1.308500e-001
8.427755e+002;1.303536e-001
8.447040e+002;1.296402e-001
8.466326e+002;1.293464e-001
8.485611e+002;1.295449e-001
8.504897e+002;1.291824e-001
8.524182e+002;1.282676e-001
8.543467e+002;1.283377e-001
8.562753e+002;1.289213e-001
8.582039e+002;1.296828e-001
8.601324e+002;1.303548e-001
8.620610e+002;1.313178e-001
8.639895e+002;1.324831e-001
8.659180e+002;1.334870e-001
8.678466e+002;1.350133e-001
8.697751e+002;1.370756e-001
8.717037e+002;1.394793e-001
8.736323e+002;1.428900e-001
8.755608e+002;1.469254e-001
8.774893e+002;1.516763e-001
8.794179e+002;1.576248e-001
8.813464e+002;1.638228e-001
8.832750e+002;1.698346e-001
8.852036e+002;1.760932e-001
8.871321e+002;1.830357e-001
8.890606e+002;1.896907e-001
8.909892e+002;1.951520e-001
8.929177e+002;1.989003e-001
8.948463e+002;1.998708e-001
8.967748e+002;1.986770e-001
8.987034e+002;1.964827e-001
9.006319e+002;1.931814e-001
9.025605e+002;1.888640e-001
9.044890e+002;1.843894e-001
9.064175e+002;1.800894e-001
9.083461e+002;1.762207e-001
9.102747e+002;1.726713e-001
9.122032e+002;1.701426e-001
9.141318e+002;1.683789e-001
9.160603e+002;1.671756e-001
9.179888e+002;1.667526e-001
9.199174e+002;1.671680e-001
9.218459e+002;1.684856e-001
9.237745e+002;1.701496e-001
9.257031e+002;1.718090e-001
9.276316e+002;1.737783e-001
9.295601e+002;1.763399e-001
9.314887e+002;1.784129e-001
9.334172e+002;1.801111e-001
9.353458e+002;1.819836e-001
9.372744e+002;1.839047e-001
9.392029e+002;1.862040e-001
9.411314e+002;1.893672e-001
9.430600e+002;1.933537e-001
9.449885e+002;1.975264e-001
9.469171e+002;2.019512e-001
9.488456e+002;2.073803e-001
9.507742e+002;2.134027e-001
9.527027e+002;2.197514e-001
9.546313e+002;2.262074e-001
9.565598e+002;2.327573e-001
9.584883e+002;2.398950e-001
9.604169e+002;2.472081e-001
9.623455e+002;2.544923e-001
9.642740e+002;2.618897e-001
9.662026e+002;2.695789e-001
9.681311e+002;2.775541e-001
9.700596e+002;2.866482e-001
9.719882e+002;2.966269e-001
9.739167e+002;3.082402e-001
9.758453e+002;3.224202e-001
9.777739e+002;3.386988e-001
9.797024e+002;3.572144e-001
9.816309e+002;3.781637e-001
9.835595e+002;4.005434e-001
9.854880e+002;4.230721e-001
9.874166e+002;4.451215e-001
9.893452e+002;4.653622e-001
9.912737e+002;4.812737e-001
9.932022e+002;4.924883e-001
9.951307e+002;5.000724e-001
9.970593e+002;5.050315e-001
9.989879e+002;5.067641e-001
1.000916e+003;5.068123e-001
1.002845e+003;5.089957e-001
1.004773e+003;5.142469e-001
1.006702e+003;5.216802e-001
1.008631e+003;5.315014e-001
1.010559e+003;5.439569e-001
1.012488e+003;5.565540e-001
1.014416e+003;5.678372e-001
1.016345e+003;5.773737e-001
1.018273e+003;5.836095e-001
1.020202e+003;5.862710e-001
1.022130e+003;5.857028e-001
1.024059e+003;5.824572e-001
1.025988e+003;5.777841e-001
1.027916e+003;5.712889e-001
1.029845e+003;5.633496e-001
1.031773e+003;5.550439e-001
1.033702e+003;5.474769e-001
1.035630e+003;5.403579e-001
1.037559e+003;5.344330e-001
1.039487e+003;5.299447e-001
1.041416e+003;5.263485e-001
1.043344e+003;5.221628e-001
1.045273e+003;5.173356e-001
1.047202e+003;5.134044e-001
1.049130e+003;5.090742e-001
1.051059e+003;5.040588e-001
1.052987e+003;4.992768e-001
1.054916e+003;4.943265e-001
1.056844e+003;4.881300e-001
1.058773e+003;4.805451e-001
1.060701e+003;4.720087e-001
1.062630e+003;4.623993e-001
1.064558e+003;4.531612e-001
1.066487e+003;4.429425e-001
1.068416e+003;4.323054e-001
1.070344e+003;4.221817e-001
1.072273e+003;4.131680e-001
1.074201e+003;4.037348e-001
1.076130e+003;3.934090e-001
1.078058e+003;3.833845e-001
1.079987e+003;3.753071e-001
1.081915e+003;3.682469e-001
1.083844e+003;3.610078e-001
1.085773e+003;3.533752e-001
1.087701e+003;3.463835e-001
1.089630e+003;3.399675e-001
1.091558e+003;3.339399e-001
1.093487e+003;3.273806e-001
1.095415e+003;3.195211e-001
1.097344e+003;3.120315e-001
1.099272e+003;3.048215e-001
1.101201e+003;2.970468e-001
1.103129e+003;2.898415e-001
1.105058e+003;2.836216e-001
1.106987e+003;2.781774e-001
1.108915e+003;2.731115e-001
1.110844e+003;2.685604e-001
1.112772e+003;2.640962e-001
1.114701e+003;2.589153e-001
1.116629e+003;2.530199e-001
1.118558e+003;2.468760e-001
1.120486e+003;2.403529e-001
1.122415e+003;2.331795e-001
1.124344e+003;2.253989e-001
1.126272e+003;2.179654e-001
1.128201e+003;2.112307e-001
1.130129e+003;2.050754e-001
1.132058e+003;1.993062e-001
1.133986e+003;1.935937e-001
1.135915e+003;1.881366e-001
1.137843e+003;1.842046e-001
1.139772e+003;1.816917e-001
1.141700e+003;1.798212e-001
1.143629e+003;1.793634e-001
1.145557e+003;1.799524e-001
1.147486e+003;1.806582e-001
1.149415e+003;1.817411e-001
1.151343e+003;1.832825e-001
1.153272e+003;1.848776e-001
1.155200e+003;1.856622e-001
1.157129e+003;1.852233e-001
1.159057e+003;1.825031e-001
1.160986e+003;1.779991e-001
1.162914e+003;1.721780e-001
1.164843e+003;1.644951e-001
1.166771e+003;1.564101e-001
1.168700e+003;1.485761e-001
1.170629e+003;1.410653e-001
1.172557e+003;1.338317e-001
1.174486e+003;1.273594e-001
1.176414e+003;1.221491e-001
1.178343e+003;1.179201e-001
1.180271e+003;1.141513e-001
1.182200e+003;1.114477e-001
1.184128e+003;1.103041e-001
1.186057e+003;1.102752e-001
1.187986e+003;1.110124e-001
1.189914e+003;1.132793e-001
1.191843e+003;1.168656e-001
1.193771e+003;1.205309e-001
1.195700e+003;1.233149e-001
1.197628e+003;1.250954e-001
1.199557e+003;1.257878e-001
1.201485e+003;1.249671e-001
1.203414e+003;1.231644e-001
1.205343e+003;1.207151e-001
1.207271e+003;1.181192e-001
1.209200e+003;1.160607e-001
1.211128e+003;1.149324e-001
1.213057e+003;1.149923e-001
1.214985e+003;1.155259e-001
1.216914e+003;1.166951e-001
1.218842e+003;1.186693e-001
1.220771e+003;1.211432e-001
1.222699e+003;1.237184e-001
1.224628e+003;1.263161e-001
1.226557e+003;1.286291e-001
1.228485e+003;1.297255e-001
1.230414e+003;1.300849e-001
1.232342e+003;1.305190e-001
1.234271e+003;1.309838e-001
1.236199e+003;1.312554e-001
1.238128e+003;1.311530e-001
1.240056e+003;1.308627e-001
1.241985e+003;1.306384e-001
1.243913e+003;1.307169e-001
1.245842e+003;1.309448e-001
1.247771e+003;1.313106e-001
1.249699e+003;1.319304e-001
1.251628e+003;1.330720e-001
1.253556e+003;1.345522e-001
1.255485e+003;1.359838e-001
1.257413e+003;1.372423e-001
1.259342e+003;1.378609e-001
1.261270e+003;1.377533e-001
1.263199e+003;1.373917e-001
1.265127e+003;1.366895e-001
1.267056e+003;1.358030e-001
1.268985e+003;1.345465e-001
1.270913e+003;1.332758e-001
1.272842e+003;1.324461e-001
1.274770e+003;1.317657e-001
1.276699e+003;1.311932e-001
1.278627e+003;1.303408e-001
1.280556e+003;1.290582e-001
1.282484e+003;1.281559e-001
1.284413e+003;1.280022e-001
1.286342e+003;1.283847e-001
1.288270e+003;1.296703e-001
1.290199e+003;1.314946e-001
1.292127e+003;1.335712e-001
1.294056e+003;1.356182e-001
1.295984e+003;1.375527e-001
1.297913e+003;1.394234e-001
1.299841e+003;1.411518e-001
1.301770e+003;1.431498e-001
1.303698e+003;1.454386e-001
1.305627e+003;1.476899e-001
1.307556e+003;1.501526e-001
1.309484e+003;1.524026e-001
1.311413e+003;1.540323e-001
1.313341e+003;1.549260e-001
1.315270e+003;1.553137e-001
1.317198e+003;1.551486e-001
1.319127e+003;1.542362e-001
1.321055e+003;1.532344e-001
1.322984e+003;1.526971e-001
1.324912e+003;1.524537e-001
1.326841e+003;1.524303e-001
1.328770e+003;1.526781e-001
1.330698e+003;1.530105e-001
1.332627e+003;1.532339e-001
1.334555e+003;1.533614e-001
1.336484e+003;1.533803e-001
1.338412e+003;1.532501e-001
1.340341e+003;1.526395e-001
1.342269e+003;1.521052e-001
1.344198e+003;1.518939e-001
1.346126e+003;1.517756e-001
1.348055e+003;1.516709e-001
1.349984e+003;1.518335e-001
1.351912e+003;1.524502e-001
1.353841e+003;1.534207e-001
1.355769e+003;1.545579e-001
1.357698e+003;1.555595e-001
1.359626e+003;1.566419e-001
1.361555e+003;1.577204e-001
1.363483e+003;1.581369e-001
1.365412e+003;1.577693e-001
1.367341e+003;1.572522e-001
1.369269e+003;1.566849e-001
1.371198e+003;1.556164e-001
1.373126e+003;1.537104e-001
1.375055e+003;1.517717e-001
1.376983e+003;1.498589e-001
1.378912e+003;1.473563e-001
1.380840e+003;1.443643e-001
1.382769e+003;1.415391e-001
1.384698e+003;1.390168e-001
1.386626e+003;1.369266e-001
1.388555e+003;1.352907e-001
1.390483e+003;1.340931e-001
1.392412e+003;1.333309e-001
1.394340e+003;1.325602e-001
1.396269e+003;1.321751e-001
1.398197e+003;1.323418e-001
1.400126e+003;1.321688e-001
1.402054e+003;1.316672e-001
1.403983e+003;1.315484e-001
1.405911e+003;1.317734e-001
1.407840e+003;1.319056e-001
1.409769e+003;1.319015e-001
1.411697e+003;1.320610e-001
1.413626e+003;1.324379e-001
1.415554e+003;1.324006e-001
1.417483e+003;1.319997e-001
1.419411e+003;1.316339e-001
1.421340e+003;1.312315e-001
1.423268e+003;1.309031e-001
1.425197e+003;1.305086e-001
1.427125e+003;1.298543e-001
1.429054e+003;1.289326e-001
1.430983e+003;1.282005e-001
1.432911e+003;1.275312e-001
1.434840e+003;1.265497e-001
1.436768e+003;1.254803e-001
1.438697e+003;1.246767e-001
1.440625e+003;1.238989e-001
1.442554e+003;1.226515e-001
1.444482e+003;1.213617e-001
1.446411e+003;1.204171e-001
1.448340e+003;1.190931e-001
1.450268e+003;1.177646e-001
1.452197e+003;1.166550e-001
1.454125e+003;1.154423e-001
1.456054e+003;1.141841e-001
1.457982e+003;1.127222e-001
1.459911e+003;1.113547e-001
1.461839e+003;1.100589e-001
1.463768e+003;1.085443e-001
1.465697e+003;1.066065e-001
1.467625e+003;1.046038e-001
1.469554e+003;1.026956e-001
1.471482e+003;1.005640e-001
1.473411e+003;9.800590e-002
1.475339e+003;9.541415e-002
1.477268e+003;9.288710e-002
1.479196e+003;9.063663e-002
1.481125e+003;8.847531e-002
1.483053e+003;8.616619e-002
1.484982e+003;8.422034e-002
1.486911e+003;8.246454e-002
1.488839e+003;8.050673e-002
1.490768e+003;7.877149e-002
1.492696e+003;7.756150e-002
1.494625e+003;7.648374e-002
1.496553e+003;7.501573e-002
1.498482e+003;7.384233e-002
1.500410e+003;7.293791e-002
1.502339e+003;7.216641e-002
1.504267e+003;7.139401e-002
1.506196e+003;7.049193e-002
1.508125e+003;6.980678e-002
1.510053e+003;6.929313e-002
1.511982e+003;6.871085e-002
1.513910e+003;6.807741e-002
1.515839e+003;6.739163e-002
1.517767e+003;6.700102e-002
1.519696e+003;6.674057e-002
1.521624e+003;6.634146e-002
1.523553e+003;6.610014e-002
1.525481e+003;6.597829e-002
1.527410e+003;6.575618e-002
1.529339e+003;6.566895e-002
1.531267e+003;6.554193e-002
1.533196e+003;6.525704e-002
1.535124e+003;6.525023e-002
1.537053e+003;6.519101e-002
1.538981e+003;6.482075e-002
1.540910e+003;6.488215e-002
1.542838e+003;6.531769e-002
1.544767e+003;6.535155e-002
1.546695e+003;6.539126e-002
1.548624e+003;6.570502e-002
1.550553e+003;6.590339e-002
1.552481e+003;6.601366e-002
1.554410e+003;6.607056e-002
1.556338e+003;6.614286e-002
1.558267e+003;6.641014e-002
1.560195e+003;6.638554e-002
1.562124e+003;6.648377e-002
1.564052e+003;6.708624e-002
1.565981e+003;6.762578e-002
1.567910e+003;6.786565e-002
1.569838e+003;6.785701e-002
1.571767e+003;6.808973e-002
1.573695e+003;6.849658e-002
1.575624e+003;6.865508e-002
1.577552e+003;6.901173e-002
1.579481e+003;6.988192e-002
1.581409e+003;7.084771e-002
1.583338e+003;7.153475e-002
1.585266e+003;7.186330e-002
1.587195e+003;7.233283e-002
1.589124e+003;7.290976e-002
1.591052e+003;7.331186e-002
1.592981e+003;7.386260e-002
1.594909e+003;7.471913e-002
1.596838e+003;7.566818e-002
1.598766e+003;7.633097e-002
1.600695e+003;7.692154e-002
1.602623e+003;7.771000e-002
1.604552e+003;7.856653e-002
1.606480e+003;7.929890e-002
1.608409e+003;8.012399e-002
1.610338e+003;8.086686e-002
1.612266e+003;8.136337e-002
1.614195e+003;8.203048e-002
1.616123e+003;8.279178e-002
1.618052e+003;8.342012e-002
1.619980e+003;8.416926e-002
1.621909e+003;8.486462e-002
1.623837e+003;8.541082e-002
1.625766e+003;8.612113e-002
1.627694e+003;8.677496e-002
1.629623e+003;8.713558e-002
1.631552e+003;8.746697e-002
1.633480e+003;8.778108e-002
1.635409e+003;8.791599e-002
1.637337e+003;8.807314e-002
1.639266e+003;8.824566e-002
1.641194e+003;8.835431e-002
1.643123e+003;8.863229e-002
1.645051e+003;8.871796e-002
1.646980e+003;8.851532e-002
1.648909e+003;8.820660e-002
1.650837e+003;8.770148e-002
1.652766e+003;8.717058e-002
1.654694e+003;8.693623e-002
1.656623e+003;8.678281e-002
1.658551e+003;8.640315e-002
1.660480e+003;8.562049e-002
1.662408e+003;8.477012e-002
1.664337e+003;8.423193e-002
1.666266e+003;8.360317e-002
1.668194e+003;8.252023e-002
1.670123e+003;8.134383e-002
1.672051e+003;8.045585e-002
1.673980e+003;7.955933e-002
1.675908e+003;7.827491e-002
1.677837e+003;7.711367e-002
1.679765e+003;7.598855e-002
1.681694e+003;7.489295e-002
1.683622e+003;7.379690e-002
1.685551e+003;7.263536e-002
1.687479e+003;7.171300e-002
1.689408e+003;7.089783e-002
1.691337e+003;7.034756e-002
1.693265e+003;6.994470e-002
1.695194e+003;6.916233e-002
1.697122e+003;6.864344e-002
1.699051e+003;6.843672e-002
1.700979e+003;6.805155e-002
1.702908e+003;6.780829e-002
1.704836e+003;6.750607e-002
1.706765e+003;6.721580e-002
1.708693e+003;6.689731e-002
1.710622e+003;6.653100e-002
1.712551e+003;6.625365e-002
1.714479e+003;6.574696e-002
1.716408e+003;6.509127e-002
1.718336e+003;6.464914e-002
1.720265e+003;6.440558e-002
1.722193e+003;6.394419e-002
1.724122e+003;6.312415e-002
1.726050e+003;6.217216e-002
1.727979e+003;6.126601e-002
1.729908e+003;6.019806e-002
1.731836e+003;5.929073e-002
1.733765e+003;5.855514e-002
1.735693e+003;5.757417e-002
1.737622e+003;5.653347e-002
1.739550e+003;5.538699e-002
1.741479e+003;5.432411e-002
1.743407e+003;5.326659e-002
1.745336e+003;5.232170e-002
1.747265e+003;5.165486e-002
1.749193e+003;5.113808e-002
1.751122e+003;5.055873e-002
1.753050e+003;5.030106e-002
1.754979e+003;5.019944e-002
1.756907e+003;4.996087e-002
1.758836e+003;4.980320e-002
1.760764e+003;4.953454e-002
1.762693e+003;4.924657e-002
1.764621e+003;4.923373e-002
1.766550e+003;4.919205e-002
1.768479e+003;4.907358e-002
1.770407e+003;4.901312e-002
1.772336e+003;4.883029e-002
1.774264e+003;4.862382e-002
1.776193e+003;4.862949e-002
1.778121e+003;4.870217e-002
1.780050e+003;4.838841e-002
1.781978e+003;4.804674e-002
1.783907e+003;4.799708e-002
1.785835e+003;4.789447e-002
1.787764e+003;4.762241e-002
1.789693e+003;4.739216e-002
1.791621e+003;4.713828e-002
1.793550e+003;4.705980e-002
1.795478e+003;4.714393e-002
1.797407e+003;4.683554e-002
1.799335e+003;4.640269e-002
1.801264e+003;4.631284e-002
1.803192e+003;4.648145e-002
1.805121e+003;4.641858e-002
1.807049e+003;4.622766e-002
1.808978e+003;4.603823e-002
1.810907e+003;4.577667e-002
1.812835e+003;4.566738e-002
1.814764e+003;4.570297e-002
1.816692e+003;4.554331e-002
1.818621e+003;4.538868e-002
1.820549e+003;4.529949e-002
1.822478e+003;4.512494e-002
1.824406e+003;4.498270e-002
1.826335e+003;4.497663e-002
1.828264e+003;4.489851e-002
1.830192e+003;4.471146e-002
1.832121e+003;4.458444e-002
1.834049e+003;4.438478e-002
1.835978e+003;4.437032e-002
1.837906e+003;4.442692e-002
1.839835e+003;4.413882e-002
1.841763e+003;4.389860e-002
1.843692e+003;4.375497e-002
1.845620e+003;4.353518e-002
1.847549e+003;4.351375e-002
1.849478e+003;4.361288e-002
1.851406e+003;4.350713e-002
1.853335e+003;4.324701e-002
1.855263e+003;4.299211e-002
1.857192e+003;4.295385e-002
1.859120e+003;4.298468e-002
1.861049e+003;4.287433e-002
1.862977e+003;4.283041e-002
1.864906e+003;4.296742e-002
1.866834e+003;4.294555e-002
1.868763e+003;4.286358e-002
1.870692e+003;4.277944e-002
1.872620e+003;4.264531e-002
1.874549e+003;4.237424e-002
1.876477e+003;4.227383e-002
1.878406e+003;4.239108e-002
1.880334e+003;4.237325e-002
1.882263e+003;4.218729e-002
1.884191e+003;4.196333e-002
1.886120e+003;4.193691e-002
1.888048e+003;4.214946e-002
1.889977e+003;4.233622e-002
1.891906e+003;4.225327e-002
1.893834e+003;4.207100e-002
1.895763e+003;4.204929e-002
1.897691e+003;4.215231e-002
1.899620e+003;4.234118e-002
1.901548e+003;4.240920e-002
1.903477e+003;4.242988e-002
1.905405e+003;4.262739e-002
1.907334e+003;4.275183e-002
1.909262e+003;4.275725e-002
1.911191e+003;4.287883e-002
1.913120e+003;4.296303e-002
1.915048e+003;4.305635e-002
1.916977e+003;4.330526e-002
1.918905e+003;4.357481e-002
1.920834e+003;4.375353e-002
1.922762e+003;4.365163e-002
1.924691e+003;4.363343e-002
1.926619e+003;4.386873e-002
1.928548e+003;4.406202e-002
1.930477e+003;4.403705e-002
1.932405e+003;4.385561e-002
1.934334e+003;4.393009e-002
1.936262e+003;4.406793e-002
1.938191e+003;4.423959e-002
1.940119e+003;4.455676e-002
1.942048e+003;4.472953e-002
1.943976e+003;4.480196e-002
1.945905e+003;4.493687e-002
1.947833e+003;4.521436e-002
1.949762e+003;4.542241e-002
1.951691e+003;4.562527e-002
1.953619e+003;4.577509e-002
1.955548e+003;4.601181e-002
1.957476e+003;4.615012e-002
1.959405e+003;4.610034e-002
1.961333e+003;4.618892e-002
1.963262e+003;4.653762e-002
1.965190e+003;4.678885e-002
1.967119e+003;4.672797e-002
1.969047e+003;4.653382e-002
1.970976e+003;4.665458e-002
1.972905e+003;4.691504e-002
1.974833e+003;4.704275e-002
1.976762e+003;4.712646e-002
1.978690e+003;4.730359e-002
1.980619e+003;4.744164e-002
1.982547e+003;4.759797e-002
1.984476e+003;4.774921e-002
1.986404e+003;4.759412e-002
1.988333e+003;4.755593e-002
1.990261e+003;4.775332e-002
1.992190e+003;4.790306e-002
1.994119e+003;4.802846e-002
1.996047e+003;4.793077e-002
1.997976e+003;4.788360e-002
1.999904e+003;4.815209e-002
2.001833e+003;4.822606e-002
2.003761e+003;4.813617e-002
2.005690e+003;4.843319e-002
2.007618e+003;4.869305e-002
2.009547e+003;4.881416e-002
2.011476e+003;4.896905e-002
2.013404e+003;4.923172e-002
2.015333e+003;4.948315e-002
2.017261e+003;4.959404e-002
2.019190e+003;4.987225e-002
2.021118e+003;5.028112e-002
2.023047e+003;5.023436e-002
2.024975e+003;5.026981e-002
2.026904e+003;5.054555e-002
2.028833e+003;5.062038e-002
2.030761e+003;5.073708e-002
2.032690e+003;5.092723e-002
2.034618e+003;5.092615e-002
2.036547e+003;5.102552e-002
2.038475e+003;5.124518e-002
2.040404e+003;5.134105e-002
2.042332e+003;5.125446e-002
2.044261e+003;5.118885e-002
2.046189e+003;5.140314e-002
2.048118e+003;5.163732e-002
2.050047e+003;5.167449e-002
2.051975e+003;5.170487e-002
2.053904e+003;5.169987e-002
2.055832e+003;5.165258e-002
2.057761e+003;5.166624e-002
2.059689e+003;5.175265e-002
2.061618e+003;5.182492e-002
2.063546e+003;5.168961e-002
2.065475e+003;5.156833e-002
2.067404e+003;5.144242e-002
2.069332e+003;5.146196e-002
2.071260e+003;5.167095e-002
2.073189e+003;5.171917e-002
2.075118e+003;5.158482e-002
2.077046e+003;5.152941e-002
2.078975e+003;5.154769e-002
2.080903e+003;5.168173e-002
2.082832e+003;5.179128e-002
2.084760e+003;5.162713e-002
2.086689e+003;5.158217e-002
2.088617e+003;5.184545e-002
2.090546e+003;5.171786e-002
2.092475e+003;5.133377e-002
2.094403e+003;5.149024e-002
2.096332e+003;5.186416e-002
2.098260e+003;5.189321e-002
2.100189e+003;5.189332e-002
2.102117e+003;5.202055e-002
2.104046e+003;5.202119e-002
2.105974e+003;5.211140e-002
2.107903e+003;5.246028e-002
2.109832e+003;5.279320e-002
2.111760e+003;5.276637e-002
2.113688e+003;5.267621e-002
2.115617e+003;5.262526e-002
2.117546e+003;5.245938e-002
2.119474e+003;5.253465e-002
2.121403e+003;5.272604e-002
2.123331e+003;5.287526e-002
2.125260e+003;5.292653e-002
2.127188e+003;5.287208e-002
2.129117e+003;5.297740e-002
2.131045e+003;5.319651e-002
2.132974e+003;5.328963e-002
2.134903e+003;5.329671e-002
2.136831e+003;5.337328e-002
2.138760e+003;5.315566e-002
2.140688e+003;5.292257e-002
2.142617e+003;5.290067e-002
2.144545e+003;5.283608e-002
2.146474e+003;5.279088e-002
2.148402e+003;5.274358e-002
2.150331e+003;5.269637e-002
2.152260e+003;5.269196e-002
2.154188e+003;5.253158e-002
2.156117e+003;5.243796e-002
2.158045e+003;5.242895e-002
2.159974e+003;5.246929e-002
2.161902e+003;5.246929e-002
2.163831e+003;5.243695e-002
2.165759e+003;5.236850e-002
2.167688e+003;5.223552e-002
2.169616e+003;5.203325e-002
2.171545e+003;5.192558e-002
2.173474e+003;5.179576e-002
2.175402e+003;5.167270e-002
2.177331e+003;5.144514e-002
2.179259e+003;5.117218e-002
2.181188e+003;5.101490e-002
2.183116e+003;5.095759e-002
2.185045e+003;5.091925e-002
2.186973e+003;5.077637e-002
2.188902e+003;5.068189e-002
2.190831e+003;5.046259e-002
2.192759e+003;5.037391e-002
2.194688e+003;5.024523e-002
2.196616e+003;5.006117e-002
2.198545e+003;5.014592e-002
2.200473e+003;5.005180e-002
2.202402e+003;4.988366e-002
2.204330e+003;4.989649e-002
2.206259e+003;4.988132e-002
2.208188e+003;4.975679e-002
2.210116e+003;4.955620e-002
2.212044e+003;4.934556e-002
2.213973e+003;4.931868e-002
2.215902e+003;4.928472e-002
2.217830e+003;4.944665e-002
2.219759e+003;4.948100e-002
2.221687e+003;4.921532e-002
2.223616e+003;4.902551e-002
2.225544e+003;4.893731e-002
2.227473e+003;4.886607e-002
2.229401e+003;4.869917e-002
2.231330e+003;4.872055e-002
2.233259e+003;4.884916e-002
2.235187e+003;4.870495e-002
2.237116e+003;4.854167e-002
2.239044e+003;4.860781e-002
2.240973e+003;4.857298e-002
2.242901e+003;4.844015e-002
2.244830e+003;4.827727e-002
2.246758e+003;4.805200e-002
2.248687e+003;4.764175e-002
2.250615e+003;4.756946e-002
2.252544e+003;4.774414e-002
2.254473e+003;4.769777e-002
2.256401e+003;4.739275e-002
2.258330e+003;4.710807e-002
2.260258e+003;4.700246e-002
2.262187e+003;4.690552e-002
2.264115e+003;4.678088e-002
2.266044e+003;4.691224e-002
2.267972e+003;4.699061e-002
2.269901e+003;4.681380e-002
2.271830e+003;4.655576e-002
2.273758e+003;4.629161e-002
2.275687e+003;4.626990e-002
2.277615e+003;4.644752e-002
2.279544e+003;4.629445e-002
2.281472e+003;4.616199e-002
2.283401e+003;4.624752e-002
2.285329e+003;4.610738e-002
2.287258e+003;4.590802e-002
2.289187e+003;4.582122e-002
2.291115e+003;4.581717e-002
2.293043e+003;4.600710e-002
2.294972e+003;4.621067e-002
2.296901e+003;4.619508e-002
2.298829e+003;4.613395e-002
2.300758e+003;4.619556e-002
2.302686e+003;4.626783e-002
2.304615e+003;4.611641e-002
2.306543e+003;4.580447e-002
2.308472e+003;4.582873e-002
2.310400e+003;4.620742e-002
2.312329e+003;4.634628e-002
2.314258e+003;4.630156e-002
2.316186e+003;4.649919e-002
2.318115e+003;4.653721e-002
2.320043e+003;4.642197e-002
2.321972e+003;4.663728e-002
2.323900e+003;4.670734e-002
2.325829e+003;4.646983e-002
2.327757e+003;4.648875e-002
2.329686e+003;4.680262e-002
2.331615e+003;4.690212e-002
2.333543e+003;4.672863e-002
2.335472e+003;4.670800e-002
2.337400e+003;4.694753e-002
2.339329e+003;4.715427e-002
2.341257e+003;4.733108e-002
2.343186e+003;4.741666e-002
2.345114e+003;4.761767e-002
2.347043e+003;4.792622e-002
2.348971e+003;4.784534e-002
2.350900e+003;4.791582e-002
2.352829e+003;4.818722e-002
2.354757e+003;4.819373e-002
2.356686e+003;4.828460e-002
2.358614e+003;4.854456e-002
2.360543e+003;4.843656e-002
2.362471e+003;4.829604e-002
2.364400e+003;4.859680e-002
2.366328e+003;4.884734e-002
2.368257e+003;4.901148e-002
2.370186e+003;4.925136e-002
2.372114e+003;4.938977e-002
2.374042e+003;4.936586e-002
2.375971e+003;4.925243e-002
2.377900e+003;4.944936e-002
2.379828e+003;4.973067e-002
2.381757e+003;4.986218e-002
2.383685e+003;4.997001e-002
2.385614e+003;5.006206e-002
2.387542e+003;4.997287e-002
2.389471e+003;4.991250e-002
2.391399e+003;4.999466e-002
2.393328e+003;5.019736e-002
2.395257e+003;5.036882e-002
2.397185e+003;5.056792e-002
2.399114e+003;5.095700e-002
2.401042e+003;5.113424e-002
2.402971e+003;5.130592e-002
2.404899e+003;5.157150e-002
2.406828e+003;5.157926e-002
2.408756e+003;5.169666e-002
2.410685e+003;5.196853e-002
2.412614e+003;5.221004e-002
2.414542e+003;5.259202e-002
2.416471e+003;5.286815e-002
2.418399e+003;5.282874e-002
2.420328e+003;5.290625e-002
2.422256e+003;5.300390e-002
2.424185e+003;5.300361e-002
2.426113e+003;5.340562e-002
2.428042e+003;5.391918e-002
2.429970e+003;5.403763e-002
2.431899e+003;5.422169e-002
2.433828e+003;5.435757e-002
2.435756e+003;5.431420e-002
2.437685e+003;5.443918e-002
2.439613e+003;5.503143e-002
2.441542e+003;5.551578e-002
2.443470e+003;5.552008e-002
2.445399e+003;5.573102e-002
2.447327e+003;5.606370e-002
2.449256e+003;5.628732e-002
2.451185e+003;5.659424e-002
2.453113e+003;5.684940e-002
2.455042e+003;5.700099e-002
2.456970e+003;5.724694e-002
2.458899e+003;5.738354e-002
2.460827e+003;5.737386e-002
2.462756e+003;5.744174e-002
2.464684e+003;5.780148e-002
2.466613e+003;5.841960e-002
2.468542e+003;5.882872e-002
2.470470e+003;5.873471e-002
2.472398e+003;5.878972e-002
2.474327e+003;5.917005e-002
2.476256e+003;5.945222e-002
2.478184e+003;5.970496e-002
2.480113e+003;6.007404e-002
2.482041e+003;6.027704e-002
2.483970e+003;6.027674e-002
2.485898e+003;6.054039e-002
2.487827e+003;6.077456e-002
2.489755e+003;6.085692e-002
2.491684e+003;6.100553e-002
2.493613e+003;6.114012e-002
2.495541e+003;6.130539e-002
2.497470e+003;6.147190e-002
2.499398e+003;6.149831e-002
2.501327e+003;6.162065e-002
2.503255e+003;6.188069e-002
2.505184e+003;6.206653e-002
2.507112e+003;6.221919e-002
2.509041e+003;6.251398e-002
2.510969e+003;6.290089e-002
2.512898e+003;6.302144e-002
2.514827e+003;6.298443e-002
2.516755e+003;6.294084e-002
2.518684e+003;6.298868e-002
2.520612e+003;6.298198e-002
2.522541e+003;6.322398e-002
2.524469e+003;6.350930e-002
2.526398e+003;6.353600e-002
2.528326e+003;6.345549e-002
2.530255e+003;6.355391e-002
2.532184e+003;6.373844e-002
2.534112e+003;6.391210e-002
2.536041e+003;6.397867e-002
2.537969e+003;6.423494e-002
2.539898e+003;6.437852e-002
2.541826e+003;6.425545e-002
2.543755e+003;6.433368e-002
2.545683e+003;6.451797e-002
2.547612e+003;6.454561e-002
2.549541e+003;6.457471e-002
2.551469e+003;6.468783e-002
2.553397e+003;6.478656e-002
2.555326e+003;6.512853e-002
2.557255e+003;6.547319e-002
2.559183e+003;6.565723e-002
2.561112e+003;6.592024e-002
2.563040e+003;6.615768e-002
2.564969e+003;6.600355e-002
2.566897e+003;6.598017e-002
2.568826e+003;6.626152e-002
2.570754e+003;6.617994e-002
2.572683e+003;6.608117e-002
2.574612e+003;6.633586e-002
2.576540e+003;6.671815e-002
2.578469e+003;6.695096e-002
2.580397e+003;6.707518e-002
2.582326e+003;6.734853e-002
2.584254e+003;6.746304e-002
2.586183e+003;6.757304e-002
2.588111e+003;6.768211e-002
2.590040e+003;6.779829e-002
2.591969e+003;6.803330e-002
2.593897e+003;6.808841e-002
2.595826e+003;6.802683e-002
2.597754e+003;6.834301e-002
2.599683e+003;6.866354e-002
2.601611e+003;6.884331e-002
2.603540e+003;6.910118e-002
2.605468e+003;6.934075e-002
2.607397e+003;6.936932e-002
2.609325e+003;6.939781e-002
2.611254e+003;6.964043e-002
2.613183e+003;7.006507e-002
2.615111e+003;7.041442e-002
2.617040e+003;7.045206e-002
2.618968e+003;7.058957e-002
2.620897e+003;7.091488e-002
2.622825e+003;7.102573e-002
2.624754e+003;7.102869e-002
2.626682e+003;7.116146e-002
2.628611e+003;7.144857e-002
2.630540e+003;7.186459e-002
2.632468e+003;7.222396e-002
2.634396e+003;7.273348e-002
2.636325e+003;7.315129e-002
2.638254e+003;7.327522e-002
2.640182e+003;7.332245e-002
2.642111e+003;7.345188e-002
2.644039e+003;7.406814e-002
2.645968e+003;7.460982e-002
2.647896e+003;7.447174e-002
2.649825e+003;7.431775e-002
2.651753e+003;7.464236e-002
2.653682e+003;7.502211e-002
2.655611e+003;7.549345e-002
2.657539e+003;7.595311e-002
2.659468e+003;7.609126e-002
2.661396e+003;7.634317e-002
2.663325e+003;7.657412e-002
2.665253e+003;7.680333e-002
2.667182e+003;7.709911e-002
2.669110e+003;7.748470e-002
2.671039e+003;7.789889e-002
2.672968e+003;7.801019e-002
2.674896e+003;7.819493e-002
2.676825e+003;7.868272e-002
2.678753e+003;7.909162e-002
2.680682e+003;7.901713e-002
2.682610e+003;7.907540e-002
2.684539e+003;7.943808e-002
2.686467e+003;7.982703e-002
2.688396e+003;7.990979e-002
2.690324e+003;8.005618e-002
2.692253e+003;8.053298e-002
2.694182e+003;8.103011e-002
2.696110e+003;8.144178e-002
2.698039e+003;8.165611e-002
2.699967e+003;8.186082e-002
2.701896e+003;8.197321e-002
2.703824e+003;8.181045e-002
2.705753e+003;8.184838e-002
2.707681e+003;8.233143e-002
2.709610e+003;8.277942e-002
2.711539e+003;8.295579e-002
2.713467e+003;8.303785e-002
2.715396e+003;8.300937e-002
2.717324e+003;8.310241e-002
2.719253e+003;8.343714e-002
2.721181e+003;8.393379e-002
2.723110e+003;8.425534e-002
2.725038e+003;8.430937e-002
2.726967e+003;8.434767e-002
2.728896e+003;8.448104e-002
2.730824e+003;8.459765e-002
2.732752e+003;8.481551e-002
2.734681e+003;8.505069e-002
2.736610e+003;8.537492e-002
2.738538e+003;8.552345e-002
2.740467e+003;8.550929e-002
2.742395e+003;8.571473e-002
2.744324e+003;8.593969e-002
2.746252e+003;8.609673e-002
2.748181e+003;8.608469e-002
2.750109e+003;8.592043e-002
2.752038e+003;8.602612e-002
2.753967e+003;8.655005e-002
2.755895e+003;8.695048e-002
2.757824e+003;8.700865e-002
2.759752e+003;8.715567e-002
2.761681e+003;8.760522e-002
2.763609e+003;8.815902e-002
2.765538e+003;8.823157e-002
2.767466e+003;8.820055e-002
2.769395e+003;8.872504e-002
2.771323e+003;8.899683e-002
2.773252e+003;8.899321e-002
2.775181e+003;8.930517e-002
2.777109e+003;8.970192e-002
2.779038e+003;9.008582e-002
2.780966e+003;9.050696e-002
2.782895e+003;9.071478e-002
2.784823e+003;9.081870e-002
2.786752e+003;9.114396e-002
2.788680e+003;9.160441e-002
2.790609e+003;9.202890e-002
2.792538e+003;9.256832e-002
2.794466e+003;9.293777e-002
2.796395e+003;9.320167e-002
2.798323e+003;9.373395e-002
2.800252e+003;9.426430e-002
2.802180e+003;9.468740e-002
2.804109e+003;9.496803e-002
2.806037e+003;9.541225e-002
2.807966e+003;9.579739e-002
2.809895e+003;9.596498e-002
2.811823e+003;9.675004e-002
2.813751e+003;9.757777e-002
2.815680e+003;9.781294e-002
2.817609e+003;9.809983e-002
2.819537e+003;9.866773e-002
2.821466e+003;9.909930e-002
2.823394e+003;9.984677e-002
2.825323e+003;1.007472e-001
2.827251e+003;1.012415e-001
2.829180e+003;1.016648e-001
2.831108e+003;1.024810e-001
2.833037e+003;1.033809e-001
2.834966e+003;1.043452e-001
2.836894e+003;1.053819e-001
2.838823e+003;1.060009e-001
2.840751e+003;1.067759e-001
2.842680e+003;1.079451e-001
2.844608e+003;1.095360e-001
2.846537e+003;1.112030e-001
2.848465e+003;1.123753e-001
2.850394e+003;1.135199e-001
2.852323e+003;1.145100e-001
2.854251e+003;1.152326e-001
2.856180e+003;1.166166e-001
2.858108e+003;1.181030e-001
2.860037e+003;1.193402e-001
2.861965e+003;1.212261e-001
2.863894e+003;1.234947e-001
2.865822e+003;1.254130e-001
2.867751e+003;1.268772e-001
2.869679e+003;1.279314e-001
2.871608e+003;1.289058e-001
2.873536e+003;1.304293e-001
2.875465e+003;1.318024e-001
2.877394e+003;1.325150e-001
2.879322e+003;1.331678e-001
2.881251e+003;1.338343e-001
2.883179e+003;1.341948e-001
2.885108e+003;1.343685e-001
2.887036e+003;1.345978e-001
2.888965e+003;1.348906e-001
2.890893e+003;1.351761e-001
2.892822e+003;1.352088e-001
2.894750e+003;1.348835e-001
2.896679e+003;1.343218e-001
2.898608e+003;1.336535e-001
2.900536e+003;1.330366e-001
2.902465e+003;1.324386e-001
2.904393e+003;1.318317e-001
2.906322e+003;1.312491e-001
2.908250e+003;1.306460e-001
2.910179e+003;1.299075e-001
2.912107e+003;1.291521e-001
2.914036e+003;1.279853e-001
2.915965e+003;1.267692e-001
2.917893e+003;1.261486e-001
2.919822e+003;1.253668e-001
2.921750e+003;1.238842e-001
2.923679e+003;1.224180e-001
2.925607e+003;1.212866e-001
2.927536e+003;1.203963e-001
2.929464e+003;1.191840e-001
2.931393e+003;1.178499e-001
2.933322e+003;1.172532e-001
2.935250e+003;1.162491e-001
2.937178e+003;1.147357e-001
2.939107e+003;1.134406e-001
2.941036e+003;1.123519e-001
2.942964e+003;1.111769e-001
2.944893e+003;1.096216e-001
2.946821e+003;1.081737e-001
2.948750e+003;1.067279e-001
2.950678e+003;1.050637e-001
2.952607e+003;1.039990e-001
2.954535e+003;1.032228e-001
2.956464e+003;1.020173e-001
2.958393e+003;1.006249e-001
2.960321e+003;9.954835e-002
2.962250e+003;9.818240e-002
2.964178e+003;9.708537e-002
2.966107e+003;9.679269e-002
2.968035e+003;9.647195e-002
2.969964e+003;9.557015e-002
2.971892e+003;9.450651e-002
2.973821e+003;9.406263e-002
2.975750e+003;9.411642e-002
2.977678e+003;9.390540e-002
2.979607e+003;9.329165e-002
2.981535e+003;9.290523e-002
2.983464e+003;9.259567e-002
2.985392e+003;9.222946e-002
2.987321e+003;9.196261e-002
2.989249e+003;9.167581e-002
2.991178e+003;9.136181e-002
2.993106e+003;9.121741e-002
2.995035e+003;9.098381e-002
2.996964e+003;9.097870e-002
2.998892e+003;9.093013e-002
3.000821e+003;9.069754e-002
3.002749e+003;9.089761e-002
3.004678e+003;9.152468e-002
3.006606e+003;9.183830e-002
3.008535e+003;9.180244e-002
3.010463e+003;9.219931e-002
3.012392e+003;9.275223e-002
3.014321e+003;9.302606e-002
3.016249e+003;9.320988e-002
3.018177e+003;9.337857e-002
3.020106e+003;9.363171e-002
3.022035e+003;9.375480e-002
3.023963e+003;9.401783e-002
3.025892e+003;9.478079e-002
3.027820e+003;9.562160e-002
3.029749e+003;9.629887e-002
3.031677e+003;9.686027e-002
3.033606e+003;9.732675e-002
3.035534e+003;9.782228e-002
3.037463e+003;9.841035e-002
3.039392e+003;9.888098e-002
3.041320e+003;9.945977e-002
3.043249e+003;1.000405e-001
3.045177e+003;1.002717e-001
3.047106e+003;1.005642e-001
3.049034e+003;1.013328e-001
3.050963e+003;1.022635e-001
3.052891e+003;1.032228e-001
3.054820e+003;1.038078e-001
3.056749e+003;1.040262e-001
3.058677e+003;1.044533e-001
3.060606e+003;1.050788e-001
3.062534e+003;1.057555e-001
3.064463e+003;1.064614e-001
3.066391e+003;1.074236e-001
3.068320e+003;1.081798e-001
3.070248e+003;1.084126e-001
3.072177e+003;1.088482e-001
3.074105e+003;1.098498e-001
3.076034e+003;1.106548e-001
3.077963e+003;1.113059e-001
3.079891e+003;1.121472e-001
3.081820e+003;1.130181e-001
3.083748e+003;1.139373e-001
3.085677e+003;1.148112e-001
3.087605e+003;1.154863e-001
3.089534e+003;1.160756e-001
3.091462e+003;1.166847e-001
3.093391e+003;1.173052e-001
3.095320e+003;1.180027e-001
3.097248e+003;1.187385e-001
3.099177e+003;1.193731e-001
3.101105e+003;1.203163e-001
3.103034e+003;1.211025e-001
3.104962e+003;1.215800e-001
3.106891e+003;1.222184e-001
3.108819e+003;1.231256e-001
3.110748e+003;1.241615e-001
3.112677e+003;1.249399e-001
3.114605e+003;1.255073e-001
3.116533e+003;1.261828e-001
3.118462e+003;1.268306e-001
3.120391e+003;1.275934e-001
3.122319e+003;1.285369e-001
3.124248e+003;1.292950e-001
3.126176e+003;1.300787e-001
3.128105e+003;1.309152e-001
3.130033e+003;1.319088e-001
3.131962e+003;1.327979e-001
3.133890e+003;1.336491e-001
3.135819e+003;1.344723e-001
3.137748e+003;1.351290e-001
3.139676e+003;1.357824e-001
3.141605e+003;1.367654e-001
3.143533e+003;1.374047e-001
3.145462e+003;1.378347e-001
3.147390e+003;1.386493e-001
3.149319e+003;1.397936e-001
3.151247e+003;1.405992e-001
3.153176e+003;1.411279e-001
3.155104e+003;1.419756e-001
3.157033e+003;1.427970e-001
3.158962e+003;1.432724e-001
3.160890e+003;1.438798e-001
3.162819e+003;1.446342e-001
3.164747e+003;1.452586e-001
3.166676e+003;1.459375e-001
3.168604e+003;1.468239e-001
3.170533e+003;1.476001e-001
3.172461e+003;1.483909e-001
3.174390e+003;1.490644e-001
3.176319e+003;1.498923e-001
3.178247e+003;1.505896e-001
3.180176e+003;1.513279e-001
3.182104e+003;1.522393e-001
3.184033e+003;1.530561e-001
3.185961e+003;1.535673e-001
3.187890e+003;1.543676e-001
3.189818e+003;1.552338e-001
3.191747e+003;1.558862e-001
3.193676e+003;1.565516e-001
3.195604e+003;1.571212e-001
3.197532e+003;1.576013e-001
3.199461e+003;1.582625e-001
3.201390e+003;1.592747e-001
3.203318e+003;1.600482e-001
3.205247e+003;1.603173e-001
3.207175e+003;1.608457e-001
3.209104e+003;1.613615e-001
3.211032e+003;1.620487e-001
3.212961e+003;1.630280e-001
3.214889e+003;1.637844e-001
3.216818e+003;1.647922e-001
3.218747e+003;1.656875e-001
3.220675e+003;1.660201e-001
3.222604e+003;1.664536e-001
3.224532e+003;1.670559e-001
3.226461e+003;1.675717e-001
3.228389e+003;1.683622e-001
3.230318e+003;1.690271e-001
3.232246e+003;1.693559e-001
3.234175e+003;1.700584e-001
3.236104e+003;1.712603e-001
3.238032e+003;1.717078e-001
3.239961e+003;1.714921e-001
3.241889e+003;1.720658e-001
3.243818e+003;1.729214e-001
3.245746e+003;1.729585e-001
3.247675e+003;1.731897e-001
3.249603e+003;1.740925e-001
3.251532e+003;1.750829e-001
3.253460e+003;1.757053e-001
3.255389e+003;1.761706e-001
3.257318e+003;1.763723e-001
3.259246e+003;1.763807e-001
3.261175e+003;1.769850e-001
3.263103e+003;1.773432e-001
3.265032e+003;1.776547e-001
3.266960e+003;1.783880e-001
3.268889e+003;1.790455e-001
3.270817e+003;1.796634e-001
3.272746e+003;1.802775e-001
3.274675e+003;1.807733e-001
3.276603e+003;1.809060e-001
3.278531e+003;1.811663e-001
3.280460e+003;1.817559e-001
3.282389e+003;1.820914e-001
3.284317e+003;1.822386e-001
3.286246e+003;1.825507e-001
3.288174e+003;1.827248e-001
3.290103e+003;1.827336e-001
3.292031e+003;1.826281e-001
3.293960e+003;1.828463e-001
3.295888e+003;1.834579e-001
3.297817e+003;1.841169e-001
3.299746e+003;1.843818e-001
3.301674e+003;1.843675e-001
3.303603e+003;1.846597e-001
3.305531e+003;1.847578e-001
3.307460e+003;1.847156e-001
3.309388e+003;1.852568e-001
3.311317e+003;1.857389e-001
3.313245e+003;1.859700e-001
3.315174e+003;1.862030e-001
3.317103e+003;1.863606e-001
3.319031e+003;1.864222e-001
3.320960e+003;1.864713e-001
3.322888e+003;1.864041e-001
3.324817e+003;1.861145e-001
3.326745e+003;1.861005e-001
3.328674e+003;1.862240e-001
3.330602e+003;1.862577e-001
3.332531e+003;1.861359e-001
3.334459e+003;1.859438e-001
3.336388e+003;1.863680e-001
3.338317e+003;1.867609e-001
3.340245e+003;1.868976e-001
3.342174e+003;1.868400e-001
3.344102e+003;1.865031e-001
3.346031e+003;1.862976e-001
3.347959e+003;1.857333e-001
3.349888e+003;1.853278e-001
3.351816e+003;1.857576e-001
3.353745e+003;1.853739e-001
3.355674e+003;1.844262e-001
3.357602e+003;1.842910e-001
3.359531e+003;1.843222e-001
3.361459e+003;1.839842e-001
3.363388e+003;1.834039e-001
3.365316e+003;1.830599e-001
3.367245e+003;1.831046e-001
3.369173e+003;1.829100e-001
3.371102e+003;1.824775e-001
3.373031e+003;1.823769e-001
3.374959e+003;1.822955e-001
3.376887e+003;1.819639e-001
3.378816e+003;1.812021e-001
3.380745e+003;1.806274e-001
3.382673e+003;1.804206e-001
3.384602e+003;1.803371e-001
3.386530e+003;1.796539e-001
3.388459e+003;1.790618e-001
3.390387e+003;1.790489e-001
3.392316e+003;1.785375e-001
3.394244e+003;1.776801e-001
3.396173e+003;1.768276e-001
3.398102e+003;1.762813e-001
3.400030e+003;1.759463e-001
3.401959e+003;1.756744e-001
3.403887e+003;1.754362e-001
3.405816e+003;1.748666e-001
3.407744e+003;1.741865e-001
3.409673e+003;1.734637e-001
3.411601e+003;1.730556e-001
3.413530e+003;1.728097e-001
3.415458e+003;1.719024e-001
3.417387e+003;1.708145e-001
3.419316e+003;1.700816e-001
3.421244e+003;1.692555e-001
3.423173e+003;1.687774e-001
3.425101e+003;1.683508e-001
3.427030e+003;1.676196e-001
3.428958e+003;1.668262e-001
3.430887e+003;1.661814e-001
3.432815e+003;1.659906e-001
3.434744e+003;1.658003e-001
3.436673e+003;1.649951e-001
3.438601e+003;1.641356e-001
3.440530e+003;1.632890e-001
3.442458e+003;1.620755e-001
3.444387e+003;1.608951e-001
3.446315e+003;1.597893e-001
3.448244e+003;1.585392e-001
3.450172e+003;1.571915e-001
3.452101e+003;1.555927e-001
3.454030e+003;1.542443e-001
3.455958e+003;1.533235e-001
3.457886e+003;1.523682e-001
3.459815e+003;1.510832e-001
3.461744e+003;1.493298e-001
3.463672e+003;1.475233e-001
3.465601e+003;1.462245e-001
3.467529e+003;1.449948e-001
3.469458e+003;1.435309e-001
3.471386e+003;1.420562e-001
3.473315e+003;1.406984e-001
3.475243e+003;1.398905e-001
3.477172e+003;1.391431e-001
3.479101e+003;1.378755e-001
3.481029e+003;1.365438e-001
3.482958e+003;1.356752e-001
3.484886e+003;1.347461e-001
3.486815e+003;1.333437e-001
3.488743e+003;1.319809e-001
3.490672e+003;1.303623e-001
3.492600e+003;1.290652e-001
3.494529e+003;1.279320e-001
3.496458e+003;1.261004e-001
3.498386e+003;1.242605e-001
3.500315e+003;1.226882e-001
3.502243e+003;1.212175e-001
3.504172e+003;1.197366e-001
3.506100e+003;1.181169e-001
3.508029e+003;1.165107e-001
3.509957e+003;1.151528e-001
3.511886e+003;1.133912e-001
3.513814e+003;1.116824e-001
3.515743e+003;1.103971e-001
3.517672e+003;1.092782e-001
3.519600e+003;1.080813e-001
3.521529e+003;1.068447e-001
3.523457e+003;1.055353e-001
3.525386e+003;1.042668e-001
3.527314e+003;1.028086e-001
3.529243e+003;1.013361e-001
3.531171e+003;1.001805e-001
3.533100e+003;9.903599e-002
3.535029e+003;9.747710e-002
3.536957e+003;9.609295e-002
3.538885e+003;9.531869e-002
3.540814e+003;9.432790e-002
3.542743e+003;9.291110e-002
3.544671e+003;9.158166e-002
3.546600e+003;9.036504e-002
3.548528e+003;8.960046e-002
3.550457e+003;8.859491e-002
3.552385e+003;8.741558e-002
3.554314e+003;8.644176e-002
3.556242e+003;8.555806e-002
3.558171e+003;8.441041e-002
3.560100e+003;8.293673e-002
3.562028e+003;8.198061e-002
3.563957e+003;8.133309e-002
3.565885e+003;7.994798e-002
3.567814e+003;7.849070e-002
3.569742e+003;7.727590e-002
3.571671e+003;7.612956e-002
3.573599e+003;7.558997e-002
3.575528e+003;7.488028e-002
3.577457e+003;7.381630e-002
3.579385e+003;7.296056e-002
3.581314e+003;7.223703e-002
3.583242e+003;7.157557e-002
3.585171e+003;7.061643e-002
3.587099e+003;6.979296e-002
3.589028e+003;6.914143e-002
3.590956e+003;6.837687e-002
3.592885e+003;6.790733e-002
3.594813e+003;6.736007e-002
3.596742e+003;6.621783e-002
3.598671e+003;6.533949e-002
3.600599e+003;6.437852e-002
3.602528e+003;6.332184e-002
3.604456e+003;6.299148e-002
3.606385e+003;6.242255e-002
3.608313e+003;6.156650e-002
3.610242e+003;6.083101e-002
3.612170e+003;6.032021e-002
3.614099e+003;5.974534e-002
3.616028e+003;5.868111e-002
3.617956e+003;5.769006e-002
3.619885e+003;5.764454e-002
3.621813e+003;5.740578e-002
3.623742e+003;5.659114e-002
3.625670e+003;5.606057e-002
3.627599e+003;5.528722e-002
3.629527e+003;5.416557e-002
3.631456e+003;5.334058e-002
3.633385e+003;5.277037e-002
3.635313e+003;5.230795e-002
3.637241e+003;5.167471e-002
3.639170e+003;5.075990e-002
3.641099e+003;5.006850e-002
3.643027e+003;4.952225e-002
3.644956e+003;4.861622e-002
3.646884e+003;4.788508e-002
3.648813e+003;4.668823e-002
3.650741e+003;4.556230e-002
3.652670e+003;4.515241e-002
3.654598e+003;4.453968e-002
3.656527e+003;4.347618e-002
3.658456e+003;4.293004e-002
3.660384e+003;4.238915e-002
3.662313e+003;4.140553e-002
3.664241e+003;4.046854e-002
3.666170e+003;3.998850e-002
3.668098e+003;3.926788e-002
3.670027e+003;3.824700e-002
3.671955e+003;3.763209e-002
3.673884e+003;3.706336e-002
3.675813e+003;3.604225e-002
3.677741e+003;3.530122e-002
3.679669e+003;3.502594e-002
3.681598e+003;3.460634e-002
3.683527e+003;3.438763e-002
3.685455e+003;3.392142e-002
3.687384e+003;3.259464e-002
3.689312e+003;3.187726e-002
3.691241e+003;3.183864e-002
3.693169e+003;3.188856e-002
3.695098e+003;3.139255e-002
3.697026e+003;3.099207e-002
3.698955e+003;3.067402e-002
3.700884e+003;3.030742e-002
3.702812e+003;2.952759e-002
3.704741e+003;2.928249e-002
3.706669e+003;2.958040e-002
3.708598e+003;2.919668e-002
3.710526e+003;2.827994e-002
3.712455e+003;2.782739e-002
3.714383e+003;2.803385e-002
3.716312e+003;2.801794e-002
3.718240e+003;2.780545e-002
3.720169e+003;2.781237e-002
3.722098e+003;2.760824e-002
3.724026e+003;2.735900e-002
3.725955e+003;2.700516e-002
3.727883e+003;2.661357e-002
3.729812e+003;2.673815e-002
3.731740e+003;2.684878e-002
3.733669e+003;2.678819e-002
3.735597e+003;2.633803e-002
3.737526e+003;2.596072e-002
3.739455e+003;2.599044e-002
3.741383e+003;2.633236e-002
3.743312e+003;2.644701e-002
3.745240e+003;2.628065e-002
3.747169e+003;2.601236e-002
3.749097e+003;2.556479e-002
3.751026e+003;2.544620e-002
3.752954e+003;2.555358e-002
3.754883e+003;2.585514e-002
3.756812e+003;2.567414e-002
3.758740e+003;2.503084e-002
3.760668e+003;2.480072e-002
3.762597e+003;2.462780e-002
3.764526e+003;2.447259e-002
3.766454e+003;2.491359e-002
3.768383e+003;2.553896e-002
3.770311e+003;2.553018e-002
3.772240e+003;2.521206e-002
3.774168e+003;2.543071e-002
3.776097e+003;2.539565e-002
3.778025e+003;2.498655e-002
3.779954e+003;2.523173e-002
3.781883e+003;2.544536e-002
3.783811e+003;2.523008e-002
3.785740e+003;2.501536e-002
3.787668e+003;2.464649e-002
3.789597e+003;2.416316e-002
3.791525e+003;2.424756e-002
3.793454e+003;2.468149e-002
3.795382e+003;2.506370e-002
3.797311e+003;2.509364e-002
3.799240e+003;2.471828e-002
3.801168e+003;2.447690e-002
3.803097e+003;2.458394e-002
3.805025e+003;2.465242e-002
3.806954e+003;2.454985e-002
3.808882e+003;2.428092e-002
3.810811e+003;2.444440e-002
3.812739e+003;2.504657e-002
3.814668e+003;2.476343e-002
3.816596e+003;2.434013e-002
3.818525e+003;2.440262e-002
3.820454e+003;2.468086e-002
3.822382e+003;2.505025e-002
3.824311e+003;2.518043e-002
3.826239e+003;2.514356e-002
3.828168e+003;2.508985e-002
3.830096e+003;2.494001e-002
3.832025e+003;2.499536e-002
3.833953e+003;2.487562e-002
3.835882e+003;2.463482e-002
3.837811e+003;2.461598e-002
3.839739e+003;2.483513e-002
3.841667e+003;2.491741e-002
3.843596e+003;2.514542e-002
3.845525e+003;2.542807e-002
3.847453e+003;2.550449e-002
3.849382e+003;2.560110e-002
3.851310e+003;2.545400e-002
3.853239e+003;2.481679e-002
3.855167e+003;2.499999e-002
3.857096e+003;2.534977e-002
3.859024e+003;2.554575e-002
3.860953e+003;2.602826e-002
3.862882e+003;2.636609e-002
3.864810e+003;2.632141e-002
3.866739e+003;2.616436e-002
3.868667e+003;2.582697e-002
3.870596e+003;2.611200e-002
3.872524e+003;2.661970e-002
3.874453e+003;2.641866e-002
3.876381e+003;2.643081e-002
3.878310e+003;2.645260e-002
3.880239e+003;2.647712e-002
3.882167e+003;2.676539e-002
3.884096e+003;2.683796e-002
3.886024e+003;2.695545e-002
3.887953e+003;2.735289e-002
3.889881e+003;2.739774e-002
3.891810e+003;2.730194e-002
3.893738e+003;2.731168e-002
3.895667e+003;2.755570e-002
3.897595e+003;2.752919e-002
3.899524e+003;2.738942e-002
3.901453e+003;2.755369e-002
3.903381e+003;2.798702e-002
3.905310e+003;2.844084e-002
3.907238e+003;2.851754e-002
3.909167e+003;2.853909e-002
3.911095e+003;2.886139e-002
3.913024e+003;2.926331e-002
3.914952e+003;2.900553e-002
3.916881e+003;2.888844e-002
3.918810e+003;2.913130e-002
3.920738e+003;2.924031e-002
3.922667e+003;2.911252e-002
3.924595e+003;2.911929e-002
3.926524e+003;2.937508e-002
3.928452e+003;2.944422e-002
3.930381e+003;2.938149e-002
3.932309e+003;2.979600e-002
3.934238e+003;3.011486e-002
3.936167e+003;2.997904e-002
3.938095e+003;2.996467e-002
3.940023e+003;3.026394e-002
3.941952e+003;3.036594e-002
3.943881e+003;3.033577e-002
3.945809e+003;3.073828e-002
3.947738e+003;3.098670e-002
3.949666e+003;3.069681e-002
3.951595e+003;3.058936e-002
3.953523e+003;3.095161e-002
3.955452e+003;3.066744e-002
3.957380e+003;3.040713e-002
3.959309e+003;3.053995e-002
3.961238e+003;3.087433e-002
3.963166e+003;3.072043e-002
3.965095e+003;3.075759e-002
3.967023e+003;3.104050e-002
3.968952e+003;3.141246e-002
3.970880e+003;3.161711e-002
3.972809e+003;3.120196e-002
3.974737e+003;3.075407e-002
3.976666e+003;3.108051e-002
3.978594e+003;3.174485e-002
3.980523e+003;3.210727e-002
3.982452e+003;3.179322e-002
3.984380e+003;3.168610e-002
3.986309e+003;3.203111e-002
3.988237e+003;3.184317e-002
3.990166e+003;3.166536e-002
3.992094e+003;3.158550e-002
3.994023e+003;3.182983e-002
3.995951e+003;3.200646e-002
3.997880e+003;3.152535e-002
3.999809e+003;3.114974e-002
4.001737e+003;0.000000e+000
