3.992094e+002;0.000000e+000
4.011380e+002;0.000000e+000
4.030665e+002;0.000000e+000
4.049951e+002;0.000000e+000
4.069236e+002;0.000000e+000
4.088522e+002;0.000000e+000
4.107807e+002;0.000000e+000
4.127093e+002;0.000000e+000
4.146378e+002;0.000000e+000
4.165664e+002;0.000000e+000
4.184949e+002;0.000000e+000
4.204235e+002;0.000000e+000
4.223520e+002;0.000000e+000
4.242806e+002;0.000000e+000
4.262091e+002;0.000000e+000
4.281377e+002;0.000000e+000
4.300662e+002;0.000000e+000
4.319948e+002;0.000000e+000
4.339233e+002;0.000000e+000
4.358519e+002;0.000000e+000
4.377804e+002;0.000000e+000
4.397090e+002;0.000000e+000
4.416375e+002;0.000000e+000
4.435660e+002;0.000000e+000
4.454946e+002;0.000000e+000
4.474232e+002;0.000000e+000
4.493517e+002;0.000000e+000
4.512802e+002;0.000000e+000
4.532088e+002;0.000000e+000
4.551373e+002;0.000000e+000
4.570659e+002;0.000000e+000
4.589944e+002;0.000000e+000
4.609230e+002;0.000000e+000
4.628515e+002;0.000000e+000
4.647801e+002;0.000000e+000
4.667086e+002;0.000000e+000
4.686372e+002;0.000000e+000
4.705657e+002;0.000000e+000
4.724943e+002;0.000000e+000
4.744228e+002;0.000000e+000
4.763513e+002;0.000000e+000
4.782799e+002;0.000000e+000
4.802085e+002;0.000000e+000
4.821370e+002;0.000000e+000
4.840656e+002;0.000000e+000
4.859941e+002;0.000000e+000
4.879226e+002;0.000000e+000
4.898512e+002;0.000000e+000
4.917798e+002;0.000000e+000
4.937083e+002;0.000000e+000
4.956368e+002;0.000000e+000
4.975654e+002;0.000000e+000
4.994939e+002;0.000000e+000
5.014225e+002;0.000000e+000
5.033510e+002;0.000000e+000
5.052796e+002;0.000000e+000
5.072081e+002;0.000000e+000
5.091367e+002;0.000000e+000
5.110652e+002;0.000000e+000
5.129938e+002;0.000000e+000
5.149223e+002;0.000000e+000
5.168509e+002;0.000000e+000
5.187794e+002;0.000000e+000
5.207079e+002;0.000000e+000
5.226365e+002;0.000000e+000
5.245651e+002;0.000000e+000
5.264936e+002;0.000000e+000
5.284222e+002;0.000000e+000
5.303507e+002;0.000000e+000
5.322792e+002;0.000000e+000
5.342078e+002;0.000000e+000
5.361364e+002;0.000000e+000
5.380649e+002;0.000000e+000
5.399935e+002;0.000000e+000
5.419220e+002;0.000000e+000
5.438505e+002;0.000000e+000
5.457791e+002;0.000000e+000
5.477076e+002;0.000000e+000
5.496362e+002;0.000000e+000
5.515648e+002;0.000000e+000
5.534933e+002;0.000000e+000
5.554218e+002;0.000000e+000
5.573504e+002;0.000000e+000
5.592789e+002;0.000000e+000
5.612075e+002;0.000000e+000
5.631360e+002;0.000000e+000
5.650646e+002;0.000000e+000
5.669931e+002;0.000000e+000
5.689217e+002;0.000000e+000
5.708502e+002;0.000000e+000
5.727787e+002;0.000000e+000
5.747073e+002;0.000000e+000
5.766359e+002;0.000000e+000
5.785644e+002;0.000000e+000
5.804930e+002;0.000000e+000
5.824215e+002;0.000000e+000
5.843500e+002;0.000000e+000
5.862786e+002;0.000000e+000
5.882072e+002;0.000000e+000
5.901357e+002;0.000000e+000
5.920643e+002;0.000000e+000
5.939928e+002;0.000000e+000
5.959213e+002;0.000000e+000
5.978499e+002;0.000000e+000
5.997784e+002;2.594850e-001
6.017070e+002;2.551448e-001
6.036355e+002;2.508722e-001
6.055641e+002;2.542009e-001
6.074926e+002;2.543364e-001
6.094211e+002;2.494018e-001
6.113497e+002;2.477468e-001
6.132783e+002;2.511186e-001
6.152068e+002;2.515308e-001
6.171354e+002;2.443237e-001
6.190639e+002;2.395868e-001
6.209924e+002;2.436159e-001
6.229210e+002;2.454034e-001
6.248495e+002;2.437000e-001
6.267781e+002;2.410703e-001
6.287067e+002;2.416944e-001
6.306352e+002;2.406323e-001
6.325637e+002;2.352719e-001
6.344923e+002;2.301594e-001
6.364208e+002;2.270761e-001
6.383494e+002;2.271024e-001
6.402780e+002;2.274154e-001
6.422065e+002;2.284559e-001
6.441350e+002;2.264128e-001
6.460636e+002;2.206754e-001
6.479921e+002;2.192933e-001
6.499207e+002;2.206383e-001
6.518492e+002;2.237478e-001
6.537778e+002;2.263586e-001
6.557063e+002;2.302787e-001
6.576349e+002;2.313891e-001
6.595634e+002;2.286646e-001
6.614919e+002;2.286960e-001
6.634205e+002;2.286144e-001
6.653491e+002;2.270027e-001
6.672776e+002;2.263844e-001
6.692062e+002;2.234953e-001
6.711347e+002;2.194348e-001
6.730632e+002;2.150118e-001
6.749918e+002;2.079810e-001
6.769203e+002;2.012214e-001
6.788489e+002;1.969623e-001
6.807775e+002;1.933458e-001
6.827060e+002;1.878587e-001
6.846345e+002;1.836969e-001
6.865631e+002;1.827096e-001
6.884916e+002;1.820531e-001
6.904202e+002;1.807488e-001
6.923488e+002;1.796450e-001
6.942773e+002;1.787811e-001
6.962058e+002;1.778077e-001
6.981344e+002;1.765935e-001
7.000629e+002;1.764764e-001
7.019915e+002;1.756458e-001
7.039200e+002;1.742546e-001
7.058486e+002;1.738464e-001
7.077771e+002;1.744486e-001
7.097057e+002;1.742463e-001
7.116342e+002;1.727521e-001
7.135627e+002;1.707540e-001
7.154913e+002;1.689185e-001
7.174199e+002;1.673015e-001
7.193484e+002;1.659523e-001
7.212770e+002;1.649045e-001
7.232055e+002;1.637009e-001
7.251340e+002;1.626871e-001
7.270626e+002;1.609612e-001
7.289911e+002;1.597429e-001
7.309197e+002;1.599109e-001
7.328483e+002;1.595362e-001
7.347768e+002;1.589403e-001
7.367053e+002;1.578005e-001
7.386339e+002;1.557786e-001
7.405624e+002;1.546886e-001
7.424910e+002;1.543296e-001
7.444196e+002;1.537018e-001
7.463481e+002;1.528206e-001
7.482766e+002;1.512542e-001
7.502052e+002;1.490603e-001
7.521337e+002;1.470913e-001
7.540623e+002;1.464147e-001
7.559908e+002;1.461125e-001
7.579194e+002;1.451651e-001
7.598479e+002;1.449562e-001
7.617765e+002;1.441966e-001
7.637050e+002;1.427482e-001
7.656335e+002;1.418743e-001
7.675621e+002;1.408733e-001
7.694907e+002;1.395801e-001
7.714192e+002;1.388280e-001
7.733478e+002;1.375617e-001
7.752763e+002;1.357767e-001
7.772048e+002;1.351379e-001
7.791334e+002;1.352562e-001
7.810620e+002;1.348183e-001
7.829905e+002;1.345355e-001
7.849191e+002;1.349906e-001
7.868476e+002;1.344005e-001
7.887761e+002;1.332782e-001
7.907047e+002;1.331629e-001
7.926332e+002;1.338169e-001
7.945618e+002;1.342822e-001
7.964903e+002;1.342548e-001
7.984189e+002;1.341591e-001
8.003474e+002;1.339457e-001
8.022759e+002;1.331978e-001
8.042045e+002;1.325364e-001
8.061331e+002;1.320490e-001
8.080616e+002;1.318127e-001
8.099902e+002;1.317893e-001
8.119187e+002;1.313188e-001
8.138472e+002;1.303925e-001
8.157758e+002;1.298812e-001
8.177043e+002;1.293042e-001
8.196329e+002;1.290295e-001
8.215615e+002;1.289368e-001
8.234900e+002;1.290909e-001
8.254185e+002;1.288150e-001
8.273471e+002;1.279069e-001
8.292756e+002;1.272432e-001
8.312042e+002;1.272964e-001
8.331328e+002;1.263569e-001
8.350613e+002;1.252037e-001
8.369898e+002;1.247947e-001
8.389184e+002;1.245643e-001
8.408469e+002;1.236710e-001
8.427755e+002;1.224749e-001
8.447040e+002;1.218733e-001
8.466326e+002;1.217939e-001
8.485611e+002;1.215503e-001
8.504897e+002;1.211585e-001
8.524182e+002;1.212234e-001
8.543467e+002;1.215313e-001
8.562753e+002;1.219199e-001
8.582039e+002;1.227967e-001
8.601324e+002;1.234378e-001
8.620610e+002;1.241391e-001
8.639895e+002;1.251288e-001
8.659180e+002;1.263545e-001
8.678466e+002;1.281821e-001
8.697751e+002;1.301822e-001
8.717037e+002;1.327281e-001
8.736323e+002;1.365193e-001
8.755608e+002;1.404608e-001
8.774893e+002;1.443766e-001
8.794179e+002;1.488527e-001
8.813464e+002;1.537625e-001
8.832750e+002;1.585217e-001
8.852036e+002;1.638015e-001
8.871321e+002;1.693699e-001
8.890606e+002;1.739141e-001
8.909892e+002;1.774286e-001
8.929177e+002;1.804084e-001
8.948463e+002;1.822932e-001
8.967748e+002;1.820434e-001
8.987034e+002;1.805592e-001
9.006319e+002;1.786849e-001
9.025605e+002;1.762215e-001
9.044890e+002;1.730580e-001
9.064175e+002;1.694130e-001
9.083461e+002;1.659772e-001
9.102747e+002;1.629343e-001
9.122032e+002;1.605877e-001
9.141318e+002;1.592591e-001
9.160603e+002;1.583537e-001
9.179888e+002;1.578452e-001
9.199174e+002;1.583747e-001
9.218459e+002;1.594072e-001
9.237745e+002;1.605649e-001
9.257031e+002;1.623224e-001
9.276316e+002;1.643564e-001
9.295601e+002;1.658926e-001
9.314887e+002;1.674726e-001
9.334172e+002;1.690747e-001
9.353458e+002;1.706156e-001
9.372744e+002;1.722915e-001
9.392029e+002;1.742193e-001
9.411314e+002;1.769729e-001
9.430600e+002;1.803614e-001
9.449885e+002;1.840468e-001
9.469171e+002;1.881549e-001
9.488456e+002;1.927476e-001
9.507742e+002;1.975943e-001
9.527027e+002;2.027072e-001
9.546313e+002;2.082797e-001
9.565598e+002;2.136477e-001
9.584883e+002;2.191127e-001
9.604169e+002;2.254135e-001
9.623455e+002;2.315215e-001
9.642740e+002;2.374155e-001
9.662026e+002;2.437838e-001
9.681311e+002;2.506659e-001
9.700596e+002;2.582744e-001
9.719882e+002;2.668203e-001
9.739167e+002;2.762797e-001
9.758453e+002;2.863918e-001
9.777739e+002;2.981139e-001
9.797024e+002;3.117394e-001
9.816309e+002;3.263779e-001
9.835595e+002;3.413027e-001
9.854880e+002;3.564877e-001
9.874166e+002;3.709877e-001
9.893452e+002;3.826795e-001
9.912737e+002;3.915366e-001
9.932022e+002;3.982412e-001
9.951307e+002;4.025080e-001
9.970593e+002;4.046546e-001
9.989879e+002;4.057701e-001
1.000916e+003;4.069999e-001
1.002845e+003;4.097276e-001
1.004773e+003;4.135299e-001
1.006702e+003;4.190021e-001
1.008631e+003;4.265503e-001
1.010559e+003;4.348002e-001
1.012488e+003;4.421062e-001
1.014416e+003;4.486846e-001
1.016345e+003;4.536920e-001
1.018273e+003;4.563112e-001
1.020202e+003;4.576018e-001
1.022130e+003;4.568666e-001
1.024059e+003;4.539045e-001
1.025988e+003;4.495615e-001
1.027916e+003;4.449027e-001
1.029845e+003;4.402593e-001
1.031773e+003;4.349850e-001
1.033702e+003;4.296046e-001
1.035630e+003;4.249087e-001
1.037559e+003;4.207442e-001
1.039487e+003;4.172667e-001
1.041416e+003;4.147575e-001
1.043344e+003;4.116669e-001
1.045273e+003;4.082784e-001
1.047202e+003;4.042731e-001
1.049130e+003;4.010264e-001
1.051059e+003;3.979011e-001
1.052987e+003;3.936952e-001
1.054916e+003;3.892681e-001
1.056844e+003;3.854115e-001
1.058773e+003;3.811414e-001
1.060701e+003;3.758539e-001
1.062630e+003;3.696486e-001
1.064558e+003;3.631839e-001
1.066487e+003;3.558896e-001
1.068416e+003;3.484342e-001
1.070344e+003;3.417661e-001
1.072273e+003;3.346543e-001
1.074201e+003;3.269798e-001
1.076130e+003;3.195871e-001
1.078058e+003;3.127777e-001
1.079987e+003;3.065601e-001
1.081915e+003;3.010724e-001
1.083844e+003;2.962242e-001
1.085773e+003;2.915147e-001
1.087701e+003;2.864638e-001
1.089630e+003;2.809529e-001
1.091558e+003;2.755797e-001
1.093487e+003;2.705981e-001
1.095415e+003;2.659217e-001
1.097344e+003;2.610876e-001
1.099272e+003;2.553234e-001
1.101201e+003;2.494527e-001
1.103129e+003;2.442221e-001
1.105058e+003;2.392665e-001
1.106987e+003;2.348372e-001
1.108915e+003;2.307742e-001
1.110844e+003;2.265666e-001
1.112772e+003;2.223878e-001
1.114701e+003;2.177924e-001
1.116629e+003;2.126323e-001
1.118558e+003;2.074566e-001
1.120486e+003;2.022665e-001
1.122415e+003;1.968020e-001
1.124344e+003;1.913468e-001
1.126272e+003;1.856491e-001
1.128201e+003;1.802619e-001
1.130129e+003;1.752146e-001
1.132058e+003;1.702330e-001
1.133986e+003;1.663021e-001
1.135915e+003;1.632348e-001
1.137843e+003;1.604010e-001
1.139772e+003;1.579210e-001
1.141700e+003;1.561332e-001
1.143629e+003;1.556113e-001
1.145557e+003;1.559027e-001
1.147486e+003;1.561733e-001
1.149415e+003;1.570851e-001
1.151343e+003;1.583621e-001
1.153272e+003;1.592875e-001
1.155200e+003;1.592002e-001
1.157129e+003;1.584349e-001
1.159057e+003;1.563001e-001
1.160986e+003;1.524599e-001
1.162914e+003;1.479694e-001
1.164843e+003;1.428414e-001
1.166771e+003;1.366752e-001
1.168700e+003;1.306705e-001
1.170629e+003;1.246054e-001
1.172557e+003;1.186957e-001
1.174486e+003;1.140808e-001
1.176414e+003;1.103466e-001
1.178343e+003;1.069733e-001
1.180271e+003;1.040636e-001
1.182200e+003;1.018442e-001
1.184128e+003;1.007422e-001
1.186057e+003;1.006102e-001
1.187986e+003;1.014673e-001
1.189914e+003;1.034680e-001
1.191843e+003;1.059377e-001
1.193771e+003;1.084146e-001
1.195700e+003;1.108024e-001
1.197628e+003;1.122085e-001
1.199557e+003;1.124401e-001
1.201485e+003;1.119099e-001
1.203414e+003;1.105010e-001
1.205343e+003;1.082795e-001
1.207271e+003;1.065556e-001
1.209200e+003;1.052510e-001
1.211128e+003;1.041314e-001
1.213057e+003;1.040132e-001
1.214985e+003;1.049029e-001
1.216914e+003;1.059400e-001
1.218842e+003;1.075291e-001
1.220771e+003;1.097656e-001
1.222699e+003;1.116300e-001
1.224628e+003;1.132460e-001
1.226557e+003;1.149546e-001
1.228485e+003;1.162969e-001
1.230414e+003;1.167962e-001
1.232342e+003;1.171576e-001
1.234271e+003;1.175498e-001
1.236199e+003;1.177282e-001
1.238128e+003;1.180951e-001
1.240056e+003;1.181606e-001
1.241985e+003;1.180497e-001
1.243913e+003;1.182191e-001
1.245842e+003;1.184120e-001
1.247771e+003;1.191136e-001
1.249699e+003;1.200463e-001
1.251628e+003;1.211054e-001
1.253556e+003;1.224271e-001
1.255485e+003;1.237682e-001
1.257413e+003;1.251570e-001
1.259342e+003;1.262040e-001
1.261270e+003;1.261398e-001
1.263199e+003;1.248751e-001
1.265127e+003;1.233544e-001
1.267056e+003;1.217039e-001
1.268985e+003;1.199354e-001
1.270913e+003;1.184851e-001
1.272842e+003;1.170023e-001
1.274770e+003;1.157469e-001
1.276699e+003;1.149876e-001
1.278627e+003;1.143946e-001
1.280556e+003;1.137846e-001
1.282484e+003;1.132031e-001
1.284413e+003;1.131680e-001
1.286342e+003;1.138230e-001
1.288270e+003;1.148797e-001
1.290199e+003;1.160060e-001
1.292127e+003;1.175693e-001
1.294056e+003;1.191678e-001
1.295984e+003;1.204677e-001
1.297913e+003;1.217904e-001
1.299841e+003;1.232891e-001
1.301770e+003;1.246030e-001
1.303698e+003;1.257405e-001
1.305627e+003;1.269836e-001
1.307556e+003;1.283349e-001
1.309484e+003;1.295431e-001
1.311413e+003;1.305062e-001
1.313341e+003;1.309827e-001
1.315270e+003;1.312218e-001
1.317198e+003;1.314122e-001
1.319127e+003;1.311198e-001
1.321055e+003;1.307352e-001
1.322984e+003;1.305904e-001
1.324912e+003;1.304899e-001
1.326841e+003;1.306095e-001
1.328770e+003;1.307474e-001
1.330698e+003;1.306830e-001
1.332627e+003;1.307709e-001
1.334555e+003;1.308152e-001
1.336484e+003;1.306523e-001
1.338412e+003;1.303133e-001
1.340341e+003;1.298025e-001
1.342269e+003;1.293283e-001
1.344198e+003;1.290877e-001
1.346126e+003;1.291517e-001
1.348055e+003;1.292291e-001
1.349984e+003;1.294002e-001
1.351912e+003;1.295963e-001
1.353841e+003;1.299647e-001
1.355769e+003;1.304384e-001
1.357698e+003;1.310816e-001
1.359626e+003;1.319072e-001
1.361555e+003;1.324206e-001
1.363483e+003;1.323988e-001
1.365412e+003;1.320004e-001
1.367341e+003;1.315274e-001
1.369269e+003;1.309177e-001
1.371198e+003;1.298345e-001
1.373126e+003;1.284550e-001
1.375055e+003;1.271480e-001
1.376983e+003;1.257057e-001
1.378912e+003;1.239276e-001
1.380840e+003;1.220084e-001
1.382769e+003;1.201461e-001
1.384698e+003;1.183771e-001
1.386626e+003;1.168763e-001
1.388555e+003;1.158481e-001
1.390483e+003;1.152934e-001
1.392412e+003;1.150131e-001
1.394340e+003;1.146685e-001
1.396269e+003;1.143479e-001
1.398197e+003;1.143297e-001
1.400126e+003;1.143555e-001
1.402054e+003;1.140379e-001
1.403983e+003;1.138041e-001
1.405911e+003;1.139161e-001
1.407840e+003;1.139042e-001
1.409769e+003;1.139046e-001
1.411697e+003;1.139422e-001
1.413626e+003;1.139010e-001
1.415554e+003;1.139060e-001
1.417483e+003;1.137222e-001
1.419411e+003;1.132055e-001
1.421340e+003;1.127500e-001
1.423268e+003;1.123635e-001
1.425197e+003;1.118110e-001
1.427125e+003;1.113063e-001
1.429054e+003;1.106672e-001
1.430983e+003;1.099899e-001
1.432911e+003;1.093295e-001
1.434840e+003;1.087433e-001
1.436768e+003;1.078268e-001
1.438697e+003;1.068137e-001
1.440625e+003;1.061254e-001
1.442554e+003;1.054847e-001
1.444482e+003;1.043598e-001
1.446411e+003;1.029838e-001
1.448340e+003;1.016789e-001
1.450268e+003;1.005673e-001
1.452197e+003;9.957252e-002
1.454125e+003;9.849489e-002
1.456054e+003;9.709519e-002
1.457982e+003;9.582090e-002
1.459911e+003;9.503153e-002
1.461839e+003;9.403667e-002
1.463768e+003;9.251285e-002
1.465697e+003;9.082066e-002
1.467625e+003;8.908269e-002
1.469554e+003;8.729079e-002
1.471482e+003;8.539613e-002
1.473411e+003;8.340607e-002
1.475339e+003;8.122206e-002
1.477268e+003;7.884097e-002
1.479196e+003;7.669223e-002
1.481125e+003;7.482953e-002
1.483053e+003;7.289868e-002
1.484982e+003;7.078838e-002
1.486911e+003;6.909473e-002
1.488839e+003;6.775538e-002
1.490768e+003;6.652158e-002
1.492696e+003;6.550891e-002
1.494625e+003;6.462335e-002
1.496553e+003;6.343766e-002
1.498482e+003;6.231770e-002
1.500410e+003;6.132397e-002
1.502339e+003;6.053681e-002
1.504267e+003;5.986368e-002
1.506196e+003;5.898453e-002
1.508125e+003;5.802501e-002
1.510053e+003;5.716571e-002
1.511982e+003;5.634240e-002
1.513910e+003;5.574247e-002
1.515839e+003;5.522095e-002
1.517767e+003;5.457174e-002
1.519696e+003;5.386168e-002
1.521624e+003;5.318820e-002
1.523553e+003;5.274920e-002
1.525481e+003;5.243145e-002
1.527410e+003;5.230481e-002
1.529339e+003;5.236558e-002
1.531267e+003;5.254736e-002
1.533196e+003;5.244618e-002
1.535124e+003;5.224475e-002
1.537053e+003;5.229333e-002
1.538981e+003;5.228298e-002
1.540910e+003;5.235923e-002
1.542838e+003;5.251868e-002
1.544767e+003;5.263469e-002
1.546695e+003;5.276222e-002
1.548624e+003;5.289929e-002
1.550553e+003;5.304269e-002
1.552481e+003;5.324842e-002
1.554410e+003;5.365884e-002
1.556338e+003;5.391048e-002
1.558267e+003;5.408938e-002
1.560195e+003;5.414177e-002
1.562124e+003;5.414384e-002
1.564052e+003;5.452486e-002
1.565981e+003;5.494757e-002
1.567910e+003;5.526761e-002
1.569838e+003;5.567949e-002
1.571767e+003;5.617324e-002
1.573695e+003;5.673962e-002
1.575624e+003;5.705592e-002
1.577552e+003;5.713634e-002
1.579481e+003;5.771171e-002
1.581409e+003;5.843769e-002
1.583338e+003;5.895637e-002
1.585266e+003;5.933301e-002
1.587195e+003;5.993655e-002
1.589124e+003;6.063921e-002
1.591052e+003;6.121783e-002
1.592981e+003;6.196158e-002
1.594909e+003;6.263362e-002
1.596838e+003;6.322332e-002
1.598766e+003;6.360239e-002
1.600695e+003;6.392051e-002
1.602623e+003;6.419922e-002
1.604552e+003;6.433095e-002
1.606480e+003;6.465549e-002
1.608409e+003;6.535644e-002
1.610338e+003;6.604201e-002
1.612266e+003;6.642767e-002
1.614195e+003;6.676526e-002
1.616123e+003;6.716532e-002
1.618052e+003;6.758942e-002
1.619980e+003;6.818129e-002
1.621909e+003;6.896096e-002
1.623837e+003;6.967901e-002
1.625766e+003;7.021586e-002
1.627694e+003;7.054954e-002
1.629623e+003;7.079685e-002
1.631552e+003;7.113738e-002
1.633480e+003;7.153955e-002
1.635409e+003;7.162727e-002
1.637337e+003;7.160042e-002
1.639266e+003;7.166153e-002
1.641194e+003;7.167239e-002
1.643123e+003;7.160808e-002
1.645051e+003;7.146880e-002
1.646980e+003;7.106011e-002
1.648909e+003;7.050409e-002
1.650837e+003;6.996479e-002
1.652766e+003;6.907776e-002
1.654694e+003;6.834294e-002
1.656623e+003;6.766418e-002
1.658551e+003;6.678206e-002
1.660480e+003;6.589521e-002
1.662408e+003;6.491074e-002
1.664337e+003;6.403545e-002
1.666266e+003;6.326695e-002
1.668194e+003;6.233682e-002
1.670123e+003;6.117292e-002
1.672051e+003;5.997497e-002
1.673980e+003;5.878129e-002
1.675908e+003;5.744280e-002
1.677837e+003;5.641559e-002
1.679765e+003;5.537947e-002
1.681694e+003;5.409970e-002
1.683622e+003;5.293402e-002
1.685551e+003;5.189631e-002
1.687479e+003;5.089459e-002
1.689408e+003;4.985062e-002
1.691337e+003;4.880563e-002
1.693265e+003;4.781083e-002
1.695194e+003;4.681022e-002
1.697122e+003;4.587742e-002
1.699051e+003;4.490873e-002
1.700979e+003;4.397662e-002
1.702908e+003;4.338386e-002
1.704836e+003;4.299153e-002
1.706765e+003;4.255467e-002
1.708693e+003;4.189461e-002
1.710622e+003;4.119505e-002
1.712551e+003;4.063161e-002
1.714479e+003;4.026230e-002
1.716408e+003;3.977457e-002
1.718336e+003;3.934398e-002
1.720265e+003;3.915434e-002
1.722193e+003;3.912678e-002
1.724122e+003;3.911836e-002
1.726050e+003;3.902708e-002
1.727979e+003;3.877102e-002
1.729908e+003;3.846760e-002
1.731836e+003;3.825583e-002
1.733765e+003;3.787497e-002
1.735693e+003;3.754075e-002
1.737622e+003;3.740935e-002
1.739550e+003;3.712681e-002
1.741479e+003;3.671589e-002
1.743407e+003;3.619593e-002
1.745336e+003;3.558966e-002
1.747265e+003;3.498981e-002
1.749193e+003;3.445039e-002
1.751122e+003;3.396115e-002
1.753050e+003;3.373968e-002
1.754979e+003;3.371780e-002
1.756907e+003;3.350712e-002
1.758836e+003;3.314903e-002
1.760764e+003;3.301630e-002
1.762693e+003;3.300990e-002
1.764621e+003;3.287653e-002
1.766550e+003;3.274575e-002
1.768479e+003;3.258689e-002
1.770407e+003;3.250543e-002
1.772336e+003;3.236758e-002
1.774264e+003;3.226142e-002
1.776193e+003;3.230729e-002
1.778121e+003;3.233963e-002
1.780050e+003;3.224422e-002
1.781978e+003;3.209893e-002
1.783907e+003;3.186816e-002
1.785835e+003;3.164358e-002
1.787764e+003;3.149343e-002
1.789693e+003;3.132107e-002
1.791621e+003;3.117790e-002
1.793550e+003;3.119103e-002
1.795478e+003;3.125334e-002
1.797407e+003;3.102563e-002
1.799335e+003;3.074059e-002
1.801264e+003;3.066037e-002
1.803192e+003;3.046427e-002
1.805121e+003;3.024671e-002
1.807049e+003;3.029126e-002
1.808978e+003;3.032227e-002
1.810907e+003;3.029644e-002
1.812835e+003;3.037223e-002
1.814764e+003;3.025211e-002
1.816692e+003;3.011351e-002
1.818621e+003;3.006380e-002
1.820549e+003;3.000873e-002
1.822478e+003;2.994010e-002
1.824406e+003;2.979976e-002
1.826335e+003;2.969285e-002
1.828264e+003;2.947298e-002
1.830192e+003;2.938054e-002
1.832121e+003;2.949610e-002
1.834049e+003;2.935537e-002
1.835978e+003;2.916993e-002
1.837906e+003;2.902573e-002
1.839835e+003;2.881401e-002
1.841763e+003;2.862816e-002
1.843692e+003;2.849069e-002
1.845620e+003;2.847116e-002
1.847549e+003;2.850976e-002
1.849478e+003;2.855052e-002
1.851406e+003;2.845198e-002
1.853335e+003;2.824547e-002
1.855263e+003;2.802551e-002
1.857192e+003;2.792992e-002
1.859120e+003;2.791596e-002
1.861049e+003;2.789147e-002
1.862977e+003;2.780654e-002
1.864906e+003;2.774416e-002
1.866834e+003;2.774614e-002
1.868763e+003;2.768105e-002
1.870692e+003;2.757364e-002
1.872620e+003;2.737961e-002
1.874549e+003;2.748461e-002
1.876477e+003;2.773463e-002
1.878406e+003;2.762558e-002
1.880334e+003;2.737205e-002
1.882263e+003;2.738299e-002
1.884191e+003;2.741701e-002
1.886120e+003;2.734961e-002
1.888048e+003;2.738141e-002
1.889977e+003;2.756414e-002
1.891906e+003;2.750074e-002
1.893834e+003;2.724302e-002
1.895763e+003;2.724390e-002
1.897691e+003;2.729414e-002
1.899620e+003;2.735095e-002
1.901548e+003;2.734770e-002
1.903477e+003;2.752707e-002
1.905405e+003;2.767247e-002
1.907334e+003;2.760093e-002
1.909262e+003;2.774667e-002
1.911191e+003;2.794536e-002
1.913120e+003;2.804604e-002
1.915048e+003;2.824013e-002
1.916977e+003;2.844070e-002
1.918905e+003;2.853474e-002
1.920834e+003;2.858425e-002
1.922762e+003;2.862894e-002
1.924691e+003;2.875436e-002
1.926619e+003;2.888713e-002
1.928548e+003;2.908517e-002
1.930477e+003;2.922234e-002
1.932405e+003;2.931903e-002
1.934334e+003;2.945255e-002
1.936262e+003;2.951092e-002
1.938191e+003;2.963659e-002
1.940119e+003;2.972879e-002
1.942048e+003;2.972776e-002
1.943976e+003;2.993886e-002
1.945905e+003;3.027420e-002
1.947833e+003;3.044426e-002
1.949762e+003;3.057351e-002
1.951691e+003;3.065806e-002
1.953619e+003;3.082315e-002
1.955548e+003;3.109528e-002
1.957476e+003;3.115106e-002
1.959405e+003;3.113483e-002
1.961333e+003;3.112931e-002
1.963262e+003;3.105335e-002
1.965190e+003;3.108197e-002
1.967119e+003;3.143575e-002
1.969047e+003;3.176391e-002
1.970976e+003;3.197632e-002
1.972905e+003;3.209836e-002
1.974833e+003;3.206229e-002
1.976762e+003;3.217924e-002
1.978690e+003;3.233631e-002
1.980619e+003;3.237336e-002
1.982547e+003;3.243219e-002
1.984476e+003;3.242070e-002
1.986404e+003;3.228241e-002
1.988333e+003;3.240513e-002
1.990261e+003;3.264121e-002
1.992190e+003;3.280542e-002
1.994119e+003;3.285698e-002
1.996047e+003;3.289394e-002
1.997976e+003;3.305748e-002
1.999904e+003;3.312868e-002
2.001833e+003;3.313458e-002
2.003761e+003;3.324420e-002
2.005690e+003;3.336787e-002
2.007618e+003;3.344105e-002
2.009547e+003;3.353418e-002
2.011476e+003;3.363581e-002
2.013404e+003;3.385229e-002
2.015333e+003;3.418794e-002
2.017261e+003;3.440330e-002
2.019190e+003;3.462030e-002
2.021118e+003;3.478694e-002
2.023047e+003;3.487623e-002
2.024975e+003;3.496348e-002
2.026904e+003;3.505449e-002
2.028833e+003;3.523312e-002
2.030761e+003;3.530050e-002
2.032690e+003;3.531391e-002
2.034618e+003;3.549081e-002
2.036547e+003;3.570868e-002
2.038475e+003;3.583857e-002
2.040404e+003;3.592674e-002
2.042332e+003;3.616489e-002
2.044261e+003;3.631998e-002
2.046189e+003;3.631357e-002
2.048118e+003;3.618480e-002
2.050047e+003;3.602166e-002
2.051975e+003;3.608193e-002
2.053904e+003;3.614793e-002
2.055832e+003;3.615855e-002
2.057761e+003;3.619100e-002
2.059689e+003;3.609604e-002
2.061618e+003;3.601798e-002
2.063546e+003;3.601079e-002
2.065475e+003;3.626299e-002
2.067404e+003;3.642486e-002
2.069332e+003;3.638789e-002
2.071260e+003;3.637261e-002
2.073189e+003;3.632506e-002
2.075118e+003;3.642144e-002
2.077046e+003;3.648486e-002
2.078975e+003;3.647866e-002
2.080903e+003;3.658732e-002
2.082832e+003;3.665874e-002
2.084760e+003;3.644075e-002
2.086689e+003;3.626180e-002
2.088617e+003;3.642951e-002
2.090546e+003;3.665708e-002
2.092475e+003;3.678324e-002
2.094403e+003;3.689747e-002
2.096332e+003;3.708278e-002
2.098260e+003;3.702894e-002
2.100189e+003;3.685895e-002
2.102117e+003;3.701216e-002
2.104046e+003;3.723564e-002
2.105974e+003;3.728961e-002
2.107903e+003;3.727943e-002
2.109832e+003;3.730524e-002
2.111760e+003;3.748928e-002
2.113688e+003;3.763415e-002
2.115617e+003;3.752193e-002
2.117546e+003;3.735720e-002
2.119474e+003;3.762454e-002
2.121403e+003;3.760087e-002
2.123331e+003;3.751947e-002
2.125260e+003;3.776248e-002
2.127188e+003;3.774079e-002
2.129117e+003;3.780119e-002
2.131045e+003;3.799636e-002
2.132974e+003;3.795687e-002
2.134903e+003;3.785382e-002
2.136831e+003;3.775449e-002
2.138760e+003;3.751276e-002
2.140688e+003;3.755087e-002
2.142617e+003;3.747978e-002
2.144545e+003;3.732232e-002
2.146474e+003;3.735601e-002
2.148402e+003;3.727170e-002
2.150331e+003;3.711396e-002
2.152260e+003;3.680683e-002
2.154188e+003;3.681184e-002
2.156117e+003;3.696443e-002
2.158045e+003;3.673683e-002
2.159974e+003;3.665686e-002
2.161902e+003;3.680272e-002
2.163831e+003;3.674055e-002
2.165759e+003;3.665322e-002
2.167688e+003;3.663210e-002
2.169616e+003;3.644738e-002
2.171545e+003;3.628255e-002
2.173474e+003;3.625928e-002
2.175402e+003;3.604387e-002
2.177331e+003;3.585771e-002
2.179259e+003;3.575930e-002
2.181188e+003;3.552022e-002
2.183116e+003;3.542847e-002
2.185045e+003;3.548653e-002
2.186973e+003;3.539770e-002
2.188902e+003;3.533227e-002
2.190831e+003;3.511484e-002
2.192759e+003;3.492722e-002
2.194688e+003;3.483828e-002
2.196616e+003;3.463282e-002
2.198545e+003;3.448658e-002
2.200473e+003;3.453584e-002
2.202402e+003;3.449720e-002
2.204330e+003;3.446424e-002
2.206259e+003;3.457782e-002
2.208188e+003;3.441761e-002
2.210116e+003;3.425943e-002
2.212044e+003;3.427721e-002
2.213973e+003;3.416080e-002
2.215902e+003;3.413170e-002
2.217830e+003;3.422967e-002
2.219759e+003;3.419543e-002
2.221687e+003;3.390641e-002
2.223616e+003;3.371315e-002
2.225544e+003;3.382445e-002
2.227473e+003;3.385304e-002
2.229401e+003;3.369771e-002
2.231330e+003;3.345079e-002
2.233259e+003;3.341890e-002
2.235187e+003;3.357237e-002
2.237116e+003;3.349999e-002
2.239044e+003;3.326831e-002
2.240973e+003;3.309700e-002
2.242901e+003;3.301519e-002
2.244830e+003;3.296539e-002
2.246758e+003;3.300189e-002
2.248687e+003;3.307136e-002
2.250615e+003;3.294255e-002
2.252544e+003;3.270659e-002
2.254473e+003;3.248650e-002
2.256401e+003;3.237250e-002
2.258330e+003;3.234594e-002
2.260258e+003;3.228173e-002
2.262187e+003;3.214088e-002
2.264115e+003;3.207124e-002
2.266044e+003;3.202530e-002
2.267972e+003;3.200101e-002
2.269901e+003;3.198703e-002
2.271830e+003;3.191199e-002
2.273758e+003;3.177486e-002
2.275687e+003;3.153259e-002
2.277615e+003;3.132399e-002
2.279544e+003;3.138350e-002
2.281472e+003;3.146126e-002
2.283401e+003;3.127171e-002
2.285329e+003;3.122386e-002
2.287258e+003;3.143964e-002
2.289187e+003;3.136046e-002
2.291115e+003;3.119623e-002
2.293043e+003;3.114148e-002
2.294972e+003;3.105990e-002
2.296901e+003;3.106385e-002
2.298829e+003;3.111037e-002
2.300758e+003;3.109005e-002
2.302686e+003;3.094471e-002
2.304615e+003;3.097716e-002
2.306543e+003;3.114493e-002
2.308472e+003;3.111966e-002
2.310400e+003;3.112585e-002
2.312329e+003;3.133200e-002
2.314258e+003;3.137538e-002
2.316186e+003;3.119577e-002
2.318115e+003;3.109332e-002
2.320043e+003;3.130423e-002
2.321972e+003;3.142510e-002
2.323900e+003;3.120684e-002
2.325829e+003;3.122350e-002
2.327757e+003;3.160955e-002
2.329686e+003;3.165175e-002
2.331615e+003;3.147701e-002
2.333543e+003;3.155361e-002
2.335472e+003;3.186071e-002
2.337400e+003;3.208783e-002
2.339329e+003;3.202697e-002
2.341257e+003;3.211591e-002
2.343186e+003;3.230040e-002
2.345114e+003;3.249439e-002
2.347043e+003;3.251775e-002
2.348971e+003;3.241577e-002
2.350900e+003;3.244962e-002
2.352829e+003;3.269358e-002
2.354757e+003;3.302831e-002
2.356686e+003;3.340437e-002
2.358614e+003;3.350211e-002
2.360543e+003;3.347208e-002
2.362471e+003;3.335428e-002
2.364400e+003;3.336805e-002
2.366328e+003;3.342985e-002
2.368257e+003;3.324681e-002
2.370186e+003;3.339900e-002
2.372114e+003;3.361569e-002
2.374042e+003;3.345823e-002
2.375971e+003;3.359109e-002
2.377900e+003;3.383312e-002
2.379828e+003;3.397914e-002
2.381757e+003;3.427954e-002
2.383685e+003;3.441291e-002
2.385614e+003;3.433720e-002
2.387542e+003;3.452085e-002
2.389471e+003;3.472226e-002
2.391399e+003;3.454994e-002
2.393328e+003;3.450111e-002
2.395257e+003;3.475869e-002
2.397185e+003;3.502012e-002
2.399114e+003;3.509070e-002
2.401042e+003;3.515677e-002
2.402971e+003;3.527649e-002
2.404899e+003;3.537656e-002
2.406828e+003;3.567724e-002
2.408756e+003;3.577207e-002
2.410685e+003;3.583587e-002
2.412614e+003;3.626159e-002
2.414542e+003;3.646990e-002
2.416471e+003;3.671066e-002
2.418399e+003;3.700430e-002
2.420328e+003;3.705174e-002
2.422256e+003;3.719369e-002
2.424185e+003;3.740064e-002
2.426113e+003;3.757511e-002
2.428042e+003;3.790950e-002
2.429970e+003;3.814679e-002
2.431899e+003;3.831167e-002
2.433828e+003;3.856442e-002
2.435756e+003;3.877554e-002
2.437685e+003;3.896901e-002
2.439613e+003;3.926817e-002
2.441542e+003;3.944328e-002
2.443470e+003;3.956779e-002
2.445399e+003;3.988969e-002
2.447327e+003;4.026259e-002
2.449256e+003;4.027375e-002
2.451185e+003;4.043755e-002
2.453113e+003;4.073092e-002
2.455042e+003;4.079453e-002
2.456970e+003;4.093651e-002
2.458899e+003;4.125287e-002
2.460827e+003;4.159196e-002
2.462756e+003;4.180577e-002
2.464684e+003;4.183080e-002
2.466613e+003;4.210842e-002
2.468542e+003;4.260192e-002
2.470470e+003;4.296402e-002
2.472398e+003;4.313250e-002
2.474327e+003;4.318304e-002
2.476256e+003;4.338192e-002
2.478184e+003;4.357991e-002
2.480113e+003;4.367941e-002
2.482041e+003;4.380774e-002
2.483970e+003;4.396328e-002
2.485898e+003;4.410449e-002
2.487827e+003;4.413849e-002
2.489755e+003;4.429576e-002
2.491684e+003;4.444457e-002
2.493613e+003;4.438687e-002
2.495541e+003;4.454827e-002
2.497470e+003;4.494455e-002
2.499398e+003;4.520138e-002
2.501327e+003;4.536293e-002
2.503255e+003;4.555163e-002
2.505184e+003;4.553717e-002
2.507112e+003;4.550060e-002
2.509041e+003;4.563068e-002
2.510969e+003;4.558026e-002
2.512898e+003;4.565125e-002
2.514827e+003;4.598865e-002
2.516755e+003;4.596301e-002
2.518684e+003;4.606571e-002
2.520612e+003;4.629533e-002
2.522541e+003;4.640991e-002
2.524469e+003;4.674446e-002
2.526398e+003;4.693206e-002
2.528326e+003;4.672560e-002
2.530255e+003;4.673010e-002
2.532184e+003;4.699538e-002
2.534112e+003;4.715597e-002
2.536041e+003;4.714005e-002
2.537969e+003;4.729889e-002
2.539898e+003;4.762951e-002
2.541826e+003;4.752056e-002
2.543755e+003;4.745824e-002
2.545683e+003;4.766053e-002
2.547612e+003;4.779086e-002
2.549541e+003;4.792607e-002
2.551469e+003;4.786872e-002
2.553397e+003;4.792596e-002
2.555326e+003;4.816989e-002
2.557255e+003;4.845208e-002
2.559183e+003;4.862497e-002
2.561112e+003;4.845705e-002
2.563040e+003;4.842889e-002
2.564969e+003;4.870903e-002
2.566897e+003;4.883129e-002
2.568826e+003;4.886967e-002
2.570754e+003;4.924545e-002
2.572683e+003;4.947732e-002
2.574612e+003;4.929285e-002
2.576540e+003;4.936200e-002
2.578469e+003;4.974668e-002
2.580397e+003;5.000254e-002
2.582326e+003;5.007835e-002
2.584254e+003;5.005110e-002
2.586183e+003;5.019408e-002
2.588111e+003;5.053126e-002
2.590040e+003;5.080661e-002
2.591969e+003;5.103111e-002
2.593897e+003;5.110818e-002
2.595826e+003;5.110982e-002
2.597754e+003;5.110230e-002
2.599683e+003;5.118139e-002
2.601611e+003;5.147017e-002
2.603540e+003;5.156597e-002
2.605468e+003;5.171775e-002
2.607397e+003;5.200374e-002
2.609325e+003;5.211035e-002
2.611254e+003;5.227943e-002
2.613183e+003;5.251068e-002
2.615111e+003;5.288495e-002
2.617040e+003;5.340127e-002
2.618968e+003;5.360129e-002
2.620897e+003;5.378528e-002
2.622825e+003;5.427357e-002
2.624754e+003;5.472735e-002
2.626682e+003;5.469860e-002
2.628611e+003;5.457234e-002
2.630540e+003;5.511783e-002
2.632468e+003;5.556274e-002
2.634396e+003;5.559377e-002
2.636325e+003;5.572217e-002
2.638254e+003;5.603814e-002
2.640182e+003;5.641510e-002
2.642111e+003;5.671361e-002
2.644039e+003;5.692460e-002
2.645968e+003;5.699241e-002
2.647896e+003;5.736142e-002
2.649825e+003;5.784406e-002
2.651753e+003;5.835805e-002
2.653682e+003;5.857940e-002
2.655611e+003;5.843424e-002
2.657539e+003;5.871074e-002
2.659468e+003;5.906731e-002
2.661396e+003;5.919857e-002
2.663325e+003;5.936268e-002
2.665253e+003;5.972686e-002
2.667182e+003;5.991141e-002
2.669110e+003;6.008279e-002
2.671039e+003;6.037469e-002
2.672968e+003;6.077757e-002
2.674896e+003;6.115553e-002
2.676825e+003;6.138083e-002
2.678753e+003;6.153264e-002
2.680682e+003;6.172528e-002
2.682610e+003;6.207525e-002
2.684539e+003;6.268047e-002
2.686467e+003;6.298355e-002
2.688396e+003;6.301937e-002
2.690324e+003;6.330144e-002
2.692253e+003;6.341305e-002
2.694182e+003;6.334814e-002
2.696110e+003;6.363626e-002
2.698039e+003;6.415769e-002
2.699967e+003;6.423368e-002
2.701896e+003;6.429837e-002
2.703824e+003;6.464899e-002
2.705753e+003;6.485311e-002
2.707681e+003;6.498466e-002
2.709610e+003;6.511705e-002
2.711539e+003;6.526459e-002
2.713467e+003;6.560119e-002
2.715396e+003;6.582322e-002
2.717324e+003;6.608448e-002
2.719253e+003;6.647944e-002
2.721181e+003;6.665642e-002
2.723110e+003;6.670691e-002
2.725038e+003;6.689008e-002
2.726967e+003;6.729089e-002
2.728896e+003;6.742588e-002
2.730824e+003;6.744183e-002
2.732752e+003;6.759964e-002
2.734681e+003;6.787413e-002
2.736610e+003;6.823328e-002
2.738538e+003;6.832921e-002
2.740467e+003;6.823153e-002
2.742395e+003;6.830078e-002
2.744324e+003;6.866633e-002
2.746252e+003;6.881163e-002
2.748181e+003;6.876818e-002
2.750109e+003;6.886097e-002
2.752038e+003;6.919322e-002
2.753967e+003;6.972068e-002
2.755895e+003;6.988025e-002
2.757824e+003;6.976320e-002
2.759752e+003;7.010117e-002
2.761681e+003;7.052495e-002
2.763609e+003;7.069752e-002
2.765538e+003;7.082848e-002
2.767466e+003;7.106112e-002
2.769395e+003;7.130852e-002
2.771323e+003;7.155002e-002
2.773252e+003;7.177288e-002
2.775181e+003;7.236297e-002
2.777109e+003;7.303249e-002
2.779038e+003;7.310369e-002
2.780966e+003;7.302242e-002
2.782895e+003;7.328028e-002
2.784823e+003;7.384815e-002
2.786752e+003;7.430846e-002
2.788680e+003;7.462544e-002
2.790609e+003;7.511762e-002
2.792538e+003;7.551636e-002
2.794466e+003;7.601709e-002
2.796395e+003;7.643308e-002
2.798323e+003;7.678887e-002
2.800252e+003;7.717117e-002
2.802180e+003;7.749424e-002
2.804109e+003;7.772902e-002
2.806037e+003;7.808585e-002
2.807966e+003;7.840730e-002
2.809895e+003;7.882699e-002
2.811823e+003;7.950290e-002
2.813751e+003;8.024678e-002
2.815680e+003;8.076665e-002
2.817609e+003;8.118814e-002
2.819537e+003;8.153984e-002
2.821466e+003;8.189514e-002
2.823394e+003;8.237521e-002
2.825323e+003;8.298679e-002
2.827251e+003;8.370283e-002
2.829180e+003;8.450281e-002
2.831108e+003;8.523645e-002
2.833037e+003;8.598121e-002
2.834966e+003;8.661330e-002
2.836894e+003;8.730740e-002
2.838823e+003;8.823133e-002
2.840751e+003;8.936826e-002
2.842680e+003;9.032857e-002
2.844608e+003;9.141898e-002
2.846537e+003;9.276786e-002
2.848465e+003;9.424734e-002
2.850394e+003;9.551474e-002
2.852323e+003;9.647626e-002
2.854251e+003;9.731763e-002
2.856180e+003;9.838628e-002
2.858108e+003;9.977143e-002
2.860037e+003;1.011000e-001
2.861965e+003;1.024593e-001
2.863894e+003;1.039318e-001
2.865822e+003;1.051189e-001
2.867751e+003;1.061812e-001
2.869679e+003;1.070590e-001
2.871608e+003;1.077915e-001
2.873536e+003;1.088218e-001
2.875465e+003;1.095846e-001
2.877394e+003;1.097151e-001
2.879322e+003;1.098721e-001
2.881251e+003;1.101477e-001
2.883179e+003;1.105158e-001
2.885108e+003;1.110515e-001
2.887036e+003;1.112190e-001
2.888965e+003;1.112965e-001
2.890893e+003;1.114797e-001
2.892822e+003;1.114719e-001
2.894750e+003;1.112107e-001
2.896679e+003;1.107549e-001
2.898608e+003;1.103965e-001
2.900536e+003;1.097564e-001
2.902465e+003;1.091201e-001
2.904393e+003;1.090274e-001
2.906322e+003;1.088146e-001
2.908250e+003;1.080750e-001
2.910179e+003;1.073629e-001
2.912107e+003;1.070970e-001
2.914036e+003;1.071451e-001
2.915965e+003;1.069972e-001
2.917893e+003;1.063896e-001
2.919822e+003;1.055319e-001
2.921750e+003;1.045286e-001
2.923679e+003;1.034727e-001
2.925607e+003;1.025553e-001
2.927536e+003;1.017094e-001
2.929464e+003;1.010234e-001
2.931393e+003;1.001408e-001
2.933322e+003;9.896170e-002
2.935250e+003;9.772629e-002
2.937178e+003;9.686868e-002
2.939107e+003;9.562639e-002
2.941036e+003;9.416704e-002
2.942964e+003;9.308358e-002
2.944893e+003;9.227888e-002
2.946821e+003;9.107886e-002
2.948750e+003;8.951254e-002
2.950678e+003;8.831175e-002
2.952607e+003;8.746413e-002
2.954535e+003;8.683728e-002
2.956464e+003;8.609358e-002
2.958393e+003;8.505645e-002
2.960321e+003;8.390485e-002
2.962250e+003;8.312535e-002
2.964178e+003;8.236624e-002
2.966107e+003;8.120384e-002
2.968035e+003;8.053202e-002
2.969964e+003;8.017859e-002
2.971892e+003;7.975879e-002
2.973821e+003;7.923340e-002
2.975750e+003;7.831424e-002
2.977678e+003;7.744295e-002
2.979607e+003;7.703295e-002
2.981535e+003;7.702713e-002
2.983464e+003;7.671911e-002
2.985392e+003;7.632156e-002
2.987321e+003;7.592927e-002
2.989249e+003;7.561745e-002
2.991178e+003;7.537251e-002
2.993106e+003;7.509383e-002
2.995035e+003;7.478631e-002
2.996964e+003;7.447308e-002
2.998892e+003;7.408611e-002
3.000821e+003;7.433748e-002
3.002749e+003;7.450707e-002
3.004678e+003;7.446352e-002
3.006606e+003;7.447068e-002
3.008535e+003;7.454436e-002
3.010463e+003;7.487150e-002
3.012392e+003;7.526509e-002
3.014321e+003;7.547792e-002
3.016249e+003;7.570285e-002
3.018177e+003;7.608665e-002
3.020106e+003;7.632749e-002
3.022035e+003;7.655851e-002
3.023963e+003;7.699469e-002
3.025892e+003;7.752810e-002
3.027820e+003;7.797593e-002
3.029749e+003;7.843040e-002
3.031677e+003;7.889561e-002
3.033606e+003;7.914601e-002
3.035534e+003;7.939035e-002
3.037463e+003;8.011722e-002
3.039392e+003;8.091939e-002
3.041320e+003;8.140305e-002
3.043249e+003;8.156522e-002
3.045177e+003;8.187702e-002
3.047106e+003;8.252015e-002
3.049034e+003;8.301807e-002
3.050963e+003;8.342851e-002
3.052891e+003;8.379983e-002
3.054820e+003;8.404419e-002
3.056749e+003;8.487493e-002
3.058677e+003;8.568402e-002
3.060606e+003;8.610219e-002
3.062534e+003;8.642672e-002
3.064463e+003;8.700395e-002
3.066391e+003;8.769292e-002
3.068320e+003;8.807623e-002
3.070248e+003;8.850614e-002
3.072177e+003;8.919868e-002
3.074105e+003;8.947427e-002
3.076034e+003;8.972282e-002
3.077963e+003;9.045872e-002
3.079891e+003;9.102663e-002
3.081820e+003;9.155241e-002
3.083748e+003;9.224737e-002
3.085677e+003;9.294759e-002
3.087605e+003;9.352616e-002
3.089534e+003;9.416856e-002
3.091462e+003;9.479715e-002
3.093391e+003;9.550761e-002
3.095320e+003;9.596519e-002
3.097248e+003;9.658758e-002
3.099177e+003;9.722200e-002
3.101105e+003;9.760780e-002
3.103034e+003;9.788661e-002
3.104962e+003;9.826769e-002
3.106891e+003;9.895359e-002
3.108819e+003;9.973133e-002
3.110748e+003;1.003607e-001
3.112677e+003;1.009413e-001
3.114605e+003;1.016553e-001
3.116533e+003;1.024250e-001
3.118462e+003;1.031273e-001
3.120391e+003;1.033945e-001
3.122319e+003;1.034008e-001
3.124248e+003;1.040427e-001
3.126176e+003;1.051820e-001
3.128105e+003;1.061355e-001
3.130033e+003;1.064407e-001
3.131962e+003;1.066131e-001
3.133890e+003;1.073782e-001
3.135819e+003;1.081272e-001
3.137748e+003;1.089393e-001
3.139676e+003;1.095694e-001
3.141605e+003;1.096723e-001
3.143533e+003;1.102196e-001
3.145462e+003;1.109191e-001
3.147390e+003;1.114596e-001
3.149319e+003;1.122635e-001
3.151247e+003;1.130405e-001
3.153176e+003;1.135678e-001
3.155104e+003;1.140116e-001
3.157033e+003;1.146669e-001
3.158962e+003;1.151901e-001
3.160890e+003;1.161760e-001
3.162819e+003;1.170844e-001
3.164747e+003;1.173340e-001
3.166676e+003;1.177702e-001
3.168604e+003;1.183858e-001
3.170533e+003;1.187621e-001
3.172461e+003;1.190891e-001
3.174390e+003;1.196401e-001
3.176319e+003;1.205366e-001
3.178247e+003;1.212739e-001
3.180176e+003;1.217871e-001
3.182104e+003;1.224219e-001
3.184033e+003;1.228737e-001
3.185961e+003;1.236803e-001
3.187890e+003;1.242949e-001
3.189818e+003;1.245696e-001
3.191747e+003;1.247700e-001
3.193676e+003;1.249529e-001
3.195604e+003;1.255339e-001
3.197532e+003;1.260643e-001
3.199461e+003;1.268870e-001
3.201390e+003;1.278616e-001
3.203318e+003;1.285414e-001
3.205247e+003;1.289458e-001
3.207175e+003;1.297028e-001
3.209104e+003;1.301002e-001
3.211032e+003;1.304232e-001
3.212961e+003;1.312433e-001
3.214889e+003;1.320294e-001
3.216818e+003;1.321470e-001
3.218747e+003;1.323499e-001
3.220675e+003;1.328855e-001
3.222604e+003;1.335348e-001
3.224532e+003;1.340792e-001
3.226461e+003;1.344383e-001
3.228389e+003;1.345081e-001
3.230318e+003;1.349449e-001
3.232246e+003;1.358600e-001
3.234175e+003;1.365267e-001
3.236104e+003;1.367267e-001
3.238032e+003;1.368020e-001
3.239961e+003;1.373250e-001
3.241889e+003;1.378688e-001
3.243818e+003;1.379959e-001
3.245746e+003;1.387301e-001
3.247675e+003;1.396143e-001
3.249603e+003;1.399828e-001
3.251532e+003;1.403522e-001
3.253460e+003;1.407563e-001
3.255389e+003;1.412840e-001
3.257318e+003;1.415854e-001
3.259246e+003;1.420246e-001
3.261175e+003;1.426917e-001
3.263103e+003;1.427498e-001
3.265032e+003;1.426368e-001
3.266960e+003;1.429832e-001
3.268889e+003;1.433317e-001
3.270817e+003;1.433609e-001
3.272746e+003;1.436702e-001
3.274675e+003;1.440679e-001
3.276603e+003;1.440847e-001
3.278531e+003;1.444618e-001
3.280460e+003;1.450492e-001
3.282389e+003;1.452076e-001
3.284317e+003;1.453616e-001
3.286246e+003;1.456890e-001
3.288174e+003;1.457486e-001
3.290103e+003;1.457224e-001
3.292031e+003;1.463039e-001
3.293960e+003;1.468363e-001
3.295888e+003;1.467267e-001
3.297817e+003;1.468064e-001
3.299746e+003;1.471105e-001
3.301674e+003;1.474067e-001
3.303603e+003;1.473440e-001
3.305531e+003;1.473403e-001
3.307460e+003;1.474779e-001
3.309388e+003;1.481778e-001
3.311317e+003;1.486759e-001
3.313245e+003;1.483243e-001
3.315174e+003;1.476826e-001
3.317103e+003;1.478962e-001
3.319031e+003;1.483806e-001
3.320960e+003;1.486769e-001
3.322888e+003;1.488371e-001
3.324817e+003;1.490372e-001
3.326745e+003;1.491139e-001
3.328674e+003;1.490326e-001
3.330602e+003;1.489709e-001
3.332531e+003;1.489042e-001
3.334459e+003;1.489333e-001
3.336388e+003;1.489684e-001
3.338317e+003;1.489362e-001
3.340245e+003;1.489938e-001
3.342174e+003;1.491380e-001
3.344102e+003;1.493283e-001
3.346031e+003;1.492145e-001
3.347959e+003;1.491064e-001
3.349888e+003;1.491222e-001
3.351816e+003;1.489504e-001
3.353745e+003;1.487712e-001
3.355674e+003;1.484365e-001
3.357602e+003;1.479739e-001
3.359531e+003;1.479893e-001
3.361459e+003;1.480938e-001
3.363388e+003;1.480080e-001
3.365316e+003;1.478053e-001
3.367245e+003;1.474869e-001
3.369173e+003;1.472308e-001
3.371102e+003;1.471096e-001
3.373031e+003;1.467496e-001
3.374959e+003;1.460342e-001
3.376887e+003;1.458508e-001
3.378816e+003;1.461952e-001
3.380745e+003;1.459268e-001
3.382673e+003;1.454668e-001
3.384602e+003;1.452071e-001
3.386530e+003;1.449307e-001
3.388459e+003;1.448134e-001
3.390387e+003;1.440682e-001
3.392316e+003;1.433852e-001
3.394244e+003;1.432619e-001
3.396173e+003;1.429140e-001
3.398102e+003;1.422490e-001
3.400030e+003;1.419585e-001
3.401959e+003;1.416728e-001
3.403887e+003;1.411528e-001
3.405816e+003;1.406923e-001
3.407744e+003;1.403343e-001
3.409673e+003;1.394599e-001
3.411601e+003;1.385733e-001
3.413530e+003;1.385677e-001
3.415458e+003;1.388352e-001
3.417387e+003;1.384758e-001
3.419316e+003;1.375135e-001
3.421244e+003;1.365681e-001
3.423173e+003;1.361791e-001
3.425101e+003;1.357747e-001
3.427030e+003;1.349495e-001
3.428958e+003;1.344688e-001
3.430887e+003;1.344660e-001
3.432815e+003;1.340981e-001
3.434744e+003;1.334331e-001
3.436673e+003;1.327116e-001
3.438601e+003;1.316200e-001
3.440530e+003;1.305052e-001
3.442458e+003;1.298703e-001
3.444387e+003;1.294176e-001
3.446315e+003;1.285746e-001
3.448244e+003;1.274074e-001
3.450172e+003;1.266543e-001
3.452101e+003;1.258953e-001
3.454030e+003;1.244121e-001
3.455958e+003;1.230862e-001
3.457886e+003;1.224240e-001
3.459815e+003;1.216171e-001
3.461744e+003;1.204734e-001
3.463672e+003;1.197127e-001
3.465601e+003;1.188187e-001
3.467529e+003;1.180258e-001
3.469458e+003;1.171120e-001
3.471386e+003;1.163276e-001
3.473315e+003;1.154081e-001
3.475243e+003;1.142612e-001
3.477172e+003;1.131397e-001
3.479101e+003;1.121480e-001
3.481029e+003;1.115825e-001
3.482958e+003;1.105970e-001
3.484886e+003;1.089479e-001
3.486815e+003;1.073687e-001
3.488743e+003;1.065332e-001
3.490672e+003;1.057289e-001
3.492600e+003;1.045458e-001
3.494529e+003;1.033740e-001
3.496458e+003;1.021713e-001
3.498386e+003;1.010507e-001
3.500315e+003;9.992371e-002
3.502243e+003;9.859412e-002
3.504172e+003;9.737936e-002
3.506100e+003;9.671026e-002
3.508029e+003;9.588560e-002
3.509957e+003;9.463648e-002
3.511886e+003;9.332968e-002
3.513814e+003;9.221303e-002
3.515743e+003;9.114493e-002
3.517672e+003;8.995394e-002
3.519600e+003;8.877670e-002
3.521529e+003;8.764049e-002
3.523457e+003;8.657277e-002
3.525386e+003;8.599991e-002
3.527314e+003;8.545212e-002
3.529243e+003;8.465378e-002
3.531171e+003;8.368033e-002
3.533100e+003;8.249074e-002
3.535029e+003;8.120140e-002
3.536957e+003;7.980043e-002
3.538885e+003;7.899980e-002
3.540814e+003;7.857364e-002
3.542743e+003;7.745978e-002
3.544671e+003;7.621682e-002
3.546600e+003;7.551509e-002
3.548528e+003;7.503475e-002
3.550457e+003;7.390679e-002
3.552385e+003;7.254270e-002
3.554314e+003;7.144333e-002
3.556242e+003;7.038068e-002
3.558171e+003;6.914298e-002
3.560100e+003;6.837272e-002
3.562028e+003;6.752400e-002
3.563957e+003;6.636906e-002
3.565885e+003;6.558277e-002
3.567814e+003;6.531561e-002
3.569742e+003;6.495526e-002
3.571671e+003;6.401230e-002
3.573599e+003;6.293632e-002
3.575528e+003;6.212899e-002
3.577457e+003;6.169038e-002
3.579385e+003;6.119779e-002
3.581314e+003;6.038669e-002
3.583242e+003;5.938178e-002
3.585171e+003;5.857569e-002
3.587099e+003;5.771397e-002
3.589028e+003;5.692184e-002
3.590956e+003;5.623765e-002
3.592885e+003;5.577363e-002
3.594813e+003;5.547565e-002
3.596742e+003;5.484677e-002
3.598671e+003;5.375400e-002
3.600599e+003;5.260080e-002
3.602528e+003;5.201551e-002
3.604456e+003;5.164336e-002
3.606385e+003;5.119947e-002
3.608313e+003;5.056026e-002
3.610242e+003;4.980944e-002
3.612170e+003;4.894628e-002
3.614099e+003;4.814272e-002
3.616028e+003;4.748803e-002
3.617956e+003;4.680206e-002
3.619885e+003;4.589023e-002
3.621813e+003;4.512142e-002
3.623742e+003;4.483348e-002
3.625670e+003;4.443650e-002
3.627599e+003;4.364702e-002
3.629527e+003;4.290407e-002
3.631456e+003;4.230700e-002
3.633385e+003;4.124424e-002
3.635313e+003;4.017477e-002
3.637241e+003;3.942158e-002
3.639170e+003;3.854400e-002
3.641099e+003;3.784178e-002
3.643027e+003;3.750597e-002
3.644956e+003;3.673456e-002
3.646884e+003;3.551713e-002
3.648813e+003;3.433344e-002
3.650741e+003;3.331657e-002
3.652670e+003;3.265243e-002
3.654598e+003;3.224008e-002
3.656527e+003;3.131114e-002
3.658456e+003;2.999083e-002
3.660384e+003;2.885675e-002
3.662313e+003;2.810719e-002
3.664241e+003;2.774999e-002
3.666170e+003;2.743336e-002
3.668098e+003;2.649617e-002
3.670027e+003;2.545295e-002
3.671955e+003;2.484829e-002
3.673884e+003;2.427272e-002
3.675813e+003;2.331725e-002
3.677741e+003;2.254971e-002
3.679669e+003;2.212941e-002
3.681598e+003;2.153622e-002
3.683527e+003;2.082358e-002
3.685455e+003;2.027157e-002
3.687384e+003;1.993189e-002
3.689312e+003;1.968018e-002
3.691241e+003;1.946230e-002
3.693169e+003;1.911031e-002
3.695098e+003;1.877160e-002
3.697026e+003;1.818194e-002
3.698955e+003;1.767427e-002
3.700884e+003;1.781769e-002
3.702812e+003;1.771803e-002
3.704741e+003;1.707593e-002
3.706669e+003;1.666777e-002
3.708598e+003;1.644988e-002
3.710526e+003;1.613673e-002
3.712455e+003;1.574255e-002
3.714383e+003;1.559051e-002
3.716312e+003;1.570215e-002
3.718240e+003;1.547379e-002
3.720169e+003;1.500511e-002
3.722098e+003;1.486256e-002
3.724026e+003;1.511591e-002
3.725955e+003;1.516453e-002
3.727883e+003;1.476810e-002
3.729812e+003;1.425897e-002
3.731740e+003;1.385509e-002
3.733669e+003;1.368524e-002
3.735597e+003;1.382328e-002
3.737526e+003;1.371558e-002
3.739455e+003;1.341662e-002
3.741383e+003;1.346197e-002
3.743312e+003;1.352333e-002
3.745240e+003;1.331579e-002
3.747169e+003;1.316948e-002
3.749097e+003;1.301069e-002
3.751026e+003;1.294863e-002
3.752954e+003;1.280306e-002
3.754883e+003;1.289084e-002
3.756812e+003;1.294204e-002
3.758740e+003;1.296519e-002
3.760668e+003;1.301510e-002
3.762597e+003;1.287995e-002
3.764526e+003;1.263905e-002
3.766454e+003;1.273475e-002
3.768383e+003;1.287538e-002
3.770311e+003;1.255453e-002
3.772240e+003;1.239048e-002
3.774168e+003;1.259846e-002
3.776097e+003;1.278508e-002
3.778025e+003;1.284930e-002
3.779954e+003;1.281514e-002
3.781883e+003;1.271762e-002
3.783811e+003;1.259744e-002
3.785740e+003;1.253942e-002
3.787668e+003;1.263028e-002
3.789597e+003;1.263158e-002
3.791525e+003;1.262711e-002
3.793454e+003;1.274676e-002
3.795382e+003;1.263786e-002
3.797311e+003;1.224411e-002
3.799240e+003;1.210569e-002
3.801168e+003;1.208436e-002
3.803097e+003;1.225709e-002
3.805025e+003;1.249972e-002
3.806954e+003;1.219251e-002
3.808882e+003;1.195400e-002
3.810811e+003;1.168522e-002
3.812739e+003;1.160534e-002
3.814668e+003;1.201558e-002
3.816596e+003;1.244019e-002
3.818525e+003;1.280023e-002
3.820454e+003;1.302189e-002
3.822382e+003;1.284121e-002
3.824311e+003;1.225706e-002
3.826239e+003;1.179654e-002
3.828168e+003;1.172920e-002
3.830096e+003;1.193619e-002
3.832025e+003;1.229046e-002
3.833953e+003;1.259832e-002
3.835882e+003;1.260586e-002
3.837811e+003;1.251214e-002
3.839739e+003;1.248349e-002
3.841667e+003;1.230113e-002
3.843596e+003;1.235591e-002
3.845525e+003;1.270319e-002
3.847453e+003;1.285794e-002
3.849382e+003;1.298564e-002
3.851310e+003;1.295768e-002
3.853239e+003;1.260071e-002
3.855167e+003;1.242488e-002
3.857096e+003;1.275553e-002
3.859024e+003;1.305447e-002
3.860953e+003;1.334674e-002
3.862882e+003;1.315975e-002
3.864810e+003;1.290538e-002
3.866739e+003;1.344082e-002
3.868667e+003;1.383747e-002
3.870596e+003;1.352763e-002
3.872524e+003;1.329362e-002
3.874453e+003;1.326728e-002
3.876381e+003;1.335696e-002
3.878310e+003;1.369089e-002
3.880239e+003;1.403431e-002
3.882167e+003;1.412329e-002
3.884096e+003;1.425068e-002
3.886024e+003;1.456021e-002
3.887953e+003;1.458293e-002
3.889881e+003;1.421562e-002
3.891810e+003;1.395413e-002
3.893738e+003;1.417252e-002
3.895667e+003;1.451296e-002
3.897595e+003;1.500686e-002
3.899524e+003;1.532967e-002
3.901453e+003;1.502106e-002
3.903381e+003;1.488800e-002
3.905310e+003;1.529867e-002
3.907238e+003;1.552303e-002
3.909167e+003;1.554088e-002
3.911095e+003;1.537721e-002
3.913024e+003;1.516065e-002
3.914952e+003;1.565752e-002
3.916881e+003;1.597988e-002
3.918810e+003;1.597015e-002
3.920738e+003;1.615613e-002
3.922667e+003;1.633802e-002
3.924595e+003;1.642789e-002
3.926524e+003;1.645831e-002
3.928452e+003;1.630685e-002
3.930381e+003;1.620810e-002
3.932309e+003;1.660460e-002
3.934238e+003;1.701680e-002
3.936167e+003;1.680107e-002
3.938095e+003;1.704268e-002
3.940023e+003;1.722349e-002
3.941952e+003;1.724083e-002
3.943881e+003;1.715014e-002
3.945809e+003;1.720105e-002
3.947738e+003;1.799150e-002
3.949666e+003;1.830105e-002
3.951595e+003;1.795030e-002
3.953523e+003;1.751255e-002
3.955452e+003;1.709144e-002
3.957380e+003;1.703296e-002
3.959309e+003;1.781979e-002
3.961238e+003;1.816097e-002
3.963166e+003;1.772262e-002
3.965095e+003;1.732665e-002
3.967023e+003;1.733000e-002
3.968952e+003;1.777892e-002
3.970880e+003;1.804106e-002
3.972809e+003;1.807750e-002
3.974737e+003;1.805747e-002
3.976666e+003;1.839513e-002
3.978594e+003;1.850210e-002
3.980523e+003;1.797824e-002
3.982452e+003;1.789661e-002
3.984380e+003;1.805709e-002
3.986309e+003;1.796629e-002
3.988237e+003;1.790552e-002
3.990166e+003;1.789554e-002
3.992094e+003;1.810697e-002
3.994023e+003;1.825125e-002
3.995951e+003;1.828557e-002
3.997880e+003;1.816681e-002
3.999809e+003;1.808199e-002
4.001737e+003;0.000000e+000
