3.992094e+002;0.000000e+000
4.011380e+002;0.000000e+000
4.030665e+002;0.000000e+000
4.049951e+002;0.000000e+000
4.069236e+002;0.000000e+000
4.088522e+002;0.000000e+000
4.107807e+002;0.000000e+000
4.127093e+002;0.000000e+000
4.146378e+002;0.000000e+000
4.165664e+002;0.000000e+000
4.184949e+002;0.000000e+000
4.204235e+002;0.000000e+000
4.223520e+002;0.000000e+000
4.242806e+002;0.000000e+000
4.262091e+002;0.000000e+000
4.281377e+002;0.000000e+000
4.300662e+002;0.000000e+000
4.319948e+002;0.000000e+000
4.339233e+002;0.000000e+000
4.358519e+002;0.000000e+000
4.377804e+002;0.000000e+000
4.397090e+002;0.000000e+000
4.416375e+002;0.000000e+000
4.435660e+002;0.000000e+000
4.454946e+002;0.000000e+000
4.474232e+002;0.000000e+000
4.493517e+002;0.000000e+000
4.512802e+002;0.000000e+000
4.532088e+002;0.000000e+000
4.551373e+002;0.000000e+000
4.570659e+002;0.000000e+000
4.589944e+002;0.000000e+000
4.609230e+002;0.000000e+000
4.628515e+002;0.000000e+000
4.647801e+002;0.000000e+000
4.667086e+002;0.000000e+000
4.686372e+002;0.000000e+000
4.705657e+002;0.000000e+000
4.724943e+002;0.000000e+000
4.744228e+002;0.000000e+000
4.763513e+002;0.000000e+000
4.782799e+002;0.000000e+000
4.802085e+002;0.000000e+000
4.821370e+002;0.000000e+000
4.840656e+002;0.000000e+000
4.859941e+002;0.000000e+000
4.879226e+002;0.000000e+000
4.898512e+002;0.000000e+000
4.917798e+002;0.000000e+000
4.937083e+002;0.000000e+000
4.956368e+002;0.000000e+000
4.975654e+002;0.000000e+000
4.994939e+002;0.000000e+000
5.014225e+002;0.000000e+000
5.033510e+002;0.000000e+000
5.052796e+002;0.000000e+000
5.072081e+002;0.000000e+000
5.091367e+002;0.000000e+000
5.110652e+002;0.000000e+000
5.129938e+002;0.000000e+000
5.149223e+002;0.000000e+000
5.168509e+002;0.000000e+000
5.187794e+002;0.000000e+000
5.207079e+002;0.000000e+000
5.226365e+002;0.000000e+000
5.245651e+002;0.000000e+000
5.264936e+002;0.000000e+000
5.284222e+002;0.000000e+000
5.303507e+002;0.000000e+000
5.322792e+002;0.000000e+000
5.342078e+002;0.000000e+000
5.361364e+002;0.000000e+000
5.380649e+002;0.000000e+000
5.399935e+002;0.000000e+000
5.419220e+002;0.000000e+000
5.438505e+002;0.000000e+000
5.457791e+002;0.000000e+000
5.477076e+002;0.000000e+000
5.496362e+002;0.000000e+000
5.515648e+002;0.000000e+000
5.534933e+002;0.000000e+000
5.554218e+002;0.000000e+000
5.573504e+002;0.000000e+000
5.592789e+002;0.000000e+000
5.612075e+002;0.000000e+000
5.631360e+002;0.000000e+000
5.650646e+002;0.000000e+000
5.669931e+002;0.000000e+000
5.689217e+002;0.000000e+000
5.708502e+002;0.000000e+000
5.727787e+002;0.000000e+000
5.747073e+002;0.000000e+000
5.766359e+002;0.000000e+000
5.785644e+002;0.000000e+000
5.804930e+002;0.000000e+000
5.824215e+002;0.000000e+000
5.843500e+002;0.000000e+000
5.862786e+002;0.000000e+000
5.882072e+002;0.000000e+000
5.901357e+002;0.000000e+000
5.920643e+002;0.000000e+000
5.939928e+002;0.000000e+000
5.959213e+002;0.000000e+000
5.978499e+002;0.000000e+000
5.997784e+002;2.673472e-001
6.017070e+002;2.721080e-001
6.036355e+002;2.739129e-001
6.055641e+002;2.748902e-001
6.074926e+002;2.777758e-001
6.094211e+002;2.842759e-001
6.113497e+002;2.801308e-001
6.132783e+002;2.707827e-001
6.152068e+002;2.704630e-001
6.171354e+002;2.679981e-001
6.190639e+002;2.631752e-001
6.209924e+002;2.599015e-001
6.229210e+002;2.560516e-001
6.248495e+002;2.566383e-001
6.267781e+002;2.563345e-001
6.287067e+002;2.550261e-001
6.306352e+002;2.525572e-001
6.325637e+002;2.463011e-001
6.344923e+002;2.403892e-001
6.364208e+002;2.397086e-001
6.383494e+002;2.431381e-001
6.402780e+002;2.419925e-001
6.422065e+002;2.381486e-001
6.441350e+002;2.361931e-001
6.460636e+002;2.364578e-001
6.479921e+002;2.406529e-001
6.499207e+002;2.403018e-001
6.518492e+002;2.391959e-001
6.537778e+002;2.414940e-001
6.557063e+002;2.467471e-001
6.576349e+002;2.476747e-001
6.595634e+002;2.474862e-001
6.614919e+002;2.479972e-001
6.634205e+002;2.465850e-001
6.653491e+002;2.443821e-001
6.672776e+002;2.436886e-001
6.692062e+002;2.424055e-001
6.711347e+002;2.386815e-001
6.730632e+002;2.309721e-001
6.749918e+002;2.215253e-001
6.769203e+002;2.126539e-001
6.788489e+002;2.065427e-001
6.807775e+002;2.014941e-001
6.827060e+002;1.966296e-001
6.846345e+002;1.934799e-001
6.865631e+002;1.920360e-001
6.884916e+002;1.905066e-001
6.904202e+002;1.891862e-001
6.923488e+002;1.883802e-001
6.942773e+002;1.877874e-001
6.962058e+002;1.872674e-001
6.981344e+002;1.868241e-001
7.000629e+002;1.855640e-001
7.019915e+002;1.844236e-001
7.039200e+002;1.841853e-001
7.058486e+002;1.830190e-001
7.077771e+002;1.817761e-001
7.097057e+002;1.815410e-001
7.116342e+002;1.812292e-001
7.135627e+002;1.799398e-001
7.154913e+002;1.786169e-001
7.174199e+002;1.773283e-001
7.193484e+002;1.752740e-001
7.212770e+002;1.729964e-001
7.232055e+002;1.712828e-001
7.251340e+002;1.701341e-001
7.270626e+002;1.692498e-001
7.289911e+002;1.682173e-001
7.309197e+002;1.664159e-001
7.328483e+002;1.646484e-001
7.347768e+002;1.631627e-001
7.367053e+002;1.615294e-001
7.386339e+002;1.596175e-001
7.405624e+002;1.582284e-001
7.424910e+002;1.579307e-001
7.444196e+002;1.579435e-001
7.463481e+002;1.567911e-001
7.482766e+002;1.547927e-001
7.502052e+002;1.540173e-001
7.521337e+002;1.531250e-001
7.540623e+002;1.517617e-001
7.559908e+002;1.500142e-001
7.579194e+002;1.479568e-001
7.598479e+002;1.469382e-001
7.617765e+002;1.462317e-001
7.637050e+002;1.452440e-001
7.656335e+002;1.435546e-001
7.675621e+002;1.428676e-001
7.694907e+002;1.417024e-001
7.714192e+002;1.403156e-001
7.733478e+002;1.389555e-001
7.752763e+002;1.371563e-001
7.772048e+002;1.364282e-001
7.791334e+002;1.362002e-001
7.810620e+002;1.356242e-001
7.829905e+002;1.349374e-001
7.849191e+002;1.340929e-001
7.868476e+002;1.329404e-001
7.887761e+002;1.314318e-001
7.907047e+002;1.299961e-001
7.926332e+002;1.297058e-001
7.945618e+002;1.292637e-001
7.964903e+002;1.283098e-001
7.984189e+002;1.278329e-001
8.003474e+002;1.272534e-001
8.022759e+002;1.268343e-001
8.042045e+002;1.261613e-001
8.061331e+002;1.248980e-001
8.080616e+002;1.241095e-001
8.099902e+002;1.238469e-001
8.119187e+002;1.235031e-001
8.138472e+002;1.231354e-001
8.157758e+002;1.226797e-001
8.177043e+002;1.225367e-001
8.196329e+002;1.226235e-001
8.215615e+002;1.226528e-001
8.234900e+002;1.222791e-001
8.254185e+002;1.224895e-001
8.273471e+002;1.224714e-001
8.292756e+002;1.223263e-001
8.312042e+002;1.223092e-001
8.331328e+002;1.216286e-001
8.350613e+002;1.208336e-001
8.369898e+002;1.200439e-001
8.389184e+002;1.193493e-001
8.408469e+002;1.189478e-001
8.427755e+002;1.186562e-001
8.447040e+002;1.185235e-001
8.466326e+002;1.184335e-001
8.485611e+002;1.183863e-001
8.504897e+002;1.177729e-001
8.524182e+002;1.167765e-001
8.543467e+002;1.166347e-001
8.562753e+002;1.174537e-001
8.582039e+002;1.183465e-001
8.601324e+002;1.188853e-001
8.620610e+002;1.195790e-001
8.639895e+002;1.200279e-001
8.659180e+002;1.207210e-001
8.678466e+002;1.228771e-001
8.697751e+002;1.251880e-001
8.717037e+002;1.273145e-001
8.736323e+002;1.304224e-001
8.755608e+002;1.347040e-001
8.774893e+002;1.392730e-001
8.794179e+002;1.445615e-001
8.813464e+002;1.501011e-001
8.832750e+002;1.559208e-001
8.852036e+002;1.622094e-001
8.871321e+002;1.686230e-001
8.890606e+002;1.748781e-001
8.909892e+002;1.800568e-001
8.929177e+002;1.831276e-001
8.948463e+002;1.840764e-001
8.967748e+002;1.835537e-001
8.987034e+002;1.813526e-001
9.006319e+002;1.777980e-001
9.025605e+002;1.737663e-001
9.044890e+002;1.699510e-001
9.064175e+002;1.662224e-001
9.083461e+002;1.626581e-001
9.102747e+002;1.589133e-001
9.122032e+002;1.560386e-001
9.141318e+002;1.544663e-001
9.160603e+002;1.537009e-001
9.179888e+002;1.535354e-001
9.199174e+002;1.540058e-001
9.218459e+002;1.547949e-001
9.237745e+002;1.560331e-001
9.257031e+002;1.577572e-001
9.276316e+002;1.593147e-001
9.295601e+002;1.614413e-001
9.314887e+002;1.632777e-001
9.334172e+002;1.647679e-001
9.353458e+002;1.666230e-001
9.372744e+002;1.689393e-001
9.392029e+002;1.710992e-001
9.411314e+002;1.737601e-001
9.430600e+002;1.773638e-001
9.449885e+002;1.809473e-001
9.469171e+002;1.848373e-001
9.488456e+002;1.898509e-001
9.507742e+002;1.955519e-001
9.527027e+002;2.010759e-001
9.546313e+002;2.065433e-001
9.565598e+002;2.126032e-001
9.584883e+002;2.192007e-001
9.604169e+002;2.260635e-001
9.623455e+002;2.328060e-001
9.642740e+002;2.394614e-001
9.662026e+002;2.464158e-001
9.681311e+002;2.534035e-001
9.700596e+002;2.614640e-001
9.719882e+002;2.703803e-001
9.739167e+002;2.804337e-001
9.758453e+002;2.933277e-001
9.777739e+002;3.077610e-001
9.797024e+002;3.228634e-001
9.816309e+002;3.399321e-001
9.835595e+002;3.585676e-001
9.854880e+002;3.764537e-001
9.874166e+002;3.930438e-001
9.893452e+002;4.082511e-001
9.912737e+002;4.211625e-001
9.932022e+002;4.303537e-001
9.951307e+002;4.358549e-001
9.970593e+002;4.390870e-001
9.989879e+002;4.408997e-001
1.000916e+003;4.420579e-001
1.002845e+003;4.442034e-001
1.004773e+003;4.481287e-001
1.006702e+003;4.539872e-001
1.008631e+003;4.620272e-001
1.010559e+003;4.707852e-001
1.012488e+003;4.797021e-001
1.014416e+003;4.887436e-001
1.016345e+003;4.957996e-001
1.018273e+003;5.008725e-001
1.020202e+003;5.031167e-001
1.022130e+003;5.026305e-001
1.024059e+003;5.007682e-001
1.025988e+003;4.968327e-001
1.027916e+003;4.910542e-001
1.029845e+003;4.849775e-001
1.031773e+003;4.776631e-001
1.033702e+003;4.704086e-001
1.035630e+003;4.650374e-001
1.037559e+003;4.603730e-001
1.039487e+003;4.559020e-001
1.041416e+003;4.526100e-001
1.043344e+003;4.492996e-001
1.045273e+003;4.457223e-001
1.047202e+003;4.418565e-001
1.049130e+003;4.379480e-001
1.051059e+003;4.340206e-001
1.052987e+003;4.296901e-001
1.054916e+003;4.257478e-001
1.056844e+003;4.213978e-001
1.058773e+003;4.154418e-001
1.060701e+003;4.099339e-001
1.062630e+003;4.034678e-001
1.064558e+003;3.952559e-001
1.066487e+003;3.866835e-001
1.068416e+003;3.786394e-001
1.070344e+003;3.712062e-001
1.072273e+003;3.635548e-001
1.074201e+003;3.553014e-001
1.076130e+003;3.472885e-001
1.078058e+003;3.396227e-001
1.079987e+003;3.326956e-001
1.081915e+003;3.263846e-001
1.083844e+003;3.209482e-001
1.085773e+003;3.153082e-001
1.087701e+003;3.084647e-001
1.089630e+003;3.016860e-001
1.091558e+003;2.954814e-001
1.093487e+003;2.898898e-001
1.095415e+003;2.844109e-001
1.097344e+003;2.782869e-001
1.099272e+003;2.716624e-001
1.101201e+003;2.651679e-001
1.103129e+003;2.593378e-001
1.105058e+003;2.535387e-001
1.106987e+003;2.491115e-001
1.108915e+003;2.453947e-001
1.110844e+003;2.415514e-001
1.112772e+003;2.378679e-001
1.114701e+003;2.335431e-001
1.116629e+003;2.284704e-001
1.118558e+003;2.231911e-001
1.120486e+003;2.171137e-001
1.122415e+003;2.104447e-001
1.124344e+003;2.035019e-001
1.126272e+003;1.969405e-001
1.128201e+003;1.907254e-001
1.130129e+003;1.847729e-001
1.132058e+003;1.798535e-001
1.133986e+003;1.750778e-001
1.135915e+003;1.702941e-001
1.137843e+003;1.668576e-001
1.139772e+003;1.647594e-001
1.141700e+003;1.631644e-001
1.143629e+003;1.624956e-001
1.145557e+003;1.627344e-001
1.147486e+003;1.634250e-001
1.149415e+003;1.650314e-001
1.151343e+003;1.672793e-001
1.153272e+003;1.691282e-001
1.155200e+003;1.699602e-001
1.157129e+003;1.697468e-001
1.159057e+003;1.680988e-001
1.160986e+003;1.645936e-001
1.162914e+003;1.589802e-001
1.164843e+003;1.519234e-001
1.166771e+003;1.444494e-001
1.168700e+003;1.371079e-001
1.170629e+003;1.299935e-001
1.172557e+003;1.231641e-001
1.174486e+003;1.173462e-001
1.176414e+003;1.126011e-001
1.178343e+003;1.086253e-001
1.180271e+003;1.051844e-001
1.182200e+003;1.027033e-001
1.184128e+003;1.015490e-001
1.186057e+003;1.015736e-001
1.187986e+003;1.026391e-001
1.189914e+003;1.047444e-001
1.191843e+003;1.077148e-001
1.193771e+003;1.103768e-001
1.195700e+003;1.124693e-001
1.197628e+003;1.141317e-001
1.199557e+003;1.148305e-001
1.201485e+003;1.142766e-001
1.203414e+003;1.125960e-001
1.205343e+003;1.102064e-001
1.207271e+003;1.081878e-001
1.209200e+003;1.068103e-001
1.211128e+003;1.059207e-001
1.213057e+003;1.056387e-001
1.214985e+003;1.056777e-001
1.216914e+003;1.067798e-001
1.218842e+003;1.090168e-001
1.220771e+003;1.112011e-001
1.222699e+003;1.135290e-001
1.224628e+003;1.158851e-001
1.226557e+003;1.175145e-001
1.228485e+003;1.185299e-001
1.230414e+003;1.191692e-001
1.232342e+003;1.194728e-001
1.234271e+003;1.196896e-001
1.236199e+003;1.198011e-001
1.238128e+003;1.197521e-001
1.240056e+003;1.195883e-001
1.241985e+003;1.192388e-001
1.243913e+003;1.192046e-001
1.245842e+003;1.195462e-001
1.247771e+003;1.200579e-001
1.249699e+003;1.206290e-001
1.251628e+003;1.216613e-001
1.253556e+003;1.229802e-001
1.255485e+003;1.241243e-001
1.257413e+003;1.251491e-001
1.259342e+003;1.260063e-001
1.261270e+003;1.260846e-001
1.263199e+003;1.253479e-001
1.265127e+003;1.243873e-001
1.267056e+003;1.234445e-001
1.268985e+003;1.224947e-001
1.270913e+003;1.213224e-001
1.272842e+003;1.202102e-001
1.274770e+003;1.194325e-001
1.276699e+003;1.185783e-001
1.278627e+003;1.178512e-001
1.280556e+003;1.172236e-001
1.282484e+003;1.167183e-001
1.284413e+003;1.164689e-001
1.286342e+003;1.166786e-001
1.288270e+003;1.175002e-001
1.290199e+003;1.191521e-001
1.292127e+003;1.210755e-001
1.294056e+003;1.226375e-001
1.295984e+003;1.242239e-001
1.297913e+003;1.259138e-001
1.299841e+003;1.276144e-001
1.301770e+003;1.293005e-001
1.303698e+003;1.311067e-001
1.305627e+003;1.331086e-001
1.307556e+003;1.351741e-001
1.309484e+003;1.369751e-001
1.311413e+003;1.385088e-001
1.313341e+003;1.395186e-001
1.315270e+003;1.396463e-001
1.317198e+003;1.392290e-001
1.319127e+003;1.385590e-001
1.321055e+003;1.376691e-001
1.322984e+003;1.369581e-001
1.324912e+003;1.366328e-001
1.326841e+003;1.367687e-001
1.328770e+003;1.372081e-001
1.330698e+003;1.372840e-001
1.332627e+003;1.371155e-001
1.334555e+003;1.375305e-001
1.336484e+003;1.376491e-001
1.338412e+003;1.371389e-001
1.340341e+003;1.364314e-001
1.342269e+003;1.360948e-001
1.344198e+003;1.361257e-001
1.346126e+003;1.360876e-001
1.348055e+003;1.360646e-001
1.349984e+003;1.361141e-001
1.351912e+003;1.363686e-001
1.353841e+003;1.369312e-001
1.355769e+003;1.378496e-001
1.357698e+003;1.387205e-001
1.359626e+003;1.395014e-001
1.361555e+003;1.402120e-001
1.363483e+003;1.403876e-001
1.365412e+003;1.402614e-001
1.367341e+003;1.400366e-001
1.369269e+003;1.392271e-001
1.371198e+003;1.379824e-001
1.373126e+003;1.366151e-001
1.375055e+003;1.349506e-001
1.376983e+003;1.331162e-001
1.378912e+003;1.310354e-001
1.380840e+003;1.285570e-001
1.382769e+003;1.261200e-001
1.384698e+003;1.241691e-001
1.386626e+003;1.225362e-001
1.388555e+003;1.210429e-001
1.390483e+003;1.198125e-001
1.392412e+003;1.189827e-001
1.394340e+003;1.186991e-001
1.396269e+003;1.186236e-001
1.398197e+003;1.184844e-001
1.400126e+003;1.181490e-001
1.402054e+003;1.178093e-001
1.403983e+003;1.177399e-001
1.405911e+003;1.178463e-001
1.407840e+003;1.177964e-001
1.409769e+003;1.176360e-001
1.411697e+003;1.176261e-001
1.413626e+003;1.177207e-001
1.415554e+003;1.176712e-001
1.417483e+003;1.174430e-001
1.419411e+003;1.170222e-001
1.421340e+003;1.167063e-001
1.423268e+003;1.165485e-001
1.425197e+003;1.162728e-001
1.427125e+003;1.156993e-001
1.429054e+003;1.149931e-001
1.430983e+003;1.143009e-001
1.432911e+003;1.133010e-001
1.434840e+003;1.123006e-001
1.436768e+003;1.115471e-001
1.438697e+003;1.108196e-001
1.440625e+003;1.100634e-001
1.442554e+003;1.088714e-001
1.444482e+003;1.075678e-001
1.446411e+003;1.065016e-001
1.448340e+003;1.053949e-001
1.450268e+003;1.043075e-001
1.452197e+003;1.032315e-001
1.454125e+003;1.019795e-001
1.456054e+003;1.005764e-001
1.457982e+003;9.914447e-002
1.459911e+003;9.798069e-002
1.461839e+003;9.669403e-002
1.463768e+003;9.518348e-002
1.465697e+003;9.361544e-002
1.467625e+003;9.187678e-002
1.469554e+003;8.997905e-002
1.471482e+003;8.791656e-002
1.473411e+003;8.564401e-002
1.475339e+003;8.343156e-002
1.477268e+003;8.094119e-002
1.479196e+003;7.859230e-002
1.481125e+003;7.652215e-002
1.483053e+003;7.437232e-002
1.484982e+003;7.239874e-002
1.486911e+003;7.067230e-002
1.488839e+003;6.901693e-002
1.490768e+003;6.733317e-002
1.492696e+003;6.579562e-002
1.494625e+003;6.442264e-002
1.496553e+003;6.293371e-002
1.498482e+003;6.174709e-002
1.500410e+003;6.079907e-002
1.502339e+003;5.998790e-002
1.504267e+003;5.916382e-002
1.506196e+003;5.826900e-002
1.508125e+003;5.746996e-002
1.510053e+003;5.690806e-002
1.511982e+003;5.628148e-002
1.513910e+003;5.559328e-002
1.515839e+003;5.492997e-002
1.517767e+003;5.455698e-002
1.519696e+003;5.428172e-002
1.521624e+003;5.397812e-002
1.523553e+003;5.376293e-002
1.525481e+003;5.348900e-002
1.527410e+003;5.329918e-002
1.529339e+003;5.326584e-002
1.531267e+003;5.315322e-002
1.533196e+003;5.284001e-002
1.535124e+003;5.261696e-002
1.537053e+003;5.233351e-002
1.538981e+003;5.206926e-002
1.540910e+003;5.214233e-002
1.542838e+003;5.227835e-002
1.544767e+003;5.240566e-002
1.546695e+003;5.262227e-002
1.548624e+003;5.275687e-002
1.550553e+003;5.273337e-002
1.552481e+003;5.275892e-002
1.554410e+003;5.272349e-002
1.556338e+003;5.271279e-002
1.558267e+003;5.294132e-002
1.560195e+003;5.309106e-002
1.562124e+003;5.308335e-002
1.564052e+003;5.332537e-002
1.565981e+003;5.378554e-002
1.567910e+003;5.417071e-002
1.569838e+003;5.422154e-002
1.571767e+003;5.444297e-002
1.573695e+003;5.479211e-002
1.575624e+003;5.497416e-002
1.577552e+003;5.528790e-002
1.579481e+003;5.590302e-002
1.581409e+003;5.639706e-002
1.583338e+003;5.685997e-002
1.585266e+003;5.761355e-002
1.587195e+003;5.803610e-002
1.589124e+003;5.834702e-002
1.591052e+003;5.900180e-002
1.592981e+003;5.963422e-002
1.594909e+003;6.030841e-002
1.596838e+003;6.126048e-002
1.598766e+003;6.183545e-002
1.600695e+003;6.238433e-002
1.602623e+003;6.325395e-002
1.604552e+003;6.405251e-002
1.606480e+003;6.466445e-002
1.608409e+003;6.544596e-002
1.610338e+003;6.620969e-002
1.612266e+003;6.670877e-002
1.614195e+003;6.729603e-002
1.616123e+003;6.804486e-002
1.618052e+003;6.879198e-002
1.619980e+003;6.966590e-002
1.621909e+003;7.037351e-002
1.623837e+003;7.085520e-002
1.625766e+003;7.137456e-002
1.627694e+003;7.183058e-002
1.629623e+003;7.224999e-002
1.631552e+003;7.266533e-002
1.633480e+003;7.302026e-002
1.635409e+003;7.326216e-002
1.637337e+003;7.341103e-002
1.639266e+003;7.362312e-002
1.641194e+003;7.371687e-002
1.643123e+003;7.373673e-002
1.645051e+003;7.369484e-002
1.646980e+003;7.346063e-002
1.648909e+003;7.309059e-002
1.650837e+003;7.268883e-002
1.652766e+003;7.223383e-002
1.654694e+003;7.193028e-002
1.656623e+003;7.157748e-002
1.658551e+003;7.087275e-002
1.660480e+003;7.002174e-002
1.662408e+003;6.931879e-002
1.664337e+003;6.861655e-002
1.666266e+003;6.771797e-002
1.668194e+003;6.676908e-002
1.670123e+003;6.576381e-002
1.672051e+003;6.474198e-002
1.673980e+003;6.370589e-002
1.675908e+003;6.258184e-002
1.677837e+003;6.144598e-002
1.679765e+003;6.026893e-002
1.681694e+003;5.915661e-002
1.683622e+003;5.815549e-002
1.685551e+003;5.717811e-002
1.687479e+003;5.652592e-002
1.689408e+003;5.585008e-002
1.691337e+003;5.530081e-002
1.693265e+003;5.491241e-002
1.695194e+003;5.439707e-002
1.697122e+003;5.418817e-002
1.699051e+003;5.412909e-002
1.700979e+003;5.377778e-002
1.702908e+003;5.340798e-002
1.704836e+003;5.302352e-002
1.706765e+003;5.271702e-002
1.708693e+003;5.255929e-002
1.710622e+003;5.242723e-002
1.712551e+003;5.217428e-002
1.714479e+003;5.163142e-002
1.716408e+003;5.119492e-002
1.718336e+003;5.073614e-002
1.720265e+003;5.033961e-002
1.722193e+003;4.978291e-002
1.724122e+003;4.882106e-002
1.726050e+003;4.791331e-002
1.727979e+003;4.718397e-002
1.729908e+003;4.635004e-002
1.731836e+003;4.549854e-002
1.733765e+003;4.440923e-002
1.735693e+003;4.318578e-002
1.737622e+003;4.213602e-002
1.739550e+003;4.102583e-002
1.741479e+003;4.000837e-002
1.743407e+003;3.902172e-002
1.745336e+003;3.793242e-002
1.747265e+003;3.693477e-002
1.749193e+003;3.645293e-002
1.751122e+003;3.606904e-002
1.753050e+003;3.573401e-002
1.754979e+003;3.548596e-002
1.756907e+003;3.510644e-002
1.758836e+003;3.478762e-002
1.760764e+003;3.446912e-002
1.762693e+003;3.421422e-002
1.764621e+003;3.415808e-002
1.766550e+003;3.400275e-002
1.768479e+003;3.402168e-002
1.770407e+003;3.401422e-002
1.772336e+003;3.379136e-002
1.774264e+003;3.363731e-002
1.776193e+003;3.344413e-002
1.778121e+003;3.328401e-002
1.780050e+003;3.313504e-002
1.781978e+003;3.295324e-002
1.783907e+003;3.291496e-002
1.785835e+003;3.274417e-002
1.787764e+003;3.253596e-002
1.789693e+003;3.230143e-002
1.791621e+003;3.201670e-002
1.793550e+003;3.174128e-002
1.795478e+003;3.170243e-002
1.797407e+003;3.166896e-002
1.799335e+003;3.151509e-002
1.801264e+003;3.144338e-002
1.803192e+003;3.140673e-002
1.805121e+003;3.125964e-002
1.807049e+003;3.112144e-002
1.808978e+003;3.081973e-002
1.810907e+003;3.054606e-002
1.812835e+003;3.056974e-002
1.814764e+003;3.059576e-002
1.816692e+003;3.047320e-002
1.818621e+003;3.037543e-002
1.820549e+003;3.031563e-002
1.822478e+003;3.023523e-002
1.824406e+003;3.000958e-002
1.826335e+003;2.993112e-002
1.828264e+003;2.991653e-002
1.830192e+003;2.974238e-002
1.832121e+003;2.962186e-002
1.834049e+003;2.950758e-002
1.835978e+003;2.944330e-002
1.837906e+003;2.938433e-002
1.839835e+003;2.918757e-002
1.841763e+003;2.907001e-002
1.843692e+003;2.892297e-002
1.845620e+003;2.874997e-002
1.847549e+003;2.868455e-002
1.849478e+003;2.859592e-002
1.851406e+003;2.843946e-002
1.853335e+003;2.837151e-002
1.855263e+003;2.835821e-002
1.857192e+003;2.821831e-002
1.859120e+003;2.806096e-002
1.861049e+003;2.806060e-002
1.862977e+003;2.806244e-002
1.864906e+003;2.809443e-002
1.866834e+003;2.798497e-002
1.868763e+003;2.779404e-002
1.870692e+003;2.774261e-002
1.872620e+003;2.779612e-002
1.874549e+003;2.760047e-002
1.876477e+003;2.729781e-002
1.878406e+003;2.737018e-002
1.880334e+003;2.753339e-002
1.882263e+003;2.726246e-002
1.884191e+003;2.699155e-002
1.886120e+003;2.709378e-002
1.888048e+003;2.723610e-002
1.889977e+003;2.715910e-002
1.891906e+003;2.703841e-002
1.893834e+003;2.708919e-002
1.895763e+003;2.722242e-002
1.897691e+003;2.730543e-002
1.899620e+003;2.737167e-002
1.901548e+003;2.731510e-002
1.903477e+003;2.715687e-002
1.905405e+003;2.716732e-002
1.907334e+003;2.718721e-002
1.909262e+003;2.723766e-002
1.911191e+003;2.739969e-002
1.913120e+003;2.761636e-002
1.915048e+003;2.777023e-002
1.916977e+003;2.804074e-002
1.918905e+003;2.836507e-002
1.920834e+003;2.850116e-002
1.922762e+003;2.846285e-002
1.924691e+003;2.838987e-002
1.926619e+003;2.843543e-002
1.928548e+003;2.865478e-002
1.930477e+003;2.881975e-002
1.932405e+003;2.889276e-002
1.934334e+003;2.884198e-002
1.936262e+003;2.863319e-002
1.938191e+003;2.871322e-002
1.940119e+003;2.923535e-002
1.942048e+003;2.942206e-002
1.943976e+003;2.942989e-002
1.945905e+003;2.966681e-002
1.947833e+003;2.981360e-002
1.949762e+003;3.001838e-002
1.951691e+003;3.022987e-002
1.953619e+003;3.037767e-002
1.955548e+003;3.060764e-002
1.957476e+003;3.082176e-002
1.959405e+003;3.088042e-002
1.961333e+003;3.090365e-002
1.963262e+003;3.109752e-002
1.965190e+003;3.127531e-002
1.967119e+003;3.127196e-002
1.969047e+003;3.118043e-002
1.970976e+003;3.127503e-002
1.972905e+003;3.159533e-002
1.974833e+003;3.186970e-002
1.976762e+003;3.208630e-002
1.978690e+003;3.224801e-002
1.980619e+003;3.226214e-002
1.982547e+003;3.221257e-002
1.984476e+003;3.246004e-002
1.986404e+003;3.249318e-002
1.988333e+003;3.244033e-002
1.990261e+003;3.257378e-002
1.992190e+003;3.262246e-002
1.994119e+003;3.259335e-002
1.996047e+003;3.265647e-002
1.997976e+003;3.294598e-002
1.999904e+003;3.318436e-002
2.001833e+003;3.309120e-002
2.003761e+003;3.294981e-002
2.005690e+003;3.325325e-002
2.007618e+003;3.357785e-002
2.009547e+003;3.363405e-002
2.011476e+003;3.353106e-002
2.013404e+003;3.369316e-002
2.015333e+003;3.415532e-002
2.017261e+003;3.454409e-002
2.019190e+003;3.481587e-002
2.021118e+003;3.508072e-002
2.023047e+003;3.503790e-002
2.024975e+003;3.498180e-002
2.026904e+003;3.499850e-002
2.028833e+003;3.504519e-002
2.030761e+003;3.536869e-002
2.032690e+003;3.575725e-002
2.034618e+003;3.570519e-002
2.036547e+003;3.566944e-002
2.038475e+003;3.590611e-002
2.040404e+003;3.613385e-002
2.042332e+003;3.624978e-002
2.044261e+003;3.632823e-002
2.046189e+003;3.641985e-002
2.048118e+003;3.645358e-002
2.050047e+003;3.637802e-002
2.051975e+003;3.644601e-002
2.053904e+003;3.657193e-002
2.055832e+003;3.662817e-002
2.057761e+003;3.658819e-002
2.059689e+003;3.647376e-002
2.061618e+003;3.651589e-002
2.063546e+003;3.632293e-002
2.065475e+003;3.623601e-002
2.067404e+003;3.643686e-002
2.069332e+003;3.664237e-002
2.071260e+003;3.681253e-002
2.073189e+003;3.681238e-002
2.075118e+003;3.660740e-002
2.077046e+003;3.653737e-002
2.078975e+003;3.661065e-002
2.080903e+003;3.682562e-002
2.082832e+003;3.688925e-002
2.084760e+003;3.681076e-002
2.086689e+003;3.680586e-002
2.088617e+003;3.684950e-002
2.090546e+003;3.677275e-002
2.092475e+003;3.670161e-002
2.094403e+003;3.679410e-002
2.096332e+003;3.704998e-002
2.098260e+003;3.709465e-002
2.100189e+003;3.699069e-002
2.102117e+003;3.712663e-002
2.104046e+003;3.712370e-002
2.105974e+003;3.717210e-002
2.107903e+003;3.744788e-002
2.109832e+003;3.765782e-002
2.111760e+003;3.777473e-002
2.113688e+003;3.774296e-002
2.115617e+003;3.762436e-002
2.117546e+003;3.761550e-002
2.119474e+003;3.774632e-002
2.121403e+003;3.785849e-002
2.123331e+003;3.780527e-002
2.125260e+003;3.773949e-002
2.127188e+003;3.786778e-002
2.129117e+003;3.809697e-002
2.131045e+003;3.813850e-002
2.132974e+003;3.819016e-002
2.134903e+003;3.827545e-002
2.136831e+003;3.827754e-002
2.138760e+003;3.830624e-002
2.140688e+003;3.808023e-002
2.142617e+003;3.777672e-002
2.144545e+003;3.780332e-002
2.146474e+003;3.810920e-002
2.148402e+003;3.829644e-002
2.150331e+003;3.820322e-002
2.152260e+003;3.767650e-002
2.154188e+003;3.728928e-002
2.156117e+003;3.723498e-002
2.158045e+003;3.717849e-002
2.159974e+003;3.723174e-002
2.161902e+003;3.736543e-002
2.163831e+003;3.743488e-002
2.165759e+003;3.732391e-002
2.167688e+003;3.701447e-002
2.169616e+003;3.681188e-002
2.171545e+003;3.678361e-002
2.173474e+003;3.662316e-002
2.175402e+003;3.662233e-002
2.177331e+003;3.654108e-002
2.179259e+003;3.623922e-002
2.181188e+003;3.593674e-002
2.183116e+003;3.576481e-002
2.185045e+003;3.567706e-002
2.186973e+003;3.551702e-002
2.188902e+003;3.544152e-002
2.190831e+003;3.541679e-002
2.192759e+003;3.537124e-002
2.194688e+003;3.521009e-002
2.196616e+003;3.505863e-002
2.198545e+003;3.513740e-002
2.200473e+003;3.509670e-002
2.202402e+003;3.494222e-002
2.204330e+003;3.490721e-002
2.206259e+003;3.507156e-002
2.208188e+003;3.509573e-002
2.210116e+003;3.490398e-002
2.212044e+003;3.475815e-002
2.213973e+003;3.467130e-002
2.215902e+003;3.450097e-002
2.217830e+003;3.434179e-002
2.219759e+003;3.420812e-002
2.221687e+003;3.404676e-002
2.223616e+003;3.399100e-002
2.225544e+003;3.391042e-002
2.227473e+003;3.391945e-002
2.229401e+003;3.404321e-002
2.231330e+003;3.398420e-002
2.233259e+003;3.383330e-002
2.235187e+003;3.361526e-002
2.237116e+003;3.362682e-002
2.239044e+003;3.372367e-002
2.240973e+003;3.364519e-002
2.242901e+003;3.362080e-002
2.244830e+003;3.336580e-002
2.246758e+003;3.307089e-002
2.248687e+003;3.290859e-002
2.250615e+003;3.297744e-002
2.252544e+003;3.307179e-002
2.254473e+003;3.277304e-002
2.256401e+003;3.233745e-002
2.258330e+003;3.220043e-002
2.260258e+003;3.220739e-002
2.262187e+003;3.226710e-002
2.264115e+003;3.224925e-002
2.266044e+003;3.209657e-002
2.267972e+003;3.212943e-002
2.269901e+003;3.222513e-002
2.271830e+003;3.198218e-002
2.273758e+003;3.160100e-002
2.275687e+003;3.156184e-002
2.277615e+003;3.173529e-002
2.279544e+003;3.169402e-002
2.281472e+003;3.164344e-002
2.283401e+003;3.164234e-002
2.285329e+003;3.146596e-002
2.287258e+003;3.127592e-002
2.289187e+003;3.127061e-002
2.291115e+003;3.132641e-002
2.293043e+003;3.125398e-002
2.294972e+003;3.140042e-002
2.296901e+003;3.147904e-002
2.298829e+003;3.134700e-002
2.300758e+003;3.145841e-002
2.302686e+003;3.149407e-002
2.304615e+003;3.128966e-002
2.306543e+003;3.110855e-002
2.308472e+003;3.121119e-002
2.310400e+003;3.155115e-002
2.312329e+003;3.175397e-002
2.314258e+003;3.176313e-002
2.316186e+003;3.201948e-002
2.318115e+003;3.204563e-002
2.320043e+003;3.177436e-002
2.321972e+003;3.186299e-002
2.323900e+003;3.180898e-002
2.325829e+003;3.156080e-002
2.327757e+003;3.176156e-002
2.329686e+003;3.224708e-002
2.331615e+003;3.237318e-002
2.333543e+003;3.221239e-002
2.335472e+003;3.214766e-002
2.337400e+003;3.234809e-002
2.339329e+003;3.257614e-002
2.341257e+003;3.274482e-002
2.343186e+003;3.278966e-002
2.345114e+003;3.282586e-002
2.347043e+003;3.301111e-002
2.348971e+003;3.319395e-002
2.350900e+003;3.326752e-002
2.352829e+003;3.343618e-002
2.354757e+003;3.354520e-002
2.356686e+003;3.352430e-002
2.358614e+003;3.373467e-002
2.360543e+003;3.399548e-002
2.362471e+003;3.420737e-002
2.364400e+003;3.440760e-002
2.366328e+003;3.432913e-002
2.368257e+003;3.436553e-002
2.370186e+003;3.458144e-002
2.372114e+003;3.475101e-002
2.374042e+003;3.479243e-002
2.375971e+003;3.470517e-002
2.377900e+003;3.486772e-002
2.379828e+003;3.519870e-002
2.381757e+003;3.537358e-002
2.383685e+003;3.552842e-002
2.385614e+003;3.585634e-002
2.387542e+003;3.591958e-002
2.389471e+003;3.584742e-002
2.391399e+003;3.574016e-002
2.393328e+003;3.581176e-002
2.395257e+003;3.607627e-002
2.397185e+003;3.635114e-002
2.399114e+003;3.656134e-002
2.401042e+003;3.677354e-002
2.402971e+003;3.702627e-002
2.404899e+003;3.709126e-002
2.406828e+003;3.701310e-002
2.408756e+003;3.725278e-002
2.410685e+003;3.770736e-002
2.412614e+003;3.787631e-002
2.414542e+003;3.790733e-002
2.416471e+003;3.782772e-002
2.418399e+003;3.793423e-002
2.420328e+003;3.825482e-002
2.422256e+003;3.854005e-002
2.424185e+003;3.878203e-002
2.426113e+003;3.917576e-002
2.428042e+003;3.948490e-002
2.429970e+003;3.964601e-002
2.431899e+003;4.003704e-002
2.433828e+003;4.023274e-002
2.435756e+003;4.007915e-002
2.437685e+003;4.022420e-002
2.439613e+003;4.082744e-002
2.441542e+003;4.119986e-002
2.443470e+003;4.129186e-002
2.445399e+003;4.155299e-002
2.447327e+003;4.182357e-002
2.449256e+003;4.209889e-002
2.451185e+003;4.235671e-002
2.453113e+003;4.276101e-002
2.455042e+003;4.305105e-002
2.456970e+003;4.321623e-002
2.458899e+003;4.314264e-002
2.460827e+003;4.286142e-002
2.462756e+003;4.271992e-002
2.464684e+003;4.313323e-002
2.466613e+003;4.389512e-002
2.468542e+003;4.449251e-002
2.470470e+003;4.464932e-002
2.472398e+003;4.461704e-002
2.474327e+003;4.469210e-002
2.476256e+003;4.479631e-002
2.478184e+003;4.507340e-002
2.480113e+003;4.556628e-002
2.482041e+003;4.587867e-002
2.483970e+003;4.596264e-002
2.485898e+003;4.622626e-002
2.487827e+003;4.654023e-002
2.489755e+003;4.654639e-002
2.491684e+003;4.664196e-002
2.493613e+003;4.678387e-002
2.495541e+003;4.688145e-002
2.497470e+003;4.702033e-002
2.499398e+003;4.690083e-002
2.501327e+003;4.713418e-002
2.503255e+003;4.740782e-002
2.505184e+003;4.733447e-002
2.507112e+003;4.736260e-002
2.509041e+003;4.776300e-002
2.510969e+003;4.808116e-002
2.512898e+003;4.797432e-002
2.514827e+003;4.790883e-002
2.516755e+003;4.801396e-002
2.518684e+003;4.834467e-002
2.520612e+003;4.855104e-002
2.522541e+003;4.881338e-002
2.524469e+003;4.909258e-002
2.526398e+003;4.910938e-002
2.528326e+003;4.913710e-002
2.530255e+003;4.911714e-002
2.532184e+003;4.904791e-002
2.534112e+003;4.928409e-002
2.536041e+003;4.961666e-002
2.537969e+003;4.955259e-002
2.539898e+003;4.949139e-002
2.541826e+003;4.973900e-002
2.543755e+003;5.002749e-002
2.545683e+003;5.008437e-002
2.547612e+003;5.007723e-002
2.549541e+003;5.009174e-002
2.551469e+003;5.015414e-002
2.553397e+003;5.022759e-002
2.555326e+003;5.070851e-002
2.557255e+003;5.108783e-002
2.559183e+003;5.113137e-002
2.561112e+003;5.131177e-002
2.563040e+003;5.154557e-002
2.564969e+003;5.150535e-002
2.566897e+003;5.138833e-002
2.568826e+003;5.159030e-002
2.570754e+003;5.179879e-002
2.572683e+003;5.181409e-002
2.574612e+003;5.190650e-002
2.576540e+003;5.220178e-002
2.578469e+003;5.263663e-002
2.580397e+003;5.299492e-002
2.582326e+003;5.307631e-002
2.584254e+003;5.297587e-002
2.586183e+003;5.319711e-002
2.588111e+003;5.342638e-002
2.590040e+003;5.340461e-002
2.591969e+003;5.356242e-002
2.593897e+003;5.374587e-002
2.595826e+003;5.400015e-002
2.597754e+003;5.432343e-002
2.599683e+003;5.450908e-002
2.601611e+003;5.462803e-002
2.603540e+003;5.481214e-002
2.605468e+003;5.494659e-002
2.607397e+003;5.516433e-002
2.609325e+003;5.539095e-002
2.611254e+003;5.554199e-002
2.613183e+003;5.573987e-002
2.615111e+003;5.604018e-002
2.617040e+003;5.635503e-002
2.618968e+003;5.657959e-002
2.620897e+003;5.688721e-002
2.622825e+003;5.697133e-002
2.624754e+003;5.711873e-002
2.626682e+003;5.763973e-002
2.628611e+003;5.808575e-002
2.630540e+003;5.834244e-002
2.632468e+003;5.845133e-002
2.634396e+003;5.865574e-002
2.636325e+003;5.901330e-002
2.638254e+003;5.932195e-002
2.640182e+003;5.949079e-002
2.642111e+003;5.986344e-002
2.644039e+003;6.061517e-002
2.645968e+003;6.093164e-002
2.647896e+003;6.071904e-002
2.649825e+003;6.076537e-002
2.651753e+003;6.099753e-002
2.653682e+003;6.135629e-002
2.655611e+003;6.178426e-002
2.657539e+003;6.226271e-002
2.659468e+003;6.246341e-002
2.661396e+003;6.279743e-002
2.663325e+003;6.314833e-002
2.665253e+003;6.325790e-002
2.667182e+003;6.339671e-002
2.669110e+003;6.377374e-002
2.671039e+003;6.408545e-002
2.672968e+003;6.421831e-002
2.674896e+003;6.460658e-002
2.676825e+003;6.522004e-002
2.678753e+003;6.542701e-002
2.680682e+003;6.523136e-002
2.682610e+003;6.551045e-002
2.684539e+003;6.602859e-002
2.686467e+003;6.626878e-002
2.688396e+003;6.634629e-002
2.690324e+003;6.669729e-002
2.692253e+003;6.713106e-002
2.694182e+003;6.751145e-002
2.696110e+003;6.778651e-002
2.698039e+003;6.816004e-002
2.699967e+003;6.855504e-002
2.701896e+003;6.855485e-002
2.703824e+003;6.837780e-002
2.705753e+003;6.856234e-002
2.707681e+003;6.903025e-002
2.709610e+003;6.935646e-002
2.711539e+003;6.952523e-002
2.713467e+003;6.978911e-002
2.715396e+003;7.010175e-002
2.717324e+003;7.018785e-002
2.719253e+003;7.004058e-002
2.721181e+003;7.024492e-002
2.723110e+003;7.067729e-002
2.725038e+003;7.087591e-002
2.726967e+003;7.095475e-002
2.728896e+003;7.122392e-002
2.730824e+003;7.145689e-002
2.732752e+003;7.155310e-002
2.734681e+003;7.163688e-002
2.736610e+003;7.195964e-002
2.738538e+003;7.221720e-002
2.740467e+003;7.238536e-002
2.742395e+003;7.252473e-002
2.744324e+003;7.257152e-002
2.746252e+003;7.291847e-002
2.748181e+003;7.317650e-002
2.750109e+003;7.322384e-002
2.752038e+003;7.329629e-002
2.753967e+003;7.349650e-002
2.755895e+003;7.386472e-002
2.757824e+003;7.406159e-002
2.759752e+003;7.415449e-002
2.761681e+003;7.453322e-002
2.763609e+003;7.501029e-002
2.765538e+003;7.507768e-002
2.767466e+003;7.523809e-002
2.769395e+003;7.569598e-002
2.771323e+003;7.621544e-002
2.773252e+003;7.647505e-002
2.775181e+003;7.656831e-002
2.777109e+003;7.664820e-002
2.779038e+003;7.697997e-002
2.780966e+003;7.746810e-002
2.782895e+003;7.777514e-002
2.784823e+003;7.783253e-002
2.786752e+003;7.819826e-002
2.788680e+003;7.896531e-002
2.790609e+003;7.945655e-002
2.792538e+003;7.982189e-002
2.794466e+003;8.005275e-002
2.796395e+003;8.036438e-002
2.798323e+003;8.074334e-002
2.800252e+003;8.103853e-002
2.802180e+003;8.158450e-002
2.804109e+003;8.231886e-002
2.806037e+003;8.308503e-002
2.807966e+003;8.350750e-002
2.809895e+003;8.340057e-002
2.811823e+003;8.389862e-002
2.813751e+003;8.459375e-002
2.815680e+003;8.489068e-002
2.817609e+003;8.527729e-002
2.819537e+003;8.594748e-002
2.821466e+003;8.642102e-002
2.823394e+003;8.714101e-002
2.825323e+003;8.790249e-002
2.827251e+003;8.842965e-002
2.829180e+003;8.924616e-002
2.831108e+003;9.017920e-002
2.833037e+003;9.079698e-002
2.834966e+003;9.159124e-002
2.836894e+003;9.257887e-002
2.838823e+003;9.313342e-002
2.840751e+003;9.383515e-002
2.842680e+003;9.484958e-002
2.844608e+003;9.604161e-002
2.846537e+003;9.724878e-002
2.848465e+003;9.847842e-002
2.850394e+003;9.959124e-002
2.852323e+003;1.003906e-001
2.854251e+003;1.012686e-001
2.856180e+003;1.027149e-001
2.858108e+003;1.044038e-001
2.860037e+003;1.058882e-001
2.861965e+003;1.071848e-001
2.863894e+003;1.087132e-001
2.865822e+003;1.103079e-001
2.867751e+003;1.114915e-001
2.869679e+003;1.126279e-001
2.871608e+003;1.140482e-001
2.873536e+003;1.154171e-001
2.875465e+003;1.161580e-001
2.877394e+003;1.167155e-001
2.879322e+003;1.172734e-001
2.881251e+003;1.178177e-001
2.883179e+003;1.183139e-001
2.885108e+003;1.185888e-001
2.887036e+003;1.188738e-001
2.888965e+003;1.189835e-001
2.890893e+003;1.190286e-001
2.892822e+003;1.189732e-001
2.894750e+003;1.186582e-001
2.896679e+003;1.180576e-001
2.898608e+003;1.175543e-001
2.900536e+003;1.167613e-001
2.902465e+003;1.160352e-001
2.904393e+003;1.157059e-001
2.906322e+003;1.149170e-001
2.908250e+003;1.143479e-001
2.910179e+003;1.139119e-001
2.912107e+003;1.132787e-001
2.914036e+003;1.124080e-001
2.915965e+003;1.116639e-001
2.917893e+003;1.107998e-001
2.919822e+003;1.098241e-001
2.921750e+003;1.085337e-001
2.923679e+003;1.073424e-001
2.925607e+003;1.065570e-001
2.927536e+003;1.054924e-001
2.929464e+003;1.044394e-001
2.931393e+003;1.035937e-001
2.933322e+003;1.028023e-001
2.935250e+003;1.020385e-001
2.937178e+003;1.009074e-001
2.939107e+003;9.929812e-002
2.941036e+003;9.794246e-002
2.942964e+003;9.672339e-002
2.944893e+003;9.548304e-002
2.946821e+003;9.459837e-002
2.948750e+003;9.359122e-002
2.950678e+003;9.234785e-002
2.952607e+003;9.147395e-002
2.954535e+003;9.046647e-002
2.956464e+003;8.886752e-002
2.958393e+003;8.774969e-002
2.960321e+003;8.718945e-002
2.962250e+003;8.602491e-002
2.964178e+003;8.475385e-002
2.966107e+003;8.417863e-002
2.968035e+003;8.368624e-002
2.969964e+003;8.276957e-002
2.971892e+003;8.207723e-002
2.973821e+003;8.180665e-002
2.975750e+003;8.147912e-002
2.977678e+003;8.107411e-002
2.979607e+003;8.085744e-002
2.981535e+003;8.068468e-002
2.983464e+003;8.021525e-002
2.985392e+003;7.966065e-002
2.987321e+003;7.917813e-002
2.989249e+003;7.864881e-002
2.991178e+003;7.823822e-002
2.993106e+003;7.842874e-002
2.995035e+003;7.871974e-002
2.996964e+003;7.876657e-002
2.998892e+003;7.866902e-002
3.000821e+003;7.815126e-002
3.002749e+003;7.776016e-002
3.004678e+003;7.811421e-002
3.006606e+003;7.862192e-002
3.008535e+003;7.866088e-002
3.010463e+003;7.886521e-002
3.012392e+003;7.918847e-002
3.014321e+003;7.956983e-002
3.016249e+003;7.998554e-002
3.018177e+003;8.015878e-002
3.020106e+003;8.031327e-002
3.022035e+003;8.063928e-002
3.023963e+003;8.101740e-002
3.025892e+003;8.167886e-002
3.027820e+003;8.226099e-002
3.029749e+003;8.272298e-002
3.031677e+003;8.341739e-002
3.033606e+003;8.390139e-002
3.035534e+003;8.418579e-002
3.037463e+003;8.465837e-002
3.039392e+003;8.536306e-002
3.041320e+003;8.606838e-002
3.043249e+003;8.630197e-002
3.045177e+003;8.645409e-002
3.047106e+003;8.712915e-002
3.049034e+003;8.770189e-002
3.050963e+003;8.806032e-002
3.052891e+003;8.878247e-002
3.054820e+003;8.946462e-002
3.056749e+003;8.989925e-002
3.058677e+003;9.025640e-002
3.060606e+003;9.092772e-002
3.062534e+003;9.143154e-002
3.064463e+003;9.189652e-002
3.066391e+003;9.265079e-002
3.068320e+003;9.334521e-002
3.070248e+003;9.380036e-002
3.072177e+003;9.419408e-002
3.074105e+003;9.485985e-002
3.076034e+003;9.581937e-002
3.077963e+003;9.655144e-002
3.079891e+003;9.706271e-002
3.081820e+003;9.779601e-002
3.083748e+003;9.857745e-002
3.085677e+003;9.918452e-002
3.087605e+003;9.969960e-002
3.089534e+003;1.002639e-001
3.091462e+003;1.009373e-001
3.093391e+003;1.014785e-001
3.095320e+003;1.020999e-001
3.097248e+003;1.028843e-001
3.099177e+003;1.033843e-001
3.101105e+003;1.040215e-001
3.103034e+003;1.048204e-001
3.104962e+003;1.054625e-001
3.106891e+003;1.060039e-001
3.108819e+003;1.067586e-001
3.110748e+003;1.077995e-001
3.112677e+003;1.086736e-001
3.114605e+003;1.088478e-001
3.116533e+003;1.089589e-001
3.118462e+003;1.095870e-001
3.120391e+003;1.105582e-001
3.122319e+003;1.112775e-001
3.124248e+003;1.120356e-001
3.126176e+003;1.128069e-001
3.128105e+003;1.136245e-001
3.130033e+003;1.142491e-001
3.131962e+003;1.144898e-001
3.133890e+003;1.153153e-001
3.135819e+003;1.164745e-001
3.137748e+003;1.170950e-001
3.139676e+003;1.175128e-001
3.141605e+003;1.182491e-001
3.143533e+003;1.188821e-001
3.145462e+003;1.194273e-001
3.147390e+003;1.199997e-001
3.149319e+003;1.206374e-001
3.151247e+003;1.212306e-001
3.153176e+003;1.220580e-001
3.155104e+003;1.228927e-001
3.157033e+003;1.234438e-001
3.158962e+003;1.238679e-001
3.160890e+003;1.245883e-001
3.162819e+003;1.255432e-001
3.164747e+003;1.260541e-001
3.166676e+003;1.267058e-001
3.168604e+003;1.271701e-001
3.170533e+003;1.273969e-001
3.172461e+003;1.281209e-001
3.174390e+003;1.290624e-001
3.176319e+003;1.298803e-001
3.178247e+003;1.305609e-001
3.180176e+003;1.308033e-001
3.182104e+003;1.311173e-001
3.184033e+003;1.317808e-001
3.185961e+003;1.328208e-001
3.187890e+003;1.338627e-001
3.189818e+003;1.343317e-001
3.191747e+003;1.347068e-001
3.193676e+003;1.354809e-001
3.195604e+003;1.360585e-001
3.197532e+003;1.363490e-001
3.199461e+003;1.369861e-001
3.201390e+003;1.378497e-001
3.203318e+003;1.382731e-001
3.205247e+003;1.384698e-001
3.207175e+003;1.395229e-001
3.209104e+003;1.402510e-001
3.211032e+003;1.406083e-001
3.212961e+003;1.413215e-001
3.214889e+003;1.418576e-001
3.216818e+003;1.424736e-001
3.218747e+003;1.430869e-001
3.220675e+003;1.437457e-001
3.222604e+003;1.443226e-001
3.224532e+003;1.449350e-001
3.226461e+003;1.451066e-001
3.228389e+003;1.455056e-001
3.230318e+003;1.463421e-001
3.232246e+003;1.468553e-001
3.234175e+003;1.470852e-001
3.236104e+003;1.477906e-001
3.238032e+003;1.484020e-001
3.239961e+003;1.483660e-001
3.241889e+003;1.486962e-001
3.243818e+003;1.492515e-001
3.245746e+003;1.496255e-001
3.247675e+003;1.500061e-001
3.249603e+003;1.507796e-001
3.251532e+003;1.514633e-001
3.253460e+003;1.518488e-001
3.255389e+003;1.520756e-001
3.257318e+003;1.520724e-001
3.259246e+003;1.525268e-001
3.261175e+003;1.534096e-001
3.263103e+003;1.535742e-001
3.265032e+003;1.536067e-001
3.266960e+003;1.541612e-001
3.268889e+003;1.548186e-001
3.270817e+003;1.555612e-001
3.272746e+003;1.559442e-001
3.274675e+003;1.563611e-001
3.276603e+003;1.562745e-001
3.278531e+003;1.564190e-001
3.280460e+003;1.567632e-001
3.282389e+003;1.573581e-001
3.284317e+003;1.579242e-001
3.286246e+003;1.579702e-001
3.288174e+003;1.581183e-001
3.290103e+003;1.582401e-001
3.292031e+003;1.580785e-001
3.293960e+003;1.581235e-001
3.295888e+003;1.587663e-001
3.297817e+003;1.594469e-001
3.299746e+003;1.596296e-001
3.301674e+003;1.598005e-001
3.303603e+003;1.602367e-001
3.305531e+003;1.601872e-001
3.307460e+003;1.600560e-001
3.309388e+003;1.605704e-001
3.311317e+003;1.610141e-001
3.313245e+003;1.610216e-001
3.315174e+003;1.608801e-001
3.317103e+003;1.609542e-001
3.319031e+003;1.613228e-001
3.320960e+003;1.612851e-001
3.322888e+003;1.611443e-001
3.324817e+003;1.611838e-001
3.326745e+003;1.612013e-001
3.328674e+003;1.611438e-001
3.330602e+003;1.610845e-001
3.332531e+003;1.609518e-001
3.334459e+003;1.607706e-001
3.336388e+003;1.610916e-001
3.338317e+003;1.617806e-001
3.340245e+003;1.619191e-001
3.342174e+003;1.616501e-001
3.344102e+003;1.616242e-001
3.346031e+003;1.616963e-001
3.347959e+003;1.614807e-001
3.349888e+003;1.613368e-001
3.351816e+003;1.613397e-001
3.353745e+003;1.606797e-001
3.355674e+003;1.602334e-001
3.357602e+003;1.605462e-001
3.359531e+003;1.605323e-001
3.361459e+003;1.599092e-001
3.363388e+003;1.596476e-001
3.365316e+003;1.593764e-001
3.367245e+003;1.593249e-001
3.369173e+003;1.592938e-001
3.371102e+003;1.588904e-001
3.373031e+003;1.586019e-001
3.374959e+003;1.584225e-001
3.376887e+003;1.580151e-001
3.378816e+003;1.573239e-001
3.380745e+003;1.571405e-001
3.382673e+003;1.567459e-001
3.384602e+003;1.560584e-001
3.386530e+003;1.558313e-001
3.388459e+003;1.554019e-001
3.390387e+003;1.549247e-001
3.392316e+003;1.544879e-001
3.394244e+003;1.539976e-001
3.396173e+003;1.537815e-001
3.398102e+003;1.532493e-001
3.400030e+003;1.526022e-001
3.401959e+003;1.525166e-001
3.403887e+003;1.523927e-001
3.405816e+003;1.519124e-001
3.407744e+003;1.516315e-001
3.409673e+003;1.512353e-001
3.411601e+003;1.505101e-001
3.413530e+003;1.496477e-001
3.415458e+003;1.488410e-001
3.417387e+003;1.484526e-001
3.419316e+003;1.479317e-001
3.421244e+003;1.469930e-001
3.423173e+003;1.468541e-001
3.425101e+003;1.466862e-001
3.427030e+003;1.459495e-001
3.428958e+003;1.455406e-001
3.430887e+003;1.451645e-001
3.432815e+003;1.443139e-001
3.434744e+003;1.436686e-001
3.436673e+003;1.429273e-001
3.438601e+003;1.422874e-001
3.440530e+003;1.419726e-001
3.442458e+003;1.412786e-001
3.444387e+003;1.399725e-001
3.446315e+003;1.387326e-001
3.448244e+003;1.379927e-001
3.450172e+003;1.371239e-001
3.452101e+003;1.356182e-001
3.454030e+003;1.343108e-001
3.455958e+003;1.336803e-001
3.457886e+003;1.328848e-001
3.459815e+003;1.316608e-001
3.461744e+003;1.299210e-001
3.463672e+003;1.284070e-001
3.465601e+003;1.277520e-001
3.467529e+003;1.269032e-001
3.469458e+003;1.256121e-001
3.471386e+003;1.245890e-001
3.473315e+003;1.239170e-001
3.475243e+003;1.229123e-001
3.477172e+003;1.215871e-001
3.479101e+003;1.200769e-001
3.481029e+003;1.191955e-001
3.482958e+003;1.187643e-001
3.484886e+003;1.180530e-001
3.486815e+003;1.169040e-001
3.488743e+003;1.154860e-001
3.490672e+003;1.136433e-001
3.492600e+003;1.127207e-001
3.494529e+003;1.121641e-001
3.496458e+003;1.106106e-001
3.498386e+003;1.089972e-001
3.500315e+003;1.076411e-001
3.502243e+003;1.062862e-001
3.504172e+003;1.046272e-001
3.506100e+003;1.030966e-001
3.508029e+003;1.018772e-001
3.509957e+003;1.005403e-001
3.511886e+003;9.893237e-002
3.513814e+003;9.734379e-002
3.515743e+003;9.658828e-002
3.517672e+003;9.612457e-002
3.519600e+003;9.517968e-002
3.521529e+003;9.405317e-002
3.523457e+003;9.277467e-002
3.525386e+003;9.130453e-002
3.527314e+003;9.013328e-002
3.529243e+003;8.920617e-002
3.531171e+003;8.784058e-002
3.533100e+003;8.653431e-002
3.535029e+003;8.543276e-002
3.536957e+003;8.427316e-002
3.538885e+003;8.326408e-002
3.540814e+003;8.207495e-002
3.542743e+003;8.125237e-002
3.544671e+003;8.040389e-002
3.546600e+003;7.904158e-002
3.548528e+003;7.816871e-002
3.550457e+003;7.743190e-002
3.552385e+003;7.645530e-002
3.554314e+003;7.543231e-002
3.556242e+003;7.458826e-002
3.558171e+003;7.358760e-002
3.560100e+003;7.204338e-002
3.562028e+003;7.103435e-002
3.563957e+003;7.033844e-002
3.565885e+003;6.925941e-002
3.567814e+003;6.820505e-002
3.569742e+003;6.747712e-002
3.571671e+003;6.655750e-002
3.573599e+003;6.584875e-002
3.575528e+003;6.498762e-002
3.577457e+003;6.392154e-002
3.579385e+003;6.311537e-002
3.581314e+003;6.243315e-002
3.583242e+003;6.187618e-002
3.585171e+003;6.125189e-002
3.587099e+003;6.037283e-002
3.589028e+003;5.961662e-002
3.590956e+003;5.932887e-002
3.592885e+003;5.877689e-002
3.594813e+003;5.769517e-002
3.596742e+003;5.676028e-002
3.598671e+003;5.609345e-002
3.600599e+003;5.519040e-002
3.602528e+003;5.469709e-002
3.604456e+003;5.449608e-002
3.606385e+003;5.367327e-002
3.608313e+003;5.259059e-002
3.610242e+003;5.139863e-002
3.612170e+003;5.037879e-002
3.614099e+003;4.995064e-002
3.616028e+003;4.945578e-002
3.617956e+003;4.842226e-002
3.619885e+003;4.757471e-002
3.621813e+003;4.697754e-002
3.623742e+003;4.627369e-002
3.625670e+003;4.589730e-002
3.627599e+003;4.503158e-002
3.629527e+003;4.392298e-002
3.631456e+003;4.338573e-002
3.633385e+003;4.259439e-002
3.635313e+003;4.150840e-002
3.637241e+003;4.062055e-002
3.639170e+003;3.956928e-002
3.641099e+003;3.880562e-002
3.643027e+003;3.848962e-002
3.644956e+003;3.757392e-002
3.646884e+003;3.617349e-002
3.648813e+003;3.496352e-002
3.650741e+003;3.429618e-002
3.652670e+003;3.383857e-002
3.654598e+003;3.312703e-002
3.656527e+003;3.218174e-002
3.658456e+003;3.144915e-002
3.660384e+003;3.058378e-002
3.662313e+003;2.938504e-002
3.664241e+003;2.827757e-002
3.666170e+003;2.767568e-002
3.668098e+003;2.740833e-002
3.670027e+003;2.646437e-002
3.671955e+003;2.526017e-002
3.673884e+003;2.464975e-002
3.675813e+003;2.402359e-002
3.677741e+003;2.345372e-002
3.679669e+003;2.314314e-002
3.681598e+003;2.270431e-002
3.683527e+003;2.201907e-002
3.685455e+003;2.136683e-002
3.687384e+003;2.057955e-002
3.689312e+003;2.007265e-002
3.691241e+003;1.986845e-002
3.693169e+003;1.970279e-002
3.695098e+003;1.909126e-002
3.697026e+003;1.880350e-002
3.698955e+003;1.883886e-002
3.700884e+003;1.876191e-002
3.702812e+003;1.868646e-002
3.704741e+003;1.857157e-002
3.706669e+003;1.814653e-002
3.708598e+003;1.762786e-002
3.710526e+003;1.718154e-002
3.712455e+003;1.704502e-002
3.714383e+003;1.697131e-002
3.716312e+003;1.678034e-002
3.718240e+003;1.654246e-002
3.720169e+003;1.625859e-002
3.722098e+003;1.596964e-002
3.724026e+003;1.611149e-002
3.725955e+003;1.570695e-002
3.727883e+003;1.532246e-002
3.729812e+003;1.542994e-002
3.731740e+003;1.554143e-002
3.733669e+003;1.551365e-002
3.735597e+003;1.508336e-002
3.737526e+003;1.501228e-002
3.739455e+003;1.514696e-002
3.741383e+003;1.523927e-002
3.743312e+003;1.503098e-002
3.745240e+003;1.445168e-002
3.747169e+003;1.435704e-002
3.749097e+003;1.426307e-002
3.751026e+003;1.428506e-002
3.752954e+003;1.454414e-002
3.754883e+003;1.455449e-002
3.756812e+003;1.418998e-002
3.758740e+003;1.389877e-002
3.760668e+003;1.411799e-002
3.762597e+003;1.420655e-002
3.764526e+003;1.399827e-002
3.766454e+003;1.387667e-002
3.768383e+003;1.432711e-002
3.770311e+003;1.448234e-002
3.772240e+003;1.415948e-002
3.774168e+003;1.413322e-002
3.776097e+003;1.404574e-002
3.778025e+003;1.397863e-002
3.779954e+003;1.405932e-002
3.781883e+003;1.405313e-002
3.783811e+003;1.383686e-002
3.785740e+003;1.367215e-002
3.787668e+003;1.359392e-002
3.789597e+003;1.374239e-002
3.791525e+003;1.346837e-002
3.793454e+003;1.335846e-002
3.795382e+003;1.354148e-002
3.797311e+003;1.362551e-002
3.799240e+003;1.369526e-002
3.801168e+003;1.336926e-002
3.803097e+003;1.328900e-002
3.805025e+003;1.348067e-002
3.806954e+003;1.355389e-002
3.808882e+003;1.375343e-002
3.810811e+003;1.384568e-002
3.812739e+003;1.373455e-002
3.814668e+003;1.340890e-002
3.816596e+003;1.332126e-002
3.818525e+003;1.338310e-002
3.820454e+003;1.351382e-002
3.822382e+003;1.370672e-002
3.824311e+003;1.392111e-002
3.826239e+003;1.400016e-002
3.828168e+003;1.375849e-002
3.830096e+003;1.358247e-002
3.832025e+003;1.377094e-002
3.833953e+003;1.390305e-002
3.835882e+003;1.381230e-002
3.837811e+003;1.375412e-002
3.839739e+003;1.385803e-002
3.841667e+003;1.375244e-002
3.843596e+003;1.373360e-002
3.845525e+003;1.372905e-002
3.847453e+003;1.364001e-002
3.849382e+003;1.373931e-002
3.851310e+003;1.362951e-002
3.853239e+003;1.333185e-002
3.855167e+003;1.360776e-002
3.857096e+003;1.394240e-002
3.859024e+003;1.403444e-002
3.860953e+003;1.421908e-002
3.862882e+003;1.451146e-002
3.864810e+003;1.473520e-002
3.866739e+003;1.457398e-002
3.868667e+003;1.439403e-002
3.870596e+003;1.468012e-002
3.872524e+003;1.497232e-002
3.874453e+003;1.471898e-002
3.876381e+003;1.491999e-002
3.878310e+003;1.523511e-002
3.880239e+003;1.531872e-002
3.882167e+003;1.550847e-002
3.884096e+003;1.573698e-002
3.886024e+003;1.572279e-002
3.887953e+003;1.567789e-002
3.889881e+003;1.553144e-002
3.891810e+003;1.535277e-002
3.893738e+003;1.578471e-002
3.895667e+003;1.628666e-002
3.897595e+003;1.619540e-002
3.899524e+003;1.608711e-002
3.901453e+003;1.621859e-002
3.903381e+003;1.648161e-002
3.905310e+003;1.669621e-002
3.907238e+003;1.672114e-002
3.909167e+003;1.693655e-002
3.911095e+003;1.745381e-002
3.913024e+003;1.746153e-002
3.914952e+003;1.741742e-002
3.916881e+003;1.771948e-002
3.918810e+003;1.826048e-002
3.920738e+003;1.820454e-002
3.922667e+003;1.778582e-002
3.924595e+003;1.772021e-002
3.926524e+003;1.805771e-002
3.928452e+003;1.824572e-002
3.930381e+003;1.794112e-002
3.932309e+003;1.800155e-002
3.934238e+003;1.833699e-002
3.936167e+003;1.831923e-002
3.938095e+003;1.861179e-002
3.940023e+003;1.905920e-002
3.941952e+003;1.922285e-002
3.943881e+003;1.916339e-002
3.945809e+003;1.930646e-002
3.947738e+003;1.925579e-002
3.949666e+003;1.883900e-002
3.951595e+003;1.867477e-002
3.953523e+003;1.896678e-002
3.955452e+003;1.891102e-002
3.957380e+003;1.884146e-002
3.959309e+003;1.900558e-002
3.961238e+003;1.893351e-002
3.963166e+003;1.901603e-002
3.965095e+003;1.916941e-002
3.967023e+003;1.901908e-002
3.968952e+003;1.943798e-002
3.970880e+003;2.006165e-002
3.972809e+003;1.982801e-002
3.974737e+003;1.916114e-002
3.976666e+003;1.935804e-002
3.978594e+003;2.002241e-002
3.980523e+003;2.013137e-002
3.982452e+003;1.964049e-002
3.984380e+003;1.951931e-002
3.986309e+003;1.982194e-002
3.988237e+003;1.964818e-002
3.990166e+003;1.955078e-002
3.992094e+003;1.948081e-002
3.994023e+003;1.926275e-002
3.995951e+003;1.941597e-002
3.997880e+003;1.970927e-002
3.999809e+003;1.982326e-002
4.001737e+003;0.000000e+000
