3.992094e+002;0.000000e+000
4.011380e+002;0.000000e+000
4.030665e+002;0.000000e+000
4.049951e+002;0.000000e+000
4.069236e+002;0.000000e+000
4.088522e+002;0.000000e+000
4.107807e+002;0.000000e+000
4.127093e+002;0.000000e+000
4.146378e+002;0.000000e+000
4.165664e+002;0.000000e+000
4.184949e+002;0.000000e+000
4.204235e+002;0.000000e+000
4.223520e+002;0.000000e+000
4.242806e+002;0.000000e+000
4.262091e+002;0.000000e+000
4.281377e+002;0.000000e+000
4.300662e+002;0.000000e+000
4.319948e+002;0.000000e+000
4.339233e+002;0.000000e+000
4.358519e+002;0.000000e+000
4.377804e+002;0.000000e+000
4.397090e+002;0.000000e+000
4.416375e+002;0.000000e+000
4.435660e+002;0.000000e+000
4.454946e+002;0.000000e+000
4.474232e+002;0.000000e+000
4.493517e+002;0.000000e+000
4.512802e+002;0.000000e+000
4.532088e+002;0.000000e+000
4.551373e+002;0.000000e+000
4.570659e+002;0.000000e+000
4.589944e+002;0.000000e+000
4.609230e+002;0.000000e+000
4.628515e+002;0.000000e+000
4.647801e+002;0.000000e+000
4.667086e+002;0.000000e+000
4.686372e+002;0.000000e+000
4.705657e+002;0.000000e+000
4.724943e+002;0.000000e+000
4.744228e+002;0.000000e+000
4.763513e+002;0.000000e+000
4.782799e+002;0.000000e+000
4.802085e+002;0.000000e+000
4.821370e+002;0.000000e+000
4.840656e+002;0.000000e+000
4.859941e+002;0.000000e+000
4.879226e+002;0.000000e+000
4.898512e+002;0.000000e+000
4.917798e+002;0.000000e+000
4.937083e+002;0.000000e+000
4.956368e+002;0.000000e+000
4.975654e+002;0.000000e+000
4.994939e+002;0.000000e+000
5.014225e+002;0.000000e+000
5.033510e+002;0.000000e+000
5.052796e+002;0.000000e+000
5.072081e+002;0.000000e+000
5.091367e+002;0.000000e+000
5.110652e+002;0.000000e+000
5.129938e+002;0.000000e+000
5.149223e+002;0.000000e+000
5.168509e+002;0.000000e+000
5.187794e+002;0.000000e+000
5.207079e+002;0.000000e+000
5.226365e+002;0.000000e+000
5.245651e+002;0.000000e+000
5.264936e+002;0.000000e+000
5.284222e+002;0.000000e+000
5.303507e+002;0.000000e+000
5.322792e+002;0.000000e+000
5.342078e+002;0.000000e+000
5.361364e+002;0.000000e+000
5.380649e+002;0.000000e+000
5.399935e+002;0.000000e+000
5.419220e+002;0.000000e+000
5.438505e+002;0.000000e+000
5.457791e+002;0.000000e+000
5.477076e+002;0.000000e+000
5.496362e+002;0.000000e+000
5.515648e+002;0.000000e+000
5.534933e+002;0.000000e+000
5.554218e+002;0.000000e+000
5.573504e+002;0.000000e+000
5.592789e+002;0.000000e+000
5.612075e+002;0.000000e+000
5.631360e+002;0.000000e+000
5.650646e+002;0.000000e+000
5.669931e+002;0.000000e+000
5.689217e+002;0.000000e+000
5.708502e+002;0.000000e+000
5.727787e+002;0.000000e+000
5.747073e+002;0.000000e+000
5.766359e+002;0.000000e+000
5.785644e+002;0.000000e+000
5.804930e+002;0.000000e+000
5.824215e+002;0.000000e+000
5.843500e+002;0.000000e+000
5.862786e+002;0.000000e+000
5.882072e+002;0.000000e+000
5.901357e+002;0.000000e+000
5.920643e+002;0.000000e+000
5.939928e+002;0.000000e+000
5.959213e+002;0.000000e+000
5.978499e+002;0.000000e+000
5.997784e+002;2.866012e-001
6.017070e+002;2.876020e-001
6.036355e+002;2.872264e-001
6.055641e+002;2.861364e-001
6.074926e+002;2.883661e-001
6.094211e+002;2.931503e-001
6.113497e+002;2.889532e-001
6.132783e+002;2.812048e-001
6.152068e+002;2.794515e-001
6.171354e+002;2.758952e-001
6.190639e+002;2.666697e-001
6.209924e+002;2.625614e-001
6.229210e+002;2.631379e-001
6.248495e+002;2.640380e-001
6.267781e+002;2.635655e-001
6.287067e+002;2.658561e-001
6.306352e+002;2.659144e-001
6.325637e+002;2.626353e-001
6.344923e+002;2.579323e-001
6.364208e+002;2.526555e-001
6.383494e+002;2.528679e-001
6.402780e+002;2.517028e-001
6.422065e+002;2.480988e-001
6.441350e+002;2.466630e-001
6.460636e+002;2.440284e-001
6.479921e+002;2.472943e-001
6.499207e+002;2.512221e-001
6.518492e+002;2.475495e-001
6.537778e+002;2.442214e-001
6.557063e+002;2.488933e-001
6.576349e+002;2.515533e-001
6.595634e+002;2.524152e-001
6.614919e+002;2.557857e-001
6.634205e+002;2.570319e-001
6.653491e+002;2.539218e-001
6.672776e+002;2.523356e-001
6.692062e+002;2.524190e-001
6.711347e+002;2.493432e-001
6.730632e+002;2.412027e-001
6.749918e+002;2.319176e-001
6.769203e+002;2.233420e-001
6.788489e+002;2.144805e-001
6.807775e+002;2.070617e-001
6.827060e+002;2.036974e-001
6.846345e+002;2.019600e-001
6.865631e+002;1.999650e-001
6.884916e+002;1.984670e-001
6.904202e+002;1.971525e-001
6.923488e+002;1.958622e-001
6.942773e+002;1.940832e-001
6.962058e+002;1.924710e-001
6.981344e+002;1.927044e-001
7.000629e+002;1.928355e-001
7.019915e+002;1.916066e-001
7.039200e+002;1.901312e-001
7.058486e+002;1.876694e-001
7.077771e+002;1.854650e-001
7.097057e+002;1.847525e-001
7.116342e+002;1.846999e-001
7.135627e+002;1.843908e-001
7.154913e+002;1.831985e-001
7.174199e+002;1.815646e-001
7.193484e+002;1.804280e-001
7.212770e+002;1.786743e-001
7.232055e+002;1.772012e-001
7.251340e+002;1.752610e-001
7.270626e+002;1.729745e-001
7.289911e+002;1.718673e-001
7.309197e+002;1.704852e-001
7.328483e+002;1.687083e-001
7.347768e+002;1.670139e-001
7.367053e+002;1.653703e-001
7.386339e+002;1.638027e-001
7.405624e+002;1.622333e-001
7.424910e+002;1.609012e-001
7.444196e+002;1.601357e-001
7.463481e+002;1.589830e-001
7.482766e+002;1.572103e-001
7.502052e+002;1.552935e-001
7.521337e+002;1.540811e-001
7.540623e+002;1.530060e-001
7.559908e+002;1.515626e-001
7.579194e+002;1.493553e-001
7.598479e+002;1.477868e-001
7.617765e+002;1.473200e-001
7.637050e+002;1.467425e-001
7.656335e+002;1.451772e-001
7.675621e+002;1.437870e-001
7.694907e+002;1.421205e-001
7.714192e+002;1.407004e-001
7.733478e+002;1.392534e-001
7.752763e+002;1.377216e-001
7.772048e+002;1.362836e-001
7.791334e+002;1.352392e-001
7.810620e+002;1.349036e-001
7.829905e+002;1.340998e-001
7.849191e+002;1.324293e-001
7.868476e+002;1.312969e-001
7.887761e+002;1.299569e-001
7.907047e+002;1.287248e-001
7.926332e+002;1.283930e-001
7.945618e+002;1.274315e-001
7.964903e+002;1.254942e-001
7.984189e+002;1.246293e-001
8.003474e+002;1.240152e-001
8.022759e+002;1.235543e-001
8.042045e+002;1.232517e-001
8.061331e+002;1.219201e-001
8.080616e+002;1.212735e-001
8.099902e+002;1.215409e-001
8.119187e+002;1.215587e-001
8.138472e+002;1.209621e-001
8.157758e+002;1.195566e-001
8.177043e+002;1.186030e-001
8.196329e+002;1.187103e-001
8.215615e+002;1.188538e-001
8.234900e+002;1.186030e-001
8.254185e+002;1.184781e-001
8.273471e+002;1.185289e-001
8.292756e+002;1.183649e-001
8.312042e+002;1.179303e-001
8.331328e+002;1.171758e-001
8.350613e+002;1.163345e-001
8.369898e+002;1.155470e-001
8.389184e+002;1.152072e-001
8.408469e+002;1.146926e-001
8.427755e+002;1.140279e-001
8.447040e+002;1.133510e-001
8.466326e+002;1.124651e-001
8.485611e+002;1.118622e-001
8.504897e+002;1.122025e-001
8.524182e+002;1.120532e-001
8.543467e+002;1.114942e-001
8.562753e+002;1.112290e-001
8.582039e+002;1.119773e-001
8.601324e+002;1.132496e-001
8.620610e+002;1.141591e-001
8.639895e+002;1.145304e-001
8.659180e+002;1.154823e-001
8.678466e+002;1.176607e-001
8.697751e+002;1.198731e-001
8.717037e+002;1.221523e-001
8.736323e+002;1.252314e-001
8.755608e+002;1.292574e-001
8.774893e+002;1.340366e-001
8.794179e+002;1.398348e-001
8.813464e+002;1.459895e-001
8.832750e+002;1.519648e-001
8.852036e+002;1.583573e-001
8.871321e+002;1.654151e-001
8.890606e+002;1.724435e-001
8.909892e+002;1.785468e-001
8.929177e+002;1.823399e-001
8.948463e+002;1.840180e-001
8.967748e+002;1.838270e-001
8.987034e+002;1.819879e-001
9.006319e+002;1.788040e-001
9.025605e+002;1.752918e-001
9.044890e+002;1.712489e-001
9.064175e+002;1.666367e-001
9.083461e+002;1.625440e-001
9.102747e+002;1.590099e-001
9.122032e+002;1.561986e-001
9.141318e+002;1.540641e-001
9.160603e+002;1.527406e-001
9.179888e+002;1.522269e-001
9.199174e+002;1.520640e-001
9.218459e+002;1.528771e-001
9.237745e+002;1.546695e-001
9.257031e+002;1.560794e-001
9.276316e+002;1.572909e-001
9.295601e+002;1.590727e-001
9.314887e+002;1.608897e-001
9.334172e+002;1.625612e-001
9.353458e+002;1.641476e-001
9.372744e+002;1.660205e-001
9.392029e+002;1.681105e-001
9.411314e+002;1.707858e-001
9.430600e+002;1.741058e-001
9.449885e+002;1.775351e-001
9.469171e+002;1.819968e-001
9.488456e+002;1.872134e-001
9.507742e+002;1.926695e-001
9.527027e+002;1.982548e-001
9.546313e+002;2.040019e-001
9.565598e+002;2.103508e-001
9.584883e+002;2.169639e-001
9.604169e+002;2.236586e-001
9.623455e+002;2.307590e-001
9.642740e+002;2.380927e-001
9.662026e+002;2.456434e-001
9.681311e+002;2.536470e-001
9.700596e+002;2.624488e-001
9.719882e+002;2.718272e-001
9.739167e+002;2.826395e-001
9.758453e+002;2.956356e-001
9.777739e+002;3.103768e-001
9.797024e+002;3.270064e-001
9.816309e+002;3.454153e-001
9.835595e+002;3.652621e-001
9.854880e+002;3.852602e-001
9.874166e+002;4.049994e-001
9.893452e+002;4.231269e-001
9.912737e+002;4.379027e-001
9.932022e+002;4.487900e-001
9.951307e+002;4.565888e-001
9.970593e+002;4.612326e-001
9.989879e+002;4.631061e-001
1.000916e+003;4.643914e-001
1.002845e+003;4.662341e-001
1.004773e+003;4.697185e-001
1.006702e+003;4.763602e-001
1.008631e+003;4.854363e-001
1.010559e+003;4.956586e-001
1.012488e+003;5.058347e-001
1.014416e+003;5.159156e-001
1.016345e+003;5.242626e-001
1.018273e+003;5.298495e-001
1.020202e+003;5.321426e-001
1.022130e+003;5.322441e-001
1.024059e+003;5.307661e-001
1.025988e+003;5.272729e-001
1.027916e+003;5.218605e-001
1.029845e+003;5.151064e-001
1.031773e+003;5.076569e-001
1.033702e+003;5.005995e-001
1.035630e+003;4.940979e-001
1.037559e+003;4.888338e-001
1.039487e+003;4.850182e-001
1.041416e+003;4.812952e-001
1.043344e+003;4.778306e-001
1.045273e+003;4.742579e-001
1.047202e+003;4.702677e-001
1.049130e+003;4.665231e-001
1.051059e+003;4.622410e-001
1.052987e+003;4.574741e-001
1.054916e+003;4.524829e-001
1.056844e+003;4.476945e-001
1.058773e+003;4.424615e-001
1.060701e+003;4.360333e-001
1.062630e+003;4.285053e-001
1.064558e+003;4.201286e-001
1.066487e+003;4.107840e-001
1.068416e+003;4.015446e-001
1.070344e+003;3.930604e-001
1.072273e+003;3.844272e-001
1.074201e+003;3.758360e-001
1.076130e+003;3.673440e-001
1.078058e+003;3.588249e-001
1.079987e+003;3.510631e-001
1.081915e+003;3.439810e-001
1.083844e+003;3.374537e-001
1.085773e+003;3.308054e-001
1.087701e+003;3.242556e-001
1.089630e+003;3.175875e-001
1.091558e+003;3.110009e-001
1.093487e+003;3.052744e-001
1.095415e+003;2.991595e-001
1.097344e+003;2.926584e-001
1.099272e+003;2.856597e-001
1.101201e+003;2.784259e-001
1.103129e+003;2.718241e-001
1.105058e+003;2.660896e-001
1.106987e+003;2.617941e-001
1.108915e+003;2.569870e-001
1.110844e+003;2.528475e-001
1.112772e+003;2.493289e-001
1.114701e+003;2.449173e-001
1.116629e+003;2.394085e-001
1.118558e+003;2.337059e-001
1.120486e+003;2.273071e-001
1.122415e+003;2.205086e-001
1.124344e+003;2.132455e-001
1.126272e+003;2.061747e-001
1.128201e+003;1.998152e-001
1.130129e+003;1.936543e-001
1.132058e+003;1.883307e-001
1.133986e+003;1.836216e-001
1.135915e+003;1.789144e-001
1.137843e+003;1.751006e-001
1.139772e+003;1.718477e-001
1.141700e+003;1.692197e-001
1.143629e+003;1.682243e-001
1.145557e+003;1.683130e-001
1.147486e+003;1.685608e-001
1.149415e+003;1.696043e-001
1.151343e+003;1.712907e-001
1.153272e+003;1.728615e-001
1.155200e+003;1.736546e-001
1.157129e+003;1.734496e-001
1.159057e+003;1.719382e-001
1.160986e+003;1.687018e-001
1.162914e+003;1.633082e-001
1.164843e+003;1.562444e-001
1.166771e+003;1.487961e-001
1.168700e+003;1.413365e-001
1.170629e+003;1.337507e-001
1.172557e+003;1.266607e-001
1.174486e+003;1.206783e-001
1.176414e+003;1.152757e-001
1.178343e+003;1.110198e-001
1.180271e+003;1.075924e-001
1.182200e+003;1.045471e-001
1.184128e+003;1.026990e-001
1.186057e+003;1.021910e-001
1.187986e+003;1.026651e-001
1.189914e+003;1.044782e-001
1.191843e+003;1.073231e-001
1.193771e+003;1.102272e-001
1.195700e+003;1.128135e-001
1.197628e+003;1.147426e-001
1.199557e+003;1.154770e-001
1.201485e+003;1.149237e-001
1.203414e+003;1.134230e-001
1.205343e+003;1.113426e-001
1.207271e+003;1.090763e-001
1.209200e+003;1.072321e-001
1.211128e+003;1.059058e-001
1.213057e+003;1.052250e-001
1.214985e+003;1.052216e-001
1.216914e+003;1.064880e-001
1.218842e+003;1.086120e-001
1.220771e+003;1.108063e-001
1.222699e+003;1.131811e-001
1.224628e+003;1.155976e-001
1.226557e+003;1.174230e-001
1.228485e+003;1.184874e-001
1.230414e+003;1.191971e-001
1.232342e+003;1.198944e-001
1.234271e+003;1.204392e-001
1.236199e+003;1.206096e-001
1.238128e+003;1.204298e-001
1.240056e+003;1.203075e-001
1.241985e+003;1.199841e-001
1.243913e+003;1.197012e-001
1.245842e+003;1.197161e-001
1.247771e+003;1.202581e-001
1.249699e+003;1.209860e-001
1.251628e+003;1.221682e-001
1.253556e+003;1.238284e-001
1.255485e+003;1.251893e-001
1.257413e+003;1.260384e-001
1.259342e+003;1.267622e-001
1.261270e+003;1.269156e-001
1.263199e+003;1.263211e-001
1.265127e+003;1.255450e-001
1.267056e+003;1.247161e-001
1.268985e+003;1.234997e-001
1.270913e+003;1.223351e-001
1.272842e+003;1.215874e-001
1.274770e+003;1.207760e-001
1.276699e+003;1.198534e-001
1.278627e+003;1.192154e-001
1.280556e+003;1.186674e-001
1.282484e+003;1.178063e-001
1.284413e+003;1.174457e-001
1.286342e+003;1.177818e-001
1.288270e+003;1.184888e-001
1.290199e+003;1.196374e-001
1.292127e+003;1.214648e-001
1.294056e+003;1.232153e-001
1.295984e+003;1.250433e-001
1.297913e+003;1.271406e-001
1.299841e+003;1.287596e-001
1.301770e+003;1.302700e-001
1.303698e+003;1.321634e-001
1.305627e+003;1.343084e-001
1.307556e+003;1.365542e-001
1.309484e+003;1.386210e-001
1.311413e+003;1.401925e-001
1.313341e+003;1.411868e-001
1.315270e+003;1.417652e-001
1.317198e+003;1.416573e-001
1.319127e+003;1.412082e-001
1.321055e+003;1.405044e-001
1.322984e+003;1.398672e-001
1.324912e+003;1.396631e-001
1.326841e+003;1.398667e-001
1.328770e+003;1.403864e-001
1.330698e+003;1.403660e-001
1.332627e+003;1.401963e-001
1.334555e+003;1.406544e-001
1.336484e+003;1.410402e-001
1.338412e+003;1.407329e-001
1.340341e+003;1.402120e-001
1.342269e+003;1.401129e-001
1.344198e+003;1.400815e-001
1.346126e+003;1.397531e-001
1.348055e+003;1.397085e-001
1.349984e+003;1.399207e-001
1.351912e+003;1.402439e-001
1.353841e+003;1.410563e-001
1.355769e+003;1.423150e-001
1.357698e+003;1.433248e-001
1.359626e+003;1.439444e-001
1.361555e+003;1.445542e-001
1.363483e+003;1.448700e-001
1.365412e+003;1.449057e-001
1.367341e+003;1.447854e-001
1.369269e+003;1.440561e-001
1.371198e+003;1.427696e-001
1.373126e+003;1.413066e-001
1.375055e+003;1.396978e-001
1.376983e+003;1.379011e-001
1.378912e+003;1.359530e-001
1.380840e+003;1.335074e-001
1.382769e+003;1.307901e-001
1.384698e+003;1.283245e-001
1.386626e+003;1.262962e-001
1.388555e+003;1.247546e-001
1.390483e+003;1.236026e-001
1.392412e+003;1.229597e-001
1.394340e+003;1.224670e-001
1.396269e+003;1.219077e-001
1.398197e+003;1.215095e-001
1.400126e+003;1.211729e-001
1.402054e+003;1.208859e-001
1.403983e+003;1.207806e-001
1.405911e+003;1.208356e-001
1.407840e+003;1.207938e-001
1.409769e+003;1.208513e-001
1.411697e+003;1.211991e-001
1.413626e+003;1.214745e-001
1.415554e+003;1.211949e-001
1.417483e+003;1.206521e-001
1.419411e+003;1.203614e-001
1.421340e+003;1.202737e-001
1.423268e+003;1.200882e-001
1.425197e+003;1.195331e-001
1.427125e+003;1.188204e-001
1.429054e+003;1.181539e-001
1.430983e+003;1.175210e-001
1.432911e+003;1.166677e-001
1.434840e+003;1.155142e-001
1.436768e+003;1.145016e-001
1.438697e+003;1.136859e-001
1.440625e+003;1.127636e-001
1.442554e+003;1.115106e-001
1.444482e+003;1.102342e-001
1.446411e+003;1.091834e-001
1.448340e+003;1.081139e-001
1.450268e+003;1.069152e-001
1.452197e+003;1.054644e-001
1.454125e+003;1.039683e-001
1.456054e+003;1.025510e-001
1.457982e+003;1.011159e-001
1.459911e+003;9.983288e-002
1.461839e+003;9.832440e-002
1.463768e+003;9.670421e-002
1.465697e+003;9.492568e-002
1.467625e+003;9.299516e-002
1.469554e+003;9.097678e-002
1.471482e+003;8.873800e-002
1.473411e+003;8.627429e-002
1.475339e+003;8.373739e-002
1.477268e+003;8.083717e-002
1.479196e+003;7.830483e-002
1.481125e+003;7.602494e-002
1.483053e+003;7.352632e-002
1.484982e+003;7.112028e-002
1.486911e+003;6.892186e-002
1.488839e+003;6.683516e-002
1.490768e+003;6.487027e-002
1.492696e+003;6.311618e-002
1.494625e+003;6.132752e-002
1.496553e+003;5.950492e-002
1.498482e+003;5.821459e-002
1.500410e+003;5.717036e-002
1.502339e+003;5.605605e-002
1.504267e+003;5.486387e-002
1.506196e+003;5.369108e-002
1.508125e+003;5.278934e-002
1.510053e+003;5.207796e-002
1.511982e+003;5.138714e-002
1.513910e+003;5.071012e-002
1.515839e+003;4.988883e-002
1.517767e+003;4.937306e-002
1.519696e+003;4.885977e-002
1.521624e+003;4.831196e-002
1.523553e+003;4.808361e-002
1.525481e+003;4.787043e-002
1.527410e+003;4.764944e-002
1.529339e+003;4.750858e-002
1.531267e+003;4.732638e-002
1.533196e+003;4.699718e-002
1.535124e+003;4.692560e-002
1.537053e+003;4.675590e-002
1.538981e+003;4.624107e-002
1.540910e+003;4.615528e-002
1.542838e+003;4.647665e-002
1.544767e+003;4.663138e-002
1.546695e+003;4.666421e-002
1.548624e+003;4.680502e-002
1.550553e+003;4.694232e-002
1.552481e+003;4.711919e-002
1.554410e+003;4.718065e-002
1.556338e+003;4.702772e-002
1.558267e+003;4.701114e-002
1.560195e+003;4.710600e-002
1.562124e+003;4.742815e-002
1.564052e+003;4.795053e-002
1.565981e+003;4.852499e-002
1.567910e+003;4.879028e-002
1.569838e+003;4.876789e-002
1.571767e+003;4.910808e-002
1.573695e+003;4.938736e-002
1.575624e+003;4.947231e-002
1.577552e+003;5.003105e-002
1.579481e+003;5.089876e-002
1.581409e+003;5.153680e-002
1.583338e+003;5.208446e-002
1.585266e+003;5.263316e-002
1.587195e+003;5.317176e-002
1.589124e+003;5.385864e-002
1.591052e+003;5.468063e-002
1.592981e+003;5.525000e-002
1.594909e+003;5.610959e-002
1.596838e+003;5.728209e-002
1.598766e+003;5.818765e-002
1.600695e+003;5.890749e-002
1.602623e+003;5.979173e-002
1.604552e+003;6.058298e-002
1.606480e+003;6.114058e-002
1.608409e+003;6.200205e-002
1.610338e+003;6.296489e-002
1.612266e+003;6.382378e-002
1.614195e+003;6.473952e-002
1.616123e+003;6.557167e-002
1.618052e+003;6.642284e-002
1.619980e+003;6.742128e-002
1.621909e+003;6.825992e-002
1.623837e+003;6.896927e-002
1.625766e+003;6.960461e-002
1.627694e+003;7.010183e-002
1.629623e+003;7.083452e-002
1.631552e+003;7.138295e-002
1.633480e+003;7.164290e-002
1.635409e+003;7.191256e-002
1.637337e+003;7.231139e-002
1.639266e+003;7.263681e-002
1.641194e+003;7.271762e-002
1.643123e+003;7.270595e-002
1.645051e+003;7.253366e-002
1.646980e+003;7.210710e-002
1.648909e+003;7.148224e-002
1.650837e+003;7.073925e-002
1.652766e+003;7.000247e-002
1.654694e+003;6.975316e-002
1.656623e+003;6.969741e-002
1.658551e+003;6.917854e-002
1.660480e+003;6.809244e-002
1.662408e+003;6.680660e-002
1.664337e+003;6.588484e-002
1.666266e+003;6.494079e-002
1.668194e+003;6.377815e-002
1.670123e+003;6.251988e-002
1.672051e+003;6.138984e-002
1.673980e+003;6.015734e-002
1.675908e+003;5.886730e-002
1.677837e+003;5.777055e-002
1.679765e+003;5.668435e-002
1.681694e+003;5.540480e-002
1.683622e+003;5.408615e-002
1.685551e+003;5.300331e-002
1.687479e+003;5.205951e-002
1.689408e+003;5.122874e-002
1.691337e+003;5.058509e-002
1.693265e+003;5.006322e-002
1.695194e+003;4.935517e-002
1.697122e+003;4.901189e-002
1.699051e+003;4.875080e-002
1.700979e+003;4.820251e-002
1.702908e+003;4.797839e-002
1.704836e+003;4.777110e-002
1.706765e+003;4.760714e-002
1.708693e+003;4.743628e-002
1.710622e+003;4.719553e-002
1.712551e+003;4.683628e-002
1.714479e+003;4.613885e-002
1.716408e+003;4.537809e-002
1.718336e+003;4.491799e-002
1.720265e+003;4.466221e-002
1.722193e+003;4.418794e-002
1.724122e+003;4.323164e-002
1.726050e+003;4.231850e-002
1.727979e+003;4.144854e-002
1.729908e+003;4.045450e-002
1.731836e+003;3.950221e-002
1.733765e+003;3.857930e-002
1.735693e+003;3.756268e-002
1.737622e+003;3.643484e-002
1.739550e+003;3.517915e-002
1.741479e+003;3.405662e-002
1.743407e+003;3.300958e-002
1.745336e+003;3.200996e-002
1.747265e+003;3.117672e-002
1.749193e+003;3.067527e-002
1.751122e+003;3.010268e-002
1.753050e+003;2.975150e-002
1.754979e+003;2.945482e-002
1.756907e+003;2.896083e-002
1.758836e+003;2.871803e-002
1.760764e+003;2.842896e-002
1.762693e+003;2.831050e-002
1.764621e+003;2.850010e-002
1.766550e+003;2.844933e-002
1.768479e+003;2.834739e-002
1.770407e+003;2.825010e-002
1.772336e+003;2.785501e-002
1.774264e+003;2.756340e-002
1.776193e+003;2.744423e-002
1.778121e+003;2.730296e-002
1.780050e+003;2.717797e-002
1.781978e+003;2.708454e-002
1.783907e+003;2.700456e-002
1.785835e+003;2.689883e-002
1.787764e+003;2.661061e-002
1.789693e+003;2.622271e-002
1.791621e+003;2.598872e-002
1.793550e+003;2.593522e-002
1.795478e+003;2.597317e-002
1.797407e+003;2.591211e-002
1.799335e+003;2.559217e-002
1.801264e+003;2.525066e-002
1.803192e+003;2.518601e-002
1.805121e+003;2.517671e-002
1.807049e+003;2.505699e-002
1.808978e+003;2.483345e-002
1.810907e+003;2.478819e-002
1.812835e+003;2.488517e-002
1.814764e+003;2.484190e-002
1.816692e+003;2.457016e-002
1.818621e+003;2.455539e-002
1.820549e+003;2.468984e-002
1.822478e+003;2.463608e-002
1.824406e+003;2.435065e-002
1.826335e+003;2.415686e-002
1.828264e+003;2.391456e-002
1.830192e+003;2.373510e-002
1.832121e+003;2.365829e-002
1.834049e+003;2.356065e-002
1.835978e+003;2.352263e-002
1.837906e+003;2.351315e-002
1.839835e+003;2.334123e-002
1.841763e+003;2.317788e-002
1.843692e+003;2.290123e-002
1.845620e+003;2.264085e-002
1.847549e+003;2.256364e-002
1.849478e+003;2.253492e-002
1.851406e+003;2.255792e-002
1.853335e+003;2.262109e-002
1.855263e+003;2.252549e-002
1.857192e+003;2.247612e-002
1.859120e+003;2.253586e-002
1.861049e+003;2.235509e-002
1.862977e+003;2.219915e-002
1.864906e+003;2.233266e-002
1.866834e+003;2.221285e-002
1.868763e+003;2.198460e-002
1.870692e+003;2.205759e-002
1.872620e+003;2.197285e-002
1.874549e+003;2.170624e-002
1.876477e+003;2.156153e-002
1.878406e+003;2.141082e-002
1.880334e+003;2.137170e-002
1.882263e+003;2.147627e-002
1.884191e+003;2.135290e-002
1.886120e+003;2.127686e-002
1.888048e+003;2.139230e-002
1.889977e+003;2.140093e-002
1.891906e+003;2.130606e-002
1.893834e+003;2.127258e-002
1.895763e+003;2.121837e-002
1.897691e+003;2.124214e-002
1.899620e+003;2.127481e-002
1.901548e+003;2.123434e-002
1.903477e+003;2.138082e-002
1.905405e+003;2.160419e-002
1.907334e+003;2.154569e-002
1.909262e+003;2.139895e-002
1.911191e+003;2.142335e-002
1.913120e+003;2.162265e-002
1.915048e+003;2.183513e-002
1.916977e+003;2.213028e-002
1.918905e+003;2.244956e-002
1.920834e+003;2.253261e-002
1.922762e+003;2.223140e-002
1.924691e+003;2.217251e-002
1.926619e+003;2.242120e-002
1.928548e+003;2.263889e-002
1.930477e+003;2.276685e-002
1.932405e+003;2.278116e-002
1.934334e+003;2.276014e-002
1.936262e+003;2.275361e-002
1.938191e+003;2.283152e-002
1.940119e+003;2.309407e-002
1.942048e+003;2.338648e-002
1.943976e+003;2.348307e-002
1.945905e+003;2.348062e-002
1.947833e+003;2.352154e-002
1.949762e+003;2.362736e-002
1.951691e+003;2.371158e-002
1.953619e+003;2.390546e-002
1.955548e+003;2.419700e-002
1.957476e+003;2.430737e-002
1.959405e+003;2.430075e-002
1.961333e+003;2.441605e-002
1.963262e+003;2.467034e-002
1.965190e+003;2.483984e-002
1.967119e+003;2.480710e-002
1.969047e+003;2.472481e-002
1.970976e+003;2.471022e-002
1.972905e+003;2.489352e-002
1.974833e+003;2.516273e-002
1.976762e+003;2.530924e-002
1.978690e+003;2.542544e-002
1.980619e+003;2.542583e-002
1.982547e+003;2.551373e-002
1.984476e+003;2.582570e-002
1.986404e+003;2.581561e-002
1.988333e+003;2.570841e-002
1.990261e+003;2.586569e-002
1.992190e+003;2.594362e-002
1.994119e+003;2.594049e-002
1.996047e+003;2.581776e-002
1.997976e+003;2.588331e-002
1.999904e+003;2.606506e-002
2.001833e+003;2.602981e-002
2.003761e+003;2.598798e-002
2.005690e+003;2.631828e-002
2.007618e+003;2.665144e-002
2.009547e+003;2.687208e-002
2.011476e+003;2.699004e-002
2.013404e+003;2.708570e-002
2.015333e+003;2.714051e-002
2.017261e+003;2.726528e-002
2.019190e+003;2.742887e-002
2.021118e+003;2.766276e-002
2.023047e+003;2.763010e-002
2.024975e+003;2.762399e-002
2.026904e+003;2.781700e-002
2.028833e+003;2.799119e-002
2.030761e+003;2.818621e-002
2.032690e+003;2.827156e-002
2.034618e+003;2.837225e-002
2.036547e+003;2.838552e-002
2.038475e+003;2.846246e-002
2.040404e+003;2.867322e-002
2.042332e+003;2.866706e-002
2.044261e+003;2.863864e-002
2.046189e+003;2.865312e-002
2.048118e+003;2.884028e-002
2.050047e+003;2.886111e-002
2.051975e+003;2.885371e-002
2.053904e+003;2.900801e-002
2.055832e+003;2.912326e-002
2.057761e+003;2.910097e-002
2.059689e+003;2.904872e-002
2.061618e+003;2.888473e-002
2.063546e+003;2.862218e-002
2.065475e+003;2.863687e-002
2.067404e+003;2.889036e-002
2.069332e+003;2.898839e-002
2.071260e+003;2.907958e-002
2.073189e+003;2.912404e-002
2.075118e+003;2.897713e-002
2.077046e+003;2.878735e-002
2.078975e+003;2.879238e-002
2.080903e+003;2.902661e-002
2.082832e+003;2.910593e-002
2.084760e+003;2.902870e-002
2.086689e+003;2.915898e-002
2.088617e+003;2.933108e-002
2.090546e+003;2.913300e-002
2.092475e+003;2.896328e-002
2.094403e+003;2.924896e-002
2.096332e+003;2.943301e-002
2.098260e+003;2.939855e-002
2.100189e+003;2.921330e-002
2.102117e+003;2.924988e-002
2.104046e+003;2.934402e-002
2.105974e+003;2.949709e-002
2.107903e+003;2.987798e-002
2.109832e+003;3.000578e-002
2.111760e+003;3.002051e-002
2.113688e+003;3.010627e-002
2.115617e+003;3.001110e-002
2.117546e+003;2.988828e-002
2.119474e+003;2.999744e-002
2.121403e+003;3.018245e-002
2.123331e+003;3.025832e-002
2.125260e+003;3.029602e-002
2.127188e+003;3.041836e-002
2.129117e+003;3.055459e-002
2.131045e+003;3.042362e-002
2.132974e+003;3.042731e-002
2.134903e+003;3.060277e-002
2.136831e+003;3.062136e-002
2.138760e+003;3.056337e-002
2.140688e+003;3.033911e-002
2.142617e+003;2.999229e-002
2.144545e+003;2.988458e-002
2.146474e+003;3.006113e-002
2.148402e+003;3.019413e-002
2.150331e+003;3.014491e-002
2.152260e+003;2.972610e-002
2.154188e+003;2.945673e-002
2.156117e+003;2.964403e-002
2.158045e+003;2.967376e-002
2.159974e+003;2.955373e-002
2.161902e+003;2.959781e-002
2.163831e+003;2.976424e-002
2.165759e+003;2.966380e-002
2.167688e+003;2.931861e-002
2.169616e+003;2.920795e-002
2.171545e+003;2.930648e-002
2.173474e+003;2.918555e-002
2.175402e+003;2.908025e-002
2.177331e+003;2.885225e-002
2.179259e+003;2.842390e-002
2.181188e+003;2.817595e-002
2.183116e+003;2.808863e-002
2.185045e+003;2.794264e-002
2.186973e+003;2.766908e-002
2.188902e+003;2.762988e-002
2.190831e+003;2.774907e-002
2.192759e+003;2.771075e-002
2.194688e+003;2.750653e-002
2.196616e+003;2.745824e-002
2.198545e+003;2.748747e-002
2.200473e+003;2.740946e-002
2.202402e+003;2.731909e-002
2.204330e+003;2.723995e-002
2.206259e+003;2.720414e-002
2.208188e+003;2.713085e-002
2.210116e+003;2.709741e-002
2.212044e+003;2.679926e-002
2.213973e+003;2.654283e-002
2.215902e+003;2.648641e-002
2.217830e+003;2.649923e-002
2.219759e+003;2.645352e-002
2.221687e+003;2.612949e-002
2.223616e+003;2.606573e-002
2.225544e+003;2.634116e-002
2.227473e+003;2.631395e-002
2.229401e+003;2.595836e-002
2.231330e+003;2.597278e-002
2.233259e+003;2.612748e-002
2.235187e+003;2.613987e-002
2.237116e+003;2.622099e-002
2.239044e+003;2.620606e-002
2.240973e+003;2.597658e-002
2.242901e+003;2.600451e-002
2.244830e+003;2.595010e-002
2.246758e+003;2.568067e-002
2.248687e+003;2.534995e-002
2.250615e+003;2.513812e-002
2.252544e+003;2.538181e-002
2.254473e+003;2.544726e-002
2.256401e+003;2.499690e-002
2.258330e+003;2.462331e-002
2.260258e+003;2.457839e-002
2.262187e+003;2.480994e-002
2.264115e+003;2.491201e-002
2.266044e+003;2.467209e-002
2.267972e+003;2.452265e-002
2.269901e+003;2.441601e-002
2.271830e+003;2.436053e-002
2.273758e+003;2.424419e-002
2.275687e+003;2.403021e-002
2.277615e+003;2.416362e-002
2.279544e+003;2.418618e-002
2.281472e+003;2.418839e-002
2.283401e+003;2.416961e-002
2.285329e+003;2.400587e-002
2.287258e+003;2.398003e-002
2.289187e+003;2.386723e-002
2.291115e+003;2.369888e-002
2.293043e+003;2.379253e-002
2.294972e+003;2.390535e-002
2.296901e+003;2.373972e-002
2.298829e+003;2.358055e-002
2.300758e+003;2.362432e-002
2.302686e+003;2.369370e-002
2.304615e+003;2.345715e-002
2.306543e+003;2.331106e-002
2.308472e+003;2.348929e-002
2.310400e+003;2.391249e-002
2.312329e+003;2.427184e-002
2.314258e+003;2.422149e-002
2.316186e+003;2.420545e-002
2.318115e+003;2.407773e-002
2.320043e+003;2.386593e-002
2.321972e+003;2.406040e-002
2.323900e+003;2.406299e-002
2.325829e+003;2.376397e-002
2.327757e+003;2.396385e-002
2.329686e+003;2.432790e-002
2.331615e+003;2.428158e-002
2.333543e+003;2.408642e-002
2.335472e+003;2.404545e-002
2.337400e+003;2.417938e-002
2.339329e+003;2.434988e-002
2.341257e+003;2.460045e-002
2.343186e+003;2.489173e-002
2.345114e+003;2.512004e-002
2.347043e+003;2.517562e-002
2.348971e+003;2.505569e-002
2.350900e+003;2.516491e-002
2.352829e+003;2.546893e-002
2.354757e+003;2.539716e-002
2.356686e+003;2.535276e-002
2.358614e+003;2.562419e-002
2.360543e+003;2.581181e-002
2.362471e+003;2.580988e-002
2.364400e+003;2.590937e-002
2.366328e+003;2.595745e-002
2.368257e+003;2.622472e-002
2.370186e+003;2.664651e-002
2.372114e+003;2.673635e-002
2.374042e+003;2.662924e-002
2.375971e+003;2.653385e-002
2.377900e+003;2.664791e-002
2.379828e+003;2.694406e-002
2.381757e+003;2.727011e-002
2.383685e+003;2.741235e-002
2.385614e+003;2.757417e-002
2.387542e+003;2.752658e-002
2.389471e+003;2.750706e-002
2.391399e+003;2.772456e-002
2.393328e+003;2.792228e-002
2.395257e+003;2.810468e-002
2.397185e+003;2.824564e-002
2.399114e+003;2.845641e-002
2.401042e+003;2.854200e-002
2.402971e+003;2.847028e-002
2.404899e+003;2.859769e-002
2.406828e+003;2.869393e-002
2.408756e+003;2.878948e-002
2.410685e+003;2.918155e-002
2.412614e+003;2.957667e-002
2.414542e+003;2.991500e-002
2.416471e+003;3.003773e-002
2.418399e+003;2.995959e-002
2.420328e+003;3.010258e-002
2.422256e+003;3.034714e-002
2.424185e+003;3.052608e-002
2.426113e+003;3.079181e-002
2.428042e+003;3.113070e-002
2.429970e+003;3.143885e-002
2.431899e+003;3.175561e-002
2.433828e+003;3.177928e-002
2.435756e+003;3.166486e-002
2.437685e+003;3.199280e-002
2.439613e+003;3.268783e-002
2.441542e+003;3.307104e-002
2.443470e+003;3.312535e-002
2.445399e+003;3.312853e-002
2.447327e+003;3.339550e-002
2.449256e+003;3.404633e-002
2.451185e+003;3.453214e-002
2.453113e+003;3.469006e-002
2.455042e+003;3.469168e-002
2.456970e+003;3.486739e-002
2.458899e+003;3.512005e-002
2.460827e+003;3.515684e-002
2.462756e+003;3.517481e-002
2.464684e+003;3.557334e-002
2.466613e+003;3.605986e-002
2.468542e+003;3.628475e-002
2.470470e+003;3.637582e-002
2.472398e+003;3.654014e-002
2.474327e+003;3.674765e-002
2.476256e+003;3.685184e-002
2.478184e+003;3.715572e-002
2.480113e+003;3.765041e-002
2.482041e+003;3.797744e-002
2.483970e+003;3.817171e-002
2.485898e+003;3.832227e-002
2.487827e+003;3.826593e-002
2.489755e+003;3.819342e-002
2.491684e+003;3.856359e-002
2.493613e+003;3.894575e-002
2.495541e+003;3.908356e-002
2.497470e+003;3.902679e-002
2.499398e+003;3.900163e-002
2.501327e+003;3.926959e-002
2.503255e+003;3.947859e-002
2.505184e+003;3.971542e-002
2.507112e+003;3.988039e-002
2.509041e+003;4.013257e-002
2.510969e+003;4.041278e-002
2.512898e+003;4.047959e-002
2.514827e+003;4.054361e-002
2.516755e+003;4.051698e-002
2.518684e+003;4.053252e-002
2.520612e+003;4.058821e-002
2.522541e+003;4.095890e-002
2.524469e+003;4.121188e-002
2.526398e+003;4.106993e-002
2.528326e+003;4.108861e-002
2.530255e+003;4.151084e-002
2.532184e+003;4.182394e-002
2.534112e+003;4.176356e-002
2.536041e+003;4.172198e-002
2.537969e+003;4.204031e-002
2.539898e+003;4.227398e-002
2.541826e+003;4.220850e-002
2.543755e+003;4.238834e-002
2.545683e+003;4.250753e-002
2.547612e+003;4.224779e-002
2.549541e+003;4.224141e-002
2.551469e+003;4.257784e-002
2.553397e+003;4.303835e-002
2.555326e+003;4.344087e-002
2.557255e+003;4.356111e-002
2.559183e+003;4.356331e-002
2.561112e+003;4.395910e-002
2.563040e+003;4.438805e-002
2.564969e+003;4.411623e-002
2.566897e+003;4.376427e-002
2.568826e+003;4.392419e-002
2.570754e+003;4.417136e-002
2.572683e+003;4.416883e-002
2.574612e+003;4.424905e-002
2.576540e+003;4.458312e-002
2.578469e+003;4.487966e-002
2.580397e+003;4.505602e-002
2.582326e+003;4.509517e-002
2.584254e+003;4.528176e-002
2.586183e+003;4.561761e-002
2.588111e+003;4.587812e-002
2.590040e+003;4.606048e-002
2.591969e+003;4.615078e-002
2.593897e+003;4.618380e-002
2.595826e+003;4.616726e-002
2.597754e+003;4.646058e-002
2.599683e+003;4.706667e-002
2.601611e+003;4.733839e-002
2.603540e+003;4.746271e-002
2.605468e+003;4.794057e-002
2.607397e+003;4.826264e-002
2.609325e+003;4.842445e-002
2.611254e+003;4.855756e-002
2.613183e+003;4.868282e-002
2.615111e+003;4.898560e-002
2.617040e+003;4.921347e-002
2.618968e+003;4.960388e-002
2.620897e+003;5.014971e-002
2.622825e+003;5.009014e-002
2.624754e+003;5.004258e-002
2.626682e+003;5.035966e-002
2.628611e+003;5.065903e-002
2.630540e+003;5.105854e-002
2.632468e+003;5.139941e-002
2.634396e+003;5.181080e-002
2.636325e+003;5.230073e-002
2.638254e+003;5.256557e-002
2.640182e+003;5.278410e-002
2.642111e+003;5.303588e-002
2.644039e+003;5.345763e-002
2.645968e+003;5.393595e-002
2.647896e+003;5.415224e-002
2.649825e+003;5.417690e-002
2.651753e+003;5.442224e-002
2.653682e+003;5.480989e-002
2.655611e+003;5.519665e-002
2.657539e+003;5.584363e-002
2.659468e+003;5.640464e-002
2.661396e+003;5.666166e-002
2.663325e+003;5.690972e-002
2.665253e+003;5.727711e-002
2.667182e+003;5.768200e-002
2.669110e+003;5.799778e-002
2.671039e+003;5.824058e-002
2.672968e+003;5.838360e-002
2.674896e+003;5.880724e-002
2.676825e+003;5.937909e-002
2.678753e+003;5.974910e-002
2.680682e+003;5.990775e-002
2.682610e+003;6.002842e-002
2.684539e+003;6.037641e-002
2.686467e+003;6.078721e-002
2.688396e+003;6.090762e-002
2.690324e+003;6.114275e-002
2.692253e+003;6.166307e-002
2.694182e+003;6.211393e-002
2.696110e+003;6.258539e-002
2.698039e+003;6.297144e-002
2.699967e+003;6.322835e-002
2.701896e+003;6.341197e-002
2.703824e+003;6.358520e-002
2.705753e+003;6.387989e-002
2.707681e+003;6.410251e-002
2.709610e+003;6.418619e-002
2.711539e+003;6.431420e-002
2.713467e+003;6.478679e-002
2.715396e+003;6.532262e-002
2.717324e+003;6.565449e-002
2.719253e+003;6.583764e-002
2.721181e+003;6.606913e-002
2.723110e+003;6.628425e-002
2.725038e+003;6.624366e-002
2.726967e+003;6.637625e-002
2.728896e+003;6.691884e-002
2.730824e+003;6.747604e-002
2.732752e+003;6.757006e-002
2.734681e+003;6.751359e-002
2.736610e+003;6.765768e-002
2.738538e+003;6.779233e-002
2.740467e+003;6.807958e-002
2.742395e+003;6.853925e-002
2.744324e+003;6.873907e-002
2.746252e+003;6.886280e-002
2.748181e+003;6.906948e-002
2.750109e+003;6.912453e-002
2.752038e+003;6.926846e-002
2.753967e+003;6.971002e-002
2.755895e+003;7.008003e-002
2.757824e+003;7.029037e-002
2.759752e+003;7.045802e-002
2.761681e+003;7.073180e-002
2.763609e+003;7.126933e-002
2.765538e+003;7.144900e-002
2.767466e+003;7.147064e-002
2.769395e+003;7.192223e-002
2.771323e+003;7.239053e-002
2.773252e+003;7.272581e-002
2.775181e+003;7.322039e-002
2.777109e+003;7.367270e-002
2.779038e+003;7.411318e-002
2.780966e+003;7.455242e-002
2.782895e+003;7.479698e-002
2.784823e+003;7.480788e-002
2.786752e+003;7.519109e-002
2.788680e+003;7.598156e-002
2.790609e+003;7.667745e-002
2.792538e+003;7.706816e-002
2.794466e+003;7.742240e-002
2.796395e+003;7.780761e-002
2.798323e+003;7.839448e-002
2.800252e+003;7.900314e-002
2.802180e+003;7.968111e-002
2.804109e+003;8.031135e-002
2.806037e+003;8.077774e-002
2.807966e+003;8.118634e-002
2.809895e+003;8.160892e-002
2.811823e+003;8.224193e-002
2.813751e+003;8.290216e-002
2.815680e+003;8.348420e-002
2.817609e+003;8.392688e-002
2.819537e+003;8.461484e-002
2.821466e+003;8.534887e-002
2.823394e+003;8.612809e-002
2.825323e+003;8.677326e-002
2.827251e+003;8.749335e-002
2.829180e+003;8.835277e-002
2.831108e+003;8.918354e-002
2.833037e+003;8.993267e-002
2.834966e+003;9.072478e-002
2.836894e+003;9.166689e-002
2.838823e+003;9.246935e-002
2.840751e+003;9.372079e-002
2.842680e+003;9.514693e-002
2.844608e+003;9.633821e-002
2.846537e+003;9.731676e-002
2.848465e+003;9.840485e-002
2.850394e+003;9.989811e-002
2.852323e+003;1.012248e-001
2.854251e+003;1.019940e-001
2.856180e+003;1.031583e-001
2.858108e+003;1.047287e-001
2.860037e+003;1.064320e-001
2.861965e+003;1.083333e-001
2.863894e+003;1.101578e-001
2.865822e+003;1.115851e-001
2.867751e+003;1.128846e-001
2.869679e+003;1.143506e-001
2.871608e+003;1.159233e-001
2.873536e+003;1.171672e-001
2.875465e+003;1.177244e-001
2.877394e+003;1.182795e-001
2.879322e+003;1.192901e-001
2.881251e+003;1.201681e-001
2.883179e+003;1.208121e-001
2.885108e+003;1.212001e-001
2.887036e+003;1.212733e-001
2.888965e+003;1.212225e-001
2.890893e+003;1.214391e-001
2.892822e+003;1.214545e-001
2.894750e+003;1.209287e-001
2.896679e+003;1.204144e-001
2.898608e+003;1.201271e-001
2.900536e+003;1.197714e-001
2.902465e+003;1.195454e-001
2.904393e+003;1.190939e-001
2.906322e+003;1.184745e-001
2.908250e+003;1.180213e-001
2.910179e+003;1.172366e-001
2.912107e+003;1.164142e-001
2.914036e+003;1.154489e-001
2.915965e+003;1.146710e-001
2.917893e+003;1.141294e-001
2.919822e+003;1.132666e-001
2.921750e+003;1.116871e-001
2.923679e+003;1.103879e-001
2.925607e+003;1.095373e-001
2.927536e+003;1.081631e-001
2.929464e+003;1.070092e-001
2.931393e+003;1.064385e-001
2.933322e+003;1.061108e-001
2.935250e+003;1.054492e-001
2.937178e+003;1.041522e-001
2.939107e+003;1.026982e-001
2.941036e+003;1.014636e-001
2.942964e+003;1.001129e-001
2.944893e+003;9.878647e-002
2.946821e+003;9.813272e-002
2.948750e+003;9.696419e-002
2.950678e+003;9.536074e-002
2.952607e+003;9.405247e-002
2.954535e+003;9.280712e-002
2.956464e+003;9.156567e-002
2.958393e+003;9.038495e-002
2.960321e+003;8.926940e-002
2.962250e+003;8.813886e-002
2.964178e+003;8.724769e-002
2.966107e+003;8.645546e-002
2.968035e+003;8.556908e-002
2.969964e+003;8.459821e-002
2.971892e+003;8.383403e-002
2.973821e+003;8.331317e-002
2.975750e+003;8.285140e-002
2.977678e+003;8.235542e-002
2.979607e+003;8.185441e-002
2.981535e+003;8.135638e-002
2.983464e+003;8.096866e-002
2.985392e+003;8.054091e-002
2.987321e+003;8.006956e-002
2.989249e+003;7.960203e-002
2.991178e+003;7.919960e-002
2.993106e+003;7.898732e-002
2.995035e+003;7.881070e-002
2.996964e+003;7.869888e-002
2.998892e+003;7.879525e-002
3.000821e+003;7.858348e-002
3.002749e+003;7.862514e-002
3.004678e+003;7.905282e-002
3.006606e+003;7.912012e-002
3.008535e+003;7.914541e-002
3.010463e+003;7.969517e-002
3.012392e+003;8.007084e-002
3.014321e+003;8.017205e-002
3.016249e+003;8.045349e-002
3.018177e+003;8.055292e-002
3.020106e+003;8.091816e-002
3.022035e+003;8.152480e-002
3.023963e+003;8.198914e-002
3.025892e+003;8.279141e-002
3.027820e+003;8.356324e-002
3.029749e+003;8.401874e-002
3.031677e+003;8.474921e-002
3.033606e+003;8.541194e-002
3.035534e+003;8.596550e-002
3.037463e+003;8.667786e-002
3.039392e+003;8.728994e-002
3.041320e+003;8.802347e-002
3.043249e+003;8.869150e-002
3.045177e+003;8.894432e-002
3.047106e+003;8.944748e-002
3.049034e+003;9.013198e-002
3.050963e+003;9.065933e-002
3.052891e+003;9.131026e-002
3.054820e+003;9.212565e-002
3.056749e+003;9.285751e-002
3.058677e+003;9.351967e-002
3.060606e+003;9.407679e-002
3.062534e+003;9.454720e-002
3.064463e+003;9.520097e-002
3.066391e+003;9.609477e-002
3.068320e+003;9.701324e-002
3.070248e+003;9.773380e-002
3.072177e+003;9.844151e-002
3.074105e+003;9.926768e-002
3.076034e+003;1.001903e-001
3.077963e+003;1.008394e-001
3.079891e+003;1.013736e-001
3.081820e+003;1.022371e-001
3.083748e+003;1.030307e-001
3.085677e+003;1.033869e-001
3.087605e+003;1.041723e-001
3.089534e+003;1.051105e-001
3.091462e+003;1.060306e-001
3.093391e+003;1.068883e-001
3.095320e+003;1.075962e-001
3.097248e+003;1.083907e-001
3.099177e+003;1.088632e-001
3.101105e+003;1.094393e-001
3.103034e+003;1.105913e-001
3.104962e+003;1.113873e-001
3.106891e+003;1.118786e-001
3.108819e+003;1.127675e-001
3.110748e+003;1.137997e-001
3.112677e+003;1.146379e-001
3.114605e+003;1.150480e-001
3.116533e+003;1.155357e-001
3.118462e+003;1.161984e-001
3.120391e+003;1.168962e-001
3.122319e+003;1.177495e-001
3.124248e+003;1.186074e-001
3.126176e+003;1.194016e-001
3.128105e+003;1.202881e-001
3.130033e+003;1.211469e-001
3.131962e+003;1.216726e-001
3.133890e+003;1.224961e-001
3.135819e+003;1.235438e-001
3.137748e+003;1.243180e-001
3.139676e+003;1.246865e-001
3.141605e+003;1.253036e-001
3.143533e+003;1.266352e-001
3.145462e+003;1.274887e-001
3.147390e+003;1.278745e-001
3.149319e+003;1.286222e-001
3.151247e+003;1.291485e-001
3.153176e+003;1.297091e-001
3.155104e+003;1.306094e-001
3.157033e+003;1.315854e-001
3.158962e+003;1.322715e-001
3.160890e+003;1.329212e-001
3.162819e+003;1.338268e-001
3.164747e+003;1.345506e-001
3.166676e+003;1.354523e-001
3.168604e+003;1.359491e-001
3.170533e+003;1.364378e-001
3.172461e+003;1.370840e-001
3.174390e+003;1.377122e-001
3.176319e+003;1.384116e-001
3.178247e+003;1.391284e-001
3.180176e+003;1.398793e-001
3.182104e+003;1.403197e-001
3.184033e+003;1.409702e-001
3.185961e+003;1.419599e-001
3.187890e+003;1.423764e-001
3.189818e+003;1.429724e-001
3.191747e+003;1.439148e-001
3.193676e+003;1.446171e-001
3.195604e+003;1.452488e-001
3.197532e+003;1.458592e-001
3.199461e+003;1.465132e-001
3.201390e+003;1.473677e-001
3.203318e+003;1.478842e-001
3.205247e+003;1.482888e-001
3.207175e+003;1.489666e-001
3.209104e+003;1.494597e-001
3.211032e+003;1.501390e-001
3.212961e+003;1.510627e-001
3.214889e+003;1.518204e-001
3.216818e+003;1.524236e-001
3.218747e+003;1.528982e-001
3.220675e+003;1.535481e-001
3.222604e+003;1.541018e-001
3.224532e+003;1.545586e-001
3.226461e+003;1.548031e-001
3.228389e+003;1.551192e-001
3.230318e+003;1.557774e-001
3.232246e+003;1.564884e-001
3.234175e+003;1.571466e-001
3.236104e+003;1.579600e-001
3.238032e+003;1.582829e-001
3.239961e+003;1.582980e-001
3.241889e+003;1.587230e-001
3.243818e+003;1.593664e-001
3.245746e+003;1.597969e-001
3.247675e+003;1.600107e-001
3.249603e+003;1.606490e-001
3.251532e+003;1.615459e-001
3.253460e+003;1.619864e-001
3.255389e+003;1.620850e-001
3.257318e+003;1.624213e-001
3.259246e+003;1.628752e-001
3.261175e+003;1.633983e-001
3.263103e+003;1.636220e-001
3.265032e+003;1.636624e-001
3.266960e+003;1.643686e-001
3.268889e+003;1.650092e-001
3.270817e+003;1.654622e-001
3.272746e+003;1.661031e-001
3.274675e+003;1.664710e-001
3.276603e+003;1.665346e-001
3.278531e+003;1.669094e-001
3.280460e+003;1.673902e-001
3.282389e+003;1.676219e-001
3.284317e+003;1.680909e-001
3.286246e+003;1.683758e-001
3.288174e+003;1.681081e-001
3.290103e+003;1.682102e-001
3.292031e+003;1.684310e-001
3.293960e+003;1.683876e-001
3.295888e+003;1.686274e-001
3.297817e+003;1.690180e-001
3.299746e+003;1.693893e-001
3.301674e+003;1.698832e-001
3.303603e+003;1.701819e-001
3.305531e+003;1.699424e-001
3.307460e+003;1.697286e-001
3.309388e+003;1.702748e-001
3.311317e+003;1.707458e-001
3.313245e+003;1.709692e-001
3.315174e+003;1.710059e-001
3.317103e+003;1.708812e-001
3.319031e+003;1.708335e-001
3.320960e+003;1.707599e-001
3.322888e+003;1.707804e-001
3.324817e+003;1.712340e-001
3.326745e+003;1.717782e-001
3.328674e+003;1.716831e-001
3.330602e+003;1.714132e-001
3.332531e+003;1.712034e-001
3.334459e+003;1.712013e-001
3.336388e+003;1.714035e-001
3.338317e+003;1.715418e-001
3.340245e+003;1.719076e-001
3.342174e+003;1.715616e-001
3.344102e+003;1.709810e-001
3.346031e+003;1.710167e-001
3.347959e+003;1.711930e-001
3.349888e+003;1.710630e-001
3.351816e+003;1.707733e-001
3.353745e+003;1.704489e-001
3.355674e+003;1.703840e-001
3.357602e+003;1.702800e-001
3.359531e+003;1.698724e-001
3.361459e+003;1.695165e-001
3.363388e+003;1.689731e-001
3.365316e+003;1.683007e-001
3.367245e+003;1.676343e-001
3.369173e+003;1.675426e-001
3.371102e+003;1.678549e-001
3.373031e+003;1.676400e-001
3.374959e+003;1.672678e-001
3.376887e+003;1.671656e-001
3.378816e+003;1.666277e-001
3.380745e+003;1.660738e-001
3.382673e+003;1.656806e-001
3.384602e+003;1.653448e-001
3.386530e+003;1.651338e-001
3.388459e+003;1.645568e-001
3.390387e+003;1.642359e-001
3.392316e+003;1.638725e-001
3.394244e+003;1.629335e-001
3.396173e+003;1.625673e-001
3.398102e+003;1.622153e-001
3.400030e+003;1.619283e-001
3.401959e+003;1.616026e-001
3.403887e+003;1.613753e-001
3.405816e+003;1.611953e-001
3.407744e+003;1.604619e-001
3.409673e+003;1.594488e-001
3.411601e+003;1.589364e-001
3.413530e+003;1.583971e-001
3.415458e+003;1.576664e-001
3.417387e+003;1.566432e-001
3.419316e+003;1.559340e-001
3.421244e+003;1.554246e-001
3.423173e+003;1.551566e-001
3.425101e+003;1.546935e-001
3.427030e+003;1.536027e-001
3.428958e+003;1.527352e-001
3.430887e+003;1.525270e-001
3.432815e+003;1.520694e-001
3.434744e+003;1.514961e-001
3.436673e+003;1.507773e-001
3.438601e+003;1.497959e-001
3.440530e+003;1.489534e-001
3.442458e+003;1.480624e-001
3.444387e+003;1.470193e-001
3.446315e+003;1.464114e-001
3.448244e+003;1.453921e-001
3.450172e+003;1.439504e-001
3.452101e+003;1.424372e-001
3.454030e+003;1.411858e-001
3.455958e+003;1.403236e-001
3.457886e+003;1.393675e-001
3.459815e+003;1.383223e-001
3.461744e+003;1.366802e-001
3.463672e+003;1.349775e-001
3.465601e+003;1.340086e-001
3.467529e+003;1.332035e-001
3.469458e+003;1.321538e-001
3.471386e+003;1.310446e-001
3.473315e+003;1.297716e-001
3.475243e+003;1.286566e-001
3.477172e+003;1.276581e-001
3.479101e+003;1.264278e-001
3.481029e+003;1.251852e-001
3.482958e+003;1.241486e-001
3.484886e+003;1.234168e-001
3.486815e+003;1.223679e-001
3.488743e+003;1.212212e-001
3.490672e+003;1.197862e-001
3.492600e+003;1.185816e-001
3.494529e+003;1.177274e-001
3.496458e+003;1.160472e-001
3.498386e+003;1.140702e-001
3.500315e+003;1.126732e-001
3.502243e+003;1.112333e-001
3.504172e+003;1.096064e-001
3.506100e+003;1.082176e-001
3.508029e+003;1.070619e-001
3.509957e+003;1.057214e-001
3.511886e+003;1.039317e-001
3.513814e+003;1.022173e-001
3.515743e+003;1.011736e-001
3.517672e+003;1.006291e-001
3.519600e+003;9.953598e-002
3.521529e+003;9.793863e-002
3.523457e+003;9.714077e-002
3.525386e+003;9.607443e-002
3.527314e+003;9.438650e-002
3.529243e+003;9.305804e-002
3.531171e+003;9.165650e-002
3.533100e+003;9.036899e-002
3.535029e+003;8.923224e-002
3.536957e+003;8.818383e-002
3.538885e+003;8.741741e-002
3.540814e+003;8.621686e-002
3.542743e+003;8.483255e-002
3.544671e+003;8.353227e-002
3.546600e+003;8.251606e-002
3.548528e+003;8.188406e-002
3.550457e+003;8.087524e-002
3.552385e+003;7.941815e-002
3.554314e+003;7.820886e-002
3.556242e+003;7.696174e-002
3.558171e+003;7.572687e-002
3.560100e+003;7.458732e-002
3.562028e+003;7.382835e-002
3.563957e+003;7.315066e-002
3.565885e+003;7.199641e-002
3.567814e+003;7.063016e-002
3.569742e+003;6.963241e-002
3.571671e+003;6.896818e-002
3.573599e+003;6.805407e-002
3.575528e+003;6.696244e-002
3.577457e+003;6.598607e-002
3.579385e+003;6.496307e-002
3.581314e+003;6.392646e-002
3.583242e+003;6.321992e-002
3.585171e+003;6.207410e-002
3.587099e+003;6.106720e-002
3.589028e+003;6.085544e-002
3.590956e+003;6.050973e-002
3.592885e+003;5.921334e-002
3.594813e+003;5.795946e-002
3.596742e+003;5.696340e-002
3.598671e+003;5.614183e-002
3.600599e+003;5.514578e-002
3.602528e+003;5.436534e-002
3.604456e+003;5.366926e-002
3.606385e+003;5.241089e-002
3.608313e+003;5.133948e-002
3.610242e+003;5.070304e-002
3.612170e+003;5.003715e-002
3.614099e+003;4.876237e-002
3.616028e+003;4.726771e-002
3.617956e+003;4.602172e-002
3.619885e+003;4.530556e-002
3.621813e+003;4.463147e-002
3.623742e+003;4.385158e-002
3.625670e+003;4.325997e-002
3.627599e+003;4.207783e-002
3.629527e+003;4.090793e-002
3.631456e+003;3.991639e-002
3.633385e+003;3.860567e-002
3.635313e+003;3.744561e-002
3.637241e+003;3.644792e-002
3.639170e+003;3.541671e-002
3.641099e+003;3.467768e-002
3.643027e+003;3.408528e-002
3.644956e+003;3.297872e-002
3.646884e+003;3.160834e-002
3.648813e+003;3.015599e-002
3.650741e+003;2.882208e-002
3.652670e+003;2.788469e-002
3.654598e+003;2.701123e-002
3.656527e+003;2.631592e-002
3.658456e+003;2.581800e-002
3.660384e+003;2.491780e-002
3.662313e+003;2.384710e-002
3.664241e+003;2.320199e-002
3.666170e+003;2.272526e-002
3.668098e+003;2.179211e-002
3.670027e+003;2.047982e-002
3.671955e+003;1.949055e-002
3.673884e+003;1.881727e-002
3.675813e+003;1.819569e-002
3.677741e+003;1.801533e-002
3.679669e+003;1.787655e-002
3.681598e+003;1.739955e-002
3.683527e+003;1.686417e-002
3.685455e+003;1.589783e-002
3.687384e+003;1.490953e-002
3.689312e+003;1.445435e-002
3.691241e+003;1.422569e-002
3.693169e+003;1.392005e-002
3.695098e+003;1.337261e-002
3.697026e+003;1.294631e-002
3.698955e+003;1.301336e-002
3.700884e+003;1.285923e-002
3.702812e+003;1.237391e-002
3.704741e+003;1.222850e-002
3.706669e+003;1.209625e-002
3.708598e+003;1.173444e-002
3.710526e+003;1.116013e-002
3.712455e+003;1.075654e-002
3.714383e+003;1.056465e-002
3.716312e+003;1.047867e-002
3.718240e+003;1.065605e-002
3.720169e+003;1.078728e-002
3.722098e+003;1.048175e-002
3.724026e+003;1.011345e-002
3.725955e+003;9.765797e-003
3.727883e+003;9.639619e-003
3.729812e+003;9.504264e-003
3.731740e+003;9.493156e-003
3.733669e+003;9.454314e-003
3.735597e+003;8.850951e-003
3.737526e+003;8.558472e-003
3.739455e+003;8.735653e-003
3.741383e+003;9.082451e-003
3.743312e+003;8.747892e-003
3.745240e+003;8.532315e-003
3.747169e+003;8.849429e-003
3.749097e+003;8.653543e-003
3.751026e+003;8.223133e-003
3.752954e+003;8.192473e-003
3.754883e+003;8.523597e-003
3.756812e+003;8.405008e-003
3.758740e+003;8.231913e-003
3.760668e+003;8.216211e-003
3.762597e+003;8.137980e-003
3.764526e+003;7.985543e-003
3.766454e+003;8.019766e-003
3.768383e+003;8.249641e-003
3.770311e+003;8.316915e-003
3.772240e+003;8.287364e-003
3.774168e+003;8.289424e-003
3.776097e+003;8.238734e-003
3.778025e+003;7.939647e-003
3.779954e+003;7.801651e-003
3.781883e+003;7.693072e-003
3.783811e+003;7.551546e-003
3.785740e+003;7.637259e-003
3.787668e+003;7.797265e-003
3.789597e+003;7.698333e-003
3.791525e+003;7.576193e-003
3.793454e+003;7.696006e-003
3.795382e+003;7.608225e-003
3.797311e+003;7.780971e-003
3.799240e+003;8.022736e-003
3.801168e+003;7.716108e-003
3.803097e+003;7.535667e-003
3.805025e+003;7.148432e-003
3.806954e+003;6.936410e-003
3.808882e+003;7.235278e-003
3.810811e+003;7.386205e-003
3.812739e+003;7.656986e-003
3.814668e+003;7.520260e-003
3.816596e+003;7.192998e-003
3.818525e+003;7.309639e-003
3.820454e+003;7.697457e-003
3.822382e+003;7.893014e-003
3.824311e+003;7.855495e-003
3.826239e+003;7.834273e-003
3.828168e+003;7.847363e-003
3.830096e+003;7.880226e-003
3.832025e+003;7.907793e-003
3.833953e+003;7.817945e-003
3.835882e+003;8.000562e-003
3.837811e+003;7.927701e-003
3.839739e+003;7.746734e-003
3.841667e+003;7.542207e-003
3.843596e+003;7.475256e-003
3.845525e+003;7.553063e-003
3.847453e+003;7.330161e-003
3.849382e+003;7.332352e-003
3.851310e+003;7.375252e-003
3.853239e+003;7.215030e-003
3.855167e+003;7.393687e-003
3.857096e+003;7.395742e-003
3.859024e+003;7.589848e-003
3.860953e+003;8.231035e-003
3.862882e+003;8.437744e-003
3.864810e+003;8.289659e-003
3.866739e+003;8.061619e-003
3.868667e+003;8.183761e-003
3.870596e+003;8.682376e-003
3.872524e+003;9.127385e-003
3.874453e+003;8.910302e-003
3.876381e+003;8.746302e-003
3.878310e+003;9.039653e-003
3.880239e+003;9.067834e-003
3.882167e+003;9.251419e-003
3.884096e+003;9.501860e-003
3.886024e+003;9.321555e-003
3.887953e+003;9.164947e-003
3.889881e+003;9.283609e-003
3.891810e+003;9.409447e-003
3.893738e+003;9.626677e-003
3.895667e+003;9.708972e-003
3.897595e+003;9.501013e-003
3.899524e+003;9.309809e-003
3.901453e+003;9.533425e-003
3.903381e+003;1.005336e-002
3.905310e+003;1.041961e-002
3.907238e+003;1.044995e-002
3.909167e+003;1.039375e-002
3.911095e+003;1.036483e-002
3.913024e+003;1.064081e-002
3.914952e+003;1.056845e-002
3.916881e+003;1.046495e-002
3.918810e+003;1.093004e-002
3.920738e+003;1.141318e-002
3.922667e+003;1.121270e-002
3.924595e+003;1.100888e-002
3.926524e+003;1.144471e-002
3.928452e+003;1.176723e-002
3.930381e+003;1.155729e-002
3.932309e+003;1.151122e-002
3.934238e+003;1.132440e-002
3.936167e+003;1.108667e-002
3.938095e+003;1.149071e-002
3.940023e+003;1.204995e-002
3.941952e+003;1.209240e-002
3.943881e+003;1.164594e-002
3.945809e+003;1.188085e-002
3.947738e+003;1.202158e-002
3.949666e+003;1.205462e-002
3.951595e+003;1.232318e-002
3.953523e+003;1.237486e-002
3.955452e+003;1.218164e-002
3.957380e+003;1.214961e-002
3.959309e+003;1.208511e-002
3.961238e+003;1.206923e-002
3.963166e+003;1.214480e-002
3.965095e+003;1.254508e-002
3.967023e+003;1.306300e-002
3.968952e+003;1.310661e-002
3.970880e+003;1.297983e-002
3.972809e+003;1.267948e-002
3.974737e+003;1.216596e-002
3.976666e+003;1.231534e-002
3.978594e+003;1.268459e-002
3.980523e+003;1.292402e-002
3.982452e+003;1.248724e-002
3.984380e+003;1.232369e-002
3.986309e+003;1.285377e-002
3.988237e+003;1.288606e-002
3.990166e+003;1.307786e-002
3.992094e+003;1.300001e-002
3.994023e+003;1.265321e-002
3.995951e+003;1.286712e-002
3.997880e+003;1.315398e-002
3.999809e+003;1.293631e-002
4.001737e+003;0.000000e+000
