3.992094e+002;0.000000e+000
4.011380e+002;0.000000e+000
4.030665e+002;0.000000e+000
4.049951e+002;0.000000e+000
4.069236e+002;0.000000e+000
4.088522e+002;0.000000e+000
4.107807e+002;0.000000e+000
4.127093e+002;0.000000e+000
4.146378e+002;0.000000e+000
4.165664e+002;0.000000e+000
4.184949e+002;0.000000e+000
4.204235e+002;0.000000e+000
4.223520e+002;0.000000e+000
4.242806e+002;0.000000e+000
4.262091e+002;0.000000e+000
4.281377e+002;0.000000e+000
4.300662e+002;0.000000e+000
4.319948e+002;0.000000e+000
4.339233e+002;0.000000e+000
4.358519e+002;0.000000e+000
4.377804e+002;0.000000e+000
4.397090e+002;0.000000e+000
4.416375e+002;0.000000e+000
4.435660e+002;0.000000e+000
4.454946e+002;0.000000e+000
4.474232e+002;0.000000e+000
4.493517e+002;0.000000e+000
4.512802e+002;0.000000e+000
4.532088e+002;0.000000e+000
4.551373e+002;0.000000e+000
4.570659e+002;0.000000e+000
4.589944e+002;0.000000e+000
4.609230e+002;0.000000e+000
4.628515e+002;0.000000e+000
4.647801e+002;0.000000e+000
4.667086e+002;0.000000e+000
4.686372e+002;0.000000e+000
4.705657e+002;0.000000e+000
4.724943e+002;0.000000e+000
4.744228e+002;0.000000e+000
4.763513e+002;0.000000e+000
4.782799e+002;0.000000e+000
4.802085e+002;0.000000e+000
4.821370e+002;0.000000e+000
4.840656e+002;0.000000e+000
4.859941e+002;0.000000e+000
4.879226e+002;0.000000e+000
4.898512e+002;0.000000e+000
4.917798e+002;0.000000e+000
4.937083e+002;0.000000e+000
4.956368e+002;0.000000e+000
4.975654e+002;0.000000e+000
4.994939e+002;0.000000e+000
5.014225e+002;0.000000e+000
5.033510e+002;0.000000e+000
5.052796e+002;0.000000e+000
5.072081e+002;0.000000e+000
5.091367e+002;0.000000e+000
5.110652e+002;0.000000e+000
5.129938e+002;0.000000e+000
5.149223e+002;0.000000e+000
5.168509e+002;0.000000e+000
5.187794e+002;0.000000e+000
5.207079e+002;0.000000e+000
5.226365e+002;0.000000e+000
5.245651e+002;0.000000e+000
5.264936e+002;0.000000e+000
5.284222e+002;0.000000e+000
5.303507e+002;0.000000e+000
5.322792e+002;0.000000e+000
5.342078e+002;0.000000e+000
5.361364e+002;0.000000e+000
5.380649e+002;0.000000e+000
5.399935e+002;0.000000e+000
5.419220e+002;0.000000e+000
5.438505e+002;0.000000e+000
5.457791e+002;0.000000e+000
5.477076e+002;0.000000e+000
5.496362e+002;0.000000e+000
5.515648e+002;0.000000e+000
5.534933e+002;0.000000e+000
5.554218e+002;0.000000e+000
5.573504e+002;0.000000e+000
5.592789e+002;0.000000e+000
5.612075e+002;0.000000e+000
5.631360e+002;0.000000e+000
5.650646e+002;0.000000e+000
5.669931e+002;0.000000e+000
5.689217e+002;0.000000e+000
5.708502e+002;0.000000e+000
5.727787e+002;0.000000e+000
5.747073e+002;0.000000e+000
5.766359e+002;0.000000e+000
5.785644e+002;0.000000e+000
5.804930e+002;0.000000e+000
5.824215e+002;0.000000e+000
5.843500e+002;0.000000e+000
5.862786e+002;0.000000e+000
5.882072e+002;0.000000e+000
5.901357e+002;0.000000e+000
5.920643e+002;0.000000e+000
5.939928e+002;0.000000e+000
5.959213e+002;0.000000e+000
5.978499e+002;0.000000e+000
5.997784e+002;3.024464e-001
6.017070e+002;2.942050e-001
6.036355e+002;2.919709e-001
6.055641e+002;2.992605e-001
6.074926e+002;2.988563e-001
6.094211e+002;2.948368e-001
6.113497e+002;2.894925e-001
6.132783e+002;2.877125e-001
6.152068e+002;2.904360e-001
6.171354e+002;2.877986e-001
6.190639e+002;2.788534e-001
6.209924e+002;2.782921e-001
6.229210e+002;2.831864e-001
6.248495e+002;2.788469e-001
6.267781e+002;2.712793e-001
6.287067e+002;2.676446e-001
6.306352e+002;2.662864e-001
6.325637e+002;2.656369e-001
6.344923e+002;2.625580e-001
6.364208e+002;2.614251e-001
6.383494e+002;2.588425e-001
6.402780e+002;2.561448e-001
6.422065e+002;2.548185e-001
6.441350e+002;2.572901e-001
6.460636e+002;2.596056e-001
6.479921e+002;2.574453e-001
6.499207e+002;2.572883e-001
6.518492e+002;2.591603e-001
6.537778e+002;2.574325e-001
6.557063e+002;2.567396e-001
6.576349e+002;2.597153e-001
6.595634e+002;2.631243e-001
6.614919e+002;2.656882e-001
6.634205e+002;2.674620e-001
6.653491e+002;2.672358e-001
6.672776e+002;2.657768e-001
6.692062e+002;2.610877e-001
6.711347e+002;2.570716e-001
6.730632e+002;2.510522e-001
6.749918e+002;2.391219e-001
6.769203e+002;2.283048e-001
6.788489e+002;2.205694e-001
6.807775e+002;2.155788e-001
6.827060e+002;2.125347e-001
6.846345e+002;2.091501e-001
6.865631e+002;2.063198e-001
6.884916e+002;2.045928e-001
6.904202e+002;2.034488e-001
6.923488e+002;2.026391e-001
6.942773e+002;2.008316e-001
6.962058e+002;1.987776e-001
6.981344e+002;1.978059e-001
7.000629e+002;1.976113e-001
7.019915e+002;1.973574e-001
7.039200e+002;1.962376e-001
7.058486e+002;1.948000e-001
7.077771e+002;1.935377e-001
7.097057e+002;1.915679e-001
7.116342e+002;1.900420e-001
7.135627e+002;1.895943e-001
7.154913e+002;1.888067e-001
7.174199e+002;1.874068e-001
7.193484e+002;1.861306e-001
7.212770e+002;1.851045e-001
7.232055e+002;1.831276e-001
7.251340e+002;1.814331e-001
7.270626e+002;1.794450e-001
7.289911e+002;1.771841e-001
7.309197e+002;1.762864e-001
7.328483e+002;1.761848e-001
7.347768e+002;1.748766e-001
7.367053e+002;1.724058e-001
7.386339e+002;1.700001e-001
7.405624e+002;1.692786e-001
7.424910e+002;1.699331e-001
7.444196e+002;1.691859e-001
7.463481e+002;1.667711e-001
7.482766e+002;1.649243e-001
7.502052e+002;1.630670e-001
7.521337e+002;1.612809e-001
7.540623e+002;1.595286e-001
7.559908e+002;1.579796e-001
7.579194e+002;1.573071e-001
7.598479e+002;1.570695e-001
7.617765e+002;1.559483e-001
7.637050e+002;1.549273e-001
7.656335e+002;1.534660e-001
7.675621e+002;1.517127e-001
7.694907e+002;1.507132e-001
7.714192e+002;1.497086e-001
7.733478e+002;1.486371e-001
7.752763e+002;1.475712e-001
7.772048e+002;1.463102e-001
7.791334e+002;1.458209e-001
7.810620e+002;1.453253e-001
7.829905e+002;1.447115e-001
7.849191e+002;1.438781e-001
7.868476e+002;1.426361e-001
7.887761e+002;1.421002e-001
7.907047e+002;1.426412e-001
7.926332e+002;1.427427e-001
7.945618e+002;1.427012e-001
7.964903e+002;1.431433e-001
7.984189e+002;1.431016e-001
8.003474e+002;1.422752e-001
8.022759e+002;1.413341e-001
8.042045e+002;1.406947e-001
8.061331e+002;1.395610e-001
8.080616e+002;1.393308e-001
8.099902e+002;1.398880e-001
8.119187e+002;1.399416e-001
8.138472e+002;1.390676e-001
8.157758e+002;1.378999e-001
8.177043e+002;1.370547e-001
8.196329e+002;1.373119e-001
8.215615e+002;1.375775e-001
8.234900e+002;1.373764e-001
8.254185e+002;1.363472e-001
8.273471e+002;1.352833e-001
8.292756e+002;1.350504e-001
8.312042e+002;1.338726e-001
8.331328e+002;1.323316e-001
8.350613e+002;1.320429e-001
8.369898e+002;1.315968e-001
8.389184e+002;1.309046e-001
8.408469e+002;1.300813e-001
8.427755e+002;1.289833e-001
8.447040e+002;1.284465e-001
8.466326e+002;1.277900e-001
8.485611e+002;1.275095e-001
8.504897e+002;1.277907e-001
8.524182e+002;1.277276e-001
8.543467e+002;1.273369e-001
8.562753e+002;1.281563e-001
8.582039e+002;1.297472e-001
8.601324e+002;1.307083e-001
8.620610e+002;1.317507e-001
8.639895e+002;1.329584e-001
8.659180e+002;1.343048e-001
8.678466e+002;1.359352e-001
8.697751e+002;1.379078e-001
8.717037e+002;1.405431e-001
8.736323e+002;1.439290e-001
8.755608e+002;1.479318e-001
8.774893e+002;1.525204e-001
8.794179e+002;1.575868e-001
8.813464e+002;1.630808e-001
8.832750e+002;1.689827e-001
8.852036e+002;1.751612e-001
8.871321e+002;1.813391e-001
8.890606e+002;1.871092e-001
8.909892e+002;1.916477e-001
8.929177e+002;1.951700e-001
8.948463e+002;1.968008e-001
8.967748e+002;1.961920e-001
8.987034e+002;1.948206e-001
9.006319e+002;1.924345e-001
9.025605e+002;1.884488e-001
9.044890e+002;1.839337e-001
9.064175e+002;1.797699e-001
9.083461e+002;1.758409e-001
9.102747e+002;1.722254e-001
9.122032e+002;1.691959e-001
9.141318e+002;1.672805e-001
9.160603e+002;1.659576e-001
9.179888e+002;1.655837e-001
9.199174e+002;1.662992e-001
9.218459e+002;1.675241e-001
9.237745e+002;1.689964e-001
9.257031e+002;1.707773e-001
9.276316e+002;1.726520e-001
9.295601e+002;1.741305e-001
9.314887e+002;1.756327e-001
9.334172e+002;1.772933e-001
9.353458e+002;1.791999e-001
9.372744e+002;1.814126e-001
9.392029e+002;1.839376e-001
9.411314e+002;1.869320e-001
9.430600e+002;1.908408e-001
9.449885e+002;1.951882e-001
9.469171e+002;1.999117e-001
9.488456e+002;2.048830e-001
9.507742e+002;2.099359e-001
9.527027e+002;2.158788e-001
9.546313e+002;2.224515e-001
9.565598e+002;2.289862e-001
9.584883e+002;2.358327e-001
9.604169e+002;2.430332e-001
9.623455e+002;2.501570e-001
9.642740e+002;2.572162e-001
9.662026e+002;2.650515e-001
9.681311e+002;2.734997e-001
9.700596e+002;2.826106e-001
9.719882e+002;2.927571e-001
9.739167e+002;3.045950e-001
9.758453e+002;3.187843e-001
9.777739e+002;3.354238e-001
9.797024e+002;3.542933e-001
9.816309e+002;3.748576e-001
9.835595e+002;3.971469e-001
9.854880e+002;4.199546e-001
9.874166e+002;4.410411e-001
9.893452e+002;4.588707e-001
9.912737e+002;4.739752e-001
9.932022e+002;4.859861e-001
9.951307e+002;4.936437e-001
9.970593e+002;4.983961e-001
9.989879e+002;5.016512e-001
1.000916e+003;5.037552e-001
1.002845e+003;5.074812e-001
1.004773e+003;5.133019e-001
1.006702e+003;5.213495e-001
1.008631e+003;5.325992e-001
1.010559e+003;5.462341e-001
1.012488e+003;5.590844e-001
1.014416e+003;5.697471e-001
1.016345e+003;5.785607e-001
1.018273e+003;5.842207e-001
1.020202e+003;5.859777e-001
1.022130e+003;5.859447e-001
1.024059e+003;5.831615e-001
1.025988e+003;5.769801e-001
1.027916e+003;5.694501e-001
1.029845e+003;5.613046e-001
1.031773e+003;5.525011e-001
1.033702e+003;5.450811e-001
1.035630e+003;5.381285e-001
1.037559e+003;5.311202e-001
1.039487e+003;5.254241e-001
1.041416e+003;5.211361e-001
1.043344e+003;5.169147e-001
1.045273e+003;5.125512e-001
1.047202e+003;5.073050e-001
1.049130e+003;5.018088e-001
1.051059e+003;4.975669e-001
1.052987e+003;4.928405e-001
1.054916e+003;4.866653e-001
1.056844e+003;4.803945e-001
1.058773e+003;4.732695e-001
1.060701e+003;4.648734e-001
1.062630e+003;4.557237e-001
1.064558e+003;4.467432e-001
1.066487e+003;4.371663e-001
1.068416e+003;4.263505e-001
1.070344e+003;4.165504e-001
1.072273e+003;4.073489e-001
1.074201e+003;3.972479e-001
1.076130e+003;3.877587e-001
1.078058e+003;3.788736e-001
1.079987e+003;3.702630e-001
1.081915e+003;3.628459e-001
1.083844e+003;3.565323e-001
1.085773e+003;3.507023e-001
1.087701e+003;3.449469e-001
1.089630e+003;3.381322e-001
1.091558e+003;3.318072e-001
1.093487e+003;3.254927e-001
1.095415e+003;3.188041e-001
1.097344e+003;3.121446e-001
1.099272e+003;3.049553e-001
1.101201e+003;2.969742e-001
1.103129e+003;2.894517e-001
1.105058e+003;2.833119e-001
1.106987e+003;2.781547e-001
1.108915e+003;2.731623e-001
1.110844e+003;2.679432e-001
1.112772e+003;2.628372e-001
1.114701e+003;2.574246e-001
1.116629e+003;2.510664e-001
1.118558e+003;2.438843e-001
1.120486e+003;2.363009e-001
1.122415e+003;2.290971e-001
1.124344e+003;2.227326e-001
1.126272e+003;2.160530e-001
1.128201e+003;2.091733e-001
1.130129e+003;2.025589e-001
1.132058e+003;1.964428e-001
1.133986e+003;1.912920e-001
1.135915e+003;1.869887e-001
1.137843e+003;1.834559e-001
1.139772e+003;1.804300e-001
1.141700e+003;1.780476e-001
1.143629e+003;1.771855e-001
1.145557e+003;1.774593e-001
1.147486e+003;1.783995e-001
1.149415e+003;1.799141e-001
1.151343e+003;1.815828e-001
1.153272e+003;1.827379e-001
1.155200e+003;1.827084e-001
1.157129e+003;1.815497e-001
1.159057e+003;1.787144e-001
1.160986e+003;1.740470e-001
1.162914e+003;1.679861e-001
1.164843e+003;1.610071e-001
1.166771e+003;1.531803e-001
1.168700e+003;1.454130e-001
1.170629e+003;1.377433e-001
1.172557e+003;1.306220e-001
1.174486e+003;1.248958e-001
1.176414e+003;1.198178e-001
1.178343e+003;1.153850e-001
1.180271e+003;1.119571e-001
1.182200e+003;1.098077e-001
1.184128e+003;1.084697e-001
1.186057e+003;1.080876e-001
1.187986e+003;1.093504e-001
1.189914e+003;1.117150e-001
1.191843e+003;1.147294e-001
1.193771e+003;1.179835e-001
1.195700e+003;1.209193e-001
1.197628e+003;1.226315e-001
1.199557e+003;1.231197e-001
1.201485e+003;1.223618e-001
1.203414e+003;1.203404e-001
1.205343e+003;1.174539e-001
1.207271e+003;1.148270e-001
1.209200e+003;1.127417e-001
1.211128e+003;1.112757e-001
1.213057e+003;1.108035e-001
1.214985e+003;1.113523e-001
1.216914e+003;1.125720e-001
1.218842e+003;1.147483e-001
1.220771e+003;1.173990e-001
1.222699e+003;1.200378e-001
1.224628e+003;1.225153e-001
1.226557e+003;1.243268e-001
1.228485e+003;1.254965e-001
1.230414e+003;1.262313e-001
1.232342e+003;1.270604e-001
1.234271e+003;1.277256e-001
1.236199e+003;1.278968e-001
1.238128e+003;1.279519e-001
1.240056e+003;1.279488e-001
1.241985e+003;1.278568e-001
1.243913e+003;1.278894e-001
1.245842e+003;1.281059e-001
1.247771e+003;1.286553e-001
1.249699e+003;1.297295e-001
1.251628e+003;1.314252e-001
1.253556e+003;1.332786e-001
1.255485e+003;1.351697e-001
1.257413e+003;1.370348e-001
1.259342e+003;1.383066e-001
1.261270e+003;1.384589e-001
1.263199e+003;1.375122e-001
1.265127e+003;1.357188e-001
1.267056e+003;1.334442e-001
1.268985e+003;1.310338e-001
1.270913e+003;1.288105e-001
1.272842e+003;1.270701e-001
1.274770e+003;1.258218e-001
1.276699e+003;1.246534e-001
1.278627e+003;1.236186e-001
1.280556e+003;1.229112e-001
1.282484e+003;1.225090e-001
1.284413e+003;1.224432e-001
1.286342e+003;1.230842e-001
1.288270e+003;1.243960e-001
1.290199e+003;1.261296e-001
1.292127e+003;1.280861e-001
1.294056e+003;1.297955e-001
1.295984e+003;1.314480e-001
1.297913e+003;1.334048e-001
1.299841e+003;1.354115e-001
1.301770e+003;1.371458e-001
1.303698e+003;1.386211e-001
1.305627e+003;1.404145e-001
1.307556e+003;1.426134e-001
1.309484e+003;1.445846e-001
1.311413e+003;1.459920e-001
1.313341e+003;1.468171e-001
1.315270e+003;1.473020e-001
1.317198e+003;1.472326e-001
1.319127e+003;1.465375e-001
1.321055e+003;1.458993e-001
1.322984e+003;1.453973e-001
1.324912e+003;1.449526e-001
1.326841e+003;1.451378e-001
1.328770e+003;1.455324e-001
1.330698e+003;1.453144e-001
1.332627e+003;1.452265e-001
1.334555e+003;1.453653e-001
1.336484e+003;1.452091e-001
1.338412e+003;1.449206e-001
1.340341e+003;1.443402e-001
1.342269e+003;1.434820e-001
1.344198e+003;1.429713e-001
1.346126e+003;1.430644e-001
1.348055e+003;1.433264e-001
1.349984e+003;1.435147e-001
1.351912e+003;1.437182e-001
1.353841e+003;1.444784e-001
1.355769e+003;1.455801e-001
1.357698e+003;1.465058e-001
1.359626e+003;1.474134e-001
1.361555e+003;1.482989e-001
1.363483e+003;1.487651e-001
1.365412e+003;1.485147e-001
1.367341e+003;1.479317e-001
1.369269e+003;1.471824e-001
1.371198e+003;1.457023e-001
1.373126e+003;1.438126e-001
1.375055e+003;1.420382e-001
1.376983e+003;1.402480e-001
1.378912e+003;1.379826e-001
1.380840e+003;1.353227e-001
1.382769e+003;1.328153e-001
1.384698e+003;1.303880e-001
1.386626e+003;1.285062e-001
1.388555e+003;1.273047e-001
1.390483e+003;1.265945e-001
1.392412e+003;1.259954e-001
1.394340e+003;1.254453e-001
1.396269e+003;1.252083e-001
1.398197e+003;1.251287e-001
1.400126e+003;1.249120e-001
1.402054e+003;1.246254e-001
1.403983e+003;1.244266e-001
1.405911e+003;1.244152e-001
1.407840e+003;1.245811e-001
1.409769e+003;1.247669e-001
1.411697e+003;1.248022e-001
1.413626e+003;1.245836e-001
1.415554e+003;1.245393e-001
1.417483e+003;1.244440e-001
1.419411e+003;1.241055e-001
1.421340e+003;1.238589e-001
1.423268e+003;1.234784e-001
1.425197e+003;1.228634e-001
1.427125e+003;1.223070e-001
1.429054e+003;1.217468e-001
1.430983e+003;1.211446e-001
1.432911e+003;1.204604e-001
1.434840e+003;1.198551e-001
1.436768e+003;1.187287e-001
1.438697e+003;1.177714e-001
1.440625e+003;1.172511e-001
1.442554e+003;1.162713e-001
1.444482e+003;1.150216e-001
1.446411e+003;1.136082e-001
1.448340e+003;1.121326e-001
1.450268e+003;1.112083e-001
1.452197e+003;1.100384e-001
1.454125e+003;1.083679e-001
1.456054e+003;1.067412e-001
1.457982e+003;1.055810e-001
1.459911e+003;1.048729e-001
1.461839e+003;1.036547e-001
1.463768e+003;1.019353e-001
1.465697e+003;1.000612e-001
1.467625e+003;9.806167e-002
1.469554e+003;9.595726e-002
1.471482e+003;9.362070e-002
1.473411e+003;9.120920e-002
1.475339e+003;8.899296e-002
1.477268e+003;8.672997e-002
1.479196e+003;8.438811e-002
1.481125e+003;8.211558e-002
1.483053e+003;7.984324e-002
1.484982e+003;7.783436e-002
1.486911e+003;7.615925e-002
1.488839e+003;7.459152e-002
1.490768e+003;7.337427e-002
1.492696e+003;7.242979e-002
1.494625e+003;7.162304e-002
1.496553e+003;7.063974e-002
1.498482e+003;6.966551e-002
1.500410e+003;6.874113e-002
1.502339e+003;6.799421e-002
1.504267e+003;6.726280e-002
1.506196e+003;6.623076e-002
1.508125e+003;6.526443e-002
1.510053e+003;6.459454e-002
1.511982e+003;6.391440e-002
1.513910e+003;6.341642e-002
1.515839e+003;6.278685e-002
1.517767e+003;6.215603e-002
1.519696e+003;6.163756e-002
1.521624e+003;6.118288e-002
1.523553e+003;6.088357e-002
1.525481e+003;6.063624e-002
1.527410e+003;6.040592e-002
1.529339e+003;6.032105e-002
1.531267e+003;6.045687e-002
1.533196e+003;6.045344e-002
1.535124e+003;6.034294e-002
1.537053e+003;6.032341e-002
1.538981e+003;6.021892e-002
1.540910e+003;6.022318e-002
1.542838e+003;6.056949e-002
1.544767e+003;6.093309e-002
1.546695e+003;6.110286e-002
1.548624e+003;6.083207e-002
1.550553e+003;6.055380e-002
1.552481e+003;6.073561e-002
1.554410e+003;6.121386e-002
1.556338e+003;6.144411e-002
1.558267e+003;6.149187e-002
1.560195e+003;6.163878e-002
1.562124e+003;6.199704e-002
1.564052e+003;6.232592e-002
1.565981e+003;6.260392e-002
1.567910e+003;6.286884e-002
1.569838e+003;6.330137e-002
1.571767e+003;6.386565e-002
1.573695e+003;6.425592e-002
1.575624e+003;6.441688e-002
1.577552e+003;6.476387e-002
1.579481e+003;6.555241e-002
1.581409e+003;6.611022e-002
1.583338e+003;6.654105e-002
1.585266e+003;6.697543e-002
1.587195e+003;6.750298e-002
1.589124e+003;6.826290e-002
1.591052e+003;6.892811e-002
1.592981e+003;6.943568e-002
1.594909e+003;6.992513e-002
1.596838e+003;7.054213e-002
1.598766e+003;7.106338e-002
1.600695e+003;7.134191e-002
1.602623e+003;7.161331e-002
1.604552e+003;7.198463e-002
1.606480e+003;7.245966e-002
1.608409e+003;7.306601e-002
1.610338e+003;7.395377e-002
1.612266e+003;7.450608e-002
1.614195e+003;7.479135e-002
1.616123e+003;7.517643e-002
1.618052e+003;7.573523e-002
1.619980e+003;7.669381e-002
1.621909e+003;7.747028e-002
1.623837e+003;7.790765e-002
1.625766e+003;7.834718e-002
1.627694e+003;7.894126e-002
1.629623e+003;7.949223e-002
1.631552e+003;7.991118e-002
1.633480e+003;8.019540e-002
1.635409e+003;8.015511e-002
1.637337e+003;8.037526e-002
1.639266e+003;8.078201e-002
1.641194e+003;8.074167e-002
1.643123e+003;8.033121e-002
1.645051e+003;8.002657e-002
1.646980e+003;7.976543e-002
1.648909e+003;7.936902e-002
1.650837e+003;7.876863e-002
1.652766e+003;7.802399e-002
1.654694e+003;7.728105e-002
1.656623e+003;7.651848e-002
1.658551e+003;7.556537e-002
1.660480e+003;7.465566e-002
1.662408e+003;7.377938e-002
1.664337e+003;7.307448e-002
1.666266e+003;7.223425e-002
1.668194e+003;7.105468e-002
1.670123e+003;6.989729e-002
1.672051e+003;6.902644e-002
1.673980e+003;6.804528e-002
1.675908e+003;6.672402e-002
1.677837e+003;6.573875e-002
1.679765e+003;6.490566e-002
1.681694e+003;6.374158e-002
1.683622e+003;6.255497e-002
1.685551e+003;6.158200e-002
1.687479e+003;6.084038e-002
1.689408e+003;6.003702e-002
1.691337e+003;5.923483e-002
1.693265e+003;5.855025e-002
1.695194e+003;5.757413e-002
1.697122e+003;5.639223e-002
1.699051e+003;5.550005e-002
1.700979e+003;5.487335e-002
1.702908e+003;5.434675e-002
1.704836e+003;5.372779e-002
1.706765e+003;5.311514e-002
1.708693e+003;5.252564e-002
1.710622e+003;5.194440e-002
1.712551e+003;5.158657e-002
1.714479e+003;5.126889e-002
1.716408e+003;5.053476e-002
1.718336e+003;4.983293e-002
1.720265e+003;4.961083e-002
1.722193e+003;4.939493e-002
1.724122e+003;4.928676e-002
1.726050e+003;4.938075e-002
1.727979e+003;4.928691e-002
1.729908e+003;4.896887e-002
1.731836e+003;4.856597e-002
1.733765e+003;4.818041e-002
1.735693e+003;4.796636e-002
1.737622e+003;4.782122e-002
1.739550e+003;4.777573e-002
1.741479e+003;4.763871e-002
1.743407e+003;4.695306e-002
1.745336e+003;4.604685e-002
1.747265e+003;4.518814e-002
1.749193e+003;4.454541e-002
1.751122e+003;4.423460e-002
1.753050e+003;4.413013e-002
1.754979e+003;4.409063e-002
1.756907e+003;4.393629e-002
1.758836e+003;4.353752e-002
1.760764e+003;4.323611e-002
1.762693e+003;4.328629e-002
1.764621e+003;4.311636e-002
1.766550e+003;4.295122e-002
1.768479e+003;4.294181e-002
1.770407e+003;4.287042e-002
1.772336e+003;4.266680e-002
1.774264e+003;4.267422e-002
1.776193e+003;4.285334e-002
1.778121e+003;4.269246e-002
1.780050e+003;4.243211e-002
1.781978e+003;4.231277e-002
1.783907e+003;4.213325e-002
1.785835e+003;4.199720e-002
1.787764e+003;4.189797e-002
1.789693e+003;4.162048e-002
1.791621e+003;4.146133e-002
1.793550e+003;4.163503e-002
1.795478e+003;4.164914e-002
1.797407e+003;4.126621e-002
1.799335e+003;4.094415e-002
1.801264e+003;4.081586e-002
1.803192e+003;4.054085e-002
1.805121e+003;4.035711e-002
1.807049e+003;4.044239e-002
1.808978e+003;4.041362e-002
1.810907e+003;4.026124e-002
1.812835e+003;4.038617e-002
1.814764e+003;4.047283e-002
1.816692e+003;4.034355e-002
1.818621e+003;4.014889e-002
1.820549e+003;4.010968e-002
1.822478e+003;4.004056e-002
1.824406e+003;3.986049e-002
1.826335e+003;3.982548e-002
1.828264e+003;3.977388e-002
1.830192e+003;3.961196e-002
1.832121e+003;3.953414e-002
1.834049e+003;3.941465e-002
1.835978e+003;3.926056e-002
1.837906e+003;3.918414e-002
1.839835e+003;3.908929e-002
1.841763e+003;3.880232e-002
1.843692e+003;3.851775e-002
1.845620e+003;3.846822e-002
1.847549e+003;3.843488e-002
1.849478e+003;3.834761e-002
1.851406e+003;3.838322e-002
1.853335e+003;3.830357e-002
1.855263e+003;3.802388e-002
1.857192e+003;3.801520e-002
1.859120e+003;3.820167e-002
1.861049e+003;3.819729e-002
1.862977e+003;3.821701e-002
1.864906e+003;3.827747e-002
1.866834e+003;3.814747e-002
1.868763e+003;3.789272e-002
1.870692e+003;3.773497e-002
1.872620e+003;3.776363e-002
1.874549e+003;3.785635e-002
1.876477e+003;3.794902e-002
1.878406e+003;3.787555e-002
1.880334e+003;3.771145e-002
1.882263e+003;3.755770e-002
1.884191e+003;3.744597e-002
1.886120e+003;3.748270e-002
1.888048e+003;3.746666e-002
1.889977e+003;3.749838e-002
1.891906e+003;3.753581e-002
1.893834e+003;3.755585e-002
1.895763e+003;3.759224e-002
1.897691e+003;3.758295e-002
1.899620e+003;3.779754e-002
1.901548e+003;3.791615e-002
1.903477e+003;3.806851e-002
1.905405e+003;3.821133e-002
1.907334e+003;3.824545e-002
1.909262e+003;3.827794e-002
1.911191e+003;3.851786e-002
1.913120e+003;3.875979e-002
1.915048e+003;3.879225e-002
1.916977e+003;3.878290e-002
1.918905e+003;3.897478e-002
1.920834e+003;3.921101e-002
1.922762e+003;3.930005e-002
1.924691e+003;3.945859e-002
1.926619e+003;3.971829e-002
1.928548e+003;3.985178e-002
1.930477e+003;3.981092e-002
1.932405e+003;3.987117e-002
1.934334e+003;4.016030e-002
1.936262e+003;4.034824e-002
1.938191e+003;4.041013e-002
1.940119e+003;4.040569e-002
1.942048e+003;4.038493e-002
1.943976e+003;4.058388e-002
1.945905e+003;4.092063e-002
1.947833e+003;4.113761e-002
1.949762e+003;4.138067e-002
1.951691e+003;4.145918e-002
1.953619e+003;4.168605e-002
1.955548e+003;4.199391e-002
1.957476e+003;4.185564e-002
1.959405e+003;4.170772e-002
1.961333e+003;4.192311e-002
1.963262e+003;4.208057e-002
1.965190e+003;4.231364e-002
1.967119e+003;4.262608e-002
1.969047e+003;4.265408e-002
1.970976e+003;4.253025e-002
1.972905e+003;4.264198e-002
1.974833e+003;4.292704e-002
1.976762e+003;4.321627e-002
1.978690e+003;4.338437e-002
1.980619e+003;4.348746e-002
1.982547e+003;4.346285e-002
1.984476e+003;4.335508e-002
1.986404e+003;4.341616e-002
1.988333e+003;4.348445e-002
1.990261e+003;4.354675e-002
1.992190e+003;4.373144e-002
1.994119e+003;4.390902e-002
1.996047e+003;4.398619e-002
1.997976e+003;4.395495e-002
1.999904e+003;4.399587e-002
2.001833e+003;4.417627e-002
2.003761e+003;4.437928e-002
2.005690e+003;4.455540e-002
2.007618e+003;4.459920e-002
2.009547e+003;4.469534e-002
2.011476e+003;4.489697e-002
2.013404e+003;4.508263e-002
2.015333e+003;4.520542e-002
2.017261e+003;4.537776e-002
2.019190e+003;4.563745e-002
2.021118e+003;4.576905e-002
2.023047e+003;4.587845e-002
2.024975e+003;4.585448e-002
2.026904e+003;4.594172e-002
2.028833e+003;4.619862e-002
2.030761e+003;4.646577e-002
2.032690e+003;4.670361e-002
2.034618e+003;4.676568e-002
2.036547e+003;4.686056e-002
2.038475e+003;4.688045e-002
2.040404e+003;4.682605e-002
2.042332e+003;4.686307e-002
2.044261e+003;4.703340e-002
2.046189e+003;4.731692e-002
2.048118e+003;4.738628e-002
2.050047e+003;4.720946e-002
2.051975e+003;4.727765e-002
2.053904e+003;4.749997e-002
2.055832e+003;4.753497e-002
2.057761e+003;4.729424e-002
2.059689e+003;4.715494e-002
2.061618e+003;4.725116e-002
2.063546e+003;4.731426e-002
2.065475e+003;4.736470e-002
2.067404e+003;4.747635e-002
2.069332e+003;4.750865e-002
2.071260e+003;4.741363e-002
2.073189e+003;4.750954e-002
2.075118e+003;4.774884e-002
2.077046e+003;4.768449e-002
2.078975e+003;4.758170e-002
2.080903e+003;4.762274e-002
2.082832e+003;4.752333e-002
2.084760e+003;4.745602e-002
2.086689e+003;4.757142e-002
2.088617e+003;4.770409e-002
2.090546e+003;4.782526e-002
2.092475e+003;4.788796e-002
2.094403e+003;4.795504e-002
2.096332e+003;4.827501e-002
2.098260e+003;4.845082e-002
2.100189e+003;4.837863e-002
2.102117e+003;4.846423e-002
2.104046e+003;4.855126e-002
2.105974e+003;4.853978e-002
2.107903e+003;4.845957e-002
2.109832e+003;4.839230e-002
2.111760e+003;4.856238e-002
2.113688e+003;4.882591e-002
2.115617e+003;4.887923e-002
2.117546e+003;4.869553e-002
2.119474e+003;4.867026e-002
2.121403e+003;4.872834e-002
2.123331e+003;4.884712e-002
2.125260e+003;4.913431e-002
2.127188e+003;4.919298e-002
2.129117e+003;4.923269e-002
2.131045e+003;4.939415e-002
2.132974e+003;4.935874e-002
2.134903e+003;4.913792e-002
2.136831e+003;4.900369e-002
2.138760e+003;4.893905e-002
2.140688e+003;4.901442e-002
2.142617e+003;4.884264e-002
2.144545e+003;4.874836e-002
2.146474e+003;4.896208e-002
2.148402e+003;4.893924e-002
2.150331e+003;4.872656e-002
2.152260e+003;4.842404e-002
2.154188e+003;4.849420e-002
2.156117e+003;4.857613e-002
2.158045e+003;4.824224e-002
2.159974e+003;4.810060e-002
2.161902e+003;4.810593e-002
2.163831e+003;4.812954e-002
2.165759e+003;4.813983e-002
2.167688e+003;4.801195e-002
2.169616e+003;4.773475e-002
2.171545e+003;4.752089e-002
2.173474e+003;4.722833e-002
2.175402e+003;4.705526e-002
2.177331e+003;4.705242e-002
2.179259e+003;4.712639e-002
2.181188e+003;4.692796e-002
2.183116e+003;4.662156e-002
2.185045e+003;4.657701e-002
2.186973e+003;4.658147e-002
2.188902e+003;4.664709e-002
2.190831e+003;4.662053e-002
2.192759e+003;4.658803e-002
2.194688e+003;4.638148e-002
2.196616e+003;4.608339e-002
2.198545e+003;4.594864e-002
2.200473e+003;4.600739e-002
2.202402e+003;4.591660e-002
2.204330e+003;4.574508e-002
2.206259e+003;4.572944e-002
2.208188e+003;4.582177e-002
2.210116e+003;4.595693e-002
2.212044e+003;4.584453e-002
2.213973e+003;4.549022e-002
2.215902e+003;4.530868e-002
2.217830e+003;4.536654e-002
2.219759e+003;4.548834e-002
2.221687e+003;4.548849e-002
2.223616e+003;4.546550e-002
2.225544e+003;4.533733e-002
2.227473e+003;4.531093e-002
2.229401e+003;4.527647e-002
2.231330e+003;4.501599e-002
2.233259e+003;4.483488e-002
2.235187e+003;4.487849e-002
2.237116e+003;4.488499e-002
2.239044e+003;4.464569e-002
2.240973e+003;4.441565e-002
2.242901e+003;4.446234e-002
2.244830e+003;4.455345e-002
2.246758e+003;4.465255e-002
2.248687e+003;4.453818e-002
2.250615e+003;4.403885e-002
2.252544e+003;4.384776e-002
2.254473e+003;4.389622e-002
2.256401e+003;4.392793e-002
2.258330e+003;4.386822e-002
2.260258e+003;4.359642e-002
2.262187e+003;4.345552e-002
2.264115e+003;4.332638e-002
2.266044e+003;4.323929e-002
2.267972e+003;4.309020e-002
2.269901e+003;4.297997e-002
2.271830e+003;4.310085e-002
2.273758e+003;4.320862e-002
2.275687e+003;4.315742e-002
2.277615e+003;4.298311e-002
2.279544e+003;4.275531e-002
2.281472e+003;4.253212e-002
2.283401e+003;4.243708e-002
2.285329e+003;4.267627e-002
2.287258e+003;4.281794e-002
2.289187e+003;4.272946e-002
2.291115e+003;4.268775e-002
2.293043e+003;4.258960e-002
2.294972e+003;4.235053e-002
2.296901e+003;4.237114e-002
2.298829e+003;4.263346e-002
2.300758e+003;4.275249e-002
2.302686e+003;4.247033e-002
2.304615e+003;4.234980e-002
2.306543e+003;4.259425e-002
2.308472e+003;4.272602e-002
2.310400e+003;4.261161e-002
2.312329e+003;4.265481e-002
2.314258e+003;4.290451e-002
2.316186e+003;4.293834e-002
2.318115e+003;4.280467e-002
2.320043e+003;4.266333e-002
2.321972e+003;4.265346e-002
2.323900e+003;4.276160e-002
2.325829e+003;4.274024e-002
2.327757e+003;4.289350e-002
2.329686e+003;4.309953e-002
2.331615e+003;4.299617e-002
2.333543e+003;4.294002e-002
2.335472e+003;4.323369e-002
2.337400e+003;4.366303e-002
2.339329e+003;4.377109e-002
2.341257e+003;4.366091e-002
2.343186e+003;4.376387e-002
2.345114e+003;4.412565e-002
2.347043e+003;4.427099e-002
2.348971e+003;4.424575e-002
2.350900e+003;4.415426e-002
2.352829e+003;4.427947e-002
2.354757e+003;4.451189e-002
2.356686e+003;4.468641e-002
2.358614e+003;4.500923e-002
2.360543e+003;4.515516e-002
2.362471e+003;4.495260e-002
2.364400e+003;4.485053e-002
2.366328e+003;4.490197e-002
2.368257e+003;4.498060e-002
2.370186e+003;4.525279e-002
2.372114e+003;4.546005e-002
2.374042e+003;4.526849e-002
2.375971e+003;4.533035e-002
2.377900e+003;4.560359e-002
2.379828e+003;4.584217e-002
2.381757e+003;4.609021e-002
2.383685e+003;4.629305e-002
2.385614e+003;4.629275e-002
2.387542e+003;4.633474e-002
2.389471e+003;4.652836e-002
2.391399e+003;4.659464e-002
2.393328e+003;4.647400e-002
2.395257e+003;4.669159e-002
2.397185e+003;4.681693e-002
2.399114e+003;4.690659e-002
2.401042e+003;4.718825e-002
2.402971e+003;4.734870e-002
2.404899e+003;4.737512e-002
2.406828e+003;4.759017e-002
2.408756e+003;4.768804e-002
2.410685e+003;4.781956e-002
2.412614e+003;4.814931e-002
2.414542e+003;4.852118e-002
2.416471e+003;4.890912e-002
2.418399e+003;4.902476e-002
2.420328e+003;4.887960e-002
2.422256e+003;4.903192e-002
2.424185e+003;4.936694e-002
2.426113e+003;4.962632e-002
2.428042e+003;4.976879e-002
2.429970e+003;4.986880e-002
2.431899e+003;5.016518e-002
2.433828e+003;5.062578e-002
2.435756e+003;5.106950e-002
2.437685e+003;5.126565e-002
2.439613e+003;5.113152e-002
2.441542e+003;5.114479e-002
2.443470e+003;5.150639e-002
2.445399e+003;5.180386e-002
2.447327e+003;5.206795e-002
2.449256e+003;5.214543e-002
2.451185e+003;5.227278e-002
2.453113e+003;5.248664e-002
2.455042e+003;5.260267e-002
2.456970e+003;5.286224e-002
2.458899e+003;5.317157e-002
2.460827e+003;5.316154e-002
2.462756e+003;5.329712e-002
2.464684e+003;5.349428e-002
2.466613e+003;5.362761e-002
2.468542e+003;5.412184e-002
2.470470e+003;5.448496e-002
2.472398e+003;5.471709e-002
2.474327e+003;5.468187e-002
2.476256e+003;5.478407e-002
2.478184e+003;5.517155e-002
2.480113e+003;5.533310e-002
2.482041e+003;5.545697e-002
2.483970e+003;5.553495e-002
2.485898e+003;5.546176e-002
2.487827e+003;5.555630e-002
2.489755e+003;5.589812e-002
2.491684e+003;5.627310e-002
2.493613e+003;5.640321e-002
2.495541e+003;5.642804e-002
2.497470e+003;5.634579e-002
2.499398e+003;5.639585e-002
2.501327e+003;5.666823e-002
2.503255e+003;5.695845e-002
2.505184e+003;5.704965e-002
2.507112e+003;5.712792e-002
2.509041e+003;5.720358e-002
2.510969e+003;5.708687e-002
2.512898e+003;5.731162e-002
2.514827e+003;5.752435e-002
2.516755e+003;5.751005e-002
2.518684e+003;5.776094e-002
2.520612e+003;5.780492e-002
2.522541e+003;5.781272e-002
2.524469e+003;5.823520e-002
2.526398e+003;5.854482e-002
2.528326e+003;5.851059e-002
2.530255e+003;5.839739e-002
2.532184e+003;5.834134e-002
2.534112e+003;5.840581e-002
2.536041e+003;5.863465e-002
2.537969e+003;5.890825e-002
2.539898e+003;5.904977e-002
2.541826e+003;5.886138e-002
2.543755e+003;5.883744e-002
2.545683e+003;5.908728e-002
2.547612e+003;5.920851e-002
2.549541e+003;5.931371e-002
2.551469e+003;5.945093e-002
2.553397e+003;5.967284e-002
2.555326e+003;5.976583e-002
2.557255e+003;5.989688e-002
2.559183e+003;6.011605e-002
2.561112e+003;6.006860e-002
2.563040e+003;6.021979e-002
2.564969e+003;6.045005e-002
2.566897e+003;6.039171e-002
2.568826e+003;6.017176e-002
2.570754e+003;6.055833e-002
2.572683e+003;6.123465e-002
2.574612e+003;6.112852e-002
2.576540e+003;6.094281e-002
2.578469e+003;6.121786e-002
2.580397e+003;6.130142e-002
2.582326e+003;6.127578e-002
2.584254e+003;6.126578e-002
2.586183e+003;6.130703e-002
2.588111e+003;6.146343e-002
2.590040e+003;6.179236e-002
2.591969e+003;6.222049e-002
2.593897e+003;6.236769e-002
2.595826e+003;6.250343e-002
2.597754e+003;6.261467e-002
2.599683e+003;6.247902e-002
2.601611e+003;6.254839e-002
2.603540e+003;6.288703e-002
2.605468e+003;6.321896e-002
2.607397e+003;6.340327e-002
2.609325e+003;6.341577e-002
2.611254e+003;6.355172e-002
2.613183e+003;6.370617e-002
2.615111e+003;6.409574e-002
2.617040e+003;6.479137e-002
2.618968e+003;6.503234e-002
2.620897e+003;6.489693e-002
2.622825e+003;6.508068e-002
2.624754e+003;6.538837e-002
2.626682e+003;6.535131e-002
2.628611e+003;6.543879e-002
2.630540e+003;6.600150e-002
2.632468e+003;6.636871e-002
2.634396e+003;6.639404e-002
2.636325e+003;6.643180e-002
2.638254e+003;6.676684e-002
2.640182e+003;6.718200e-002
2.642111e+003;6.741652e-002
2.644039e+003;6.739745e-002
2.645968e+003;6.743989e-002
2.647896e+003;6.778985e-002
2.649825e+003;6.810962e-002
2.651753e+003;6.848552e-002
2.653682e+003;6.874512e-002
2.655611e+003;6.875060e-002
2.657539e+003;6.917131e-002
2.659468e+003;6.971791e-002
2.661396e+003;6.991318e-002
2.663325e+003;6.981884e-002
2.665253e+003;6.976141e-002
2.667182e+003;7.010747e-002
2.669110e+003;7.053602e-002
2.671039e+003;7.071168e-002
2.672968e+003;7.083613e-002
2.674896e+003;7.110998e-002
2.676825e+003;7.139600e-002
2.678753e+003;7.160593e-002
2.680682e+003;7.186925e-002
2.682610e+003;7.202078e-002
2.684539e+003;7.225139e-002
2.686467e+003;7.238732e-002
2.688396e+003;7.254282e-002
2.690324e+003;7.308263e-002
2.692253e+003;7.336129e-002
2.694182e+003;7.351765e-002
2.696110e+003;7.371781e-002
2.698039e+003;7.375456e-002
2.699967e+003;7.374675e-002
2.701896e+003;7.388134e-002
2.703824e+003;7.429726e-002
2.705753e+003;7.455443e-002
2.707681e+003;7.473594e-002
2.709610e+003;7.488918e-002
2.711539e+003;7.500631e-002
2.713467e+003;7.515284e-002
2.715396e+003;7.519113e-002
2.717324e+003;7.539455e-002
2.719253e+003;7.574182e-002
2.721181e+003;7.592880e-002
2.723110e+003;7.594758e-002
2.725038e+003;7.629012e-002
2.726967e+003;7.658377e-002
2.728896e+003;7.672461e-002
2.730824e+003;7.690667e-002
2.732752e+003;7.702547e-002
2.734681e+003;7.718957e-002
2.736610e+003;7.742216e-002
2.738538e+003;7.738949e-002
2.740467e+003;7.730722e-002
2.742395e+003;7.742897e-002
2.744324e+003;7.769913e-002
2.746252e+003;7.779599e-002
2.748181e+003;7.801966e-002
2.750109e+003;7.838210e-002
2.752038e+003;7.839671e-002
2.753967e+003;7.854346e-002
2.755895e+003;7.884634e-002
2.757824e+003;7.883775e-002
2.759752e+003;7.898184e-002
2.761681e+003;7.926637e-002
2.763609e+003;7.960624e-002
2.765538e+003;7.978263e-002
2.767466e+003;7.987410e-002
2.769395e+003;8.002271e-002
2.771323e+003;8.048879e-002
2.773252e+003;8.095536e-002
2.775181e+003;8.130655e-002
2.777109e+003;8.169673e-002
2.779038e+003;8.197965e-002
2.780966e+003;8.225114e-002
2.782895e+003;8.248921e-002
2.784823e+003;8.274891e-002
2.786752e+003;8.291612e-002
2.788680e+003;8.335364e-002
2.790609e+003;8.392651e-002
2.792538e+003;8.414625e-002
2.794466e+003;8.435652e-002
2.796395e+003;8.464710e-002
2.798323e+003;8.496711e-002
2.800252e+003;8.556638e-002
2.802180e+003;8.614498e-002
2.804109e+003;8.658025e-002
2.806037e+003;8.704375e-002
2.807966e+003;8.733451e-002
2.809895e+003;8.782026e-002
2.811823e+003;8.857423e-002
2.813751e+003;8.915555e-002
2.815680e+003;8.946596e-002
2.817609e+003;8.981465e-002
2.819537e+003;9.016346e-002
2.821466e+003;9.078717e-002
2.823394e+003;9.124991e-002
2.825323e+003;9.164172e-002
2.827251e+003;9.246693e-002
2.829180e+003;9.340273e-002
2.831108e+003;9.414531e-002
2.833037e+003;9.470368e-002
2.834966e+003;9.529719e-002
2.836894e+003;9.613466e-002
2.838823e+003;9.725673e-002
2.840751e+003;9.872840e-002
2.842680e+003;1.001710e-001
2.844608e+003;1.015245e-001
2.846537e+003;1.026365e-001
2.848465e+003;1.038398e-001
2.850394e+003;1.051013e-001
2.852323e+003;1.063521e-001
2.854251e+003;1.077976e-001
2.856180e+003;1.092716e-001
2.858108e+003;1.107297e-001
2.860037e+003;1.122167e-001
2.861965e+003;1.138397e-001
2.863894e+003;1.152958e-001
2.865822e+003;1.167197e-001
2.867751e+003;1.183506e-001
2.869679e+003;1.196906e-001
2.871608e+003;1.207051e-001
2.873536e+003;1.218571e-001
2.875465e+003;1.226090e-001
2.877394e+003;1.229899e-001
2.879322e+003;1.235102e-001
2.881251e+003;1.239205e-001
2.883179e+003;1.243246e-001
2.885108e+003;1.250791e-001
2.887036e+003;1.256871e-001
2.888965e+003;1.261304e-001
2.890893e+003;1.260994e-001
2.892822e+003;1.258447e-001
2.894750e+003;1.257112e-001
2.896679e+003;1.255034e-001
2.898608e+003;1.249459e-001
2.900536e+003;1.240756e-001
2.902465e+003;1.232199e-001
2.904393e+003;1.226378e-001
2.906322e+003;1.221572e-001
2.908250e+003;1.213769e-001
2.910179e+003;1.208766e-001
2.912107e+003;1.208273e-001
2.914036e+003;1.204332e-001
2.915965e+003;1.198297e-001
2.917893e+003;1.189032e-001
2.919822e+003;1.175081e-001
2.921750e+003;1.165983e-001
2.923679e+003;1.156183e-001
2.925607e+003;1.141211e-001
2.927536e+003;1.127068e-001
2.929464e+003;1.115845e-001
2.931393e+003;1.105335e-001
2.933322e+003;1.095290e-001
2.935250e+003;1.084688e-001
2.937178e+003;1.072503e-001
2.939107e+003;1.055593e-001
2.941036e+003;1.037710e-001
2.942964e+003;1.023604e-001
2.944893e+003;1.012999e-001
2.946821e+003;9.979545e-002
2.948750e+003;9.805257e-002
2.950678e+003;9.687506e-002
2.952607e+003;9.616973e-002
2.954535e+003;9.542447e-002
2.956464e+003;9.440548e-002
2.958393e+003;9.332398e-002
2.960321e+003;9.214839e-002
2.962250e+003;9.114355e-002
2.964178e+003;9.046721e-002
2.966107e+003;8.977863e-002
2.968035e+003;8.891692e-002
2.969964e+003;8.810042e-002
2.971892e+003;8.750936e-002
2.973821e+003;8.695421e-002
2.975750e+003;8.617976e-002
2.977678e+003;8.536645e-002
2.979607e+003;8.485132e-002
2.981535e+003;8.464142e-002
2.983464e+003;8.423249e-002
2.985392e+003;8.389902e-002
2.987321e+003;8.378360e-002
2.989249e+003;8.363607e-002
2.991178e+003;8.362892e-002
2.993106e+003;8.358143e-002
2.995035e+003;8.336628e-002
2.996964e+003;8.304142e-002
2.998892e+003;8.284975e-002
3.000821e+003;8.263648e-002
3.002749e+003;8.231714e-002
3.004678e+003;8.257344e-002
3.006606e+003;8.304764e-002
3.008535e+003;8.311652e-002
3.010463e+003;8.332537e-002
3.012392e+003;8.383226e-002
3.014321e+003;8.421897e-002
3.016249e+003;8.438312e-002
3.018177e+003;8.444396e-002
3.020106e+003;8.481197e-002
3.022035e+003;8.521451e-002
3.023963e+003;8.542041e-002
3.025892e+003;8.585243e-002
3.027820e+003;8.641621e-002
3.029749e+003;8.708481e-002
3.031677e+003;8.763754e-002
3.033606e+003;8.765022e-002
3.035534e+003;8.802177e-002
3.037463e+003;8.884072e-002
3.039392e+003;8.948583e-002
3.041320e+003;9.014764e-002
3.043249e+003;9.075050e-002
3.045177e+003;9.123074e-002
3.047106e+003;9.159791e-002
3.049034e+003;9.183335e-002
3.050963e+003;9.252883e-002
3.052891e+003;9.321025e-002
3.054820e+003;9.347328e-002
3.056749e+003;9.393506e-002
3.058677e+003;9.451577e-002
3.060606e+003;9.504674e-002
3.062534e+003;9.558109e-002
3.064463e+003;9.622129e-002
3.066391e+003;9.700052e-002
3.068320e+003;9.747428e-002
3.070248e+003;9.811312e-002
3.072177e+003;9.919980e-002
3.074105e+003;9.980232e-002
3.076034e+003;1.001308e-001
3.077963e+003;1.006688e-001
3.079891e+003;1.014767e-001
3.081820e+003;1.023638e-001
3.083748e+003;1.030000e-001
3.085677e+003;1.035666e-001
3.087605e+003;1.042179e-001
3.089534e+003;1.047369e-001
3.091462e+003;1.050940e-001
3.093391e+003;1.058230e-001
3.095320e+003;1.070495e-001
3.097248e+003;1.080001e-001
3.099177e+003;1.083682e-001
3.101105e+003;1.086550e-001
3.103034e+003;1.092656e-001
3.104962e+003;1.103462e-001
3.106891e+003;1.113045e-001
3.108819e+003;1.121202e-001
3.110748e+003;1.126550e-001
3.112677e+003;1.129886e-001
3.114605e+003;1.138288e-001
3.116533e+003;1.147721e-001
3.118462e+003;1.155054e-001
3.120391e+003;1.159522e-001
3.122319e+003;1.165065e-001
3.124248e+003;1.175873e-001
3.126176e+003;1.186173e-001
3.128105e+003;1.191672e-001
3.130033e+003;1.198417e-001
3.131962e+003;1.205928e-001
3.133890e+003;1.212065e-001
3.135819e+003;1.221335e-001
3.137748e+003;1.231436e-001
3.139676e+003;1.237655e-001
3.141605e+003;1.240634e-001
3.143533e+003;1.247060e-001
3.145462e+003;1.257499e-001
3.147390e+003;1.266260e-001
3.149319e+003;1.275335e-001
3.151247e+003;1.283301e-001
3.153176e+003;1.290078e-001
3.155104e+003;1.295369e-001
3.157033e+003;1.305047e-001
3.158962e+003;1.314539e-001
3.160890e+003;1.320120e-001
3.162819e+003;1.327322e-001
3.164747e+003;1.335318e-001
3.166676e+003;1.344385e-001
3.168604e+003;1.353381e-001
3.170533e+003;1.358886e-001
3.172461e+003;1.362452e-001
3.174390e+003;1.367632e-001
3.176319e+003;1.376918e-001
3.178247e+003;1.383057e-001
3.180176e+003;1.391181e-001
3.182104e+003;1.401117e-001
3.184033e+003;1.409214e-001
3.185961e+003;1.417309e-001
3.187890e+003;1.422144e-001
3.189818e+003;1.425076e-001
3.191747e+003;1.431736e-001
3.193676e+003;1.440053e-001
3.195604e+003;1.446498e-001
3.197532e+003;1.454666e-001
3.199461e+003;1.466066e-001
3.201390e+003;1.472870e-001
3.203318e+003;1.479392e-001
3.205247e+003;1.486787e-001
3.207175e+003;1.493853e-001
3.209104e+003;1.498388e-001
3.211032e+003;1.504878e-001
3.212961e+003;1.513243e-001
3.214889e+003;1.519666e-001
3.216818e+003;1.521970e-001
3.218747e+003;1.529670e-001
3.220675e+003;1.539382e-001
3.222604e+003;1.546195e-001
3.224532e+003;1.549285e-001
3.226461e+003;1.552255e-001
3.228389e+003;1.557428e-001
3.230318e+003;1.566255e-001
3.232246e+003;1.576506e-001
3.234175e+003;1.585067e-001
3.236104e+003;1.591194e-001
3.238032e+003;1.597296e-001
3.239961e+003;1.600555e-001
3.241889e+003;1.604849e-001
3.243818e+003;1.608120e-001
3.245746e+003;1.611850e-001
3.247675e+003;1.621932e-001
3.249603e+003;1.629554e-001
3.251532e+003;1.635058e-001
3.253460e+003;1.642250e-001
3.255389e+003;1.648641e-001
3.257318e+003;1.651163e-001
3.259246e+003;1.656445e-001
3.261175e+003;1.661078e-001
3.263103e+003;1.661987e-001
3.265032e+003;1.666247e-001
3.266960e+003;1.674587e-001
3.268889e+003;1.683636e-001
3.270817e+003;1.683716e-001
3.272746e+003;1.683137e-001
3.274675e+003;1.689532e-001
3.276603e+003;1.694702e-001
3.278531e+003;1.700163e-001
3.280460e+003;1.703013e-001
3.282389e+003;1.704271e-001
3.284317e+003;1.708324e-001
3.286246e+003;1.715282e-001
3.288174e+003;1.717388e-001
3.290103e+003;1.716070e-001
3.292031e+003;1.722634e-001
3.293960e+003;1.728252e-001
3.295888e+003;1.726151e-001
3.297817e+003;1.728353e-001
3.299746e+003;1.732722e-001
3.301674e+003;1.732422e-001
3.303603e+003;1.733802e-001
3.305531e+003;1.741373e-001
3.307460e+003;1.745336e-001
3.309388e+003;1.747457e-001
3.311317e+003;1.749638e-001
3.313245e+003;1.747949e-001
3.315174e+003;1.749422e-001
3.317103e+003;1.754339e-001
3.319031e+003;1.756771e-001
3.320960e+003;1.757202e-001
3.322888e+003;1.756822e-001
3.324817e+003;1.757883e-001
3.326745e+003;1.758088e-001
3.328674e+003;1.758283e-001
3.330602e+003;1.762622e-001
3.332531e+003;1.763951e-001
3.334459e+003;1.761442e-001
3.336388e+003;1.760484e-001
3.338317e+003;1.759124e-001
3.340245e+003;1.760601e-001
3.342174e+003;1.765922e-001
3.344102e+003;1.768124e-001
3.346031e+003;1.767499e-001
3.347959e+003;1.769733e-001
3.349888e+003;1.764038e-001
3.351816e+003;1.757238e-001
3.353745e+003;1.755649e-001
3.355674e+003;1.755221e-001
3.357602e+003;1.756080e-001
3.359531e+003;1.756428e-001
3.361459e+003;1.751463e-001
3.363388e+003;1.746862e-001
3.365316e+003;1.745048e-001
3.367245e+003;1.738811e-001
3.369173e+003;1.734627e-001
3.371102e+003;1.735277e-001
3.373031e+003;1.733054e-001
3.374959e+003;1.729542e-001
3.376887e+003;1.725593e-001
3.378816e+003;1.719810e-001
3.380745e+003;1.714501e-001
3.382673e+003;1.712450e-001
3.384602e+003;1.710979e-001
3.386530e+003;1.709249e-001
3.388459e+003;1.709089e-001
3.390387e+003;1.706940e-001
3.392316e+003;1.701017e-001
3.394244e+003;1.695828e-001
3.396173e+003;1.688980e-001
3.398102e+003;1.682342e-001
3.400030e+003;1.679512e-001
3.401959e+003;1.674090e-001
3.403887e+003;1.667570e-001
3.405816e+003;1.661191e-001
3.407744e+003;1.652049e-001
3.409673e+003;1.643481e-001
3.411601e+003;1.642818e-001
3.413530e+003;1.645703e-001
3.415458e+003;1.642394e-001
3.417387e+003;1.636180e-001
3.419316e+003;1.628172e-001
3.421244e+003;1.619417e-001
3.423173e+003;1.609290e-001
3.425101e+003;1.600531e-001
3.427030e+003;1.594209e-001
3.428958e+003;1.588209e-001
3.430887e+003;1.578771e-001
3.432815e+003;1.571868e-001
3.434744e+003;1.566366e-001
3.436673e+003;1.559476e-001
3.438601e+003;1.554904e-001
3.440530e+003;1.545680e-001
3.442458e+003;1.534493e-001
3.444387e+003;1.526514e-001
3.446315e+003;1.515612e-001
3.448244e+003;1.503116e-001
3.450172e+003;1.491812e-001
3.452101e+003;1.479646e-001
3.454030e+003;1.464484e-001
3.455958e+003;1.448073e-001
3.457886e+003;1.436018e-001
3.459815e+003;1.427666e-001
3.461744e+003;1.417199e-001
3.463672e+003;1.404675e-001
3.465601e+003;1.392570e-001
3.467529e+003;1.380163e-001
3.469458e+003;1.362318e-001
3.471386e+003;1.351277e-001
3.473315e+003;1.343991e-001
3.475243e+003;1.332762e-001
3.477172e+003;1.321634e-001
3.479101e+003;1.309609e-001
3.481029e+003;1.296540e-001
3.482958e+003;1.283524e-001
3.484886e+003;1.271010e-001
3.486815e+003;1.257714e-001
3.488743e+003;1.244805e-001
3.490672e+003;1.234507e-001
3.492600e+003;1.220436e-001
3.494529e+003;1.203289e-001
3.496458e+003;1.187386e-001
3.498386e+003;1.172595e-001
3.500315e+003;1.160336e-001
3.502243e+003;1.143981e-001
3.504172e+003;1.127438e-001
3.506100e+003;1.120151e-001
3.508029e+003;1.108011e-001
3.509957e+003;1.089296e-001
3.511886e+003;1.075145e-001
3.513814e+003;1.063471e-001
3.515743e+003;1.051543e-001
3.517672e+003;1.037618e-001
3.519600e+003;1.022161e-001
3.521529e+003;1.010069e-001
3.523457e+003;9.997806e-002
3.525386e+003;9.873073e-002
3.527314e+003;9.747043e-002
3.529243e+003;9.647650e-002
3.531171e+003;9.573431e-002
3.533100e+003;9.434120e-002
3.535029e+003;9.276348e-002
3.536957e+003;9.127436e-002
3.538885e+003;9.008171e-002
3.540814e+003;8.907647e-002
3.542743e+003;8.810309e-002
3.544671e+003;8.690178e-002
3.546600e+003;8.584654e-002
3.548528e+003;8.492461e-002
3.550457e+003;8.369230e-002
3.552385e+003;8.252011e-002
3.554314e+003;8.133360e-002
3.556242e+003;8.012965e-002
3.558171e+003;7.900771e-002
3.560100e+003;7.787253e-002
3.562028e+003;7.674011e-002
3.563957e+003;7.602731e-002
3.565885e+003;7.497863e-002
3.567814e+003;7.385431e-002
3.569742e+003;7.302379e-002
3.571671e+003;7.212572e-002
3.573599e+003;7.125906e-002
3.575528e+003;7.025029e-002
3.577457e+003;6.956229e-002
3.579385e+003;6.867879e-002
3.581314e+003;6.756577e-002
3.583242e+003;6.657109e-002
3.585171e+003;6.571339e-002
3.587099e+003;6.496041e-002
3.589028e+003;6.441826e-002
3.590956e+003;6.386615e-002
3.592885e+003;6.301266e-002
3.594813e+003;6.242232e-002
3.596742e+003;6.159326e-002
3.598671e+003;6.031138e-002
3.600599e+003;5.914172e-002
3.602528e+003;5.861156e-002
3.604456e+003;5.829556e-002
3.606385e+003;5.802182e-002
3.608313e+003;5.751368e-002
3.610242e+003;5.686866e-002
3.612170e+003;5.614096e-002
3.614099e+003;5.532474e-002
3.616028e+003;5.489429e-002
3.617956e+003;5.424879e-002
3.619885e+003;5.332851e-002
3.621813e+003;5.266099e-002
3.623742e+003;5.225036e-002
3.625670e+003;5.195422e-002
3.627599e+003;5.162497e-002
3.629527e+003;5.081477e-002
3.631456e+003;5.019579e-002
3.633385e+003;4.980971e-002
3.635313e+003;4.921703e-002
3.637241e+003;4.849476e-002
3.639170e+003;4.755741e-002
3.641099e+003;4.678557e-002
3.643027e+003;4.651515e-002
3.644956e+003;4.613074e-002
3.646884e+003;4.525227e-002
3.648813e+003;4.404266e-002
3.650741e+003;4.331822e-002
3.652670e+003;4.303283e-002
3.654598e+003;4.259264e-002
3.656527e+003;4.197672e-002
3.658456e+003;4.092427e-002
3.660384e+003;3.991980e-002
3.662313e+003;3.949735e-002
3.664241e+003;3.924985e-002
3.666170e+003;3.862316e-002
3.668098e+003;3.768145e-002
3.670027e+003;3.654007e-002
3.671955e+003;3.573012e-002
3.673884e+003;3.527348e-002
3.675813e+003;3.453889e-002
3.677741e+003;3.384544e-002
3.679669e+003;3.347598e-002
3.681598e+003;3.315171e-002
3.683527e+003;3.246622e-002
3.685455e+003;3.175618e-002
3.687384e+003;3.133646e-002
3.689312e+003;3.114116e-002
3.691241e+003;3.046477e-002
3.693169e+003;2.990326e-002
3.695098e+003;2.966447e-002
3.697026e+003;2.934225e-002
3.698955e+003;2.910770e-002
3.700884e+003;2.879500e-002
3.702812e+003;2.847222e-002
3.704741e+003;2.803258e-002
3.706669e+003;2.771810e-002
3.708598e+003;2.771008e-002
3.710526e+003;2.760432e-002
3.712455e+003;2.732152e-002
3.714383e+003;2.713762e-002
3.716312e+003;2.671155e-002
3.718240e+003;2.639165e-002
3.720169e+003;2.633750e-002
3.722098e+003;2.605444e-002
3.724026e+003;2.605722e-002
3.725955e+003;2.594102e-002
3.727883e+003;2.559941e-002
3.729812e+003;2.539723e-002
3.731740e+003;2.496654e-002
3.733669e+003;2.463597e-002
3.735597e+003;2.462387e-002
3.737526e+003;2.462016e-002
3.739455e+003;2.467153e-002
3.741383e+003;2.474841e-002
3.743312e+003;2.486397e-002
3.745240e+003;2.485415e-002
3.747169e+003;2.478325e-002
3.749097e+003;2.446358e-002
3.751026e+003;2.402513e-002
3.752954e+003;2.371879e-002
3.754883e+003;2.390423e-002
3.756812e+003;2.410393e-002
3.758740e+003;2.375809e-002
3.760668e+003;2.341763e-002
3.762597e+003;2.327862e-002
3.764526e+003;2.335448e-002
3.766454e+003;2.358377e-002
3.768383e+003;2.338116e-002
3.770311e+003;2.301427e-002
3.772240e+003;2.295328e-002
3.774168e+003;2.308198e-002
3.776097e+003;2.326502e-002
3.778025e+003;2.333522e-002
3.779954e+003;2.350874e-002
3.781883e+003;2.324366e-002
3.783811e+003;2.286630e-002
3.785740e+003;2.292257e-002
3.787668e+003;2.324761e-002
3.789597e+003;2.318176e-002
3.791525e+003;2.292984e-002
3.793454e+003;2.292823e-002
3.795382e+003;2.276747e-002
3.797311e+003;2.281496e-002
3.799240e+003;2.286162e-002
3.801168e+003;2.248704e-002
3.803097e+003;2.252260e-002
3.805025e+003;2.283127e-002
3.806954e+003;2.283403e-002
3.808882e+003;2.268612e-002
3.810811e+003;2.243219e-002
3.812739e+003;2.236642e-002
3.814668e+003;2.246998e-002
3.816596e+003;2.273207e-002
3.818525e+003;2.307831e-002
3.820454e+003;2.313150e-002
3.822382e+003;2.302839e-002
3.824311e+003;2.289030e-002
3.826239e+003;2.297528e-002
3.828168e+003;2.289148e-002
3.830096e+003;2.247873e-002
3.832025e+003;2.234755e-002
3.833953e+003;2.255034e-002
3.835882e+003;2.294723e-002
3.837811e+003;2.303736e-002
3.839739e+003;2.292467e-002
3.841667e+003;2.298175e-002
3.843596e+003;2.291988e-002
3.845525e+003;2.275396e-002
3.847453e+003;2.279101e-002
3.849382e+003;2.326628e-002
3.851310e+003;2.318843e-002
3.853239e+003;2.294304e-002
3.855167e+003;2.299237e-002
3.857096e+003;2.314705e-002
3.859024e+003;2.337875e-002
3.860953e+003;2.372495e-002
3.862882e+003;2.381633e-002
3.864810e+003;2.382232e-002
3.866739e+003;2.433793e-002
3.868667e+003;2.471930e-002
3.870596e+003;2.454147e-002
3.872524e+003;2.439414e-002
3.874453e+003;2.435874e-002
3.876381e+003;2.420983e-002
3.878310e+003;2.439249e-002
3.880239e+003;2.472607e-002
3.882167e+003;2.489446e-002
3.884096e+003;2.530221e-002
3.886024e+003;2.573935e-002
3.887953e+003;2.571614e-002
3.889881e+003;2.530892e-002
3.891810e+003;2.536140e-002
3.893738e+003;2.560324e-002
3.895667e+003;2.530270e-002
3.897595e+003;2.536115e-002
3.899524e+003;2.574944e-002
3.901453e+003;2.583977e-002
3.903381e+003;2.606897e-002
3.905310e+003;2.627857e-002
3.907238e+003;2.652036e-002
3.909167e+003;2.687271e-002
3.911095e+003;2.684853e-002
3.913024e+003;2.668639e-002
3.914952e+003;2.681635e-002
3.916881e+003;2.694931e-002
3.918810e+003;2.721942e-002
3.920738e+003;2.767788e-002
3.922667e+003;2.783011e-002
3.924595e+003;2.749082e-002
3.926524e+003;2.717561e-002
3.928452e+003;2.751482e-002
3.930381e+003;2.813851e-002
3.932309e+003;2.829246e-002
3.934238e+003;2.836397e-002
3.936167e+003;2.845280e-002
3.938095e+003;2.838106e-002
3.940023e+003;2.815845e-002
3.941952e+003;2.813848e-002
3.943881e+003;2.813763e-002
3.945809e+003;2.813844e-002
3.947738e+003;2.859826e-002
3.949666e+003;2.875202e-002
3.951595e+003;2.885562e-002
3.953523e+003;2.908464e-002
3.955452e+003;2.906785e-002
3.957380e+003;2.889592e-002
3.959309e+003;2.909892e-002
3.961238e+003;2.884956e-002
3.963166e+003;2.858520e-002
3.965095e+003;2.860297e-002
3.967023e+003;2.845991e-002
3.968952e+003;2.893328e-002
3.970880e+003;2.938997e-002
3.972809e+003;2.947964e-002
3.974737e+003;2.962346e-002
3.976666e+003;2.972947e-002
3.978594e+003;2.975803e-002
3.980523e+003;2.967607e-002
3.982452e+003;2.958019e-002
3.984380e+003;2.942064e-002
3.986309e+003;2.926848e-002
3.988237e+003;2.917843e-002
3.990166e+003;2.935916e-002
3.992094e+003;2.954486e-002
3.994023e+003;2.965684e-002
3.995951e+003;2.971119e-002
3.997880e+003;2.968338e-002
3.999809e+003;2.968632e-002
4.001737e+003;0.000000e+000
