3.992094e+002;0.000000e+000
4.011380e+002;0.000000e+000
4.030665e+002;0.000000e+000
4.049951e+002;0.000000e+000
4.069236e+002;0.000000e+000
4.088522e+002;0.000000e+000
4.107807e+002;0.000000e+000
4.127093e+002;0.000000e+000
4.146378e+002;0.000000e+000
4.165664e+002;0.000000e+000
4.184949e+002;0.000000e+000
4.204235e+002;0.000000e+000
4.223520e+002;0.000000e+000
4.242806e+002;0.000000e+000
4.262091e+002;0.000000e+000
4.281377e+002;0.000000e+000
4.300662e+002;0.000000e+000
4.319948e+002;0.000000e+000
4.339233e+002;0.000000e+000
4.358519e+002;0.000000e+000
4.377804e+002;0.000000e+000
4.397090e+002;0.000000e+000
4.416375e+002;0.000000e+000
4.435660e+002;0.000000e+000
4.454946e+002;0.000000e+000
4.474232e+002;0.000000e+000
4.493517e+002;0.000000e+000
4.512802e+002;0.000000e+000
4.532088e+002;0.000000e+000
4.551373e+002;0.000000e+000
4.570659e+002;0.000000e+000
4.589944e+002;0.000000e+000
4.609230e+002;0.000000e+000
4.628515e+002;0.000000e+000
4.647801e+002;0.000000e+000
4.667086e+002;0.000000e+000
4.686372e+002;0.000000e+000
4.705657e+002;0.000000e+000
4.724943e+002;0.000000e+000
4.744228e+002;0.000000e+000
4.763513e+002;0.000000e+000
4.782799e+002;0.000000e+000
4.802085e+002;0.000000e+000
4.821370e+002;0.000000e+000
4.840656e+002;0.000000e+000
4.859941e+002;0.000000e+000
4.879226e+002;0.000000e+000
4.898512e+002;0.000000e+000
4.917798e+002;0.000000e+000
4.937083e+002;0.000000e+000
4.956368e+002;0.000000e+000
4.975654e+002;0.000000e+000
4.994939e+002;0.000000e+000
5.014225e+002;0.000000e+000
5.033510e+002;0.000000e+000
5.052796e+002;0.000000e+000
5.072081e+002;0.000000e+000
5.091367e+002;0.000000e+000
5.110652e+002;0.000000e+000
5.129938e+002;0.000000e+000
5.149223e+002;0.000000e+000
5.168509e+002;0.000000e+000
5.187794e+002;0.000000e+000
5.207079e+002;0.000000e+000
5.226365e+002;0.000000e+000
5.245651e+002;0.000000e+000
5.264936e+002;0.000000e+000
5.284222e+002;0.000000e+000
5.303507e+002;0.000000e+000
5.322792e+002;0.000000e+000
5.342078e+002;0.000000e+000
5.361364e+002;0.000000e+000
5.380649e+002;0.000000e+000
5.399935e+002;0.000000e+000
5.419220e+002;0.000000e+000
5.438505e+002;0.000000e+000
5.457791e+002;0.000000e+000
5.477076e+002;0.000000e+000
5.496362e+002;0.000000e+000
5.515648e+002;0.000000e+000
5.534933e+002;0.000000e+000
5.554218e+002;0.000000e+000
5.573504e+002;0.000000e+000
5.592789e+002;0.000000e+000
5.612075e+002;0.000000e+000
5.631360e+002;0.000000e+000
5.650646e+002;0.000000e+000
5.669931e+002;0.000000e+000
5.689217e+002;0.000000e+000
5.708502e+002;0.000000e+000
5.727787e+002;0.000000e+000
5.747073e+002;0.000000e+000
5.766359e+002;0.000000e+000
5.785644e+002;0.000000e+000
5.804930e+002;0.000000e+000
5.824215e+002;0.000000e+000
5.843500e+002;0.000000e+000
5.862786e+002;0.000000e+000
5.882072e+002;0.000000e+000
5.901357e+002;0.000000e+000
5.920643e+002;0.000000e+000
5.939928e+002;0.000000e+000
5.959213e+002;0.000000e+000
5.978499e+002;0.000000e+000
5.997784e+002;2.856289e-001
6.017070e+002;2.803057e-001
6.036355e+002;2.841401e-001
6.055641e+002;2.889411e-001
6.074926e+002;2.857230e-001
6.094211e+002;2.796562e-001
6.113497e+002;2.744731e-001
6.132783e+002;2.737503e-001
6.152068e+002;2.755775e-001
6.171354e+002;2.735020e-001
6.190639e+002;2.718519e-001
6.209924e+002;2.693456e-001
6.229210e+002;2.661744e-001
6.248495e+002;2.631528e-001
6.267781e+002;2.602933e-001
6.287067e+002;2.583795e-001
6.306352e+002;2.608935e-001
6.325637e+002;2.640131e-001
6.344923e+002;2.615947e-001
6.364208e+002;2.562905e-001
6.383494e+002;2.505383e-001
6.402780e+002;2.497646e-001
6.422065e+002;2.524444e-001
6.441350e+002;2.516677e-001
6.460636e+002;2.463539e-001
6.479921e+002;2.474434e-001
6.499207e+002;2.521503e-001
6.518492e+002;2.532682e-001
6.537778e+002;2.523776e-001
6.557063e+002;2.533225e-001
6.576349e+002;2.554666e-001
6.595634e+002;2.568560e-001
6.614919e+002;2.559364e-001
6.634205e+002;2.542926e-001
6.653491e+002;2.553287e-001
6.672776e+002;2.558226e-001
6.692062e+002;2.526535e-001
6.711347e+002;2.486882e-001
6.730632e+002;2.427192e-001
6.749918e+002;2.342509e-001
6.769203e+002;2.234982e-001
6.788489e+002;2.159816e-001
6.807775e+002;2.098632e-001
6.827060e+002;2.054328e-001
6.846345e+002;2.023989e-001
6.865631e+002;1.997319e-001
6.884916e+002;1.977936e-001
6.904202e+002;1.965466e-001
6.923488e+002;1.965635e-001
6.942773e+002;1.963992e-001
6.962058e+002;1.945527e-001
6.981344e+002;1.927364e-001
7.000629e+002;1.931181e-001
7.019915e+002;1.927657e-001
7.039200e+002;1.905425e-001
7.058486e+002;1.897924e-001
7.077771e+002;1.904101e-001
7.097057e+002;1.899332e-001
7.116342e+002;1.888489e-001
7.135627e+002;1.879087e-001
7.154913e+002;1.866374e-001
7.174199e+002;1.858522e-001
7.193484e+002;1.845716e-001
7.212770e+002;1.828742e-001
7.232055e+002;1.812741e-001
7.251340e+002;1.797523e-001
7.270626e+002;1.779861e-001
7.289911e+002;1.755081e-001
7.309197e+002;1.740683e-001
7.328483e+002;1.735411e-001
7.347768e+002;1.719664e-001
7.367053e+002;1.704360e-001
7.386339e+002;1.688236e-001
7.405624e+002;1.673012e-001
7.424910e+002;1.665506e-001
7.444196e+002;1.656478e-001
7.463481e+002;1.643201e-001
7.482766e+002;1.633768e-001
7.502052e+002;1.621758e-001
7.521337e+002;1.606622e-001
7.540623e+002;1.595338e-001
7.559908e+002;1.585327e-001
7.579194e+002;1.570498e-001
7.598479e+002;1.563023e-001
7.617765e+002;1.551662e-001
7.637050e+002;1.535186e-001
7.656335e+002;1.527232e-001
7.675621e+002;1.520454e-001
7.694907e+002;1.508933e-001
7.714192e+002;1.495282e-001
7.733478e+002;1.484467e-001
7.752763e+002;1.468305e-001
7.772048e+002;1.457126e-001
7.791334e+002;1.452021e-001
7.810620e+002;1.444762e-001
7.829905e+002;1.436411e-001
7.849191e+002;1.425376e-001
7.868476e+002;1.414112e-001
7.887761e+002;1.405358e-001
7.907047e+002;1.392614e-001
7.926332e+002;1.380241e-001
7.945618e+002;1.373567e-001
7.964903e+002;1.372947e-001
7.984189e+002;1.368757e-001
8.003474e+002;1.359425e-001
8.022759e+002;1.354871e-001
8.042045e+002;1.354524e-001
8.061331e+002;1.351304e-001
8.080616e+002;1.346302e-001
8.099902e+002;1.340909e-001
8.119187e+002;1.334317e-001
8.138472e+002;1.332494e-001
8.157758e+002;1.329941e-001
8.177043e+002;1.330062e-001
8.196329e+002;1.329709e-001
8.215615e+002;1.327863e-001
8.234900e+002;1.326303e-001
8.254185e+002;1.327660e-001
8.273471e+002;1.330989e-001
8.292756e+002;1.334310e-001
8.312042e+002;1.325500e-001
8.331328e+002;1.317295e-001
8.350613e+002;1.317851e-001
8.369898e+002;1.313473e-001
8.389184e+002;1.305218e-001
8.408469e+002;1.297994e-001
8.427755e+002;1.293803e-001
8.447040e+002;1.292083e-001
8.466326e+002;1.291298e-001
8.485611e+002;1.284283e-001
8.504897e+002;1.280910e-001
8.524182e+002;1.287185e-001
8.543467e+002;1.293563e-001
8.562753e+002;1.295054e-001
8.582039e+002;1.295775e-001
8.601324e+002;1.302702e-001
8.620610e+002;1.317182e-001
8.639895e+002;1.331251e-001
8.659180e+002;1.339828e-001
8.678466e+002;1.351627e-001
8.697751e+002;1.379767e-001
8.717037e+002;1.418795e-001
8.736323e+002;1.448467e-001
8.755608e+002;1.477682e-001
8.774893e+002;1.517482e-001
8.794179e+002;1.565906e-001
8.813464e+002;1.625500e-001
8.832750e+002;1.682303e-001
8.852036e+002;1.735798e-001
8.871321e+002;1.794665e-001
8.890606e+002;1.849886e-001
8.909892e+002;1.900484e-001
8.929177e+002;1.935250e-001
8.948463e+002;1.951548e-001
8.967748e+002;1.949011e-001
8.987034e+002;1.924482e-001
9.006319e+002;1.886632e-001
9.025605e+002;1.844843e-001
9.044890e+002;1.807402e-001
9.064175e+002;1.770798e-001
9.083461e+002;1.727235e-001
9.102747e+002;1.687165e-001
9.122032e+002;1.659589e-001
9.141318e+002;1.643431e-001
9.160603e+002;1.639999e-001
9.179888e+002;1.640583e-001
9.199174e+002;1.643362e-001
9.218459e+002;1.658775e-001
9.237745e+002;1.677190e-001
9.257031e+002;1.690296e-001
9.276316e+002;1.706125e-001
9.295601e+002;1.729163e-001
9.314887e+002;1.753232e-001
9.334172e+002;1.776165e-001
9.353458e+002;1.796424e-001
9.372744e+002;1.817059e-001
9.392029e+002;1.839457e-001
9.411314e+002;1.869047e-001
9.430600e+002;1.905485e-001
9.449885e+002;1.947168e-001
9.469171e+002;1.994425e-001
9.488456e+002;2.047059e-001
9.507742e+002;2.102235e-001
9.527027e+002;2.163992e-001
9.546313e+002;2.230792e-001
9.565598e+002;2.299980e-001
9.584883e+002;2.370249e-001
9.604169e+002;2.439732e-001
9.623455e+002;2.508098e-001
9.642740e+002;2.577627e-001
9.662026e+002;2.651993e-001
9.681311e+002;2.734255e-001
9.700596e+002;2.823720e-001
9.719882e+002;2.922757e-001
9.739167e+002;3.038909e-001
9.758453e+002;3.171990e-001
9.777739e+002;3.325287e-001
9.797024e+002;3.507987e-001
9.816309e+002;3.712061e-001
9.835595e+002;3.922116e-001
9.854880e+002;4.135394e-001
9.874166e+002;4.336599e-001
9.893452e+002;4.507636e-001
9.912737e+002;4.646977e-001
9.932022e+002;4.743102e-001
9.951307e+002;4.794771e-001
9.970593e+002;4.826751e-001
9.989879e+002;4.844953e-001
1.000916e+003;4.850470e-001
1.002845e+003;4.869118e-001
1.004773e+003;4.915344e-001
1.006702e+003;4.991529e-001
1.008631e+003;5.082656e-001
1.010559e+003;5.187576e-001
1.012488e+003;5.302479e-001
1.014416e+003;5.410871e-001
1.016345e+003;5.488997e-001
1.018273e+003;5.529369e-001
1.020202e+003;5.542619e-001
1.022130e+003;5.524315e-001
1.024059e+003;5.483904e-001
1.025988e+003;5.433188e-001
1.027916e+003;5.362306e-001
1.029845e+003;5.284256e-001
1.031773e+003;5.210384e-001
1.033702e+003;5.136778e-001
1.035630e+003;5.072026e-001
1.037559e+003;5.021081e-001
1.039487e+003;4.978409e-001
1.041416e+003;4.942389e-001
1.043344e+003;4.909512e-001
1.045273e+003;4.873547e-001
1.047202e+003;4.828302e-001
1.049130e+003;4.793452e-001
1.051059e+003;4.764838e-001
1.052987e+003;4.723921e-001
1.054916e+003;4.672047e-001
1.056844e+003;4.619689e-001
1.058773e+003;4.556291e-001
1.060701e+003;4.481441e-001
1.062630e+003;4.394268e-001
1.064558e+003;4.299485e-001
1.066487e+003;4.194544e-001
1.068416e+003;4.090926e-001
1.070344e+003;3.994020e-001
1.072273e+003;3.897718e-001
1.074201e+003;3.808406e-001
1.076130e+003;3.719843e-001
1.078058e+003;3.625533e-001
1.079987e+003;3.536476e-001
1.081915e+003;3.458302e-001
1.083844e+003;3.395155e-001
1.085773e+003;3.334319e-001
1.087701e+003;3.271735e-001
1.089630e+003;3.214429e-001
1.091558e+003;3.155238e-001
1.093487e+003;3.095520e-001
1.095415e+003;3.034161e-001
1.097344e+003;2.975675e-001
1.099272e+003;2.912605e-001
1.101201e+003;2.842326e-001
1.103129e+003;2.776872e-001
1.105058e+003;2.723009e-001
1.106987e+003;2.672642e-001
1.108915e+003;2.621701e-001
1.110844e+003;2.577634e-001
1.112772e+003;2.530279e-001
1.114701e+003;2.477688e-001
1.116629e+003;2.417189e-001
1.118558e+003;2.349588e-001
1.120486e+003;2.280900e-001
1.122415e+003;2.212262e-001
1.124344e+003;2.141619e-001
1.126272e+003;2.072511e-001
1.128201e+003;2.010114e-001
1.130129e+003;1.951623e-001
1.132058e+003;1.898942e-001
1.133986e+003;1.850792e-001
1.135915e+003;1.804552e-001
1.137843e+003;1.768952e-001
1.139772e+003;1.746963e-001
1.141700e+003;1.735832e-001
1.143629e+003;1.734278e-001
1.145557e+003;1.743076e-001
1.147486e+003;1.758792e-001
1.149415e+003;1.778748e-001
1.151343e+003;1.800954e-001
1.153272e+003;1.815373e-001
1.155200e+003;1.815939e-001
1.157129e+003;1.804437e-001
1.159057e+003;1.775015e-001
1.160986e+003;1.732511e-001
1.162914e+003;1.669391e-001
1.164843e+003;1.590026e-001
1.166771e+003;1.506938e-001
1.168700e+003;1.428053e-001
1.170629e+003;1.359759e-001
1.172557e+003;1.297768e-001
1.174486e+003;1.240631e-001
1.176414e+003;1.188868e-001
1.178343e+003;1.145481e-001
1.180271e+003;1.115086e-001
1.182200e+003;1.095557e-001
1.184128e+003;1.083306e-001
1.186057e+003;1.080930e-001
1.187986e+003;1.090589e-001
1.189914e+003;1.115565e-001
1.191843e+003;1.147312e-001
1.193771e+003;1.175408e-001
1.195700e+003;1.202146e-001
1.197628e+003;1.222352e-001
1.199557e+003;1.226881e-001
1.201485e+003;1.217119e-001
1.203414e+003;1.199223e-001
1.205343e+003;1.181275e-001
1.207271e+003;1.160050e-001
1.209200e+003;1.135485e-001
1.211128e+003;1.120616e-001
1.213057e+003;1.118005e-001
1.214985e+003;1.126301e-001
1.216914e+003;1.140894e-001
1.218842e+003;1.158553e-001
1.220771e+003;1.178251e-001
1.222699e+003;1.202637e-001
1.224628e+003;1.227033e-001
1.226557e+003;1.240852e-001
1.228485e+003;1.250133e-001
1.230414e+003;1.261244e-001
1.232342e+003;1.270592e-001
1.234271e+003;1.275474e-001
1.236199e+003;1.277108e-001
1.238128e+003;1.275942e-001
1.240056e+003;1.274034e-001
1.241985e+003;1.273095e-001
1.243913e+003;1.273714e-001
1.245842e+003;1.278080e-001
1.247771e+003;1.281596e-001
1.249699e+003;1.287110e-001
1.251628e+003;1.299080e-001
1.253556e+003;1.311214e-001
1.255485e+003;1.321744e-001
1.257413e+003;1.329619e-001
1.259342e+003;1.331591e-001
1.261270e+003;1.330902e-001
1.263199e+003;1.330812e-001
1.265127e+003;1.326127e-001
1.267056e+003;1.316083e-001
1.268985e+003;1.301546e-001
1.270913e+003;1.288818e-001
1.272842e+003;1.280226e-001
1.274770e+003;1.269979e-001
1.276699e+003;1.260370e-001
1.278627e+003;1.254547e-001
1.280556e+003;1.247057e-001
1.282484e+003;1.241751e-001
1.284413e+003;1.240601e-001
1.286342e+003;1.243863e-001
1.288270e+003;1.257272e-001
1.290199e+003;1.274913e-001
1.292127e+003;1.292094e-001
1.294056e+003;1.307662e-001
1.295984e+003;1.325776e-001
1.297913e+003;1.344622e-001
1.299841e+003;1.362547e-001
1.301770e+003;1.382571e-001
1.303698e+003;1.400519e-001
1.305627e+003;1.417777e-001
1.307556e+003;1.438756e-001
1.309484e+003;1.459456e-001
1.311413e+003;1.476204e-001
1.313341e+003;1.486966e-001
1.315270e+003;1.490200e-001
1.317198e+003;1.484656e-001
1.319127e+003;1.474748e-001
1.321055e+003;1.467426e-001
1.322984e+003;1.461930e-001
1.324912e+003;1.459981e-001
1.326841e+003;1.460331e-001
1.328770e+003;1.460944e-001
1.330698e+003;1.461760e-001
1.332627e+003;1.462976e-001
1.334555e+003;1.462894e-001
1.336484e+003;1.462105e-001
1.338412e+003;1.456712e-001
1.340341e+003;1.449067e-001
1.342269e+003;1.444672e-001
1.344198e+003;1.443811e-001
1.346126e+003;1.443629e-001
1.348055e+003;1.441006e-001
1.349984e+003;1.442748e-001
1.351912e+003;1.450188e-001
1.353841e+003;1.460637e-001
1.355769e+003;1.470797e-001
1.357698e+003;1.478532e-001
1.359626e+003;1.486913e-001
1.361555e+003;1.495957e-001
1.363483e+003;1.502126e-001
1.365412e+003;1.501116e-001
1.367341e+003;1.495139e-001
1.369269e+003;1.487329e-001
1.371198e+003;1.475632e-001
1.373126e+003;1.457668e-001
1.375055e+003;1.439163e-001
1.376983e+003;1.420969e-001
1.378912e+003;1.399061e-001
1.380840e+003;1.374111e-001
1.382769e+003;1.349673e-001
1.384698e+003;1.326612e-001
1.386626e+003;1.305502e-001
1.388555e+003;1.290871e-001
1.390483e+003;1.282223e-001
1.392412e+003;1.275054e-001
1.394340e+003;1.266773e-001
1.396269e+003;1.263772e-001
1.398197e+003;1.263940e-001
1.400126e+003;1.264873e-001
1.402054e+003;1.266947e-001
1.403983e+003;1.265265e-001
1.405911e+003;1.265207e-001
1.407840e+003;1.267169e-001
1.409769e+003;1.266490e-001
1.411697e+003;1.267023e-001
1.413626e+003;1.267492e-001
1.415554e+003;1.264262e-001
1.417483e+003;1.257762e-001
1.419411e+003;1.255352e-001
1.421340e+003;1.261187e-001
1.423268e+003;1.262208e-001
1.425197e+003;1.260118e-001
1.427125e+003;1.254160e-001
1.429054e+003;1.244975e-001
1.430983e+003;1.240991e-001
1.432911e+003;1.236372e-001
1.434840e+003;1.222627e-001
1.436768e+003;1.209951e-001
1.438697e+003;1.209278e-001
1.440625e+003;1.202922e-001
1.442554e+003;1.192352e-001
1.444482e+003;1.179620e-001
1.446411e+003;1.166061e-001
1.448340e+003;1.154167e-001
1.450268e+003;1.142790e-001
1.452197e+003;1.127854e-001
1.454125e+003;1.106252e-001
1.456054e+003;1.076550e-001
1.457982e+003;1.066615e-001
1.459911e+003;1.072075e-001
1.461839e+003;1.063836e-001
1.463768e+003;1.043632e-001
1.465697e+003;1.027568e-001
1.467625e+003;1.016740e-001
1.469554e+003;9.978515e-002
1.471482e+003;9.678648e-002
1.473411e+003;9.482085e-002
1.475339e+003;9.381710e-002
1.477268e+003;9.233687e-002
1.479196e+003;9.058303e-002
1.481125e+003;8.868314e-002
1.483053e+003;8.692676e-002
1.484982e+003;8.507761e-002
1.486911e+003;8.309217e-002
1.488839e+003;8.139463e-002
1.490768e+003;8.039273e-002
1.492696e+003;7.982146e-002
1.494625e+003;7.840250e-002
1.496553e+003;7.674845e-002
1.498482e+003;7.645980e-002
1.500410e+003;7.670896e-002
1.502339e+003;7.637387e-002
1.504267e+003;7.421168e-002
1.506196e+003;7.196180e-002
1.508125e+003;7.247587e-002
1.510053e+003;7.357641e-002
1.511982e+003;7.345514e-002
1.513910e+003;7.313651e-002
1.515839e+003;7.244134e-002
1.517767e+003;7.185556e-002
1.519696e+003;7.069706e-002
1.521624e+003;7.008088e-002
1.523553e+003;7.112790e-002
1.525481e+003;7.152306e-002
1.527410e+003;7.179075e-002
1.529339e+003;7.228411e-002
1.531267e+003;7.194310e-002
1.533196e+003;7.114815e-002
1.535124e+003;7.168733e-002
1.537053e+003;7.107712e-002
1.538981e+003;6.873328e-002
1.540910e+003;6.856397e-002
1.542838e+003;7.016254e-002
1.544767e+003;7.114667e-002
1.546695e+003;7.170046e-002
1.548624e+003;7.181937e-002
1.550553e+003;7.185654e-002
1.552481e+003;7.176999e-002
1.554410e+003;7.158538e-002
1.556338e+003;7.086858e-002
1.558267e+003;6.893560e-002
1.560195e+003;6.985927e-002
1.562124e+003;7.272212e-002
1.564052e+003;7.381241e-002
1.565981e+003;7.386158e-002
1.567910e+003;7.344074e-002
1.569838e+003;7.336972e-002
1.571767e+003;7.438990e-002
1.573695e+003;7.422084e-002
1.575624e+003;7.305660e-002
1.577552e+003;7.425161e-002
1.579481e+003;7.593405e-002
1.581409e+003;7.633523e-002
1.583338e+003;7.686566e-002
1.585266e+003;7.738450e-002
1.587195e+003;7.781157e-002
1.589124e+003;7.826107e-002
1.591052e+003;7.876208e-002
1.592981e+003;7.934365e-002
1.594909e+003;7.986239e-002
1.596838e+003;8.015647e-002
1.598766e+003;8.048356e-002
1.600695e+003;8.095484e-002
1.602623e+003;8.154707e-002
1.604552e+003;8.214363e-002
1.606480e+003;8.266345e-002
1.608409e+003;8.307616e-002
1.610338e+003;8.353155e-002
1.612266e+003;8.397343e-002
1.614195e+003;8.381329e-002
1.616123e+003;8.298430e-002
1.618052e+003;8.388845e-002
1.619980e+003;8.515000e-002
1.621909e+003;8.521294e-002
1.623837e+003;8.560548e-002
1.625766e+003;8.649121e-002
1.627694e+003;8.689418e-002
1.629623e+003;8.719406e-002
1.631552e+003;8.725000e-002
1.633480e+003;8.634037e-002
1.635409e+003;8.551264e-002
1.637337e+003;8.669930e-002
1.639266e+003;8.778931e-002
1.641194e+003;8.801568e-002
1.643123e+003;8.759947e-002
1.645051e+003;8.603723e-002
1.646980e+003;8.538186e-002
1.648909e+003;8.572268e-002
1.650837e+003;8.371762e-002
1.652766e+003;8.095085e-002
1.654694e+003;8.236079e-002
1.656623e+003;8.406140e-002
1.658551e+003;8.375490e-002
1.660480e+003;8.265055e-002
1.662408e+003;8.155215e-002
1.664337e+003;8.133776e-002
1.666266e+003;8.081868e-002
1.668194e+003;7.934603e-002
1.670123e+003;7.829892e-002
1.672051e+003;7.796241e-002
1.673980e+003;7.679001e-002
1.675908e+003;7.589352e-002
1.677837e+003;7.589179e-002
1.679765e+003;7.527580e-002
1.681694e+003;7.380475e-002
1.683622e+003;7.127538e-002
1.685551e+003;7.122357e-002
1.687479e+003;7.249795e-002
1.689408e+003;7.204835e-002
1.691337e+003;7.152252e-002
1.693265e+003;7.065175e-002
1.695194e+003;6.863505e-002
1.697122e+003;6.822994e-002
1.699051e+003;6.730195e-002
1.700979e+003;6.663880e-002
1.702908e+003;6.779364e-002
1.704836e+003;6.766399e-002
1.706765e+003;6.732597e-002
1.708693e+003;6.720497e-002
1.710622e+003;6.686816e-002
1.712551e+003;6.641130e-002
1.714479e+003;6.547905e-002
1.716408e+003;6.402928e-002
1.718336e+003;6.402832e-002
1.720265e+003;6.533614e-002
1.722193e+003;6.566370e-002
1.724122e+003;6.532940e-002
1.726050e+003;6.485103e-002
1.727979e+003;6.422453e-002
1.729908e+003;6.357247e-002
1.731836e+003;6.219751e-002
1.733765e+003;6.089341e-002
1.735693e+003;6.158051e-002
1.737622e+003;6.152531e-002
1.739550e+003;6.040275e-002
1.741479e+003;6.069400e-002
1.743407e+003;6.095299e-002
1.745336e+003;6.051331e-002
1.747265e+003;6.013477e-002
1.749193e+003;6.011806e-002
1.751122e+003;6.029097e-002
1.753050e+003;6.112997e-002
1.754979e+003;6.152840e-002
1.756907e+003;6.172467e-002
1.758836e+003;6.192257e-002
1.760764e+003;6.165322e-002
1.762693e+003;6.173831e-002
1.764621e+003;6.208782e-002
1.766550e+003;6.185979e-002
1.768479e+003;6.166548e-002
1.770407e+003;6.152267e-002
1.772336e+003;6.131874e-002
1.774264e+003;6.198462e-002
1.776193e+003;6.251678e-002
1.778121e+003;6.246134e-002
1.780050e+003;6.231900e-002
1.781978e+003;6.237599e-002
1.783907e+003;6.234688e-002
1.785835e+003;6.239240e-002
1.787764e+003;6.238250e-002
1.789693e+003;6.190182e-002
1.791621e+003;6.130707e-002
1.793550e+003;6.129158e-002
1.795478e+003;6.165543e-002
1.797407e+003;6.162343e-002
1.799335e+003;6.141079e-002
1.801264e+003;6.123419e-002
1.803192e+003;6.148995e-002
1.805121e+003;6.187981e-002
1.807049e+003;6.177968e-002
1.808978e+003;6.129535e-002
1.810907e+003;6.110499e-002
1.812835e+003;6.107559e-002
1.814764e+003;6.112501e-002
1.816692e+003;6.128886e-002
1.818621e+003;6.153912e-002
1.820549e+003;6.134919e-002
1.822478e+003;6.087869e-002
1.824406e+003;6.047728e-002
1.826335e+003;6.049998e-002
1.828264e+003;6.039537e-002
1.830192e+003;6.019890e-002
1.832121e+003;6.049472e-002
1.834049e+003;6.072951e-002
1.835978e+003;6.065262e-002
1.837906e+003;6.058991e-002
1.839835e+003;6.034427e-002
1.841763e+003;5.984367e-002
1.843692e+003;5.939128e-002
1.845620e+003;5.967481e-002
1.847549e+003;6.011753e-002
1.849478e+003;6.021754e-002
1.851406e+003;6.010977e-002
1.853335e+003;5.975830e-002
1.855263e+003;5.974598e-002
1.857192e+003;5.991981e-002
1.859120e+003;5.981876e-002
1.861049e+003;5.959553e-002
1.862977e+003;5.960028e-002
1.864906e+003;5.969607e-002
1.866834e+003;5.931808e-002
1.868763e+003;5.897215e-002
1.870692e+003;5.929594e-002
1.872620e+003;5.974229e-002
1.874549e+003;5.984683e-002
1.876477e+003;5.956896e-002
1.878406e+003;5.935808e-002
1.880334e+003;5.957238e-002
1.882263e+003;5.964113e-002
1.884191e+003;5.959701e-002
1.886120e+003;5.948140e-002
1.888048e+003;5.931797e-002
1.889977e+003;5.954357e-002
1.891906e+003;5.985531e-002
1.893834e+003;5.967177e-002
1.895763e+003;5.945161e-002
1.897691e+003;5.952578e-002
1.899620e+003;5.976960e-002
1.901548e+003;5.969873e-002
1.903477e+003;5.969542e-002
1.905405e+003;5.988421e-002
1.907334e+003;6.013142e-002
1.909262e+003;6.020175e-002
1.911191e+003;6.013241e-002
1.913120e+003;6.014660e-002
1.915048e+003;6.033098e-002
1.916977e+003;6.020951e-002
1.918905e+003;6.020910e-002
1.920834e+003;6.056892e-002
1.922762e+003;6.073954e-002
1.924691e+003;6.083310e-002
1.926619e+003;6.092249e-002
1.928548e+003;6.090728e-002
1.930477e+003;6.095959e-002
1.932405e+003;6.121759e-002
1.934334e+003;6.140614e-002
1.936262e+003;6.123415e-002
1.938191e+003;6.113165e-002
1.940119e+003;6.120218e-002
1.942048e+003;6.121641e-002
1.943976e+003;6.139885e-002
1.945905e+003;6.153367e-002
1.947833e+003;6.141251e-002
1.949762e+003;6.151881e-002
1.951691e+003;6.189662e-002
1.953619e+003;6.208649e-002
1.955548e+003;6.197671e-002
1.957476e+003;6.182892e-002
1.959405e+003;6.192337e-002
1.961333e+003;6.215981e-002
1.963262e+003;6.229173e-002
1.965190e+003;6.225690e-002
1.967119e+003;6.223865e-002
1.969047e+003;6.237771e-002
1.970976e+003;6.251024e-002
1.972905e+003;6.254583e-002
1.974833e+003;6.254540e-002
1.976762e+003;6.269027e-002
1.978690e+003;6.263461e-002
1.980619e+003;6.264269e-002
1.982547e+003;6.275389e-002
1.984476e+003;6.288458e-002
1.986404e+003;6.291392e-002
1.988333e+003;6.286551e-002
1.990261e+003;6.291503e-002
1.992190e+003;6.288737e-002
1.994119e+003;6.293081e-002
1.996047e+003;6.301001e-002
1.997976e+003;6.316688e-002
1.999904e+003;6.343475e-002
2.001833e+003;6.354757e-002
2.003761e+003;6.346876e-002
2.005690e+003;6.350666e-002
2.007618e+003;6.358907e-002
2.009547e+003;6.374649e-002
2.011476e+003;6.393509e-002
2.013404e+003;6.403411e-002
2.015333e+003;6.398761e-002
2.017261e+003;6.406660e-002
2.019190e+003;6.418293e-002
2.021118e+003;6.422050e-002
2.023047e+003;6.427697e-002
2.024975e+003;6.446134e-002
2.026904e+003;6.457087e-002
2.028833e+003;6.455307e-002
2.030761e+003;6.469329e-002
2.032690e+003;6.478941e-002
2.034618e+003;6.468156e-002
2.036547e+003;6.460785e-002
2.038475e+003;6.472021e-002
2.040404e+003;6.481202e-002
2.042332e+003;6.474452e-002
2.044261e+003;6.465464e-002
2.046189e+003;6.482060e-002
2.048118e+003;6.494068e-002
2.050047e+003;6.487203e-002
2.051975e+003;6.499932e-002
2.053904e+003;6.485438e-002
2.055832e+003;6.457190e-002
2.057761e+003;6.472498e-002
2.059689e+003;6.501637e-002
2.061618e+003;6.520472e-002
2.063546e+003;6.485149e-002
2.065475e+003;6.448717e-002
2.067404e+003;6.468026e-002
2.069332e+003;6.494699e-002
2.071260e+003;6.505851e-002
2.073189e+003;6.496780e-002
2.075118e+003;6.473583e-002
2.077046e+003;6.466818e-002
2.078975e+003;6.482457e-002
2.080903e+003;6.489947e-002
2.082832e+003;6.495991e-002
2.084760e+003;6.503577e-002
2.086689e+003;6.527229e-002
2.088617e+003;6.543263e-002
2.090546e+003;6.510758e-002
2.092475e+003;6.483430e-002
2.094403e+003;6.502175e-002
2.096332e+003;6.533372e-002
2.098260e+003;6.534334e-002
2.100189e+003;6.489839e-002
2.102117e+003;6.466372e-002
2.104046e+003;6.501848e-002
2.105974e+003;6.547184e-002
2.107903e+003;6.573598e-002
2.109832e+003;6.552856e-002
2.111760e+003;6.540012e-002
2.113688e+003;6.556551e-002
2.115617e+003;6.545097e-002
2.117546e+003;6.534126e-002
2.119474e+003;6.525604e-002
2.121403e+003;6.522524e-002
2.123331e+003;6.537331e-002
2.125260e+003;6.533726e-002
2.127188e+003;6.539195e-002
2.129117e+003;6.548506e-002
2.131045e+003;6.547639e-002
2.132974e+003;6.552767e-002
2.134903e+003;6.550421e-002
2.136831e+003;6.545863e-002
2.138760e+003;6.556539e-002
2.140688e+003;6.565041e-002
2.142617e+003;6.560979e-002
2.144545e+003;6.557179e-002
2.146474e+003;6.544534e-002
2.148402e+003;6.541529e-002
2.150331e+003;6.560501e-002
2.152260e+003;6.565808e-002
2.154188e+003;6.553823e-002
2.156117e+003;6.548537e-002
2.158045e+003;6.541907e-002
2.159974e+003;6.542145e-002
2.161902e+003;6.527191e-002
2.163831e+003;6.512845e-002
2.165759e+003;6.501079e-002
2.167688e+003;6.480967e-002
2.169616e+003;6.473183e-002
2.171545e+003;6.475887e-002
2.173474e+003;6.480071e-002
2.175402e+003;6.463850e-002
2.177331e+003;6.458286e-002
2.179259e+003;6.450701e-002
2.181188e+003;6.437145e-002
2.183116e+003;6.416196e-002
2.185045e+003;6.389034e-002
2.186973e+003;6.392577e-002
2.188902e+003;6.408879e-002
2.190831e+003;6.418681e-002
2.192759e+003;6.412321e-002
2.194688e+003;6.384965e-002
2.196616e+003;6.359959e-002
2.198545e+003;6.372067e-002
2.200473e+003;6.375474e-002
2.202402e+003;6.362256e-002
2.204330e+003;6.353097e-002
2.206259e+003;6.341113e-002
2.208188e+003;6.337520e-002
2.210116e+003;6.353860e-002
2.212044e+003;6.370118e-002
2.213973e+003;6.376483e-002
2.215902e+003;6.375666e-002
2.217830e+003;6.368095e-002
2.219759e+003;6.341519e-002
2.221687e+003;6.318481e-002
2.223616e+003;6.325786e-002
2.225544e+003;6.343222e-002
2.227473e+003;6.330083e-002
2.229401e+003;6.304672e-002
2.231330e+003;6.292238e-002
2.233259e+003;6.312951e-002
2.235187e+003;6.331474e-002
2.237116e+003;6.315339e-002
2.239044e+003;6.296547e-002
2.240973e+003;6.298405e-002
2.242901e+003;6.285080e-002
2.244830e+003;6.274662e-002
2.246758e+003;6.267618e-002
2.248687e+003;6.249428e-002
2.250615e+003;6.244076e-002
2.252544e+003;6.243307e-002
2.254473e+003;6.249344e-002
2.256401e+003;6.263836e-002
2.258330e+003;6.274448e-002
2.260258e+003;6.263469e-002
2.262187e+003;6.242875e-002
2.264115e+003;6.221246e-002
2.266044e+003;6.200137e-002
2.267972e+003;6.202017e-002
2.269901e+003;6.215721e-002
2.271830e+003;6.206997e-002
2.273758e+003;6.192084e-002
2.275687e+003;6.182456e-002
2.277615e+003;6.182002e-002
2.279544e+003;6.170294e-002
2.281472e+003;6.168969e-002
2.283401e+003;6.169469e-002
2.285329e+003;6.180049e-002
2.287258e+003;6.192772e-002
2.289187e+003;6.180432e-002
2.291115e+003;6.159449e-002
2.293043e+003;6.171409e-002
2.294972e+003;6.198596e-002
2.296901e+003;6.187572e-002
2.298829e+003;6.172402e-002
2.300758e+003;6.180775e-002
2.302686e+003;6.175538e-002
2.304615e+003;6.166861e-002
2.306543e+003;6.164027e-002
2.308472e+003;6.157906e-002
2.310400e+003;6.168648e-002
2.312329e+003;6.185417e-002
2.314258e+003;6.201424e-002
2.316186e+003;6.181528e-002
2.318115e+003;6.167304e-002
2.320043e+003;6.162488e-002
2.321972e+003;6.164638e-002
2.323900e+003;6.201413e-002
2.325829e+003;6.208553e-002
2.327757e+003;6.199322e-002
2.329686e+003;6.206351e-002
2.331615e+003;6.208457e-002
2.333543e+003;6.199877e-002
2.335472e+003;6.191168e-002
2.337400e+003;6.205109e-002
2.339329e+003;6.236750e-002
2.341257e+003;6.250282e-002
2.343186e+003;6.257197e-002
2.345114e+003;6.270971e-002
2.347043e+003;6.295325e-002
2.348971e+003;6.304791e-002
2.350900e+003;6.292169e-002
2.352829e+003;6.277587e-002
2.354757e+003;6.279229e-002
2.356686e+003;6.312101e-002
2.358614e+003;6.352353e-002
2.360543e+003;6.367934e-002
2.362471e+003;6.388642e-002
2.364400e+003;6.392177e-002
2.366328e+003;6.376802e-002
2.368257e+003;6.375950e-002
2.370186e+003;6.369254e-002
2.372114e+003;6.356959e-002
2.374042e+003;6.346033e-002
2.375971e+003;6.348123e-002
2.377900e+003;6.360162e-002
2.379828e+003;6.384071e-002
2.381757e+003;6.414502e-002
2.383685e+003;6.432031e-002
2.385614e+003;6.439659e-002
2.387542e+003;6.436953e-002
2.389471e+003;6.434590e-002
2.391399e+003;6.432708e-002
2.393328e+003;6.450886e-002
2.395257e+003;6.480929e-002
2.397185e+003;6.477721e-002
2.399114e+003;6.458063e-002
2.401042e+003;6.455737e-002
2.402971e+003;6.471283e-002
2.404899e+003;6.499289e-002
2.406828e+003;6.522069e-002
2.408756e+003;6.524037e-002
2.410685e+003;6.534196e-002
2.412614e+003;6.543513e-002
2.414542e+003;6.549415e-002
2.416471e+003;6.569007e-002
2.418399e+003;6.605867e-002
2.420328e+003;6.620733e-002
2.422256e+003;6.618503e-002
2.424185e+003;6.642558e-002
2.426113e+003;6.676896e-002
2.428042e+003;6.669625e-002
2.429970e+003;6.649412e-002
2.431899e+003;6.654915e-002
2.433828e+003;6.663165e-002
2.435756e+003;6.677793e-002
2.437685e+003;6.707897e-002
2.439613e+003;6.724257e-002
2.441542e+003;6.719240e-002
2.443470e+003;6.725847e-002
2.445399e+003;6.755868e-002
2.447327e+003;6.780545e-002
2.449256e+003;6.800428e-002
2.451185e+003;6.819579e-002
2.453113e+003;6.822602e-002
2.455042e+003;6.828512e-002
2.456970e+003;6.824103e-002
2.458899e+003;6.830334e-002
2.460827e+003;6.834356e-002
2.462756e+003;6.839149e-002
2.464684e+003;6.872063e-002
2.466613e+003;6.907123e-002
2.468542e+003;6.920900e-002
2.470470e+003;6.926329e-002
2.472398e+003;6.944358e-002
2.474327e+003;6.962642e-002
2.476256e+003;6.981643e-002
2.478184e+003;6.999800e-002
2.480113e+003;7.002022e-002
2.482041e+003;6.993376e-002
2.483970e+003;6.999068e-002
2.485898e+003;7.024546e-002
2.487827e+003;7.047588e-002
2.489755e+003;7.051738e-002
2.491684e+003;7.037347e-002
2.493613e+003;7.010697e-002
2.495541e+003;7.012886e-002
2.497470e+003;7.037168e-002
2.499398e+003;7.058053e-002
2.501327e+003;7.066045e-002
2.503255e+003;7.071012e-002
2.505184e+003;7.103857e-002
2.507112e+003;7.122739e-002
2.509041e+003;7.118137e-002
2.510969e+003;7.119757e-002
2.512898e+003;7.130673e-002
2.514827e+003;7.141197e-002
2.516755e+003;7.142197e-002
2.518684e+003;7.136574e-002
2.520612e+003;7.171425e-002
2.522541e+003;7.185318e-002
2.524469e+003;7.177664e-002
2.526398e+003;7.169796e-002
2.528326e+003;7.168924e-002
2.530255e+003;7.192962e-002
2.532184e+003;7.191925e-002
2.534112e+003;7.180947e-002
2.536041e+003;7.199328e-002
2.537969e+003;7.205304e-002
2.539898e+003;7.202902e-002
2.541826e+003;7.202151e-002
2.543755e+003;7.190334e-002
2.545683e+003;7.199211e-002
2.547612e+003;7.221050e-002
2.549541e+003;7.239777e-002
2.551469e+003;7.237213e-002
2.553397e+003;7.227616e-002
2.555326e+003;7.254963e-002
2.557255e+003;7.287610e-002
2.559183e+003;7.282905e-002
2.561112e+003;7.256879e-002
2.563040e+003;7.257411e-002
2.564969e+003;7.292086e-002
2.566897e+003;7.308926e-002
2.568826e+003;7.328687e-002
2.570754e+003;7.312015e-002
2.572683e+003;7.295472e-002
2.574612e+003;7.320298e-002
2.576540e+003;7.346608e-002
2.578469e+003;7.356620e-002
2.580397e+003;7.364926e-002
2.582326e+003;7.370804e-002
2.584254e+003;7.362539e-002
2.586183e+003;7.355192e-002
2.588111e+003;7.363560e-002
2.590040e+003;7.375880e-002
2.591969e+003;7.388393e-002
2.593897e+003;7.408693e-002
2.595826e+003;7.433992e-002
2.597754e+003;7.433996e-002
2.599683e+003;7.417335e-002
2.601611e+003;7.411884e-002
2.603540e+003;7.434692e-002
2.605468e+003;7.460407e-002
2.607397e+003;7.472968e-002
2.609325e+003;7.492158e-002
2.611254e+003;7.517064e-002
2.613183e+003;7.507756e-002
2.615111e+003;7.517021e-002
2.617040e+003;7.545576e-002
2.618968e+003;7.564223e-002
2.620897e+003;7.586218e-002
2.622825e+003;7.587627e-002
2.624754e+003;7.582758e-002
2.626682e+003;7.603722e-002
2.628611e+003;7.633042e-002
2.630540e+003;7.637691e-002
2.632468e+003;7.631118e-002
2.634396e+003;7.659642e-002
2.636325e+003;7.693662e-002
2.638254e+003;7.713460e-002
2.640182e+003;7.735199e-002
2.642111e+003;7.738771e-002
2.644039e+003;7.741068e-002
2.645968e+003;7.766561e-002
2.647896e+003;7.785632e-002
2.649825e+003;7.785469e-002
2.651753e+003;7.783563e-002
2.653682e+003;7.794690e-002
2.655611e+003;7.815748e-002
2.657539e+003;7.837444e-002
2.659468e+003;7.847105e-002
2.661396e+003;7.868542e-002
2.663325e+003;7.907493e-002
2.665253e+003;7.926820e-002
2.667182e+003;7.924636e-002
2.669110e+003;7.929150e-002
2.671039e+003;7.955141e-002
2.672968e+003;7.989576e-002
2.674896e+003;8.005450e-002
2.676825e+003;8.008929e-002
2.678753e+003;8.031379e-002
2.680682e+003;8.049665e-002
2.682610e+003;8.054067e-002
2.684539e+003;8.068744e-002
2.686467e+003;8.097241e-002
2.688396e+003;8.104105e-002
2.690324e+003;8.096375e-002
2.692253e+003;8.133013e-002
2.694182e+003;8.148755e-002
2.696110e+003;8.154983e-002
2.698039e+003;8.184701e-002
2.699967e+003;8.206290e-002
2.701896e+003;8.227428e-002
2.703824e+003;8.241394e-002
2.705753e+003;8.252007e-002
2.707681e+003;8.263340e-002
2.709610e+003;8.277289e-002
2.711539e+003;8.282946e-002
2.713467e+003;8.303601e-002
2.715396e+003;8.314441e-002
2.717324e+003;8.322411e-002
2.719253e+003;8.334544e-002
2.721181e+003;8.351646e-002
2.723110e+003;8.357573e-002
2.725038e+003;8.371107e-002
2.726967e+003;8.398537e-002
2.728896e+003;8.404447e-002
2.730824e+003;8.416709e-002
2.732752e+003;8.427457e-002
2.734681e+003;8.437761e-002
2.736610e+003;8.451271e-002
2.738538e+003;8.474555e-002
2.740467e+003;8.492304e-002
2.742395e+003;8.481716e-002
2.744324e+003;8.473891e-002
2.746252e+003;8.483098e-002
2.748181e+003;8.509357e-002
2.750109e+003;8.521628e-002
2.752038e+003;8.546095e-002
2.753967e+003;8.577544e-002
2.755895e+003;8.581480e-002
2.757824e+003;8.581177e-002
2.759752e+003;8.599328e-002
2.761681e+003;8.633500e-002
2.763609e+003;8.664072e-002
2.765538e+003;8.691247e-002
2.767466e+003;8.698404e-002
2.769395e+003;8.706643e-002
2.771323e+003;8.738090e-002
2.773252e+003;8.741583e-002
2.775181e+003;8.767058e-002
2.777109e+003;8.831213e-002
2.779038e+003;8.846385e-002
2.780966e+003;8.836369e-002
2.782895e+003;8.850939e-002
2.784823e+003;8.876141e-002
2.786752e+003;8.916324e-002
2.788680e+003;8.973064e-002
2.790609e+003;9.003360e-002
2.792538e+003;9.018756e-002
2.794466e+003;9.057989e-002
2.796395e+003;9.102695e-002
2.798323e+003;9.138774e-002
2.800252e+003;9.177662e-002
2.802180e+003;9.215342e-002
2.804109e+003;9.236421e-002
2.806037e+003;9.231654e-002
2.807966e+003;9.263673e-002
2.809895e+003;9.315617e-002
2.811823e+003;9.359899e-002
2.813751e+003;9.427916e-002
2.815680e+003;9.499858e-002
2.817609e+003;9.566587e-002
2.819537e+003;9.595317e-002
2.821466e+003;9.610845e-002
2.823394e+003;9.622423e-002
2.825323e+003;9.642723e-002
2.827251e+003;9.714338e-002
2.829180e+003;9.796026e-002
2.831108e+003;9.842376e-002
2.833037e+003;9.878946e-002
2.834966e+003;9.957490e-002
2.836894e+003;1.006281e-001
2.838823e+003;1.013830e-001
2.840751e+003;1.020916e-001
2.842680e+003;1.026918e-001
2.844608e+003;1.028807e-001
2.846537e+003;1.029161e-001
2.848465e+003;1.031962e-001
2.850394e+003;1.038046e-001
2.852323e+003;1.046690e-001
2.854251e+003;1.060384e-001
2.856180e+003;1.077366e-001
2.858108e+003;1.093616e-001
2.860037e+003;1.112247e-001
2.861965e+003;1.132111e-001
2.863894e+003;1.148045e-001
2.865822e+003;1.162974e-001
2.867751e+003;1.177124e-001
2.869679e+003;1.189599e-001
2.871608e+003;1.199934e-001
2.873536e+003;1.207005e-001
2.875465e+003;1.214581e-001
2.877394e+003;1.226743e-001
2.879322e+003;1.235509e-001
2.881251e+003;1.238575e-001
2.883179e+003;1.243285e-001
2.885108e+003;1.245064e-001
2.887036e+003;1.246026e-001
2.888965e+003;1.247876e-001
2.890893e+003;1.244568e-001
2.892822e+003;1.244650e-001
2.894750e+003;1.244771e-001
2.896679e+003;1.240292e-001
2.898608e+003;1.232441e-001
2.900536e+003;1.224038e-001
2.902465e+003;1.217850e-001
2.904393e+003;1.211218e-001
2.906322e+003;1.204323e-001
2.908250e+003;1.196633e-001
2.910179e+003;1.186640e-001
2.912107e+003;1.171749e-001
2.914036e+003;1.152922e-001
2.915965e+003;1.134536e-001
2.917893e+003;1.118471e-001
2.919822e+003;1.106683e-001
2.921750e+003;1.099094e-001
2.923679e+003;1.088060e-001
2.925607e+003;1.075017e-001
2.927536e+003;1.065237e-001
2.929464e+003;1.060024e-001
2.931393e+003;1.054399e-001
2.933322e+003;1.051735e-001
2.935250e+003;1.048201e-001
2.937178e+003;1.039999e-001
2.939107e+003;1.032009e-001
2.941036e+003;1.024005e-001
2.942964e+003;1.014928e-001
2.944893e+003;1.008869e-001
2.946821e+003;1.000877e-001
2.948750e+003;9.887712e-002
2.950678e+003;9.785573e-002
2.952607e+003;9.691565e-002
2.954535e+003;9.551834e-002
2.956464e+003;9.383059e-002
2.958393e+003;9.283252e-002
2.960321e+003;9.225069e-002
2.962250e+003;9.145714e-002
2.964178e+003;9.070347e-002
2.966107e+003;9.059168e-002
2.968035e+003;9.046329e-002
2.969964e+003;9.016480e-002
2.971892e+003;8.983996e-002
2.973821e+003;8.965793e-002
2.975750e+003;8.973545e-002
2.977678e+003;8.982626e-002
2.979607e+003;8.938377e-002
2.981535e+003;8.899093e-002
2.983464e+003;8.882532e-002
2.985392e+003;8.844281e-002
2.987321e+003;8.822625e-002
2.989249e+003;8.817027e-002
2.991178e+003;8.773237e-002
2.993106e+003;8.740015e-002
2.995035e+003;8.757762e-002
2.996964e+003;8.807533e-002
2.998892e+003;8.836849e-002
3.000821e+003;8.813065e-002
3.002749e+003;8.782063e-002
3.004678e+003;8.783641e-002
3.006606e+003;8.816828e-002
3.008535e+003;8.851516e-002
3.010463e+003;8.850569e-002
3.012392e+003;8.850476e-002
3.014321e+003;8.898528e-002
3.016249e+003;8.963634e-002
3.018177e+003;8.993454e-002
3.020106e+003;9.034215e-002
3.022035e+003;9.062994e-002
3.023963e+003;9.069787e-002
3.025892e+003;9.113668e-002
3.027820e+003;9.182524e-002
3.029749e+003;9.238355e-002
3.031677e+003;9.244680e-002
3.033606e+003;9.272081e-002
3.035534e+003;9.328623e-002
3.037463e+003;9.379041e-002
3.039392e+003;9.432000e-002
3.041320e+003;9.471612e-002
3.043249e+003;9.487357e-002
3.045177e+003;9.525613e-002
3.047106e+003;9.600243e-002
3.049034e+003;9.690815e-002
3.050963e+003;9.713700e-002
3.052891e+003;9.732828e-002
3.054820e+003;9.816973e-002
3.056749e+003;9.868681e-002
3.058677e+003;9.887815e-002
3.060606e+003;9.913685e-002
3.062534e+003;9.993698e-002
3.064463e+003;1.006369e-001
3.066391e+003;1.006698e-001
3.068320e+003;1.013452e-001
3.070248e+003;1.021313e-001
3.072177e+003;1.026768e-001
3.074105e+003;1.033141e-001
3.076034e+003;1.039293e-001
3.077963e+003;1.044870e-001
3.079891e+003;1.050264e-001
3.081820e+003;1.055626e-001
3.083748e+003;1.059550e-001
3.085677e+003;1.062478e-001
3.087605e+003;1.071435e-001
3.089534e+003;1.080316e-001
3.091462e+003;1.089882e-001
3.093391e+003;1.097412e-001
3.095320e+003;1.101814e-001
3.097248e+003;1.109388e-001
3.099177e+003;1.114080e-001
3.101105e+003;1.117033e-001
3.103034e+003;1.123706e-001
3.104962e+003;1.133161e-001
3.106891e+003;1.140822e-001
3.108819e+003;1.145992e-001
3.110748e+003;1.151639e-001
3.112677e+003;1.160184e-001
3.114605e+003;1.170009e-001
3.116533e+003;1.178318e-001
3.118462e+003;1.183082e-001
3.120391e+003;1.187427e-001
3.122319e+003;1.193162e-001
3.124248e+003;1.199090e-001
3.126176e+003;1.206982e-001
3.128105e+003;1.215636e-001
3.130033e+003;1.224960e-001
3.131962e+003;1.233685e-001
3.133890e+003;1.239396e-001
3.135819e+003;1.245022e-001
3.137748e+003;1.251555e-001
3.139676e+003;1.257039e-001
3.141605e+003;1.261550e-001
3.143533e+003;1.268195e-001
3.145462e+003;1.275759e-001
3.147390e+003;1.281895e-001
3.149319e+003;1.288937e-001
3.151247e+003;1.298259e-001
3.153176e+003;1.305217e-001
3.155104e+003;1.312418e-001
3.157033e+003;1.320899e-001
3.158962e+003;1.324666e-001
3.160890e+003;1.329080e-001
3.162819e+003;1.337532e-001
3.164747e+003;1.344333e-001
3.166676e+003;1.350272e-001
3.168604e+003;1.359504e-001
3.170533e+003;1.366543e-001
3.172461e+003;1.370787e-001
3.174390e+003;1.376533e-001
3.176319e+003;1.381581e-001
3.178247e+003;1.386195e-001
3.180176e+003;1.394260e-001
3.182104e+003;1.406549e-001
3.184033e+003;1.412292e-001
3.185961e+003;1.415242e-001
3.187890e+003;1.423597e-001
3.189818e+003;1.434701e-001
3.191747e+003;1.443089e-001
3.193676e+003;1.446635e-001
3.195604e+003;1.451330e-001
3.197532e+003;1.460006e-001
3.199461e+003;1.465441e-001
3.201390e+003;1.470819e-001
3.203318e+003;1.476048e-001
3.205247e+003;1.482527e-001
3.207175e+003;1.490373e-001
3.209104e+003;1.500734e-001
3.211032e+003;1.509625e-001
3.212961e+003;1.513835e-001
3.214889e+003;1.517548e-001
3.216818e+003;1.521833e-001
3.218747e+003;1.528095e-001
3.220675e+003;1.536761e-001
3.222604e+003;1.543785e-001
3.224532e+003;1.546923e-001
3.226461e+003;1.551746e-001
3.228389e+003;1.559056e-001
3.230318e+003;1.563028e-001
3.232246e+003;1.566093e-001
3.234175e+003;1.572465e-001
3.236104e+003;1.580040e-001
3.238032e+003;1.585961e-001
3.239961e+003;1.592361e-001
3.241889e+003;1.599536e-001
3.243818e+003;1.606067e-001
3.245746e+003;1.608700e-001
3.247675e+003;1.614537e-001
3.249603e+003;1.621987e-001
3.251532e+003;1.623262e-001
3.253460e+003;1.624187e-001
3.255389e+003;1.627804e-001
3.257318e+003;1.636330e-001
3.259246e+003;1.645847e-001
3.261175e+003;1.649688e-001
3.263103e+003;1.647609e-001
3.265032e+003;1.646311e-001
3.266960e+003;1.651691e-001
3.268889e+003;1.659421e-001
3.270817e+003;1.662209e-001
3.272746e+003;1.667698e-001
3.274675e+003;1.673829e-001
3.276603e+003;1.677279e-001
3.278531e+003;1.682494e-001
3.280460e+003;1.685587e-001
3.282389e+003;1.690839e-001
3.284317e+003;1.694720e-001
3.286246e+003;1.692482e-001
3.288174e+003;1.694165e-001
3.290103e+003;1.703358e-001
3.292031e+003;1.711121e-001
3.293960e+003;1.710227e-001
3.295888e+003;1.708758e-001
3.297817e+003;1.710756e-001
3.299746e+003;1.713834e-001
3.301674e+003;1.716404e-001
3.303603e+003;1.721714e-001
3.305531e+003;1.723524e-001
3.307460e+003;1.722633e-001
3.309388e+003;1.725999e-001
3.311317e+003;1.729292e-001
3.313245e+003;1.730629e-001
3.315174e+003;1.732217e-001
3.317103e+003;1.733846e-001
3.319031e+003;1.734118e-001
3.320960e+003;1.734125e-001
3.322888e+003;1.733421e-001
3.324817e+003;1.734783e-001
3.326745e+003;1.740666e-001
3.328674e+003;1.745725e-001
3.330602e+003;1.744556e-001
3.332531e+003;1.744709e-001
3.334459e+003;1.746834e-001
3.336388e+003;1.750201e-001
3.338317e+003;1.748940e-001
3.340245e+003;1.746121e-001
3.342174e+003;1.744467e-001
3.344102e+003;1.744006e-001
3.346031e+003;1.742605e-001
3.347959e+003;1.740247e-001
3.349888e+003;1.738815e-001
3.351816e+003;1.737469e-001
3.353745e+003;1.737403e-001
3.355674e+003;1.737245e-001
3.357602e+003;1.736169e-001
3.359531e+003;1.731239e-001
3.361459e+003;1.728418e-001
3.363388e+003;1.728791e-001
3.365316e+003;1.729185e-001
3.367245e+003;1.727477e-001
3.369173e+003;1.722254e-001
3.371102e+003;1.715463e-001
3.373031e+003;1.713320e-001
3.374959e+003;1.717581e-001
3.376887e+003;1.715745e-001
3.378816e+003;1.709883e-001
3.380745e+003;1.711492e-001
3.382673e+003;1.709048e-001
3.384602e+003;1.701645e-001
3.386530e+003;1.697356e-001
3.388459e+003;1.694487e-001
3.390387e+003;1.691707e-001
3.392316e+003;1.687473e-001
3.394244e+003;1.680628e-001
3.396173e+003;1.672612e-001
3.398102e+003;1.670788e-001
3.400030e+003;1.671879e-001
3.401959e+003;1.668451e-001
3.403887e+003;1.660761e-001
3.405816e+003;1.653080e-001
3.407744e+003;1.649744e-001
3.409673e+003;1.647907e-001
3.411601e+003;1.639057e-001
3.413530e+003;1.633460e-001
3.415458e+003;1.632563e-001
3.417387e+003;1.626546e-001
3.419316e+003;1.621221e-001
3.421244e+003;1.614399e-001
3.423173e+003;1.607331e-001
3.425101e+003;1.601754e-001
3.427030e+003;1.601850e-001
3.428958e+003;1.597367e-001
3.430887e+003;1.586880e-001
3.432815e+003;1.581070e-001
3.434744e+003;1.575342e-001
3.436673e+003;1.563611e-001
3.438601e+003;1.557632e-001
3.440530e+003;1.555158e-001
3.442458e+003;1.546086e-001
3.444387e+003;1.533417e-001
3.446315e+003;1.522159e-001
3.448244e+003;1.511377e-001
3.450172e+003;1.498270e-001
3.452101e+003;1.487723e-001
3.454030e+003;1.474775e-001
3.455958e+003;1.459433e-001
3.457886e+003;1.449554e-001
3.459815e+003;1.441253e-001
3.461744e+003;1.431207e-001
3.463672e+003;1.419166e-001
3.465601e+003;1.404891e-001
3.467529e+003;1.386852e-001
3.469458e+003;1.377052e-001
3.471386e+003;1.371272e-001
3.473315e+003;1.362356e-001
3.475243e+003;1.352625e-001
3.477172e+003;1.338922e-001
3.479101e+003;1.324356e-001
3.481029e+003;1.313085e-001
3.482958e+003;1.302235e-001
3.484886e+003;1.289471e-001
3.486815e+003;1.280077e-001
3.488743e+003;1.273036e-001
3.490672e+003;1.261364e-001
3.492600e+003;1.244686e-001
3.494529e+003;1.227640e-001
3.496458e+003;1.210740e-001
3.498386e+003;1.195617e-001
3.500315e+003;1.180816e-001
3.502243e+003;1.164217e-001
3.504172e+003;1.150072e-001
3.506100e+003;1.139473e-001
3.508029e+003;1.127024e-001
3.509957e+003;1.115125e-001
3.511886e+003;1.103230e-001
3.513814e+003;1.087322e-001
3.515743e+003;1.071794e-001
3.517672e+003;1.059531e-001
3.519600e+003;1.049871e-001
3.521529e+003;1.035256e-001
3.523457e+003;1.021558e-001
3.525386e+003;1.012991e-001
3.527314e+003;1.002125e-001
3.529243e+003;9.887353e-002
3.531171e+003;9.784067e-002
3.533100e+003;9.675804e-002
3.535029e+003;9.557990e-002
3.536957e+003;9.468807e-002
3.538885e+003;9.370349e-002
3.540814e+003;9.228183e-002
3.542743e+003;9.101626e-002
3.544671e+003;9.039531e-002
3.546600e+003;8.983544e-002
3.548528e+003;8.881032e-002
3.550457e+003;8.758946e-002
3.552385e+003;8.666722e-002
3.554314e+003;8.589830e-002
3.556242e+003;8.474176e-002
3.558171e+003;8.357352e-002
3.560100e+003;8.281210e-002
3.562028e+003;8.184337e-002
3.563957e+003;8.017109e-002
3.565885e+003;7.864372e-002
3.567814e+003;7.782909e-002
3.569742e+003;7.767782e-002
3.571671e+003;7.732029e-002
3.573599e+003;7.655037e-002
3.575528e+003;7.542627e-002
3.577457e+003;7.406363e-002
3.579385e+003;7.344015e-002
3.581314e+003;7.280710e-002
3.583242e+003;7.203626e-002
3.585171e+003;7.116966e-002
3.587099e+003;7.035223e-002
3.589028e+003;6.986663e-002
3.590956e+003;6.943906e-002
3.592885e+003;6.873771e-002
3.594813e+003;6.804013e-002
3.596742e+003;6.747484e-002
3.598671e+003;6.688389e-002
3.600599e+003;6.621050e-002
3.602528e+003;6.546900e-002
3.604456e+003;6.514662e-002
3.606385e+003;6.468595e-002
3.608313e+003;6.386592e-002
3.610242e+003;6.343295e-002
3.612170e+003;6.261528e-002
3.614099e+003;6.199196e-002
3.616028e+003;6.145323e-002
3.617956e+003;6.057886e-002
3.619885e+003;6.032413e-002
3.621813e+003;6.024259e-002
3.623742e+003;6.034652e-002
3.625670e+003;5.992023e-002
3.627599e+003;5.805568e-002
3.629527e+003;5.709643e-002
3.631456e+003;5.805936e-002
3.633385e+003;5.839823e-002
3.635313e+003;5.790429e-002
3.637241e+003;5.729155e-002
3.639170e+003;5.721212e-002
3.641099e+003;5.696536e-002
3.643027e+003;5.632617e-002
3.644956e+003;5.559136e-002
3.646884e+003;5.410852e-002
3.648813e+003;5.297452e-002
3.650741e+003;5.351823e-002
3.652670e+003;5.453042e-002
3.654598e+003;5.436632e-002
3.656527e+003;5.386430e-002
3.658456e+003;5.392732e-002
3.660384e+003;5.358409e-002
3.662313e+003;5.304078e-002
3.664241e+003;5.276929e-002
3.666170e+003;5.231269e-002
3.668098e+003;5.091113e-002
3.670027e+003;4.966477e-002
3.671955e+003;4.999455e-002
3.673884e+003;4.947684e-002
3.675813e+003;4.886110e-002
3.677741e+003;4.983293e-002
3.679669e+003;5.018407e-002
3.681598e+003;4.985222e-002
3.683527e+003;4.933279e-002
3.685455e+003;4.869053e-002
3.687384e+003;4.725009e-002
3.689312e+003;4.684702e-002
3.691241e+003;4.756292e-002
3.693169e+003;4.772136e-002
3.695098e+003;4.759179e-002
3.697026e+003;4.742080e-002
3.698955e+003;4.694923e-002
3.700884e+003;4.649583e-002
3.702812e+003;4.670889e-002
3.704741e+003;4.688359e-002
3.706669e+003;4.680000e-002
3.708598e+003;4.636452e-002
3.710526e+003;4.566554e-002
3.712455e+003;4.550700e-002
3.714383e+003;4.592481e-002
3.716312e+003;4.613811e-002
3.718240e+003;4.605208e-002
3.720169e+003;4.587900e-002
3.722098e+003;4.576434e-002
3.724026e+003;4.551701e-002
3.725955e+003;4.495683e-002
3.727883e+003;4.479759e-002
3.729812e+003;4.459461e-002
3.731740e+003;4.401292e-002
3.733669e+003;4.376050e-002
3.735597e+003;4.333106e-002
3.737526e+003;4.366966e-002
3.739455e+003;4.440302e-002
3.741383e+003;4.400394e-002
3.743312e+003;4.161556e-002
3.745240e+003;4.201895e-002
3.747169e+003;4.348782e-002
3.749097e+003;4.251173e-002
3.751026e+003;4.208181e-002
3.752954e+003;4.287858e-002
3.754883e+003;4.353826e-002
3.756812e+003;4.354664e-002
3.758740e+003;4.419062e-002
3.760668e+003;4.474334e-002
3.762597e+003;4.455290e-002
3.764526e+003;4.398205e-002
3.766454e+003;4.376900e-002
3.768383e+003;4.335860e-002
3.770311e+003;4.344087e-002
3.772240e+003;4.407277e-002
3.774168e+003;4.440207e-002
3.776097e+003;4.442126e-002
3.778025e+003;4.413761e-002
3.779954e+003;4.402282e-002
3.781883e+003;4.424531e-002
3.783811e+003;4.441697e-002
3.785740e+003;4.478933e-002
3.787668e+003;4.452001e-002
3.789597e+003;4.431822e-002
3.791525e+003;4.437862e-002
3.793454e+003;4.423339e-002
3.795382e+003;4.376787e-002
3.797311e+003;4.384344e-002
3.799240e+003;4.349240e-002
3.801168e+003;4.287247e-002
3.803097e+003;4.376156e-002
3.805025e+003;4.389248e-002
3.806954e+003;4.340854e-002
3.808882e+003;4.436243e-002
3.810811e+003;4.501195e-002
3.812739e+003;4.459865e-002
3.814668e+003;4.303671e-002
3.816596e+003;4.249959e-002
3.818525e+003;4.264381e-002
3.820454e+003;4.225930e-002
3.822382e+003;4.312269e-002
3.824311e+003;4.432247e-002
3.826239e+003;4.440354e-002
3.828168e+003;4.421156e-002
3.830096e+003;4.406125e-002
3.832025e+003;4.397735e-002
3.833953e+003;4.407013e-002
3.835882e+003;4.335742e-002
3.837811e+003;4.249868e-002
3.839739e+003;4.330972e-002
3.841667e+003;4.408571e-002
3.843596e+003;4.398172e-002
3.845525e+003;4.402487e-002
3.847453e+003;4.436445e-002
3.849382e+003;4.364500e-002
3.851310e+003;4.190786e-002
3.853239e+003;4.097729e-002
3.855167e+003;4.253300e-002
3.857096e+003;4.436904e-002
3.859024e+003;4.498928e-002
3.860953e+003;4.445118e-002
3.862882e+003;4.413779e-002
3.864810e+003;4.427213e-002
3.866739e+003;4.425628e-002
3.868667e+003;4.371799e-002
3.870596e+003;4.426303e-002
3.872524e+003;4.492629e-002
3.874453e+003;4.453954e-002
3.876381e+003;4.490064e-002
3.878310e+003;4.500537e-002
3.880239e+003;4.498880e-002
3.882167e+003;4.566163e-002
3.884096e+003;4.532277e-002
3.886024e+003;4.527595e-002
3.887953e+003;4.573072e-002
3.889881e+003;4.519160e-002
3.891810e+003;4.533561e-002
3.893738e+003;4.613918e-002
3.895667e+003;4.631358e-002
3.897595e+003;4.580848e-002
3.899524e+003;4.555737e-002
3.901453e+003;4.529331e-002
3.903381e+003;4.527614e-002
3.905310e+003;4.595288e-002
3.907238e+003;4.659596e-002
3.909167e+003;4.660010e-002
3.911095e+003;4.670435e-002
3.913024e+003;4.685886e-002
3.914952e+003;4.673948e-002
3.916881e+003;4.695738e-002
3.918810e+003;4.722386e-002
3.920738e+003;4.734065e-002
3.922667e+003;4.747328e-002
3.924595e+003;4.729642e-002
3.926524e+003;4.714711e-002
3.928452e+003;4.751763e-002
3.930381e+003;4.755161e-002
3.932309e+003;4.741470e-002
3.934238e+003;4.748241e-002
3.936167e+003;4.741008e-002
3.938095e+003;4.745761e-002
3.940023e+003;4.736222e-002
3.941952e+003;4.733126e-002
3.943881e+003;4.770487e-002
3.945809e+003;4.770890e-002
3.947738e+003;4.731197e-002
3.949666e+003;4.765535e-002
3.951595e+003;4.853522e-002
3.953523e+003;4.851662e-002
3.955452e+003;4.829715e-002
3.957380e+003;4.900781e-002
3.959309e+003;4.901523e-002
3.961238e+003;4.836737e-002
3.963166e+003;4.829741e-002
3.965095e+003;4.859410e-002
3.967023e+003;4.834563e-002
3.968952e+003;4.817734e-002
3.970880e+003;4.817463e-002
3.972809e+003;4.816264e-002
3.974737e+003;4.797676e-002
3.976666e+003;4.776996e-002
3.978594e+003;4.769621e-002
3.980523e+003;4.781231e-002
3.982452e+003;4.824857e-002
3.984380e+003;4.844093e-002
3.986309e+003;4.842049e-002
3.988237e+003;4.859751e-002
3.990166e+003;4.925800e-002
3.992094e+003;4.914237e-002
3.994023e+003;4.826171e-002
3.995951e+003;4.792448e-002
3.997880e+003;4.799479e-002
3.999809e+003;4.807439e-002
4.001737e+003;0.000000e+000
