3.992094e+002;0.000000e+000
4.011380e+002;0.000000e+000
4.030665e+002;0.000000e+000
4.049951e+002;0.000000e+000
4.069236e+002;0.000000e+000
4.088522e+002;0.000000e+000
4.107807e+002;0.000000e+000
4.127093e+002;0.000000e+000
4.146378e+002;0.000000e+000
4.165664e+002;0.000000e+000
4.184949e+002;0.000000e+000
4.204235e+002;0.000000e+000
4.223520e+002;0.000000e+000
4.242806e+002;0.000000e+000
4.262091e+002;0.000000e+000
4.281377e+002;0.000000e+000
4.300662e+002;0.000000e+000
4.319948e+002;0.000000e+000
4.339233e+002;0.000000e+000
4.358519e+002;0.000000e+000
4.377804e+002;0.000000e+000
4.397090e+002;0.000000e+000
4.416375e+002;0.000000e+000
4.435660e+002;0.000000e+000
4.454946e+002;0.000000e+000
4.474232e+002;0.000000e+000
4.493517e+002;0.000000e+000
4.512802e+002;0.000000e+000
4.532088e+002;0.000000e+000
4.551373e+002;0.000000e+000
4.570659e+002;0.000000e+000
4.589944e+002;0.000000e+000
4.609230e+002;0.000000e+000
4.628515e+002;0.000000e+000
4.647801e+002;0.000000e+000
4.667086e+002;0.000000e+000
4.686372e+002;0.000000e+000
4.705657e+002;0.000000e+000
4.724943e+002;0.000000e+000
4.744228e+002;0.000000e+000
4.763513e+002;0.000000e+000
4.782799e+002;0.000000e+000
4.802085e+002;0.000000e+000
4.821370e+002;0.000000e+000
4.840656e+002;0.000000e+000
4.859941e+002;0.000000e+000
4.879226e+002;0.000000e+000
4.898512e+002;0.000000e+000
4.917798e+002;0.000000e+000
4.937083e+002;0.000000e+000
4.956368e+002;0.000000e+000
4.975654e+002;0.000000e+000
4.994939e+002;0.000000e+000
5.014225e+002;0.000000e+000
5.033510e+002;0.000000e+000
5.052796e+002;0.000000e+000
5.072081e+002;0.000000e+000
5.091367e+002;0.000000e+000
5.110652e+002;0.000000e+000
5.129938e+002;0.000000e+000
5.149223e+002;0.000000e+000
5.168509e+002;0.000000e+000
5.187794e+002;0.000000e+000
5.207079e+002;0.000000e+000
5.226365e+002;0.000000e+000
5.245651e+002;0.000000e+000
5.264936e+002;0.000000e+000
5.284222e+002;0.000000e+000
5.303507e+002;0.000000e+000
5.322792e+002;0.000000e+000
5.342078e+002;0.000000e+000
5.361364e+002;0.000000e+000
5.380649e+002;0.000000e+000
5.399935e+002;0.000000e+000
5.419220e+002;0.000000e+000
5.438505e+002;0.000000e+000
5.457791e+002;0.000000e+000
5.477076e+002;0.000000e+000
5.496362e+002;0.000000e+000
5.515648e+002;0.000000e+000
5.534933e+002;0.000000e+000
5.554218e+002;0.000000e+000
5.573504e+002;0.000000e+000
5.592789e+002;0.000000e+000
5.612075e+002;0.000000e+000
5.631360e+002;0.000000e+000
5.650646e+002;0.000000e+000
5.669931e+002;0.000000e+000
5.689217e+002;0.000000e+000
5.708502e+002;0.000000e+000
5.727787e+002;0.000000e+000
5.747073e+002;0.000000e+000
5.766359e+002;0.000000e+000
5.785644e+002;0.000000e+000
5.804930e+002;0.000000e+000
5.824215e+002;0.000000e+000
5.843500e+002;0.000000e+000
5.862786e+002;0.000000e+000
5.882072e+002;0.000000e+000
5.901357e+002;0.000000e+000
5.920643e+002;0.000000e+000
5.939928e+002;0.000000e+000
5.959213e+002;0.000000e+000
5.978499e+002;0.000000e+000
5.997784e+002;2.178219e-001
6.017070e+002;2.106416e-001
6.036355e+002;2.060272e-001
6.055641e+002;2.084950e-001
6.074926e+002;2.123420e-001
6.094211e+002;2.101316e-001
6.113497e+002;2.087964e-001
6.132783e+002;2.093222e-001
6.152068e+002;2.084474e-001
6.171354e+002;2.075110e-001
6.190639e+002;2.057060e-001
6.209924e+002;2.034798e-001
6.229210e+002;2.025485e-001
6.248495e+002;2.004767e-001
6.267781e+002;1.989672e-001
6.287067e+002;2.005912e-001
6.306352e+002;1.999126e-001
6.325637e+002;1.980674e-001
6.344923e+002;1.957706e-001
6.364208e+002;1.909225e-001
6.383494e+002;1.892730e-001
6.402780e+002;1.915702e-001
6.422065e+002;1.932641e-001
6.441350e+002;1.919487e-001
6.460636e+002;1.910553e-001
6.479921e+002;1.893453e-001
6.499207e+002;1.847426e-001
6.518492e+002;1.845187e-001
6.537778e+002;1.875869e-001
6.557063e+002;1.904223e-001
6.576349e+002;1.927738e-001
6.595634e+002;1.929096e-001
6.614919e+002;1.939462e-001
6.634205e+002;1.946292e-001
6.653491e+002;1.938800e-001
6.672776e+002;1.917570e-001
6.692062e+002;1.879546e-001
6.711347e+002;1.848294e-001
6.730632e+002;1.817647e-001
6.749918e+002;1.754724e-001
6.769203e+002;1.707146e-001
6.788489e+002;1.677302e-001
6.807775e+002;1.638878e-001
6.827060e+002;1.609566e-001
6.846345e+002;1.590032e-001
6.865631e+002;1.574658e-001
6.884916e+002;1.560742e-001
6.904202e+002;1.536761e-001
6.923488e+002;1.523896e-001
6.942773e+002;1.527655e-001
6.962058e+002;1.533765e-001
6.981344e+002;1.531227e-001
7.000629e+002;1.524777e-001
7.019915e+002;1.514413e-001
7.039200e+002;1.504959e-001
7.058486e+002;1.500652e-001
7.077771e+002;1.496844e-001
7.097057e+002;1.481173e-001
7.116342e+002;1.465234e-001
7.135627e+002;1.453995e-001
7.154913e+002;1.449592e-001
7.174199e+002;1.440037e-001
7.193484e+002;1.429938e-001
7.212770e+002;1.420017e-001
7.232055e+002;1.408350e-001
7.251340e+002;1.397923e-001
7.270626e+002;1.381871e-001
7.289911e+002;1.373507e-001
7.309197e+002;1.372392e-001
7.328483e+002;1.372519e-001
7.347768e+002;1.366210e-001
7.367053e+002;1.352236e-001
7.386339e+002;1.334993e-001
7.405624e+002;1.325604e-001
7.424910e+002;1.324747e-001
7.444196e+002;1.319276e-001
7.463481e+002;1.310333e-001
7.482766e+002;1.294414e-001
7.502052e+002;1.270151e-001
7.521337e+002;1.257903e-001
7.540623e+002;1.249749e-001
7.559908e+002;1.241170e-001
7.579194e+002;1.236986e-001
7.598479e+002;1.228778e-001
7.617765e+002;1.220181e-001
7.637050e+002;1.211532e-001
7.656335e+002;1.199547e-001
7.675621e+002;1.186028e-001
7.694907e+002;1.177477e-001
7.714192e+002;1.172206e-001
7.733478e+002;1.164859e-001
7.752763e+002;1.156475e-001
7.772048e+002;1.144354e-001
7.791334e+002;1.136539e-001
7.810620e+002;1.129395e-001
7.829905e+002;1.125564e-001
7.849191e+002;1.126498e-001
7.868476e+002;1.123039e-001
7.887761e+002;1.119289e-001
7.907047e+002;1.117487e-001
7.926332e+002;1.117401e-001
7.945618e+002;1.112729e-001
7.964903e+002;1.108006e-001
7.984189e+002;1.108693e-001
8.003474e+002;1.103774e-001
8.022759e+002;1.097483e-001
8.042045e+002;1.103731e-001
8.061331e+002;1.108677e-001
8.080616e+002;1.100494e-001
8.099902e+002;1.090158e-001
8.119187e+002;1.083207e-001
8.138472e+002;1.078941e-001
8.157758e+002;1.075931e-001
8.177043e+002;1.067709e-001
8.196329e+002;1.067265e-001
8.215615e+002;1.066285e-001
8.234900e+002;1.060465e-001
8.254185e+002;1.054241e-001
8.273471e+002;1.044497e-001
8.292756e+002;1.036470e-001
8.312042e+002;1.032824e-001
8.331328e+002;1.027697e-001
8.350613e+002;1.019484e-001
8.369898e+002;1.004426e-001
8.389184e+002;9.973025e-002
8.408469e+002;9.923232e-002
8.427755e+002;9.792738e-002
8.447040e+002;9.681509e-002
8.466326e+002;9.608820e-002
8.485611e+002;9.579380e-002
8.504897e+002;9.546418e-002
8.524182e+002;9.479591e-002
8.543467e+002;9.406061e-002
8.562753e+002;9.400458e-002
8.582039e+002;9.409773e-002
8.601324e+002;9.435178e-002
8.620610e+002;9.473834e-002
8.639895e+002;9.520052e-002
8.659180e+002;9.584445e-002
8.678466e+002;9.690417e-002
8.697751e+002;9.794731e-002
8.717037e+002;9.935355e-002
8.736323e+002;1.013368e-001
8.755608e+002;1.045617e-001
8.774893e+002;1.081178e-001
8.794179e+002;1.112851e-001
8.813464e+002;1.150041e-001
8.832750e+002;1.191411e-001
8.852036e+002;1.233018e-001
8.871321e+002;1.277586e-001
8.890606e+002;1.320414e-001
8.909892e+002;1.356829e-001
8.929177e+002;1.387805e-001
8.948463e+002;1.410590e-001
8.967748e+002;1.415481e-001
8.987034e+002;1.406438e-001
9.006319e+002;1.389668e-001
9.025605e+002;1.366178e-001
9.044890e+002;1.337079e-001
9.064175e+002;1.304754e-001
9.083461e+002;1.269558e-001
9.102747e+002;1.238992e-001
9.122032e+002;1.211848e-001
9.141318e+002;1.187466e-001
9.160603e+002;1.169651e-001
9.179888e+002;1.158250e-001
9.199174e+002;1.157159e-001
9.218459e+002;1.159628e-001
9.237745e+002;1.163887e-001
9.257031e+002;1.172027e-001
9.276316e+002;1.175253e-001
9.295601e+002;1.176948e-001
9.314887e+002;1.182708e-001
9.334172e+002;1.189585e-001
9.353458e+002;1.199053e-001
9.372744e+002;1.207604e-001
9.392029e+002;1.216277e-001
9.411314e+002;1.229424e-001
9.430600e+002;1.248975e-001
9.449885e+002;1.269717e-001
9.469171e+002;1.293701e-001
9.488456e+002;1.322483e-001
9.507742e+002;1.355346e-001
9.527027e+002;1.394646e-001
9.546313e+002;1.437410e-001
9.565598e+002;1.478898e-001
9.584883e+002;1.523025e-001
9.604169e+002;1.571898e-001
9.623455e+002;1.620638e-001
9.642740e+002;1.668114e-001
9.662026e+002;1.717367e-001
9.681311e+002;1.770412e-001
9.700596e+002;1.829964e-001
9.719882e+002;1.902540e-001
9.739167e+002;1.987882e-001
9.758453e+002;2.083406e-001
9.777739e+002;2.195737e-001
9.797024e+002;2.326339e-001
9.816309e+002;2.477658e-001
9.835595e+002;2.644755e-001
9.854880e+002;2.814154e-001
9.874166e+002;2.969326e-001
9.893452e+002;3.097139e-001
9.912737e+002;3.195666e-001
9.932022e+002;3.264820e-001
9.951307e+002;3.302323e-001
9.970593e+002;3.322033e-001
9.989879e+002;3.333343e-001
1.000916e+003;3.339785e-001
1.002845e+003;3.360107e-001
1.004773e+003;3.399410e-001
1.006702e+003;3.451705e-001
1.008631e+003;3.516609e-001
1.010559e+003;3.589238e-001
1.012488e+003;3.660105e-001
1.014416e+003;3.723902e-001
1.016345e+003;3.774191e-001
1.018273e+003;3.805425e-001
1.020202e+003;3.816448e-001
1.022130e+003;3.810196e-001
1.024059e+003;3.786733e-001
1.025988e+003;3.749951e-001
1.027916e+003;3.712442e-001
1.029845e+003;3.676063e-001
1.031773e+003;3.635117e-001
1.033702e+003;3.600440e-001
1.035630e+003;3.565088e-001
1.037559e+003;3.526618e-001
1.039487e+003;3.499416e-001
1.041416e+003;3.475351e-001
1.043344e+003;3.453662e-001
1.045273e+003;3.432996e-001
1.047202e+003;3.405028e-001
1.049130e+003;3.370717e-001
1.051059e+003;3.343330e-001
1.052987e+003;3.315808e-001
1.054916e+003;3.287950e-001
1.056844e+003;3.258269e-001
1.058773e+003;3.225741e-001
1.060701e+003;3.182072e-001
1.062630e+003;3.131412e-001
1.064558e+003;3.082948e-001
1.066487e+003;3.028025e-001
1.068416e+003;2.963900e-001
1.070344e+003;2.901647e-001
1.072273e+003;2.844239e-001
1.074201e+003;2.780817e-001
1.076130e+003;2.722097e-001
1.078058e+003;2.671654e-001
1.079987e+003;2.622713e-001
1.081915e+003;2.566633e-001
1.083844e+003;2.516422e-001
1.085773e+003;2.479591e-001
1.087701e+003;2.441938e-001
1.089630e+003;2.402744e-001
1.091558e+003;2.365745e-001
1.093487e+003;2.329606e-001
1.095415e+003;2.292469e-001
1.097344e+003;2.251772e-001
1.099272e+003;2.205792e-001
1.101201e+003;2.153391e-001
1.103129e+003;2.108423e-001
1.105058e+003;2.071540e-001
1.106987e+003;2.038442e-001
1.108915e+003;2.009312e-001
1.110844e+003;1.974436e-001
1.112772e+003;1.935578e-001
1.114701e+003;1.890286e-001
1.116629e+003;1.845535e-001
1.118558e+003;1.800433e-001
1.120486e+003;1.751559e-001
1.122415e+003;1.702881e-001
1.124344e+003;1.660193e-001
1.126272e+003;1.615563e-001
1.128201e+003;1.567154e-001
1.130129e+003;1.522883e-001
1.132058e+003;1.481507e-001
1.133986e+003;1.443785e-001
1.135915e+003;1.411364e-001
1.137843e+003;1.384570e-001
1.139772e+003;1.362531e-001
1.141700e+003;1.347357e-001
1.143629e+003;1.341888e-001
1.145557e+003;1.341115e-001
1.147486e+003;1.343586e-001
1.149415e+003;1.352464e-001
1.151343e+003;1.363003e-001
1.153272e+003;1.372270e-001
1.155200e+003;1.372875e-001
1.157129e+003;1.366482e-001
1.159057e+003;1.348165e-001
1.160986e+003;1.318241e-001
1.162914e+003;1.279419e-001
1.164843e+003;1.231877e-001
1.166771e+003;1.177671e-001
1.168700e+003;1.122637e-001
1.170629e+003;1.070307e-001
1.172557e+003;1.023433e-001
1.174486e+003;9.810988e-002
1.176414e+003;9.414638e-002
1.178343e+003;9.062842e-002
1.180271e+003;8.768514e-002
1.182200e+003;8.564914e-002
1.184128e+003;8.443065e-002
1.186057e+003;8.416484e-002
1.187986e+003;8.489814e-002
1.189914e+003;8.650783e-002
1.191843e+003;8.866749e-002
1.193771e+003;9.087090e-002
1.195700e+003;9.289022e-002
1.197628e+003;9.437481e-002
1.199557e+003;9.473076e-002
1.201485e+003;9.427278e-002
1.203414e+003;9.288988e-002
1.205343e+003;9.083749e-002
1.207271e+003;8.913936e-002
1.209200e+003;8.766073e-002
1.211128e+003;8.633617e-002
1.213057e+003;8.590391e-002
1.214985e+003;8.632683e-002
1.216914e+003;8.720598e-002
1.218842e+003;8.870223e-002
1.220771e+003;9.057642e-002
1.222699e+003;9.235527e-002
1.224628e+003;9.413440e-002
1.226557e+003;9.575897e-002
1.228485e+003;9.677386e-002
1.230414e+003;9.741627e-002
1.232342e+003;9.798381e-002
1.234271e+003;9.851721e-002
1.236199e+003;9.873834e-002
1.238128e+003;9.879790e-002
1.240056e+003;9.871401e-002
1.241985e+003;9.850553e-002
1.243913e+003;9.844646e-002
1.245842e+003;9.850486e-002
1.247771e+003;9.902617e-002
1.249699e+003;9.983585e-002
1.251628e+003;1.007603e-001
1.253556e+003;1.020388e-001
1.255485e+003;1.035725e-001
1.257413e+003;1.051631e-001
1.259342e+003;1.061963e-001
1.261270e+003;1.065001e-001
1.263199e+003;1.058300e-001
1.265127e+003;1.040703e-001
1.267056e+003;1.017975e-001
1.268985e+003;9.977727e-002
1.270913e+003;9.816815e-002
1.272842e+003;9.666075e-002
1.274770e+003;9.532888e-002
1.276699e+003;9.440474e-002
1.278627e+003;9.371331e-002
1.280556e+003;9.317481e-002
1.282484e+003;9.264862e-002
1.284413e+003;9.246451e-002
1.286342e+003;9.297275e-002
1.288270e+003;9.367269e-002
1.290199e+003;9.428348e-002
1.292127e+003;9.550413e-002
1.294056e+003;9.686504e-002
1.295984e+003;9.824097e-002
1.297913e+003;9.959420e-002
1.299841e+003;1.007952e-001
1.301770e+003;1.019806e-001
1.303698e+003;1.028968e-001
1.305627e+003;1.038380e-001
1.307556e+003;1.052719e-001
1.309484e+003;1.066536e-001
1.311413e+003;1.075151e-001
1.313341e+003;1.080054e-001
1.315270e+003;1.083272e-001
1.317198e+003;1.084719e-001
1.319127e+003;1.084664e-001
1.321055e+003;1.082969e-001
1.322984e+003;1.079445e-001
1.324912e+003;1.079068e-001
1.326841e+003;1.081378e-001
1.328770e+003;1.082471e-001
1.330698e+003;1.082543e-001
1.332627e+003;1.081824e-001
1.334555e+003;1.081453e-001
1.336484e+003;1.079045e-001
1.338412e+003;1.076834e-001
1.340341e+003;1.074257e-001
1.342269e+003;1.069600e-001
1.344198e+003;1.066989e-001
1.346126e+003;1.065545e-001
1.348055e+003;1.065837e-001
1.349984e+003;1.067130e-001
1.351912e+003;1.066531e-001
1.353841e+003;1.071529e-001
1.355769e+003;1.079364e-001
1.357698e+003;1.083907e-001
1.359626e+003;1.090211e-001
1.361555e+003;1.095727e-001
1.363483e+003;1.095425e-001
1.365412e+003;1.092475e-001
1.367341e+003;1.091214e-001
1.369269e+003;1.087382e-001
1.371198e+003;1.076620e-001
1.373126e+003;1.063519e-001
1.375055e+003;1.052201e-001
1.376983e+003;1.041643e-001
1.378912e+003;1.025442e-001
1.380840e+003;1.006136e-001
1.382769e+003;9.908578e-002
1.384698e+003;9.754035e-002
1.386626e+003;9.607174e-002
1.388555e+003;9.514252e-002
1.390483e+003;9.451717e-002
1.392412e+003;9.387977e-002
1.394340e+003;9.326857e-002
1.396269e+003;9.304950e-002
1.398197e+003;9.303148e-002
1.400126e+003;9.284996e-002
1.402054e+003;9.257825e-002
1.403983e+003;9.220881e-002
1.405911e+003;9.210324e-002
1.407840e+003;9.230908e-002
1.409769e+003;9.252293e-002
1.411697e+003;9.247001e-002
1.413626e+003;9.224766e-002
1.415554e+003;9.226163e-002
1.417483e+003;9.209427e-002
1.419411e+003;9.163342e-002
1.421340e+003;9.144402e-002
1.423268e+003;9.118696e-002
1.425197e+003;9.060642e-002
1.427125e+003;8.996686e-002
1.429054e+003;8.936745e-002
1.430983e+003;8.880451e-002
1.432911e+003;8.813447e-002
1.434840e+003;8.744091e-002
1.436768e+003;8.659211e-002
1.438697e+003;8.563175e-002
1.440625e+003;8.484302e-002
1.442554e+003;8.415196e-002
1.444482e+003;8.324935e-002
1.446411e+003;8.195132e-002
1.448340e+003;8.062811e-002
1.450268e+003;7.968832e-002
1.452197e+003;7.871147e-002
1.454125e+003;7.751805e-002
1.456054e+003;7.623420e-002
1.457982e+003;7.509288e-002
1.459911e+003;7.431868e-002
1.461839e+003;7.344874e-002
1.463768e+003;7.188226e-002
1.465697e+003;6.997374e-002
1.467625e+003;6.803180e-002
1.469554e+003;6.599599e-002
1.471482e+003;6.399349e-002
1.473411e+003;6.218046e-002
1.475339e+003;6.006319e-002
1.477268e+003;5.749254e-002
1.479196e+003;5.503395e-002
1.481125e+003;5.293451e-002
1.483053e+003;5.088912e-002
1.484982e+003;4.886755e-002
1.486911e+003;4.722046e-002
1.488839e+003;4.587988e-002
1.490768e+003;4.454596e-002
1.492696e+003;4.336683e-002
1.494625e+003;4.243339e-002
1.496553e+003;4.141242e-002
1.498482e+003;4.029080e-002
1.500410e+003;3.931971e-002
1.502339e+003;3.860943e-002
1.504267e+003;3.791984e-002
1.506196e+003;3.703569e-002
1.508125e+003;3.612006e-002
1.510053e+003;3.541538e-002
1.511982e+003;3.463218e-002
1.513910e+003;3.390204e-002
1.515839e+003;3.329904e-002
1.517767e+003;3.287718e-002
1.519696e+003;3.248921e-002
1.521624e+003;3.196102e-002
1.523553e+003;3.154445e-002
1.525481e+003;3.137923e-002
1.527410e+003;3.128414e-002
1.529339e+003;3.132616e-002
1.531267e+003;3.134315e-002
1.533196e+003;3.126289e-002
1.535124e+003;3.133418e-002
1.537053e+003;3.145891e-002
1.538981e+003;3.139601e-002
1.540910e+003;3.149058e-002
1.542838e+003;3.180367e-002
1.544767e+003;3.189937e-002
1.546695e+003;3.185911e-002
1.548624e+003;3.183739e-002
1.550553e+003;3.188706e-002
1.552481e+003;3.213314e-002
1.554410e+003;3.257417e-002
1.556338e+003;3.273306e-002
1.558267e+003;3.266036e-002
1.560195e+003;3.270987e-002
1.562124e+003;3.295045e-002
1.564052e+003;3.335610e-002
1.565981e+003;3.364436e-002
1.567910e+003;3.384662e-002
1.569838e+003;3.422483e-002
1.571767e+003;3.472901e-002
1.573695e+003;3.518555e-002
1.575624e+003;3.526593e-002
1.577552e+003;3.538292e-002
1.579481e+003;3.590183e-002
1.581409e+003;3.637276e-002
1.583338e+003;3.656927e-002
1.585266e+003;3.686425e-002
1.587195e+003;3.742065e-002
1.589124e+003;3.790469e-002
1.591052e+003;3.834337e-002
1.592981e+003;3.896278e-002
1.594909e+003;3.950939e-002
1.596838e+003;3.999289e-002
1.598766e+003;4.046046e-002
1.600695e+003;4.074365e-002
1.602623e+003;4.094281e-002
1.604552e+003;4.125757e-002
1.606480e+003;4.177462e-002
1.608409e+003;4.232431e-002
1.610338e+003;4.303177e-002
1.612266e+003;4.344000e-002
1.614195e+003;4.363541e-002
1.616123e+003;4.397614e-002
1.618052e+003;4.439627e-002
1.619980e+003;4.509271e-002
1.621909e+003;4.594197e-002
1.623837e+003;4.649694e-002
1.625766e+003;4.698526e-002
1.627694e+003;4.756961e-002
1.629623e+003;4.799793e-002
1.631552e+003;4.833796e-002
1.633480e+003;4.862930e-002
1.635409e+003;4.870110e-002
1.637337e+003;4.890222e-002
1.639266e+003;4.926130e-002
1.641194e+003;4.918682e-002
1.643123e+003;4.888190e-002
1.645051e+003;4.873471e-002
1.646980e+003;4.838444e-002
1.648909e+003;4.781745e-002
1.650837e+003;4.720277e-002
1.652766e+003;4.656661e-002
1.654694e+003;4.605433e-002
1.656623e+003;4.533549e-002
1.658551e+003;4.439601e-002
1.660480e+003;4.347969e-002
1.662408e+003;4.256216e-002
1.664337e+003;4.175247e-002
1.666266e+003;4.102914e-002
1.668194e+003;4.017226e-002
1.670123e+003;3.909694e-002
1.672051e+003;3.800225e-002
1.673980e+003;3.680341e-002
1.675908e+003;3.554453e-002
1.677837e+003;3.471608e-002
1.679765e+003;3.407611e-002
1.681694e+003;3.316179e-002
1.683622e+003;3.197319e-002
1.685551e+003;3.087003e-002
1.687479e+003;2.998927e-002
1.689408e+003;2.923166e-002
1.691337e+003;2.863737e-002
1.693265e+003;2.798501e-002
1.695194e+003;2.722781e-002
1.697122e+003;2.654502e-002
1.699051e+003;2.601123e-002
1.700979e+003;2.540478e-002
1.702908e+003;2.479577e-002
1.704836e+003;2.446130e-002
1.706765e+003;2.419424e-002
1.708693e+003;2.383317e-002
1.710622e+003;2.343687e-002
1.712551e+003;2.308349e-002
1.714479e+003;2.280065e-002
1.716408e+003;2.233743e-002
1.718336e+003;2.194581e-002
1.720265e+003;2.176215e-002
1.722193e+003;2.170714e-002
1.724122e+003;2.188210e-002
1.726050e+003;2.193839e-002
1.727979e+003;2.174640e-002
1.729908e+003;2.162017e-002
1.731836e+003;2.147801e-002
1.733765e+003;2.136080e-002
1.735693e+003;2.130334e-002
1.737622e+003;2.107352e-002
1.739550e+003;2.075351e-002
1.741479e+003;2.038772e-002
1.743407e+003;1.991430e-002
1.745336e+003;1.944019e-002
1.747265e+003;1.892884e-002
1.749193e+003;1.847517e-002
1.751122e+003;1.829981e-002
1.753050e+003;1.813150e-002
1.754979e+003;1.796008e-002
1.756907e+003;1.777005e-002
1.758836e+003;1.753356e-002
1.760764e+003;1.750482e-002
1.762693e+003;1.755595e-002
1.764621e+003;1.739393e-002
1.766550e+003;1.723890e-002
1.768479e+003;1.716627e-002
1.770407e+003;1.700935e-002
1.772336e+003;1.683717e-002
1.774264e+003;1.700532e-002
1.776193e+003;1.711994e-002
1.778121e+003;1.710519e-002
1.780050e+003;1.705636e-002
1.781978e+003;1.692742e-002
1.783907e+003;1.673037e-002
1.785835e+003;1.677676e-002
1.787764e+003;1.673302e-002
1.789693e+003;1.651916e-002
1.791621e+003;1.636004e-002
1.793550e+003;1.642456e-002
1.795478e+003;1.664835e-002
1.797407e+003;1.652667e-002
1.799335e+003;1.622220e-002
1.801264e+003;1.607367e-002
1.803192e+003;1.584615e-002
1.805121e+003;1.578065e-002
1.807049e+003;1.590540e-002
1.808978e+003;1.595713e-002
1.810907e+003;1.599731e-002
1.812835e+003;1.600340e-002
1.814764e+003;1.579618e-002
1.816692e+003;1.573038e-002
1.818621e+003;1.567518e-002
1.820549e+003;1.553923e-002
1.822478e+003;1.553219e-002
1.824406e+003;1.559394e-002
1.826335e+003;1.561665e-002
1.828264e+003;1.557931e-002
1.830192e+003;1.547330e-002
1.832121e+003;1.543811e-002
1.834049e+003;1.531453e-002
1.835978e+003;1.516841e-002
1.837906e+003;1.500007e-002
1.839835e+003;1.484240e-002
1.841763e+003;1.487370e-002
1.843692e+003;1.493227e-002
1.845620e+003;1.477277e-002
1.847549e+003;1.465986e-002
1.849478e+003;1.457265e-002
1.851406e+003;1.433519e-002
1.853335e+003;1.423161e-002
1.855263e+003;1.433612e-002
1.857192e+003;1.446267e-002
1.859120e+003;1.449320e-002
1.861049e+003;1.446158e-002
1.862977e+003;1.442009e-002
1.864906e+003;1.446791e-002
1.866834e+003;1.440763e-002
1.868763e+003;1.407575e-002
1.870692e+003;1.387086e-002
1.872620e+003;1.390695e-002
1.874549e+003;1.399389e-002
1.876477e+003;1.399324e-002
1.878406e+003;1.391554e-002
1.880334e+003;1.390822e-002
1.882263e+003;1.395985e-002
1.884191e+003;1.386439e-002
1.886120e+003;1.369451e-002
1.888048e+003;1.361371e-002
1.889977e+003;1.368815e-002
1.891906e+003;1.368942e-002
1.893834e+003;1.353276e-002
1.895763e+003;1.360568e-002
1.897691e+003;1.368928e-002
1.899620e+003;1.378774e-002
1.901548e+003;1.377642e-002
1.903477e+003;1.375613e-002
1.905405e+003;1.387907e-002
1.907334e+003;1.394801e-002
1.909262e+003;1.397808e-002
1.911191e+003;1.394116e-002
1.913120e+003;1.395639e-002
1.915048e+003;1.409225e-002
1.916977e+003;1.410919e-002
1.918905e+003;1.400454e-002
1.920834e+003;1.399543e-002
1.922762e+003;1.417625e-002
1.924691e+003;1.434536e-002
1.926619e+003;1.438738e-002
1.928548e+003;1.440848e-002
1.930477e+003;1.433310e-002
1.932405e+003;1.436259e-002
1.934334e+003;1.450173e-002
1.936262e+003;1.450800e-002
1.938191e+003;1.437694e-002
1.940119e+003;1.432865e-002
1.942048e+003;1.434927e-002
1.943976e+003;1.451591e-002
1.945905e+003;1.476948e-002
1.947833e+003;1.475086e-002
1.949762e+003;1.482978e-002
1.951691e+003;1.493326e-002
1.953619e+003;1.502936e-002
1.955548e+003;1.512147e-002
1.957476e+003;1.515444e-002
1.959405e+003;1.508981e-002
1.961333e+003;1.490662e-002
1.963262e+003;1.498862e-002
1.965190e+003;1.524973e-002
1.967119e+003;1.538377e-002
1.969047e+003;1.535109e-002
1.970976e+003;1.536969e-002
1.972905e+003;1.544931e-002
1.974833e+003;1.549545e-002
1.976762e+003;1.543090e-002
1.978690e+003;1.538919e-002
1.980619e+003;1.535486e-002
1.982547e+003;1.532335e-002
1.984476e+003;1.537055e-002
1.986404e+003;1.546036e-002
1.988333e+003;1.548594e-002
1.990261e+003;1.547955e-002
1.992190e+003;1.562619e-002
1.994119e+003;1.581243e-002
1.996047e+003;1.594334e-002
1.997976e+003;1.577505e-002
1.999904e+003;1.580828e-002
2.001833e+003;1.595183e-002
2.003761e+003;1.599569e-002
2.005690e+003;1.597383e-002
2.007618e+003;1.600391e-002
2.009547e+003;1.602464e-002
2.011476e+003;1.591804e-002
2.013404e+003;1.593977e-002
2.015333e+003;1.614227e-002
2.017261e+003;1.640205e-002
2.019190e+003;1.651328e-002
2.021118e+003;1.648681e-002
2.023047e+003;1.647965e-002
2.024975e+003;1.646836e-002
2.026904e+003;1.659764e-002
2.028833e+003;1.654777e-002
2.030761e+003;1.651135e-002
2.032690e+003;1.672590e-002
2.034618e+003;1.692215e-002
2.036547e+003;1.702548e-002
2.038475e+003;1.692832e-002
2.040404e+003;1.685350e-002
2.042332e+003;1.690720e-002
2.044261e+003;1.686762e-002
2.046189e+003;1.699557e-002
2.048118e+003;1.724666e-002
2.050047e+003;1.707211e-002
2.051975e+003;1.687713e-002
2.053904e+003;1.686872e-002
2.055832e+003;1.692622e-002
2.057761e+003;1.702172e-002
2.059689e+003;1.692911e-002
2.061618e+003;1.676398e-002
2.063546e+003;1.664526e-002
2.065475e+003;1.675864e-002
2.067404e+003;1.695037e-002
2.069332e+003;1.674876e-002
2.071260e+003;1.653307e-002
2.073189e+003;1.664498e-002
2.075118e+003;1.699712e-002
2.077046e+003;1.706487e-002
2.078975e+003;1.695864e-002
2.080903e+003;1.685315e-002
2.082832e+003;1.678874e-002
2.084760e+003;1.683552e-002
2.086689e+003;1.675706e-002
2.088617e+003;1.664767e-002
2.090546e+003;1.678141e-002
2.092475e+003;1.691977e-002
2.094403e+003;1.694258e-002
2.096332e+003;1.702644e-002
2.098260e+003;1.706425e-002
2.100189e+003;1.708603e-002
2.102117e+003;1.725700e-002
2.104046e+003;1.733300e-002
2.105974e+003;1.719467e-002
2.107903e+003;1.698348e-002
2.109832e+003;1.693652e-002
2.111760e+003;1.718264e-002
2.113688e+003;1.724187e-002
2.115617e+003;1.698620e-002
2.117546e+003;1.687265e-002
2.119474e+003;1.695588e-002
2.121403e+003;1.691726e-002
2.123331e+003;1.705856e-002
2.125260e+003;1.738207e-002
2.127188e+003;1.723114e-002
2.129117e+003;1.695709e-002
2.131045e+003;1.704984e-002
2.132974e+003;1.715165e-002
2.134903e+003;1.712673e-002
2.136831e+003;1.713221e-002
2.138760e+003;1.704057e-002
2.140688e+003;1.704726e-002
2.142617e+003;1.700811e-002
2.144545e+003;1.703220e-002
2.146474e+003;1.704257e-002
2.148402e+003;1.687647e-002
2.150331e+003;1.666381e-002
2.152260e+003;1.655520e-002
2.154188e+003;1.679904e-002
2.156117e+003;1.703981e-002
2.158045e+003;1.684616e-002
2.159974e+003;1.663892e-002
2.161902e+003;1.668695e-002
2.163831e+003;1.670906e-002
2.165759e+003;1.668791e-002
2.167688e+003;1.671216e-002
2.169616e+003;1.651575e-002
2.171545e+003;1.631043e-002
2.173474e+003;1.625357e-002
2.175402e+003;1.620015e-002
2.177331e+003;1.598813e-002
2.179259e+003;1.591681e-002
2.181188e+003;1.583907e-002
2.183116e+003;1.577536e-002
2.185045e+003;1.599796e-002
2.186973e+003;1.602406e-002
2.188902e+003;1.575753e-002
2.190831e+003;1.569984e-002
2.192759e+003;1.587567e-002
2.194688e+003;1.570194e-002
2.196616e+003;1.532469e-002
2.198545e+003;1.536489e-002
2.200473e+003;1.560645e-002
2.202402e+003;1.546177e-002
2.204330e+003;1.532665e-002
2.206259e+003;1.540539e-002
2.208188e+003;1.537673e-002
2.210116e+003;1.545940e-002
2.212044e+003;1.566755e-002
2.213973e+003;1.549319e-002
2.215902e+003;1.517246e-002
2.217830e+003;1.513032e-002
2.219759e+003;1.507152e-002
2.221687e+003;1.496049e-002
2.223616e+003;1.499770e-002
2.225544e+003;1.502580e-002
2.227473e+003;1.497990e-002
2.229401e+003;1.498735e-002
2.231330e+003;1.481157e-002
2.233259e+003;1.458612e-002
2.235187e+003;1.465835e-002
2.237116e+003;1.466534e-002
2.239044e+003;1.443726e-002
2.240973e+003;1.425239e-002
2.242901e+003;1.439444e-002
2.244830e+003;1.461055e-002
2.246758e+003;1.456484e-002
2.248687e+003;1.432327e-002
2.250615e+003;1.416290e-002
2.252544e+003;1.415383e-002
2.254473e+003;1.423051e-002
2.256401e+003;1.418970e-002
2.258330e+003;1.406788e-002
2.260258e+003;1.389816e-002
2.262187e+003;1.363211e-002
2.264115e+003;1.361255e-002
2.266044e+003;1.376233e-002
2.267972e+003;1.370754e-002
2.269901e+003;1.358660e-002
2.271830e+003;1.359806e-002
2.273758e+003;1.376496e-002
2.275687e+003;1.373438e-002
2.277615e+003;1.356390e-002
2.279544e+003;1.337360e-002
2.281472e+003;1.333936e-002
2.283401e+003;1.341912e-002
2.285329e+003;1.350248e-002
2.287258e+003;1.352541e-002
2.289187e+003;1.332235e-002
2.291115e+003;1.335652e-002
2.293043e+003;1.365105e-002
2.294972e+003;1.355546e-002
2.296901e+003;1.334531e-002
2.298829e+003;1.336909e-002
2.300758e+003;1.334234e-002
2.302686e+003;1.321973e-002
2.304615e+003;1.325293e-002
2.306543e+003;1.331845e-002
2.308472e+003;1.310517e-002
2.310400e+003;1.304723e-002
2.312329e+003;1.320576e-002
2.314258e+003;1.327380e-002
2.316186e+003;1.326403e-002
2.318115e+003;1.330715e-002
2.320043e+003;1.329710e-002
2.321972e+003;1.333034e-002
2.323900e+003;1.337504e-002
2.325829e+003;1.339151e-002
2.327757e+003;1.350439e-002
2.329686e+003;1.351871e-002
2.331615e+003;1.337357e-002
2.333543e+003;1.334794e-002
2.335472e+003;1.365020e-002
2.337400e+003;1.372973e-002
2.339329e+003;1.359980e-002
2.341257e+003;1.363402e-002
2.343186e+003;1.367375e-002
2.345114e+003;1.369150e-002
2.347043e+003;1.358428e-002
2.348971e+003;1.356572e-002
2.350900e+003;1.372960e-002
2.352829e+003;1.394955e-002
2.354757e+003;1.416947e-002
2.356686e+003;1.432882e-002
2.358614e+003;1.444596e-002
2.360543e+003;1.441458e-002
2.362471e+003;1.432947e-002
2.364400e+003;1.412850e-002
2.366328e+003;1.419347e-002
2.368257e+003;1.423664e-002
2.370186e+003;1.423972e-002
2.372114e+003;1.448453e-002
2.374042e+003;1.449004e-002
2.375971e+003;1.438530e-002
2.377900e+003;1.435985e-002
2.379828e+003;1.436755e-002
2.381757e+003;1.446130e-002
2.383685e+003;1.461881e-002
2.385614e+003;1.471669e-002
2.387542e+003;1.480989e-002
2.389471e+003;1.492459e-002
2.391399e+003;1.497497e-002
2.393328e+003;1.500487e-002
2.395257e+003;1.495209e-002
2.397185e+003;1.486887e-002
2.399114e+003;1.478449e-002
2.401042e+003;1.491495e-002
2.402971e+003;1.508545e-002
2.404899e+003;1.508610e-002
2.406828e+003;1.532201e-002
2.408756e+003;1.540728e-002
2.410685e+003;1.535095e-002
2.412614e+003;1.551094e-002
2.414542e+003;1.573506e-002
2.416471e+003;1.590467e-002
2.418399e+003;1.599982e-002
2.420328e+003;1.608237e-002
2.422256e+003;1.626017e-002
2.424185e+003;1.648495e-002
2.426113e+003;1.661968e-002
2.428042e+003;1.665937e-002
2.429970e+003;1.668220e-002
2.431899e+003;1.670758e-002
2.433828e+003;1.682195e-002
2.435756e+003;1.681588e-002
2.437685e+003;1.690021e-002
2.439613e+003;1.701573e-002
2.441542e+003;1.704047e-002
2.443470e+003;1.717409e-002
2.445399e+003;1.720046e-002
2.447327e+003;1.737331e-002
2.449256e+003;1.764932e-002
2.451185e+003;1.779459e-002
2.453113e+003;1.788674e-002
2.455042e+003;1.801723e-002
2.456970e+003;1.818049e-002
2.458899e+003;1.829915e-002
2.460827e+003;1.820353e-002
2.462756e+003;1.824413e-002
2.464684e+003;1.832355e-002
2.466613e+003;1.854245e-002
2.468542e+003;1.883437e-002
2.470470e+003;1.898159e-002
2.472398e+003;1.910996e-002
2.474327e+003;1.916169e-002
2.476256e+003;1.928301e-002
2.478184e+003;1.952115e-002
2.480113e+003;1.961234e-002
2.482041e+003;1.953186e-002
2.483970e+003;1.942315e-002
2.485898e+003;1.926514e-002
2.487827e+003;1.927331e-002
2.489755e+003;1.948646e-002
2.491684e+003;1.975206e-002
2.493613e+003;1.981864e-002
2.495541e+003;1.982291e-002
2.497470e+003;1.974305e-002
2.499398e+003;1.980605e-002
2.501327e+003;2.015053e-002
2.503255e+003;2.046402e-002
2.505184e+003;2.032226e-002
2.507112e+003;2.021502e-002
2.509041e+003;2.028931e-002
2.510969e+003;2.028480e-002
2.512898e+003;2.034431e-002
2.514827e+003;2.039372e-002
2.516755e+003;2.039261e-002
2.518684e+003;2.043095e-002
2.520612e+003;2.036199e-002
2.522541e+003;2.036785e-002
2.524469e+003;2.057358e-002
2.526398e+003;2.072543e-002
2.528326e+003;2.072584e-002
2.530255e+003;2.065697e-002
2.532184e+003;2.055767e-002
2.534112e+003;2.058223e-002
2.536041e+003;2.085859e-002
2.537969e+003;2.115203e-002
2.539898e+003;2.140156e-002
2.541826e+003;2.128671e-002
2.543755e+003;2.110176e-002
2.545683e+003;2.120198e-002
2.547612e+003;2.129371e-002
2.549541e+003;2.139408e-002
2.551469e+003;2.141462e-002
2.553397e+003;2.134911e-002
2.555326e+003;2.135329e-002
2.557255e+003;2.156017e-002
2.559183e+003;2.174006e-002
2.561112e+003;2.170449e-002
2.563040e+003;2.192957e-002
2.564969e+003;2.209392e-002
2.566897e+003;2.199279e-002
2.568826e+003;2.191856e-002
2.570754e+003;2.206195e-002
2.572683e+003;2.213997e-002
2.574612e+003;2.209008e-002
2.576540e+003;2.229206e-002
2.578469e+003;2.252525e-002
2.580397e+003;2.260444e-002
2.582326e+003;2.264361e-002
2.584254e+003;2.261128e-002
2.586183e+003;2.285174e-002
2.588111e+003;2.314205e-002
2.590040e+003;2.325736e-002
2.591969e+003;2.353141e-002
2.593897e+003;2.346960e-002
2.595826e+003;2.335788e-002
2.597754e+003;2.334732e-002
2.599683e+003;2.323684e-002
2.601611e+003;2.345142e-002
2.603540e+003;2.379243e-002
2.605468e+003;2.398605e-002
2.607397e+003;2.413370e-002
2.609325e+003;2.416435e-002
2.611254e+003;2.422472e-002
2.613183e+003;2.437872e-002
2.615111e+003;2.455234e-002
2.617040e+003;2.493043e-002
2.618968e+003;2.521252e-002
2.620897e+003;2.539245e-002
2.622825e+003;2.549999e-002
2.624754e+003;2.572912e-002
2.626682e+003;2.580323e-002
2.628611e+003;2.578221e-002
2.630540e+003;2.601447e-002
2.632468e+003;2.640447e-002
2.634396e+003;2.653216e-002
2.636325e+003;2.664157e-002
2.638254e+003;2.689125e-002
2.640182e+003;2.701588e-002
2.642111e+003;2.714294e-002
2.644039e+003;2.727893e-002
2.645968e+003;2.751246e-002
2.647896e+003;2.781117e-002
2.649825e+003;2.785127e-002
2.651753e+003;2.826385e-002
2.653682e+003;2.871786e-002
2.655611e+003;2.865722e-002
2.657539e+003;2.869467e-002
2.659468e+003;2.900058e-002
2.661396e+003;2.925030e-002
2.663325e+003;2.942330e-002
2.665253e+003;2.976683e-002
2.667182e+003;2.995125e-002
2.669110e+003;3.003930e-002
2.671039e+003;3.014633e-002
2.672968e+003;3.030540e-002
2.674896e+003;3.057660e-002
2.676825e+003;3.079216e-002
2.678753e+003;3.092450e-002
2.680682e+003;3.112916e-002
2.682610e+003;3.153515e-002
2.684539e+003;3.183051e-002
2.686467e+003;3.180049e-002
2.688396e+003;3.198881e-002
2.690324e+003;3.248511e-002
2.692253e+003;3.273067e-002
2.694182e+003;3.267644e-002
2.696110e+003;3.290084e-002
2.698039e+003;3.335782e-002
2.699967e+003;3.342817e-002
2.701896e+003;3.350447e-002
2.703824e+003;3.391347e-002
2.705753e+003;3.385400e-002
2.707681e+003;3.387510e-002
2.709610e+003;3.413281e-002
2.711539e+003;3.437303e-002
2.713467e+003;3.462787e-002
2.715396e+003;3.470930e-002
2.717324e+003;3.469014e-002
2.719253e+003;3.489052e-002
2.721181e+003;3.532128e-002
2.723110e+003;3.558002e-002
2.725038e+003;3.577517e-002
2.726967e+003;3.606846e-002
2.728896e+003;3.615398e-002
2.730824e+003;3.609773e-002
2.732752e+003;3.634729e-002
2.734681e+003;3.669602e-002
2.736610e+003;3.682746e-002
2.738538e+003;3.681058e-002
2.740467e+003;3.669313e-002
2.742395e+003;3.667846e-002
2.744324e+003;3.709263e-002
2.746252e+003;3.719899e-002
2.748181e+003;3.719333e-002
2.750109e+003;3.738400e-002
2.752038e+003;3.763787e-002
2.753967e+003;3.789467e-002
2.755895e+003;3.812218e-002
2.757824e+003;3.816744e-002
2.759752e+003;3.827465e-002
2.761681e+003;3.861874e-002
2.763609e+003;3.905423e-002
2.765538e+003;3.928159e-002
2.767466e+003;3.935497e-002
2.769395e+003;3.964394e-002
2.771323e+003;4.014594e-002
2.773252e+003;4.061102e-002
2.775181e+003;4.097110e-002
2.777109e+003;4.129700e-002
2.779038e+003;4.130469e-002
2.780966e+003;4.121742e-002
2.782895e+003;4.151828e-002
2.784823e+003;4.200581e-002
2.786752e+003;4.238601e-002
2.788680e+003;4.285828e-002
2.790609e+003;4.327806e-002
2.792538e+003;4.362808e-002
2.794466e+003;4.408479e-002
2.796395e+003;4.420103e-002
2.798323e+003;4.435708e-002
2.800252e+003;4.484153e-002
2.802180e+003;4.539210e-002
2.804109e+003;4.575668e-002
2.806037e+003;4.629592e-002
2.807966e+003;4.681439e-002
2.809895e+003;4.733957e-002
2.811823e+003;4.787949e-002
2.813751e+003;4.841467e-002
2.815680e+003;4.889618e-002
2.817609e+003;4.931631e-002
2.819537e+003;4.993789e-002
2.821466e+003;5.055888e-002
2.823394e+003;5.102101e-002
2.825323e+003;5.168703e-002
2.827251e+003;5.219389e-002
2.829180e+003;5.276315e-002
2.831108e+003;5.343391e-002
2.833037e+003;5.434487e-002
2.834966e+003;5.530807e-002
2.836894e+003;5.613994e-002
2.838823e+003;5.688120e-002
2.840751e+003;5.790694e-002
2.842680e+003;5.924630e-002
2.844608e+003;6.078942e-002
2.846537e+003;6.232256e-002
2.848465e+003;6.383211e-002
2.850394e+003;6.508896e-002
2.852323e+003;6.595650e-002
2.854251e+003;6.703083e-002
2.856180e+003;6.847004e-002
2.858108e+003;7.011040e-002
2.860037e+003;7.170773e-002
2.861965e+003;7.303826e-002
2.863894e+003;7.440688e-002
2.865822e+003;7.584230e-002
2.867751e+003;7.710096e-002
2.869679e+003;7.814197e-002
2.871608e+003;7.907500e-002
2.873536e+003;8.025873e-002
2.875465e+003;8.113526e-002
2.877394e+003;8.150254e-002
2.879322e+003;8.215401e-002
2.881251e+003;8.264121e-002
2.883179e+003;8.285805e-002
2.885108e+003;8.338057e-002
2.887036e+003;8.382796e-002
2.888965e+003;8.395486e-002
2.890893e+003;8.410857e-002
2.892822e+003;8.439443e-002
2.894750e+003;8.427046e-002
2.896679e+003;8.367644e-002
2.898608e+003;8.334352e-002
2.900536e+003;8.295803e-002
2.902465e+003;8.246014e-002
2.904393e+003;8.205201e-002
2.906322e+003;8.173289e-002
2.908250e+003;8.123428e-002
2.910179e+003;8.077961e-002
2.912107e+003;8.063059e-002
2.914036e+003;8.038918e-002
2.915965e+003;8.004028e-002
2.917893e+003;7.927559e-002
2.919822e+003;7.818220e-002
2.921750e+003;7.750078e-002
2.923679e+003;7.704949e-002
2.925607e+003;7.643629e-002
2.927536e+003;7.542935e-002
2.929464e+003;7.462186e-002
2.931393e+003;7.369696e-002
2.933322e+003;7.261676e-002
2.935250e+003;7.181897e-002
2.937178e+003;7.087190e-002
2.939107e+003;6.946643e-002
2.941036e+003;6.820788e-002
2.942964e+003;6.711838e-002
2.944893e+003;6.605763e-002
2.946821e+003;6.478155e-002
2.948750e+003;6.372090e-002
2.950678e+003;6.253067e-002
2.952607e+003;6.122309e-002
2.954535e+003;6.056298e-002
2.956464e+003;5.977785e-002
2.958393e+003;5.873035e-002
2.960321e+003;5.753157e-002
2.962250e+003;5.650355e-002
2.964178e+003;5.550080e-002
2.966107e+003;5.431454e-002
2.968035e+003;5.340566e-002
2.969964e+003;5.265493e-002
2.971892e+003;5.204140e-002
2.973821e+003;5.134220e-002
2.975750e+003;5.027242e-002
2.977678e+003;4.931905e-002
2.979607e+003;4.878598e-002
2.981535e+003;4.854070e-002
2.983464e+003;4.782419e-002
2.985392e+003;4.719353e-002
2.987321e+003;4.691143e-002
2.989249e+003;4.650686e-002
2.991178e+003;4.595660e-002
2.993106e+003;4.561485e-002
2.995035e+003;4.558409e-002
2.996964e+003;4.551734e-002
2.998892e+003;4.525172e-002
3.000821e+003;4.510847e-002
3.002749e+003;4.490961e-002
3.004678e+003;4.489017e-002
3.006606e+003;4.499501e-002
3.008535e+003;4.503816e-002
3.010463e+003;4.529493e-002
3.012392e+003;4.570698e-002
3.014321e+003;4.591339e-002
3.016249e+003;4.608918e-002
3.018177e+003;4.622390e-002
3.020106e+003;4.641515e-002
3.022035e+003;4.686477e-002
3.023963e+003;4.722098e-002
3.025892e+003;4.761020e-002
3.027820e+003;4.807265e-002
3.029749e+003;4.843801e-002
3.031677e+003;4.898908e-002
3.033606e+003;4.920337e-002
3.035534e+003;4.943677e-002
3.037463e+003;4.997421e-002
3.039392e+003;5.057496e-002
3.041320e+003;5.107471e-002
3.043249e+003;5.154247e-002
3.045177e+003;5.195617e-002
3.047106e+003;5.260402e-002
3.049034e+003;5.318498e-002
3.050963e+003;5.392241e-002
3.052891e+003;5.444162e-002
3.054820e+003;5.469600e-002
3.056749e+003;5.540905e-002
3.058677e+003;5.614349e-002
3.060606e+003;5.661707e-002
3.062534e+003;5.730342e-002
3.064463e+003;5.807413e-002
3.066391e+003;5.845061e-002
3.068320e+003;5.855256e-002
3.070248e+003;5.922989e-002
3.072177e+003;6.005798e-002
3.074105e+003;6.042888e-002
3.076034e+003;6.088982e-002
3.077963e+003;6.162649e-002
3.079891e+003;6.239458e-002
3.081820e+003;6.298707e-002
3.083748e+003;6.361696e-002
3.085677e+003;6.425392e-002
3.087605e+003;6.484503e-002
3.089534e+003;6.560046e-002
3.091462e+003;6.629942e-002
3.093391e+003;6.679767e-002
3.095320e+003;6.750731e-002
3.097248e+003;6.860106e-002
3.099177e+003;6.945792e-002
3.101105e+003;6.976118e-002
3.103034e+003;7.002221e-002
3.104962e+003;7.080114e-002
3.106891e+003;7.174568e-002
3.108819e+003;7.245324e-002
3.110748e+003;7.288446e-002
3.112677e+003;7.344706e-002
3.114605e+003;7.429549e-002
3.116533e+003;7.499931e-002
3.118462e+003;7.586902e-002
3.120391e+003;7.662234e-002
3.122319e+003;7.676257e-002
3.124248e+003;7.737631e-002
3.126176e+003;7.854012e-002
3.128105e+003;7.943009e-002
3.130033e+003;8.002956e-002
3.131962e+003;8.047188e-002
3.133890e+003;8.090893e-002
3.135819e+003;8.182653e-002
3.137748e+003;8.296770e-002
3.139676e+003;8.342911e-002
3.141605e+003;8.363149e-002
3.143533e+003;8.454370e-002
3.145462e+003;8.552393e-002
3.147390e+003;8.592293e-002
3.149319e+003;8.653549e-002
3.151247e+003;8.720302e-002
3.153176e+003;8.754568e-002
3.155104e+003;8.796821e-002
3.157033e+003;8.905979e-002
3.158962e+003;9.003751e-002
3.160890e+003;9.073792e-002
3.162819e+003;9.115376e-002
3.164747e+003;9.161845e-002
3.166676e+003;9.238445e-002
3.168604e+003;9.325304e-002
3.170533e+003;9.403502e-002
3.172461e+003;9.437621e-002
3.174390e+003;9.484917e-002
3.176319e+003;9.560905e-002
3.178247e+003;9.609369e-002
3.180176e+003;9.681174e-002
3.182104e+003;9.767894e-002
3.184033e+003;9.834813e-002
3.185961e+003;9.897648e-002
3.187890e+003;9.932898e-002
3.189818e+003;9.953114e-002
3.191747e+003;9.979837e-002
3.193676e+003;1.001783e-001
3.195604e+003;1.008825e-001
3.197532e+003;1.017860e-001
3.199461e+003;1.028388e-001
3.201390e+003;1.034854e-001
3.203318e+003;1.039967e-001
3.205247e+003;1.048652e-001
3.207175e+003;1.055297e-001
3.209104e+003;1.056959e-001
3.211032e+003;1.061032e-001
3.212961e+003;1.064561e-001
3.214889e+003;1.070033e-001
3.216818e+003;1.075010e-001
3.218747e+003;1.079223e-001
3.220675e+003;1.085097e-001
3.222604e+003;1.092765e-001
3.224532e+003;1.097778e-001
3.226461e+003;1.098806e-001
3.228389e+003;1.100006e-001
3.230318e+003;1.106470e-001
3.232246e+003;1.113951e-001
3.234175e+003;1.119455e-001
3.236104e+003;1.124755e-001
3.238032e+003;1.129896e-001
3.239961e+003;1.136136e-001
3.241889e+003;1.142672e-001
3.243818e+003;1.142606e-001
3.245746e+003;1.145533e-001
3.247675e+003;1.155047e-001
3.249603e+003;1.157201e-001
3.251532e+003;1.156427e-001
3.253460e+003;1.159538e-001
3.255389e+003;1.167099e-001
3.257318e+003;1.172802e-001
3.259246e+003;1.178059e-001
3.261175e+003;1.182012e-001
3.263103e+003;1.181430e-001
3.265032e+003;1.182091e-001
3.266960e+003;1.185099e-001
3.268889e+003;1.190313e-001
3.270817e+003;1.195475e-001
3.272746e+003;1.198525e-001
3.274675e+003;1.201982e-001
3.276603e+003;1.204441e-001
3.278531e+003;1.207550e-001
3.280460e+003;1.208924e-001
3.282389e+003;1.209392e-001
3.284317e+003;1.208842e-001
3.286246e+003;1.212462e-001
3.288174e+003;1.218939e-001
3.290103e+003;1.220197e-001
3.292031e+003;1.222897e-001
3.293960e+003;1.226442e-001
3.295888e+003;1.226641e-001
3.297817e+003;1.226656e-001
3.299746e+003;1.230466e-001
3.301674e+003;1.233914e-001
3.303603e+003;1.238711e-001
3.305531e+003;1.241662e-001
3.307460e+003;1.239503e-001
3.309388e+003;1.243414e-001
3.311317e+003;1.244993e-001
3.313245e+003;1.243795e-001
3.315174e+003;1.244857e-001
3.317103e+003;1.245161e-001
3.319031e+003;1.246958e-001
3.320960e+003;1.250088e-001
3.322888e+003;1.248355e-001
3.324817e+003;1.249565e-001
3.326745e+003;1.254535e-001
3.328674e+003;1.255714e-001
3.330602e+003;1.258084e-001
3.332531e+003;1.259608e-001
3.334459e+003;1.258124e-001
3.336388e+003;1.254165e-001
3.338317e+003;1.252789e-001
3.340245e+003;1.251733e-001
3.342174e+003;1.252179e-001
3.344102e+003;1.256502e-001
3.346031e+003;1.262739e-001
3.347959e+003;1.265678e-001
3.349888e+003;1.261385e-001
3.351816e+003;1.259207e-001
3.353745e+003;1.258163e-001
3.355674e+003;1.254726e-001
3.357602e+003;1.252750e-001
3.359531e+003;1.254081e-001
3.361459e+003;1.252779e-001
3.363388e+003;1.250834e-001
3.365316e+003;1.246672e-001
3.367245e+003;1.240047e-001
3.369173e+003;1.239581e-001
3.371102e+003;1.244576e-001
3.373031e+003;1.244730e-001
3.374959e+003;1.240918e-001
3.376887e+003;1.237785e-001
3.378816e+003;1.236746e-001
3.380745e+003;1.232950e-001
3.382673e+003;1.229300e-001
3.384602e+003;1.227153e-001
3.386530e+003;1.224269e-001
3.388459e+003;1.221915e-001
3.390387e+003;1.218017e-001
3.392316e+003;1.215108e-001
3.394244e+003;1.214725e-001
3.396173e+003;1.212583e-001
3.398102e+003;1.206447e-001
3.400030e+003;1.202098e-001
3.401959e+003;1.198415e-001
3.403887e+003;1.193798e-001
3.405816e+003;1.189823e-001
3.407744e+003;1.188755e-001
3.409673e+003;1.184406e-001
3.411601e+003;1.178153e-001
3.413530e+003;1.175688e-001
3.415458e+003;1.174061e-001
3.417387e+003;1.169722e-001
3.419316e+003;1.166553e-001
3.421244e+003;1.161949e-001
3.423173e+003;1.153058e-001
3.425101e+003;1.144935e-001
3.427030e+003;1.140721e-001
3.428958e+003;1.138457e-001
3.430887e+003;1.132330e-001
3.432815e+003;1.124431e-001
3.434744e+003;1.123079e-001
3.436673e+003;1.123040e-001
3.438601e+003;1.118173e-001
3.440530e+003;1.107863e-001
3.442458e+003;1.098228e-001
3.444387e+003;1.092130e-001
3.446315e+003;1.083250e-001
3.448244e+003;1.072673e-001
3.450172e+003;1.066972e-001
3.452101e+003;1.058980e-001
3.454030e+003;1.042949e-001
3.455958e+003;1.033821e-001
3.457886e+003;1.029437e-001
3.459815e+003;1.023121e-001
3.461744e+003;1.016154e-001
3.463672e+003;1.008333e-001
3.465601e+003;9.974463e-002
3.467529e+003;9.855982e-002
3.469458e+003;9.791323e-002
3.471386e+003;9.771890e-002
3.473315e+003;9.731100e-002
3.475243e+003;9.628125e-002
3.477172e+003;9.504052e-002
3.479101e+003;9.395164e-002
3.481029e+003;9.285558e-002
3.482958e+003;9.169730e-002
3.484886e+003;9.052014e-002
3.486815e+003;8.977293e-002
3.488743e+003;8.939753e-002
3.490672e+003;8.847559e-002
3.492600e+003;8.723283e-002
3.494529e+003;8.619039e-002
3.496458e+003;8.511421e-002
3.498386e+003;8.406462e-002
3.500315e+003;8.313823e-002
3.502243e+003;8.189690e-002
3.504172e+003;8.045027e-002
3.506100e+003;7.957381e-002
3.508029e+003;7.888019e-002
3.509957e+003;7.798021e-002
3.511886e+003;7.685625e-002
3.513814e+003;7.600312e-002
3.515743e+003;7.537062e-002
3.517672e+003;7.435282e-002
3.519600e+003;7.342108e-002
3.521529e+003;7.261625e-002
3.523457e+003;7.141151e-002
3.525386e+003;7.009848e-002
3.527314e+003;6.891886e-002
3.529243e+003;6.824154e-002
3.531171e+003;6.767580e-002
3.533100e+003;6.668829e-002
3.535029e+003;6.546098e-002
3.536957e+003;6.417667e-002
3.538885e+003;6.337413e-002
3.540814e+003;6.268009e-002
3.542743e+003;6.189475e-002
3.544671e+003;6.069228e-002
3.546600e+003;5.988508e-002
3.548528e+003;5.932226e-002
3.550457e+003;5.784194e-002
3.552385e+003;5.660760e-002
3.554314e+003;5.565226e-002
3.556242e+003;5.446457e-002
3.558171e+003;5.347348e-002
3.560100e+003;5.295775e-002
3.562028e+003;5.229397e-002
3.563957e+003;5.094485e-002
3.565885e+003;4.969322e-002
3.567814e+003;4.911298e-002
3.569742e+003;4.833974e-002
3.571671e+003;4.727909e-002
3.573599e+003;4.648093e-002
3.575528e+003;4.562641e-002
3.577457e+003;4.484028e-002
3.579385e+003;4.373635e-002
3.581314e+003;4.266439e-002
3.583242e+003;4.181365e-002
3.585171e+003;4.089355e-002
3.587099e+003;3.976313e-002
3.589028e+003;3.897053e-002
3.590956e+003;3.832065e-002
3.592885e+003;3.764401e-002
3.594813e+003;3.682999e-002
3.596742e+003;3.574912e-002
3.598671e+003;3.434050e-002
3.600599e+003;3.293154e-002
3.602528e+003;3.199377e-002
3.604456e+003;3.114355e-002
3.606385e+003;3.054581e-002
3.608313e+003;3.006390e-002
3.610242e+003;2.934629e-002
3.612170e+003;2.841290e-002
3.614099e+003;2.752852e-002
3.616028e+003;2.681205e-002
3.617956e+003;2.604054e-002
3.619885e+003;2.484166e-002
3.621813e+003;2.406390e-002
3.623742e+003;2.368275e-002
3.625670e+003;2.296676e-002
3.627599e+003;2.187203e-002
3.629527e+003;2.093226e-002
3.631456e+003;2.022005e-002
3.633385e+003;1.944363e-002
3.635313e+003;1.856942e-002
3.637241e+003;1.765108e-002
3.639170e+003;1.694155e-002
3.641099e+003;1.643206e-002
3.643027e+003;1.610135e-002
3.644956e+003;1.570249e-002
3.646884e+003;1.473955e-002
3.648813e+003;1.370316e-002
3.650741e+003;1.302606e-002
3.652670e+003;1.230137e-002
3.654598e+003;1.169673e-002
3.656527e+003;1.107631e-002
3.658456e+003;1.021629e-002
3.660384e+003;9.719104e-003
3.662313e+003;9.835375e-003
3.664241e+003;9.915573e-003
3.666170e+003;9.381378e-003
3.668098e+003;8.356974e-003
3.670027e+003;7.397529e-003
3.671955e+003;7.089220e-003
3.673884e+003;6.883959e-003
3.675813e+003;6.410371e-003
3.677741e+003;5.930581e-003
3.679669e+003;5.750813e-003
3.681598e+003;5.736644e-003
3.683527e+003;5.496484e-003
3.685455e+003;4.868534e-003
3.687384e+003;4.477208e-003
3.689312e+003;4.394025e-003
3.691241e+003;4.194885e-003
3.693169e+003;4.112257e-003
3.695098e+003;4.215862e-003
3.697026e+003;4.414375e-003
3.698955e+003;4.511892e-003
3.700884e+003;4.400116e-003
3.702812e+003;4.009279e-003
3.704741e+003;3.720208e-003
3.706669e+003;3.511656e-003
3.708598e+003;3.138337e-003
3.710526e+003;2.824865e-003
3.712455e+003;2.768873e-003
3.714383e+003;2.893805e-003
3.716312e+003;2.756602e-003
3.718240e+003;2.654745e-003
3.720169e+003;2.495522e-003
3.722098e+003;2.385631e-003
3.724026e+003;2.366940e-003
3.725955e+003;2.323633e-003
3.727883e+003;2.130701e-003
3.729812e+003;1.754241e-003
3.731740e+003;1.564422e-003
3.733669e+003;1.790505e-003
3.735597e+003;1.867401e-003
3.737526e+003;1.667420e-003
3.739455e+003;1.815326e-003
3.741383e+003;2.044869e-003
3.743312e+003;1.739703e-003
3.745240e+003;1.294686e-003
3.747169e+003;1.416003e-003
3.749097e+003;1.548161e-003
3.751026e+003;1.525084e-003
3.752954e+003;1.361422e-003
3.754883e+003;1.539116e-003
3.756812e+003;1.802150e-003
3.758740e+003;1.621721e-003
3.760668e+003;1.067963e-003
3.762597e+003;8.409272e-004
3.764526e+003;1.033121e-003
3.766454e+003;1.505966e-003
3.768383e+003;1.599506e-003
3.770311e+003;9.932675e-004
3.772240e+003;6.257562e-004
3.774168e+003;8.575266e-004
3.776097e+003;1.231913e-003
3.778025e+003;1.299637e-003
3.779954e+003;1.402839e-003
3.781883e+003;1.289834e-003
3.783811e+003;1.026711e-003
3.785740e+003;8.323621e-004
3.787668e+003;1.029302e-003
3.789597e+003;1.302063e-003
3.791525e+003;9.371796e-004
3.793454e+003;8.834230e-004
3.795382e+003;6.832973e-004
3.797311e+003;2.964520e-004
3.799240e+003;5.979175e-004
3.801168e+003;5.970881e-004
3.803097e+003;4.594476e-004
3.805025e+003;4.962337e-004
3.806954e+003;2.679382e-004
3.808882e+003;4.142073e-004
3.810811e+003;4.693985e-004
3.812739e+003;4.141741e-004
3.814668e+003;5.676256e-004
3.816596e+003;8.111162e-004
3.818525e+003;7.941865e-004
3.820454e+003;5.072138e-004
3.822382e+003;3.863159e-004
3.824311e+003;3.206239e-004
3.826239e+003;2.511955e-004
3.828168e+003;2.582904e-004
3.830096e+003;3.572987e-004
3.832025e+003;6.072411e-004
3.833953e+003;6.558200e-004
3.835882e+003;8.679846e-004
3.837811e+003;1.041126e-003
3.839739e+003;8.862120e-004
3.841667e+003;6.702553e-004
3.843596e+003;8.113817e-004
3.845525e+003;8.131411e-004
3.847453e+003;5.785742e-004
3.849382e+003;7.466876e-004
3.851310e+003;4.696638e-004
3.853239e+003;1.072018e-004
3.855167e+003;1.847284e-004
3.857096e+003;5.919453e-004
3.859024e+003;8.115809e-004
3.860953e+003;9.564393e-004
3.862882e+003;7.799131e-004
3.864810e+003;6.159013e-004
3.866739e+003;9.838692e-004
3.868667e+003;1.400911e-003
3.870596e+003;1.263614e-003
3.872524e+003;1.110282e-003
3.874453e+003;7.830333e-004
3.876381e+003;5.319281e-004
3.878310e+003;6.467608e-004
3.880239e+003;7.455259e-004
3.882167e+003;1.055042e-003
3.884096e+003;1.401177e-003
3.886024e+003;1.648162e-003
3.887953e+003;1.730289e-003
3.889881e+003;1.226331e-003
3.891810e+003;7.645779e-004
3.893738e+003;5.037638e-004
3.895667e+003;2.807360e-004
3.897595e+003;7.653082e-004
3.899524e+003;1.159648e-003
3.901453e+003;1.068428e-003
3.903381e+003;1.145861e-003
3.905310e+003;1.407393e-003
3.907238e+003;1.386452e-003
3.909167e+003;1.477938e-003
3.911095e+003;1.324231e-003
3.913024e+003;8.842531e-004
3.914952e+003;1.328319e-003
3.916881e+003;1.593952e-003
3.918810e+003;1.478569e-003
3.920738e+003;1.830898e-003
3.922667e+003;2.025428e-003
3.924595e+003;1.958290e-003
3.926524e+003;1.757535e-003
3.928452e+003;1.836688e-003
3.930381e+003;2.051394e-003
3.932309e+003;2.434009e-003
3.934238e+003;2.798619e-003
3.936167e+003;2.427278e-003
3.938095e+003;1.980357e-003
3.940023e+003;1.997600e-003
3.941952e+003;2.183346e-003
3.943881e+003;2.028324e-003
3.945809e+003;2.111688e-003
3.947738e+003;2.288324e-003
3.949666e+003;2.162001e-003
3.951595e+003;2.282828e-003
3.953523e+003;2.397491e-003
3.955452e+003;1.820317e-003
3.957380e+003;1.353911e-003
3.959309e+003;1.841479e-003
3.961238e+003;2.252252e-003
3.963166e+003;2.142488e-003
3.965095e+003;1.780391e-003
3.967023e+003;1.680758e-003
3.968952e+003;2.093376e-003
3.970880e+003;2.448304e-003
3.972809e+003;2.700453e-003
3.974737e+003;2.655278e-003
3.976666e+003;2.498189e-003
3.978594e+003;2.383765e-003
3.980523e+003;1.969373e-003
3.982452e+003;2.048898e-003
3.984380e+003;2.234666e-003
3.986309e+003;1.865837e-003
3.988237e+003;1.737109e-003
3.990166e+003;1.764388e-003
3.992094e+003;2.189840e-003
3.994023e+003;2.448237e-003
3.995951e+003;2.174122e-003
3.997880e+003;2.009050e-003
3.999809e+003;2.504820e-003
4.001737e+003;0.000000e+000
