3.992094e+002;0.000000e+000
4.011380e+002;0.000000e+000
4.030665e+002;0.000000e+000
4.049951e+002;0.000000e+000
4.069236e+002;0.000000e+000
4.088522e+002;0.000000e+000
4.107807e+002;0.000000e+000
4.127093e+002;0.000000e+000
4.146378e+002;0.000000e+000
4.165664e+002;0.000000e+000
4.184949e+002;0.000000e+000
4.204235e+002;0.000000e+000
4.223520e+002;0.000000e+000
4.242806e+002;0.000000e+000
4.262091e+002;0.000000e+000
4.281377e+002;0.000000e+000
4.300662e+002;0.000000e+000
4.319948e+002;0.000000e+000
4.339233e+002;0.000000e+000
4.358519e+002;0.000000e+000
4.377804e+002;0.000000e+000
4.397090e+002;0.000000e+000
4.416375e+002;0.000000e+000
4.435660e+002;0.000000e+000
4.454946e+002;0.000000e+000
4.474232e+002;0.000000e+000
4.493517e+002;0.000000e+000
4.512802e+002;0.000000e+000
4.532088e+002;0.000000e+000
4.551373e+002;0.000000e+000
4.570659e+002;0.000000e+000
4.589944e+002;0.000000e+000
4.609230e+002;0.000000e+000
4.628515e+002;0.000000e+000
4.647801e+002;0.000000e+000
4.667086e+002;0.000000e+000
4.686372e+002;0.000000e+000
4.705657e+002;0.000000e+000
4.724943e+002;0.000000e+000
4.744228e+002;0.000000e+000
4.763513e+002;0.000000e+000
4.782799e+002;0.000000e+000
4.802085e+002;0.000000e+000
4.821370e+002;0.000000e+000
4.840656e+002;0.000000e+000
4.859941e+002;0.000000e+000
4.879226e+002;0.000000e+000
4.898512e+002;0.000000e+000
4.917798e+002;0.000000e+000
4.937083e+002;0.000000e+000
4.956368e+002;0.000000e+000
4.975654e+002;0.000000e+000
4.994939e+002;0.000000e+000
5.014225e+002;0.000000e+000
5.033510e+002;0.000000e+000
5.052796e+002;0.000000e+000
5.072081e+002;0.000000e+000
5.091367e+002;0.000000e+000
5.110652e+002;0.000000e+000
5.129938e+002;0.000000e+000
5.149223e+002;0.000000e+000
5.168509e+002;0.000000e+000
5.187794e+002;0.000000e+000
5.207079e+002;0.000000e+000
5.226365e+002;0.000000e+000
5.245651e+002;0.000000e+000
5.264936e+002;0.000000e+000
5.284222e+002;0.000000e+000
5.303507e+002;0.000000e+000
5.322792e+002;0.000000e+000
5.342078e+002;0.000000e+000
5.361364e+002;0.000000e+000
5.380649e+002;0.000000e+000
5.399935e+002;0.000000e+000
5.419220e+002;0.000000e+000
5.438505e+002;0.000000e+000
5.457791e+002;0.000000e+000
5.477076e+002;0.000000e+000
5.496362e+002;0.000000e+000
5.515648e+002;0.000000e+000
5.534933e+002;0.000000e+000
5.554218e+002;0.000000e+000
5.573504e+002;0.000000e+000
5.592789e+002;0.000000e+000
5.612075e+002;0.000000e+000
5.631360e+002;0.000000e+000
5.650646e+002;0.000000e+000
5.669931e+002;0.000000e+000
5.689217e+002;0.000000e+000
5.708502e+002;0.000000e+000
5.727787e+002;0.000000e+000
5.747073e+002;0.000000e+000
5.766359e+002;0.000000e+000
5.785644e+002;0.000000e+000
5.804930e+002;0.000000e+000
5.824215e+002;0.000000e+000
5.843500e+002;0.000000e+000
5.862786e+002;0.000000e+000
5.882072e+002;0.000000e+000
5.901357e+002;0.000000e+000
5.920643e+002;0.000000e+000
5.939928e+002;0.000000e+000
5.959213e+002;0.000000e+000
5.978499e+002;0.000000e+000
5.997784e+002;2.087571e-001
6.017070e+002;2.055018e-001
6.036355e+002;1.997266e-001
6.055641e+002;2.017163e-001
6.074926e+002;2.100418e-001
6.094211e+002;2.143441e-001
6.113497e+002;2.086810e-001
6.132783e+002;2.012188e-001
6.152068e+002;1.997716e-001
6.171354e+002;1.977724e-001
6.190639e+002;1.968964e-001
6.209924e+002;1.959101e-001
6.229210e+002;1.939901e-001
6.248495e+002;1.953033e-001
6.267781e+002;1.947310e-001
6.287067e+002;1.915516e-001
6.306352e+002;1.909100e-001
6.325637e+002;1.884273e-001
6.344923e+002;1.838356e-001
6.364208e+002;1.836001e-001
6.383494e+002;1.849269e-001
6.402780e+002;1.819883e-001
6.422065e+002;1.798767e-001
6.441350e+002;1.808941e-001
6.460636e+002;1.817590e-001
6.479921e+002;1.816795e-001
6.499207e+002;1.842004e-001
6.518492e+002;1.874798e-001
6.537778e+002;1.887415e-001
6.557063e+002;1.902744e-001
6.576349e+002;1.907844e-001
6.595634e+002;1.931387e-001
6.614919e+002;1.959348e-001
6.634205e+002;1.991285e-001
6.653491e+002;2.000128e-001
6.672776e+002;1.983068e-001
6.692062e+002;1.978395e-001
6.711347e+002;1.959586e-001
6.730632e+002;1.902260e-001
6.749918e+002;1.821442e-001
6.769203e+002;1.730044e-001
6.788489e+002;1.644790e-001
6.807775e+002;1.583316e-001
6.827060e+002;1.539220e-001
6.846345e+002;1.512424e-001
6.865631e+002;1.492056e-001
6.884916e+002;1.478675e-001
6.904202e+002;1.472645e-001
6.923488e+002;1.464694e-001
6.942773e+002;1.466114e-001
6.962058e+002;1.470496e-001
6.981344e+002;1.471173e-001
7.000629e+002;1.465867e-001
7.019915e+002;1.458247e-001
7.039200e+002;1.450569e-001
7.058486e+002;1.446528e-001
7.077771e+002;1.442647e-001
7.097057e+002;1.430061e-001
7.116342e+002;1.419713e-001
7.135627e+002;1.417484e-001
7.154913e+002;1.408671e-001
7.174199e+002;1.395509e-001
7.193484e+002;1.391088e-001
7.212770e+002;1.390142e-001
7.232055e+002;1.375473e-001
7.251340e+002;1.354879e-001
7.270626e+002;1.341270e-001
7.289911e+002;1.329275e-001
7.309197e+002;1.322680e-001
7.328483e+002;1.320991e-001
7.347768e+002;1.317247e-001
7.367053e+002;1.310371e-001
7.386339e+002;1.301816e-001
7.405624e+002;1.292703e-001
7.424910e+002;1.284680e-001
7.444196e+002;1.284474e-001
7.463481e+002;1.283724e-001
7.482766e+002;1.272763e-001
7.502052e+002;1.253883e-001
7.521337e+002;1.241799e-001
7.540623e+002;1.234078e-001
7.559908e+002;1.222723e-001
7.579194e+002;1.212590e-001
7.598479e+002;1.210175e-001
7.617765e+002;1.214290e-001
7.637050e+002;1.213127e-001
7.656335e+002;1.203855e-001
7.675621e+002;1.189254e-001
7.694907e+002;1.180030e-001
7.714192e+002;1.174490e-001
7.733478e+002;1.168962e-001
7.752763e+002;1.163468e-001
7.772048e+002;1.155988e-001
7.791334e+002;1.149783e-001
7.810620e+002;1.153615e-001
7.829905e+002;1.152389e-001
7.849191e+002;1.143129e-001
7.868476e+002;1.132510e-001
7.887761e+002;1.133333e-001
7.907047e+002;1.137481e-001
7.926332e+002;1.133085e-001
7.945618e+002;1.129262e-001
7.964903e+002;1.127982e-001
7.984189e+002;1.127346e-001
8.003474e+002;1.126566e-001
8.022759e+002;1.123702e-001
8.042045e+002;1.111127e-001
8.061331e+002;1.101152e-001
8.080616e+002;1.112751e-001
8.099902e+002;1.118531e-001
8.119187e+002;1.116055e-001
8.138472e+002;1.116340e-001
8.157758e+002;1.112903e-001
8.177043e+002;1.111842e-001
8.196329e+002;1.109844e-001
8.215615e+002;1.110347e-001
8.234900e+002;1.115754e-001
8.254185e+002;1.117410e-001
8.273471e+002;1.116354e-001
8.292756e+002;1.118621e-001
8.312042e+002;1.114878e-001
8.331328e+002;1.106009e-001
8.350613e+002;1.105680e-001
8.369898e+002;1.107732e-001
8.389184e+002;1.107823e-001
8.408469e+002;1.100446e-001
8.427755e+002;1.096079e-001
8.447040e+002;1.100013e-001
8.466326e+002;1.103139e-001
8.485611e+002;1.098462e-001
8.504897e+002;1.095057e-001
8.524182e+002;1.100938e-001
8.543467e+002;1.108912e-001
8.562753e+002;1.114273e-001
8.582039e+002;1.109358e-001
8.601324e+002;1.101200e-001
8.620610e+002;1.103954e-001
8.639895e+002;1.114461e-001
8.659180e+002;1.122460e-001
8.678466e+002;1.130474e-001
8.697751e+002;1.139817e-001
8.717037e+002;1.155057e-001
8.736323e+002;1.172839e-001
8.755608e+002;1.192159e-001
8.774893e+002;1.217644e-001
8.794179e+002;1.248056e-001
8.813464e+002;1.280305e-001
8.832750e+002;1.317279e-001
8.852036e+002;1.356345e-001
8.871321e+002;1.395799e-001
8.890606e+002;1.436388e-001
8.909892e+002;1.469705e-001
8.929177e+002;1.491167e-001
8.948463e+002;1.502374e-001
8.967748e+002;1.491488e-001
8.987034e+002;1.463671e-001
9.006319e+002;1.433371e-001
9.025605e+002;1.398249e-001
9.044890e+002;1.366713e-001
9.064175e+002;1.343462e-001
9.083461e+002;1.320247e-001
9.102747e+002;1.298857e-001
9.122032e+002;1.279121e-001
9.141318e+002;1.264139e-001
9.160603e+002;1.260999e-001
9.179888e+002;1.261671e-001
9.199174e+002;1.264666e-001
9.218459e+002;1.268061e-001
9.237745e+002;1.274455e-001
9.257031e+002;1.282801e-001
9.276316e+002;1.288111e-001
9.295601e+002;1.298690e-001
9.314887e+002;1.311883e-001
9.334172e+002;1.324448e-001
9.353458e+002;1.336356e-001
9.372744e+002;1.343319e-001
9.392029e+002;1.353468e-001
9.411314e+002;1.368772e-001
9.430600e+002;1.384313e-001
9.449885e+002;1.398670e-001
9.469171e+002;1.418738e-001
9.488456e+002;1.444465e-001
9.507742e+002;1.472697e-001
9.527027e+002;1.501115e-001
9.546313e+002;1.530145e-001
9.565598e+002;1.563721e-001
9.584883e+002;1.601507e-001
9.604169e+002;1.638974e-001
9.623455e+002;1.673608e-001
9.642740e+002;1.705952e-001
9.662026e+002;1.738453e-001
9.681311e+002;1.776757e-001
9.700596e+002;1.812952e-001
9.719882e+002;1.849333e-001
9.739167e+002;1.895906e-001
9.758453e+002;1.955809e-001
9.777739e+002;2.026147e-001
9.797024e+002;2.107368e-001
9.816309e+002;2.199870e-001
9.835595e+002;2.297508e-001
9.854880e+002;2.401246e-001
9.874166e+002;2.502607e-001
9.893452e+002;2.596699e-001
9.912737e+002;2.689272e-001
9.932022e+002;2.764862e-001
9.951307e+002;2.825212e-001
9.970593e+002;2.873843e-001
9.989879e+002;2.906161e-001
1.000916e+003;2.929618e-001
1.002845e+003;2.952261e-001
1.004773e+003;2.974017e-001
1.006702e+003;3.003362e-001
1.008631e+003;3.043177e-001
1.010559e+003;3.089898e-001
1.012488e+003;3.150020e-001
1.014416e+003;3.214399e-001
1.016345e+003;3.268802e-001
1.018273e+003;3.310797e-001
1.020202e+003;3.343360e-001
1.022130e+003;3.361885e-001
1.024059e+003;3.367946e-001
1.025988e+003;3.363146e-001
1.027916e+003;3.341495e-001
1.029845e+003;3.309426e-001
1.031773e+003;3.268289e-001
1.033702e+003;3.223148e-001
1.035630e+003;3.182078e-001
1.037559e+003;3.141602e-001
1.039487e+003;3.107451e-001
1.041416e+003;3.090505e-001
1.043344e+003;3.076805e-001
1.045273e+003;3.050733e-001
1.047202e+003;3.021514e-001
1.049130e+003;3.002412e-001
1.051059e+003;2.986543e-001
1.052987e+003;2.967460e-001
1.054916e+003;2.942996e-001
1.056844e+003;2.912397e-001
1.058773e+003;2.877277e-001
1.060701e+003;2.832382e-001
1.062630e+003;2.776961e-001
1.064558e+003;2.722569e-001
1.066487e+003;2.670642e-001
1.068416e+003;2.627783e-001
1.070344e+003;2.605668e-001
1.072273e+003;2.583809e-001
1.074201e+003;2.554290e-001
1.076130e+003;2.526223e-001
1.078058e+003;2.495102e-001
1.079987e+003;2.468687e-001
1.081915e+003;2.444393e-001
1.083844e+003;2.415203e-001
1.085773e+003;2.375526e-001
1.087701e+003;2.326602e-001
1.089630e+003;2.283556e-001
1.091558e+003;2.242590e-001
1.093487e+003;2.198930e-001
1.095415e+003;2.154199e-001
1.097344e+003;2.101638e-001
1.099272e+003;2.046227e-001
1.101201e+003;1.999322e-001
1.103129e+003;1.950485e-001
1.105058e+003;1.909010e-001
1.106987e+003;1.885676e-001
1.108915e+003;1.872640e-001
1.110844e+003;1.856061e-001
1.112772e+003;1.836243e-001
1.114701e+003;1.810383e-001
1.116629e+003;1.782092e-001
1.118558e+003;1.749425e-001
1.120486e+003;1.709016e-001
1.122415e+003;1.667442e-001
1.124344e+003;1.626971e-001
1.126272e+003;1.582633e-001
1.128201e+003;1.538607e-001
1.130129e+003;1.501600e-001
1.132058e+003;1.467250e-001
1.133986e+003;1.434212e-001
1.135915e+003;1.406839e-001
1.137843e+003;1.387810e-001
1.139772e+003;1.369921e-001
1.141700e+003;1.361936e-001
1.143629e+003;1.367128e-001
1.145557e+003;1.375505e-001
1.147486e+003;1.387326e-001
1.149415e+003;1.403286e-001
1.151343e+003;1.423154e-001
1.153272e+003;1.442309e-001
1.155200e+003;1.454983e-001
1.157129e+003;1.462413e-001
1.159057e+003;1.455531e-001
1.160986e+003;1.427361e-001
1.162914e+003;1.389035e-001
1.164843e+003;1.347685e-001
1.166771e+003;1.299784e-001
1.168700e+003;1.252273e-001
1.170629e+003;1.212252e-001
1.172557e+003;1.176579e-001
1.174486e+003;1.144734e-001
1.176414e+003;1.116067e-001
1.178343e+003;1.091537e-001
1.180271e+003;1.075865e-001
1.182200e+003;1.067037e-001
1.184128e+003;1.066487e-001
1.186057e+003;1.068976e-001
1.187986e+003;1.076025e-001
1.189914e+003;1.092850e-001
1.191843e+003;1.115263e-001
1.193771e+003;1.137498e-001
1.195700e+003;1.156715e-001
1.197628e+003;1.162419e-001
1.199557e+003;1.156669e-001
1.201485e+003;1.141370e-001
1.203414e+003;1.120551e-001
1.205343e+003;1.101847e-001
1.207271e+003;1.086405e-001
1.209200e+003;1.075671e-001
1.211128e+003;1.072200e-001
1.213057e+003;1.073832e-001
1.214985e+003;1.080106e-001
1.216914e+003;1.092360e-001
1.218842e+003;1.106926e-001
1.220771e+003;1.126660e-001
1.222699e+003;1.147948e-001
1.224628e+003;1.161702e-001
1.226557e+003;1.165202e-001
1.228485e+003;1.164522e-001
1.230414e+003;1.163649e-001
1.232342e+003;1.159275e-001
1.234271e+003;1.152699e-001
1.236199e+003;1.151099e-001
1.238128e+003;1.148837e-001
1.240056e+003;1.143157e-001
1.241985e+003;1.136557e-001
1.243913e+003;1.130214e-001
1.245842e+003;1.128049e-001
1.247771e+003;1.131330e-001
1.249699e+003;1.136505e-001
1.251628e+003;1.140529e-001
1.253556e+003;1.147987e-001
1.255485e+003;1.158560e-001
1.257413e+003;1.167722e-001
1.259342e+003;1.171447e-001
1.261270e+003;1.167493e-001
1.263199e+003;1.159636e-001
1.265127e+003;1.150238e-001
1.267056e+003;1.140849e-001
1.268985e+003;1.133260e-001
1.270913e+003;1.127098e-001
1.272842e+003;1.118585e-001
1.274770e+003;1.112686e-001
1.276699e+003;1.112080e-001
1.278627e+003;1.109012e-001
1.280556e+003;1.104225e-001
1.282484e+003;1.097781e-001
1.284413e+003;1.094397e-001
1.286342e+003;1.098297e-001
1.288270e+003;1.107098e-001
1.290199e+003;1.120325e-001
1.292127e+003;1.132721e-001
1.294056e+003;1.144032e-001
1.295984e+003;1.156461e-001
1.297913e+003;1.167492e-001
1.299841e+003;1.178102e-001
1.301770e+003;1.189337e-001
1.303698e+003;1.201974e-001
1.305627e+003;1.221860e-001
1.307556e+003;1.245553e-001
1.309484e+003;1.261841e-001
1.311413e+003;1.269660e-001
1.313341e+003;1.271790e-001
1.315270e+003;1.271326e-001
1.317198e+003;1.263520e-001
1.319127e+003;1.246672e-001
1.321055e+003;1.227743e-001
1.322984e+003;1.214904e-001
1.324912e+003;1.206423e-001
1.326841e+003;1.202410e-001
1.328770e+003;1.203549e-001
1.330698e+003;1.205024e-001
1.332627e+003;1.208627e-001
1.334555e+003;1.209835e-001
1.336484e+003;1.207749e-001
1.338412e+003;1.202137e-001
1.340341e+003;1.194821e-001
1.342269e+003;1.188523e-001
1.344198e+003;1.183280e-001
1.346126e+003;1.178328e-001
1.348055e+003;1.176339e-001
1.349984e+003;1.176173e-001
1.351912e+003;1.178571e-001
1.353841e+003;1.185719e-001
1.355769e+003;1.194784e-001
1.357698e+003;1.204232e-001
1.359626e+003;1.212459e-001
1.361555e+003;1.219360e-001
1.363483e+003;1.222493e-001
1.365412e+003;1.222096e-001
1.367341e+003;1.218668e-001
1.369269e+003;1.210739e-001
1.371198e+003;1.200678e-001
1.373126e+003;1.187902e-001
1.375055e+003;1.174972e-001
1.376983e+003;1.162005e-001
1.378912e+003;1.142941e-001
1.380840e+003;1.120534e-001
1.382769e+003;1.101634e-001
1.384698e+003;1.086722e-001
1.386626e+003;1.073371e-001
1.388555e+003;1.063946e-001
1.390483e+003;1.059933e-001
1.392412e+003;1.057584e-001
1.394340e+003;1.055442e-001
1.396269e+003;1.053266e-001
1.398197e+003;1.049745e-001
1.400126e+003;1.046475e-001
1.402054e+003;1.042330e-001
1.403983e+003;1.040175e-001
1.405911e+003;1.041171e-001
1.407840e+003;1.041680e-001
1.409769e+003;1.041751e-001
1.411697e+003;1.042167e-001
1.413626e+003;1.041472e-001
1.415554e+003;1.040313e-001
1.417483e+003;1.038841e-001
1.419411e+003;1.037588e-001
1.421340e+003;1.036001e-001
1.423268e+003;1.034810e-001
1.425197e+003;1.035301e-001
1.427125e+003;1.034483e-001
1.429054e+003;1.032586e-001
1.430983e+003;1.029941e-001
1.432911e+003;1.028584e-001
1.434840e+003;1.025052e-001
1.436768e+003;1.019112e-001
1.438697e+003;1.015838e-001
1.440625e+003;1.013089e-001
1.442554e+003;1.008924e-001
1.444482e+003;1.000809e-001
1.446411e+003;9.909327e-002
1.448340e+003;9.840050e-002
1.450268e+003;9.782863e-002
1.452197e+003;9.747954e-002
1.454125e+003;9.723124e-002
1.456054e+003;9.656435e-002
1.457982e+003;9.629565e-002
1.459911e+003;9.645946e-002
1.461839e+003;9.590448e-002
1.463768e+003;9.499149e-002
1.465697e+003;9.456421e-002
1.467625e+003;9.430057e-002
1.469554e+003;9.352443e-002
1.471482e+003;9.236232e-002
1.473411e+003;9.147518e-002
1.475339e+003;9.069738e-002
1.477268e+003;8.966950e-002
1.479196e+003;8.858833e-002
1.481125e+003;8.763247e-002
1.483053e+003;8.675032e-002
1.484982e+003;8.587536e-002
1.486911e+003;8.503123e-002
1.488839e+003;8.431710e-002
1.490768e+003;8.364061e-002
1.492696e+003;8.279518e-002
1.494625e+003;8.186342e-002
1.496553e+003;8.122864e-002
1.498482e+003;8.088303e-002
1.500410e+003;8.044568e-002
1.502339e+003;8.015268e-002
1.504267e+003;7.978076e-002
1.506196e+003;7.903943e-002
1.508125e+003;7.880720e-002
1.510053e+003;7.873069e-002
1.511982e+003;7.837202e-002
1.513910e+003;7.799412e-002
1.515839e+003;7.774316e-002
1.517767e+003;7.765686e-002
1.519696e+003;7.732729e-002
1.521624e+003;7.692076e-002
1.523553e+003;7.686131e-002
1.525481e+003;7.662487e-002
1.527410e+003;7.649627e-002
1.529339e+003;7.638603e-002
1.531267e+003;7.622705e-002
1.533196e+003;7.611708e-002
1.535124e+003;7.604689e-002
1.537053e+003;7.599072e-002
1.538981e+003;7.556651e-002
1.540910e+003;7.535485e-002
1.542838e+003;7.517695e-002
1.544767e+003;7.500833e-002
1.546695e+003;7.526106e-002
1.548624e+003;7.524798e-002
1.550553e+003;7.508284e-002
1.552481e+003;7.492914e-002
1.554410e+003;7.495174e-002
1.556338e+003;7.493197e-002
1.558267e+003;7.451347e-002
1.560195e+003;7.452504e-002
1.562124e+003;7.514992e-002
1.564052e+003;7.559731e-002
1.565981e+003;7.579523e-002
1.567910e+003;7.603568e-002
1.569838e+003;7.625280e-002
1.571767e+003;7.656088e-002
1.573695e+003;7.664017e-002
1.575624e+003;7.648422e-002
1.577552e+003;7.669235e-002
1.579481e+003;7.708850e-002
1.581409e+003;7.741495e-002
1.583338e+003;7.774685e-002
1.585266e+003;7.805147e-002
1.587195e+003;7.816363e-002
1.589124e+003;7.853024e-002
1.591052e+003;7.901713e-002
1.592981e+003;7.954575e-002
1.594909e+003;8.003554e-002
1.596838e+003;8.010634e-002
1.598766e+003;8.009064e-002
1.600695e+003;8.040939e-002
1.602623e+003;8.068572e-002
1.604552e+003;8.084539e-002
1.606480e+003;8.097065e-002
1.608409e+003;8.123979e-002
1.610338e+003;8.147188e-002
1.612266e+003;8.166891e-002
1.614195e+003;8.155951e-002
1.616123e+003;8.130683e-002
1.618052e+003;8.161292e-002
1.619980e+003;8.215973e-002
1.621909e+003;8.236964e-002
1.623837e+003;8.264526e-002
1.625766e+003;8.303296e-002
1.627694e+003;8.359618e-002
1.629623e+003;8.386767e-002
1.631552e+003;8.407644e-002
1.633480e+003;8.427472e-002
1.635409e+003;8.416697e-002
1.637337e+003;8.428820e-002
1.639266e+003;8.462028e-002
1.641194e+003;8.428768e-002
1.643123e+003;8.375237e-002
1.645051e+003;8.326143e-002
1.646980e+003;8.291423e-002
1.648909e+003;8.254207e-002
1.650837e+003;8.180053e-002
1.652766e+003;8.101410e-002
1.654694e+003;8.081724e-002
1.656623e+003;8.069969e-002
1.658551e+003;8.039951e-002
1.660480e+003;8.006383e-002
1.662408e+003;7.948360e-002
1.664337e+003;7.891262e-002
1.666266e+003;7.842337e-002
1.668194e+003;7.777673e-002
1.670123e+003;7.689402e-002
1.672051e+003;7.604653e-002
1.673980e+003;7.531324e-002
1.675908e+003;7.458074e-002
1.677837e+003;7.396559e-002
1.679765e+003;7.332845e-002
1.681694e+003;7.260098e-002
1.683622e+003;7.192524e-002
1.685551e+003;7.150474e-002
1.687479e+003;7.105261e-002
1.689408e+003;7.054470e-002
1.691337e+003;7.005671e-002
1.693265e+003;6.951834e-002
1.695194e+003;6.889619e-002
1.697122e+003;6.843776e-002
1.699051e+003;6.803229e-002
1.700979e+003;6.786580e-002
1.702908e+003;6.785852e-002
1.704836e+003;6.757591e-002
1.706765e+003;6.723410e-002
1.708693e+003;6.680977e-002
1.710622e+003;6.656943e-002
1.712551e+003;6.638775e-002
1.714479e+003;6.591044e-002
1.716408e+003;6.530629e-002
1.718336e+003;6.504142e-002
1.720265e+003;6.514189e-002
1.722193e+003;6.512560e-002
1.724122e+003;6.498551e-002
1.726050e+003;6.487280e-002
1.727979e+003;6.471029e-002
1.729908e+003;6.435831e-002
1.731836e+003;6.388945e-002
1.733765e+003;6.343076e-002
1.735693e+003;6.345715e-002
1.737622e+003;6.338582e-002
1.739550e+003;6.280547e-002
1.741479e+003;6.209818e-002
1.743407e+003;6.183476e-002
1.745336e+003;6.193865e-002
1.747265e+003;6.188114e-002
1.749193e+003;6.167216e-002
1.751122e+003;6.163638e-002
1.753050e+003;6.180000e-002
1.754979e+003;6.201814e-002
1.756907e+003;6.208469e-002
1.758836e+003;6.207773e-002
1.760764e+003;6.194350e-002
1.762693e+003;6.183977e-002
1.764621e+003;6.204215e-002
1.766550e+003;6.200274e-002
1.768479e+003;6.196265e-002
1.770407e+003;6.205510e-002
1.772336e+003;6.207922e-002
1.774264e+003;6.223341e-002
1.776193e+003;6.238594e-002
1.778121e+003;6.229253e-002
1.780050e+003;6.204291e-002
1.781978e+003;6.193995e-002
1.783907e+003;6.193491e-002
1.785835e+003;6.191168e-002
1.787764e+003;6.205468e-002
1.789693e+003;6.217648e-002
1.791621e+003;6.203890e-002
1.793550e+003;6.206137e-002
1.795478e+003;6.218294e-002
1.797407e+003;6.214341e-002
1.799335e+003;6.204689e-002
1.801264e+003;6.198566e-002
1.803192e+003;6.194278e-002
1.805121e+003;6.190678e-002
1.807049e+003;6.199124e-002
1.808978e+003;6.192906e-002
1.810907e+003;6.170287e-002
1.812835e+003;6.157731e-002
1.814764e+003;6.168025e-002
1.816692e+003;6.187316e-002
1.818621e+003;6.204830e-002
1.820549e+003;6.208771e-002
1.822478e+003;6.205377e-002
1.824406e+003;6.199853e-002
1.826335e+003;6.199108e-002
1.828264e+003;6.187973e-002
1.830192e+003;6.174671e-002
1.832121e+003;6.177765e-002
1.834049e+003;6.166460e-002
1.835978e+003;6.165837e-002
1.837906e+003;6.170107e-002
1.839835e+003;6.173594e-002
1.841763e+003;6.173392e-002
1.843692e+003;6.154619e-002
1.845620e+003;6.157413e-002
1.847549e+003;6.167178e-002
1.849478e+003;6.192795e-002
1.851406e+003;6.203737e-002
1.853335e+003;6.172907e-002
1.855263e+003;6.155340e-002
1.857192e+003;6.174595e-002
1.859120e+003;6.175676e-002
1.861049e+003;6.169015e-002
1.862977e+003;6.155233e-002
1.864906e+003;6.168224e-002
1.866834e+003;6.189311e-002
1.868763e+003;6.165696e-002
1.870692e+003;6.138953e-002
1.872620e+003;6.146900e-002
1.874549e+003;6.159957e-002
1.876477e+003;6.163535e-002
1.878406e+003;6.155001e-002
1.880334e+003;6.141232e-002
1.882263e+003;6.151691e-002
1.884191e+003;6.186399e-002
1.886120e+003;6.201658e-002
1.888048e+003;6.178392e-002
1.889977e+003;6.161622e-002
1.891906e+003;6.160205e-002
1.893834e+003;6.164485e-002
1.895763e+003;6.166834e-002
1.897691e+003;6.165073e-002
1.899620e+003;6.162798e-002
1.901548e+003;6.164207e-002
1.903477e+003;6.174037e-002
1.905405e+003;6.185918e-002
1.907334e+003;6.193667e-002
1.909262e+003;6.194553e-002
1.911191e+003;6.193903e-002
1.913120e+003;6.197358e-002
1.915048e+003;6.205766e-002
1.916977e+003;6.195291e-002
1.918905e+003;6.192829e-002
1.920834e+003;6.195501e-002
1.922762e+003;6.216115e-002
1.924691e+003;6.240793e-002
1.926619e+003;6.254189e-002
1.928548e+003;6.246421e-002
1.930477e+003;6.226752e-002
1.932405e+003;6.236264e-002
1.934334e+003;6.248625e-002
1.936262e+003;6.249291e-002
1.938191e+003;6.256147e-002
1.940119e+003;6.276339e-002
1.942048e+003;6.263825e-002
1.943976e+003;6.240736e-002
1.945905e+003;6.234780e-002
1.947833e+003;6.232336e-002
1.949762e+003;6.245686e-002
1.951691e+003;6.274448e-002
1.953619e+003;6.306545e-002
1.955548e+003;6.319945e-002
1.957476e+003;6.319845e-002
1.959405e+003;6.315093e-002
1.961333e+003;6.319588e-002
1.963262e+003;6.318002e-002
1.965190e+003;6.314649e-002
1.967119e+003;6.314568e-002
1.969047e+003;6.328488e-002
1.970976e+003;6.329351e-002
1.972905e+003;6.325886e-002
1.974833e+003;6.337520e-002
1.976762e+003;6.356802e-002
1.978690e+003;6.349304e-002
1.980619e+003;6.341608e-002
1.982547e+003;6.349189e-002
1.984476e+003;6.365502e-002
1.986404e+003;6.366626e-002
1.988333e+003;6.363396e-002
1.990261e+003;6.368452e-002
1.992190e+003;6.366070e-002
1.994119e+003;6.348176e-002
1.996047e+003;6.349733e-002
1.997976e+003;6.366200e-002
1.999904e+003;6.368591e-002
2.001833e+003;6.379822e-002
2.003761e+003;6.401940e-002
2.005690e+003;6.403431e-002
2.007618e+003;6.397472e-002
2.009547e+003;6.398911e-002
2.011476e+003;6.407424e-002
2.013404e+003;6.425910e-002
2.015333e+003;6.432450e-002
2.017261e+003;6.426767e-002
2.019190e+003;6.441522e-002
2.021118e+003;6.451412e-002
2.023047e+003;6.439025e-002
2.024975e+003;6.428304e-002
2.026904e+003;6.413795e-002
2.028833e+003;6.412981e-002
2.030761e+003;6.442653e-002
2.032690e+003;6.459139e-002
2.034618e+003;6.450705e-002
2.036547e+003;6.442968e-002
2.038475e+003;6.460785e-002
2.040404e+003;6.471068e-002
2.042332e+003;6.461731e-002
2.044261e+003;6.447776e-002
2.046189e+003;6.462912e-002
2.048118e+003;6.465538e-002
2.050047e+003;6.442110e-002
2.051975e+003;6.456283e-002
2.053904e+003;6.480490e-002
2.055832e+003;6.467579e-002
2.057761e+003;6.462169e-002
2.059689e+003;6.454426e-002
2.061618e+003;6.435362e-002
2.063546e+003;6.449556e-002
2.065475e+003;6.473956e-002
2.067404e+003;6.481187e-002
2.069332e+003;6.475063e-002
2.071260e+003;6.457940e-002
2.073189e+003;6.451058e-002
2.075118e+003;6.442825e-002
2.077046e+003;6.426506e-002
2.078975e+003;6.435946e-002
2.080903e+003;6.453769e-002
2.082832e+003;6.450113e-002
2.084760e+003;6.432231e-002
2.086689e+003;6.431620e-002
2.088617e+003;6.434605e-002
2.090546e+003;6.433272e-002
2.092475e+003;6.441576e-002
2.094403e+003;6.437907e-002
2.096332e+003;6.450558e-002
2.098260e+003;6.456748e-002
2.100189e+003;6.450271e-002
2.102117e+003;6.442733e-002
2.104046e+003;6.422053e-002
2.105974e+003;6.419472e-002
2.107903e+003;6.424835e-002
2.109832e+003;6.431586e-002
2.111760e+003;6.436177e-002
2.113688e+003;6.445792e-002
2.115617e+003;6.463184e-002
2.117546e+003;6.452600e-002
2.119474e+003;6.426729e-002
2.121403e+003;6.426752e-002
2.123331e+003;6.435017e-002
2.125260e+003;6.451012e-002
2.127188e+003;6.446484e-002
2.129117e+003;6.433207e-002
2.131045e+003;6.459939e-002
2.132974e+003;6.460508e-002
2.134903e+003;6.435090e-002
2.136831e+003;6.420241e-002
2.138760e+003;6.427509e-002
2.140688e+003;6.429945e-002
2.142617e+003;6.417359e-002
2.144545e+003;6.406122e-002
2.146474e+003;6.406756e-002
2.148402e+003;6.427789e-002
2.150331e+003;6.435043e-002
2.152260e+003;6.396127e-002
2.154188e+003;6.371664e-002
2.156117e+003;6.392987e-002
2.158045e+003;6.421212e-002
2.159974e+003;6.410458e-002
2.161902e+003;6.389241e-002
2.163831e+003;6.392565e-002
2.165759e+003;6.415604e-002
2.167688e+003;6.420840e-002
2.169616e+003;6.395759e-002
2.171545e+003;6.385817e-002
2.173474e+003;6.409486e-002
2.175402e+003;6.411184e-002
2.177331e+003;6.395790e-002
2.179259e+003;6.373908e-002
2.181188e+003;6.359778e-002
2.183116e+003;6.364447e-002
2.185045e+003;6.372631e-002
2.186973e+003;6.372949e-002
2.188902e+003;6.351532e-002
2.190831e+003;6.331720e-002
2.192759e+003;6.339671e-002
2.194688e+003;6.342915e-002
2.196616e+003;6.327971e-002
2.198545e+003;6.321520e-002
2.200473e+003;6.323437e-002
2.202402e+003;6.321658e-002
2.204330e+003;6.324997e-002
2.206259e+003;6.332828e-002
2.208188e+003;6.325836e-002
2.210116e+003;6.315208e-002
2.212044e+003;6.302733e-002
2.213973e+003;6.312753e-002
2.215902e+003;6.324648e-002
2.217830e+003;6.323916e-002
2.219759e+003;6.318589e-002
2.221687e+003;6.339813e-002
2.223616e+003;6.356341e-002
2.225544e+003;6.343402e-002
2.227473e+003;6.320202e-002
2.229401e+003;6.309668e-002
2.231330e+003;6.321286e-002
2.233259e+003;6.323655e-002
2.235187e+003;6.315856e-002
2.237116e+003;6.300542e-002
2.239044e+003;6.293625e-002
2.240973e+003;6.285264e-002
2.242901e+003;6.277142e-002
2.244830e+003;6.291272e-002
2.246758e+003;6.310258e-002
2.248687e+003;6.301990e-002
2.250615e+003;6.285310e-002
2.252544e+003;6.269050e-002
2.254473e+003;6.248403e-002
2.256401e+003;6.243337e-002
2.258330e+003;6.258945e-002
2.260258e+003;6.266929e-002
2.262187e+003;6.260242e-002
2.264115e+003;6.264043e-002
2.266044e+003;6.265015e-002
2.267972e+003;6.247190e-002
2.269901e+003;6.232757e-002
2.271830e+003;6.234455e-002
2.273758e+003;6.224102e-002
2.275687e+003;6.214280e-002
2.277615e+003;6.221433e-002
2.279544e+003;6.225900e-002
2.281472e+003;6.234910e-002
2.283401e+003;6.241738e-002
2.285329e+003;6.228955e-002
2.287258e+003;6.203771e-002
2.289187e+003;6.179064e-002
2.291115e+003;6.162171e-002
2.293043e+003;6.173731e-002
2.294972e+003;6.187255e-002
2.296901e+003;6.200251e-002
2.298829e+003;6.211581e-002
2.300758e+003;6.221181e-002
2.302686e+003;6.231116e-002
2.304615e+003;6.226213e-002
2.306543e+003;6.220240e-002
2.308472e+003;6.208209e-002
2.310400e+003;6.214150e-002
2.312329e+003;6.218409e-002
2.314258e+003;6.208981e-002
2.316186e+003;6.206768e-002
2.318115e+003;6.199403e-002
2.320043e+003;6.196632e-002
2.321972e+003;6.202342e-002
2.323900e+003;6.221781e-002
2.325829e+003;6.214115e-002
2.327757e+003;6.190247e-002
2.329686e+003;6.186036e-002
2.331615e+003;6.199200e-002
2.333543e+003;6.214280e-002
2.335472e+003;6.229387e-002
2.337400e+003;6.222355e-002
2.339329e+003;6.205426e-002
2.341257e+003;6.202414e-002
2.343186e+003;6.228504e-002
2.345114e+003;6.254184e-002
2.347043e+003;6.247967e-002
2.348971e+003;6.259719e-002
2.350900e+003;6.268437e-002
2.352829e+003;6.267254e-002
2.354757e+003;6.261720e-002
2.356686e+003;6.256308e-002
2.358614e+003;6.259952e-002
2.360543e+003;6.265923e-002
2.362471e+003;6.267794e-002
2.364400e+003;6.284717e-002
2.366328e+003;6.293065e-002
2.368257e+003;6.281018e-002
2.370186e+003;6.294011e-002
2.372114e+003;6.301044e-002
2.374042e+003;6.274528e-002
2.375971e+003;6.265914e-002
2.377900e+003;6.297198e-002
2.379828e+003;6.313806e-002
2.381757e+003;6.314400e-002
2.383685e+003;6.296520e-002
2.385614e+003;6.283292e-002
2.387542e+003;6.291556e-002
2.389471e+003;6.300711e-002
2.391399e+003;6.308932e-002
2.393328e+003;6.320796e-002
2.395257e+003;6.315580e-002
2.397185e+003;6.316531e-002
2.399114e+003;6.330363e-002
2.401042e+003;6.342367e-002
2.402971e+003;6.348702e-002
2.404899e+003;6.334860e-002
2.406828e+003;6.346823e-002
2.408756e+003;6.380858e-002
2.410685e+003;6.366818e-002
2.412614e+003;6.354596e-002
2.414542e+003;6.364843e-002
2.416471e+003;6.363066e-002
2.418399e+003;6.358455e-002
2.420328e+003;6.380942e-002
2.422256e+003;6.413335e-002
2.424185e+003;6.431697e-002
2.426113e+003;6.441688e-002
2.428042e+003;6.444056e-002
2.429970e+003;6.444252e-002
2.431899e+003;6.446761e-002
2.433828e+003;6.464257e-002
2.435756e+003;6.468018e-002
2.437685e+003;6.462830e-002
2.439613e+003;6.459289e-002
2.441542e+003;6.448660e-002
2.443470e+003;6.456302e-002
2.445399e+003;6.470767e-002
2.447327e+003;6.478733e-002
2.449256e+003;6.473783e-002
2.451185e+003;6.497696e-002
2.453113e+003;6.530625e-002
2.455042e+003;6.541579e-002
2.456970e+003;6.539468e-002
2.458899e+003;6.542057e-002
2.460827e+003;6.530610e-002
2.462756e+003;6.510685e-002
2.464684e+003;6.500179e-002
2.466613e+003;6.528407e-002
2.468542e+003;6.557657e-002
2.470470e+003;6.576790e-002
2.472398e+003;6.582423e-002
2.474327e+003;6.586444e-002
2.476256e+003;6.612715e-002
2.478184e+003;6.608641e-002
2.480113e+003;6.589128e-002
2.482041e+003;6.595680e-002
2.483970e+003;6.608398e-002
2.485898e+003;6.608730e-002
2.487827e+003;6.606311e-002
2.489755e+003;6.615609e-002
2.491684e+003;6.631305e-002
2.493613e+003;6.642663e-002
2.495541e+003;6.654289e-002
2.497470e+003;6.654545e-002
2.499398e+003;6.653289e-002
2.501327e+003;6.651563e-002
2.503255e+003;6.658438e-002
2.505184e+003;6.688841e-002
2.507112e+003;6.670877e-002
2.509041e+003;6.648088e-002
2.510969e+003;6.657186e-002
2.512898e+003;6.664521e-002
2.514827e+003;6.675513e-002
2.516755e+003;6.673728e-002
2.518684e+003;6.663328e-002
2.520612e+003;6.677998e-002
2.522541e+003;6.699051e-002
2.524469e+003;6.698251e-002
2.526398e+003;6.695459e-002
2.528326e+003;6.676591e-002
2.530255e+003;6.659994e-002
2.532184e+003;6.672975e-002
2.534112e+003;6.690288e-002
2.536041e+003;6.687269e-002
2.537969e+003;6.671448e-002
2.539898e+003;6.660925e-002
2.541826e+003;6.672542e-002
2.543755e+003;6.697010e-002
2.545683e+003;6.705759e-002
2.547612e+003;6.719693e-002
2.549541e+003;6.735349e-002
2.551469e+003;6.732683e-002
2.553397e+003;6.734950e-002
2.555326e+003;6.749048e-002
2.557255e+003;6.767251e-002
2.559183e+003;6.754927e-002
2.561112e+003;6.736490e-002
2.563040e+003;6.751823e-002
2.564969e+003;6.766623e-002
2.566897e+003;6.759673e-002
2.568826e+003;6.746764e-002
2.570754e+003;6.739698e-002
2.572683e+003;6.740177e-002
2.574612e+003;6.745998e-002
2.576540e+003;6.768974e-002
2.578469e+003;6.757935e-002
2.580397e+003;6.758141e-002
2.582326e+003;6.791753e-002
2.584254e+003;6.796363e-002
2.586183e+003;6.791598e-002
2.588111e+003;6.786627e-002
2.590040e+003;6.789556e-002
2.591969e+003;6.793376e-002
2.593897e+003;6.812516e-002
2.595826e+003;6.845573e-002
2.597754e+003;6.853603e-002
2.599683e+003;6.846100e-002
2.601611e+003;6.857568e-002
2.603540e+003;6.876551e-002
2.605468e+003;6.870744e-002
2.607397e+003;6.836244e-002
2.609325e+003;6.824476e-002
2.611254e+003;6.851609e-002
2.613183e+003;6.863242e-002
2.615111e+003;6.857634e-002
2.617040e+003;6.880343e-002
2.618968e+003;6.891094e-002
2.620897e+003;6.877653e-002
2.622825e+003;6.883495e-002
2.624754e+003;6.907966e-002
2.626682e+003;6.909194e-002
2.628611e+003;6.901836e-002
2.630540e+003;6.913219e-002
2.632468e+003;6.932369e-002
2.634396e+003;6.946768e-002
2.636325e+003;6.961398e-002
2.638254e+003;6.970480e-002
2.640182e+003;6.977215e-002
2.642111e+003;6.988457e-002
2.644039e+003;6.988613e-002
2.645968e+003;7.005557e-002
2.647896e+003;7.000590e-002
2.649825e+003;6.986955e-002
2.651753e+003;7.010635e-002
2.653682e+003;7.040148e-002
2.655611e+003;7.048363e-002
2.657539e+003;7.069702e-002
2.659468e+003;7.080489e-002
2.661396e+003;7.082185e-002
2.663325e+003;7.076827e-002
2.665253e+003;7.088485e-002
2.667182e+003;7.101785e-002
2.669110e+003;7.097501e-002
2.671039e+003;7.108871e-002
2.672968e+003;7.115514e-002
2.674896e+003;7.100185e-002
2.676825e+003;7.118329e-002
2.678753e+003;7.153259e-002
2.680682e+003;7.189560e-002
2.682610e+003;7.203802e-002
2.684539e+003;7.199981e-002
2.686467e+003;7.183320e-002
2.688396e+003;7.198600e-002
2.690324e+003;7.235456e-002
2.692253e+003;7.239311e-002
2.694182e+003;7.227757e-002
2.696110e+003;7.239534e-002
2.698039e+003;7.253312e-002
2.699967e+003;7.240869e-002
2.701896e+003;7.243469e-002
2.703824e+003;7.278273e-002
2.705753e+003;7.287579e-002
2.707681e+003;7.281262e-002
2.709610e+003;7.294708e-002
2.711539e+003;7.309122e-002
2.713467e+003;7.350474e-002
2.715396e+003;7.375193e-002
2.717324e+003;7.365641e-002
2.719253e+003;7.357810e-002
2.721181e+003;7.350521e-002
2.723110e+003;7.377227e-002
2.725038e+003;7.393963e-002
2.726967e+003;7.387525e-002
2.728896e+003;7.369963e-002
2.730824e+003;7.406288e-002
2.732752e+003;7.430430e-002
2.734681e+003;7.393519e-002
2.736610e+003;7.392789e-002
2.738538e+003;7.405514e-002
2.740467e+003;7.423742e-002
2.742395e+003;7.454372e-002
2.744324e+003;7.443953e-002
2.746252e+003;7.424894e-002
2.748181e+003;7.435950e-002
2.750109e+003;7.448700e-002
2.752038e+003;7.467258e-002
2.753967e+003;7.479107e-002
2.755895e+003;7.478702e-002
2.757824e+003;7.498934e-002
2.759752e+003;7.522970e-002
2.761681e+003;7.523286e-002
2.763609e+003;7.537211e-002
2.765538e+003;7.550141e-002
2.767466e+003;7.539856e-002
2.769395e+003;7.530922e-002
2.771323e+003;7.552586e-002
2.773252e+003;7.598358e-002
2.775181e+003;7.634914e-002
2.777109e+003;7.642025e-002
2.779038e+003;7.653259e-002
2.780966e+003;7.659119e-002
2.782895e+003;7.694703e-002
2.784823e+003;7.728525e-002
2.786752e+003;7.727915e-002
2.788680e+003;7.767069e-002
2.790609e+003;7.808545e-002
2.792538e+003;7.794123e-002
2.794466e+003;7.806793e-002
2.796395e+003;7.855180e-002
2.798323e+003;7.872943e-002
2.800252e+003;7.882337e-002
2.802180e+003;7.911710e-002
2.804109e+003;7.954086e-002
2.806037e+003;7.986625e-002
2.807966e+003;7.988107e-002
2.809895e+003;8.010570e-002
2.811823e+003;8.065161e-002
2.813751e+003;8.091775e-002
2.815680e+003;8.120112e-002
2.817609e+003;8.131127e-002
2.819537e+003;8.159121e-002
2.821466e+003;8.206610e-002
2.823394e+003;8.251125e-002
2.825323e+003;8.256567e-002
2.827251e+003;8.238518e-002
2.829180e+003;8.269793e-002
2.831108e+003;8.351087e-002
2.833037e+003;8.427143e-002
2.834966e+003;8.470745e-002
2.836894e+003;8.525822e-002
2.838823e+003;8.601271e-002
2.840751e+003;8.659259e-002
2.842680e+003;8.699440e-002
2.844608e+003;8.733013e-002
2.846537e+003;8.752415e-002
2.848465e+003;8.785973e-002
2.850394e+003;8.852617e-002
2.852323e+003;8.896299e-002
2.854251e+003;8.961618e-002
2.856180e+003;9.075471e-002
2.858108e+003;9.217792e-002
2.860037e+003;9.320532e-002
2.861965e+003;9.419556e-002
2.863894e+003;9.513641e-002
2.865822e+003;9.607526e-002
2.867751e+003;9.715888e-002
2.869679e+003;9.777061e-002
2.871608e+003;9.849360e-002
2.873536e+003;9.954169e-002
2.875465e+003;9.991045e-002
2.877394e+003;1.000867e-001
2.879322e+003;1.005418e-001
2.881251e+003;1.009889e-001
2.883179e+003;1.011491e-001
2.885108e+003;1.013883e-001
2.887036e+003;1.020194e-001
2.888965e+003;1.023803e-001
2.890893e+003;1.024855e-001
2.892822e+003;1.025632e-001
2.894750e+003;1.024511e-001
2.896679e+003;1.022940e-001
2.898608e+003;1.022507e-001
2.900536e+003;1.020285e-001
2.902465e+003;1.013049e-001
2.904393e+003;1.004084e-001
2.906322e+003;9.994327e-002
2.908250e+003;9.949740e-002
2.910179e+003;9.870499e-002
2.912107e+003;9.780900e-002
2.914036e+003;9.706590e-002
2.915965e+003;9.621438e-002
2.917893e+003;9.496370e-002
2.919822e+003;9.390236e-002
2.921750e+003;9.338116e-002
2.923679e+003;9.280844e-002
2.925607e+003;9.199680e-002
2.927536e+003;9.116660e-002
2.929464e+003;9.060324e-002
2.931393e+003;9.001048e-002
2.933322e+003;8.946971e-002
2.935250e+003;8.885930e-002
2.937178e+003;8.784825e-002
2.939107e+003;8.695097e-002
2.941036e+003;8.598319e-002
2.942964e+003;8.505871e-002
2.944893e+003;8.450048e-002
2.946821e+003;8.402172e-002
2.948750e+003;8.337174e-002
2.950678e+003;8.253473e-002
2.952607e+003;8.174069e-002
2.954535e+003;8.115619e-002
2.956464e+003;8.058040e-002
2.958393e+003;7.996232e-002
2.960321e+003;7.931286e-002
2.962250e+003;7.868291e-002
2.964178e+003;7.834027e-002
2.966107e+003;7.815852e-002
2.968035e+003;7.808053e-002
2.969964e+003;7.798556e-002
2.971892e+003;7.747721e-002
2.973821e+003;7.718237e-002
2.975750e+003;7.737199e-002
2.977678e+003;7.715304e-002
2.979607e+003;7.689026e-002
2.981535e+003;7.690913e-002
2.983464e+003;7.692946e-002
2.985392e+003;7.711098e-002
2.987321e+003;7.722959e-002
2.989249e+003;7.674924e-002
2.991178e+003;7.649200e-002
2.993106e+003;7.671568e-002
2.995035e+003;7.684775e-002
2.996964e+003;7.667575e-002
2.998892e+003;7.653737e-002
3.000821e+003;7.653820e-002
3.002749e+003;7.647114e-002
3.004678e+003;7.658258e-002
3.006606e+003;7.665685e-002
3.008535e+003;7.678962e-002
3.010463e+003;7.706531e-002
3.012392e+003;7.745860e-002
3.014321e+003;7.759418e-002
3.016249e+003;7.787285e-002
3.018177e+003;7.812405e-002
3.020106e+003;7.810386e-002
3.022035e+003;7.839460e-002
3.023963e+003;7.900596e-002
3.025892e+003;7.949904e-002
3.027820e+003;7.963654e-002
3.029749e+003;7.982448e-002
3.031677e+003;8.038866e-002
3.033606e+003;8.059639e-002
3.035534e+003;8.054502e-002
3.037463e+003;8.105191e-002
3.039392e+003;8.129808e-002
3.041320e+003;8.126336e-002
3.043249e+003;8.166011e-002
3.045177e+003;8.201911e-002
3.047106e+003;8.224141e-002
3.049034e+003;8.247455e-002
3.050963e+003;8.312327e-002
3.052891e+003;8.390533e-002
3.054820e+003;8.406104e-002
3.056749e+003;8.415550e-002
3.058677e+003;8.456834e-002
3.060606e+003;8.489028e-002
3.062534e+003;8.501833e-002
3.064463e+003;8.539811e-002
3.066391e+003;8.564249e-002
3.068320e+003;8.577891e-002
3.070248e+003;8.656003e-002
3.072177e+003;8.723935e-002
3.074105e+003;8.732510e-002
3.076034e+003;8.781409e-002
3.077963e+003;8.848558e-002
3.079891e+003;8.851820e-002
3.081820e+003;8.864867e-002
3.083748e+003;8.922309e-002
3.085677e+003;8.962962e-002
3.087605e+003;9.018470e-002
3.089534e+003;9.036919e-002
3.091462e+003;9.067117e-002
3.093391e+003;9.142385e-002
3.095320e+003;9.188452e-002
3.097248e+003;9.225954e-002
3.099177e+003;9.271515e-002
3.101105e+003;9.327555e-002
3.103034e+003;9.389384e-002
3.104962e+003;9.411510e-002
3.106891e+003;9.414452e-002
3.108819e+003;9.440845e-002
3.110748e+003;9.491624e-002
3.112677e+003;9.551214e-002
3.114605e+003;9.601425e-002
3.116533e+003;9.646145e-002
3.118462e+003;9.663559e-002
3.120391e+003;9.691668e-002
3.122319e+003;9.773654e-002
3.124248e+003;9.830412e-002
3.126176e+003;9.851389e-002
3.128105e+003;9.895671e-002
3.130033e+003;9.958157e-002
3.131962e+003;1.003628e-001
3.133890e+003;1.011682e-001
3.135819e+003;1.014453e-001
3.137748e+003;1.015016e-001
3.139676e+003;1.017907e-001
3.141605e+003;1.023337e-001
3.143533e+003;1.028381e-001
3.145462e+003;1.034081e-001
3.147390e+003;1.038179e-001
3.149319e+003;1.040252e-001
3.151247e+003;1.044005e-001
3.153176e+003;1.048004e-001
3.155104e+003;1.050096e-001
3.157033e+003;1.053993e-001
3.158962e+003;1.058284e-001
3.160890e+003;1.063441e-001
3.162819e+003;1.066862e-001
3.164747e+003;1.067531e-001
3.166676e+003;1.069856e-001
3.168604e+003;1.072001e-001
3.170533e+003;1.073623e-001
3.172461e+003;1.076680e-001
3.174390e+003;1.083082e-001
3.176319e+003;1.087902e-001
3.178247e+003;1.091167e-001
3.180176e+003;1.092810e-001
3.182104e+003;1.094582e-001
3.184033e+003;1.099050e-001
3.185961e+003;1.106469e-001
3.187890e+003;1.110199e-001
3.189818e+003;1.111140e-001
3.191747e+003;1.110463e-001
3.193676e+003;1.110059e-001
3.195604e+003;1.114192e-001
3.197532e+003;1.118554e-001
3.199461e+003;1.121329e-001
3.201390e+003;1.127977e-001
3.203318e+003;1.131914e-001
3.205247e+003;1.138487e-001
3.207175e+003;1.142095e-001
3.209104e+003;1.137811e-001
3.211032e+003;1.140812e-001
3.212961e+003;1.144997e-001
3.214889e+003;1.148135e-001
3.216818e+003;1.151310e-001
3.218747e+003;1.154579e-001
3.220675e+003;1.156110e-001
3.222604e+003;1.159731e-001
3.224532e+003;1.163339e-001
3.226461e+003;1.164046e-001
3.228389e+003;1.166096e-001
3.230318e+003;1.171474e-001
3.232246e+003;1.176608e-001
3.234175e+003;1.178033e-001
3.236104e+003;1.177867e-001
3.238032e+003;1.183939e-001
3.239961e+003;1.189774e-001
3.241889e+003;1.190375e-001
3.243818e+003;1.190122e-001
3.245746e+003;1.191277e-001
3.247675e+003;1.196389e-001
3.249603e+003;1.201548e-001
3.251532e+003;1.205253e-001
3.253460e+003;1.204908e-001
3.255389e+003;1.206924e-001
3.257318e+003;1.210166e-001
3.259246e+003;1.212981e-001
3.261175e+003;1.217946e-001
3.263103e+003;1.222378e-001
3.265032e+003;1.221593e-001
3.266960e+003;1.221193e-001
3.268889e+003;1.226675e-001
3.270817e+003;1.231001e-001
3.272746e+003;1.233159e-001
3.274675e+003;1.235180e-001
3.276603e+003;1.235343e-001
3.278531e+003;1.236582e-001
3.280460e+003;1.238872e-001
3.282389e+003;1.240590e-001
3.284317e+003;1.242077e-001
3.286246e+003;1.243078e-001
3.288174e+003;1.246043e-001
3.290103e+003;1.249423e-001
3.292031e+003;1.253645e-001
3.293960e+003;1.254664e-001
3.295888e+003;1.251246e-001
3.297817e+003;1.252387e-001
3.299746e+003;1.255656e-001
3.301674e+003;1.257142e-001
3.303603e+003;1.257460e-001
3.305531e+003;1.258178e-001
3.307460e+003;1.258493e-001
3.309388e+003;1.261312e-001
3.311317e+003;1.265947e-001
3.313245e+003;1.271923e-001
3.315174e+003;1.270478e-001
3.317103e+003;1.265246e-001
3.319031e+003;1.266941e-001
3.320960e+003;1.265991e-001
3.322888e+003;1.263918e-001
3.324817e+003;1.266289e-001
3.326745e+003;1.270288e-001
3.328674e+003;1.272283e-001
3.330602e+003;1.273885e-001
3.332531e+003;1.272653e-001
3.334459e+003;1.272089e-001
3.336388e+003;1.272975e-001
3.338317e+003;1.269604e-001
3.340245e+003;1.266693e-001
3.342174e+003;1.267441e-001
3.344102e+003;1.268144e-001
3.346031e+003;1.265383e-001
3.347959e+003;1.262254e-001
3.349888e+003;1.261798e-001
3.351816e+003;1.259916e-001
3.353745e+003;1.259473e-001
3.355674e+003;1.258036e-001
3.357602e+003;1.255328e-001
3.359531e+003;1.253924e-001
3.361459e+003;1.255265e-001
3.363388e+003;1.254137e-001
3.365316e+003;1.244489e-001
3.367245e+003;1.235530e-001
3.369173e+003;1.237541e-001
3.371102e+003;1.242248e-001
3.373031e+003;1.238550e-001
3.374959e+003;1.231114e-001
3.376887e+003;1.226547e-001
3.378816e+003;1.225848e-001
3.380745e+003;1.223655e-001
3.382673e+003;1.217253e-001
3.384602e+003;1.215523e-001
3.386530e+003;1.213581e-001
3.388459e+003;1.212634e-001
3.390387e+003;1.208506e-001
3.392316e+003;1.207818e-001
3.394244e+003;1.207769e-001
3.396173e+003;1.203019e-001
3.398102e+003;1.201953e-001
3.400030e+003;1.204266e-001
3.401959e+003;1.199645e-001
3.403887e+003;1.190569e-001
3.405816e+003;1.185197e-001
3.407744e+003;1.178715e-001
3.409673e+003;1.171974e-001
3.411601e+003;1.168979e-001
3.413530e+003;1.171598e-001
3.415458e+003;1.173033e-001
3.417387e+003;1.170613e-001
3.419316e+003;1.165382e-001
3.421244e+003;1.160891e-001
3.423173e+003;1.158513e-001
3.425101e+003;1.154687e-001
3.427030e+003;1.152765e-001
3.428958e+003;1.152916e-001
3.430887e+003;1.149943e-001
3.432815e+003;1.144373e-001
3.434744e+003;1.143479e-001
3.436673e+003;1.142213e-001
3.438601e+003;1.137405e-001
3.440530e+003;1.135096e-001
3.442458e+003;1.135056e-001
3.444387e+003;1.129875e-001
3.446315e+003;1.119259e-001
3.448244e+003;1.111291e-001
3.450172e+003;1.102474e-001
3.452101e+003;1.092166e-001
3.454030e+003;1.084457e-001
3.455958e+003;1.076367e-001
3.457886e+003;1.065014e-001
3.459815e+003;1.057226e-001
3.461744e+003;1.052860e-001
3.463672e+003;1.046208e-001
3.465601e+003;1.038305e-001
3.467529e+003;1.035840e-001
3.469458e+003;1.027273e-001
3.471386e+003;1.016297e-001
3.473315e+003;1.009083e-001
3.475243e+003;1.002143e-001
3.477172e+003;9.970836e-002
3.479101e+003;9.948852e-002
3.481029e+003;9.908269e-002
3.482958e+003;9.855047e-002
3.484886e+003;9.819370e-002
3.486815e+003;9.773529e-002
3.488743e+003;9.648470e-002
3.490672e+003;9.527049e-002
3.492600e+003;9.450704e-002
3.494529e+003;9.357988e-002
3.496458e+003;9.280445e-002
3.498386e+003;9.170303e-002
3.500315e+003;9.046749e-002
3.502243e+003;8.969263e-002
3.504172e+003;8.903506e-002
3.506100e+003;8.800830e-002
3.508029e+003;8.681417e-002
3.509957e+003;8.585041e-002
3.511886e+003;8.502389e-002
3.513814e+003;8.431552e-002
3.515743e+003;8.378103e-002
3.517672e+003;8.302470e-002
3.519600e+003;8.197993e-002
3.521529e+003;8.066785e-002
3.523457e+003;7.987693e-002
3.525386e+003;7.962487e-002
3.527314e+003;7.908812e-002
3.529243e+003;7.827745e-002
3.531171e+003;7.742624e-002
3.533100e+003;7.651409e-002
3.535029e+003;7.590026e-002
3.536957e+003;7.564834e-002
3.538885e+003;7.505460e-002
3.540814e+003;7.408442e-002
3.542743e+003;7.347998e-002
3.544671e+003;7.288978e-002
3.546600e+003;7.217991e-002
3.548528e+003;7.192762e-002
3.550457e+003;7.168959e-002
3.552385e+003;7.102276e-002
3.554314e+003;7.037678e-002
3.556242e+003;6.960433e-002
3.558171e+003;6.912461e-002
3.560100e+003;6.872797e-002
3.562028e+003;6.815365e-002
3.563957e+003;6.746227e-002
3.565885e+003;6.696619e-002
3.567814e+003;6.653710e-002
3.569742e+003;6.613626e-002
3.571671e+003;6.595233e-002
3.573599e+003;6.545386e-002
3.575528e+003;6.477456e-002
3.577457e+003;6.418435e-002
3.579385e+003;6.367090e-002
3.581314e+003;6.351302e-002
3.583242e+003;6.324602e-002
3.585171e+003;6.279348e-002
3.587099e+003;6.239493e-002
3.589028e+003;6.193919e-002
3.590956e+003;6.133645e-002
3.592885e+003;6.067712e-002
3.594813e+003;6.018870e-002
3.596742e+003;5.987269e-002
3.598671e+003;5.952415e-002
3.600599e+003;5.946331e-002
3.602528e+003;5.943216e-002
3.604456e+003;5.922226e-002
3.606385e+003;5.883444e-002
3.608313e+003;5.809996e-002
3.610242e+003;5.717606e-002
3.612170e+003;5.706700e-002
3.614099e+003;5.705562e-002
3.616028e+003;5.675367e-002
3.617956e+003;5.656151e-002
3.619885e+003;5.612033e-002
3.621813e+003;5.560428e-002
3.623742e+003;5.544402e-002
3.625670e+003;5.537721e-002
3.627599e+003;5.505742e-002
3.629527e+003;5.472998e-002
3.631456e+003;5.457963e-002
3.633385e+003;5.451100e-002
3.635313e+003;5.434086e-002
3.637241e+003;5.393644e-002
3.639170e+003;5.379289e-002
3.641099e+003;5.379390e-002
3.643027e+003;5.364579e-002
3.644956e+003;5.308223e-002
3.646884e+003;5.229225e-002
3.648813e+003;5.228455e-002
3.650741e+003;5.243878e-002
3.652670e+003;5.245190e-002
3.654598e+003;5.238648e-002
3.656527e+003;5.187461e-002
3.658456e+003;5.109018e-002
3.660384e+003;5.086758e-002
3.662313e+003;5.097026e-002
3.664241e+003;5.098539e-002
3.666170e+003;5.102083e-002
3.668098e+003;5.068360e-002
3.670027e+003;5.017946e-002
3.671955e+003;5.051001e-002
3.673884e+003;5.102723e-002
3.675813e+003;5.068323e-002
3.677741e+003;5.058189e-002
3.679669e+003;5.051827e-002
3.681598e+003;4.999826e-002
3.683527e+003;4.980402e-002
3.685455e+003;4.987039e-002
3.687384e+003;4.946507e-002
3.689312e+003;4.912077e-002
3.691241e+003;4.884208e-002
3.693169e+003;4.856638e-002
3.695098e+003;4.917977e-002
3.697026e+003;4.947988e-002
3.698955e+003;4.931415e-002
3.700884e+003;4.918107e-002
3.702812e+003;4.929519e-002
3.704741e+003;4.911855e-002
3.706669e+003;4.862271e-002
3.708598e+003;4.824620e-002
3.710526e+003;4.753826e-002
3.712455e+003;4.730529e-002
3.714383e+003;4.789151e-002
3.716312e+003;4.798779e-002
3.718240e+003;4.773223e-002
3.720169e+003;4.779392e-002
3.722098e+003;4.818000e-002
3.724026e+003;4.855445e-002
3.725955e+003;4.836304e-002
3.727883e+003;4.802280e-002
3.729812e+003;4.772684e-002
3.731740e+003;4.742604e-002
3.733669e+003;4.750710e-002
3.735597e+003;4.751556e-002
3.737526e+003;4.770439e-002
3.739455e+003;4.795315e-002
3.741383e+003;4.796204e-002
3.743312e+003;4.768815e-002
3.745240e+003;4.773187e-002
3.747169e+003;4.784730e-002
3.749097e+003;4.753338e-002
3.751026e+003;4.775136e-002
3.752954e+003;4.787579e-002
3.754883e+003;4.747317e-002
3.756812e+003;4.734412e-002
3.758740e+003;4.763372e-002
3.760668e+003;4.803364e-002
3.762597e+003;4.846486e-002
3.764526e+003;4.862801e-002
3.766454e+003;4.832259e-002
3.768383e+003;4.785707e-002
3.770311e+003;4.790820e-002
3.772240e+003;4.830137e-002
3.774168e+003;4.811551e-002
3.776097e+003;4.817285e-002
3.778025e+003;4.841737e-002
3.779954e+003;4.808294e-002
3.781883e+003;4.754714e-002
3.783811e+003;4.768072e-002
3.785740e+003;4.792514e-002
3.787668e+003;4.788182e-002
3.789597e+003;4.786791e-002
3.791525e+003;4.794194e-002
3.793454e+003;4.824350e-002
3.795382e+003;4.842341e-002
3.797311e+003;4.821203e-002
3.799240e+003;4.812654e-002
3.801168e+003;4.775450e-002
3.803097e+003;4.774681e-002
3.805025e+003;4.799293e-002
3.806954e+003;4.784534e-002
3.808882e+003;4.784956e-002
3.810811e+003;4.772835e-002
3.812739e+003;4.750119e-002
3.814668e+003;4.766086e-002
3.816596e+003;4.765180e-002
3.818525e+003;4.740468e-002
3.820454e+003;4.738284e-002
3.822382e+003;4.761291e-002
3.824311e+003;4.762921e-002
3.826239e+003;4.774348e-002
3.828168e+003;4.814317e-002
3.830096e+003;4.828215e-002
3.832025e+003;4.805122e-002
3.833953e+003;4.786022e-002
3.835882e+003;4.795608e-002
3.837811e+003;4.808616e-002
3.839739e+003;4.817852e-002
3.841667e+003;4.818959e-002
3.843596e+003;4.779441e-002
3.845525e+003;4.784276e-002
3.847453e+003;4.832915e-002
3.849382e+003;4.843334e-002
3.851310e+003;4.795208e-002
3.853239e+003;4.749047e-002
3.855167e+003;4.772088e-002
3.857096e+003;4.838104e-002
3.859024e+003;4.896093e-002
3.860953e+003;4.877575e-002
3.862882e+003;4.825668e-002
3.864810e+003;4.785770e-002
3.866739e+003;4.819559e-002
3.868667e+003;4.857539e-002
3.870596e+003;4.876912e-002
3.872524e+003;4.871911e-002
3.874453e+003;4.838222e-002
3.876381e+003;4.857446e-002
3.878310e+003;4.906498e-002
3.880239e+003;4.920623e-002
3.882167e+003;4.919075e-002
3.884096e+003;4.893653e-002
3.886024e+003;4.822695e-002
3.887953e+003;4.799701e-002
3.889881e+003;4.883589e-002
3.891810e+003;4.953893e-002
3.893738e+003;4.976010e-002
3.895667e+003;4.981985e-002
3.897595e+003;4.936787e-002
3.899524e+003;4.901564e-002
3.901453e+003;4.895878e-002
3.903381e+003;4.894265e-002
3.905310e+003;4.915925e-002
3.907238e+003;4.950658e-002
3.909167e+003;4.982606e-002
3.911095e+003;4.989310e-002
3.913024e+003;4.989281e-002
3.914952e+003;4.966380e-002
3.916881e+003;4.905307e-002
3.918810e+003;4.933527e-002
3.920738e+003;4.984337e-002
3.922667e+003;4.993693e-002
3.924595e+003;4.966284e-002
3.926524e+003;4.945244e-002
3.928452e+003;4.935209e-002
3.930381e+003;4.919413e-002
3.932309e+003;5.004968e-002
3.934238e+003;5.089061e-002
3.936167e+003;5.086069e-002
3.938095e+003;5.045600e-002
3.940023e+003;4.997250e-002
3.941952e+003;4.996012e-002
3.943881e+003;5.019698e-002
3.945809e+003;5.029202e-002
3.947738e+003;5.009077e-002
3.949666e+003;4.964526e-002
3.951595e+003;4.970426e-002
3.953523e+003;5.004132e-002
3.955452e+003;4.991946e-002
3.957380e+003;4.951230e-002
3.959309e+003;4.992083e-002
3.961238e+003;5.038061e-002
3.963166e+003;4.993551e-002
3.965095e+003;4.966284e-002
3.967023e+003;4.963126e-002
3.968952e+003;4.973621e-002
3.970880e+003;5.017965e-002
3.972809e+003;5.031576e-002
3.974737e+003;4.996298e-002
3.976666e+003;4.986705e-002
3.978594e+003;4.956626e-002
3.980523e+003;4.938060e-002
3.982452e+003;4.951471e-002
3.984380e+003;4.942111e-002
3.986309e+003;4.919546e-002
3.988237e+003;4.910938e-002
3.990166e+003;4.888572e-002
3.992094e+003;4.892870e-002
3.994023e+003;4.901916e-002
3.995951e+003;4.921758e-002
3.997880e+003;4.900952e-002
3.999809e+003;4.927333e-002
4.001737e+003;0.000000e+000
