3.992094e+002;0.000000e+000
4.011380e+002;0.000000e+000
4.030665e+002;0.000000e+000
4.049951e+002;0.000000e+000
4.069236e+002;0.000000e+000
4.088522e+002;0.000000e+000
4.107807e+002;0.000000e+000
4.127093e+002;0.000000e+000
4.146378e+002;0.000000e+000
4.165664e+002;0.000000e+000
4.184949e+002;0.000000e+000
4.204235e+002;0.000000e+000
4.223520e+002;0.000000e+000
4.242806e+002;0.000000e+000
4.262091e+002;0.000000e+000
4.281377e+002;0.000000e+000
4.300662e+002;0.000000e+000
4.319948e+002;0.000000e+000
4.339233e+002;0.000000e+000
4.358519e+002;0.000000e+000
4.377804e+002;0.000000e+000
4.397090e+002;0.000000e+000
4.416375e+002;0.000000e+000
4.435660e+002;0.000000e+000
4.454946e+002;0.000000e+000
4.474232e+002;0.000000e+000
4.493517e+002;0.000000e+000
4.512802e+002;0.000000e+000
4.532088e+002;0.000000e+000
4.551373e+002;0.000000e+000
4.570659e+002;0.000000e+000
4.589944e+002;0.000000e+000
4.609230e+002;0.000000e+000
4.628515e+002;0.000000e+000
4.647801e+002;0.000000e+000
4.667086e+002;0.000000e+000
4.686372e+002;0.000000e+000
4.705657e+002;0.000000e+000
4.724943e+002;0.000000e+000
4.744228e+002;0.000000e+000
4.763513e+002;0.000000e+000
4.782799e+002;0.000000e+000
4.802085e+002;0.000000e+000
4.821370e+002;0.000000e+000
4.840656e+002;0.000000e+000
4.859941e+002;0.000000e+000
4.879226e+002;0.000000e+000
4.898512e+002;0.000000e+000
4.917798e+002;0.000000e+000
4.937083e+002;0.000000e+000
4.956368e+002;0.000000e+000
4.975654e+002;0.000000e+000
4.994939e+002;0.000000e+000
5.014225e+002;0.000000e+000
5.033510e+002;0.000000e+000
5.052796e+002;0.000000e+000
5.072081e+002;0.000000e+000
5.091367e+002;0.000000e+000
5.110652e+002;0.000000e+000
5.129938e+002;0.000000e+000
5.149223e+002;0.000000e+000
5.168509e+002;0.000000e+000
5.187794e+002;0.000000e+000
5.207079e+002;0.000000e+000
5.226365e+002;0.000000e+000
5.245651e+002;0.000000e+000
5.264936e+002;0.000000e+000
5.284222e+002;0.000000e+000
5.303507e+002;0.000000e+000
5.322792e+002;0.000000e+000
5.342078e+002;0.000000e+000
5.361364e+002;0.000000e+000
5.380649e+002;0.000000e+000
5.399935e+002;0.000000e+000
5.419220e+002;0.000000e+000
5.438505e+002;0.000000e+000
5.457791e+002;0.000000e+000
5.477076e+002;0.000000e+000
5.496362e+002;0.000000e+000
5.515648e+002;0.000000e+000
5.534933e+002;0.000000e+000
5.554218e+002;0.000000e+000
5.573504e+002;0.000000e+000
5.592789e+002;0.000000e+000
5.612075e+002;0.000000e+000
5.631360e+002;0.000000e+000
5.650646e+002;0.000000e+000
5.669931e+002;0.000000e+000
5.689217e+002;0.000000e+000
5.708502e+002;0.000000e+000
5.727787e+002;0.000000e+000
5.747073e+002;0.000000e+000
5.766359e+002;0.000000e+000
5.785644e+002;0.000000e+000
5.804930e+002;0.000000e+000
5.824215e+002;0.000000e+000
5.843500e+002;0.000000e+000
5.862786e+002;0.000000e+000
5.882072e+002;0.000000e+000
5.901357e+002;0.000000e+000
5.920643e+002;0.000000e+000
5.939928e+002;0.000000e+000
5.959213e+002;0.000000e+000
5.978499e+002;0.000000e+000
5.997784e+002;2.648501e-001
6.017070e+002;2.735109e-001
6.036355e+002;2.789895e-001
6.055641e+002;2.802991e-001
6.074926e+002;2.785918e-001
6.094211e+002;2.734821e-001
6.113497e+002;2.700014e-001
6.132783e+002;2.687772e-001
6.152068e+002;2.656178e-001
6.171354e+002;2.604213e-001
6.190639e+002;2.562961e-001
6.209924e+002;2.533630e-001
6.229210e+002;2.478161e-001
6.248495e+002;2.430141e-001
6.267781e+002;2.417644e-001
6.287067e+002;2.437471e-001
6.306352e+002;2.426506e-001
6.325637e+002;2.435008e-001
6.344923e+002;2.456883e-001
6.364208e+002;2.436230e-001
6.383494e+002;2.415497e-001
6.402780e+002;2.387464e-001
6.422065e+002;2.372400e-001
6.441350e+002;2.367702e-001
6.460636e+002;2.378473e-001
6.479921e+002;2.402602e-001
6.499207e+002;2.404858e-001
6.518492e+002;2.395590e-001
6.537778e+002;2.409727e-001
6.557063e+002;2.429856e-001
6.576349e+002;2.460843e-001
6.595634e+002;2.477334e-001
6.614919e+002;2.517226e-001
6.634205e+002;2.579892e-001
6.653491e+002;2.627667e-001
6.672776e+002;2.631508e-001
6.692062e+002;2.599387e-001
6.711347e+002;2.542156e-001
6.730632e+002;2.456538e-001
6.749918e+002;2.320587e-001
6.769203e+002;2.162714e-001
6.788489e+002;2.056693e-001
6.807775e+002;1.981603e-001
6.827060e+002;1.913046e-001
6.846345e+002;1.869840e-001
6.865631e+002;1.856640e-001
6.884916e+002;1.844062e-001
6.904202e+002;1.827902e-001
6.923488e+002;1.832333e-001
6.942773e+002;1.835792e-001
6.962058e+002;1.832785e-001
6.981344e+002;1.813624e-001
7.000629e+002;1.790799e-001
7.019915e+002;1.776003e-001
7.039200e+002;1.777174e-001
7.058486e+002;1.789132e-001
7.077771e+002;1.781835e-001
7.097057e+002;1.768918e-001
7.116342e+002;1.774877e-001
7.135627e+002;1.761489e-001
7.154913e+002;1.747229e-001
7.174199e+002;1.748167e-001
7.193484e+002;1.738675e-001
7.212770e+002;1.709924e-001
7.232055e+002;1.686428e-001
7.251340e+002;1.683015e-001
7.270626e+002;1.674700e-001
7.289911e+002;1.664429e-001
7.309197e+002;1.658854e-001
7.328483e+002;1.642981e-001
7.347768e+002;1.617161e-001
7.367053e+002;1.596476e-001
7.386339e+002;1.587004e-001
7.405624e+002;1.581667e-001
7.424910e+002;1.572086e-001
7.444196e+002;1.552976e-001
7.463481e+002;1.546533e-001
7.482766e+002;1.546976e-001
7.502052e+002;1.537895e-001
7.521337e+002;1.527128e-001
7.540623e+002;1.511325e-001
7.559908e+002;1.496498e-001
7.579194e+002;1.488211e-001
7.598479e+002;1.474719e-001
7.617765e+002;1.452189e-001
7.637050e+002;1.433199e-001
7.656335e+002;1.426990e-001
7.675621e+002;1.420605e-001
7.694907e+002;1.415327e-001
7.714192e+002;1.409616e-001
7.733478e+002;1.399480e-001
7.752763e+002;1.394741e-001
7.772048e+002;1.395417e-001
7.791334e+002;1.390883e-001
7.810620e+002;1.376383e-001
7.829905e+002;1.363211e-001
7.849191e+002;1.355764e-001
7.868476e+002;1.351502e-001
7.887761e+002;1.345746e-001
7.907047e+002;1.344687e-001
7.926332e+002;1.345178e-001
7.945618e+002;1.338832e-001
7.964903e+002;1.327025e-001
7.984189e+002;1.325687e-001
8.003474e+002;1.331083e-001
8.022759e+002;1.326845e-001
8.042045e+002;1.320106e-001
8.061331e+002;1.319556e-001
8.080616e+002;1.316447e-001
8.099902e+002;1.311180e-001
8.119187e+002;1.301324e-001
8.138472e+002;1.289133e-001
8.157758e+002;1.296744e-001
8.177043e+002;1.310336e-001
8.196329e+002;1.303229e-001
8.215615e+002;1.295892e-001
8.234900e+002;1.293594e-001
8.254185e+002;1.293560e-001
8.273471e+002;1.294215e-001
8.292756e+002;1.295147e-001
8.312042e+002;1.296573e-001
8.331328e+002;1.296516e-001
8.350613e+002;1.295023e-001
8.369898e+002;1.285427e-001
8.389184e+002;1.274696e-001
8.408469e+002;1.275662e-001
8.427755e+002;1.273949e-001
8.447040e+002;1.271298e-001
8.466326e+002;1.271550e-001
8.485611e+002;1.269989e-001
8.504897e+002;1.273377e-001
8.524182e+002;1.280469e-001
8.543467e+002;1.281708e-001
8.562753e+002;1.281724e-001
8.582039e+002;1.290204e-001
8.601324e+002;1.300441e-001
8.620610e+002;1.306118e-001
8.639895e+002;1.314080e-001
8.659180e+002;1.328201e-001
8.678466e+002;1.345244e-001
8.697751e+002;1.360041e-001
8.717037e+002;1.380914e-001
8.736323e+002;1.409710e-001
8.755608e+002;1.443566e-001
8.774893e+002;1.482312e-001
8.794179e+002;1.525798e-001
8.813464e+002;1.577534e-001
8.832750e+002;1.639595e-001
8.852036e+002;1.706196e-001
8.871321e+002;1.777166e-001
8.890606e+002;1.852034e-001
8.909892e+002;1.912787e-001
8.929177e+002;1.948824e-001
8.948463e+002;1.948485e-001
8.967748e+002;1.918841e-001
8.987034e+002;1.870771e-001
9.006319e+002;1.817618e-001
9.025605e+002;1.766900e-001
9.044890e+002;1.716533e-001
9.064175e+002;1.670925e-001
9.083461e+002;1.635090e-001
9.102747e+002;1.600009e-001
9.122032e+002;1.569779e-001
9.141318e+002;1.556305e-001
9.160603e+002;1.550887e-001
9.179888e+002;1.549548e-001
9.199174e+002;1.555035e-001
9.218459e+002;1.567184e-001
9.237745e+002;1.580315e-001
9.257031e+002;1.590973e-001
9.276316e+002;1.602948e-001
9.295601e+002;1.621630e-001
9.314887e+002;1.641783e-001
9.334172e+002;1.662587e-001
9.353458e+002;1.687521e-001
9.372744e+002;1.707232e-001
9.392029e+002;1.724648e-001
9.411314e+002;1.751245e-001
9.430600e+002;1.780038e-001
9.449885e+002;1.813699e-001
9.469171e+002;1.855677e-001
9.488456e+002;1.901123e-001
9.507742e+002;1.948936e-001
9.527027e+002;1.999597e-001
9.546313e+002;2.058939e-001
9.565598e+002;2.118524e-001
9.584883e+002;2.177140e-001
9.604169e+002;2.237936e-001
9.623455e+002;2.296600e-001
9.642740e+002;2.351013e-001
9.662026e+002;2.405445e-001
9.681311e+002;2.461161e-001
9.700596e+002;2.519745e-001
9.719882e+002;2.589099e-001
9.739167e+002;2.674914e-001
9.758453e+002;2.775875e-001
9.777739e+002;2.894621e-001
9.797024e+002;3.032939e-001
9.816309e+002;3.189728e-001
9.835595e+002;3.360198e-001
9.854880e+002;3.536225e-001
9.874166e+002;3.707294e-001
9.893452e+002;3.870408e-001
9.912737e+002;4.017409e-001
9.932022e+002;4.129286e-001
9.951307e+002;4.207926e-001
9.970593e+002;4.257620e-001
9.989879e+002;4.282191e-001
1.000916e+003;4.296992e-001
1.002845e+003;4.319123e-001
1.004773e+003;4.361340e-001
1.006702e+003;4.421794e-001
1.008631e+003;4.491295e-001
1.010559e+003;4.577855e-001
1.012488e+003;4.675922e-001
1.014416e+003;4.774073e-001
1.016345e+003;4.857808e-001
1.018273e+003;4.917973e-001
1.020202e+003;4.954491e-001
1.022130e+003;4.970981e-001
1.024059e+003;4.968577e-001
1.025988e+003;4.939363e-001
1.027916e+003;4.889098e-001
1.029845e+003;4.826178e-001
1.031773e+003;4.746895e-001
1.033702e+003;4.670172e-001
1.035630e+003;4.593172e-001
1.037559e+003;4.527570e-001
1.039487e+003;4.491581e-001
1.041416e+003;4.472212e-001
1.043344e+003;4.446362e-001
1.045273e+003;4.420667e-001
1.047202e+003;4.388679e-001
1.049130e+003;4.353941e-001
1.051059e+003;4.326271e-001
1.052987e+003;4.293845e-001
1.054916e+003;4.257439e-001
1.056844e+003;4.220191e-001
1.058773e+003;4.164540e-001
1.060701e+003;4.079815e-001
1.062630e+003;3.970526e-001
1.064558e+003;3.861362e-001
1.066487e+003;3.761252e-001
1.068416e+003;3.681449e-001
1.070344e+003;3.625281e-001
1.072273e+003;3.578525e-001
1.074201e+003;3.532225e-001
1.076130e+003;3.483023e-001
1.078058e+003;3.425868e-001
1.079987e+003;3.370263e-001
1.081915e+003;3.319946e-001
1.083844e+003;3.263643e-001
1.085773e+003;3.195396e-001
1.087701e+003;3.130486e-001
1.089630e+003;3.070417e-001
1.091558e+003;3.003460e-001
1.093487e+003;2.943439e-001
1.095415e+003;2.887002e-001
1.097344e+003;2.813500e-001
1.099272e+003;2.727827e-001
1.101201e+003;2.643066e-001
1.103129e+003;2.575223e-001
1.105058e+003;2.527883e-001
1.106987e+003;2.491198e-001
1.108915e+003;2.460701e-001
1.110844e+003;2.431282e-001
1.112772e+003;2.387948e-001
1.114701e+003;2.334718e-001
1.116629e+003;2.281886e-001
1.118558e+003;2.230618e-001
1.120486e+003;2.172774e-001
1.122415e+003;2.111541e-001
1.124344e+003;2.050918e-001
1.126272e+003;1.984821e-001
1.128201e+003;1.917733e-001
1.130129e+003;1.861943e-001
1.132058e+003;1.811905e-001
1.133986e+003;1.763972e-001
1.135915e+003;1.723371e-001
1.137843e+003;1.688572e-001
1.139772e+003;1.664246e-001
1.141700e+003;1.654896e-001
1.143629e+003;1.658839e-001
1.145557e+003;1.671168e-001
1.147486e+003;1.690199e-001
1.149415e+003;1.714512e-001
1.151343e+003;1.741704e-001
1.153272e+003;1.766925e-001
1.155200e+003;1.781354e-001
1.157129e+003;1.780295e-001
1.159057e+003;1.755755e-001
1.160986e+003;1.704943e-001
1.162914e+003;1.638548e-001
1.164843e+003;1.567682e-001
1.166771e+003;1.494737e-001
1.168700e+003;1.423692e-001
1.170629e+003;1.360223e-001
1.172557e+003;1.303995e-001
1.174486e+003;1.253794e-001
1.176414e+003;1.212627e-001
1.178343e+003;1.180655e-001
1.180271e+003;1.153080e-001
1.182200e+003;1.132643e-001
1.184128e+003;1.123063e-001
1.186057e+003;1.126930e-001
1.187986e+003;1.146128e-001
1.189914e+003;1.176791e-001
1.191843e+003;1.211476e-001
1.193771e+003;1.244764e-001
1.195700e+003;1.270707e-001
1.197628e+003;1.283594e-001
1.199557e+003;1.282099e-001
1.201485e+003;1.267403e-001
1.203414e+003;1.241787e-001
1.205343e+003;1.211744e-001
1.207271e+003;1.184555e-001
1.209200e+003;1.165233e-001
1.211128e+003;1.157450e-001
1.213057e+003;1.160164e-001
1.214985e+003;1.172424e-001
1.216914e+003;1.192399e-001
1.218842e+003;1.218234e-001
1.220771e+003;1.246237e-001
1.222699e+003;1.272720e-001
1.224628e+003;1.299316e-001
1.226557e+003;1.313973e-001
1.228485e+003;1.314057e-001
1.230414e+003;1.314169e-001
1.232342e+003;1.314998e-001
1.234271e+003;1.312046e-001
1.236199e+003;1.310579e-001
1.238128e+003;1.305981e-001
1.240056e+003;1.297697e-001
1.241985e+003;1.292759e-001
1.243913e+003;1.289146e-001
1.245842e+003;1.290818e-001
1.247771e+003;1.295046e-001
1.249699e+003;1.301288e-001
1.251628e+003;1.314572e-001
1.253556e+003;1.331658e-001
1.255485e+003;1.347628e-001
1.257413e+003;1.362998e-001
1.259342e+003;1.373444e-001
1.261270e+003;1.374291e-001
1.263199e+003;1.369442e-001
1.265127e+003;1.359238e-001
1.267056e+003;1.346525e-001
1.268985e+003;1.334927e-001
1.270913e+003;1.323362e-001
1.272842e+003;1.316238e-001
1.274770e+003;1.313146e-001
1.276699e+003;1.309668e-001
1.278627e+003;1.303241e-001
1.280556e+003;1.293371e-001
1.282484e+003;1.282277e-001
1.284413e+003;1.277773e-001
1.286342e+003;1.280421e-001
1.288270e+003;1.292773e-001
1.290199e+003;1.313942e-001
1.292127e+003;1.337292e-001
1.294056e+003;1.358279e-001
1.295984e+003;1.373685e-001
1.297913e+003;1.388405e-001
1.299841e+003;1.408669e-001
1.301770e+003;1.429727e-001
1.303698e+003;1.453703e-001
1.305627e+003;1.482171e-001
1.307556e+003;1.514358e-001
1.309484e+003;1.543297e-001
1.311413e+003;1.561706e-001
1.313341e+003;1.568971e-001
1.315270e+003;1.566540e-001
1.317198e+003;1.549932e-001
1.319127e+003;1.521442e-001
1.321055e+003;1.492175e-001
1.322984e+003;1.472040e-001
1.324912e+003;1.464189e-001
1.326841e+003;1.461666e-001
1.328770e+003;1.460759e-001
1.330698e+003;1.462524e-001
1.332627e+003;1.466808e-001
1.334555e+003;1.471638e-001
1.336484e+003;1.472535e-001
1.338412e+003;1.464182e-001
1.340341e+003;1.450875e-001
1.342269e+003;1.442117e-001
1.344198e+003;1.437637e-001
1.346126e+003;1.432846e-001
1.348055e+003;1.429720e-001
1.349984e+003;1.429790e-001
1.351912e+003;1.435922e-001
1.353841e+003;1.448467e-001
1.355769e+003;1.463836e-001
1.357698e+003;1.479243e-001
1.359626e+003;1.496176e-001
1.361555e+003;1.513074e-001
1.363483e+003;1.523293e-001
1.365412e+003;1.524118e-001
1.367341e+003;1.519729e-001
1.369269e+003;1.509926e-001
1.371198e+003;1.496524e-001
1.373126e+003;1.481017e-001
1.375055e+003;1.462757e-001
1.376983e+003;1.438391e-001
1.378912e+003;1.408195e-001
1.380840e+003;1.373426e-001
1.382769e+003;1.337137e-001
1.384698e+003;1.307952e-001
1.386626e+003;1.288388e-001
1.388555e+003;1.274650e-001
1.390483e+003;1.265661e-001
1.392412e+003;1.258657e-001
1.394340e+003;1.253535e-001
1.396269e+003;1.249758e-001
1.398197e+003;1.244211e-001
1.400126e+003;1.239413e-001
1.402054e+003;1.234658e-001
1.403983e+003;1.230785e-001
1.405911e+003;1.230301e-001
1.407840e+003;1.232678e-001
1.409769e+003;1.236567e-001
1.411697e+003;1.241023e-001
1.413626e+003;1.245233e-001
1.415554e+003;1.247876e-001
1.417483e+003;1.247084e-001
1.419411e+003;1.243792e-001
1.421340e+003;1.243417e-001
1.423268e+003;1.240738e-001
1.425197e+003;1.236409e-001
1.427125e+003;1.233207e-001
1.429054e+003;1.228666e-001
1.430983e+003;1.224109e-001
1.432911e+003;1.219678e-001
1.434840e+003;1.214166e-001
1.436768e+003;1.207945e-001
1.438697e+003;1.202976e-001
1.440625e+003;1.196836e-001
1.442554e+003;1.189787e-001
1.444482e+003;1.184065e-001
1.446411e+003;1.174419e-001
1.448340e+003;1.160203e-001
1.450268e+003;1.148457e-001
1.452197e+003;1.138815e-001
1.454125e+003;1.127615e-001
1.456054e+003;1.114878e-001
1.457982e+003;1.105954e-001
1.459911e+003;1.100857e-001
1.461839e+003;1.094036e-001
1.463768e+003;1.084838e-001
1.465697e+003;1.073494e-001
1.467625e+003;1.060721e-001
1.469554e+003;1.047953e-001
1.471482e+003;1.033288e-001
1.473411e+003;1.016164e-001
1.475339e+003;9.968559e-002
1.477268e+003;9.762008e-002
1.479196e+003;9.573571e-002
1.481125e+003;9.388845e-002
1.483053e+003;9.208743e-002
1.484982e+003;9.049238e-002
1.486911e+003;8.899943e-002
1.488839e+003;8.749323e-002
1.490768e+003;8.633661e-002
1.492696e+003;8.535693e-002
1.494625e+003;8.416700e-002
1.496553e+003;8.305603e-002
1.498482e+003;8.250704e-002
1.500410e+003;8.226928e-002
1.502339e+003;8.200130e-002
1.504267e+003;8.118463e-002
1.506196e+003;8.051399e-002
1.508125e+003;8.045266e-002
1.510053e+003;8.035102e-002
1.511982e+003;8.003139e-002
1.513910e+003;7.979573e-002
1.515839e+003;7.942006e-002
1.517767e+003;7.909313e-002
1.519696e+003;7.885274e-002
1.521624e+003;7.864463e-002
1.523553e+003;7.881562e-002
1.525481e+003;7.884618e-002
1.527410e+003;7.889191e-002
1.529339e+003;7.911949e-002
1.531267e+003;7.919758e-002
1.533196e+003;7.913762e-002
1.535124e+003;7.919646e-002
1.537053e+003;7.936178e-002
1.538981e+003;7.906698e-002
1.540910e+003;7.879703e-002
1.542838e+003;7.896987e-002
1.544767e+003;7.929150e-002
1.546695e+003;7.953645e-002
1.548624e+003;7.944298e-002
1.550553e+003;7.923993e-002
1.552481e+003;7.905433e-002
1.554410e+003;7.897083e-002
1.556338e+003;7.868494e-002
1.558267e+003;7.806812e-002
1.560195e+003;7.828968e-002
1.562124e+003;7.923818e-002
1.564052e+003;7.934961e-002
1.565981e+003;7.924883e-002
1.567910e+003;7.916410e-002
1.569838e+003;7.919849e-002
1.571767e+003;7.975719e-002
1.573695e+003;8.012833e-002
1.575624e+003;8.011179e-002
1.577552e+003;8.039324e-002
1.579481e+003;8.061810e-002
1.581409e+003;8.073273e-002
1.583338e+003;8.094355e-002
1.585266e+003;8.111409e-002
1.587195e+003;8.132406e-002
1.589124e+003;8.152729e-002
1.591052e+003;8.174545e-002
1.592981e+003;8.203544e-002
1.594909e+003;8.249671e-002
1.596838e+003;8.273941e-002
1.598766e+003;8.287409e-002
1.600695e+003;8.297179e-002
1.602623e+003;8.320697e-002
1.604552e+003;8.369797e-002
1.606480e+003;8.409847e-002
1.608409e+003;8.442115e-002
1.610338e+003;8.503026e-002
1.612266e+003;8.565964e-002
1.614195e+003;8.585756e-002
1.616123e+003;8.601655e-002
1.618052e+003;8.659745e-002
1.619980e+003;8.716527e-002
1.621909e+003;8.754260e-002
1.623837e+003;8.801650e-002
1.625766e+003;8.865160e-002
1.627694e+003;8.918513e-002
1.629623e+003;8.957481e-002
1.631552e+003;8.988438e-002
1.633480e+003;8.994759e-002
1.635409e+003;8.993071e-002
1.637337e+003;9.024311e-002
1.639266e+003;9.064247e-002
1.641194e+003;9.075206e-002
1.643123e+003;9.053777e-002
1.645051e+003;9.027603e-002
1.646980e+003;9.017329e-002
1.648909e+003;9.014409e-002
1.650837e+003;8.952919e-002
1.652766e+003;8.840150e-002
1.654694e+003;8.796781e-002
1.656623e+003;8.792131e-002
1.658551e+003;8.738649e-002
1.660480e+003;8.671083e-002
1.662408e+003;8.599558e-002
1.664337e+003;8.532172e-002
1.666266e+003;8.455317e-002
1.668194e+003;8.339599e-002
1.670123e+003;8.281952e-002
1.672051e+003;8.263504e-002
1.673980e+003;8.194104e-002
1.675908e+003;8.112491e-002
1.677837e+003;8.052141e-002
1.679765e+003;7.977212e-002
1.681694e+003;7.887264e-002
1.683622e+003;7.789239e-002
1.685551e+003;7.747796e-002
1.687479e+003;7.742299e-002
1.689408e+003;7.688560e-002
1.691337e+003;7.640611e-002
1.693265e+003;7.576510e-002
1.695194e+003;7.480469e-002
1.697122e+003;7.434617e-002
1.699051e+003;7.394324e-002
1.700979e+003;7.354131e-002
1.702908e+003;7.349842e-002
1.704836e+003;7.315498e-002
1.706765e+003;7.292235e-002
1.708693e+003;7.296076e-002
1.710622e+003;7.300787e-002
1.712551e+003;7.282403e-002
1.714479e+003;7.257979e-002
1.716408e+003;7.235127e-002
1.718336e+003;7.224365e-002
1.720265e+003;7.246263e-002
1.722193e+003;7.260321e-002
1.724122e+003;7.271891e-002
1.726050e+003;7.300541e-002
1.727979e+003;7.302838e-002
1.729908e+003;7.276604e-002
1.731836e+003;7.229483e-002
1.733765e+003;7.188684e-002
1.735693e+003;7.188500e-002
1.737622e+003;7.161503e-002
1.739550e+003;7.106908e-002
1.741479e+003;7.081775e-002
1.743407e+003;7.040160e-002
1.745336e+003;6.989715e-002
1.747265e+003;6.916128e-002
1.749193e+003;6.861503e-002
1.751122e+003;6.846499e-002
1.753050e+003;6.863820e-002
1.754979e+003;6.876407e-002
1.756907e+003;6.880230e-002
1.758836e+003;6.881601e-002
1.760764e+003;6.873480e-002
1.762693e+003;6.872012e-002
1.764621e+003;6.892236e-002
1.766550e+003;6.875153e-002
1.768479e+003;6.842035e-002
1.770407e+003;6.831288e-002
1.772336e+003;6.836558e-002
1.774264e+003;6.854402e-002
1.776193e+003;6.866164e-002
1.778121e+003;6.880607e-002
1.780050e+003;6.880371e-002
1.781978e+003;6.881690e-002
1.783907e+003;6.877043e-002
1.785835e+003;6.875595e-002
1.787764e+003;6.880887e-002
1.789693e+003;6.864285e-002
1.791621e+003;6.837660e-002
1.793550e+003;6.838641e-002
1.795478e+003;6.836648e-002
1.797407e+003;6.830369e-002
1.799335e+003;6.834476e-002
1.801264e+003;6.839444e-002
1.803192e+003;6.833079e-002
1.805121e+003;6.836113e-002
1.807049e+003;6.844595e-002
1.808978e+003;6.838439e-002
1.810907e+003;6.824196e-002
1.812835e+003;6.818699e-002
1.814764e+003;6.831672e-002
1.816692e+003;6.832564e-002
1.818621e+003;6.817187e-002
1.820549e+003;6.800234e-002
1.822478e+003;6.798498e-002
1.824406e+003;6.818482e-002
1.826335e+003;6.806718e-002
1.828264e+003;6.780352e-002
1.830192e+003;6.787712e-002
1.832121e+003;6.794472e-002
1.834049e+003;6.797165e-002
1.835978e+003;6.799974e-002
1.837906e+003;6.791055e-002
1.839835e+003;6.792078e-002
1.841763e+003;6.779403e-002
1.843692e+003;6.750205e-002
1.845620e+003;6.756759e-002
1.847549e+003;6.747794e-002
1.849478e+003;6.734830e-002
1.851406e+003;6.750488e-002
1.853335e+003;6.756847e-002
1.855263e+003;6.746939e-002
1.857192e+003;6.731874e-002
1.859120e+003;6.731305e-002
1.861049e+003;6.740607e-002
1.862977e+003;6.739272e-002
1.864906e+003;6.750426e-002
1.866834e+003;6.751997e-002
1.868763e+003;6.741524e-002
1.870692e+003;6.731797e-002
1.872620e+003;6.723692e-002
1.874549e+003;6.726214e-002
1.876477e+003;6.734563e-002
1.878406e+003;6.732091e-002
1.880334e+003;6.745560e-002
1.882263e+003;6.755860e-002
1.884191e+003;6.739280e-002
1.886120e+003;6.715225e-002
1.888048e+003;6.698412e-002
1.889977e+003;6.699093e-002
1.891906e+003;6.706068e-002
1.893834e+003;6.721441e-002
1.895763e+003;6.756704e-002
1.897691e+003;6.773245e-002
1.899620e+003;6.751765e-002
1.901548e+003;6.717526e-002
1.903477e+003;6.709304e-002
1.905405e+003;6.714556e-002
1.907334e+003;6.697713e-002
1.909262e+003;6.704611e-002
1.911191e+003;6.734354e-002
1.913120e+003;6.763855e-002
1.915048e+003;6.784438e-002
1.916977e+003;6.782788e-002
1.918905e+003;6.775240e-002
1.920834e+003;6.797785e-002
1.922762e+003;6.822591e-002
1.924691e+003;6.812097e-002
1.926619e+003;6.799199e-002
1.928548e+003;6.802884e-002
1.930477e+003;6.797715e-002
1.932405e+003;6.809594e-002
1.934334e+003;6.830361e-002
1.936262e+003;6.823161e-002
1.938191e+003;6.811377e-002
1.940119e+003;6.791392e-002
1.942048e+003;6.797107e-002
1.943976e+003;6.814659e-002
1.945905e+003;6.827244e-002
1.947833e+003;6.859233e-002
1.949762e+003;6.867941e-002
1.951691e+003;6.860901e-002
1.953619e+003;6.866090e-002
1.955548e+003;6.857266e-002
1.957476e+003;6.861701e-002
1.959405e+003;6.859757e-002
1.961333e+003;6.843474e-002
1.963262e+003;6.843521e-002
1.965190e+003;6.864025e-002
1.967119e+003;6.877703e-002
1.969047e+003;6.873962e-002
1.970976e+003;6.875475e-002
1.972905e+003;6.883752e-002
1.974833e+003;6.892869e-002
1.976762e+003;6.920336e-002
1.978690e+003;6.929189e-002
1.980619e+003;6.919703e-002
1.982547e+003;6.919843e-002
1.984476e+003;6.934895e-002
1.986404e+003;6.940306e-002
1.988333e+003;6.937161e-002
1.990261e+003;6.952025e-002
1.992190e+003;6.961428e-002
1.994119e+003;6.960709e-002
1.996047e+003;6.976904e-002
1.997976e+003;6.962059e-002
1.999904e+003;6.944878e-002
2.001833e+003;6.962619e-002
2.003761e+003;6.985519e-002
2.005690e+003;6.980133e-002
2.007618e+003;6.974573e-002
2.009547e+003;6.996039e-002
2.011476e+003;7.009946e-002
2.013404e+003;7.007142e-002
2.015333e+003;7.004884e-002
2.017261e+003;7.022361e-002
2.019190e+003;7.035309e-002
2.021118e+003;7.051863e-002
2.023047e+003;7.068107e-002
2.024975e+003;7.051508e-002
2.026904e+003;7.049166e-002
2.028833e+003;7.072786e-002
2.030761e+003;7.067589e-002
2.032690e+003;7.067924e-002
2.034618e+003;7.077061e-002
2.036547e+003;7.079693e-002
2.038475e+003;7.077688e-002
2.040404e+003;7.072182e-002
2.042332e+003;7.079950e-002
2.044261e+003;7.091574e-002
2.046189e+003;7.091882e-002
2.048118e+003;7.069195e-002
2.050047e+003;7.049981e-002
2.051975e+003;7.067440e-002
2.053904e+003;7.078117e-002
2.055832e+003;7.075571e-002
2.057761e+003;7.083008e-002
2.059689e+003;7.075972e-002
2.061618e+003;7.075255e-002
2.063546e+003;7.101141e-002
2.065475e+003;7.108297e-002
2.067404e+003;7.105671e-002
2.069332e+003;7.107197e-002
2.071260e+003;7.085259e-002
2.073189e+003;7.066134e-002
2.075118e+003;7.083456e-002
2.077046e+003;7.099470e-002
2.078975e+003;7.087111e-002
2.080903e+003;7.072100e-002
2.082832e+003;7.071028e-002
2.084760e+003;7.082575e-002
2.086689e+003;7.101176e-002
2.088617e+003;7.108013e-002
2.090546e+003;7.100017e-002
2.092475e+003;7.097016e-002
2.094403e+003;7.090197e-002
2.096332e+003;7.089050e-002
2.098260e+003;7.086951e-002
2.100189e+003;7.103447e-002
2.102117e+003;7.115904e-002
2.104046e+003;7.129978e-002
2.105974e+003;7.140010e-002
2.107903e+003;7.141002e-002
2.109832e+003;7.133422e-002
2.111760e+003;7.121631e-002
2.113688e+003;7.131407e-002
2.115617e+003;7.147665e-002
2.117546e+003;7.143478e-002
2.119474e+003;7.133293e-002
2.121403e+003;7.125781e-002
2.123331e+003;7.124536e-002
2.125260e+003;7.139280e-002
2.127188e+003;7.141307e-002
2.129117e+003;7.150595e-002
2.131045e+003;7.170703e-002
2.132974e+003;7.172027e-002
2.134903e+003;7.155237e-002
2.136831e+003;7.155951e-002
2.138760e+003;7.184317e-002
2.140688e+003;7.203712e-002
2.142617e+003;7.196352e-002
2.144545e+003;7.172070e-002
2.146474e+003;7.174283e-002
2.148402e+003;7.188559e-002
2.150331e+003;7.187800e-002
2.152260e+003;7.175799e-002
2.154188e+003;7.161386e-002
2.156117e+003;7.170097e-002
2.158045e+003;7.185646e-002
2.159974e+003;7.183652e-002
2.161902e+003;7.170546e-002
2.163831e+003;7.177093e-002
2.165759e+003;7.179497e-002
2.167688e+003;7.141729e-002
2.169616e+003;7.119027e-002
2.171545e+003;7.119866e-002
2.173474e+003;7.129990e-002
2.175402e+003;7.135297e-002
2.177331e+003;7.131134e-002
2.179259e+003;7.134870e-002
2.181188e+003;7.120491e-002
2.183116e+003;7.131946e-002
2.185045e+003;7.157991e-002
2.186973e+003;7.148052e-002
2.188902e+003;7.146014e-002
2.190831e+003;7.139628e-002
2.192759e+003;7.126515e-002
2.194688e+003;7.137846e-002
2.196616e+003;7.129072e-002
2.198545e+003;7.120858e-002
2.200473e+003;7.123575e-002
2.202402e+003;7.121217e-002
2.204330e+003;7.124238e-002
2.206259e+003;7.113371e-002
2.208188e+003;7.103264e-002
2.210116e+003;7.093107e-002
2.212044e+003;7.102366e-002
2.213973e+003;7.108653e-002
2.215902e+003;7.081854e-002
2.217830e+003;7.075976e-002
2.219759e+003;7.103056e-002
2.221687e+003;7.101679e-002
2.223616e+003;7.078948e-002
2.225544e+003;7.077548e-002
2.227473e+003;7.069188e-002
2.229401e+003;7.050893e-002
2.231330e+003;7.049844e-002
2.233259e+003;7.062688e-002
2.235187e+003;7.058821e-002
2.237116e+003;7.039993e-002
2.239044e+003;7.045019e-002
2.240973e+003;7.075356e-002
2.242901e+003;7.078761e-002
2.244830e+003;7.070544e-002
2.246758e+003;7.064980e-002
2.248687e+003;7.056154e-002
2.250615e+003;7.074408e-002
2.252544e+003;7.095549e-002
2.254473e+003;7.081857e-002
2.256401e+003;7.041551e-002
2.258330e+003;7.019132e-002
2.260258e+003;7.010125e-002
2.262187e+003;7.010560e-002
2.264115e+003;7.033475e-002
2.266044e+003;7.032570e-002
2.267972e+003;7.012146e-002
2.269901e+003;7.015417e-002
2.271830e+003;7.027943e-002
2.273758e+003;7.015678e-002
2.275687e+003;6.993828e-002
2.277615e+003;6.980207e-002
2.279544e+003;6.964672e-002
2.281472e+003;6.980702e-002
2.283401e+003;7.014564e-002
2.285329e+003;7.016071e-002
2.287258e+003;6.996771e-002
2.289187e+003;6.981954e-002
2.291115e+003;6.980468e-002
2.293043e+003;6.976729e-002
2.294972e+003;6.980542e-002
2.296901e+003;6.986827e-002
2.298829e+003;6.991197e-002
2.300758e+003;7.003147e-002
2.302686e+003;6.986857e-002
2.304615e+003;6.971779e-002
2.306543e+003;7.006048e-002
2.308472e+003;7.041384e-002
2.310400e+003;7.050589e-002
2.312329e+003;7.019047e-002
2.314258e+003;7.014833e-002
2.316186e+003;7.030408e-002
2.318115e+003;7.019257e-002
2.320043e+003;7.005141e-002
2.321972e+003;7.003619e-002
2.323900e+003;7.030120e-002
2.325829e+003;7.038426e-002
2.327757e+003;7.023179e-002
2.329686e+003;7.028254e-002
2.331615e+003;7.018311e-002
2.333543e+003;7.018968e-002
2.335472e+003;7.044657e-002
2.337400e+003;7.042323e-002
2.339329e+003;7.045386e-002
2.341257e+003;7.054681e-002
2.343186e+003;7.053769e-002
2.345114e+003;7.068790e-002
2.347043e+003;7.090259e-002
2.348971e+003;7.102838e-002
2.350900e+003;7.091004e-002
2.352829e+003;7.082981e-002
2.354757e+003;7.089502e-002
2.356686e+003;7.098682e-002
2.358614e+003;7.101960e-002
2.360543e+003;7.109246e-002
2.362471e+003;7.111946e-002
2.364400e+003;7.127522e-002
2.366328e+003;7.147396e-002
2.368257e+003;7.138182e-002
2.370186e+003;7.126878e-002
2.372114e+003;7.127612e-002
2.374042e+003;7.125671e-002
2.375971e+003;7.140170e-002
2.377900e+003;7.163926e-002
2.379828e+003;7.182276e-002
2.381757e+003;7.183187e-002
2.383685e+003;7.190526e-002
2.385614e+003;7.187132e-002
2.387542e+003;7.186772e-002
2.389471e+003;7.200771e-002
2.391399e+003;7.220170e-002
2.393328e+003;7.224016e-002
2.395257e+003;7.226090e-002
2.397185e+003;7.234688e-002
2.399114e+003;7.238226e-002
2.401042e+003;7.251933e-002
2.402971e+003;7.267046e-002
2.404899e+003;7.276381e-002
2.406828e+003;7.282438e-002
2.408756e+003;7.290315e-002
2.410685e+003;7.299310e-002
2.412614e+003;7.302124e-002
2.414542e+003;7.322145e-002
2.416471e+003;7.356353e-002
2.418399e+003;7.375162e-002
2.420328e+003;7.385663e-002
2.422256e+003;7.394395e-002
2.424185e+003;7.389587e-002
2.426113e+003;7.375794e-002
2.428042e+003;7.392808e-002
2.429970e+003;7.396261e-002
2.431899e+003;7.393441e-002
2.433828e+003;7.402115e-002
2.435756e+003;7.420610e-002
2.437685e+003;7.443642e-002
2.439613e+003;7.453739e-002
2.441542e+003;7.470465e-002
2.443470e+003;7.489819e-002
2.445399e+003;7.495292e-002
2.447327e+003;7.482485e-002
2.449256e+003;7.510360e-002
2.451185e+003;7.557696e-002
2.453113e+003;7.567334e-002
2.455042e+003;7.550157e-002
2.456970e+003;7.540791e-002
2.458899e+003;7.543609e-002
2.460827e+003;7.542990e-002
2.462756e+003;7.540736e-002
2.464684e+003;7.544811e-002
2.466613e+003;7.567807e-002
2.468542e+003;7.604259e-002
2.470470e+003;7.618922e-002
2.472398e+003;7.617161e-002
2.474327e+003;7.606430e-002
2.476256e+003;7.606809e-002
2.478184e+003;7.634353e-002
2.480113e+003;7.675379e-002
2.482041e+003;7.673153e-002
2.483970e+003;7.655203e-002
2.485898e+003;7.652642e-002
2.487827e+003;7.654571e-002
2.489755e+003;7.680733e-002
2.491684e+003;7.713840e-002
2.493613e+003;7.723565e-002
2.495541e+003;7.705269e-002
2.497470e+003;7.708838e-002
2.499398e+003;7.711110e-002
2.501327e+003;7.690466e-002
2.503255e+003;7.707556e-002
2.505184e+003;7.731514e-002
2.507112e+003;7.734831e-002
2.509041e+003;7.726724e-002
2.510969e+003;7.732911e-002
2.512898e+003;7.745484e-002
2.514827e+003;7.762481e-002
2.516755e+003;7.790944e-002
2.518684e+003;7.794560e-002
2.520612e+003;7.798806e-002
2.522541e+003;7.820921e-002
2.524469e+003;7.828730e-002
2.526398e+003;7.828436e-002
2.528326e+003;7.839818e-002
2.530255e+003;7.840508e-002
2.532184e+003;7.821929e-002
2.534112e+003;7.819426e-002
2.536041e+003;7.833432e-002
2.537969e+003;7.831816e-002
2.539898e+003;7.840408e-002
2.541826e+003;7.845604e-002
2.543755e+003;7.843556e-002
2.545683e+003;7.852774e-002
2.547612e+003;7.846982e-002
2.549541e+003;7.856958e-002
2.551469e+003;7.868502e-002
2.553397e+003;7.867835e-002
2.555326e+003;7.883255e-002
2.557255e+003;7.895358e-002
2.559183e+003;7.901948e-002
2.561112e+003;7.918004e-002
2.563040e+003;7.928665e-002
2.564969e+003;7.926450e-002
2.566897e+003;7.922787e-002
2.568826e+003;7.954913e-002
2.570754e+003;7.987805e-002
2.572683e+003;7.965962e-002
2.574612e+003;7.943176e-002
2.576540e+003;7.935128e-002
2.578469e+003;7.951651e-002
2.580397e+003;7.977292e-002
2.582326e+003;7.991365e-002
2.584254e+003;8.014914e-002
2.586183e+003;8.026643e-002
2.588111e+003;8.038837e-002
2.590040e+003;8.041860e-002
2.591969e+003;8.009574e-002
2.593897e+003;8.010056e-002
2.595826e+003;8.049712e-002
2.597754e+003;8.092710e-002
2.599683e+003;8.096933e-002
2.601611e+003;8.060793e-002
2.603540e+003;8.070336e-002
2.605468e+003;8.098167e-002
2.607397e+003;8.098267e-002
2.609325e+003;8.093197e-002
2.611254e+003;8.110654e-002
2.613183e+003;8.113126e-002
2.615111e+003;8.115491e-002
2.617040e+003;8.146504e-002
2.618968e+003;8.154523e-002
2.620897e+003;8.164847e-002
2.622825e+003;8.169138e-002
2.624754e+003;8.184578e-002
2.626682e+003;8.199766e-002
2.628611e+003;8.194532e-002
2.630540e+003;8.218391e-002
2.632468e+003;8.237385e-002
2.634396e+003;8.227084e-002
2.636325e+003;8.220913e-002
2.638254e+003;8.242183e-002
2.640182e+003;8.258859e-002
2.642111e+003;8.262522e-002
2.644039e+003;8.263524e-002
2.645968e+003;8.286250e-002
2.647896e+003;8.314285e-002
2.649825e+003;8.326320e-002
2.651753e+003;8.342671e-002
2.653682e+003;8.343790e-002
2.655611e+003;8.343285e-002
2.657539e+003;8.382230e-002
2.659468e+003;8.415462e-002
2.661396e+003;8.418631e-002
2.663325e+003;8.421841e-002
2.665253e+003;8.433677e-002
2.667182e+003;8.458920e-002
2.669110e+003;8.464085e-002
2.671039e+003;8.461174e-002
2.672968e+003;8.466239e-002
2.674896e+003;8.485757e-002
2.676825e+003;8.522822e-002
2.678753e+003;8.528092e-002
2.680682e+003;8.533967e-002
2.682610e+003;8.551086e-002
2.684539e+003;8.559071e-002
2.686467e+003;8.566714e-002
2.688396e+003;8.592992e-002
2.690324e+003;8.646031e-002
2.692253e+003;8.679996e-002
2.694182e+003;8.655482e-002
2.696110e+003;8.627344e-002
2.698039e+003;8.627906e-002
2.699967e+003;8.657929e-002
2.701896e+003;8.704161e-002
2.703824e+003;8.749465e-002
2.705753e+003;8.761005e-002
2.707681e+003;8.766839e-002
2.709610e+003;8.767172e-002
2.711539e+003;8.772203e-002
2.713467e+003;8.789124e-002
2.715396e+003;8.815781e-002
2.717324e+003;8.813110e-002
2.719253e+003;8.818562e-002
2.721181e+003;8.858890e-002
2.723110e+003;8.856749e-002
2.725038e+003;8.839290e-002
2.726967e+003;8.853421e-002
2.728896e+003;8.884756e-002
2.730824e+003;8.915026e-002
2.732752e+003;8.928527e-002
2.734681e+003;8.938935e-002
2.736610e+003;8.952256e-002
2.738538e+003;8.963744e-002
2.740467e+003;8.963773e-002
2.742395e+003;8.950362e-002
2.744324e+003;8.950578e-002
2.746252e+003;8.952288e-002
2.748181e+003;8.956975e-002
2.750109e+003;8.945102e-002
2.752038e+003;8.954463e-002
2.753967e+003;8.998162e-002
2.755895e+003;9.021179e-002
2.757824e+003;9.014992e-002
2.759752e+003;9.031188e-002
2.761681e+003;9.053295e-002
2.763609e+003;9.043574e-002
2.765538e+003;9.079947e-002
2.767466e+003;9.117228e-002
2.769395e+003;9.098238e-002
2.771323e+003;9.101478e-002
2.773252e+003;9.156546e-002
2.775181e+003;9.192248e-002
2.777109e+003;9.193865e-002
2.779038e+003;9.219628e-002
2.780966e+003;9.254704e-002
2.782895e+003;9.279691e-002
2.784823e+003;9.330554e-002
2.786752e+003;9.366595e-002
2.788680e+003;9.387019e-002
2.790609e+003;9.416860e-002
2.792538e+003;9.442340e-002
2.794466e+003;9.466783e-002
2.796395e+003;9.498312e-002
2.798323e+003;9.530713e-002
2.800252e+003;9.557152e-002
2.802180e+003;9.594874e-002
2.804109e+003;9.630504e-002
2.806037e+003;9.663525e-002
2.807966e+003;9.724927e-002
2.809895e+003;9.786732e-002
2.811823e+003;9.820043e-002
2.813751e+003;9.845432e-002
2.815680e+003;9.866544e-002
2.817609e+003;9.887557e-002
2.819537e+003;9.913735e-002
2.821466e+003;9.965038e-002
2.823394e+003;1.002381e-001
2.825323e+003;1.005381e-001
2.827251e+003;1.008050e-001
2.829180e+003;1.012819e-001
2.831108e+003;1.019743e-001
2.833037e+003;1.026670e-001
2.834966e+003;1.032819e-001
2.836894e+003;1.039882e-001
2.838823e+003;1.046884e-001
2.840751e+003;1.056135e-001
2.842680e+003;1.066750e-001
2.844608e+003;1.077007e-001
2.846537e+003;1.089328e-001
2.848465e+003;1.099294e-001
2.850394e+003;1.105871e-001
2.852323e+003;1.114377e-001
2.854251e+003;1.121729e-001
2.856180e+003;1.128159e-001
2.858108e+003;1.139187e-001
2.860037e+003;1.153020e-001
2.861965e+003;1.167629e-001
2.863894e+003;1.182097e-001
2.865822e+003;1.197767e-001
2.867751e+003;1.211776e-001
2.869679e+003;1.222502e-001
2.871608e+003;1.233774e-001
2.873536e+003;1.242639e-001
2.875465e+003;1.249599e-001
2.877394e+003;1.258337e-001
2.879322e+003;1.265630e-001
2.881251e+003;1.268512e-001
2.883179e+003;1.271791e-001
2.885108e+003;1.275030e-001
2.887036e+003;1.280967e-001
2.888965e+003;1.291870e-001
2.890893e+003;1.297178e-001
2.892822e+003;1.298235e-001
2.894750e+003;1.297354e-001
2.896679e+003;1.294436e-001
2.898608e+003;1.286539e-001
2.900536e+003;1.280242e-001
2.902465e+003;1.277745e-001
2.904393e+003;1.273290e-001
2.906322e+003;1.264467e-001
2.908250e+003;1.255157e-001
2.910179e+003;1.247330e-001
2.912107e+003;1.239022e-001
2.914036e+003;1.229693e-001
2.915965e+003;1.220581e-001
2.917893e+003;1.211976e-001
2.919822e+003;1.201738e-001
2.921750e+003;1.187088e-001
2.923679e+003;1.167118e-001
2.925607e+003;1.149137e-001
2.927536e+003;1.136426e-001
2.929464e+003;1.127811e-001
2.931393e+003;1.118021e-001
2.933322e+003;1.108448e-001
2.935250e+003;1.097910e-001
2.937178e+003;1.087929e-001
2.939107e+003;1.078291e-001
2.941036e+003;1.066347e-001
2.942964e+003;1.051516e-001
2.944893e+003;1.038325e-001
2.946821e+003;1.030392e-001
2.948750e+003;1.022049e-001
2.950678e+003;1.011933e-001
2.952607e+003;1.003527e-001
2.954535e+003;9.962979e-002
2.956464e+003;9.886730e-002
2.958393e+003;9.812230e-002
2.960321e+003;9.705923e-002
2.962250e+003;9.607005e-002
2.964178e+003;9.528691e-002
2.966107e+003;9.474048e-002
2.968035e+003;9.448628e-002
2.969964e+003;9.410181e-002
2.971892e+003;9.397438e-002
2.973821e+003;9.385534e-002
2.975750e+003;9.343827e-002
2.977678e+003;9.317711e-002
2.979607e+003;9.309631e-002
2.981535e+003;9.295013e-002
2.983464e+003;9.259760e-002
2.985392e+003;9.217136e-002
2.987321e+003;9.171363e-002
2.989249e+003;9.139784e-002
2.991178e+003;9.120764e-002
2.993106e+003;9.096171e-002
2.995035e+003;9.102549e-002
2.996964e+003;9.146369e-002
2.998892e+003;9.176467e-002
3.000821e+003;9.190819e-002
3.002749e+003;9.189521e-002
3.004678e+003;9.185643e-002
3.006606e+003;9.193058e-002
3.008535e+003;9.208133e-002
3.010463e+003;9.235281e-002
3.012392e+003;9.264173e-002
3.014321e+003;9.285353e-002
3.016249e+003;9.304836e-002
3.018177e+003;9.330426e-002
3.020106e+003;9.357799e-002
3.022035e+003;9.384654e-002
3.023963e+003;9.448916e-002
3.025892e+003;9.516430e-002
3.027820e+003;9.542950e-002
3.029749e+003;9.589060e-002
3.031677e+003;9.644158e-002
3.033606e+003;9.656957e-002
3.035534e+003;9.679145e-002
3.037463e+003;9.735589e-002
3.039392e+003;9.794897e-002
3.041320e+003;9.805913e-002
3.043249e+003;9.814406e-002
3.045177e+003;9.864119e-002
3.047106e+003;9.898380e-002
3.049034e+003;9.910026e-002
3.050963e+003;9.965367e-002
3.052891e+003;1.007426e-001
3.054820e+003;1.014490e-001
3.056749e+003;1.017058e-001
3.058677e+003;1.021471e-001
3.060606e+003;1.027143e-001
3.062534e+003;1.030397e-001
3.064463e+003;1.038132e-001
3.066391e+003;1.045626e-001
3.068320e+003;1.045973e-001
3.070248e+003;1.048659e-001
3.072177e+003;1.055685e-001
3.074105e+003;1.064317e-001
3.076034e+003;1.072934e-001
3.077963e+003;1.074144e-001
3.079891e+003;1.075793e-001
3.081820e+003;1.085685e-001
3.083748e+003;1.093459e-001
3.085677e+003;1.098413e-001
3.087605e+003;1.105409e-001
3.089534e+003;1.110288e-001
3.091462e+003;1.114498e-001
3.093391e+003;1.120679e-001
3.095320e+003;1.124694e-001
3.097248e+003;1.131852e-001
3.099177e+003;1.138242e-001
3.101105e+003;1.145897e-001
3.103034e+003;1.155149e-001
3.104962e+003;1.161633e-001
3.106891e+003;1.168812e-001
3.108819e+003;1.174236e-001
3.110748e+003;1.178446e-001
3.112677e+003;1.185677e-001
3.114605e+003;1.193962e-001
3.116533e+003;1.202126e-001
3.118462e+003;1.209871e-001
3.120391e+003;1.215424e-001
3.122319e+003;1.219524e-001
3.124248e+003;1.225776e-001
3.126176e+003;1.233805e-001
3.128105e+003;1.239100e-001
3.130033e+003;1.243965e-001
3.131962e+003;1.251815e-001
3.133890e+003;1.260979e-001
3.135819e+003;1.264566e-001
3.137748e+003;1.265665e-001
3.139676e+003;1.272475e-001
3.141605e+003;1.279976e-001
3.143533e+003;1.285564e-001
3.145462e+003;1.290849e-001
3.147390e+003;1.297609e-001
3.149319e+003;1.305741e-001
3.151247e+003;1.310394e-001
3.153176e+003;1.314286e-001
3.155104e+003;1.318441e-001
3.157033e+003;1.321427e-001
3.158962e+003;1.324562e-001
3.160890e+003;1.329778e-001
3.162819e+003;1.334663e-001
3.164747e+003;1.340511e-001
3.166676e+003;1.346465e-001
3.168604e+003;1.349631e-001
3.170533e+003;1.349673e-001
3.172461e+003;1.352652e-001
3.174390e+003;1.356759e-001
3.176319e+003;1.359327e-001
3.178247e+003;1.365409e-001
3.180176e+003;1.371803e-001
3.182104e+003;1.373336e-001
3.184033e+003;1.375573e-001
3.185961e+003;1.383145e-001
3.187890e+003;1.389866e-001
3.189818e+003;1.393809e-001
3.191747e+003;1.397882e-001
3.193676e+003;1.400937e-001
3.195604e+003;1.403434e-001
3.197532e+003;1.406159e-001
3.199461e+003;1.411006e-001
3.201390e+003;1.417341e-001
3.203318e+003;1.424716e-001
3.205247e+003;1.428398e-001
3.207175e+003;1.432840e-001
3.209104e+003;1.435992e-001
3.211032e+003;1.439747e-001
3.212961e+003;1.444557e-001
3.214889e+003;1.450962e-001
3.216818e+003;1.454658e-001
3.218747e+003;1.456144e-001
3.220675e+003;1.458774e-001
3.222604e+003;1.464160e-001
3.224532e+003;1.468368e-001
3.226461e+003;1.472778e-001
3.228389e+003;1.481230e-001
3.230318e+003;1.487392e-001
3.232246e+003;1.490479e-001
3.234175e+003;1.495847e-001
3.236104e+003;1.503615e-001
3.238032e+003;1.505556e-001
3.239961e+003;1.505960e-001
3.241889e+003;1.513208e-001
3.243818e+003;1.517207e-001
3.245746e+003;1.517073e-001
3.247675e+003;1.525141e-001
3.249603e+003;1.533353e-001
3.251532e+003;1.536817e-001
3.253460e+003;1.541841e-001
3.255389e+003;1.545155e-001
3.257318e+003;1.546097e-001
3.259246e+003;1.547243e-001
3.261175e+003;1.554095e-001
3.263103e+003;1.561681e-001
3.265032e+003;1.565042e-001
3.266960e+003;1.568216e-001
3.268889e+003;1.571206e-001
3.270817e+003;1.577286e-001
3.272746e+003;1.583371e-001
3.274675e+003;1.584237e-001
3.276603e+003;1.585010e-001
3.278531e+003;1.588346e-001
3.280460e+003;1.590175e-001
3.282389e+003;1.589053e-001
3.284317e+003;1.591662e-001
3.286246e+003;1.596115e-001
3.288174e+003;1.599776e-001
3.290103e+003;1.605608e-001
3.292031e+003;1.604467e-001
3.293960e+003;1.603072e-001
3.295888e+003;1.607338e-001
3.297817e+003;1.610627e-001
3.299746e+003;1.612757e-001
3.301674e+003;1.615165e-001
3.303603e+003;1.616367e-001
3.305531e+003;1.614136e-001
3.307460e+003;1.613960e-001
3.309388e+003;1.615345e-001
3.311317e+003;1.615317e-001
3.313245e+003;1.619490e-001
3.315174e+003;1.625158e-001
3.317103e+003;1.625768e-001
3.319031e+003;1.623672e-001
3.320960e+003;1.624428e-001
3.322888e+003;1.624194e-001
3.324817e+003;1.624155e-001
3.326745e+003;1.626241e-001
3.328674e+003;1.626997e-001
3.330602e+003;1.626356e-001
3.332531e+003;1.623520e-001
3.334459e+003;1.621404e-001
3.336388e+003;1.622217e-001
3.338317e+003;1.623591e-001
3.340245e+003;1.624688e-001
3.342174e+003;1.627887e-001
3.344102e+003;1.625895e-001
3.346031e+003;1.619619e-001
3.347959e+003;1.615760e-001
3.349888e+003;1.611153e-001
3.351816e+003;1.610738e-001
3.353745e+003;1.610906e-001
3.355674e+003;1.606540e-001
3.357602e+003;1.603980e-001
3.359531e+003;1.601049e-001
3.361459e+003;1.595275e-001
3.363388e+003;1.593067e-001
3.365316e+003;1.595054e-001
3.367245e+003;1.593692e-001
3.369173e+003;1.586745e-001
3.371102e+003;1.579694e-001
3.373031e+003;1.580941e-001
3.374959e+003;1.581685e-001
3.376887e+003;1.572689e-001
3.378816e+003;1.567298e-001
3.380745e+003;1.563227e-001
3.382673e+003;1.561606e-001
3.384602e+003;1.561606e-001
3.386530e+003;1.553527e-001
3.388459e+003;1.547668e-001
3.390387e+003;1.548780e-001
3.392316e+003;1.546231e-001
3.394244e+003;1.540511e-001
3.396173e+003;1.535874e-001
3.398102e+003;1.531461e-001
3.400030e+003;1.526557e-001
3.401959e+003;1.525021e-001
3.403887e+003;1.521045e-001
3.405816e+003;1.515026e-001
3.407744e+003;1.511779e-001
3.409673e+003;1.509496e-001
3.411601e+003;1.506273e-001
3.413530e+003;1.500469e-001
3.415458e+003;1.498541e-001
3.417387e+003;1.493858e-001
3.419316e+003;1.488295e-001
3.421244e+003;1.489499e-001
3.423173e+003;1.483986e-001
3.425101e+003;1.473930e-001
3.427030e+003;1.474670e-001
3.428958e+003;1.477135e-001
3.430887e+003;1.472447e-001
3.432815e+003;1.471877e-001
3.434744e+003;1.474623e-001
3.436673e+003;1.471635e-001
3.438601e+003;1.468514e-001
3.440530e+003;1.466320e-001
3.442458e+003;1.463698e-001
3.444387e+003;1.454814e-001
3.446315e+003;1.443801e-001
3.448244e+003;1.431810e-001
3.450172e+003;1.418325e-001
3.452101e+003;1.403073e-001
3.454030e+003;1.389582e-001
3.455958e+003;1.374554e-001
3.457886e+003;1.358012e-001
3.459815e+003;1.343937e-001
3.461744e+003;1.333335e-001
3.463672e+003;1.321618e-001
3.465601e+003;1.310800e-001
3.467529e+003;1.300588e-001
3.469458e+003;1.294071e-001
3.471386e+003;1.283526e-001
3.473315e+003;1.271558e-001
3.475243e+003;1.262710e-001
3.477172e+003;1.258162e-001
3.479101e+003;1.252759e-001
3.481029e+003;1.246907e-001
3.482958e+003;1.243831e-001
3.484886e+003;1.237474e-001
3.486815e+003;1.225741e-001
3.488743e+003;1.208044e-001
3.490672e+003;1.193778e-001
3.492600e+003;1.181462e-001
3.494529e+003;1.166999e-001
3.496458e+003;1.151978e-001
3.498386e+003;1.135745e-001
3.500315e+003;1.121437e-001
3.502243e+003;1.106091e-001
3.504172e+003;1.087006e-001
3.506100e+003;1.069829e-001
3.508029e+003;1.055275e-001
3.509957e+003;1.041599e-001
3.511886e+003;1.031387e-001
3.513814e+003;1.021950e-001
3.515743e+003;1.007589e-001
3.517672e+003;9.941741e-002
3.519600e+003;9.832066e-002
3.521529e+003;9.702935e-002
3.523457e+003;9.595507e-002
3.525386e+003;9.489048e-002
3.527314e+003;9.376471e-002
3.529243e+003;9.254097e-002
3.531171e+003;9.166563e-002
3.533100e+003;9.103210e-002
3.535029e+003;9.050614e-002
3.536957e+003;8.983258e-002
3.538885e+003;8.877926e-002
3.540814e+003;8.792885e-002
3.542743e+003;8.703646e-002
3.544671e+003;8.612784e-002
3.546600e+003;8.552833e-002
3.548528e+003;8.491223e-002
3.550457e+003;8.367515e-002
3.552385e+003;8.254219e-002
3.554314e+003;8.186786e-002
3.556242e+003;8.155239e-002
3.558171e+003;8.123480e-002
3.560100e+003;8.056429e-002
3.562028e+003;7.949363e-002
3.563957e+003;7.844378e-002
3.565885e+003;7.753036e-002
3.567814e+003;7.701048e-002
3.569742e+003;7.647213e-002
3.571671e+003;7.567188e-002
3.573599e+003;7.513811e-002
3.575528e+003;7.462744e-002
3.577457e+003;7.430977e-002
3.579385e+003;7.371243e-002
3.581314e+003;7.293388e-002
3.583242e+003;7.242408e-002
3.585171e+003;7.194987e-002
3.587099e+003;7.139120e-002
3.589028e+003;7.087166e-002
3.590956e+003;7.048991e-002
3.592885e+003;6.992629e-002
3.594813e+003;6.944715e-002
3.596742e+003;6.896333e-002
3.598671e+003;6.806671e-002
3.600599e+003;6.748881e-002
3.602528e+003;6.709904e-002
3.604456e+003;6.638520e-002
3.606385e+003;6.596093e-002
3.608313e+003;6.573159e-002
3.610242e+003;6.562239e-002
3.612170e+003;6.540620e-002
3.614099e+003;6.471990e-002
3.616028e+003;6.411932e-002
3.617956e+003;6.368153e-002
3.619885e+003;6.345626e-002
3.621813e+003;6.330048e-002
3.623742e+003;6.297202e-002
3.625670e+003;6.262321e-002
3.627599e+003;6.223204e-002
3.629527e+003;6.175340e-002
3.631456e+003;6.153516e-002
3.633385e+003;6.137839e-002
3.635313e+003;6.138732e-002
3.637241e+003;6.121153e-002
3.639170e+003;6.089931e-002
3.641099e+003;6.103189e-002
3.643027e+003;6.099368e-002
3.644956e+003;6.031709e-002
3.646884e+003;5.929066e-002
3.648813e+003;5.887288e-002
3.650741e+003;5.919477e-002
3.652670e+003;5.910539e-002
3.654598e+003;5.895940e-002
3.656527e+003;5.881449e-002
3.658456e+003;5.843094e-002
3.660384e+003;5.812519e-002
3.662313e+003;5.817568e-002
3.664241e+003;5.802353e-002
3.666170e+003;5.786988e-002
3.668098e+003;5.783490e-002
3.670027e+003;5.726406e-002
3.671955e+003;5.675748e-002
3.673884e+003;5.671572e-002
3.675813e+003;5.650207e-002
3.677741e+003;5.625047e-002
3.679669e+003;5.607501e-002
3.681598e+003;5.629694e-002
3.683527e+003;5.680227e-002
3.685455e+003;5.650019e-002
3.687384e+003;5.578120e-002
3.689312e+003;5.548405e-002
3.691241e+003;5.589149e-002
3.693169e+003;5.611355e-002
3.695098e+003;5.569113e-002
3.697026e+003;5.519672e-002
3.698955e+003;5.473411e-002
3.700884e+003;5.465549e-002
3.702812e+003;5.500548e-002
3.704741e+003;5.520361e-002
3.706669e+003;5.501560e-002
3.708598e+003;5.483188e-002
3.710526e+003;5.417747e-002
3.712455e+003;5.396176e-002
3.714383e+003;5.461409e-002
3.716312e+003;5.476911e-002
3.718240e+003;5.448106e-002
3.720169e+003;5.457569e-002
3.722098e+003;5.451802e-002
3.724026e+003;5.400003e-002
3.725955e+003;5.390298e-002
3.727883e+003;5.417556e-002
3.729812e+003;5.380845e-002
3.731740e+003;5.328360e-002
3.733669e+003;5.343185e-002
3.735597e+003;5.376844e-002
3.737526e+003;5.388463e-002
3.739455e+003;5.363766e-002
3.741383e+003;5.346640e-002
3.743312e+003;5.319670e-002
3.745240e+003;5.297527e-002
3.747169e+003;5.339468e-002
3.749097e+003;5.318494e-002
3.751026e+003;5.268740e-002
3.752954e+003;5.280191e-002
3.754883e+003;5.320273e-002
3.756812e+003;5.369731e-002
3.758740e+003;5.414226e-002
3.760668e+003;5.375633e-002
3.762597e+003;5.339262e-002
3.764526e+003;5.329637e-002
3.766454e+003;5.331671e-002
3.768383e+003;5.306949e-002
3.770311e+003;5.322576e-002
3.772240e+003;5.382406e-002
3.774168e+003;5.400454e-002
3.776097e+003;5.405080e-002
3.778025e+003;5.361141e-002
3.779954e+003;5.339723e-002
3.781883e+003;5.355728e-002
3.783811e+003;5.377508e-002
3.785740e+003;5.386460e-002
3.787668e+003;5.377358e-002
3.789597e+003;5.381543e-002
3.791525e+003;5.397696e-002
3.793454e+003;5.419500e-002
3.795382e+003;5.375175e-002
3.797311e+003;5.347498e-002
3.799240e+003;5.326700e-002
3.801168e+003;5.254381e-002
3.803097e+003;5.286751e-002
3.805025e+003;5.333132e-002
3.806954e+003;5.336246e-002
3.808882e+003;5.376769e-002
3.810811e+003;5.382878e-002
3.812739e+003;5.348360e-002
3.814668e+003;5.316060e-002
3.816596e+003;5.291751e-002
3.818525e+003;5.290419e-002
3.820454e+003;5.281857e-002
3.822382e+003;5.316273e-002
3.824311e+003;5.359376e-002
3.826239e+003;5.372966e-002
3.828168e+003;5.365355e-002
3.830096e+003;5.338441e-002
3.832025e+003;5.377755e-002
3.833953e+003;5.415851e-002
3.835882e+003;5.387177e-002
3.837811e+003;5.350080e-002
3.839739e+003;5.362330e-002
3.841667e+003;5.382541e-002
3.843596e+003;5.387379e-002
3.845525e+003;5.388201e-002
3.847453e+003;5.373030e-002
3.849382e+003;5.395580e-002
3.851310e+003;5.395767e-002
3.853239e+003;5.369183e-002
3.855167e+003;5.397583e-002
3.857096e+003;5.434161e-002
3.859024e+003;5.467984e-002
3.860953e+003;5.465981e-002
3.862882e+003;5.442731e-002
3.864810e+003;5.437229e-002
3.866739e+003;5.461604e-002
3.868667e+003;5.499195e-002
3.870596e+003;5.473573e-002
3.872524e+003;5.439655e-002
3.874453e+003;5.417503e-002
3.876381e+003;5.468879e-002
3.878310e+003;5.498333e-002
3.880239e+003;5.475851e-002
3.882167e+003;5.447486e-002
3.884096e+003;5.446423e-002
3.886024e+003;5.476031e-002
3.887953e+003;5.514578e-002
3.889881e+003;5.528331e-002
3.891810e+003;5.518988e-002
3.893738e+003;5.523175e-002
3.895667e+003;5.486733e-002
3.897595e+003;5.465914e-002
3.899524e+003;5.483763e-002
3.901453e+003;5.510993e-002
3.903381e+003;5.542310e-002
3.905310e+003;5.565135e-002
3.907238e+003;5.546334e-002
3.909167e+003;5.537100e-002
3.911095e+003;5.536547e-002
3.913024e+003;5.547768e-002
3.914952e+003;5.583783e-002
3.916881e+003;5.596400e-002
3.918810e+003;5.607196e-002
3.920738e+003;5.613832e-002
3.922667e+003;5.613244e-002
3.924595e+003;5.628879e-002
3.926524e+003;5.601451e-002
3.928452e+003;5.561139e-002
3.930381e+003;5.593219e-002
3.932309e+003;5.608146e-002
3.934238e+003;5.621736e-002
3.936167e+003;5.628140e-002
3.938095e+003;5.636782e-002
3.940023e+003;5.660651e-002
3.941952e+003;5.644169e-002
3.943881e+003;5.623648e-002
3.945809e+003;5.621996e-002
3.947738e+003;5.612248e-002
3.949666e+003;5.641302e-002
3.951595e+003;5.666456e-002
3.953523e+003;5.681473e-002
3.955452e+003;5.703711e-002
3.957380e+003;5.664614e-002
3.959309e+003;5.659046e-002
3.961238e+003;5.704875e-002
3.963166e+003;5.705785e-002
3.965095e+003;5.670873e-002
3.967023e+003;5.631569e-002
3.968952e+003;5.627069e-002
3.970880e+003;5.644947e-002
3.972809e+003;5.657057e-002
3.974737e+003;5.673441e-002
3.976666e+003;5.684860e-002
3.978594e+003;5.695070e-002
3.980523e+003;5.688577e-002
3.982452e+003;5.658499e-002
3.984380e+003;5.630498e-002
3.986309e+003;5.596023e-002
3.988237e+003;5.616290e-002
3.990166e+003;5.649139e-002
3.992094e+003;5.682228e-002
3.994023e+003;5.681911e-002
3.995951e+003;5.651585e-002
3.997880e+003;5.639212e-002
3.999809e+003;5.642302e-002
4.001737e+003;0.000000e+000
