3.992094e+002;0.000000e+000
4.011380e+002;0.000000e+000
4.030665e+002;0.000000e+000
4.049951e+002;0.000000e+000
4.069236e+002;0.000000e+000
4.088522e+002;0.000000e+000
4.107807e+002;0.000000e+000
4.127093e+002;0.000000e+000
4.146378e+002;0.000000e+000
4.165664e+002;0.000000e+000
4.184949e+002;0.000000e+000
4.204235e+002;0.000000e+000
4.223520e+002;0.000000e+000
4.242806e+002;0.000000e+000
4.262091e+002;0.000000e+000
4.281377e+002;0.000000e+000
4.300662e+002;0.000000e+000
4.319948e+002;0.000000e+000
4.339233e+002;0.000000e+000
4.358519e+002;0.000000e+000
4.377804e+002;0.000000e+000
4.397090e+002;0.000000e+000
4.416375e+002;0.000000e+000
4.435660e+002;0.000000e+000
4.454946e+002;0.000000e+000
4.474232e+002;0.000000e+000
4.493517e+002;0.000000e+000
4.512802e+002;0.000000e+000
4.532088e+002;0.000000e+000
4.551373e+002;0.000000e+000
4.570659e+002;0.000000e+000
4.589944e+002;0.000000e+000
4.609230e+002;0.000000e+000
4.628515e+002;0.000000e+000
4.647801e+002;0.000000e+000
4.667086e+002;0.000000e+000
4.686372e+002;0.000000e+000
4.705657e+002;0.000000e+000
4.724943e+002;0.000000e+000
4.744228e+002;0.000000e+000
4.763513e+002;0.000000e+000
4.782799e+002;0.000000e+000
4.802085e+002;0.000000e+000
4.821370e+002;0.000000e+000
4.840656e+002;0.000000e+000
4.859941e+002;0.000000e+000
4.879226e+002;0.000000e+000
4.898512e+002;0.000000e+000
4.917798e+002;0.000000e+000
4.937083e+002;0.000000e+000
4.956368e+002;0.000000e+000
4.975654e+002;0.000000e+000
4.994939e+002;0.000000e+000
5.014225e+002;0.000000e+000
5.033510e+002;0.000000e+000
5.052796e+002;0.000000e+000
5.072081e+002;0.000000e+000
5.091367e+002;0.000000e+000
5.110652e+002;0.000000e+000
5.129938e+002;0.000000e+000
5.149223e+002;0.000000e+000
5.168509e+002;0.000000e+000
5.187794e+002;0.000000e+000
5.207079e+002;0.000000e+000
5.226365e+002;0.000000e+000
5.245651e+002;0.000000e+000
5.264936e+002;0.000000e+000
5.284222e+002;0.000000e+000
5.303507e+002;0.000000e+000
5.322792e+002;0.000000e+000
5.342078e+002;0.000000e+000
5.361364e+002;0.000000e+000
5.380649e+002;0.000000e+000
5.399935e+002;0.000000e+000
5.419220e+002;0.000000e+000
5.438505e+002;0.000000e+000
5.457791e+002;0.000000e+000
5.477076e+002;0.000000e+000
5.496362e+002;0.000000e+000
5.515648e+002;0.000000e+000
5.534933e+002;0.000000e+000
5.554218e+002;0.000000e+000
5.573504e+002;0.000000e+000
5.592789e+002;0.000000e+000
5.612075e+002;0.000000e+000
5.631360e+002;0.000000e+000
5.650646e+002;0.000000e+000
5.669931e+002;0.000000e+000
5.689217e+002;0.000000e+000
5.708502e+002;0.000000e+000
5.727787e+002;0.000000e+000
5.747073e+002;0.000000e+000
5.766359e+002;0.000000e+000
5.785644e+002;0.000000e+000
5.804930e+002;0.000000e+000
5.824215e+002;0.000000e+000
5.843500e+002;0.000000e+000
5.862786e+002;0.000000e+000
5.882072e+002;0.000000e+000
5.901357e+002;0.000000e+000
5.920643e+002;0.000000e+000
5.939928e+002;0.000000e+000
5.959213e+002;0.000000e+000
5.978499e+002;0.000000e+000
5.997784e+002;2.960411e-001
6.017070e+002;2.918806e-001
6.036355e+002;2.897579e-001
6.055641e+002;2.974550e-001
6.074926e+002;3.037925e-001
6.094211e+002;3.000700e-001
6.113497e+002;2.943836e-001
6.132783e+002;2.891385e-001
6.152068e+002;2.830254e-001
6.171354e+002;2.813929e-001
6.190639e+002;2.826083e-001
6.209924e+002;2.819749e-001
6.229210e+002;2.827867e-001
6.248495e+002;2.820707e-001
6.267781e+002;2.778714e-001
6.287067e+002;2.741195e-001
6.306352e+002;2.740738e-001
6.325637e+002;2.724872e-001
6.344923e+002;2.712761e-001
6.364208e+002;2.708348e-001
6.383494e+002;2.690705e-001
6.402780e+002;2.689227e-001
6.422065e+002;2.660071e-001
6.441350e+002;2.642759e-001
6.460636e+002;2.645915e-001
6.479921e+002;2.649870e-001
6.499207e+002;2.664737e-001
6.518492e+002;2.656535e-001
6.537778e+002;2.650864e-001
6.557063e+002;2.692720e-001
6.576349e+002;2.705396e-001
6.595634e+002;2.711626e-001
6.614919e+002;2.727802e-001
6.634205e+002;2.718373e-001
6.653491e+002;2.703902e-001
6.672776e+002;2.677354e-001
6.692062e+002;2.649637e-001
6.711347e+002;2.611866e-001
6.730632e+002;2.523192e-001
6.749918e+002;2.426306e-001
6.769203e+002;2.339728e-001
6.788489e+002;2.273752e-001
6.807775e+002;2.217015e-001
6.827060e+002;2.173022e-001
6.846345e+002;2.141435e-001
6.865631e+002;2.114001e-001
6.884916e+002;2.105381e-001
6.904202e+002;2.093608e-001
6.923488e+002;2.088225e-001
6.942773e+002;2.087135e-001
6.962058e+002;2.074296e-001
6.981344e+002;2.058110e-001
7.000629e+002;2.054236e-001
7.019915e+002;2.042246e-001
7.039200e+002;2.018491e-001
7.058486e+002;2.015292e-001
7.077771e+002;2.018172e-001
7.097057e+002;2.002545e-001
7.116342e+002;1.990482e-001
7.135627e+002;1.981122e-001
7.154913e+002;1.974176e-001
7.174199e+002;1.974216e-001
7.193484e+002;1.958835e-001
7.212770e+002;1.936659e-001
7.232055e+002;1.914089e-001
7.251340e+002;1.898133e-001
7.270626e+002;1.895144e-001
7.289911e+002;1.888355e-001
7.309197e+002;1.875120e-001
7.328483e+002;1.857841e-001
7.347768e+002;1.837374e-001
7.367053e+002;1.815810e-001
7.386339e+002;1.795875e-001
7.405624e+002;1.791590e-001
7.424910e+002;1.786471e-001
7.444196e+002;1.770898e-001
7.463481e+002;1.761391e-001
7.482766e+002;1.757901e-001
7.502052e+002;1.744862e-001
7.521337e+002;1.722693e-001
7.540623e+002;1.707120e-001
7.559908e+002;1.692555e-001
7.579194e+002;1.681262e-001
7.598479e+002;1.674996e-001
7.617765e+002;1.664638e-001
7.637050e+002;1.654566e-001
7.656335e+002;1.646470e-001
7.675621e+002;1.635175e-001
7.694907e+002;1.619891e-001
7.714192e+002;1.612195e-001
7.733478e+002;1.606425e-001
7.752763e+002;1.589985e-001
7.772048e+002;1.567299e-001
7.791334e+002;1.549877e-001
7.810620e+002;1.543137e-001
7.829905e+002;1.537542e-001
7.849191e+002;1.529651e-001
7.868476e+002;1.520944e-001
7.887761e+002;1.508645e-001
7.907047e+002;1.496358e-001
7.926332e+002;1.490189e-001
7.945618e+002;1.477814e-001
7.964903e+002;1.471936e-001
7.984189e+002;1.471055e-001
8.003474e+002;1.469528e-001
8.022759e+002;1.464286e-001
8.042045e+002;1.462390e-001
8.061331e+002;1.469470e-001
8.080616e+002;1.464432e-001
8.099902e+002;1.452792e-001
8.119187e+002;1.444094e-001
8.138472e+002;1.442822e-001
8.157758e+002;1.442206e-001
8.177043e+002;1.441685e-001
8.196329e+002;1.442566e-001
8.215615e+002;1.442825e-001
8.234900e+002;1.442520e-001
8.254185e+002;1.441931e-001
8.273471e+002;1.439840e-001
8.292756e+002;1.437019e-001
8.312042e+002;1.433896e-001
8.331328e+002;1.432441e-001
8.350613e+002;1.428089e-001
8.369898e+002;1.424202e-001
8.389184e+002;1.417873e-001
8.408469e+002;1.402860e-001
8.427755e+002;1.390898e-001
8.447040e+002;1.391801e-001
8.466326e+002;1.396371e-001
8.485611e+002;1.398486e-001
8.504897e+002;1.396437e-001
8.524182e+002;1.393179e-001
8.543467e+002;1.392293e-001
8.562753e+002;1.398359e-001
8.582039e+002;1.405831e-001
8.601324e+002;1.414308e-001
8.620610e+002;1.427241e-001
8.639895e+002;1.444003e-001
8.659180e+002;1.461782e-001
8.678466e+002;1.478877e-001
8.697751e+002;1.500558e-001
8.717037e+002;1.529786e-001
8.736323e+002;1.562587e-001
8.755608e+002;1.599237e-001
8.774893e+002;1.645899e-001
8.794179e+002;1.698750e-001
8.813464e+002;1.754088e-001
8.832750e+002;1.809415e-001
8.852036e+002;1.866143e-001
8.871321e+002;1.923114e-001
8.890606e+002;1.975546e-001
8.909892e+002;2.023960e-001
8.929177e+002;2.059511e-001
8.948463e+002;2.075178e-001
8.967748e+002;2.073728e-001
8.987034e+002;2.059843e-001
9.006319e+002;2.028771e-001
9.025605e+002;1.988427e-001
9.044890e+002;1.954374e-001
9.064175e+002;1.921643e-001
9.083461e+002;1.882862e-001
9.102747e+002;1.845968e-001
9.122032e+002;1.819205e-001
9.141318e+002;1.799855e-001
9.160603e+002;1.788469e-001
9.179888e+002;1.785575e-001
9.199174e+002;1.791653e-001
9.218459e+002;1.803386e-001
9.237745e+002;1.815918e-001
9.257031e+002;1.829650e-001
9.276316e+002;1.849669e-001
9.295601e+002;1.868602e-001
9.314887e+002;1.885585e-001
9.334172e+002;1.903196e-001
9.353458e+002;1.924019e-001
9.372744e+002;1.945939e-001
9.392029e+002;1.970898e-001
9.411314e+002;1.999555e-001
9.430600e+002;2.029889e-001
9.449885e+002;2.069762e-001
9.469171e+002;2.114481e-001
9.488456e+002;2.163520e-001
9.507742e+002;2.215407e-001
9.527027e+002;2.270708e-001
9.546313e+002;2.328448e-001
9.565598e+002;2.390036e-001
9.584883e+002;2.454282e-001
9.604169e+002;2.517861e-001
9.623455e+002;2.584729e-001
9.642740e+002;2.657576e-001
9.662026e+002;2.733397e-001
9.681311e+002;2.814999e-001
9.700596e+002;2.903762e-001
9.719882e+002;3.002889e-001
9.739167e+002;3.114789e-001
9.758453e+002;3.243304e-001
9.777739e+002;3.389252e-001
9.797024e+002;3.557938e-001
9.816309e+002;3.744409e-001
9.835595e+002;3.939463e-001
9.854880e+002;4.139871e-001
9.874166e+002;4.327446e-001
9.893452e+002;4.493923e-001
9.912737e+002;4.644409e-001
9.932022e+002;4.764447e-001
9.951307e+002;4.848807e-001
9.970593e+002;4.908840e-001
9.989879e+002;4.948685e-001
1.000916e+003;4.985113e-001
1.002845e+003;5.034165e-001
1.004773e+003;5.100749e-001
1.006702e+003;5.178487e-001
1.008631e+003;5.263469e-001
1.010559e+003;5.361623e-001
1.012488e+003;5.476298e-001
1.014416e+003;5.590142e-001
1.016345e+003;5.686302e-001
1.018273e+003;5.751294e-001
1.020202e+003;5.786931e-001
1.022130e+003;5.799018e-001
1.024059e+003;5.782344e-001
1.025988e+003;5.744029e-001
1.027916e+003;5.695536e-001
1.029845e+003;5.623652e-001
1.031773e+003;5.536661e-001
1.033702e+003;5.460436e-001
1.035630e+003;5.401071e-001
1.037559e+003;5.346240e-001
1.039487e+003;5.293424e-001
1.041416e+003;5.236030e-001
1.043344e+003;5.180522e-001
1.045273e+003;5.130450e-001
1.047202e+003;5.067502e-001
1.049130e+003;5.007885e-001
1.051059e+003;4.954638e-001
1.052987e+003;4.896696e-001
1.054916e+003;4.833240e-001
1.056844e+003;4.770456e-001
1.058773e+003;4.697696e-001
1.060701e+003;4.616638e-001
1.062630e+003;4.538268e-001
1.064558e+003;4.457347e-001
1.066487e+003;4.375673e-001
1.068416e+003;4.295901e-001
1.070344e+003;4.212185e-001
1.072273e+003;4.127273e-001
1.074201e+003;4.037712e-001
1.076130e+003;3.946053e-001
1.078058e+003;3.863694e-001
1.079987e+003;3.787225e-001
1.081915e+003;3.706884e-001
1.083844e+003;3.636816e-001
1.085773e+003;3.573496e-001
1.087701e+003;3.511650e-001
1.089630e+003;3.445601e-001
1.091558e+003;3.376945e-001
1.093487e+003;3.306790e-001
1.095415e+003;3.236089e-001
1.097344e+003;3.164392e-001
1.099272e+003;3.090403e-001
1.101201e+003;3.015278e-001
1.103129e+003;2.950160e-001
1.105058e+003;2.890477e-001
1.106987e+003;2.831213e-001
1.108915e+003;2.776208e-001
1.110844e+003;2.729513e-001
1.112772e+003;2.684033e-001
1.114701e+003;2.634631e-001
1.116629e+003;2.578225e-001
1.118558e+003;2.518964e-001
1.120486e+003;2.456634e-001
1.122415e+003;2.386525e-001
1.124344e+003;2.316101e-001
1.126272e+003;2.249893e-001
1.128201e+003;2.181545e-001
1.130129e+003;2.115782e-001
1.132058e+003;2.055175e-001
1.133986e+003;2.000534e-001
1.135915e+003;1.950835e-001
1.137843e+003;1.910533e-001
1.139772e+003;1.878433e-001
1.141700e+003;1.854122e-001
1.143629e+003;1.841551e-001
1.145557e+003;1.841712e-001
1.147486e+003;1.850841e-001
1.149415e+003;1.865717e-001
1.151343e+003;1.882084e-001
1.153272e+003;1.892880e-001
1.155200e+003;1.896652e-001
1.157129e+003;1.889513e-001
1.159057e+003;1.867840e-001
1.160986e+003;1.834049e-001
1.162914e+003;1.783095e-001
1.164843e+003;1.718319e-001
1.166771e+003;1.645829e-001
1.168700e+003;1.567853e-001
1.170629e+003;1.495688e-001
1.172557e+003;1.427584e-001
1.174486e+003;1.365723e-001
1.176414e+003;1.312725e-001
1.178343e+003;1.266576e-001
1.180271e+003;1.227740e-001
1.182200e+003;1.198536e-001
1.184128e+003;1.183629e-001
1.186057e+003;1.182128e-001
1.187986e+003;1.192019e-001
1.189914e+003;1.214588e-001
1.191843e+003;1.245078e-001
1.193771e+003;1.275543e-001
1.195700e+003;1.299361e-001
1.197628e+003;1.318541e-001
1.199557e+003;1.325732e-001
1.201485e+003;1.317921e-001
1.203414e+003;1.301358e-001
1.205343e+003;1.282246e-001
1.207271e+003;1.258489e-001
1.209200e+003;1.235082e-001
1.211128e+003;1.220935e-001
1.213057e+003;1.218144e-001
1.214985e+003;1.227278e-001
1.216914e+003;1.240838e-001
1.218842e+003;1.256926e-001
1.220771e+003;1.275176e-001
1.222699e+003;1.298166e-001
1.224628e+003;1.324142e-001
1.226557e+003;1.341177e-001
1.228485e+003;1.350421e-001
1.230414e+003;1.361820e-001
1.232342e+003;1.372953e-001
1.234271e+003;1.381138e-001
1.236199e+003;1.384370e-001
1.238128e+003;1.382164e-001
1.240056e+003;1.379906e-001
1.241985e+003;1.379806e-001
1.243913e+003;1.381224e-001
1.245842e+003;1.383711e-001
1.247771e+003;1.388135e-001
1.249699e+003;1.395800e-001
1.251628e+003;1.406676e-001
1.253556e+003;1.419920e-001
1.255485e+003;1.429969e-001
1.257413e+003;1.435658e-001
1.259342e+003;1.439415e-001
1.261270e+003;1.439824e-001
1.263199e+003;1.435304e-001
1.265127e+003;1.426629e-001
1.267056e+003;1.418106e-001
1.268985e+003;1.405083e-001
1.270913e+003;1.392090e-001
1.272842e+003;1.380754e-001
1.274770e+003;1.366712e-001
1.276699e+003;1.356190e-001
1.278627e+003;1.350167e-001
1.280556e+003;1.343128e-001
1.282484e+003;1.335974e-001
1.284413e+003;1.334510e-001
1.286342e+003;1.339502e-001
1.288270e+003;1.349642e-001
1.290199e+003;1.364190e-001
1.292127e+003;1.382860e-001
1.294056e+003;1.403292e-001
1.295984e+003;1.421748e-001
1.297913e+003;1.437474e-001
1.299841e+003;1.457589e-001
1.301770e+003;1.482013e-001
1.303698e+003;1.502408e-001
1.305627e+003;1.518626e-001
1.307556e+003;1.535974e-001
1.309484e+003;1.554267e-001
1.311413e+003;1.570650e-001
1.313341e+003;1.583500e-001
1.315270e+003;1.589594e-001
1.317198e+003;1.588626e-001
1.319127e+003;1.585070e-001
1.321055e+003;1.579518e-001
1.322984e+003;1.574411e-001
1.324912e+003;1.575200e-001
1.326841e+003;1.577291e-001
1.328770e+003;1.578263e-001
1.330698e+003;1.579799e-001
1.332627e+003;1.578650e-001
1.334555e+003;1.575767e-001
1.336484e+003;1.575011e-001
1.338412e+003;1.572916e-001
1.340341e+003;1.565236e-001
1.342269e+003;1.560329e-001
1.344198e+003;1.561349e-001
1.346126e+003;1.562346e-001
1.348055e+003;1.560778e-001
1.349984e+003;1.563214e-001
1.351912e+003;1.567389e-001
1.353841e+003;1.573726e-001
1.355769e+003;1.583761e-001
1.357698e+003;1.592573e-001
1.359626e+003;1.602211e-001
1.361555e+003;1.608709e-001
1.363483e+003;1.610097e-001
1.365412e+003;1.607684e-001
1.367341e+003;1.602800e-001
1.369269e+003;1.594756e-001
1.371198e+003;1.583103e-001
1.373126e+003;1.567449e-001
1.375055e+003;1.550109e-001
1.376983e+003;1.530994e-001
1.378912e+003;1.508473e-001
1.380840e+003;1.485010e-001
1.382769e+003;1.461056e-001
1.384698e+003;1.437218e-001
1.386626e+003;1.415881e-001
1.388555e+003;1.401162e-001
1.390483e+003;1.391125e-001
1.392412e+003;1.384566e-001
1.394340e+003;1.379386e-001
1.396269e+003;1.376093e-001
1.398197e+003;1.374701e-001
1.400126e+003;1.373380e-001
1.402054e+003;1.373272e-001
1.403983e+003;1.372848e-001
1.405911e+003;1.373317e-001
1.407840e+003;1.372229e-001
1.409769e+003;1.370834e-001
1.411697e+003;1.373827e-001
1.413626e+003;1.374371e-001
1.415554e+003;1.371677e-001
1.417483e+003;1.367561e-001
1.419411e+003;1.362786e-001
1.421340e+003;1.362381e-001
1.423268e+003;1.360965e-001
1.425197e+003;1.357511e-001
1.427125e+003;1.351241e-001
1.429054e+003;1.343356e-001
1.430983e+003;1.338579e-001
1.432911e+003;1.333177e-001
1.434840e+003;1.321563e-001
1.436768e+003;1.309010e-001
1.438697e+003;1.303103e-001
1.440625e+003;1.294815e-001
1.442554e+003;1.283115e-001
1.444482e+003;1.270574e-001
1.446411e+003;1.257913e-001
1.448340e+003;1.242744e-001
1.450268e+003;1.229549e-001
1.452197e+003;1.218604e-001
1.454125e+003;1.204174e-001
1.456054e+003;1.183704e-001
1.457982e+003;1.169006e-001
1.459911e+003;1.161021e-001
1.461839e+003;1.148478e-001
1.463768e+003;1.127891e-001
1.465697e+003;1.105311e-001
1.467625e+003;1.088651e-001
1.469554e+003;1.070129e-001
1.471482e+003;1.044413e-001
1.473411e+003;1.021406e-001
1.475339e+003;1.002697e-001
1.477268e+003;9.813064e-002
1.479196e+003;9.589295e-002
1.481125e+003;9.361962e-002
1.483053e+003;9.142647e-002
1.484982e+003;8.941495e-002
1.486911e+003;8.750433e-002
1.488839e+003;8.551453e-002
1.490768e+003;8.413503e-002
1.492696e+003;8.308182e-002
1.494625e+003;8.164455e-002
1.496553e+003;8.035608e-002
1.498482e+003;7.972892e-002
1.500410e+003;7.937014e-002
1.502339e+003;7.898097e-002
1.504267e+003;7.770908e-002
1.506196e+003;7.621995e-002
1.508125e+003;7.602490e-002
1.510053e+003;7.617607e-002
1.511982e+003;7.562266e-002
1.513910e+003;7.516674e-002
1.515839e+003;7.469615e-002
1.517767e+003;7.424163e-002
1.519696e+003;7.361373e-002
1.521624e+003;7.316913e-002
1.523553e+003;7.336489e-002
1.525481e+003;7.340287e-002
1.527410e+003;7.349112e-002
1.529339e+003;7.377101e-002
1.531267e+003;7.348944e-002
1.533196e+003;7.303578e-002
1.535124e+003;7.350553e-002
1.537053e+003;7.339950e-002
1.538981e+003;7.238160e-002
1.540910e+003;7.228129e-002
1.542838e+003;7.279848e-002
1.544767e+003;7.312674e-002
1.546695e+003;7.351553e-002
1.548624e+003;7.375299e-002
1.550553e+003;7.372158e-002
1.552481e+003;7.382438e-002
1.554410e+003;7.386292e-002
1.556338e+003;7.370596e-002
1.558267e+003;7.309239e-002
1.560195e+003;7.346683e-002
1.562124e+003;7.445644e-002
1.564052e+003;7.481819e-002
1.565981e+003;7.500002e-002
1.567910e+003;7.498084e-002
1.569838e+003;7.514133e-002
1.571767e+003;7.580202e-002
1.573695e+003;7.593744e-002
1.575624e+003;7.585331e-002
1.577552e+003;7.658949e-002
1.579481e+003;7.751139e-002
1.581409e+003;7.809846e-002
1.583338e+003;7.863359e-002
1.585266e+003;7.908967e-002
1.587195e+003;7.950795e-002
1.589124e+003;8.005215e-002
1.591052e+003;8.072534e-002
1.592981e+003;8.137184e-002
1.594909e+003;8.191715e-002
1.596838e+003;8.225222e-002
1.598766e+003;8.252680e-002
1.600695e+003;8.300243e-002
1.602623e+003;8.385107e-002
1.604552e+003;8.457688e-002
1.606480e+003;8.491909e-002
1.608409e+003;8.516400e-002
1.610338e+003;8.558913e-002
1.612266e+003;8.622013e-002
1.614195e+003;8.664384e-002
1.616123e+003;8.661577e-002
1.618052e+003;8.718297e-002
1.619980e+003;8.828914e-002
1.621909e+003;8.894445e-002
1.623837e+003;8.923502e-002
1.625766e+003;8.956528e-002
1.627694e+003;8.994013e-002
1.629623e+003;9.027064e-002
1.631552e+003;9.040061e-002
1.633480e+003;9.028659e-002
1.635409e+003;9.019926e-002
1.637337e+003;9.053801e-002
1.639266e+003;9.081082e-002
1.641194e+003;9.103043e-002
1.643123e+003;9.104955e-002
1.645051e+003;9.023401e-002
1.646980e+003;8.967903e-002
1.648909e+003;8.956906e-002
1.650837e+003;8.853897e-002
1.652766e+003;8.707772e-002
1.654694e+003;8.713944e-002
1.656623e+003;8.745051e-002
1.658551e+003;8.693141e-002
1.660480e+003;8.597653e-002
1.662408e+003;8.503820e-002
1.664337e+003;8.439527e-002
1.666266e+003;8.355650e-002
1.668194e+003;8.239636e-002
1.670123e+003;8.146960e-002
1.672051e+003;8.081102e-002
1.673980e+003;7.982671e-002
1.675908e+003;7.889374e-002
1.677837e+003;7.824385e-002
1.679765e+003;7.750481e-002
1.681694e+003;7.651120e-002
1.683622e+003;7.511049e-002
1.685551e+003;7.451383e-002
1.687479e+003;7.419108e-002
1.689408e+003;7.336380e-002
1.691337e+003;7.260971e-002
1.693265e+003;7.189669e-002
1.695194e+003;7.103154e-002
1.697122e+003;7.051072e-002
1.699051e+003;6.962790e-002
1.700979e+003;6.872564e-002
1.702908e+003;6.883003e-002
1.704836e+003;6.855046e-002
1.706765e+003;6.807210e-002
1.708693e+003;6.762996e-002
1.710622e+003;6.729777e-002
1.712551e+003;6.705001e-002
1.714479e+003;6.639952e-002
1.716408e+003;6.556416e-002
1.718336e+003;6.529108e-002
1.720265e+003;6.552775e-002
1.722193e+003;6.539033e-002
1.724122e+003;6.509589e-002
1.726050e+003;6.490235e-002
1.727979e+003;6.455275e-002
1.729908e+003;6.405377e-002
1.731836e+003;6.325307e-002
1.733765e+003;6.246214e-002
1.735693e+003;6.237702e-002
1.737622e+003;6.197683e-002
1.739550e+003;6.114428e-002
1.741479e+003;6.101133e-002
1.743407e+003;6.094601e-002
1.745336e+003;6.052828e-002
1.747265e+003;6.017826e-002
1.749193e+003;5.992320e-002
1.751122e+003;5.991057e-002
1.753050e+003;6.044064e-002
1.754979e+003;6.089123e-002
1.756907e+003;6.127024e-002
1.758836e+003;6.165772e-002
1.760764e+003;6.156581e-002
1.762693e+003;6.128936e-002
1.764621e+003;6.136492e-002
1.766550e+003;6.139171e-002
1.768479e+003;6.133607e-002
1.770407e+003;6.126052e-002
1.772336e+003;6.124648e-002
1.774264e+003;6.143140e-002
1.776193e+003;6.152981e-002
1.778121e+003;6.151713e-002
1.780050e+003;6.153164e-002
1.781978e+003;6.155657e-002
1.783907e+003;6.153439e-002
1.785835e+003;6.162160e-002
1.787764e+003;6.153267e-002
1.789693e+003;6.107280e-002
1.791621e+003;6.055936e-002
1.793550e+003;6.051880e-002
1.795478e+003;6.063914e-002
1.797407e+003;6.045017e-002
1.799335e+003;6.019284e-002
1.801264e+003;6.010060e-002
1.803192e+003;6.023022e-002
1.805121e+003;6.044598e-002
1.807049e+003;6.040584e-002
1.808978e+003;6.002640e-002
1.810907e+003;5.973085e-002
1.812835e+003;5.964672e-002
1.814764e+003;5.950656e-002
1.816692e+003;5.955117e-002
1.818621e+003;5.973758e-002
1.820549e+003;5.974982e-002
1.822478e+003;5.948231e-002
1.824406e+003;5.918038e-002
1.826335e+003;5.906993e-002
1.828264e+003;5.898039e-002
1.830192e+003;5.890157e-002
1.832121e+003;5.884419e-002
1.834049e+003;5.878243e-002
1.835978e+003;5.874977e-002
1.837906e+003;5.887076e-002
1.839835e+003;5.891990e-002
1.841763e+003;5.862715e-002
1.843692e+003;5.823744e-002
1.845620e+003;5.820523e-002
1.847549e+003;5.840930e-002
1.849478e+003;5.851692e-002
1.851406e+003;5.842711e-002
1.853335e+003;5.820637e-002
1.855263e+003;5.820845e-002
1.857192e+003;5.825350e-002
1.859120e+003;5.805186e-002
1.861049e+003;5.809291e-002
1.862977e+003;5.831117e-002
1.864906e+003;5.822577e-002
1.866834e+003;5.794272e-002
1.868763e+003;5.782991e-002
1.870692e+003;5.797854e-002
1.872620e+003;5.812469e-002
1.874549e+003;5.814530e-002
1.876477e+003;5.798960e-002
1.878406e+003;5.787843e-002
1.880334e+003;5.786390e-002
1.882263e+003;5.790872e-002
1.884191e+003;5.782638e-002
1.886120e+003;5.770281e-002
1.888048e+003;5.761851e-002
1.889977e+003;5.765948e-002
1.891906e+003;5.776757e-002
1.893834e+003;5.783854e-002
1.895763e+003;5.780806e-002
1.897691e+003;5.765929e-002
1.899620e+003;5.765161e-002
1.901548e+003;5.783502e-002
1.903477e+003;5.797146e-002
1.905405e+003;5.800361e-002
1.907334e+003;5.817250e-002
1.909262e+003;5.842423e-002
1.911191e+003;5.863075e-002
1.913120e+003;5.872822e-002
1.915048e+003;5.869978e-002
1.916977e+003;5.856875e-002
1.918905e+003;5.876832e-002
1.920834e+003;5.901033e-002
1.922762e+003;5.912745e-002
1.924691e+003;5.904640e-002
1.926619e+003;5.900403e-002
1.928548e+003;5.934288e-002
1.930477e+003;5.971922e-002
1.932405e+003;5.981268e-002
1.934334e+003;5.976059e-002
1.936262e+003;5.953494e-002
1.938191e+003;5.952765e-002
1.940119e+003;5.980195e-002
1.942048e+003;5.999855e-002
1.943976e+003;6.021655e-002
1.945905e+003;6.044994e-002
1.947833e+003;6.056012e-002
1.949762e+003;6.069011e-002
1.951691e+003;6.072788e-002
1.953619e+003;6.075634e-002
1.955548e+003;6.091475e-002
1.957476e+003;6.099936e-002
1.959405e+003;6.102822e-002
1.961333e+003;6.102426e-002
1.963262e+003;6.107780e-002
1.965190e+003;6.122824e-002
1.967119e+003;6.139323e-002
1.969047e+003;6.155192e-002
1.970976e+003;6.152420e-002
1.972905e+003;6.159850e-002
1.974833e+003;6.161388e-002
1.976762e+003;6.173579e-002
1.978690e+003;6.187499e-002
1.980619e+003;6.204478e-002
1.982547e+003;6.212215e-002
1.984476e+003;6.210587e-002
1.986404e+003;6.214081e-002
1.988333e+003;6.218925e-002
1.990261e+003;6.226225e-002
1.992190e+003;6.229582e-002
1.994119e+003;6.224336e-002
1.996047e+003;6.235469e-002
1.997976e+003;6.254299e-002
1.999904e+003;6.265923e-002
2.001833e+003;6.271587e-002
2.003761e+003;6.276691e-002
2.005690e+003;6.287175e-002
2.007618e+003;6.306151e-002
2.009547e+003;6.335059e-002
2.011476e+003;6.344591e-002
2.013404e+003;6.341769e-002
2.015333e+003;6.358068e-002
2.017261e+003;6.372382e-002
2.019190e+003;6.379841e-002
2.021118e+003;6.392235e-002
2.023047e+003;6.387916e-002
2.024975e+003;6.417598e-002
2.026904e+003;6.442799e-002
2.028833e+003;6.417329e-002
2.030761e+003;6.409601e-002
2.032690e+003;6.433841e-002
2.034618e+003;6.452531e-002
2.036547e+003;6.458086e-002
2.038475e+003;6.456929e-002
2.040404e+003;6.471552e-002
2.042332e+003;6.479402e-002
2.044261e+003;6.453719e-002
2.046189e+003;6.426206e-002
2.048118e+003;6.434163e-002
2.050047e+003;6.459340e-002
2.051975e+003;6.485853e-002
2.053904e+003;6.482603e-002
2.055832e+003;6.470540e-002
2.057761e+003;6.482479e-002
2.059689e+003;6.499998e-002
2.061618e+003;6.501059e-002
2.063546e+003;6.477582e-002
2.065475e+003;6.478406e-002
2.067404e+003;6.480537e-002
2.069332e+003;6.467456e-002
2.071260e+003;6.474017e-002
2.073189e+003;6.493821e-002
2.075118e+003;6.491705e-002
2.077046e+003;6.479121e-002
2.078975e+003;6.499166e-002
2.080903e+003;6.514523e-002
2.082832e+003;6.520025e-002
2.084760e+003;6.527503e-002
2.086689e+003;6.539646e-002
2.088617e+003;6.554208e-002
2.090546e+003;6.544299e-002
2.092475e+003;6.524568e-002
2.094403e+003;6.526567e-002
2.096332e+003;6.528068e-002
2.098260e+003;6.513464e-002
2.100189e+003;6.493863e-002
2.102117e+003;6.493725e-002
2.104046e+003;6.531719e-002
2.105974e+003;6.574754e-002
2.107903e+003;6.597339e-002
2.109832e+003;6.579808e-002
2.111760e+003;6.553692e-002
2.113688e+003;6.559984e-002
2.115617e+003;6.563973e-002
2.117546e+003;6.566136e-002
2.119474e+003;6.568000e-002
2.121403e+003;6.584620e-002
2.123331e+003;6.575063e-002
2.125260e+003;6.555730e-002
2.127188e+003;6.566028e-002
2.129117e+003;6.584447e-002
2.131045e+003;6.594797e-002
2.132974e+003;6.597774e-002
2.134903e+003;6.580618e-002
2.136831e+003;6.579959e-002
2.138760e+003;6.585052e-002
2.140688e+003;6.600606e-002
2.142617e+003;6.594477e-002
2.144545e+003;6.589097e-002
2.146474e+003;6.588010e-002
2.148402e+003;6.571015e-002
2.150331e+003;6.568378e-002
2.152260e+003;6.578159e-002
2.154188e+003;6.573652e-002
2.156117e+003;6.556127e-002
2.158045e+003;6.546861e-002
2.159974e+003;6.550178e-002
2.161902e+003;6.555152e-002
2.163831e+003;6.553576e-002
2.165759e+003;6.553045e-002
2.167688e+003;6.539838e-002
2.169616e+003;6.523729e-002
2.171545e+003;6.504142e-002
2.173474e+003;6.490235e-002
2.175402e+003;6.495298e-002
2.177331e+003;6.500351e-002
2.179259e+003;6.497673e-002
2.181188e+003;6.482468e-002
2.183116e+003;6.479917e-002
2.185045e+003;6.463807e-002
2.186973e+003;6.454526e-002
2.188902e+003;6.461239e-002
2.190831e+003;6.457060e-002
2.192759e+003;6.427555e-002
2.194688e+003;6.397809e-002
2.196616e+003;6.407811e-002
2.198545e+003;6.438025e-002
2.200473e+003;6.439105e-002
2.202402e+003;6.433176e-002
2.204330e+003;6.422856e-002
2.206259e+003;6.401411e-002
2.208188e+003;6.378141e-002
2.210116e+003;6.388577e-002
2.212044e+003;6.409029e-002
2.213973e+003;6.404702e-002
2.215902e+003;6.384416e-002
2.217830e+003;6.375348e-002
2.219759e+003;6.371058e-002
2.221687e+003;6.359303e-002
2.223616e+003;6.359418e-002
2.225544e+003;6.377278e-002
2.227473e+003;6.379220e-002
2.229401e+003;6.348560e-002
2.231330e+003;6.319761e-002
2.233259e+003;6.331716e-002
2.235187e+003;6.351405e-002
2.237116e+003;6.343145e-002
2.239044e+003;6.321206e-002
2.240973e+003;6.318424e-002
2.242901e+003;6.311687e-002
2.244830e+003;6.308553e-002
2.246758e+003;6.308656e-002
2.248687e+003;6.288669e-002
2.250615e+003;6.279378e-002
2.252544e+003;6.270393e-002
2.254473e+003;6.275129e-002
2.256401e+003;6.295888e-002
2.258330e+003;6.314430e-002
2.260258e+003;6.299845e-002
2.262187e+003;6.259416e-002
2.264115e+003;6.229009e-002
2.266044e+003;6.230455e-002
2.267972e+003;6.245560e-002
2.269901e+003;6.262749e-002
2.271830e+003;6.263159e-002
2.273758e+003;6.223070e-002
2.275687e+003;6.189311e-002
2.277615e+003;6.187870e-002
2.279544e+003;6.190052e-002
2.281472e+003;6.194488e-002
2.283401e+003;6.187316e-002
2.285329e+003;6.202533e-002
2.287258e+003;6.228569e-002
2.289187e+003;6.225146e-002
2.291115e+003;6.197989e-002
2.293043e+003;6.186254e-002
2.294972e+003;6.193938e-002
2.296901e+003;6.201310e-002
2.298829e+003;6.199200e-002
2.300758e+003;6.203133e-002
2.302686e+003;6.189689e-002
2.304615e+003;6.168652e-002
2.306543e+003;6.177696e-002
2.308472e+003;6.188913e-002
2.310400e+003;6.194133e-002
2.312329e+003;6.210273e-002
2.314258e+003;6.225808e-002
2.316186e+003;6.227468e-002
2.318115e+003;6.213087e-002
2.320043e+003;6.199357e-002
2.321972e+003;6.217579e-002
2.323900e+003;6.237312e-002
2.325829e+003;6.216910e-002
2.327757e+003;6.209428e-002
2.329686e+003;6.231170e-002
2.331615e+003;6.240208e-002
2.333543e+003;6.241972e-002
2.335472e+003;6.262600e-002
2.337400e+003;6.279521e-002
2.339329e+003;6.281680e-002
2.341257e+003;6.289844e-002
2.343186e+003;6.298393e-002
2.345114e+003;6.313986e-002
2.347043e+003;6.320957e-002
2.348971e+003;6.320865e-002
2.350900e+003;6.337908e-002
2.352829e+003;6.358720e-002
2.354757e+003;6.358609e-002
2.356686e+003;6.361420e-002
2.358614e+003;6.379388e-002
2.360543e+003;6.406506e-002
2.362471e+003;6.421281e-002
2.364400e+003;6.406979e-002
2.366328e+003;6.381998e-002
2.368257e+003;6.390838e-002
2.370186e+003;6.414713e-002
2.372114e+003;6.441934e-002
2.374042e+003;6.441800e-002
2.375971e+003;6.446285e-002
2.377900e+003;6.442057e-002
2.379828e+003;6.444140e-002
2.381757e+003;6.471506e-002
2.383685e+003;6.489212e-002
2.385614e+003;6.517203e-002
2.387542e+003;6.524461e-002
2.389471e+003;6.518481e-002
2.391399e+003;6.528762e-002
2.393328e+003;6.542928e-002
2.395257e+003;6.547466e-002
2.397185e+003;6.551700e-002
2.399114e+003;6.567523e-002
2.401042e+003;6.567665e-002
2.402971e+003;6.566536e-002
2.404899e+003;6.580707e-002
2.406828e+003;6.584612e-002
2.408756e+003;6.596448e-002
2.410685e+003;6.616686e-002
2.412614e+003;6.631880e-002
2.414542e+003;6.654475e-002
2.416471e+003;6.661697e-002
2.418399e+003;6.656086e-002
2.420328e+003;6.674775e-002
2.422256e+003;6.707355e-002
2.424185e+003;6.730977e-002
2.426113e+003;6.747608e-002
2.428042e+003;6.756399e-002
2.429970e+003;6.768246e-002
2.431899e+003;6.766008e-002
2.433828e+003;6.756558e-002
2.435756e+003;6.776107e-002
2.437685e+003;6.822246e-002
2.439613e+003;6.859799e-002
2.441542e+003;6.878084e-002
2.443470e+003;6.889188e-002
2.445399e+003;6.903942e-002
2.447327e+003;6.915312e-002
2.449256e+003;6.938215e-002
2.451185e+003;6.966629e-002
2.453113e+003;6.980161e-002
2.455042e+003;6.999235e-002
2.456970e+003;7.016916e-002
2.458899e+003;7.026100e-002
2.460827e+003;7.025913e-002
2.462756e+003;7.000107e-002
2.464684e+003;7.022061e-002
2.466613e+003;7.066045e-002
2.468542e+003;7.069413e-002
2.470470e+003;7.081518e-002
2.472398e+003;7.106241e-002
2.474327e+003;7.146045e-002
2.476256e+003;7.181346e-002
2.478184e+003;7.198460e-002
2.480113e+003;7.200400e-002
2.482041e+003;7.220393e-002
2.483970e+003;7.217216e-002
2.485898e+003;7.223147e-002
2.487827e+003;7.242008e-002
2.489755e+003;7.248953e-002
2.491684e+003;7.250782e-002
2.493613e+003;7.231659e-002
2.495541e+003;7.214497e-002
2.497470e+003;7.224502e-002
2.499398e+003;7.243339e-002
2.501327e+003;7.261539e-002
2.503255e+003;7.266098e-002
2.505184e+003;7.292701e-002
2.507112e+003;7.334454e-002
2.509041e+003;7.339612e-002
2.510969e+003;7.350380e-002
2.512898e+003;7.361185e-002
2.514827e+003;7.351251e-002
2.516755e+003;7.347476e-002
2.518684e+003;7.346624e-002
2.520612e+003;7.370941e-002
2.522541e+003;7.407078e-002
2.524469e+003;7.420543e-002
2.526398e+003;7.400685e-002
2.528326e+003;7.384159e-002
2.530255e+003;7.412568e-002
2.532184e+003;7.435180e-002
2.534112e+003;7.422233e-002
2.536041e+003;7.403247e-002
2.537969e+003;7.407196e-002
2.539898e+003;7.428397e-002
2.541826e+003;7.445534e-002
2.543755e+003;7.456230e-002
2.545683e+003;7.470642e-002
2.547612e+003;7.474609e-002
2.549541e+003;7.467490e-002
2.551469e+003;7.472539e-002
2.553397e+003;7.484756e-002
2.555326e+003;7.515075e-002
2.557255e+003;7.533531e-002
2.559183e+003;7.540440e-002
2.561112e+003;7.551770e-002
2.563040e+003;7.559396e-002
2.564969e+003;7.573830e-002
2.566897e+003;7.580829e-002
2.568826e+003;7.580584e-002
2.570754e+003;7.585264e-002
2.572683e+003;7.585990e-002
2.574612e+003;7.587825e-002
2.576540e+003;7.619929e-002
2.578469e+003;7.656835e-002
2.580397e+003;7.654575e-002
2.582326e+003;7.643246e-002
2.584254e+003;7.655025e-002
2.586183e+003;7.665685e-002
2.588111e+003;7.668662e-002
2.590040e+003;7.656278e-002
2.591969e+003;7.656282e-002
2.593897e+003;7.662440e-002
2.595826e+003;7.698156e-002
2.597754e+003;7.726110e-002
2.599683e+003;7.713258e-002
2.601611e+003;7.706800e-002
2.603540e+003;7.754708e-002
2.605468e+003;7.792359e-002
2.607397e+003;7.795460e-002
2.609325e+003;7.804861e-002
2.611254e+003;7.829083e-002
2.613183e+003;7.845271e-002
2.615111e+003;7.854747e-002
2.617040e+003;7.880768e-002
2.618968e+003;7.895497e-002
2.620897e+003;7.909404e-002
2.622825e+003;7.932205e-002
2.624754e+003;7.962611e-002
2.626682e+003;7.982583e-002
2.628611e+003;7.990401e-002
2.630540e+003;8.006801e-002
2.632468e+003;8.008825e-002
2.634396e+003;8.029772e-002
2.636325e+003;8.059859e-002
2.638254e+003;8.064726e-002
2.640182e+003;8.070591e-002
2.642111e+003;8.080268e-002
2.644039e+003;8.113497e-002
2.645968e+003;8.151817e-002
2.647896e+003;8.160944e-002
2.649825e+003;8.171514e-002
2.651753e+003;8.197024e-002
2.653682e+003;8.239852e-002
2.655611e+003;8.273673e-002
2.657539e+003;8.272767e-002
2.659468e+003;8.266101e-002
2.661396e+003;8.289683e-002
2.663325e+003;8.336544e-002
2.665253e+003;8.370011e-002
2.667182e+003;8.375949e-002
2.669110e+003;8.384251e-002
2.671039e+003;8.413588e-002
2.672968e+003;8.431142e-002
2.674896e+003;8.441065e-002
2.676825e+003;8.446325e-002
2.678753e+003;8.475775e-002
2.680682e+003;8.506754e-002
2.682610e+003;8.512102e-002
2.684539e+003;8.528849e-002
2.686467e+003;8.565350e-002
2.688396e+003;8.588829e-002
2.690324e+003;8.589390e-002
2.692253e+003;8.596635e-002
2.694182e+003;8.617786e-002
2.696110e+003;8.657581e-002
2.698039e+003;8.657755e-002
2.699967e+003;8.643282e-002
2.701896e+003;8.668611e-002
2.703824e+003;8.714073e-002
2.705753e+003;8.731303e-002
2.707681e+003;8.734168e-002
2.709610e+003;8.743374e-002
2.711539e+003;8.755232e-002
2.713467e+003;8.798501e-002
2.715396e+003;8.830620e-002
2.717324e+003;8.834863e-002
2.719253e+003;8.819434e-002
2.721181e+003;8.810382e-002
2.723110e+003;8.820530e-002
2.725038e+003;8.876901e-002
2.726967e+003;8.920670e-002
2.728896e+003;8.930834e-002
2.730824e+003;8.931164e-002
2.732752e+003;8.943168e-002
2.734681e+003;8.941694e-002
2.736610e+003;8.923204e-002
2.738538e+003;8.947065e-002
2.740467e+003;8.980862e-002
2.742395e+003;8.979310e-002
2.744324e+003;9.002870e-002
2.746252e+003;9.035019e-002
2.748181e+003;9.048185e-002
2.750109e+003;9.050553e-002
2.752038e+003;9.058136e-002
2.753967e+003;9.089430e-002
2.755895e+003;9.110983e-002
2.757824e+003;9.126569e-002
2.759752e+003;9.148394e-002
2.761681e+003;9.187523e-002
2.763609e+003;9.212586e-002
2.765538e+003;9.244327e-002
2.767466e+003;9.283707e-002
2.769395e+003;9.293183e-002
2.771323e+003;9.306864e-002
2.773252e+003;9.314007e-002
2.775181e+003;9.343559e-002
2.777109e+003;9.384066e-002
2.779038e+003;9.387253e-002
2.780966e+003;9.400750e-002
2.782895e+003;9.444588e-002
2.784823e+003;9.465151e-002
2.786752e+003;9.473649e-002
2.788680e+003;9.535583e-002
2.790609e+003;9.577075e-002
2.792538e+003;9.595192e-002
2.794466e+003;9.644634e-002
2.796395e+003;9.690803e-002
2.798323e+003;9.726631e-002
2.800252e+003;9.765132e-002
2.802180e+003;9.817418e-002
2.804109e+003;9.864818e-002
2.806037e+003;9.881188e-002
2.807966e+003;9.908736e-002
2.809895e+003;9.974021e-002
2.811823e+003;1.000118e-001
2.813751e+003;1.001013e-001
2.815680e+003;1.008031e-001
2.817609e+003;1.017115e-001
2.819537e+003;1.020743e-001
2.821466e+003;1.024025e-001
2.823394e+003;1.026980e-001
2.825323e+003;1.029586e-001
2.827251e+003;1.036913e-001
2.829180e+003;1.046570e-001
2.831108e+003;1.054716e-001
2.833037e+003;1.059823e-001
2.834966e+003;1.067311e-001
2.836894e+003;1.079117e-001
2.838823e+003;1.086386e-001
2.840751e+003;1.092546e-001
2.842680e+003;1.100184e-001
2.844608e+003;1.107261e-001
2.846537e+003;1.112940e-001
2.848465e+003;1.117988e-001
2.850394e+003;1.126172e-001
2.852323e+003;1.138206e-001
2.854251e+003;1.152691e-001
2.856180e+003;1.168310e-001
2.858108e+003;1.187294e-001
2.860037e+003;1.208591e-001
2.861965e+003;1.229544e-001
2.863894e+003;1.247276e-001
2.865822e+003;1.260964e-001
2.867751e+003;1.275848e-001
2.869679e+003;1.292125e-001
2.871608e+003;1.306300e-001
2.873536e+003;1.315941e-001
2.875465e+003;1.324858e-001
2.877394e+003;1.334495e-001
2.879322e+003;1.342472e-001
2.881251e+003;1.351126e-001
2.883179e+003;1.359153e-001
2.885108e+003;1.360678e-001
2.887036e+003;1.358774e-001
2.888965e+003;1.359264e-001
2.890893e+003;1.358455e-001
2.892822e+003;1.356383e-001
2.894750e+003;1.353878e-001
2.896679e+003;1.348755e-001
2.898608e+003;1.343093e-001
2.900536e+003;1.335141e-001
2.902465e+003;1.325891e-001
2.904393e+003;1.316812e-001
2.906322e+003;1.309508e-001
2.908250e+003;1.303173e-001
2.910179e+003;1.294967e-001
2.912107e+003;1.282544e-001
2.914036e+003;1.267837e-001
2.915965e+003;1.252400e-001
2.917893e+003;1.235846e-001
2.919822e+003;1.226815e-001
2.921750e+003;1.219563e-001
2.923679e+003;1.207199e-001
2.925607e+003;1.193689e-001
2.927536e+003;1.182241e-001
2.929464e+003;1.176544e-001
2.931393e+003;1.173503e-001
2.933322e+003;1.167914e-001
2.935250e+003;1.159758e-001
2.937178e+003;1.148935e-001
2.939107e+003;1.137846e-001
2.941036e+003;1.130060e-001
2.942964e+003;1.120703e-001
2.944893e+003;1.108988e-001
2.946821e+003;1.097043e-001
2.948750e+003;1.084093e-001
2.950678e+003;1.068612e-001
2.952607e+003;1.055445e-001
2.954535e+003;1.043080e-001
2.956464e+003;1.026906e-001
2.958393e+003;1.015277e-001
2.960321e+003;1.005830e-001
2.962250e+003;9.953339e-002
2.964178e+003;9.865624e-002
2.966107e+003;9.802715e-002
2.968035e+003;9.761140e-002
2.969964e+003;9.737206e-002
2.971892e+003;9.700590e-002
2.973821e+003;9.659701e-002
2.975750e+003;9.624891e-002
2.977678e+003;9.606095e-002
2.979607e+003;9.573836e-002
2.981535e+003;9.530949e-002
2.983464e+003;9.509619e-002
2.985392e+003;9.464641e-002
2.987321e+003;9.397890e-002
2.989249e+003;9.354227e-002
2.991178e+003;9.338379e-002
2.993106e+003;9.333634e-002
2.995035e+003;9.343510e-002
2.996964e+003;9.338966e-002
2.998892e+003;9.338474e-002
3.000821e+003;9.356739e-002
3.002749e+003;9.368412e-002
3.004678e+003;9.358132e-002
3.006606e+003;9.361864e-002
3.008535e+003;9.385210e-002
3.010463e+003;9.415337e-002
3.012392e+003;9.421655e-002
3.014321e+003;9.451252e-002
3.016249e+003;9.492449e-002
3.018177e+003;9.503639e-002
3.020106e+003;9.541629e-002
3.022035e+003;9.590163e-002
3.023963e+003;9.623473e-002
3.025892e+003;9.662747e-002
3.027820e+003;9.691519e-002
3.029749e+003;9.722237e-002
3.031677e+003;9.770932e-002
3.033606e+003;9.815960e-002
3.035534e+003;9.876996e-002
3.037463e+003;9.950202e-002
3.039392e+003;1.002706e-001
3.041320e+003;1.008553e-001
3.043249e+003;1.012670e-001
3.045177e+003;1.015452e-001
3.047106e+003;1.018846e-001
3.049034e+003;1.024874e-001
3.050963e+003;1.029888e-001
3.052891e+003;1.036223e-001
3.054820e+003;1.044355e-001
3.056749e+003;1.048693e-001
3.058677e+003;1.051866e-001
3.060606e+003;1.057340e-001
3.062534e+003;1.065505e-001
3.064463e+003;1.073976e-001
3.066391e+003;1.079414e-001
3.068320e+003;1.083919e-001
3.070248e+003;1.090697e-001
3.072177e+003;1.098382e-001
3.074105e+003;1.103243e-001
3.076034e+003;1.109720e-001
3.077963e+003;1.117385e-001
3.079891e+003;1.124230e-001
3.081820e+003;1.128408e-001
3.083748e+003;1.132046e-001
3.085677e+003;1.138873e-001
3.087605e+003;1.148303e-001
3.089534e+003;1.154432e-001
3.091462e+003;1.161165e-001
3.093391e+003;1.167635e-001
3.095320e+003;1.174145e-001
3.097248e+003;1.180981e-001
3.099177e+003;1.188452e-001
3.101105e+003;1.193667e-001
3.103034e+003;1.199309e-001
3.104962e+003;1.210753e-001
3.106891e+003;1.219872e-001
3.108819e+003;1.224117e-001
3.110748e+003;1.230621e-001
3.112677e+003;1.241025e-001
3.114605e+003;1.249710e-001
3.116533e+003;1.258675e-001
3.118462e+003;1.264168e-001
3.120391e+003;1.269806e-001
3.122319e+003;1.276985e-001
3.124248e+003;1.283408e-001
3.126176e+003;1.291954e-001
3.128105e+003;1.300545e-001
3.130033e+003;1.310497e-001
3.131962e+003;1.321915e-001
3.133890e+003;1.329528e-001
3.135819e+003;1.333852e-001
3.137748e+003;1.336756e-001
3.139676e+003;1.342243e-001
3.141605e+003;1.353922e-001
3.143533e+003;1.362202e-001
3.145462e+003;1.366467e-001
3.147390e+003;1.372790e-001
3.149319e+003;1.383228e-001
3.151247e+003;1.392681e-001
3.153176e+003;1.397307e-001
3.155104e+003;1.402727e-001
3.157033e+003;1.414396e-001
3.158962e+003;1.424035e-001
3.160890e+003;1.430144e-001
3.162819e+003;1.437679e-001
3.164747e+003;1.444218e-001
3.166676e+003;1.454210e-001
3.168604e+003;1.464551e-001
3.170533e+003;1.470461e-001
3.172461e+003;1.477989e-001
3.174390e+003;1.486200e-001
3.176319e+003;1.490519e-001
3.178247e+003;1.491851e-001
3.180176e+003;1.501247e-001
3.182104e+003;1.517660e-001
3.184033e+003;1.528879e-001
3.185961e+003;1.532457e-001
3.187890e+003;1.533233e-001
3.189818e+003;1.539676e-001
3.191747e+003;1.550673e-001
3.193676e+003;1.559174e-001
3.195604e+003;1.567268e-001
3.197532e+003;1.577452e-001
3.199461e+003;1.586374e-001
3.201390e+003;1.590833e-001
3.203318e+003;1.596224e-001
3.205247e+003;1.604048e-001
3.207175e+003;1.612952e-001
3.209104e+003;1.621195e-001
3.211032e+003;1.626146e-001
3.212961e+003;1.632240e-001
3.214889e+003;1.637151e-001
3.216818e+003;1.640530e-001
3.218747e+003;1.650675e-001
3.220675e+003;1.661170e-001
3.222604e+003;1.670239e-001
3.224532e+003;1.672170e-001
3.226461e+003;1.669740e-001
3.228389e+003;1.676286e-001
3.230318e+003;1.687691e-001
3.232246e+003;1.696602e-001
3.234175e+003;1.699664e-001
3.236104e+003;1.704450e-001
3.238032e+003;1.709553e-001
3.239961e+003;1.712266e-001
3.241889e+003;1.724989e-001
3.243818e+003;1.738064e-001
3.245746e+003;1.741019e-001
3.247675e+003;1.742589e-001
3.249603e+003;1.745642e-001
3.251532e+003;1.751711e-001
3.253460e+003;1.756126e-001
3.255389e+003;1.756508e-001
3.257318e+003;1.761364e-001
3.259246e+003;1.769536e-001
3.261175e+003;1.773006e-001
3.263103e+003;1.778749e-001
3.265032e+003;1.783367e-001
3.266960e+003;1.784738e-001
3.268889e+003;1.791495e-001
3.270817e+003;1.799120e-001
3.272746e+003;1.804740e-001
3.274675e+003;1.807137e-001
3.276603e+003;1.809634e-001
3.278531e+003;1.813653e-001
3.280460e+003;1.816272e-001
3.282389e+003;1.823169e-001
3.284317e+003;1.823763e-001
3.286246e+003;1.822749e-001
3.288174e+003;1.827298e-001
3.290103e+003;1.831789e-001
3.292031e+003;1.837660e-001
3.293960e+003;1.839811e-001
3.295888e+003;1.836093e-001
3.297817e+003;1.839958e-001
3.299746e+003;1.849526e-001
3.301674e+003;1.854050e-001
3.303603e+003;1.856160e-001
3.305531e+003;1.853080e-001
3.307460e+003;1.852148e-001
3.309388e+003;1.857452e-001
3.311317e+003;1.864076e-001
3.313245e+003;1.867242e-001
3.315174e+003;1.864963e-001
3.317103e+003;1.865535e-001
3.319031e+003;1.870199e-001
3.320960e+003;1.872542e-001
3.322888e+003;1.868578e-001
3.324817e+003;1.868185e-001
3.326745e+003;1.871821e-001
3.328674e+003;1.873175e-001
3.330602e+003;1.871751e-001
3.332531e+003;1.869457e-001
3.334459e+003;1.869879e-001
3.336388e+003;1.874363e-001
3.338317e+003;1.877284e-001
3.340245e+003;1.876455e-001
3.342174e+003;1.871981e-001
3.344102e+003;1.872481e-001
3.346031e+003;1.873126e-001
3.347959e+003;1.868411e-001
3.349888e+003;1.864890e-001
3.351816e+003;1.862560e-001
3.353745e+003;1.862227e-001
3.355674e+003;1.860984e-001
3.357602e+003;1.862514e-001
3.359531e+003;1.867620e-001
3.361459e+003;1.865864e-001
3.363388e+003;1.856444e-001
3.365316e+003;1.851232e-001
3.367245e+003;1.849338e-001
3.369173e+003;1.844852e-001
3.371102e+003;1.840627e-001
3.373031e+003;1.840242e-001
3.374959e+003;1.841661e-001
3.376887e+003;1.839040e-001
3.378816e+003;1.834832e-001
3.380745e+003;1.829373e-001
3.382673e+003;1.820596e-001
3.384602e+003;1.815156e-001
3.386530e+003;1.812573e-001
3.388459e+003;1.813080e-001
3.390387e+003;1.809092e-001
3.392316e+003;1.803159e-001
3.394244e+003;1.800037e-001
3.396173e+003;1.792849e-001
3.398102e+003;1.783889e-001
3.400030e+003;1.781732e-001
3.401959e+003;1.779123e-001
3.403887e+003;1.775389e-001
3.405816e+003;1.773592e-001
3.407744e+003;1.767927e-001
3.409673e+003;1.759778e-001
3.411601e+003;1.752807e-001
3.413530e+003;1.745758e-001
3.415458e+003;1.738242e-001
3.417387e+003;1.730385e-001
3.419316e+003;1.723137e-001
3.421244e+003;1.713103e-001
3.423173e+003;1.709865e-001
3.425101e+003;1.706225e-001
3.427030e+003;1.698487e-001
3.428958e+003;1.690222e-001
3.430887e+003;1.681620e-001
3.432815e+003;1.675220e-001
3.434744e+003;1.669549e-001
3.436673e+003;1.658055e-001
3.438601e+003;1.648204e-001
3.440530e+003;1.643324e-001
3.442458e+003;1.633720e-001
3.444387e+003;1.618930e-001
3.446315e+003;1.606773e-001
3.448244e+003;1.596882e-001
3.450172e+003;1.587480e-001
3.452101e+003;1.573897e-001
3.454030e+003;1.558870e-001
3.455958e+003;1.549019e-001
3.457886e+003;1.540705e-001
3.459815e+003;1.527024e-001
3.461744e+003;1.513521e-001
3.463672e+003;1.503184e-001
3.465601e+003;1.490409e-001
3.467529e+003;1.475786e-001
3.469458e+003;1.463738e-001
3.471386e+003;1.455694e-001
3.473315e+003;1.447514e-001
3.475243e+003;1.434692e-001
3.477172e+003;1.417595e-001
3.479101e+003;1.401484e-001
3.481029e+003;1.392349e-001
3.482958e+003;1.384308e-001
3.484886e+003;1.370680e-001
3.486815e+003;1.357978e-001
3.488743e+003;1.345703e-001
3.490672e+003;1.332284e-001
3.492600e+003;1.317877e-001
3.494529e+003;1.303499e-001
3.496458e+003;1.288999e-001
3.498386e+003;1.272883e-001
3.500315e+003;1.256785e-001
3.502243e+003;1.241001e-001
3.504172e+003;1.227931e-001
3.506100e+003;1.214393e-001
3.508029e+003;1.200793e-001
3.509957e+003;1.188723e-001
3.511886e+003;1.177409e-001
3.513814e+003;1.165362e-001
3.515743e+003;1.151727e-001
3.517672e+003;1.133678e-001
3.519600e+003;1.119768e-001
3.521529e+003;1.107310e-001
3.523457e+003;1.094165e-001
3.525386e+003;1.081425e-001
3.527314e+003;1.070764e-001
3.529243e+003;1.060746e-001
3.531171e+003;1.047564e-001
3.533100e+003;1.033102e-001
3.535029e+003;1.023283e-001
3.536957e+003;1.014001e-001
3.538885e+003;9.981459e-002
3.540814e+003;9.834892e-002
3.542743e+003;9.733923e-002
3.544671e+003;9.665980e-002
3.546600e+003;9.566274e-002
3.548528e+003;9.415276e-002
3.550457e+003;9.294611e-002
3.552385e+003;9.201633e-002
3.554314e+003;9.130592e-002
3.556242e+003;9.023193e-002
3.558171e+003;8.876219e-002
3.560100e+003;8.742859e-002
3.562028e+003;8.626539e-002
3.563957e+003;8.488742e-002
3.565885e+003;8.349887e-002
3.567814e+003;8.279999e-002
3.569742e+003;8.248297e-002
3.571671e+003;8.174001e-002
3.573599e+003;8.055364e-002
3.575528e+003;7.930089e-002
3.577457e+003;7.812968e-002
3.579385e+003;7.740802e-002
3.581314e+003;7.663440e-002
3.583242e+003;7.579704e-002
3.585171e+003;7.484879e-002
3.587099e+003;7.358229e-002
3.589028e+003;7.258794e-002
3.590956e+003;7.205515e-002
3.592885e+003;7.156710e-002
3.594813e+003;7.081202e-002
3.596742e+003;6.992863e-002
3.598671e+003;6.949672e-002
3.600599e+003;6.890197e-002
3.602528e+003;6.810923e-002
3.604456e+003;6.758876e-002
3.606385e+003;6.698463e-002
3.608313e+003;6.628993e-002
3.610242e+003;6.579654e-002
3.612170e+003;6.506886e-002
3.614099e+003;6.423583e-002
3.616028e+003;6.351977e-002
3.617956e+003;6.312127e-002
3.619885e+003;6.298286e-002
3.621813e+003;6.263262e-002
3.623742e+003;6.223028e-002
3.625670e+003;6.173861e-002
3.627599e+003;6.106228e-002
3.629527e+003;6.027437e-002
3.631456e+003;6.007282e-002
3.633385e+003;5.980123e-002
3.635313e+003;5.941841e-002
3.637241e+003;5.891045e-002
3.639170e+003;5.809549e-002
3.641099e+003;5.739424e-002
3.643027e+003;5.688309e-002
3.644956e+003;5.687882e-002
3.646884e+003;5.667257e-002
3.648813e+003;5.582381e-002
3.650741e+003;5.512347e-002
3.652670e+003;5.464775e-002
3.654598e+003;5.437814e-002
3.656527e+003;5.424260e-002
3.658456e+003;5.398292e-002
3.660384e+003;5.335391e-002
3.662313e+003;5.251561e-002
3.664241e+003;5.216161e-002
3.666170e+003;5.179375e-002
3.668098e+003;5.113487e-002
3.670027e+003;5.068867e-002
3.671955e+003;5.047688e-002
3.673884e+003;4.978552e-002
3.675813e+003;4.923918e-002
3.677741e+003;4.958178e-002
3.679669e+003;4.961922e-002
3.681598e+003;4.893571e-002
3.683527e+003;4.813558e-002
3.685455e+003;4.777876e-002
3.687384e+003;4.744659e-002
3.689312e+003;4.700431e-002
3.691241e+003;4.691652e-002
3.693169e+003;4.673062e-002
3.695098e+003;4.647378e-002
3.697026e+003;4.596743e-002
3.698955e+003;4.560610e-002
3.700884e+003;4.527047e-002
3.702812e+003;4.529331e-002
3.704741e+003;4.552289e-002
3.706669e+003;4.556252e-002
3.708598e+003;4.529618e-002
3.710526e+003;4.502926e-002
3.712455e+003;4.492849e-002
3.714383e+003;4.494889e-002
3.716312e+003;4.477217e-002
3.718240e+003;4.414891e-002
3.720169e+003;4.404303e-002
3.722098e+003;4.443631e-002
3.724026e+003;4.449985e-002
3.725955e+003;4.416431e-002
3.727883e+003;4.387951e-002
3.729812e+003;4.368212e-002
3.731740e+003;4.327179e-002
3.733669e+003;4.309437e-002
3.735597e+003;4.280924e-002
3.737526e+003;4.298999e-002
3.739455e+003;4.333297e-002
3.741383e+003;4.302694e-002
3.743312e+003;4.198432e-002
3.745240e+003;4.187440e-002
3.747169e+003;4.253468e-002
3.749097e+003;4.241852e-002
3.751026e+003;4.212938e-002
3.752954e+003;4.225598e-002
3.754883e+003;4.228004e-002
3.756812e+003;4.226499e-002
3.758740e+003;4.313678e-002
3.760668e+003;4.358188e-002
3.762597e+003;4.294013e-002
3.764526e+003;4.244113e-002
3.766454e+003;4.241760e-002
3.768383e+003;4.208258e-002
3.770311e+003;4.207057e-002
3.772240e+003;4.248396e-002
3.774168e+003;4.269572e-002
3.776097e+003;4.270361e-002
3.778025e+003;4.254827e-002
3.779954e+003;4.273352e-002
3.781883e+003;4.281849e-002
3.783811e+003;4.274214e-002
3.785740e+003;4.273553e-002
3.787668e+003;4.257634e-002
3.789597e+003;4.255119e-002
3.791525e+003;4.275337e-002
3.793454e+003;4.280503e-002
3.795382e+003;4.281246e-002
3.797311e+003;4.319976e-002
3.799240e+003;4.303093e-002
3.801168e+003;4.208674e-002
3.803097e+003;4.209170e-002
3.805025e+003;4.249813e-002
3.806954e+003;4.211919e-002
3.808882e+003;4.213149e-002
3.810811e+003;4.259629e-002
3.812739e+003;4.295802e-002
3.814668e+003;4.275465e-002
3.816596e+003;4.233023e-002
3.818525e+003;4.193319e-002
3.820454e+003;4.143184e-002
3.822382e+003;4.197358e-002
3.824311e+003;4.308153e-002
3.826239e+003;4.324958e-002
3.828168e+003;4.297217e-002
3.830096e+003;4.255339e-002
3.832025e+003;4.240069e-002
3.833953e+003;4.282518e-002
3.835882e+003;4.287887e-002
3.837811e+003;4.261405e-002
3.839739e+003;4.265349e-002
3.841667e+003;4.247745e-002
3.843596e+003;4.234856e-002
3.845525e+003;4.270039e-002
3.847453e+003;4.299657e-002
3.849382e+003;4.251315e-002
3.851310e+003;4.175517e-002
3.853239e+003;4.176375e-002
3.855167e+003;4.252353e-002
3.857096e+003;4.327787e-002
3.859024e+003;4.361460e-002
3.860953e+003;4.362812e-002
3.862882e+003;4.354899e-002
3.864810e+003;4.330679e-002
3.866739e+003;4.303473e-002
3.868667e+003;4.264929e-002
3.870596e+003;4.290930e-002
3.872524e+003;4.330419e-002
3.874453e+003;4.345028e-002
3.876381e+003;4.416347e-002
3.878310e+003;4.428369e-002
3.880239e+003;4.385971e-002
3.882167e+003;4.395228e-002
3.884096e+003;4.399858e-002
3.886024e+003;4.394901e-002
3.887953e+003;4.411773e-002
3.889881e+003;4.390260e-002
3.891810e+003;4.380587e-002
3.893738e+003;4.406085e-002
3.895667e+003;4.414847e-002
3.897595e+003;4.440739e-002
3.899524e+003;4.463599e-002
3.901453e+003;4.465725e-002
3.903381e+003;4.493048e-002
3.905310e+003;4.553599e-002
3.907238e+003;4.566520e-002
3.909167e+003;4.556620e-002
3.911095e+003;4.561371e-002
3.913024e+003;4.550115e-002
3.914952e+003;4.531460e-002
3.916881e+003;4.554950e-002
3.918810e+003;4.592452e-002
3.920738e+003;4.571696e-002
3.922667e+003;4.583150e-002
3.924595e+003;4.617747e-002
3.926524e+003;4.572602e-002
3.928452e+003;4.549706e-002
3.930381e+003;4.574641e-002
3.932309e+003;4.610406e-002
3.934238e+003;4.643096e-002
3.936167e+003;4.637455e-002
3.938095e+003;4.624211e-002
3.940023e+003;4.623061e-002
3.941952e+003;4.628070e-002
3.943881e+003;4.649118e-002
3.945809e+003;4.656553e-002
3.947738e+003;4.628829e-002
3.949666e+003;4.652334e-002
3.951595e+003;4.709116e-002
3.953523e+003;4.698016e-002
3.955452e+003;4.702524e-002
3.957380e+003;4.759257e-002
3.959309e+003;4.787098e-002
3.961238e+003;4.745709e-002
3.963166e+003;4.721621e-002
3.965095e+003;4.746068e-002
3.967023e+003;4.743566e-002
3.968952e+003;4.740361e-002
3.970880e+003;4.724580e-002
3.972809e+003;4.686805e-002
3.974737e+003;4.664245e-002
3.976666e+003;4.691427e-002
3.978594e+003;4.717654e-002
3.980523e+003;4.751719e-002
3.982452e+003;4.778771e-002
3.984380e+003;4.760200e-002
3.986309e+003;4.715276e-002
3.988237e+003;4.709854e-002
3.990166e+003;4.734412e-002
3.992094e+003;4.727311e-002
3.994023e+003;4.710888e-002
3.995951e+003;4.695919e-002
3.997880e+003;4.704415e-002
3.999809e+003;4.740694e-002
4.001737e+003;0.000000e+000
