3.992094e+002;0.000000e+000
4.011380e+002;0.000000e+000
4.030665e+002;0.000000e+000
4.049951e+002;0.000000e+000
4.069236e+002;0.000000e+000
4.088522e+002;0.000000e+000
4.107807e+002;0.000000e+000
4.127093e+002;0.000000e+000
4.146378e+002;0.000000e+000
4.165664e+002;0.000000e+000
4.184949e+002;0.000000e+000
4.204235e+002;0.000000e+000
4.223520e+002;0.000000e+000
4.242806e+002;0.000000e+000
4.262091e+002;0.000000e+000
4.281377e+002;0.000000e+000
4.300662e+002;0.000000e+000
4.319948e+002;0.000000e+000
4.339233e+002;0.000000e+000
4.358519e+002;0.000000e+000
4.377804e+002;0.000000e+000
4.397090e+002;0.000000e+000
4.416375e+002;0.000000e+000
4.435660e+002;0.000000e+000
4.454946e+002;0.000000e+000
4.474232e+002;0.000000e+000
4.493517e+002;0.000000e+000
4.512802e+002;0.000000e+000
4.532088e+002;0.000000e+000
4.551373e+002;0.000000e+000
4.570659e+002;0.000000e+000
4.589944e+002;0.000000e+000
4.609230e+002;0.000000e+000
4.628515e+002;0.000000e+000
4.647801e+002;0.000000e+000
4.667086e+002;0.000000e+000
4.686372e+002;0.000000e+000
4.705657e+002;0.000000e+000
4.724943e+002;0.000000e+000
4.744228e+002;0.000000e+000
4.763513e+002;0.000000e+000
4.782799e+002;0.000000e+000
4.802085e+002;0.000000e+000
4.821370e+002;0.000000e+000
4.840656e+002;0.000000e+000
4.859941e+002;0.000000e+000
4.879226e+002;0.000000e+000
4.898512e+002;0.000000e+000
4.917798e+002;0.000000e+000
4.937083e+002;0.000000e+000
4.956368e+002;0.000000e+000
4.975654e+002;0.000000e+000
4.994939e+002;0.000000e+000
5.014225e+002;0.000000e+000
5.033510e+002;0.000000e+000
5.052796e+002;0.000000e+000
5.072081e+002;0.000000e+000
5.091367e+002;0.000000e+000
5.110652e+002;0.000000e+000
5.129938e+002;0.000000e+000
5.149223e+002;0.000000e+000
5.168509e+002;0.000000e+000
5.187794e+002;0.000000e+000
5.207079e+002;0.000000e+000
5.226365e+002;0.000000e+000
5.245651e+002;0.000000e+000
5.264936e+002;0.000000e+000
5.284222e+002;0.000000e+000
5.303507e+002;0.000000e+000
5.322792e+002;0.000000e+000
5.342078e+002;0.000000e+000
5.361364e+002;0.000000e+000
5.380649e+002;0.000000e+000
5.399935e+002;0.000000e+000
5.419220e+002;0.000000e+000
5.438505e+002;0.000000e+000
5.457791e+002;0.000000e+000
5.477076e+002;0.000000e+000
5.496362e+002;0.000000e+000
5.515648e+002;0.000000e+000
5.534933e+002;0.000000e+000
5.554218e+002;0.000000e+000
5.573504e+002;0.000000e+000
5.592789e+002;0.000000e+000
5.612075e+002;0.000000e+000
5.631360e+002;0.000000e+000
5.650646e+002;0.000000e+000
5.669931e+002;0.000000e+000
5.689217e+002;0.000000e+000
5.708502e+002;0.000000e+000
5.727787e+002;0.000000e+000
5.747073e+002;0.000000e+000
5.766359e+002;0.000000e+000
5.785644e+002;0.000000e+000
5.804930e+002;0.000000e+000
5.824215e+002;0.000000e+000
5.843500e+002;0.000000e+000
5.862786e+002;0.000000e+000
5.882072e+002;0.000000e+000
5.901357e+002;0.000000e+000
5.920643e+002;0.000000e+000
5.939928e+002;0.000000e+000
5.959213e+002;0.000000e+000
5.978499e+002;0.000000e+000
5.997784e+002;2.354492e-001
6.017070e+002;2.338021e-001
6.036355e+002;2.339278e-001
6.055641e+002;2.419498e-001
6.074926e+002;2.448048e-001
6.094211e+002;2.377309e-001
6.113497e+002;2.332408e-001
6.132783e+002;2.317079e-001
6.152068e+002;2.310072e-001
6.171354e+002;2.273692e-001
6.190639e+002;2.234489e-001
6.209924e+002;2.235150e-001
6.229210e+002;2.266305e-001
6.248495e+002;2.261353e-001
6.267781e+002;2.237102e-001
6.287067e+002;2.186818e-001
6.306352e+002;2.162153e-001
6.325637e+002;2.162944e-001
6.344923e+002;2.164768e-001
6.364208e+002;2.157483e-001
6.383494e+002;2.154730e-001
6.402780e+002;2.145116e-001
6.422065e+002;2.109215e-001
6.441350e+002;2.096377e-001
6.460636e+002;2.120819e-001
6.479921e+002;2.110538e-001
6.499207e+002;2.083354e-001
6.518492e+002;2.100878e-001
6.537778e+002;2.124337e-001
6.557063e+002;2.117690e-001
6.576349e+002;2.114137e-001
6.595634e+002;2.143730e-001
6.614919e+002;2.146297e-001
6.634205e+002;2.132598e-001
6.653491e+002;2.147869e-001
6.672776e+002;2.153683e-001
6.692062e+002;2.142382e-001
6.711347e+002;2.114399e-001
6.730632e+002;2.053479e-001
6.749918e+002;1.968605e-001
6.769203e+002;1.877257e-001
6.788489e+002;1.809457e-001
6.807775e+002;1.770852e-001
6.827060e+002;1.742500e-001
6.846345e+002;1.719836e-001
6.865631e+002;1.704822e-001
6.884916e+002;1.686997e-001
6.904202e+002;1.669354e-001
6.923488e+002;1.679983e-001
6.942773e+002;1.681445e-001
6.962058e+002;1.667028e-001
6.981344e+002;1.654933e-001
7.000629e+002;1.644901e-001
7.019915e+002;1.634342e-001
7.039200e+002;1.616175e-001
7.058486e+002;1.612241e-001
7.077771e+002;1.621808e-001
7.097057e+002;1.616380e-001
7.116342e+002;1.600495e-001
7.135627e+002;1.592958e-001
7.154913e+002;1.590219e-001
7.174199e+002;1.588719e-001
7.193484e+002;1.574874e-001
7.212770e+002;1.554678e-001
7.232055e+002;1.544937e-001
7.251340e+002;1.536602e-001
7.270626e+002;1.528244e-001
7.289911e+002;1.518075e-001
7.309197e+002;1.515858e-001
7.328483e+002;1.509552e-001
7.347768e+002;1.498053e-001
7.367053e+002;1.488291e-001
7.386339e+002;1.468216e-001
7.405624e+002;1.442371e-001
7.424910e+002;1.438698e-001
7.444196e+002;1.443559e-001
7.463481e+002;1.429817e-001
7.482766e+002;1.412653e-001
7.502052e+002;1.400835e-001
7.521337e+002;1.389708e-001
7.540623e+002;1.387618e-001
7.559908e+002;1.378549e-001
7.579194e+002;1.367205e-001
7.598479e+002;1.364561e-001
7.617765e+002;1.355905e-001
7.637050e+002;1.340457e-001
7.656335e+002;1.321817e-001
7.675621e+002;1.313689e-001
7.694907e+002;1.308258e-001
7.714192e+002;1.301622e-001
7.733478e+002;1.301488e-001
7.752763e+002;1.291949e-001
7.772048e+002;1.270554e-001
7.791334e+002;1.257134e-001
7.810620e+002;1.251425e-001
7.829905e+002;1.247281e-001
7.849191e+002;1.244696e-001
7.868476e+002;1.243734e-001
7.887761e+002;1.240400e-001
7.907047e+002;1.223130e-001
7.926332e+002;1.210549e-001
7.945618e+002;1.208408e-001
7.964903e+002;1.204739e-001
7.984189e+002;1.194927e-001
8.003474e+002;1.188113e-001
8.022759e+002;1.191575e-001
8.042045e+002;1.194472e-001
8.061331e+002;1.187154e-001
8.080616e+002;1.179611e-001
8.099902e+002;1.176603e-001
8.119187e+002;1.176530e-001
8.138472e+002;1.180412e-001
8.157758e+002;1.179014e-001
8.177043e+002;1.170428e-001
8.196329e+002;1.165746e-001
8.215615e+002;1.172023e-001
8.234900e+002;1.175157e-001
8.254185e+002;1.173758e-001
8.273471e+002;1.177376e-001
8.292756e+002;1.175132e-001
8.312042e+002;1.167478e-001
8.331328e+002;1.166286e-001
8.350613e+002;1.163587e-001
8.369898e+002;1.158501e-001
8.389184e+002;1.154634e-001
8.408469e+002;1.152504e-001
8.427755e+002;1.147157e-001
8.447040e+002;1.141406e-001
8.466326e+002;1.143392e-001
8.485611e+002;1.142018e-001
8.504897e+002;1.135599e-001
8.524182e+002;1.134174e-001
8.543467e+002;1.138475e-001
8.562753e+002;1.142897e-001
8.582039e+002;1.148353e-001
8.601324e+002;1.155025e-001
8.620610e+002;1.163892e-001
8.639895e+002;1.172617e-001
8.659180e+002;1.179372e-001
8.678466e+002;1.191152e-001
8.697751e+002;1.212798e-001
8.717037e+002;1.240324e-001
8.736323e+002;1.265994e-001
8.755608e+002;1.290772e-001
8.774893e+002;1.313889e-001
8.794179e+002;1.345171e-001
8.813464e+002;1.388819e-001
8.832750e+002;1.431721e-001
8.852036e+002;1.472394e-001
8.871321e+002;1.518669e-001
8.890606e+002;1.564284e-001
8.909892e+002;1.603472e-001
8.929177e+002;1.630545e-001
8.948463e+002;1.645570e-001
8.967748e+002;1.644863e-001
8.987034e+002;1.632509e-001
9.006319e+002;1.610805e-001
9.025605e+002;1.578507e-001
9.044890e+002;1.550602e-001
9.064175e+002;1.525984e-001
9.083461e+002;1.496928e-001
9.102747e+002;1.467109e-001
9.122032e+002;1.443039e-001
9.141318e+002;1.427701e-001
9.160603e+002;1.421934e-001
9.179888e+002;1.419495e-001
9.199174e+002;1.421063e-001
9.218459e+002;1.430543e-001
9.237745e+002;1.441195e-001
9.257031e+002;1.449368e-001
9.276316e+002;1.459354e-001
9.295601e+002;1.474124e-001
9.314887e+002;1.492586e-001
9.334172e+002;1.507302e-001
9.353458e+002;1.519369e-001
9.372744e+002;1.534320e-001
9.392029e+002;1.549276e-001
9.411314e+002;1.565728e-001
9.430600e+002;1.588547e-001
9.449885e+002;1.619405e-001
9.469171e+002;1.652495e-001
9.488456e+002;1.682112e-001
9.507742e+002;1.714869e-001
9.527027e+002;1.752397e-001
9.546313e+002;1.795788e-001
9.565598e+002;1.843456e-001
9.584883e+002;1.888356e-001
9.604169e+002;1.932282e-001
9.623455e+002;1.979034e-001
9.642740e+002;2.026261e-001
9.662026e+002;2.074251e-001
9.681311e+002;2.127090e-001
9.700596e+002;2.185076e-001
9.719882e+002;2.248225e-001
9.739167e+002;2.318083e-001
9.758453e+002;2.395502e-001
9.777739e+002;2.483794e-001
9.797024e+002;2.590061e-001
9.816309e+002;2.709423e-001
9.835595e+002;2.830672e-001
9.854880e+002;2.955513e-001
9.874166e+002;3.079680e-001
9.893452e+002;3.189620e-001
9.912737e+002;3.276865e-001
9.932022e+002;3.343481e-001
9.951307e+002;3.393344e-001
9.970593e+002;3.431366e-001
9.989879e+002;3.458365e-001
1.000916e+003;3.478309e-001
1.002845e+003;3.500073e-001
1.004773e+003;3.529323e-001
1.006702e+003;3.570012e-001
1.008631e+003;3.626828e-001
1.010559e+003;3.695275e-001
1.012488e+003;3.764769e-001
1.014416e+003;3.831624e-001
1.016345e+003;3.889901e-001
1.018273e+003;3.932783e-001
1.020202e+003;3.961418e-001
1.022130e+003;3.972885e-001
1.024059e+003;3.969675e-001
1.025988e+003;3.955593e-001
1.027916e+003;3.925540e-001
1.029845e+003;3.882664e-001
1.031773e+003;3.837508e-001
1.033702e+003;3.795464e-001
1.035630e+003;3.756209e-001
1.037559e+003;3.717408e-001
1.039487e+003;3.684137e-001
1.041416e+003;3.652416e-001
1.043344e+003;3.620338e-001
1.045273e+003;3.592974e-001
1.047202e+003;3.562510e-001
1.049130e+003;3.533674e-001
1.051059e+003;3.505083e-001
1.052987e+003;3.472296e-001
1.054916e+003;3.439413e-001
1.056844e+003;3.409244e-001
1.058773e+003;3.370124e-001
1.060701e+003;3.323140e-001
1.062630e+003;3.281445e-001
1.064558e+003;3.237769e-001
1.066487e+003;3.185697e-001
1.068416e+003;3.136692e-001
1.070344e+003;3.092439e-001
1.072273e+003;3.047789e-001
1.074201e+003;3.000780e-001
1.076130e+003;2.944012e-001
1.078058e+003;2.879391e-001
1.079987e+003;2.823676e-001
1.081915e+003;2.775794e-001
1.083844e+003;2.732473e-001
1.085773e+003;2.686335e-001
1.087701e+003;2.644528e-001
1.089630e+003;2.603111e-001
1.091558e+003;2.557041e-001
1.093487e+003;2.507062e-001
1.095415e+003;2.455819e-001
1.097344e+003;2.407750e-001
1.099272e+003;2.355701e-001
1.101201e+003;2.303641e-001
1.103129e+003;2.257067e-001
1.105058e+003;2.215526e-001
1.106987e+003;2.176682e-001
1.108915e+003;2.147313e-001
1.110844e+003;2.118598e-001
1.112772e+003;2.085531e-001
1.114701e+003;2.056278e-001
1.116629e+003;2.017579e-001
1.118558e+003;1.972002e-001
1.120486e+003;1.927648e-001
1.122415e+003;1.878101e-001
1.124344e+003;1.826657e-001
1.126272e+003;1.773907e-001
1.128201e+003;1.724232e-001
1.130129e+003;1.677803e-001
1.132058e+003;1.631308e-001
1.133986e+003;1.589312e-001
1.135915e+003;1.552597e-001
1.137843e+003;1.521494e-001
1.139772e+003;1.497462e-001
1.141700e+003;1.482636e-001
1.143629e+003;1.477935e-001
1.145557e+003;1.480912e-001
1.147486e+003;1.489952e-001
1.149415e+003;1.502244e-001
1.151343e+003;1.512894e-001
1.153272e+003;1.525107e-001
1.155200e+003;1.538782e-001
1.157129e+003;1.541162e-001
1.159057e+003;1.525406e-001
1.160986e+003;1.500444e-001
1.162914e+003;1.463946e-001
1.164843e+003;1.415385e-001
1.166771e+003;1.354852e-001
1.168700e+003;1.292523e-001
1.170629e+003;1.235702e-001
1.172557e+003;1.181973e-001
1.174486e+003;1.134976e-001
1.176414e+003;1.091610e-001
1.178343e+003;1.054729e-001
1.180271e+003;1.025691e-001
1.182200e+003;1.002681e-001
1.184128e+003;9.902226e-002
1.186057e+003;9.875556e-002
1.187986e+003;9.956265e-002
1.189914e+003;1.010567e-001
1.191843e+003;1.030838e-001
1.193771e+003;1.055178e-001
1.195700e+003;1.076062e-001
1.197628e+003;1.090332e-001
1.199557e+003;1.094574e-001
1.201485e+003;1.088888e-001
1.203414e+003;1.076527e-001
1.205343e+003;1.061936e-001
1.207271e+003;1.044731e-001
1.209200e+003;1.026124e-001
1.211128e+003;1.013935e-001
1.213057e+003;1.010415e-001
1.214985e+003;1.014171e-001
1.216914e+003;1.023000e-001
1.218842e+003;1.036909e-001
1.220771e+003;1.053774e-001
1.222699e+003;1.073561e-001
1.224628e+003;1.092081e-001
1.226557e+003;1.102263e-001
1.228485e+003;1.109740e-001
1.230414e+003;1.118331e-001
1.232342e+003;1.123926e-001
1.234271e+003;1.125679e-001
1.236199e+003;1.125697e-001
1.238128e+003;1.125481e-001
1.240056e+003;1.123967e-001
1.241985e+003;1.122502e-001
1.243913e+003;1.123115e-001
1.245842e+003;1.125787e-001
1.247771e+003;1.130811e-001
1.249699e+003;1.138019e-001
1.251628e+003;1.145843e-001
1.253556e+003;1.153789e-001
1.255485e+003;1.163062e-001
1.257413e+003;1.169117e-001
1.259342e+003;1.169919e-001
1.261270e+003;1.168820e-001
1.263199e+003;1.166497e-001
1.265127e+003;1.163228e-001
1.267056e+003;1.157219e-001
1.268985e+003;1.144972e-001
1.270913e+003;1.133437e-001
1.272842e+003;1.126936e-001
1.274770e+003;1.120713e-001
1.276699e+003;1.114258e-001
1.278627e+003;1.109376e-001
1.280556e+003;1.103157e-001
1.282484e+003;1.096743e-001
1.284413e+003;1.095936e-001
1.286342e+003;1.098707e-001
1.288270e+003;1.106168e-001
1.290199e+003;1.117492e-001
1.292127e+003;1.128828e-001
1.294056e+003;1.142455e-001
1.295984e+003;1.156936e-001
1.297913e+003;1.170181e-001
1.299841e+003;1.185251e-001
1.301770e+003;1.200509e-001
1.303698e+003;1.214531e-001
1.305627e+003;1.227575e-001
1.307556e+003;1.240109e-001
1.309484e+003;1.254991e-001
1.311413e+003;1.269094e-001
1.313341e+003;1.277699e-001
1.315270e+003;1.279835e-001
1.317198e+003;1.276488e-001
1.319127e+003;1.270270e-001
1.321055e+003;1.263992e-001
1.322984e+003;1.260874e-001
1.324912e+003;1.260864e-001
1.326841e+003;1.258253e-001
1.328770e+003;1.256563e-001
1.330698e+003;1.258402e-001
1.332627e+003;1.259292e-001
1.334555e+003;1.258641e-001
1.336484e+003;1.257455e-001
1.338412e+003;1.254231e-001
1.340341e+003;1.250237e-001
1.342269e+003;1.248405e-001
1.344198e+003;1.247025e-001
1.346126e+003;1.245868e-001
1.348055e+003;1.244897e-001
1.349984e+003;1.246084e-001
1.351912e+003;1.250142e-001
1.353841e+003;1.257365e-001
1.355769e+003;1.263649e-001
1.357698e+003;1.267770e-001
1.359626e+003;1.274754e-001
1.361555e+003;1.280570e-001
1.363483e+003;1.283332e-001
1.365412e+003;1.285469e-001
1.367341e+003;1.283729e-001
1.369269e+003;1.279235e-001
1.371198e+003;1.271782e-001
1.373126e+003;1.257626e-001
1.375055e+003;1.242182e-001
1.376983e+003;1.229725e-001
1.378912e+003;1.214638e-001
1.380840e+003;1.197253e-001
1.382769e+003;1.180788e-001
1.384698e+003;1.162717e-001
1.386626e+003;1.144520e-001
1.388555e+003;1.134290e-001
1.390483e+003;1.130669e-001
1.392412e+003;1.125299e-001
1.394340e+003;1.117118e-001
1.396269e+003;1.115456e-001
1.398197e+003;1.114319e-001
1.400126e+003;1.114623e-001
1.402054e+003;1.117051e-001
1.403983e+003;1.115427e-001
1.405911e+003;1.115852e-001
1.407840e+003;1.118995e-001
1.409769e+003;1.117432e-001
1.411697e+003;1.117757e-001
1.413626e+003;1.119275e-001
1.415554e+003;1.113988e-001
1.417483e+003;1.104731e-001
1.419411e+003;1.100969e-001
1.421340e+003;1.108795e-001
1.423268e+003;1.111294e-001
1.425197e+003;1.109223e-001
1.427125e+003;1.106775e-001
1.429054e+003;1.102958e-001
1.430983e+003;1.098956e-001
1.432911e+003;1.093570e-001
1.434840e+003;1.081638e-001
1.436768e+003;1.071955e-001
1.438697e+003;1.074605e-001
1.440625e+003;1.070910e-001
1.442554e+003;1.061804e-001
1.444482e+003;1.052216e-001
1.446411e+003;1.041529e-001
1.448340e+003;1.032501e-001
1.450268e+003;1.025424e-001
1.452197e+003;1.014836e-001
1.454125e+003;9.987517e-002
1.456054e+003;9.729093e-002
1.457982e+003;9.642644e-002
1.459911e+003;9.693996e-002
1.461839e+003;9.638350e-002
1.463768e+003;9.463710e-002
1.465697e+003;9.296840e-002
1.467625e+003;9.211364e-002
1.469554e+003;9.074225e-002
1.471482e+003;8.824573e-002
1.473411e+003;8.643202e-002
1.475339e+003;8.558978e-002
1.477268e+003;8.448184e-002
1.479196e+003;8.306016e-002
1.481125e+003;8.137864e-002
1.483053e+003;7.994010e-002
1.484982e+003;7.858729e-002
1.486911e+003;7.677269e-002
1.488839e+003;7.490245e-002
1.490768e+003;7.419014e-002
1.492696e+003;7.384940e-002
1.494625e+003;7.246142e-002
1.496553e+003;7.121881e-002
1.498482e+003;7.129303e-002
1.500410e+003;7.158991e-002
1.502339e+003;7.126070e-002
1.504267e+003;6.919128e-002
1.506196e+003;6.707627e-002
1.508125e+003;6.763146e-002
1.510053e+003;6.866482e-002
1.511982e+003;6.849161e-002
1.513910e+003;6.823576e-002
1.515839e+003;6.773880e-002
1.517767e+003;6.730141e-002
1.519696e+003;6.627519e-002
1.521624e+003;6.570537e-002
1.523553e+003;6.654862e-002
1.525481e+003;6.684864e-002
1.527410e+003;6.723684e-002
1.529339e+003;6.774972e-002
1.531267e+003;6.745081e-002
1.533196e+003;6.660716e-002
1.535124e+003;6.707599e-002
1.537053e+003;6.648798e-002
1.538981e+003;6.425519e-002
1.540910e+003;6.421393e-002
1.542838e+003;6.562759e-002
1.544767e+003;6.658623e-002
1.546695e+003;6.738378e-002
1.548624e+003;6.746729e-002
1.550553e+003;6.733863e-002
1.552481e+003;6.724736e-002
1.554410e+003;6.694423e-002
1.556338e+003;6.609771e-002
1.558267e+003;6.415877e-002
1.560195e+003;6.502438e-002
1.562124e+003;6.786267e-002
1.564052e+003;6.882083e-002
1.565981e+003;6.889459e-002
1.567910e+003;6.839820e-002
1.569838e+003;6.814524e-002
1.571767e+003;6.916466e-002
1.573695e+003;6.903324e-002
1.575624e+003;6.798359e-002
1.577552e+003;6.915561e-002
1.579481e+003;7.092241e-002
1.581409e+003;7.154126e-002
1.583338e+003;7.199160e-002
1.585266e+003;7.242408e-002
1.587195e+003;7.274101e-002
1.589124e+003;7.320098e-002
1.591052e+003;7.364117e-002
1.592981e+003;7.390538e-002
1.594909e+003;7.426935e-002
1.596838e+003;7.463626e-002
1.598766e+003;7.495178e-002
1.600695e+003;7.541031e-002
1.602623e+003;7.607982e-002
1.604552e+003;7.681073e-002
1.606480e+003;7.721633e-002
1.608409e+003;7.735548e-002
1.610338e+003;7.772762e-002
1.612266e+003;7.806753e-002
1.614195e+003;7.774871e-002
1.616123e+003;7.698492e-002
1.618052e+003;7.792918e-002
1.619980e+003;7.930125e-002
1.621909e+003;7.947930e-002
1.623837e+003;7.976985e-002
1.625766e+003;8.048783e-002
1.627694e+003;8.084862e-002
1.629623e+003;8.128050e-002
1.631552e+003;8.153752e-002
1.633480e+003;8.086067e-002
1.635409e+003;8.003956e-002
1.637337e+003;8.092918e-002
1.639266e+003;8.195152e-002
1.641194e+003;8.240601e-002
1.643123e+003;8.215060e-002
1.645051e+003;8.073400e-002
1.646980e+003;8.013519e-002
1.648909e+003;8.063055e-002
1.650837e+003;7.892843e-002
1.652766e+003;7.635712e-002
1.654694e+003;7.776967e-002
1.656623e+003;7.950636e-002
1.658551e+003;7.940821e-002
1.660480e+003;7.831019e-002
1.662408e+003;7.719017e-002
1.664337e+003;7.706805e-002
1.666266e+003;7.668650e-002
1.668194e+003;7.528301e-002
1.670123e+003;7.434130e-002
1.672051e+003;7.414997e-002
1.673980e+003;7.303100e-002
1.675908e+003;7.230199e-002
1.677837e+003;7.249083e-002
1.679765e+003;7.188520e-002
1.681694e+003;7.036658e-002
1.683622e+003;6.779116e-002
1.685551e+003;6.747550e-002
1.687479e+003;6.848424e-002
1.689408e+003;6.823661e-002
1.691337e+003;6.774883e-002
1.693265e+003;6.673403e-002
1.695194e+003;6.475629e-002
1.697122e+003;6.423663e-002
1.699051e+003;6.318179e-002
1.700979e+003;6.267940e-002
1.702908e+003;6.386945e-002
1.704836e+003;6.362747e-002
1.706765e+003;6.334852e-002
1.708693e+003;6.320363e-002
1.710622e+003;6.289503e-002
1.712551e+003;6.242580e-002
1.714479e+003;6.159888e-002
1.716408e+003;6.025629e-002
1.718336e+003;6.021914e-002
1.720265e+003;6.140094e-002
1.722193e+003;6.155081e-002
1.724122e+003;6.115271e-002
1.726050e+003;6.087637e-002
1.727979e+003;6.045283e-002
1.729908e+003;5.998311e-002
1.731836e+003;5.862817e-002
1.733765e+003;5.717391e-002
1.735693e+003;5.778876e-002
1.737622e+003;5.786151e-002
1.739550e+003;5.684600e-002
1.741479e+003;5.689563e-002
1.743407e+003;5.695259e-002
1.745336e+003;5.662459e-002
1.747265e+003;5.623833e-002
1.749193e+003;5.590901e-002
1.751122e+003;5.587299e-002
1.753050e+003;5.679740e-002
1.754979e+003;5.717270e-002
1.756907e+003;5.717255e-002
1.758836e+003;5.745842e-002
1.760764e+003;5.727072e-002
1.762693e+003;5.712584e-002
1.764621e+003;5.735949e-002
1.766550e+003;5.712096e-002
1.768479e+003;5.685280e-002
1.770407e+003;5.647052e-002
1.772336e+003;5.614424e-002
1.774264e+003;5.681594e-002
1.776193e+003;5.736561e-002
1.778121e+003;5.738479e-002
1.780050e+003;5.728671e-002
1.781978e+003;5.730758e-002
1.783907e+003;5.719269e-002
1.785835e+003;5.731268e-002
1.787764e+003;5.737511e-002
1.789693e+003;5.686677e-002
1.791621e+003;5.619356e-002
1.793550e+003;5.626579e-002
1.795478e+003;5.666755e-002
1.797407e+003;5.646011e-002
1.799335e+003;5.600739e-002
1.801264e+003;5.594252e-002
1.803192e+003;5.637771e-002
1.805121e+003;5.664222e-002
1.807049e+003;5.638967e-002
1.808978e+003;5.595899e-002
1.810907e+003;5.580320e-002
1.812835e+003;5.582788e-002
1.814764e+003;5.607083e-002
1.816692e+003;5.619473e-002
1.818621e+003;5.610431e-002
1.820549e+003;5.584913e-002
1.822478e+003;5.551160e-002
1.824406e+003;5.529275e-002
1.826335e+003;5.535289e-002
1.828264e+003;5.506126e-002
1.830192e+003;5.484466e-002
1.832121e+003;5.511983e-002
1.834049e+003;5.538063e-002
1.835978e+003;5.544519e-002
1.837906e+003;5.541515e-002
1.839835e+003;5.527676e-002
1.841763e+003;5.469762e-002
1.843692e+003;5.409651e-002
1.845620e+003;5.441435e-002
1.847549e+003;5.476756e-002
1.849478e+003;5.486207e-002
1.851406e+003;5.487162e-002
1.853335e+003;5.462603e-002
1.855263e+003;5.446494e-002
1.857192e+003;5.443373e-002
1.859120e+003;5.445525e-002
1.861049e+003;5.461551e-002
1.862977e+003;5.467815e-002
1.864906e+003;5.452226e-002
1.866834e+003;5.413828e-002
1.868763e+003;5.386355e-002
1.870692e+003;5.406360e-002
1.872620e+003;5.432505e-002
1.874549e+003;5.448586e-002
1.876477e+003;5.437510e-002
1.878406e+003;5.432460e-002
1.880334e+003;5.448515e-002
1.882263e+003;5.461442e-002
1.884191e+003;5.457760e-002
1.886120e+003;5.436173e-002
1.888048e+003;5.411069e-002
1.889977e+003;5.422240e-002
1.891906e+003;5.446753e-002
1.893834e+003;5.441089e-002
1.895763e+003;5.415491e-002
1.897691e+003;5.403515e-002
1.899620e+003;5.423963e-002
1.901548e+003;5.444049e-002
1.903477e+003;5.450145e-002
1.905405e+003;5.460296e-002
1.907334e+003;5.468003e-002
1.909262e+003;5.479173e-002
1.911191e+003;5.500827e-002
1.913120e+003;5.512773e-002
1.915048e+003;5.515417e-002
1.916977e+003;5.498736e-002
1.918905e+003;5.505810e-002
1.920834e+003;5.535357e-002
1.922762e+003;5.552787e-002
1.924691e+003;5.560804e-002
1.926619e+003;5.565768e-002
1.928548e+003;5.573531e-002
1.930477e+003;5.598104e-002
1.932405e+003;5.624308e-002
1.934334e+003;5.617467e-002
1.936262e+003;5.586534e-002
1.938191e+003;5.571233e-002
1.940119e+003;5.587367e-002
1.942048e+003;5.607257e-002
1.943976e+003;5.625885e-002
1.945905e+003;5.634153e-002
1.947833e+003;5.640936e-002
1.949762e+003;5.666158e-002
1.951691e+003;5.678916e-002
1.953619e+003;5.671829e-002
1.955548e+003;5.684438e-002
1.957476e+003;5.711631e-002
1.959405e+003;5.706065e-002
1.961333e+003;5.694058e-002
1.963262e+003;5.707198e-002
1.965190e+003;5.701183e-002
1.967119e+003;5.694900e-002
1.969047e+003;5.731170e-002
1.970976e+003;5.765089e-002
1.972905e+003;5.763402e-002
1.974833e+003;5.765229e-002
1.976762e+003;5.797165e-002
1.978690e+003;5.793935e-002
1.980619e+003;5.781117e-002
1.982547e+003;5.780651e-002
1.984476e+003;5.783634e-002
1.986404e+003;5.797877e-002
1.988333e+003;5.800933e-002
1.990261e+003;5.801626e-002
1.992190e+003;5.813072e-002
1.994119e+003;5.821103e-002
1.996047e+003;5.813674e-002
1.997976e+003;5.813162e-002
1.999904e+003;5.834941e-002
2.001833e+003;5.853500e-002
2.003761e+003;5.862988e-002
2.005690e+003;5.864611e-002
2.007618e+003;5.880162e-002
2.009547e+003;5.907088e-002
2.011476e+003;5.915957e-002
2.013404e+003;5.924527e-002
2.015333e+003;5.925002e-002
2.017261e+003;5.947407e-002
2.019190e+003;5.968576e-002
2.021118e+003;5.978347e-002
2.023047e+003;5.983040e-002
2.024975e+003;5.986344e-002
2.026904e+003;5.991601e-002
2.028833e+003;5.985390e-002
2.030761e+003;5.993057e-002
2.032690e+003;6.014356e-002
2.034618e+003;6.029718e-002
2.036547e+003;6.015848e-002
2.038475e+003;5.994237e-002
2.040404e+003;5.999768e-002
2.042332e+003;6.013165e-002
2.044261e+003;6.014641e-002
2.046189e+003;6.016358e-002
2.048118e+003;6.026996e-002
2.050047e+003;6.056100e-002
2.051975e+003;6.082167e-002
2.053904e+003;6.069476e-002
2.055832e+003;6.057955e-002
2.057761e+003;6.047381e-002
2.059689e+003;6.056256e-002
2.061618e+003;6.084004e-002
2.063546e+003;6.065479e-002
2.065475e+003;6.050596e-002
2.067404e+003;6.060690e-002
2.069332e+003;6.065194e-002
2.071260e+003;6.066226e-002
2.073189e+003;6.061209e-002
2.075118e+003;6.054565e-002
2.077046e+003;6.034168e-002
2.078975e+003;6.027437e-002
2.080903e+003;6.056409e-002
2.082832e+003;6.083440e-002
2.084760e+003;6.087236e-002
2.086689e+003;6.094007e-002
2.088617e+003;6.103051e-002
2.090546e+003;6.097526e-002
2.092475e+003;6.089661e-002
2.094403e+003;6.090179e-002
2.096332e+003;6.104927e-002
2.098260e+003;6.101774e-002
2.100189e+003;6.076762e-002
2.102117e+003;6.070425e-002
2.104046e+003;6.109256e-002
2.105974e+003;6.161870e-002
2.107903e+003;6.152641e-002
2.109832e+003;6.114279e-002
2.111760e+003;6.120150e-002
2.113688e+003;6.140659e-002
2.115617e+003;6.134530e-002
2.117546e+003;6.124838e-002
2.119474e+003;6.143438e-002
2.121403e+003;6.159369e-002
2.123331e+003;6.159979e-002
2.125260e+003;6.155398e-002
2.127188e+003;6.152336e-002
2.129117e+003;6.140526e-002
2.131045e+003;6.137068e-002
2.132974e+003;6.149144e-002
2.134903e+003;6.146858e-002
2.136831e+003;6.137442e-002
2.138760e+003;6.155123e-002
2.140688e+003;6.171165e-002
2.142617e+003;6.138713e-002
2.144545e+003;6.116400e-002
2.146474e+003;6.116335e-002
2.148402e+003;6.128551e-002
2.150331e+003;6.152977e-002
2.152260e+003;6.143839e-002
2.154188e+003;6.116007e-002
2.156117e+003;6.126303e-002
2.158045e+003;6.138121e-002
2.159974e+003;6.123324e-002
2.161902e+003;6.102654e-002
2.163831e+003;6.088101e-002
2.165759e+003;6.084099e-002
2.167688e+003;6.079220e-002
2.169616e+003;6.069430e-002
2.171545e+003;6.065091e-002
2.173474e+003;6.072597e-002
2.175402e+003;6.076465e-002
2.177331e+003;6.065098e-002
2.179259e+003;6.051632e-002
2.181188e+003;6.044849e-002
2.183116e+003;6.031499e-002
2.185045e+003;6.012301e-002
2.186973e+003;6.009896e-002
2.188902e+003;6.016753e-002
2.190831e+003;6.013184e-002
2.192759e+003;5.998744e-002
2.194688e+003;5.985721e-002
2.196616e+003;5.978549e-002
2.198545e+003;6.006730e-002
2.200473e+003;6.025999e-002
2.202402e+003;6.024529e-002
2.204330e+003;6.013336e-002
2.206259e+003;5.978614e-002
2.208188e+003;5.959237e-002
2.210116e+003;5.961449e-002
2.212044e+003;5.969386e-002
2.213973e+003;5.982523e-002
2.215902e+003;5.986177e-002
2.217830e+003;5.977701e-002
2.219759e+003;5.968037e-002
2.221687e+003;5.956516e-002
2.223616e+003;5.948330e-002
2.225544e+003;5.940978e-002
2.227473e+003;5.938007e-002
2.229401e+003;5.941898e-002
2.231330e+003;5.927133e-002
2.233259e+003;5.921410e-002
2.235187e+003;5.933210e-002
2.237116e+003;5.929833e-002
2.239044e+003;5.912957e-002
2.240973e+003;5.917836e-002
2.242901e+003;5.905220e-002
2.244830e+003;5.889728e-002
2.246758e+003;5.869757e-002
2.248687e+003;5.858570e-002
2.250615e+003;5.877276e-002
2.252544e+003;5.883702e-002
2.254473e+003;5.871457e-002
2.256401e+003;5.871969e-002
2.258330e+003;5.875823e-002
2.260258e+003;5.862574e-002
2.262187e+003;5.842101e-002
2.264115e+003;5.821724e-002
2.266044e+003;5.801452e-002
2.267972e+003;5.814746e-002
2.269901e+003;5.833365e-002
2.271830e+003;5.828753e-002
2.273758e+003;5.822755e-002
2.275687e+003;5.823770e-002
2.277615e+003;5.825308e-002
2.279544e+003;5.798324e-002
2.281472e+003;5.790035e-002
2.283401e+003;5.793458e-002
2.285329e+003;5.788540e-002
2.287258e+003;5.798903e-002
2.289187e+003;5.794314e-002
2.291115e+003;5.773831e-002
2.293043e+003;5.776745e-002
2.294972e+003;5.781965e-002
2.296901e+003;5.756853e-002
2.298829e+003;5.753176e-002
2.300758e+003;5.785481e-002
2.302686e+003;5.789135e-002
2.304615e+003;5.765513e-002
2.306543e+003;5.745876e-002
2.308472e+003;5.746058e-002
2.310400e+003;5.766596e-002
2.312329e+003;5.787499e-002
2.314258e+003;5.810454e-002
2.316186e+003;5.801577e-002
2.318115e+003;5.776658e-002
2.320043e+003;5.775473e-002
2.321972e+003;5.789994e-002
2.323900e+003;5.797381e-002
2.325829e+003;5.771401e-002
2.327757e+003;5.753759e-002
2.329686e+003;5.765650e-002
2.331615e+003;5.788979e-002
2.333543e+003;5.798006e-002
2.335472e+003;5.801743e-002
2.337400e+003;5.827919e-002
2.339329e+003;5.855859e-002
2.341257e+003;5.853803e-002
2.343186e+003;5.832895e-002
2.345114e+003;5.837473e-002
2.347043e+003;5.866427e-002
2.348971e+003;5.899736e-002
2.350900e+003;5.907631e-002
2.352829e+003;5.893117e-002
2.354757e+003;5.897291e-002
2.356686e+003;5.928553e-002
2.358614e+003;5.947696e-002
2.360543e+003;5.953149e-002
2.362471e+003;5.959420e-002
2.364400e+003;5.936568e-002
2.366328e+003;5.910433e-002
2.368257e+003;5.910307e-002
2.370186e+003;5.920286e-002
2.372114e+003;5.925743e-002
2.374042e+003;5.936378e-002
2.375971e+003;5.964330e-002
2.377900e+003;5.963528e-002
2.379828e+003;5.962703e-002
2.381757e+003;5.982690e-002
2.383685e+003;5.983614e-002
2.385614e+003;5.985352e-002
2.387542e+003;6.008161e-002
2.389471e+003;6.026231e-002
2.391399e+003;6.034884e-002
2.393328e+003;6.044365e-002
2.395257e+003;6.051167e-002
2.397185e+003;6.045584e-002
2.399114e+003;6.046430e-002
2.401042e+003;6.049789e-002
2.402971e+003;6.062279e-002
2.404899e+003;6.101442e-002
2.406828e+003;6.111193e-002
2.408756e+003;6.102517e-002
2.410685e+003;6.098944e-002
2.412614e+003;6.110393e-002
2.414542e+003;6.135267e-002
2.416471e+003;6.141613e-002
2.418399e+003;6.162045e-002
2.420328e+003;6.180848e-002
2.422256e+003;6.193468e-002
2.424185e+003;6.222492e-002
2.426113e+003;6.243211e-002
2.428042e+003;6.221877e-002
2.429970e+003;6.207043e-002
2.431899e+003;6.224320e-002
2.433828e+003;6.244145e-002
2.435756e+003;6.253163e-002
2.437685e+003;6.276193e-002
2.439613e+003;6.294214e-002
2.441542e+003;6.295126e-002
2.443470e+003;6.319106e-002
2.445399e+003;6.358179e-002
2.447327e+003;6.384758e-002
2.449256e+003;6.387261e-002
2.451185e+003;6.383809e-002
2.453113e+003;6.373172e-002
2.455042e+003;6.390062e-002
2.456970e+003;6.411790e-002
2.458899e+003;6.441042e-002
2.460827e+003;6.451439e-002
2.462756e+003;6.436773e-002
2.464684e+003;6.464519e-002
2.466613e+003;6.488777e-002
2.468542e+003;6.459912e-002
2.470470e+003;6.447615e-002
2.472398e+003;6.489408e-002
2.474327e+003;6.547512e-002
2.476256e+003;6.567766e-002
2.478184e+003;6.579430e-002
2.480113e+003;6.585804e-002
2.482041e+003;6.584366e-002
2.483970e+003;6.589545e-002
2.485898e+003;6.606650e-002
2.487827e+003;6.616338e-002
2.489755e+003;6.610239e-002
2.491684e+003;6.608745e-002
2.493613e+003;6.607453e-002
2.495541e+003;6.601138e-002
2.497470e+003;6.607029e-002
2.499398e+003;6.615698e-002
2.501327e+003;6.616686e-002
2.503255e+003;6.615274e-002
2.505184e+003;6.642856e-002
2.507112e+003;6.677159e-002
2.509041e+003;6.673519e-002
2.510969e+003;6.655962e-002
2.512898e+003;6.669830e-002
2.514827e+003;6.693457e-002
2.516755e+003;6.723696e-002
2.518684e+003;6.736757e-002
2.520612e+003;6.744292e-002
2.522541e+003;6.751057e-002
2.524469e+003;6.750140e-002
2.526398e+003;6.746083e-002
2.528326e+003;6.739477e-002
2.530255e+003;6.735963e-002
2.532184e+003;6.739543e-002
2.534112e+003;6.737597e-002
2.536041e+003;6.746675e-002
2.537969e+003;6.743966e-002
2.539898e+003;6.755195e-002
2.541826e+003;6.776188e-002
2.543755e+003;6.769117e-002
2.545683e+003;6.771499e-002
2.547612e+003;6.798971e-002
2.549541e+003;6.810969e-002
2.551469e+003;6.823646e-002
2.553397e+003;6.839436e-002
2.555326e+003;6.845599e-002
2.557255e+003;6.830230e-002
2.559183e+003;6.825185e-002
2.561112e+003;6.844537e-002
2.563040e+003;6.843738e-002
2.564969e+003;6.848466e-002
2.566897e+003;6.874563e-002
2.568826e+003;6.910538e-002
2.570754e+003;6.905332e-002
2.572683e+003;6.885146e-002
2.574612e+003;6.896511e-002
2.576540e+003;6.910033e-002
2.578469e+003;6.929170e-002
2.580397e+003;6.942724e-002
2.582326e+003;6.941959e-002
2.584254e+003;6.933694e-002
2.586183e+003;6.927697e-002
2.588111e+003;6.945776e-002
2.590040e+003;6.957489e-002
2.591969e+003;6.967777e-002
2.593897e+003;6.984219e-002
2.595826e+003;7.005725e-002
2.597754e+003;7.013236e-002
2.599683e+003;7.011713e-002
2.601611e+003;6.999200e-002
2.603540e+003;7.010908e-002
2.605468e+003;7.024857e-002
2.607397e+003;7.035282e-002
2.609325e+003;7.064201e-002
2.611254e+003;7.096209e-002
2.613183e+003;7.103072e-002
2.615111e+003;7.090072e-002
2.617040e+003;7.103388e-002
2.618968e+003;7.111775e-002
2.620897e+003;7.112759e-002
2.622825e+003;7.133617e-002
2.624754e+003;7.159045e-002
2.626682e+003;7.159530e-002
2.628611e+003;7.178574e-002
2.630540e+003;7.211488e-002
2.632468e+003;7.211336e-002
2.634396e+003;7.216386e-002
2.636325e+003;7.239808e-002
2.638254e+003;7.248307e-002
2.640182e+003;7.259643e-002
2.642111e+003;7.268228e-002
2.644039e+003;7.265960e-002
2.645968e+003;7.287371e-002
2.647896e+003;7.324608e-002
2.649825e+003;7.327871e-002
2.651753e+003;7.331790e-002
2.653682e+003;7.356777e-002
2.655611e+003;7.392152e-002
2.657539e+003;7.416978e-002
2.659468e+003;7.401836e-002
2.661396e+003;7.399710e-002
2.663325e+003;7.423715e-002
2.665253e+003;7.443658e-002
2.667182e+003;7.456060e-002
2.669110e+003;7.473857e-002
2.671039e+003;7.521311e-002
2.672968e+003;7.539403e-002
2.674896e+003;7.526185e-002
2.676825e+003;7.525106e-002
2.678753e+003;7.547295e-002
2.680682e+003;7.561801e-002
2.682610e+003;7.559001e-002
2.684539e+003;7.573484e-002
2.686467e+003;7.608344e-002
2.688396e+003;7.627275e-002
2.690324e+003;7.609134e-002
2.692253e+003;7.625426e-002
2.694182e+003;7.648817e-002
2.696110e+003;7.653192e-002
2.698039e+003;7.656404e-002
2.699967e+003;7.659455e-002
2.701896e+003;7.691403e-002
2.703824e+003;7.742177e-002
2.705753e+003;7.768641e-002
2.707681e+003;7.770175e-002
2.709610e+003;7.763903e-002
2.711539e+003;7.763835e-002
2.713467e+003;7.795729e-002
2.715396e+003;7.834083e-002
2.717324e+003;7.827897e-002
2.719253e+003;7.825111e-002
2.721181e+003;7.838436e-002
2.723110e+003;7.848252e-002
2.725038e+003;7.869475e-002
2.726967e+003;7.893709e-002
2.728896e+003;7.892938e-002
2.730824e+003;7.869150e-002
2.732752e+003;7.883787e-002
2.734681e+003;7.913651e-002
2.736610e+003;7.925611e-002
2.738538e+003;7.929488e-002
2.740467e+003;7.928912e-002
2.742395e+003;7.931712e-002
2.744324e+003;7.957684e-002
2.746252e+003;7.962368e-002
2.748181e+003;7.958432e-002
2.750109e+003;7.950003e-002
2.752038e+003;7.979004e-002
2.753967e+003;8.027851e-002
2.755895e+003;8.032742e-002
2.757824e+003;8.027093e-002
2.759752e+003;8.039919e-002
2.761681e+003;8.068117e-002
2.763609e+003;8.103298e-002
2.765538e+003;8.138391e-002
2.767466e+003;8.164123e-002
2.769395e+003;8.164391e-002
2.771323e+003;8.157242e-002
2.773252e+003;8.153908e-002
2.775181e+003;8.194499e-002
2.777109e+003;8.245640e-002
2.779038e+003;8.251642e-002
2.780966e+003;8.232222e-002
2.782895e+003;8.252836e-002
2.784823e+003;8.292265e-002
2.786752e+003;8.325188e-002
2.788680e+003;8.365141e-002
2.790609e+003;8.387603e-002
2.792538e+003;8.406571e-002
2.794466e+003;8.421580e-002
2.796395e+003;8.451452e-002
2.798323e+003;8.470967e-002
2.800252e+003;8.491332e-002
2.802180e+003;8.527236e-002
2.804109e+003;8.558518e-002
2.806037e+003;8.582849e-002
2.807966e+003;8.623040e-002
2.809895e+003;8.664372e-002
2.811823e+003;8.683886e-002
2.813751e+003;8.722311e-002
2.815680e+003;8.778352e-002
2.817609e+003;8.822569e-002
2.819537e+003;8.826348e-002
2.821466e+003;8.834993e-002
2.823394e+003;8.870150e-002
2.825323e+003;8.888752e-002
2.827251e+003;8.931368e-002
2.829180e+003;9.013753e-002
2.831108e+003;9.097005e-002
2.833037e+003;9.123915e-002
2.834966e+003;9.157933e-002
2.836894e+003;9.242438e-002
2.838823e+003;9.298945e-002
2.840751e+003;9.337294e-002
2.842680e+003;9.393711e-002
2.844608e+003;9.429229e-002
2.846537e+003;9.444090e-002
2.848465e+003;9.489167e-002
2.850394e+003;9.544725e-002
2.852323e+003;9.609047e-002
2.854251e+003;9.688640e-002
2.856180e+003;9.802292e-002
2.858108e+003;9.948927e-002
2.860037e+003;1.007554e-001
2.861965e+003;1.019848e-001
2.863894e+003;1.032895e-001
2.865822e+003;1.047150e-001
2.867751e+003;1.058262e-001
2.869679e+003;1.066947e-001
2.871608e+003;1.074792e-001
2.873536e+003;1.079145e-001
2.875465e+003;1.084838e-001
2.877394e+003;1.094096e-001
2.879322e+003;1.099840e-001
2.881251e+003;1.101946e-001
2.883179e+003;1.105951e-001
2.885108e+003;1.108728e-001
2.887036e+003;1.110057e-001
2.888965e+003;1.110048e-001
2.890893e+003;1.109033e-001
2.892822e+003;1.110551e-001
2.894750e+003;1.107724e-001
2.896679e+003;1.100095e-001
2.898608e+003;1.098087e-001
2.900536e+003;1.096983e-001
2.902465e+003;1.091440e-001
2.904393e+003;1.084612e-001
2.906322e+003;1.079176e-001
2.908250e+003;1.072864e-001
2.910179e+003;1.064310e-001
2.912107e+003;1.054573e-001
2.914036e+003;1.043259e-001
2.915965e+003;1.030604e-001
2.917893e+003;1.019861e-001
2.919822e+003;1.013569e-001
2.921750e+003;1.005282e-001
2.923679e+003;9.956386e-002
2.925607e+003;9.875452e-002
2.927536e+003;9.795337e-002
2.929464e+003;9.723767e-002
2.931393e+003;9.664688e-002
2.933322e+003;9.636782e-002
2.935250e+003;9.618085e-002
2.937178e+003;9.544829e-002
2.939107e+003;9.456257e-002
2.941036e+003;9.397134e-002
2.942964e+003;9.328894e-002
2.944893e+003;9.276762e-002
2.946821e+003;9.211823e-002
2.948750e+003;9.112520e-002
2.950678e+003;9.030845e-002
2.952607e+003;8.967801e-002
2.954535e+003;8.888943e-002
2.956464e+003;8.792800e-002
2.958393e+003;8.712971e-002
2.960321e+003;8.610692e-002
2.962250e+003;8.529717e-002
2.964178e+003;8.492211e-002
2.966107e+003;8.443721e-002
2.968035e+003;8.420111e-002
2.969964e+003;8.439930e-002
2.971892e+003;8.446405e-002
2.973821e+003;8.424697e-002
2.975750e+003;8.396169e-002
2.977678e+003;8.373205e-002
2.979607e+003;8.349710e-002
2.981535e+003;8.335552e-002
2.983464e+003;8.325421e-002
2.985392e+003;8.307741e-002
2.987321e+003;8.299424e-002
2.989249e+003;8.273488e-002
2.991178e+003;8.257028e-002
2.993106e+003;8.260606e-002
2.995035e+003;8.257456e-002
2.996964e+003;8.267368e-002
2.998892e+003;8.303035e-002
3.000821e+003;8.301876e-002
3.002749e+003;8.273264e-002
3.004678e+003;8.264851e-002
3.006606e+003;8.275148e-002
3.008535e+003;8.279703e-002
3.010463e+003;8.291031e-002
3.012392e+003;8.298976e-002
3.014321e+003;8.332501e-002
3.016249e+003;8.388182e-002
3.018177e+003;8.420707e-002
3.020106e+003;8.428518e-002
3.022035e+003;8.447025e-002
3.023963e+003;8.486289e-002
3.025892e+003;8.527072e-002
3.027820e+003;8.554201e-002
3.029749e+003;8.561270e-002
3.031677e+003;8.569758e-002
3.033606e+003;8.615851e-002
3.035534e+003;8.687617e-002
3.037463e+003;8.748739e-002
3.039392e+003;8.793327e-002
3.041320e+003;8.808281e-002
3.043249e+003;8.803760e-002
3.045177e+003;8.832085e-002
3.047106e+003;8.898682e-002
3.049034e+003;8.964119e-002
3.050963e+003;8.974335e-002
3.052891e+003;8.996841e-002
3.054820e+003;9.058471e-002
3.056749e+003;9.098524e-002
3.058677e+003;9.135821e-002
3.060606e+003;9.185791e-002
3.062534e+003;9.222184e-002
3.064463e+003;9.242705e-002
3.066391e+003;9.261922e-002
3.068320e+003;9.319547e-002
3.070248e+003;9.376442e-002
3.072177e+003;9.418449e-002
3.074105e+003;9.450264e-002
3.076034e+003;9.495314e-002
3.077963e+003;9.580078e-002
3.079891e+003;9.643009e-002
3.081820e+003;9.651205e-002
3.083748e+003;9.662756e-002
3.085677e+003;9.720318e-002
3.087605e+003;9.792219e-002
3.089534e+003;9.816832e-002
3.091462e+003;9.871829e-002
3.093391e+003;9.920947e-002
3.095320e+003;9.954094e-002
3.097248e+003;1.002948e-001
3.099177e+003;1.007432e-001
3.101105e+003;1.006064e-001
3.103034e+003;1.009373e-001
3.104962e+003;1.017422e-001
3.106891e+003;1.024217e-001
3.108819e+003;1.028061e-001
3.110748e+003;1.032074e-001
3.112677e+003;1.039797e-001
3.114605e+003;1.046761e-001
3.116533e+003;1.054099e-001
3.118462e+003;1.058658e-001
3.120391e+003;1.061220e-001
3.122319e+003;1.065344e-001
3.124248e+003;1.072128e-001
3.126176e+003;1.076926e-001
3.128105e+003;1.080382e-001
3.130033e+003;1.089294e-001
3.131962e+003;1.095118e-001
3.133890e+003;1.097241e-001
3.135819e+003;1.102806e-001
3.137748e+003;1.109105e-001
3.139676e+003;1.112871e-001
3.141605e+003;1.116788e-001
3.143533e+003;1.121442e-001
3.145462e+003;1.124608e-001
3.147390e+003;1.130704e-001
3.149319e+003;1.138462e-001
3.151247e+003;1.143896e-001
3.153176e+003;1.145955e-001
3.155104e+003;1.148661e-001
3.157033e+003;1.155348e-001
3.158962e+003;1.164009e-001
3.160890e+003;1.169197e-001
3.162819e+003;1.170364e-001
3.164747e+003;1.171686e-001
3.166676e+003;1.179130e-001
3.168604e+003;1.190438e-001
3.170533e+003;1.194873e-001
3.172461e+003;1.198145e-001
3.174390e+003;1.202998e-001
3.176319e+003;1.203780e-001
3.178247e+003;1.205886e-001
3.180176e+003;1.213135e-001
3.182104e+003;1.222044e-001
3.184033e+003;1.226477e-001
3.185961e+003;1.229335e-001
3.187890e+003;1.232941e-001
3.189818e+003;1.236804e-001
3.191747e+003;1.245409e-001
3.193676e+003;1.250088e-001
3.195604e+003;1.250929e-001
3.197532e+003;1.255958e-001
3.199461e+003;1.261556e-001
3.201390e+003;1.268203e-001
3.203318e+003;1.272018e-001
3.205247e+003;1.272193e-001
3.207175e+003;1.275883e-001
3.209104e+003;1.284771e-001
3.211032e+003;1.292262e-001
3.212961e+003;1.296876e-001
3.214889e+003;1.300108e-001
3.216818e+003;1.302243e-001
3.218747e+003;1.307482e-001
3.220675e+003;1.314119e-001
3.222604e+003;1.317474e-001
3.224532e+003;1.316565e-001
3.226461e+003;1.318054e-001
3.228389e+003;1.324815e-001
3.230318e+003;1.332789e-001
3.232246e+003;1.337792e-001
3.234175e+003;1.335963e-001
3.236104e+003;1.333510e-001
3.238032e+003;1.341070e-001
3.239961e+003;1.352339e-001
3.241889e+003;1.355640e-001
3.243818e+003;1.360757e-001
3.245746e+003;1.366032e-001
3.247675e+003;1.368289e-001
3.249603e+003;1.371280e-001
3.251532e+003;1.372091e-001
3.253460e+003;1.370104e-001
3.255389e+003;1.370679e-001
3.257318e+003;1.376259e-001
3.259246e+003;1.383273e-001
3.261175e+003;1.383491e-001
3.263103e+003;1.385160e-001
3.265032e+003;1.389523e-001
3.266960e+003;1.392000e-001
3.268889e+003;1.396114e-001
3.270817e+003;1.398864e-001
3.272746e+003;1.399273e-001
3.274675e+003;1.402034e-001
3.276603e+003;1.404083e-001
3.278531e+003;1.404463e-001
3.280460e+003;1.404716e-001
3.282389e+003;1.407717e-001
3.284317e+003;1.410813e-001
3.286246e+003;1.416726e-001
3.288174e+003;1.419914e-001
3.290103e+003;1.421484e-001
3.292031e+003;1.422855e-001
3.293960e+003;1.422949e-001
3.295888e+003;1.419343e-001
3.297817e+003;1.423283e-001
3.299746e+003;1.427449e-001
3.301674e+003;1.427156e-001
3.303603e+003;1.431894e-001
3.305531e+003;1.434329e-001
3.307460e+003;1.433027e-001
3.309388e+003;1.434879e-001
3.311317e+003;1.436250e-001
3.313245e+003;1.435535e-001
3.315174e+003;1.434694e-001
3.317103e+003;1.436678e-001
3.319031e+003;1.435008e-001
3.320960e+003;1.431781e-001
3.322888e+003;1.434316e-001
3.324817e+003;1.439659e-001
3.326745e+003;1.441164e-001
3.328674e+003;1.440984e-001
3.330602e+003;1.439807e-001
3.332531e+003;1.434551e-001
3.334459e+003;1.430815e-001
3.336388e+003;1.435664e-001
3.338317e+003;1.440238e-001
3.340245e+003;1.441005e-001
3.342174e+003;1.437379e-001
3.344102e+003;1.436036e-001
3.346031e+003;1.437279e-001
3.347959e+003;1.435651e-001
3.349888e+003;1.432203e-001
3.351816e+003;1.426384e-001
3.353745e+003;1.423728e-001
3.355674e+003;1.424112e-001
3.357602e+003;1.423654e-001
3.359531e+003;1.422000e-001
3.361459e+003;1.419233e-001
3.363388e+003;1.418506e-001
3.365316e+003;1.418935e-001
3.367245e+003;1.418257e-001
3.369173e+003;1.414270e-001
3.371102e+003;1.408885e-001
3.373031e+003;1.407917e-001
3.374959e+003;1.408366e-001
3.376887e+003;1.404931e-001
3.378816e+003;1.402373e-001
3.380745e+003;1.402808e-001
3.382673e+003;1.397813e-001
3.384602e+003;1.393841e-001
3.386530e+003;1.389349e-001
3.388459e+003;1.385430e-001
3.390387e+003;1.386148e-001
3.392316e+003;1.384381e-001
3.394244e+003;1.380114e-001
3.396173e+003;1.375817e-001
3.398102e+003;1.373415e-001
3.400030e+003;1.368311e-001
3.401959e+003;1.362910e-001
3.403887e+003;1.363075e-001
3.405816e+003;1.362242e-001
3.407744e+003;1.357102e-001
3.409673e+003;1.351094e-001
3.411601e+003;1.345907e-001
3.413530e+003;1.340274e-001
3.415458e+003;1.338319e-001
3.417387e+003;1.337810e-001
3.419316e+003;1.333053e-001
3.421244e+003;1.322672e-001
3.423173e+003;1.317746e-001
3.425101e+003;1.314430e-001
3.427030e+003;1.310413e-001
3.428958e+003;1.306455e-001
3.430887e+003;1.302715e-001
3.432815e+003;1.298550e-001
3.434744e+003;1.295160e-001
3.436673e+003;1.288728e-001
3.438601e+003;1.283339e-001
3.440530e+003;1.278955e-001
3.442458e+003;1.270261e-001
3.444387e+003;1.261969e-001
3.446315e+003;1.256039e-001
3.448244e+003;1.250280e-001
3.450172e+003;1.240507e-001
3.452101e+003;1.231031e-001
3.454030e+003;1.224386e-001
3.455958e+003;1.214620e-001
3.457886e+003;1.205956e-001
3.459815e+003;1.198014e-001
3.461744e+003;1.191136e-001
3.463672e+003;1.183239e-001
3.465601e+003;1.175556e-001
3.467529e+003;1.169868e-001
3.469458e+003;1.159661e-001
3.471386e+003;1.152815e-001
3.473315e+003;1.145398e-001
3.475243e+003;1.135406e-001
3.477172e+003;1.126013e-001
3.479101e+003;1.118234e-001
3.481029e+003;1.112974e-001
3.482958e+003;1.108967e-001
3.484886e+003;1.098983e-001
3.486815e+003;1.088919e-001
3.488743e+003;1.084326e-001
3.490672e+003;1.078085e-001
3.492600e+003;1.068051e-001
3.494529e+003;1.056974e-001
3.496458e+003;1.044341e-001
3.498386e+003;1.032235e-001
3.500315e+003;1.019030e-001
3.502243e+003;1.007255e-001
3.504172e+003;9.992134e-002
3.506100e+003;9.917245e-002
3.508029e+003;9.821302e-002
3.509957e+003;9.714728e-002
3.511886e+003;9.656452e-002
3.513814e+003;9.576356e-002
3.515743e+003;9.456710e-002
3.517672e+003;9.344731e-002
3.519600e+003;9.260806e-002
3.521529e+003;9.147252e-002
3.523457e+003;9.033199e-002
3.525386e+003;8.962970e-002
3.527314e+003;8.908399e-002
3.529243e+003;8.807473e-002
3.531171e+003;8.714336e-002
3.533100e+003;8.636248e-002
3.535029e+003;8.526140e-002
3.536957e+003;8.457720e-002
3.538885e+003;8.418832e-002
3.540814e+003;8.319927e-002
3.542743e+003;8.232041e-002
3.544671e+003;8.168066e-002
3.546600e+003;8.108857e-002
3.548528e+003;8.032487e-002
3.550457e+003;7.945941e-002
3.552385e+003;7.898419e-002
3.554314e+003;7.852258e-002
3.556242e+003;7.759192e-002
3.558171e+003;7.674608e-002
3.560100e+003;7.591187e-002
3.562028e+003;7.509860e-002
3.563957e+003;7.379694e-002
3.565885e+003;7.232454e-002
3.567814e+003;7.204741e-002
3.569742e+003;7.232747e-002
3.571671e+003;7.190514e-002
3.573599e+003;7.082614e-002
3.575528e+003;6.986041e-002
3.577457e+003;6.899883e-002
3.579385e+003;6.868927e-002
3.581314e+003;6.821071e-002
3.583242e+003;6.722794e-002
3.585171e+003;6.657947e-002
3.587099e+003;6.634073e-002
3.589028e+003;6.591816e-002
3.590956e+003;6.526443e-002
3.592885e+003;6.454818e-002
3.594813e+003;6.398861e-002
3.596742e+003;6.383049e-002
3.598671e+003;6.359939e-002
3.600599e+003;6.298493e-002
3.602528e+003;6.239057e-002
3.604456e+003;6.202456e-002
3.606385e+003;6.131760e-002
3.608313e+003;6.072464e-002
3.610242e+003;6.064584e-002
3.612170e+003;6.010189e-002
3.614099e+003;5.937943e-002
3.616028e+003;5.876130e-002
3.617956e+003;5.833103e-002
3.619885e+003;5.853159e-002
3.621813e+003;5.858915e-002
3.623742e+003;5.858228e-002
3.625670e+003;5.797888e-002
3.627599e+003;5.619782e-002
3.629527e+003;5.549413e-002
3.631456e+003;5.635183e-002
3.633385e+003;5.656804e-002
3.635313e+003;5.635409e-002
3.637241e+003;5.572307e-002
3.639170e+003;5.503358e-002
3.641099e+003;5.472799e-002
3.643027e+003;5.463219e-002
3.644956e+003;5.425119e-002
3.646884e+003;5.310166e-002
3.648813e+003;5.193828e-002
3.650741e+003;5.195680e-002
3.652670e+003;5.263136e-002
3.654598e+003;5.252171e-002
3.656527e+003;5.232189e-002
3.658456e+003;5.263488e-002
3.660384e+003;5.233733e-002
3.662313e+003;5.173794e-002
3.664241e+003;5.136145e-002
3.666170e+003;5.086241e-002
3.668098e+003;4.953488e-002
3.670027e+003;4.854678e-002
3.671955e+003;4.884442e-002
3.673884e+003;4.799356e-002
3.675813e+003;4.735491e-002
3.677741e+003;4.817415e-002
3.679669e+003;4.849517e-002
3.681598e+003;4.809486e-002
3.683527e+003;4.760947e-002
3.685455e+003;4.736969e-002
3.687384e+003;4.633013e-002
3.689312e+003;4.580995e-002
3.691241e+003;4.626061e-002
3.693169e+003;4.654381e-002
3.695098e+003;4.653540e-002
3.697026e+003;4.587502e-002
3.698955e+003;4.530802e-002
3.700884e+003;4.486600e-002
3.702812e+003;4.471201e-002
3.704741e+003;4.497248e-002
3.706669e+003;4.501941e-002
3.708598e+003;4.446946e-002
3.710526e+003;4.371444e-002
3.712455e+003;4.328538e-002
3.714383e+003;4.391396e-002
3.716312e+003;4.428336e-002
3.718240e+003;4.385902e-002
3.720169e+003;4.365468e-002
3.722098e+003;4.370125e-002
3.724026e+003;4.355196e-002
3.725955e+003;4.329288e-002
3.727883e+003;4.339221e-002
3.729812e+003;4.309704e-002
3.731740e+003;4.220737e-002
3.733669e+003;4.186389e-002
3.735597e+003;4.157322e-002
3.737526e+003;4.209170e-002
3.739455e+003;4.294781e-002
3.741383e+003;4.276207e-002
3.743312e+003;4.055522e-002
3.745240e+003;4.061237e-002
3.747169e+003;4.162562e-002
3.749097e+003;4.078631e-002
3.751026e+003;4.031403e-002
3.752954e+003;4.096378e-002
3.754883e+003;4.177546e-002
3.756812e+003;4.205509e-002
3.758740e+003;4.272533e-002
3.760668e+003;4.322304e-002
3.762597e+003;4.261599e-002
3.764526e+003;4.209941e-002
3.766454e+003;4.245381e-002
3.768383e+003;4.210977e-002
3.770311e+003;4.201603e-002
3.772240e+003;4.225265e-002
3.774168e+003;4.259472e-002
3.776097e+003;4.291712e-002
3.778025e+003;4.303301e-002
3.779954e+003;4.300217e-002
3.781883e+003;4.285802e-002
3.783811e+003;4.268562e-002
3.785740e+003;4.284818e-002
3.787668e+003;4.274584e-002
3.789597e+003;4.239349e-002
3.791525e+003;4.260123e-002
3.793454e+003;4.274277e-002
3.795382e+003;4.224429e-002
3.797311e+003;4.231810e-002
3.799240e+003;4.188553e-002
3.801168e+003;4.107336e-002
3.803097e+003;4.174919e-002
3.805025e+003;4.220766e-002
3.806954e+003;4.156549e-002
3.808882e+003;4.190910e-002
3.810811e+003;4.256611e-002
3.812739e+003;4.248633e-002
3.814668e+003;4.142153e-002
3.816596e+003;4.143265e-002
3.818525e+003;4.164904e-002
3.820454e+003;4.100409e-002
3.822382e+003;4.156816e-002
3.824311e+003;4.246481e-002
3.826239e+003;4.249262e-002
3.828168e+003;4.260572e-002
3.830096e+003;4.254092e-002
3.832025e+003;4.217553e-002
3.833953e+003;4.237676e-002
3.835882e+003;4.160334e-002
3.837811e+003;4.071083e-002
3.839739e+003;4.177695e-002
3.841667e+003;4.261219e-002
3.843596e+003;4.219861e-002
3.845525e+003;4.223633e-002
3.847453e+003;4.283107e-002
3.849382e+003;4.251282e-002
3.851310e+003;4.073310e-002
3.853239e+003;3.959120e-002
3.855167e+003;4.090185e-002
3.857096e+003;4.258606e-002
3.859024e+003;4.353946e-002
3.860953e+003;4.349365e-002
3.862882e+003;4.306543e-002
3.864810e+003;4.280822e-002
3.866739e+003;4.261500e-002
3.868667e+003;4.210353e-002
3.870596e+003;4.250709e-002
3.872524e+003;4.284200e-002
3.874453e+003;4.265302e-002
3.876381e+003;4.303345e-002
3.878310e+003;4.335402e-002
3.880239e+003;4.379337e-002
3.882167e+003;4.430339e-002
3.884096e+003;4.343963e-002
3.886024e+003;4.300063e-002
3.887953e+003;4.382177e-002
3.889881e+003;4.355507e-002
3.891810e+003;4.341572e-002
3.893738e+003;4.406389e-002
3.895667e+003;4.454508e-002
3.897595e+003;4.461774e-002
3.899524e+003;4.420287e-002
3.901453e+003;4.370051e-002
3.903381e+003;4.371576e-002
3.905310e+003;4.450727e-002
3.907238e+003;4.509465e-002
3.909167e+003;4.510792e-002
3.911095e+003;4.526955e-002
3.913024e+003;4.502195e-002
3.914952e+003;4.463349e-002
3.916881e+003;4.486118e-002
3.918810e+003;4.511524e-002
3.920738e+003;4.533903e-002
3.922667e+003;4.570989e-002
3.924595e+003;4.590179e-002
3.926524e+003;4.574718e-002
3.928452e+003;4.583363e-002
3.930381e+003;4.593763e-002
3.932309e+003;4.617514e-002
3.934238e+003;4.651869e-002
3.936167e+003;4.608642e-002
3.938095e+003;4.575079e-002
3.940023e+003;4.538883e-002
3.941952e+003;4.529173e-002
3.943881e+003;4.587038e-002
3.945809e+003;4.612717e-002
3.947738e+003;4.588817e-002
3.949666e+003;4.627557e-002
3.951595e+003;4.710623e-002
3.953523e+003;4.720030e-002
3.955452e+003;4.703488e-002
3.957380e+003;4.758237e-002
3.959309e+003;4.749294e-002
3.961238e+003;4.699131e-002
3.963166e+003;4.700674e-002
3.965095e+003;4.725094e-002
3.967023e+003;4.719830e-002
3.968952e+003;4.696525e-002
3.970880e+003;4.659390e-002
3.972809e+003;4.644110e-002
3.974737e+003;4.617514e-002
3.976666e+003;4.615093e-002
3.978594e+003;4.641773e-002
3.980523e+003;4.679376e-002
3.982452e+003;4.706125e-002
3.984380e+003;4.688964e-002
3.986309e+003;4.676918e-002
3.988237e+003;4.689817e-002
3.990166e+003;4.723879e-002
3.992094e+003;4.727680e-002
3.994023e+003;4.703902e-002
3.995951e+003;4.689876e-002
3.997880e+003;4.687931e-002
3.999809e+003;4.678044e-002
4.001737e+003;0.000000e+000
