3.992094e+002;0.000000e+000
4.011380e+002;0.000000e+000
4.030665e+002;0.000000e+000
4.049951e+002;0.000000e+000
4.069236e+002;0.000000e+000
4.088522e+002;0.000000e+000
4.107807e+002;0.000000e+000
4.127093e+002;0.000000e+000
4.146378e+002;0.000000e+000
4.165664e+002;0.000000e+000
4.184949e+002;0.000000e+000
4.204235e+002;0.000000e+000
4.223520e+002;0.000000e+000
4.242806e+002;0.000000e+000
4.262091e+002;0.000000e+000
4.281377e+002;0.000000e+000
4.300662e+002;0.000000e+000
4.319948e+002;0.000000e+000
4.339233e+002;0.000000e+000
4.358519e+002;0.000000e+000
4.377804e+002;0.000000e+000
4.397090e+002;0.000000e+000
4.416375e+002;0.000000e+000
4.435660e+002;0.000000e+000
4.454946e+002;0.000000e+000
4.474232e+002;0.000000e+000
4.493517e+002;0.000000e+000
4.512802e+002;0.000000e+000
4.532088e+002;0.000000e+000
4.551373e+002;0.000000e+000
4.570659e+002;0.000000e+000
4.589944e+002;0.000000e+000
4.609230e+002;0.000000e+000
4.628515e+002;0.000000e+000
4.647801e+002;0.000000e+000
4.667086e+002;0.000000e+000
4.686372e+002;0.000000e+000
4.705657e+002;0.000000e+000
4.724943e+002;0.000000e+000
4.744228e+002;0.000000e+000
4.763513e+002;0.000000e+000
4.782799e+002;0.000000e+000
4.802085e+002;0.000000e+000
4.821370e+002;0.000000e+000
4.840656e+002;0.000000e+000
4.859941e+002;0.000000e+000
4.879226e+002;0.000000e+000
4.898512e+002;0.000000e+000
4.917798e+002;0.000000e+000
4.937083e+002;0.000000e+000
4.956368e+002;0.000000e+000
4.975654e+002;0.000000e+000
4.994939e+002;0.000000e+000
5.014225e+002;0.000000e+000
5.033510e+002;0.000000e+000
5.052796e+002;0.000000e+000
5.072081e+002;0.000000e+000
5.091367e+002;0.000000e+000
5.110652e+002;0.000000e+000
5.129938e+002;0.000000e+000
5.149223e+002;0.000000e+000
5.168509e+002;0.000000e+000
5.187794e+002;0.000000e+000
5.207079e+002;0.000000e+000
5.226365e+002;0.000000e+000
5.245651e+002;0.000000e+000
5.264936e+002;0.000000e+000
5.284222e+002;0.000000e+000
5.303507e+002;0.000000e+000
5.322792e+002;0.000000e+000
5.342078e+002;0.000000e+000
5.361364e+002;0.000000e+000
5.380649e+002;0.000000e+000
5.399935e+002;0.000000e+000
5.419220e+002;0.000000e+000
5.438505e+002;0.000000e+000
5.457791e+002;0.000000e+000
5.477076e+002;0.000000e+000
5.496362e+002;0.000000e+000
5.515648e+002;0.000000e+000
5.534933e+002;0.000000e+000
5.554218e+002;0.000000e+000
5.573504e+002;0.000000e+000
5.592789e+002;0.000000e+000
5.612075e+002;0.000000e+000
5.631360e+002;0.000000e+000
5.650646e+002;0.000000e+000
5.669931e+002;0.000000e+000
5.689217e+002;0.000000e+000
5.708502e+002;0.000000e+000
5.727787e+002;0.000000e+000
5.747073e+002;0.000000e+000
5.766359e+002;0.000000e+000
5.785644e+002;0.000000e+000
5.804930e+002;0.000000e+000
5.824215e+002;0.000000e+000
5.843500e+002;0.000000e+000
5.862786e+002;0.000000e+000
5.882072e+002;0.000000e+000
5.901357e+002;0.000000e+000
5.920643e+002;0.000000e+000
5.939928e+002;0.000000e+000
5.959213e+002;0.000000e+000
5.978499e+002;0.000000e+000
5.997784e+002;2.474172e-001
6.017070e+002;2.480329e-001
6.036355e+002;2.493898e-001
6.055641e+002;2.502307e-001
6.074926e+002;2.522806e-001
6.094211e+002;2.538888e-001
6.113497e+002;2.490135e-001
6.132783e+002;2.463442e-001
6.152068e+002;2.448620e-001
6.171354e+002;2.390879e-001
6.190639e+002;2.368070e-001
6.209924e+002;2.364589e-001
6.229210e+002;2.336123e-001
6.248495e+002;2.371774e-001
6.267781e+002;2.360610e-001
6.287067e+002;2.307748e-001
6.306352e+002;2.272507e-001
6.325637e+002;2.252072e-001
6.344923e+002;2.231068e-001
6.364208e+002;2.189746e-001
6.383494e+002;2.176522e-001
6.402780e+002;2.186756e-001
6.422065e+002;2.158774e-001
6.441350e+002;2.126168e-001
6.460636e+002;2.147321e-001
6.479921e+002;2.164224e-001
6.499207e+002;2.209137e-001
6.518492e+002;2.256088e-001
6.537778e+002;2.249343e-001
6.557063e+002;2.235818e-001
6.576349e+002;2.246555e-001
6.595634e+002;2.290311e-001
6.614919e+002;2.302386e-001
6.634205e+002;2.279644e-001
6.653491e+002;2.270706e-001
6.672776e+002;2.276936e-001
6.692062e+002;2.272944e-001
6.711347e+002;2.219726e-001
6.730632e+002;2.126535e-001
6.749918e+002;2.050297e-001
6.769203e+002;1.989349e-001
6.788489e+002;1.923047e-001
6.807775e+002;1.847730e-001
6.827060e+002;1.804281e-001
6.846345e+002;1.779357e-001
6.865631e+002;1.759566e-001
6.884916e+002;1.734994e-001
6.904202e+002;1.717398e-001
6.923488e+002;1.717553e-001
6.942773e+002;1.720698e-001
6.962058e+002;1.711470e-001
6.981344e+002;1.698423e-001
7.000629e+002;1.699690e-001
7.019915e+002;1.702101e-001
7.039200e+002;1.693731e-001
7.058486e+002;1.676481e-001
7.077771e+002;1.661480e-001
7.097057e+002;1.660795e-001
7.116342e+002;1.662539e-001
7.135627e+002;1.648135e-001
7.154913e+002;1.626840e-001
7.174199e+002;1.625284e-001
7.193484e+002;1.630328e-001
7.212770e+002;1.612727e-001
7.232055e+002;1.589272e-001
7.251340e+002;1.574847e-001
7.270626e+002;1.560916e-001
7.289911e+002;1.546343e-001
7.309197e+002;1.533750e-001
7.328483e+002;1.524900e-001
7.347768e+002;1.516908e-001
7.367053e+002;1.506412e-001
7.386339e+002;1.482003e-001
7.405624e+002;1.457747e-001
7.424910e+002;1.449411e-001
7.444196e+002;1.455612e-001
7.463481e+002;1.449409e-001
7.482766e+002;1.429448e-001
7.502052e+002;1.414857e-001
7.521337e+002;1.402029e-001
7.540623e+002;1.387372e-001
7.559908e+002;1.380434e-001
7.579194e+002;1.366396e-001
7.598479e+002;1.359798e-001
7.617765e+002;1.357755e-001
7.637050e+002;1.348265e-001
7.656335e+002;1.331027e-001
7.675621e+002;1.319306e-001
7.694907e+002;1.317074e-001
7.714192e+002;1.314518e-001
7.733478e+002;1.308043e-001
7.752763e+002;1.299370e-001
7.772048e+002;1.290958e-001
7.791334e+002;1.279565e-001
7.810620e+002;1.273262e-001
7.829905e+002;1.266499e-001
7.849191e+002;1.255233e-001
7.868476e+002;1.245739e-001
7.887761e+002;1.239012e-001
7.907047e+002;1.231474e-001
7.926332e+002;1.223810e-001
7.945618e+002;1.212598e-001
7.964903e+002;1.202855e-001
7.984189e+002;1.196336e-001
8.003474e+002;1.192480e-001
8.022759e+002;1.189570e-001
8.042045e+002;1.188588e-001
8.061331e+002;1.185375e-001
8.080616e+002;1.180288e-001
8.099902e+002;1.177403e-001
8.119187e+002;1.172665e-001
8.138472e+002;1.164212e-001
8.157758e+002;1.160916e-001
8.177043e+002;1.163233e-001
8.196329e+002;1.164217e-001
8.215615e+002;1.164947e-001
8.234900e+002;1.165824e-001
8.254185e+002;1.168823e-001
8.273471e+002;1.169385e-001
8.292756e+002;1.161597e-001
8.312042e+002;1.154167e-001
8.331328e+002;1.150171e-001
8.350613e+002;1.146600e-001
8.369898e+002;1.141856e-001
8.389184e+002;1.137863e-001
8.408469e+002;1.132726e-001
8.427755e+002;1.127937e-001
8.447040e+002;1.126559e-001
8.466326e+002;1.124584e-001
8.485611e+002;1.121814e-001
8.504897e+002;1.117937e-001
8.524182e+002;1.114469e-001
8.543467e+002;1.113384e-001
8.562753e+002;1.116232e-001
8.582039e+002;1.123559e-001
8.601324e+002;1.128014e-001
8.620610e+002;1.128693e-001
8.639895e+002;1.130725e-001
8.659180e+002;1.141540e-001
8.678466e+002;1.160930e-001
8.697751e+002;1.178298e-001
8.717037e+002;1.194739e-001
8.736323e+002;1.222926e-001
8.755608e+002;1.260015e-001
8.774893e+002;1.299685e-001
8.794179e+002;1.344935e-001
8.813464e+002;1.392217e-001
8.832750e+002;1.445559e-001
8.852036e+002;1.505697e-001
8.871321e+002;1.568935e-001
8.890606e+002;1.630089e-001
8.909892e+002;1.682994e-001
8.929177e+002;1.714083e-001
8.948463e+002;1.722216e-001
8.967748e+002;1.711494e-001
8.987034e+002;1.681808e-001
9.006319e+002;1.645667e-001
9.025605e+002;1.608206e-001
9.044890e+002;1.566562e-001
9.064175e+002;1.521267e-001
9.083461e+002;1.482963e-001
9.102747e+002;1.453381e-001
9.122032e+002;1.433755e-001
9.141318e+002;1.420072e-001
9.160603e+002;1.412294e-001
9.179888e+002;1.408896e-001
9.199174e+002;1.411381e-001
9.218459e+002;1.419855e-001
9.237745e+002;1.429360e-001
9.257031e+002;1.438907e-001
9.276316e+002;1.450987e-001
9.295601e+002;1.466292e-001
9.314887e+002;1.477712e-001
9.334172e+002;1.495025e-001
9.353458e+002;1.512342e-001
9.372744e+002;1.529364e-001
9.392029e+002;1.550395e-001
9.411314e+002;1.576839e-001
9.430600e+002;1.607539e-001
9.449885e+002;1.640074e-001
9.469171e+002;1.676739e-001
9.488456e+002;1.718562e-001
9.507742e+002;1.767479e-001
9.527027e+002;1.816731e-001
9.546313e+002;1.864375e-001
9.565598e+002;1.917066e-001
9.584883e+002;1.973655e-001
9.604169e+002;2.027927e-001
9.623455e+002;2.085819e-001
9.642740e+002;2.143295e-001
9.662026e+002;2.197607e-001
9.681311e+002;2.255762e-001
9.700596e+002;2.323423e-001
9.719882e+002;2.396059e-001
9.739167e+002;2.475403e-001
9.758453e+002;2.573042e-001
9.777739e+002;2.690887e-001
9.797024e+002;2.822144e-001
9.816309e+002;2.968011e-001
9.835595e+002;3.128109e-001
9.854880e+002;3.291134e-001
9.874166e+002;3.447940e-001
9.893452e+002;3.588240e-001
9.912737e+002;3.701194e-001
9.932022e+002;3.786352e-001
9.951307e+002;3.851092e-001
9.970593e+002;3.884617e-001
9.989879e+002;3.895052e-001
1.000916e+003;3.898601e-001
1.002845e+003;3.913342e-001
1.004773e+003;3.948024e-001
1.006702e+003;4.002478e-001
1.008631e+003;4.078102e-001
1.010559e+003;4.162821e-001
1.012488e+003;4.250953e-001
1.014416e+003;4.342742e-001
1.016345e+003;4.411178e-001
1.018273e+003;4.454921e-001
1.020202e+003;4.475653e-001
1.022130e+003;4.472069e-001
1.024059e+003;4.454325e-001
1.025988e+003;4.427159e-001
1.027916e+003;4.384557e-001
1.029845e+003;4.329095e-001
1.031773e+003;4.258865e-001
1.033702e+003;4.183738e-001
1.035630e+003;4.115957e-001
1.037559e+003;4.068162e-001
1.039487e+003;4.029578e-001
1.041416e+003;3.996755e-001
1.043344e+003;3.970840e-001
1.045273e+003;3.947039e-001
1.047202e+003;3.922002e-001
1.049130e+003;3.893958e-001
1.051059e+003;3.859494e-001
1.052987e+003;3.832909e-001
1.054916e+003;3.806230e-001
1.056844e+003;3.768049e-001
1.058773e+003;3.723872e-001
1.060701e+003;3.674772e-001
1.062630e+003;3.608240e-001
1.064558e+003;3.535491e-001
1.066487e+003;3.466536e-001
1.068416e+003;3.393297e-001
1.070344e+003;3.322370e-001
1.072273e+003;3.257864e-001
1.074201e+003;3.199408e-001
1.076130e+003;3.137254e-001
1.078058e+003;3.073159e-001
1.079987e+003;3.016681e-001
1.081915e+003;2.966862e-001
1.083844e+003;2.918546e-001
1.085773e+003;2.857145e-001
1.087701e+003;2.792978e-001
1.089630e+003;2.737720e-001
1.091558e+003;2.685218e-001
1.093487e+003;2.630630e-001
1.095415e+003;2.575081e-001
1.097344e+003;2.514127e-001
1.099272e+003;2.452991e-001
1.101201e+003;2.393553e-001
1.103129e+003;2.339789e-001
1.105058e+003;2.291803e-001
1.106987e+003;2.259879e-001
1.108915e+003;2.234065e-001
1.110844e+003;2.206032e-001
1.112772e+003;2.179043e-001
1.114701e+003;2.141358e-001
1.116629e+003;2.099334e-001
1.118558e+003;2.053861e-001
1.120486e+003;1.991607e-001
1.122415e+003;1.926635e-001
1.124344e+003;1.864199e-001
1.126272e+003;1.803828e-001
1.128201e+003;1.749237e-001
1.130129e+003;1.698008e-001
1.132058e+003;1.649917e-001
1.133986e+003;1.605487e-001
1.135915e+003;1.564279e-001
1.137843e+003;1.532607e-001
1.139772e+003;1.511581e-001
1.141700e+003;1.500008e-001
1.143629e+003;1.499971e-001
1.145557e+003;1.511122e-001
1.147486e+003;1.529444e-001
1.149415e+003;1.555439e-001
1.151343e+003;1.582971e-001
1.153272e+003;1.607234e-001
1.155200e+003;1.624850e-001
1.157129e+003;1.629268e-001
1.159057e+003;1.617387e-001
1.160986e+003;1.585462e-001
1.162914e+003;1.529356e-001
1.164843e+003;1.459469e-001
1.166771e+003;1.387556e-001
1.168700e+003;1.314243e-001
1.170629e+003;1.243962e-001
1.172557e+003;1.181846e-001
1.174486e+003;1.128560e-001
1.176414e+003;1.087344e-001
1.178343e+003;1.053808e-001
1.180271e+003;1.023292e-001
1.182200e+003;9.993418e-002
1.184128e+003;9.904940e-002
1.186057e+003;9.940124e-002
1.187986e+003;1.003299e-001
1.189914e+003;1.023773e-001
1.191843e+003;1.050736e-001
1.193771e+003;1.079153e-001
1.195700e+003;1.104940e-001
1.197628e+003;1.121613e-001
1.199557e+003;1.125859e-001
1.201485e+003;1.118837e-001
1.203414e+003;1.102317e-001
1.205343e+003;1.078576e-001
1.207271e+003;1.058278e-001
1.209200e+003;1.043116e-001
1.211128e+003;1.034065e-001
1.213057e+003;1.033316e-001
1.214985e+003;1.039901e-001
1.216914e+003;1.054231e-001
1.218842e+003;1.072613e-001
1.220771e+003;1.094718e-001
1.222699e+003;1.119758e-001
1.224628e+003;1.142322e-001
1.226557e+003;1.157588e-001
1.228485e+003;1.161841e-001
1.230414e+003;1.161842e-001
1.232342e+003;1.162361e-001
1.234271e+003;1.164359e-001
1.236199e+003;1.165684e-001
1.238128e+003;1.164372e-001
1.240056e+003;1.163062e-001
1.241985e+003;1.159285e-001
1.243913e+003;1.156725e-001
1.245842e+003;1.158432e-001
1.247771e+003;1.159810e-001
1.249699e+003;1.166189e-001
1.251628e+003;1.181753e-001
1.253556e+003;1.198468e-001
1.255485e+003;1.208969e-001
1.257413e+003;1.217055e-001
1.259342e+003;1.223280e-001
1.261270e+003;1.220680e-001
1.263199e+003;1.213989e-001
1.265127e+003;1.209784e-001
1.267056e+003;1.201604e-001
1.268985e+003;1.189885e-001
1.270913e+003;1.180210e-001
1.272842e+003;1.175987e-001
1.274770e+003;1.173181e-001
1.276699e+003;1.168639e-001
1.278627e+003;1.163077e-001
1.280556e+003;1.155181e-001
1.282484e+003;1.146868e-001
1.284413e+003;1.144477e-001
1.286342e+003;1.149273e-001
1.288270e+003;1.156424e-001
1.290199e+003;1.167893e-001
1.292127e+003;1.187293e-001
1.294056e+003;1.204842e-001
1.295984e+003;1.218864e-001
1.297913e+003;1.232421e-001
1.299841e+003;1.247211e-001
1.301770e+003;1.264010e-001
1.303698e+003;1.282249e-001
1.305627e+003;1.300505e-001
1.307556e+003;1.322165e-001
1.309484e+003;1.343295e-001
1.311413e+003;1.357242e-001
1.313341e+003;1.362660e-001
1.315270e+003;1.362440e-001
1.317198e+003;1.353681e-001
1.319127e+003;1.337380e-001
1.321055e+003;1.322770e-001
1.322984e+003;1.313567e-001
1.324912e+003;1.308762e-001
1.326841e+003;1.308641e-001
1.328770e+003;1.311008e-001
1.330698e+003;1.312695e-001
1.332627e+003;1.313130e-001
1.334555e+003;1.315167e-001
1.336484e+003;1.317079e-001
1.338412e+003;1.312390e-001
1.340341e+003;1.303058e-001
1.342269e+003;1.295305e-001
1.344198e+003;1.292358e-001
1.346126e+003;1.290440e-001
1.348055e+003;1.289732e-001
1.349984e+003;1.290511e-001
1.351912e+003;1.294085e-001
1.353841e+003;1.302259e-001
1.355769e+003;1.311942e-001
1.357698e+003;1.320690e-001
1.359626e+003;1.328720e-001
1.361555e+003;1.337830e-001
1.363483e+003;1.343001e-001
1.365412e+003;1.342928e-001
1.367341e+003;1.340546e-001
1.369269e+003;1.333048e-001
1.371198e+003;1.321465e-001
1.373126e+003;1.308261e-001
1.375055e+003;1.293399e-001
1.376983e+003;1.274945e-001
1.378912e+003;1.253596e-001
1.380840e+003;1.227159e-001
1.382769e+003;1.200778e-001
1.384698e+003;1.179865e-001
1.386626e+003;1.163752e-001
1.388555e+003;1.150215e-001
1.390483e+003;1.139519e-001
1.392412e+003;1.133064e-001
1.394340e+003;1.130590e-001
1.396269e+003;1.129664e-001
1.398197e+003;1.128671e-001
1.400126e+003;1.125521e-001
1.402054e+003;1.121291e-001
1.403983e+003;1.119783e-001
1.405911e+003;1.120283e-001
1.407840e+003;1.118861e-001
1.409769e+003;1.116161e-001
1.411697e+003;1.116800e-001
1.413626e+003;1.122638e-001
1.415554e+003;1.124195e-001
1.417483e+003;1.119855e-001
1.419411e+003;1.116631e-001
1.421340e+003;1.114097e-001
1.423268e+003;1.111979e-001
1.425197e+003;1.108747e-001
1.427125e+003;1.103391e-001
1.429054e+003;1.097831e-001
1.430983e+003;1.093750e-001
1.432911e+003;1.087554e-001
1.434840e+003;1.079406e-001
1.436768e+003;1.071232e-001
1.438697e+003;1.063615e-001
1.440625e+003;1.057756e-001
1.442554e+003;1.049171e-001
1.444482e+003;1.037344e-001
1.446411e+003;1.025642e-001
1.448340e+003;1.014253e-001
1.450268e+003;1.004975e-001
1.452197e+003;9.948094e-002
1.454125e+003;9.845419e-002
1.456054e+003;9.745591e-002
1.457982e+003;9.639450e-002
1.459911e+003;9.544721e-002
1.461839e+003;9.431531e-002
1.463768e+003;9.312771e-002
1.465697e+003;9.188203e-002
1.467625e+003;9.047826e-002
1.469554e+003;8.895966e-002
1.471482e+003;8.719678e-002
1.473411e+003;8.532451e-002
1.475339e+003;8.355240e-002
1.477268e+003;8.152497e-002
1.479196e+003;7.964115e-002
1.481125e+003;7.780328e-002
1.483053e+003;7.598839e-002
1.484982e+003;7.444295e-002
1.486911e+003;7.277090e-002
1.488839e+003;7.100344e-002
1.490768e+003;6.953732e-002
1.492696e+003;6.835026e-002
1.494625e+003;6.715681e-002
1.496553e+003;6.587879e-002
1.498482e+003;6.503357e-002
1.500410e+003;6.418186e-002
1.502339e+003;6.323528e-002
1.504267e+003;6.245744e-002
1.506196e+003;6.162129e-002
1.508125e+003;6.097491e-002
1.510053e+003;6.044164e-002
1.511982e+003;5.994165e-002
1.513910e+003;5.957044e-002
1.515839e+003;5.902188e-002
1.517767e+003;5.854421e-002
1.519696e+003;5.824172e-002
1.521624e+003;5.783725e-002
1.523553e+003;5.759074e-002
1.525481e+003;5.735529e-002
1.527410e+003;5.701727e-002
1.529339e+003;5.694938e-002
1.531267e+003;5.693544e-002
1.533196e+003;5.672980e-002
1.535124e+003;5.649694e-002
1.537053e+003;5.622222e-002
1.538981e+003;5.592013e-002
1.540910e+003;5.580241e-002
1.542838e+003;5.582185e-002
1.544767e+003;5.602295e-002
1.546695e+003;5.639906e-002
1.548624e+003;5.641257e-002
1.550553e+003;5.619632e-002
1.552481e+003;5.635752e-002
1.554410e+003;5.661953e-002
1.556338e+003;5.651181e-002
1.558267e+003;5.639182e-002
1.560195e+003;5.641204e-002
1.562124e+003;5.650513e-002
1.564052e+003;5.683618e-002
1.565981e+003;5.725405e-002
1.567910e+003;5.748489e-002
1.569838e+003;5.750959e-002
1.571767e+003;5.782608e-002
1.573695e+003;5.811159e-002
1.575624e+003;5.826582e-002
1.577552e+003;5.877966e-002
1.579481e+003;5.932401e-002
1.581409e+003;5.955372e-002
1.583338e+003;6.014322e-002
1.585266e+003;6.070722e-002
1.587195e+003;6.099375e-002
1.589124e+003;6.138423e-002
1.591052e+003;6.180741e-002
1.592981e+003;6.233893e-002
1.594909e+003;6.297860e-002
1.596838e+003;6.360787e-002
1.598766e+003;6.409620e-002
1.600695e+003;6.456037e-002
1.602623e+003;6.516529e-002
1.604552e+003;6.591361e-002
1.606480e+003;6.666418e-002
1.608409e+003;6.725874e-002
1.610338e+003;6.776863e-002
1.612266e+003;6.830835e-002
1.614195e+003;6.891575e-002
1.616123e+003;6.953063e-002
1.618052e+003;6.990146e-002
1.619980e+003;7.039989e-002
1.621909e+003;7.096369e-002
1.623837e+003;7.149228e-002
1.625766e+003;7.199828e-002
1.627694e+003;7.239503e-002
1.629623e+003;7.285130e-002
1.631552e+003;7.322250e-002
1.633480e+003;7.346758e-002
1.635409e+003;7.384595e-002
1.637337e+003;7.394654e-002
1.639266e+003;7.403199e-002
1.641194e+003;7.427187e-002
1.643123e+003;7.420975e-002
1.645051e+003;7.393456e-002
1.646980e+003;7.379226e-002
1.648909e+003;7.348005e-002
1.650837e+003;7.295833e-002
1.652766e+003;7.245195e-002
1.654694e+003;7.228403e-002
1.656623e+003;7.223883e-002
1.658551e+003;7.173435e-002
1.660480e+003;7.088656e-002
1.662408e+003;7.028297e-002
1.664337e+003;6.983511e-002
1.666266e+003;6.909454e-002
1.668194e+003;6.814589e-002
1.670123e+003;6.732733e-002
1.672051e+003;6.662489e-002
1.673980e+003;6.575841e-002
1.675908e+003;6.472075e-002
1.677837e+003;6.370819e-002
1.679765e+003;6.263439e-002
1.681694e+003;6.141900e-002
1.683622e+003;6.026608e-002
1.685551e+003;5.934137e-002
1.687479e+003;5.892665e-002
1.689408e+003;5.834244e-002
1.691337e+003;5.773680e-002
1.693265e+003;5.733242e-002
1.695194e+003;5.685031e-002
1.697122e+003;5.658329e-002
1.699051e+003;5.636910e-002
1.700979e+003;5.603008e-002
1.702908e+003;5.583369e-002
1.704836e+003;5.548017e-002
1.706765e+003;5.521294e-002
1.708693e+003;5.510414e-002
1.710622e+003;5.499303e-002
1.712551e+003;5.478192e-002
1.714479e+003;5.437454e-002
1.716408e+003;5.394653e-002
1.718336e+003;5.346883e-002
1.720265e+003;5.306343e-002
1.722193e+003;5.246831e-002
1.724122e+003;5.161422e-002
1.726050e+003;5.098215e-002
1.727979e+003;5.034028e-002
1.729908e+003;4.952117e-002
1.731836e+003;4.876170e-002
1.733765e+003;4.796600e-002
1.735693e+003;4.687957e-002
1.737622e+003;4.579243e-002
1.739550e+003;4.468079e-002
1.741479e+003;4.368157e-002
1.743407e+003;4.272946e-002
1.745336e+003;4.188604e-002
1.747265e+003;4.132273e-002
1.749193e+003;4.087032e-002
1.751122e+003;4.035242e-002
1.753050e+003;3.995704e-002
1.754979e+003;3.957330e-002
1.756907e+003;3.925029e-002
1.758836e+003;3.904966e-002
1.760764e+003;3.876529e-002
1.762693e+003;3.856652e-002
1.764621e+003;3.853422e-002
1.766550e+003;3.845157e-002
1.768479e+003;3.851166e-002
1.770407e+003;3.833386e-002
1.772336e+003;3.791474e-002
1.774264e+003;3.773291e-002
1.776193e+003;3.767979e-002
1.778121e+003;3.771903e-002
1.780050e+003;3.768777e-002
1.781978e+003;3.752193e-002
1.783907e+003;3.729993e-002
1.785835e+003;3.706477e-002
1.787764e+003;3.677369e-002
1.789693e+003;3.650385e-002
1.791621e+003;3.627110e-002
1.793550e+003;3.598469e-002
1.795478e+003;3.592818e-002
1.797407e+003;3.593048e-002
1.799335e+003;3.572523e-002
1.801264e+003;3.546938e-002
1.803192e+003;3.544134e-002
1.805121e+003;3.537153e-002
1.807049e+003;3.525084e-002
1.808978e+003;3.499160e-002
1.810907e+003;3.481142e-002
1.812835e+003;3.491655e-002
1.814764e+003;3.492219e-002
1.816692e+003;3.470708e-002
1.818621e+003;3.460193e-002
1.820549e+003;3.458076e-002
1.822478e+003;3.449946e-002
1.824406e+003;3.439350e-002
1.826335e+003;3.441183e-002
1.828264e+003;3.424735e-002
1.830192e+003;3.394711e-002
1.832121e+003;3.387553e-002
1.834049e+003;3.374982e-002
1.835978e+003;3.361784e-002
1.837906e+003;3.358146e-002
1.839835e+003;3.347827e-002
1.841763e+003;3.341149e-002
1.843692e+003;3.323901e-002
1.845620e+003;3.306471e-002
1.847549e+003;3.303932e-002
1.849478e+003;3.293726e-002
1.851406e+003;3.277576e-002
1.853335e+003;3.272299e-002
1.855263e+003;3.267172e-002
1.857192e+003;3.277444e-002
1.859120e+003;3.277929e-002
1.861049e+003;3.252785e-002
1.862977e+003;3.238707e-002
1.864906e+003;3.256210e-002
1.866834e+003;3.250200e-002
1.868763e+003;3.228241e-002
1.870692e+003;3.230315e-002
1.872620e+003;3.232545e-002
1.874549e+003;3.216029e-002
1.876477e+003;3.200536e-002
1.878406e+003;3.187091e-002
1.880334e+003;3.190714e-002
1.882263e+003;3.187580e-002
1.884191e+003;3.176495e-002
1.886120e+003;3.183030e-002
1.888048e+003;3.181975e-002
1.889977e+003;3.185226e-002
1.891906e+003;3.192829e-002
1.893834e+003;3.194323e-002
1.895763e+003;3.202141e-002
1.897691e+003;3.210713e-002
1.899620e+003;3.212932e-002
1.901548e+003;3.205894e-002
1.903477e+003;3.204010e-002
1.905405e+003;3.217671e-002
1.907334e+003;3.227787e-002
1.909262e+003;3.234484e-002
1.911191e+003;3.247672e-002
1.913120e+003;3.261710e-002
1.915048e+003;3.270437e-002
1.916977e+003;3.291263e-002
1.918905e+003;3.331707e-002
1.920834e+003;3.349470e-002
1.922762e+003;3.330011e-002
1.924691e+003;3.321691e-002
1.926619e+003;3.357878e-002
1.928548e+003;3.375443e-002
1.930477e+003;3.371361e-002
1.932405e+003;3.362364e-002
1.934334e+003;3.360867e-002
1.936262e+003;3.358880e-002
1.938191e+003;3.363817e-002
1.940119e+003;3.395517e-002
1.942048e+003;3.410543e-002
1.943976e+003;3.414231e-002
1.945905e+003;3.421831e-002
1.947833e+003;3.450675e-002
1.949762e+003;3.470718e-002
1.951691e+003;3.475873e-002
1.953619e+003;3.485231e-002
1.955548e+003;3.512300e-002
1.957476e+003;3.526421e-002
1.959405e+003;3.520973e-002
1.961333e+003;3.528656e-002
1.963262e+003;3.560736e-002
1.965190e+003;3.579535e-002
1.967119e+003;3.566415e-002
1.969047e+003;3.555183e-002
1.970976e+003;3.569728e-002
1.972905e+003;3.589931e-002
1.974833e+003;3.613226e-002
1.976762e+003;3.635496e-002
1.978690e+003;3.654245e-002
1.980619e+003;3.657247e-002
1.982547e+003;3.664064e-002
1.984476e+003;3.680842e-002
1.986404e+003;3.684961e-002
1.988333e+003;3.680535e-002
1.990261e+003;3.686418e-002
1.992190e+003;3.702226e-002
1.994119e+003;3.710905e-002
1.996047e+003;3.710042e-002
1.997976e+003;3.726051e-002
1.999904e+003;3.742091e-002
2.001833e+003;3.725632e-002
2.003761e+003;3.719463e-002
2.005690e+003;3.751312e-002
2.007618e+003;3.777476e-002
2.009547e+003;3.804760e-002
2.011476e+003;3.821874e-002
2.013404e+003;3.838474e-002
2.015333e+003;3.864891e-002
2.017261e+003;3.887102e-002
2.019190e+003;3.901461e-002
2.021118e+003;3.915869e-002
2.023047e+003;3.922835e-002
2.024975e+003;3.939234e-002
2.026904e+003;3.944157e-002
2.028833e+003;3.935639e-002
2.030761e+003;3.959556e-002
2.032690e+003;3.999533e-002
2.034618e+003;4.017960e-002
2.036547e+003;4.033486e-002
2.038475e+003;4.049789e-002
2.040404e+003;4.071367e-002
2.042332e+003;4.069238e-002
2.044261e+003;4.058705e-002
2.046189e+003;4.066705e-002
2.048118e+003;4.073761e-002
2.050047e+003;4.069019e-002
2.051975e+003;4.081867e-002
2.053904e+003;4.095671e-002
2.055832e+003;4.102106e-002
2.057761e+003;4.108971e-002
2.059689e+003;4.107587e-002
2.061618e+003;4.095799e-002
2.063546e+003;4.068081e-002
2.065475e+003;4.055143e-002
2.067404e+003;4.055725e-002
2.069332e+003;4.079632e-002
2.071260e+003;4.102758e-002
2.073189e+003;4.092475e-002
2.075118e+003;4.072873e-002
2.077046e+003;4.074970e-002
2.078975e+003;4.089511e-002
2.080903e+003;4.096658e-002
2.082832e+003;4.086879e-002
2.084760e+003;4.083163e-002
2.086689e+003;4.085194e-002
2.088617e+003;4.086340e-002
2.090546e+003;4.085088e-002
2.092475e+003;4.090684e-002
2.094403e+003;4.097743e-002
2.096332e+003;4.106629e-002
2.098260e+003;4.121057e-002
2.100189e+003;4.122555e-002
2.102117e+003;4.123790e-002
2.104046e+003;4.131391e-002
2.105974e+003;4.171129e-002
2.107903e+003;4.205881e-002
2.109832e+003;4.206166e-002
2.111760e+003;4.194099e-002
2.113688e+003;4.186644e-002
2.115617e+003;4.181978e-002
2.117546e+003;4.181238e-002
2.119474e+003;4.211952e-002
2.121403e+003;4.221036e-002
2.123331e+003;4.202505e-002
2.125260e+003;4.203530e-002
2.127188e+003;4.212116e-002
2.129117e+003;4.229078e-002
2.131045e+003;4.258325e-002
2.132974e+003;4.274109e-002
2.134903e+003;4.265755e-002
2.136831e+003;4.247076e-002
2.138760e+003;4.230930e-002
2.140688e+003;4.208659e-002
2.142617e+003;4.186455e-002
2.144545e+003;4.177983e-002
2.146474e+003;4.182434e-002
2.148402e+003;4.200293e-002
2.150331e+003;4.209086e-002
2.152260e+003;4.175587e-002
2.154188e+003;4.143166e-002
2.156117e+003;4.150413e-002
2.158045e+003;4.150330e-002
2.159974e+003;4.141012e-002
2.161902e+003;4.136234e-002
2.163831e+003;4.142696e-002
2.165759e+003;4.132662e-002
2.167688e+003;4.115720e-002
2.169616e+003;4.116412e-002
2.171545e+003;4.124296e-002
2.173474e+003;4.115655e-002
2.175402e+003;4.098417e-002
2.177331e+003;4.079468e-002
2.179259e+003;4.061360e-002
2.181188e+003;4.062441e-002
2.183116e+003;4.070381e-002
2.185045e+003;4.059440e-002
2.186973e+003;4.035682e-002
2.188902e+003;4.012730e-002
2.190831e+003;3.984070e-002
2.192759e+003;3.972653e-002
2.194688e+003;3.974589e-002
2.196616e+003;3.967908e-002
2.198545e+003;3.954801e-002
2.200473e+003;3.938744e-002
2.202402e+003;3.943228e-002
2.204330e+003;3.958379e-002
2.206259e+003;3.969814e-002
2.208188e+003;3.963309e-002
2.210116e+003;3.958042e-002
2.212044e+003;3.947935e-002
2.213973e+003;3.928957e-002
2.215902e+003;3.911673e-002
2.217830e+003;3.906105e-002
2.219759e+003;3.892172e-002
2.221687e+003;3.891675e-002
2.223616e+003;3.904184e-002
2.225544e+003;3.906572e-002
2.227473e+003;3.897213e-002
2.229401e+003;3.884250e-002
2.231330e+003;3.876653e-002
2.233259e+003;3.869534e-002
2.235187e+003;3.871867e-002
2.237116e+003;3.882322e-002
2.239044e+003;3.882627e-002
2.240973e+003;3.863334e-002
2.242901e+003;3.857170e-002
2.244830e+003;3.828518e-002
2.246758e+003;3.803122e-002
2.248687e+003;3.794566e-002
2.250615e+003;3.803925e-002
2.252544e+003;3.805997e-002
2.254473e+003;3.794439e-002
2.256401e+003;3.767917e-002
2.258330e+003;3.726488e-002
2.260258e+003;3.720748e-002
2.262187e+003;3.745236e-002
2.264115e+003;3.747125e-002
2.266044e+003;3.739443e-002
2.267972e+003;3.749419e-002
2.269901e+003;3.749412e-002
2.271830e+003;3.711627e-002
2.273758e+003;3.672905e-002
2.275687e+003;3.663909e-002
2.277615e+003;3.665070e-002
2.279544e+003;3.653971e-002
2.281472e+003;3.656984e-002
2.283401e+003;3.666714e-002
2.285329e+003;3.662990e-002
2.287258e+003;3.648666e-002
2.289187e+003;3.624343e-002
2.291115e+003;3.611671e-002
2.293043e+003;3.622762e-002
2.294972e+003;3.645938e-002
2.296901e+003;3.642461e-002
2.298829e+003;3.642724e-002
2.300758e+003;3.653874e-002
2.302686e+003;3.645815e-002
2.304615e+003;3.629840e-002
2.306543e+003;3.609996e-002
2.308472e+003;3.621570e-002
2.310400e+003;3.654544e-002
2.312329e+003;3.665874e-002
2.314258e+003;3.671174e-002
2.316186e+003;3.692770e-002
2.318115e+003;3.687796e-002
2.320043e+003;3.664100e-002
2.321972e+003;3.667269e-002
2.323900e+003;3.660185e-002
2.325829e+003;3.644082e-002
2.327757e+003;3.676731e-002
2.329686e+003;3.722235e-002
2.331615e+003;3.716701e-002
2.333543e+003;3.690202e-002
2.335472e+003;3.680802e-002
2.337400e+003;3.702959e-002
2.339329e+003;3.719546e-002
2.341257e+003;3.719376e-002
2.343186e+003;3.732532e-002
2.345114e+003;3.761948e-002
2.347043e+003;3.782096e-002
2.348971e+003;3.774741e-002
2.350900e+003;3.769287e-002
2.352829e+003;3.798959e-002
2.354757e+003;3.833700e-002
2.356686e+003;3.838485e-002
2.358614e+003;3.841703e-002
2.360543e+003;3.842279e-002
2.362471e+003;3.852705e-002
2.364400e+003;3.879772e-002
2.366328e+003;3.881848e-002
2.368257e+003;3.894444e-002
2.370186e+003;3.942731e-002
2.372114e+003;3.966986e-002
2.374042e+003;3.940605e-002
2.375971e+003;3.908613e-002
2.377900e+003;3.915194e-002
2.379828e+003;3.957443e-002
2.381757e+003;3.982272e-002
2.383685e+003;3.985712e-002
2.385614e+003;3.997208e-002
2.387542e+003;3.985635e-002
2.389471e+003;3.980707e-002
2.391399e+003;4.000372e-002
2.393328e+003;4.009812e-002
2.395257e+003;4.012963e-002
2.397185e+003;4.024194e-002
2.399114e+003;4.058745e-002
2.401042e+003;4.088204e-002
2.402971e+003;4.097161e-002
2.404899e+003;4.106385e-002
2.406828e+003;4.107711e-002
2.408756e+003;4.109247e-002
2.410685e+003;4.146279e-002
2.412614e+003;4.184116e-002
2.414542e+003;4.205545e-002
2.416471e+003;4.219382e-002
2.418399e+003;4.217345e-002
2.420328e+003;4.235671e-002
2.422256e+003;4.257908e-002
2.424185e+003;4.269572e-002
2.426113e+003;4.302752e-002
2.428042e+003;4.336874e-002
2.429970e+003;4.358840e-002
2.431899e+003;4.368201e-002
2.433828e+003;4.376043e-002
2.435756e+003;4.367171e-002
2.437685e+003;4.373071e-002
2.439613e+003;4.435139e-002
2.441542e+003;4.492794e-002
2.443470e+003;4.494356e-002
2.445399e+003;4.498476e-002
2.447327e+003;4.538993e-002
2.449256e+003;4.591038e-002
2.451185e+003;4.613664e-002
2.453113e+003;4.607868e-002
2.455042e+003;4.617916e-002
2.456970e+003;4.650907e-002
2.458899e+003;4.654790e-002
2.460827e+003;4.640729e-002
2.462756e+003;4.639727e-002
2.464684e+003;4.651313e-002
2.466613e+003;4.689083e-002
2.468542e+003;4.734308e-002
2.470470e+003;4.753298e-002
2.472398e+003;4.775894e-002
2.474327e+003;4.788456e-002
2.476256e+003;4.785296e-002
2.478184e+003;4.796914e-002
2.480113e+003;4.839074e-002
2.482041e+003;4.870184e-002
2.483970e+003;4.869146e-002
2.485898e+003;4.889455e-002
2.487827e+003;4.903808e-002
2.489755e+003;4.905485e-002
2.491684e+003;4.925614e-002
2.493613e+003;4.932080e-002
2.495541e+003;4.943989e-002
2.497470e+003;4.963995e-002
2.499398e+003;4.963565e-002
2.501327e+003;4.963167e-002
2.503255e+003;4.980974e-002
2.505184e+003;4.993853e-002
2.507112e+003;5.010765e-002
2.509041e+003;5.049121e-002
2.510969e+003;5.070889e-002
2.512898e+003;5.073447e-002
2.514827e+003;5.070378e-002
2.516755e+003;5.066141e-002
2.518684e+003;5.087224e-002
2.520612e+003;5.095446e-002
2.522541e+003;5.108858e-002
2.524469e+003;5.128977e-002
2.526398e+003;5.119108e-002
2.528326e+003;5.101654e-002
2.530255e+003;5.118605e-002
2.532184e+003;5.150680e-002
2.534112e+003;5.170479e-002
2.536041e+003;5.165549e-002
2.537969e+003;5.158993e-002
2.539898e+003;5.158310e-002
2.541826e+003;5.154609e-002
2.543755e+003;5.184754e-002
2.545683e+003;5.224894e-002
2.547612e+003;5.221818e-002
2.549541e+003;5.210385e-002
2.551469e+003;5.204166e-002
2.553397e+003;5.200546e-002
2.555326e+003;5.243594e-002
2.557255e+003;5.288555e-002
2.559183e+003;5.304332e-002
2.561112e+003;5.331630e-002
2.563040e+003;5.347835e-002
2.564969e+003;5.326082e-002
2.566897e+003;5.311192e-002
2.568826e+003;5.320708e-002
2.570754e+003;5.319520e-002
2.572683e+003;5.307298e-002
2.574612e+003;5.330304e-002
2.576540e+003;5.348154e-002
2.578469e+003;5.369693e-002
2.580397e+003;5.386400e-002
2.582326e+003;5.378490e-002
2.584254e+003;5.395662e-002
2.586183e+003;5.434101e-002
2.588111e+003;5.443640e-002
2.590040e+003;5.458974e-002
2.591969e+003;5.479508e-002
2.593897e+003;5.464200e-002
2.595826e+003;5.457167e-002
2.597754e+003;5.502271e-002
2.599683e+003;5.550193e-002
2.601611e+003;5.583440e-002
2.603540e+003;5.596245e-002
2.605468e+003;5.604565e-002
2.607397e+003;5.608674e-002
2.609325e+003;5.606190e-002
2.611254e+003;5.612953e-002
2.613183e+003;5.629072e-002
2.615111e+003;5.667125e-002
2.617040e+003;5.699661e-002
2.618968e+003;5.729673e-002
2.620897e+003;5.758752e-002
2.622825e+003;5.768446e-002
2.624754e+003;5.757973e-002
2.626682e+003;5.762785e-002
2.628611e+003;5.804705e-002
2.630540e+003;5.856989e-002
2.632468e+003;5.875151e-002
2.634396e+003;5.886074e-002
2.636325e+003;5.927740e-002
2.638254e+003;5.942658e-002
2.640182e+003;5.932237e-002
2.642111e+003;5.962798e-002
2.644039e+003;6.031416e-002
2.645968e+003;6.069088e-002
2.647896e+003;6.058542e-002
2.649825e+003;6.068002e-002
2.651753e+003;6.097690e-002
2.653682e+003;6.097888e-002
2.655611e+003;6.111075e-002
2.657539e+003;6.158185e-002
2.659468e+003;6.198478e-002
2.661396e+003;6.230187e-002
2.663325e+003;6.251525e-002
2.665253e+003;6.261077e-002
2.667182e+003;6.274880e-002
2.669110e+003;6.316856e-002
2.671039e+003;6.347942e-002
2.672968e+003;6.364194e-002
2.674896e+003;6.389464e-002
2.676825e+003;6.416618e-002
2.678753e+003;6.427893e-002
2.680682e+003;6.431766e-002
2.682610e+003;6.447176e-002
2.684539e+003;6.459728e-002
2.686467e+003;6.482210e-002
2.688396e+003;6.508780e-002
2.690324e+003;6.561171e-002
2.692253e+003;6.604166e-002
2.694182e+003;6.627202e-002
2.696110e+003;6.640149e-002
2.698039e+003;6.655023e-002
2.699967e+003;6.678852e-002
2.701896e+003;6.682878e-002
2.703824e+003;6.682457e-002
2.705753e+003;6.699283e-002
2.707681e+003;6.727007e-002
2.709610e+003;6.771827e-002
2.711539e+003;6.787538e-002
2.713467e+003;6.801932e-002
2.715396e+003;6.813969e-002
2.717324e+003;6.808070e-002
2.719253e+003;6.821238e-002
2.721181e+003;6.845383e-002
2.723110e+003;6.852843e-002
2.725038e+003;6.866048e-002
2.726967e+003;6.885142e-002
2.728896e+003;6.907597e-002
2.730824e+003;6.919948e-002
2.732752e+003;6.927300e-002
2.734681e+003;6.944054e-002
2.736610e+003;6.975900e-002
2.738538e+003;6.974075e-002
2.740467e+003;6.978004e-002
2.742395e+003;6.999469e-002
2.744324e+003;7.000776e-002
2.746252e+003;7.013991e-002
2.748181e+003;7.029427e-002
2.750109e+003;7.038395e-002
2.752038e+003;7.045951e-002
2.753967e+003;7.057874e-002
2.755895e+003;7.084650e-002
2.757824e+003;7.123884e-002
2.759752e+003;7.145064e-002
2.761681e+003;7.157025e-002
2.763609e+003;7.186569e-002
2.765538e+003;7.197776e-002
2.767466e+003;7.210628e-002
2.769395e+003;7.239570e-002
2.771323e+003;7.261042e-002
2.773252e+003;7.254748e-002
2.775181e+003;7.278998e-002
2.777109e+003;7.324506e-002
2.779038e+003;7.371361e-002
2.780966e+003;7.410800e-002
2.782895e+003;7.430544e-002
2.784823e+003;7.416946e-002
2.786752e+003;7.428303e-002
2.788680e+003;7.495505e-002
2.790609e+003;7.564254e-002
2.792538e+003;7.595666e-002
2.794466e+003;7.619025e-002
2.796395e+003;7.662017e-002
2.798323e+003;7.695177e-002
2.800252e+003;7.729843e-002
2.802180e+003;7.764537e-002
2.804109e+003;7.800455e-002
2.806037e+003;7.864828e-002
2.807966e+003;7.884419e-002
2.809895e+003;7.879048e-002
2.811823e+003;7.931541e-002
2.813751e+003;7.999741e-002
2.815680e+003;8.046295e-002
2.817609e+003;8.092670e-002
2.819537e+003;8.148939e-002
2.821466e+003;8.170286e-002
2.823394e+003;8.202747e-002
2.825323e+003;8.242496e-002
2.827251e+003;8.274214e-002
2.829180e+003;8.334552e-002
2.831108e+003;8.416358e-002
2.833037e+003;8.487675e-002
2.834966e+003;8.569584e-002
2.836894e+003;8.656513e-002
2.838823e+003;8.718892e-002
2.840751e+003;8.791916e-002
2.842680e+003;8.881312e-002
2.844608e+003;9.010470e-002
2.846537e+003;9.129255e-002
2.848465e+003;9.205798e-002
2.850394e+003;9.295292e-002
2.852323e+003;9.372618e-002
2.854251e+003;9.416769e-002
2.856180e+003;9.509310e-002
2.858108e+003;9.612640e-002
2.860037e+003;9.716949e-002
2.861965e+003;9.863608e-002
2.863894e+003;1.003313e-001
2.865822e+003;1.015478e-001
2.867751e+003;1.024661e-001
2.869679e+003;1.033056e-001
2.871608e+003;1.043092e-001
2.873536e+003;1.057190e-001
2.875465e+003;1.065621e-001
2.877394e+003;1.066825e-001
2.879322e+003;1.069911e-001
2.881251e+003;1.076816e-001
2.883179e+003;1.080830e-001
2.885108e+003;1.082587e-001
2.887036e+003;1.085405e-001
2.888965e+003;1.088173e-001
2.890893e+003;1.091514e-001
2.892822e+003;1.091077e-001
2.894750e+003;1.086242e-001
2.896679e+003;1.079973e-001
2.898608e+003;1.073508e-001
2.900536e+003;1.069435e-001
2.902465e+003;1.067439e-001
2.904393e+003;1.063210e-001
2.906322e+003;1.054606e-001
2.908250e+003;1.050165e-001
2.910179e+003;1.046373e-001
2.912107e+003;1.039639e-001
2.914036e+003;1.031007e-001
2.915965e+003;1.022924e-001
2.917893e+003;1.014497e-001
2.919822e+003;1.005458e-001
2.921750e+003;9.929458e-002
2.923679e+003;9.804285e-002
2.925607e+003;9.724128e-002
2.927536e+003;9.618581e-002
2.929464e+003;9.518047e-002
2.931393e+003;9.453859e-002
2.933322e+003;9.412473e-002
2.935250e+003;9.338535e-002
2.937178e+003;9.215019e-002
2.939107e+003;9.094463e-002
2.941036e+003;8.980177e-002
2.942964e+003;8.875633e-002
2.944893e+003;8.769377e-002
2.946821e+003;8.677617e-002
2.948750e+003;8.600976e-002
2.950678e+003;8.502901e-002
2.952607e+003;8.403301e-002
2.954535e+003;8.324807e-002
2.956464e+003;8.245340e-002
2.958393e+003;8.179337e-002
2.960321e+003;8.132078e-002
2.962250e+003;8.041290e-002
2.964178e+003;7.940606e-002
2.966107e+003;7.902241e-002
2.968035e+003;7.864058e-002
2.969964e+003;7.789223e-002
2.971892e+003;7.724285e-002
2.973821e+003;7.696221e-002
2.975750e+003;7.684715e-002
2.977678e+003;7.664187e-002
2.979607e+003;7.633614e-002
2.981535e+003;7.612494e-002
2.983464e+003;7.589332e-002
2.985392e+003;7.543030e-002
2.987321e+003;7.506330e-002
2.989249e+003;7.478053e-002
2.991178e+003;7.455982e-002
2.993106e+003;7.446761e-002
2.995035e+003;7.444264e-002
2.996964e+003;7.474424e-002
2.998892e+003;7.463197e-002
3.000821e+003;7.406292e-002
3.002749e+003;7.402658e-002
3.004678e+003;7.427717e-002
3.006606e+003;7.453601e-002
3.008535e+003;7.470535e-002
3.010463e+003;7.487583e-002
3.012392e+003;7.497788e-002
3.014321e+003;7.527072e-002
3.016249e+003;7.562941e-002
3.018177e+003;7.569318e-002
3.020106e+003;7.578738e-002
3.022035e+003;7.616975e-002
3.023963e+003;7.675332e-002
3.025892e+003;7.723098e-002
3.027820e+003;7.746343e-002
3.029749e+003;7.790262e-002
3.031677e+003;7.862462e-002
3.033606e+003;7.913770e-002
3.035534e+003;7.941569e-002
3.037463e+003;7.978952e-002
3.039392e+003;8.033463e-002
3.041320e+003;8.085165e-002
3.043249e+003;8.115918e-002
3.045177e+003;8.124930e-002
3.047106e+003;8.167946e-002
3.049034e+003;8.241070e-002
3.050963e+003;8.286326e-002
3.052891e+003;8.329029e-002
3.054820e+003;8.359337e-002
3.056749e+003;8.382925e-002
3.058677e+003;8.414283e-002
3.060606e+003;8.467557e-002
3.062534e+003;8.509188e-002
3.064463e+003;8.538774e-002
3.066391e+003;8.620744e-002
3.068320e+003;8.695975e-002
3.070248e+003;8.726268e-002
3.072177e+003;8.757661e-002
3.074105e+003;8.838936e-002
3.076034e+003;8.924075e-002
3.077963e+003;8.953489e-002
3.079891e+003;8.976209e-002
3.081820e+003;9.032363e-002
3.083748e+003;9.087739e-002
3.085677e+003;9.147273e-002
3.087605e+003;9.200474e-002
3.089534e+003;9.237880e-002
3.091462e+003;9.308124e-002
3.093391e+003;9.375504e-002
3.095320e+003;9.419910e-002
3.097248e+003;9.456928e-002
3.099177e+003;9.500922e-002
3.101105e+003;9.550987e-002
3.103034e+003;9.632956e-002
3.104962e+003;9.716070e-002
3.106891e+003;9.746532e-002
3.108819e+003;9.787591e-002
3.110748e+003;9.866594e-002
3.112677e+003;9.935767e-002
3.114605e+003;9.978361e-002
3.116533e+003;1.002437e-001
3.118462e+003;1.007422e-001
3.120391e+003;1.013558e-001
3.122319e+003;1.021745e-001
3.124248e+003;1.029460e-001
3.126176e+003;1.033965e-001
3.128105e+003;1.039256e-001
3.130033e+003;1.044617e-001
3.131962e+003;1.046891e-001
3.133890e+003;1.051493e-001
3.135819e+003;1.061852e-001
3.137748e+003;1.069455e-001
3.139676e+003;1.073400e-001
3.141605e+003;1.082060e-001
3.143533e+003;1.090235e-001
3.145462e+003;1.091787e-001
3.147390e+003;1.092795e-001
3.149319e+003;1.096093e-001
3.151247e+003;1.098190e-001
3.153176e+003;1.102219e-001
3.155104e+003;1.111540e-001
3.157033e+003;1.120000e-001
3.158962e+003;1.123336e-001
3.160890e+003;1.128327e-001
3.162819e+003;1.135801e-001
3.164747e+003;1.137592e-001
3.166676e+003;1.139467e-001
3.168604e+003;1.143510e-001
3.170533e+003;1.148000e-001
3.172461e+003;1.154508e-001
3.174390e+003;1.160002e-001
3.176319e+003;1.164522e-001
3.178247e+003;1.169077e-001
3.180176e+003;1.172849e-001
3.182104e+003;1.177282e-001
3.184033e+003;1.183471e-001
3.185961e+003;1.188595e-001
3.187890e+003;1.193655e-001
3.189818e+003;1.197628e-001
3.191747e+003;1.202927e-001
3.193676e+003;1.210209e-001
3.195604e+003;1.213811e-001
3.197532e+003;1.217595e-001
3.199461e+003;1.221569e-001
3.201390e+003;1.225383e-001
3.203318e+003;1.231409e-001
3.205247e+003;1.235956e-001
3.207175e+003;1.242379e-001
3.209104e+003;1.247653e-001
3.211032e+003;1.250342e-001
3.212961e+003;1.256856e-001
3.214889e+003;1.262434e-001
3.216818e+003;1.267773e-001
3.218747e+003;1.269904e-001
3.220675e+003;1.272079e-001
3.222604e+003;1.277146e-001
3.224532e+003;1.282842e-001
3.226461e+003;1.284340e-001
3.228389e+003;1.288556e-001
3.230318e+003;1.292939e-001
3.232246e+003;1.296890e-001
3.234175e+003;1.301858e-001
3.236104e+003;1.310153e-001
3.238032e+003;1.314695e-001
3.239961e+003;1.314716e-001
3.241889e+003;1.320007e-001
3.243818e+003;1.325857e-001
3.245746e+003;1.326448e-001
3.247675e+003;1.326566e-001
3.249603e+003;1.332388e-001
3.251532e+003;1.342427e-001
3.253460e+003;1.345507e-001
3.255389e+003;1.343748e-001
3.257318e+003;1.346722e-001
3.259246e+003;1.352440e-001
3.261175e+003;1.357567e-001
3.263103e+003;1.356841e-001
3.265032e+003;1.357433e-001
3.266960e+003;1.365192e-001
3.268889e+003;1.373376e-001
3.270817e+003;1.378308e-001
3.272746e+003;1.382189e-001
3.274675e+003;1.385069e-001
3.276603e+003;1.385442e-001
3.278531e+003;1.387844e-001
3.280460e+003;1.392541e-001
3.282389e+003;1.395416e-001
3.284317e+003;1.394922e-001
3.286246e+003;1.393515e-001
3.288174e+003;1.395297e-001
3.290103e+003;1.399022e-001
3.292031e+003;1.403141e-001
3.293960e+003;1.407771e-001
3.295888e+003;1.413352e-001
3.297817e+003;1.414549e-001
3.299746e+003;1.415092e-001
3.301674e+003;1.418891e-001
3.303603e+003;1.422470e-001
3.305531e+003;1.421392e-001
3.307460e+003;1.421672e-001
3.309388e+003;1.425499e-001
3.311317e+003;1.425826e-001
3.313245e+003;1.426779e-001
3.315174e+003;1.431653e-001
3.317103e+003;1.433044e-001
3.319031e+003;1.435095e-001
3.320960e+003;1.437724e-001
3.322888e+003;1.436704e-001
3.324817e+003;1.433172e-001
3.326745e+003;1.432165e-001
3.328674e+003;1.430850e-001
3.330602e+003;1.430806e-001
3.332531e+003;1.433852e-001
3.334459e+003;1.434243e-001
3.336388e+003;1.436356e-001
3.338317e+003;1.442307e-001
3.340245e+003;1.440468e-001
3.342174e+003;1.434138e-001
3.344102e+003;1.435980e-001
3.346031e+003;1.439883e-001
3.347959e+003;1.438395e-001
3.349888e+003;1.433083e-001
3.351816e+003;1.430228e-001
3.353745e+003;1.424819e-001
3.355674e+003;1.423988e-001
3.357602e+003;1.429731e-001
3.359531e+003;1.429520e-001
3.361459e+003;1.422296e-001
3.363388e+003;1.415466e-001
3.365316e+003;1.413319e-001
3.367245e+003;1.409421e-001
3.369173e+003;1.405041e-001
3.371102e+003;1.405720e-001
3.373031e+003;1.408701e-001
3.374959e+003;1.403691e-001
3.376887e+003;1.398691e-001
3.378816e+003;1.395694e-001
3.380745e+003;1.388983e-001
3.382673e+003;1.381032e-001
3.384602e+003;1.382451e-001
3.386530e+003;1.381687e-001
3.388459e+003;1.376484e-001
3.390387e+003;1.376293e-001
3.392316e+003;1.371954e-001
3.394244e+003;1.365016e-001
3.396173e+003;1.363696e-001
3.398102e+003;1.361223e-001
3.400030e+003;1.355419e-001
3.401959e+003;1.351128e-001
3.403887e+003;1.346809e-001
3.405816e+003;1.343072e-001
3.407744e+003;1.341836e-001
3.409673e+003;1.339440e-001
3.411601e+003;1.336077e-001
3.413530e+003;1.335910e-001
3.415458e+003;1.333814e-001
3.417387e+003;1.323429e-001
3.419316e+003;1.313601e-001
3.421244e+003;1.309980e-001
3.423173e+003;1.311204e-001
3.425101e+003;1.309242e-001
3.427030e+003;1.301684e-001
3.428958e+003;1.296911e-001
3.430887e+003;1.295153e-001
3.432815e+003;1.296102e-001
3.434744e+003;1.297233e-001
3.436673e+003;1.292303e-001
3.438601e+003;1.284868e-001
3.440530e+003;1.280684e-001
3.442458e+003;1.277844e-001
3.444387e+003;1.271454e-001
3.446315e+003;1.257589e-001
3.448244e+003;1.245985e-001
3.450172e+003;1.236690e-001
3.452101e+003;1.223893e-001
3.454030e+003;1.213715e-001
3.455958e+003;1.206228e-001
3.457886e+003;1.195670e-001
3.459815e+003;1.184073e-001
3.461744e+003;1.171381e-001
3.463672e+003;1.161576e-001
3.465601e+003;1.153174e-001
3.467529e+003;1.144955e-001
3.469458e+003;1.134952e-001
3.471386e+003;1.125395e-001
3.473315e+003;1.117010e-001
3.475243e+003;1.109326e-001
3.477172e+003;1.100892e-001
3.479101e+003;1.091258e-001
3.481029e+003;1.085856e-001
3.482958e+003;1.085925e-001
3.484886e+003;1.078227e-001
3.486815e+003;1.067726e-001
3.488743e+003;1.058623e-001
3.490672e+003;1.043600e-001
3.492600e+003;1.031068e-001
3.494529e+003;1.022664e-001
3.496458e+003;1.006361e-001
3.498386e+003;9.900728e-002
3.500315e+003;9.803492e-002
3.502243e+003;9.698113e-002
3.504172e+003;9.535760e-002
3.506100e+003;9.387303e-002
3.508029e+003;9.301092e-002
3.509957e+003;9.185574e-002
3.511886e+003;9.025346e-002
3.513814e+003;8.894563e-002
3.515743e+003;8.842303e-002
3.517672e+003;8.817315e-002
3.519600e+003;8.756980e-002
3.521529e+003;8.615851e-002
3.523457e+003;8.500302e-002
3.525386e+003;8.425759e-002
3.527314e+003;8.322968e-002
3.529243e+003;8.228021e-002
3.531171e+003;8.131535e-002
3.533100e+003;8.008645e-002
3.535029e+003;7.877630e-002
3.536957e+003;7.798017e-002
3.538885e+003;7.761320e-002
3.540814e+003;7.711510e-002
3.542743e+003;7.644249e-002
3.544671e+003;7.571180e-002
3.546600e+003;7.475664e-002
3.548528e+003;7.398564e-002
3.550457e+003;7.311329e-002
3.552385e+003;7.237444e-002
3.554314e+003;7.184169e-002
3.556242e+003;7.100848e-002
3.558171e+003;7.016511e-002
3.560100e+003;6.911252e-002
3.562028e+003;6.829551e-002
3.563957e+003;6.763054e-002
3.565885e+003;6.671216e-002
3.567814e+003;6.607804e-002
3.569742e+003;6.566748e-002
3.571671e+003;6.479633e-002
3.573599e+003;6.392880e-002
3.575528e+003;6.337816e-002
3.577457e+003;6.303484e-002
3.579385e+003;6.239049e-002
3.581314e+003;6.148973e-002
3.583242e+003;6.100660e-002
3.585171e+003;6.070078e-002
3.587099e+003;6.020791e-002
3.589028e+003;5.961255e-002
3.590956e+003;5.894176e-002
3.592885e+003;5.866954e-002
3.594813e+003;5.814572e-002
3.596742e+003;5.700371e-002
3.598671e+003;5.603004e-002
3.600599e+003;5.541158e-002
3.602528e+003;5.522020e-002
3.604456e+003;5.518750e-002
3.606385e+003;5.433384e-002
3.608313e+003;5.386494e-002
3.610242e+003;5.344567e-002
3.612170e+003;5.268032e-002
3.614099e+003;5.186852e-002
3.616028e+003;5.104185e-002
3.617956e+003;5.030724e-002
3.619885e+003;4.989835e-002
3.621813e+003;4.955037e-002
3.623742e+003;4.912430e-002
3.625670e+003;4.875432e-002
3.627599e+003;4.795341e-002
3.629527e+003;4.701047e-002
3.631456e+003;4.637208e-002
3.633385e+003;4.573238e-002
3.635313e+003;4.481144e-002
3.637241e+003;4.389717e-002
3.639170e+003;4.321459e-002
3.641099e+003;4.267100e-002
3.643027e+003;4.219813e-002
3.644956e+003;4.168857e-002
3.646884e+003;4.093975e-002
3.648813e+003;3.968765e-002
3.650741e+003;3.855823e-002
3.652670e+003;3.789598e-002
3.654598e+003;3.727672e-002
3.656527e+003;3.662878e-002
3.658456e+003;3.626839e-002
3.660384e+003;3.558060e-002
3.662313e+003;3.463706e-002
3.664241e+003;3.393493e-002
3.666170e+003;3.342488e-002
3.668098e+003;3.272785e-002
3.670027e+003;3.185009e-002
3.671955e+003;3.094183e-002
3.673884e+003;3.025569e-002
3.675813e+003;2.981917e-002
3.677741e+003;2.956419e-002
3.679669e+003;2.914417e-002
3.681598e+003;2.849670e-002
3.683527e+003;2.799677e-002
3.685455e+003;2.744440e-002
3.687384e+003;2.677656e-002
3.689312e+003;2.616647e-002
3.691241e+003;2.577595e-002
3.693169e+003;2.553394e-002
3.695098e+003;2.478346e-002
3.697026e+003;2.436078e-002
3.698955e+003;2.463552e-002
3.700884e+003;2.448174e-002
3.702812e+003;2.424924e-002
3.704741e+003;2.442148e-002
3.706669e+003;2.421911e-002
3.708598e+003;2.359301e-002
3.710526e+003;2.308992e-002
3.712455e+003;2.285121e-002
3.714383e+003;2.278836e-002
3.716312e+003;2.284011e-002
3.718240e+003;2.258029e-002
3.720169e+003;2.239552e-002
3.722098e+003;2.211804e-002
3.724026e+003;2.187743e-002
3.725955e+003;2.162233e-002
3.727883e+003;2.156902e-002
3.729812e+003;2.185210e-002
3.731740e+003;2.208109e-002
3.733669e+003;2.217474e-002
3.735597e+003;2.146436e-002
3.737526e+003;2.079911e-002
3.739455e+003;2.106270e-002
3.741383e+003;2.178897e-002
3.743312e+003;2.172574e-002
3.745240e+003;2.135548e-002
3.747169e+003;2.123514e-002
3.749097e+003;2.090319e-002
3.751026e+003;2.068807e-002
3.752954e+003;2.090288e-002
3.754883e+003;2.119172e-002
3.756812e+003;2.096842e-002
3.758740e+003;2.075323e-002
3.760668e+003;2.073039e-002
3.762597e+003;2.074120e-002
3.764526e+003;2.057678e-002
3.766454e+003;2.053102e-002
3.768383e+003;2.070725e-002
3.770311e+003;2.058977e-002
3.772240e+003;2.071559e-002
3.774168e+003;2.110809e-002
3.776097e+003;2.109686e-002
3.778025e+003;2.094370e-002
3.779954e+003;2.068424e-002
3.781883e+003;2.060554e-002
3.783811e+003;2.057274e-002
3.785740e+003;2.053384e-002
3.787668e+003;2.023203e-002
3.789597e+003;1.994601e-002
3.791525e+003;2.015213e-002
3.793454e+003;2.036056e-002
3.795382e+003;2.038713e-002
3.797311e+003;2.025074e-002
3.799240e+003;2.007779e-002
3.801168e+003;1.995541e-002
3.803097e+003;2.015178e-002
3.805025e+003;2.002706e-002
3.806954e+003;1.972054e-002
3.808882e+003;1.972782e-002
3.810811e+003;2.022759e-002
3.812739e+003;2.086742e-002
3.814668e+003;2.065923e-002
3.816596e+003;1.993498e-002
3.818525e+003;1.982846e-002
3.820454e+003;2.008397e-002
3.822382e+003;2.021884e-002
3.824311e+003;2.032820e-002
3.826239e+003;2.047857e-002
3.828168e+003;2.046909e-002
3.830096e+003;2.073526e-002
3.832025e+003;2.080095e-002
3.833953e+003;2.041074e-002
3.835882e+003;2.039709e-002
3.837811e+003;2.032396e-002
3.839739e+003;2.028060e-002
3.841667e+003;2.040866e-002
3.843596e+003;2.051324e-002
3.845525e+003;2.041956e-002
3.847453e+003;2.033664e-002
3.849382e+003;2.050417e-002
3.851310e+003;2.042095e-002
3.853239e+003;2.011513e-002
3.855167e+003;2.040602e-002
3.857096e+003;2.052744e-002
3.859024e+003;2.021696e-002
3.860953e+003;2.035049e-002
3.862882e+003;2.081221e-002
3.864810e+003;2.107926e-002
3.866739e+003;2.106148e-002
3.868667e+003;2.108249e-002
3.870596e+003;2.129412e-002
3.872524e+003;2.146185e-002
3.874453e+003;2.130296e-002
3.876381e+003;2.145078e-002
3.878310e+003;2.173323e-002
3.880239e+003;2.183918e-002
3.882167e+003;2.232990e-002
3.884096e+003;2.251066e-002
3.886024e+003;2.206937e-002
3.887953e+003;2.218366e-002
3.889881e+003;2.229017e-002
3.891810e+003;2.207875e-002
3.893738e+003;2.231194e-002
3.895667e+003;2.259216e-002
3.897595e+003;2.247615e-002
3.899524e+003;2.248170e-002
3.901453e+003;2.272914e-002
3.903381e+003;2.288502e-002
3.905310e+003;2.315565e-002
3.907238e+003;2.321521e-002
3.909167e+003;2.320853e-002
3.911095e+003;2.339662e-002
3.913024e+003;2.392821e-002
3.914952e+003;2.394369e-002
3.916881e+003;2.384066e-002
3.918810e+003;2.391197e-002
3.920738e+003;2.396431e-002
3.922667e+003;2.373338e-002
3.924595e+003;2.363363e-002
3.926524e+003;2.427384e-002
3.928452e+003;2.457871e-002
3.930381e+003;2.432966e-002
3.932309e+003;2.432507e-002
3.934238e+003;2.441415e-002
3.936167e+003;2.450466e-002
3.938095e+003;2.469724e-002
3.940023e+003;2.484285e-002
3.941952e+003;2.496128e-002
3.943881e+003;2.493531e-002
3.945809e+003;2.507788e-002
3.947738e+003;2.506296e-002
3.949666e+003;2.504386e-002
3.951595e+003;2.508718e-002
3.953523e+003;2.506356e-002
3.955452e+003;2.496619e-002
3.957380e+003;2.495844e-002
3.959309e+003;2.484015e-002
3.961238e+003;2.487131e-002
3.963166e+003;2.495461e-002
3.965095e+003;2.520978e-002
3.967023e+003;2.524665e-002
3.968952e+003;2.534036e-002
3.970880e+003;2.554487e-002
3.972809e+003;2.515167e-002
3.974737e+003;2.471457e-002
3.976666e+003;2.513879e-002
3.978594e+003;2.561220e-002
3.980523e+003;2.556427e-002
3.982452e+003;2.491952e-002
3.984380e+003;2.473298e-002
3.986309e+003;2.506858e-002
3.988237e+003;2.519314e-002
3.990166e+003;2.552905e-002
3.992094e+003;2.562897e-002
3.994023e+003;2.560574e-002
3.995951e+003;2.546886e-002
3.997880e+003;2.517098e-002
3.999809e+003;2.501814e-002
4.001737e+003;0.000000e+000
