3.992094e+002;0.000000e+000
4.011380e+002;0.000000e+000
4.030665e+002;0.000000e+000
4.049951e+002;0.000000e+000
4.069236e+002;0.000000e+000
4.088522e+002;0.000000e+000
4.107807e+002;0.000000e+000
4.127093e+002;0.000000e+000
4.146378e+002;0.000000e+000
4.165664e+002;0.000000e+000
4.184949e+002;0.000000e+000
4.204235e+002;0.000000e+000
4.223520e+002;0.000000e+000
4.242806e+002;0.000000e+000
4.262091e+002;0.000000e+000
4.281377e+002;0.000000e+000
4.300662e+002;0.000000e+000
4.319948e+002;0.000000e+000
4.339233e+002;0.000000e+000
4.358519e+002;0.000000e+000
4.377804e+002;0.000000e+000
4.397090e+002;0.000000e+000
4.416375e+002;0.000000e+000
4.435660e+002;0.000000e+000
4.454946e+002;0.000000e+000
4.474232e+002;0.000000e+000
4.493517e+002;0.000000e+000
4.512802e+002;0.000000e+000
4.532088e+002;0.000000e+000
4.551373e+002;0.000000e+000
4.570659e+002;0.000000e+000
4.589944e+002;0.000000e+000
4.609230e+002;0.000000e+000
4.628515e+002;0.000000e+000
4.647801e+002;0.000000e+000
4.667086e+002;0.000000e+000
4.686372e+002;0.000000e+000
4.705657e+002;0.000000e+000
4.724943e+002;0.000000e+000
4.744228e+002;0.000000e+000
4.763513e+002;0.000000e+000
4.782799e+002;0.000000e+000
4.802085e+002;0.000000e+000
4.821370e+002;0.000000e+000
4.840656e+002;0.000000e+000
4.859941e+002;0.000000e+000
4.879226e+002;0.000000e+000
4.898512e+002;0.000000e+000
4.917798e+002;0.000000e+000
4.937083e+002;0.000000e+000
4.956368e+002;0.000000e+000
4.975654e+002;0.000000e+000
4.994939e+002;0.000000e+000
5.014225e+002;0.000000e+000
5.033510e+002;0.000000e+000
5.052796e+002;0.000000e+000
5.072081e+002;0.000000e+000
5.091367e+002;0.000000e+000
5.110652e+002;0.000000e+000
5.129938e+002;0.000000e+000
5.149223e+002;0.000000e+000
5.168509e+002;0.000000e+000
5.187794e+002;0.000000e+000
5.207079e+002;0.000000e+000
5.226365e+002;0.000000e+000
5.245651e+002;0.000000e+000
5.264936e+002;0.000000e+000
5.284222e+002;0.000000e+000
5.303507e+002;0.000000e+000
5.322792e+002;0.000000e+000
5.342078e+002;0.000000e+000
5.361364e+002;0.000000e+000
5.380649e+002;0.000000e+000
5.399935e+002;0.000000e+000
5.419220e+002;0.000000e+000
5.438505e+002;0.000000e+000
5.457791e+002;0.000000e+000
5.477076e+002;0.000000e+000
5.496362e+002;0.000000e+000
5.515648e+002;0.000000e+000
5.534933e+002;0.000000e+000
5.554218e+002;0.000000e+000
5.573504e+002;0.000000e+000
5.592789e+002;0.000000e+000
5.612075e+002;0.000000e+000
5.631360e+002;0.000000e+000
5.650646e+002;0.000000e+000
5.669931e+002;0.000000e+000
5.689217e+002;0.000000e+000
5.708502e+002;0.000000e+000
5.727787e+002;0.000000e+000
5.747073e+002;0.000000e+000
5.766359e+002;0.000000e+000
5.785644e+002;0.000000e+000
5.804930e+002;0.000000e+000
5.824215e+002;0.000000e+000
5.843500e+002;0.000000e+000
5.862786e+002;0.000000e+000
5.882072e+002;0.000000e+000
5.901357e+002;0.000000e+000
5.920643e+002;0.000000e+000
5.939928e+002;0.000000e+000
5.959213e+002;0.000000e+000
5.978499e+002;0.000000e+000
5.997784e+002;2.603383e-001
6.017070e+002;2.581021e-001
6.036355e+002;2.645558e-001
6.055641e+002;2.711589e-001
6.074926e+002;2.763803e-001
6.094211e+002;2.787846e-001
6.113497e+002;2.754696e-001
6.132783e+002;2.648055e-001
6.152068e+002;2.614313e-001
6.171354e+002;2.590016e-001
6.190639e+002;2.520392e-001
6.209924e+002;2.483514e-001
6.229210e+002;2.446714e-001
6.248495e+002;2.432600e-001
6.267781e+002;2.462234e-001
6.287067e+002;2.483884e-001
6.306352e+002;2.466961e-001
6.325637e+002;2.421014e-001
6.344923e+002;2.390915e-001
6.364208e+002;2.429444e-001
6.383494e+002;2.440924e-001
6.402780e+002;2.411973e-001
6.422065e+002;2.366912e-001
6.441350e+002;2.343323e-001
6.460636e+002;2.353489e-001
6.479921e+002;2.340455e-001
6.499207e+002;2.323089e-001
6.518492e+002;2.341462e-001
6.537778e+002;2.373560e-001
6.557063e+002;2.417511e-001
6.576349e+002;2.442752e-001
6.595634e+002;2.444100e-001
6.614919e+002;2.452591e-001
6.634205e+002;2.497185e-001
6.653491e+002;2.534768e-001
6.672776e+002;2.538978e-001
6.692062e+002;2.543017e-001
6.711347e+002;2.511389e-001
6.730632e+002;2.417920e-001
6.749918e+002;2.286752e-001
6.769203e+002;2.142891e-001
6.788489e+002;2.024571e-001
6.807775e+002;1.953099e-001
6.827060e+002;1.918019e-001
6.846345e+002;1.883427e-001
6.865631e+002;1.849391e-001
6.884916e+002;1.839291e-001
6.904202e+002;1.828460e-001
6.923488e+002;1.808829e-001
6.942773e+002;1.799573e-001
6.962058e+002;1.791260e-001
6.981344e+002;1.786380e-001
7.000629e+002;1.785926e-001
7.019915e+002;1.785221e-001
7.039200e+002;1.780687e-001
7.058486e+002;1.763890e-001
7.077771e+002;1.748770e-001
7.097057e+002;1.745525e-001
7.116342e+002;1.744346e-001
7.135627e+002;1.743273e-001
7.154913e+002;1.728223e-001
7.174199e+002;1.704010e-001
7.193484e+002;1.686410e-001
7.212770e+002;1.674113e-001
7.232055e+002;1.661335e-001
7.251340e+002;1.650893e-001
7.270626e+002;1.634825e-001
7.289911e+002;1.618161e-001
7.309197e+002;1.608208e-001
7.328483e+002;1.598446e-001
7.347768e+002;1.590209e-001
7.367053e+002;1.582485e-001
7.386339e+002;1.568416e-001
7.405624e+002;1.548943e-001
7.424910e+002;1.533156e-001
7.444196e+002;1.531869e-001
7.463481e+002;1.528590e-001
7.482766e+002;1.515060e-001
7.502052e+002;1.495646e-001
7.521337e+002;1.479005e-001
7.540623e+002;1.463858e-001
7.559908e+002;1.448134e-001
7.579194e+002;1.431798e-001
7.598479e+002;1.423554e-001
7.617765e+002;1.425473e-001
7.637050e+002;1.426582e-001
7.656335e+002;1.413360e-001
7.675621e+002;1.393733e-001
7.694907e+002;1.379134e-001
7.714192e+002;1.373370e-001
7.733478e+002;1.365740e-001
7.752763e+002;1.354592e-001
7.772048e+002;1.347958e-001
7.791334e+002;1.339979e-001
7.810620e+002;1.336688e-001
7.829905e+002;1.333973e-001
7.849191e+002;1.326604e-001
7.868476e+002;1.316785e-001
7.887761e+002;1.306605e-001
7.907047e+002;1.301978e-001
7.926332e+002;1.299115e-001
7.945618e+002;1.295643e-001
7.964903e+002;1.289963e-001
7.984189e+002;1.288896e-001
8.003474e+002;1.288571e-001
8.022759e+002;1.282691e-001
8.042045e+002;1.271915e-001
8.061331e+002;1.261319e-001
8.080616e+002;1.262562e-001
8.099902e+002;1.268468e-001
8.119187e+002;1.269497e-001
8.138472e+002;1.273579e-001
8.157758e+002;1.277452e-001
8.177043e+002;1.276413e-001
8.196329e+002;1.271412e-001
8.215615e+002;1.269175e-001
8.234900e+002;1.269076e-001
8.254185e+002;1.274026e-001
8.273471e+002;1.277617e-001
8.292756e+002;1.275742e-001
8.312042e+002;1.270455e-001
8.331328e+002;1.262807e-001
8.350613e+002;1.258786e-001
8.369898e+002;1.259257e-001
8.389184e+002;1.258367e-001
8.408469e+002;1.250480e-001
8.427755e+002;1.245921e-001
8.447040e+002;1.241831e-001
8.466326e+002;1.239234e-001
8.485611e+002;1.239236e-001
8.504897e+002;1.240168e-001
8.524182e+002;1.245562e-001
8.543467e+002;1.250024e-001
8.562753e+002;1.255446e-001
8.582039e+002;1.259778e-001
8.601324e+002;1.260241e-001
8.620610e+002;1.266803e-001
8.639895e+002;1.281597e-001
8.659180e+002;1.293066e-001
8.678466e+002;1.301172e-001
8.697751e+002;1.314472e-001
8.717037e+002;1.334135e-001
8.736323e+002;1.361971e-001
8.755608e+002;1.395253e-001
8.774893e+002;1.433259e-001
8.794179e+002;1.480661e-001
8.813464e+002;1.534160e-001
8.832750e+002;1.592942e-001
8.852036e+002;1.656709e-001
8.871321e+002;1.722899e-001
8.890606e+002;1.788350e-001
8.909892e+002;1.843734e-001
8.929177e+002;1.879731e-001
8.948463e+002;1.890455e-001
8.967748e+002;1.867772e-001
8.987034e+002;1.826966e-001
9.006319e+002;1.781175e-001
9.025605e+002;1.729484e-001
9.044890e+002;1.680856e-001
9.064175e+002;1.639502e-001
9.083461e+002;1.601593e-001
9.102747e+002;1.568579e-001
9.122032e+002;1.543577e-001
9.141318e+002;1.524085e-001
9.160603e+002;1.512615e-001
9.179888e+002;1.511806e-001
9.199174e+002;1.520294e-001
9.218459e+002;1.535953e-001
9.237745e+002;1.551117e-001
9.257031e+002;1.563938e-001
9.276316e+002;1.575470e-001
9.295601e+002;1.591789e-001
9.314887e+002;1.612242e-001
9.334172e+002;1.634851e-001
9.353458e+002;1.655810e-001
9.372744e+002;1.673678e-001
9.392029e+002;1.695023e-001
9.411314e+002;1.720248e-001
9.430600e+002;1.748854e-001
9.449885e+002;1.779772e-001
9.469171e+002;1.815917e-001
9.488456e+002;1.860315e-001
9.507742e+002;1.913101e-001
9.527027e+002;1.967315e-001
9.546313e+002;2.021487e-001
9.565598e+002;2.088357e-001
9.584883e+002;2.156552e-001
9.604169e+002;2.217332e-001
9.623455e+002;2.276559e-001
9.642740e+002;2.334593e-001
9.662026e+002;2.388341e-001
9.681311e+002;2.443247e-001
9.700596e+002;2.505859e-001
9.719882e+002;2.578621e-001
9.739167e+002;2.663690e-001
9.758453e+002;2.767848e-001
9.777739e+002;2.896190e-001
9.797024e+002;3.040626e-001
9.816309e+002;3.200761e-001
9.835595e+002;3.375029e-001
9.854880e+002;3.554879e-001
9.874166e+002;3.733032e-001
9.893452e+002;3.902566e-001
9.912737e+002;4.051453e-001
9.932022e+002;4.161075e-001
9.951307e+002;4.234707e-001
9.970593e+002;4.277580e-001
9.989879e+002;4.295063e-001
1.000916e+003;4.300812e-001
1.002845e+003;4.318611e-001
1.004773e+003;4.357691e-001
1.006702e+003;4.418185e-001
1.008631e+003;4.502434e-001
1.010559e+003;4.595561e-001
1.012488e+003;4.696188e-001
1.014416e+003;4.805116e-001
1.016345e+003;4.891472e-001
1.018273e+003;4.948892e-001
1.020202e+003;4.984504e-001
1.022130e+003;4.999598e-001
1.024059e+003;5.002890e-001
1.025988e+003;4.984074e-001
1.027916e+003;4.938591e-001
1.029845e+003;4.864199e-001
1.031773e+003;4.781028e-001
1.033702e+003;4.710548e-001
1.035630e+003;4.647837e-001
1.037559e+003;4.592854e-001
1.039487e+003;4.561220e-001
1.041416e+003;4.541766e-001
1.043344e+003;4.522558e-001
1.045273e+003;4.497453e-001
1.047202e+003;4.460809e-001
1.049130e+003;4.426044e-001
1.051059e+003;4.396958e-001
1.052987e+003;4.372027e-001
1.054916e+003;4.340095e-001
1.056844e+003;4.287195e-001
1.058773e+003;4.223195e-001
1.060701e+003;4.144017e-001
1.062630e+003;4.042264e-001
1.064558e+003;3.938454e-001
1.066487e+003;3.837099e-001
1.068416e+003;3.742587e-001
1.070344e+003;3.673949e-001
1.072273e+003;3.621801e-001
1.074201e+003;3.564183e-001
1.076130e+003;3.495418e-001
1.078058e+003;3.419895e-001
1.079987e+003;3.350673e-001
1.081915e+003;3.294307e-001
1.083844e+003;3.235335e-001
1.085773e+003;3.168720e-001
1.087701e+003;3.106889e-001
1.089630e+003;3.045955e-001
1.091558e+003;2.989255e-001
1.093487e+003;2.936736e-001
1.095415e+003;2.878833e-001
1.097344e+003;2.808701e-001
1.099272e+003;2.728941e-001
1.101201e+003;2.645219e-001
1.103129e+003;2.572356e-001
1.105058e+003;2.522664e-001
1.106987e+003;2.490328e-001
1.108915e+003;2.465324e-001
1.110844e+003;2.426147e-001
1.112772e+003;2.374283e-001
1.114701e+003;2.321442e-001
1.116629e+003;2.267235e-001
1.118558e+003;2.210650e-001
1.120486e+003;2.152053e-001
1.122415e+003;2.090673e-001
1.124344e+003;2.028187e-001
1.126272e+003;1.967508e-001
1.128201e+003;1.907267e-001
1.130129e+003;1.854084e-001
1.132058e+003;1.806761e-001
1.133986e+003;1.757329e-001
1.135915e+003;1.717304e-001
1.137843e+003;1.694030e-001
1.139772e+003;1.673727e-001
1.141700e+003;1.662171e-001
1.143629e+003;1.663424e-001
1.145557e+003;1.675141e-001
1.147486e+003;1.699167e-001
1.149415e+003;1.729702e-001
1.151343e+003;1.753106e-001
1.153272e+003;1.768553e-001
1.155200e+003;1.781623e-001
1.157129e+003;1.784116e-001
1.159057e+003;1.754873e-001
1.160986e+003;1.700899e-001
1.162914e+003;1.637571e-001
1.164843e+003;1.567814e-001
1.166771e+003;1.498127e-001
1.168700e+003;1.433782e-001
1.170629e+003;1.373105e-001
1.172557e+003;1.319603e-001
1.174486e+003;1.276447e-001
1.176414e+003;1.240982e-001
1.178343e+003;1.211635e-001
1.180271e+003;1.190443e-001
1.182200e+003;1.176769e-001
1.184128e+003;1.172170e-001
1.186057e+003;1.175627e-001
1.187986e+003;1.188525e-001
1.189914e+003;1.214975e-001
1.191843e+003;1.247804e-001
1.193771e+003;1.275107e-001
1.195700e+003;1.298689e-001
1.197628e+003;1.312560e-001
1.199557e+003;1.312609e-001
1.201485e+003;1.297161e-001
1.203414e+003;1.270811e-001
1.205343e+003;1.242903e-001
1.207271e+003;1.218137e-001
1.209200e+003;1.201254e-001
1.211128e+003;1.192446e-001
1.213057e+003;1.193498e-001
1.214985e+003;1.202714e-001
1.216914e+003;1.216218e-001
1.218842e+003;1.237830e-001
1.220771e+003;1.265873e-001
1.222699e+003;1.293242e-001
1.224628e+003;1.314947e-001
1.226557e+003;1.326882e-001
1.228485e+003;1.327614e-001
1.230414e+003;1.323816e-001
1.232342e+003;1.317972e-001
1.234271e+003;1.311006e-001
1.236199e+003;1.304448e-001
1.238128e+003;1.297651e-001
1.240056e+003;1.292266e-001
1.241985e+003;1.285324e-001
1.243913e+003;1.276199e-001
1.245842e+003;1.272541e-001
1.247771e+003;1.276912e-001
1.249699e+003;1.282947e-001
1.251628e+003;1.288539e-001
1.253556e+003;1.302437e-001
1.255485e+003;1.320981e-001
1.257413e+003;1.335060e-001
1.259342e+003;1.341935e-001
1.261270e+003;1.338670e-001
1.263199e+003;1.331121e-001
1.265127e+003;1.320525e-001
1.267056e+003;1.308372e-001
1.268985e+003;1.298673e-001
1.270913e+003;1.290372e-001
1.272842e+003;1.282734e-001
1.274770e+003;1.279879e-001
1.276699e+003;1.281168e-001
1.278627e+003;1.276799e-001
1.280556e+003;1.263789e-001
1.282484e+003;1.250388e-001
1.284413e+003;1.245870e-001
1.286342e+003;1.249251e-001
1.288270e+003;1.261617e-001
1.290199e+003;1.284134e-001
1.292127e+003;1.307292e-001
1.294056e+003;1.323870e-001
1.295984e+003;1.338713e-001
1.297913e+003;1.356093e-001
1.299841e+003;1.374011e-001
1.301770e+003;1.394213e-001
1.303698e+003;1.416503e-001
1.305627e+003;1.441383e-001
1.307556e+003;1.472763e-001
1.309484e+003;1.500697e-001
1.311413e+003;1.517378e-001
1.313341e+003;1.525178e-001
1.315270e+003;1.525560e-001
1.317198e+003;1.512765e-001
1.319127e+003;1.487263e-001
1.321055e+003;1.459035e-001
1.322984e+003;1.441875e-001
1.324912e+003;1.435084e-001
1.326841e+003;1.434694e-001
1.328770e+003;1.439203e-001
1.330698e+003;1.442830e-001
1.332627e+003;1.447397e-001
1.334555e+003;1.452412e-001
1.336484e+003;1.450313e-001
1.338412e+003;1.443518e-001
1.340341e+003;1.438307e-001
1.342269e+003;1.432387e-001
1.344198e+003;1.425809e-001
1.346126e+003;1.418868e-001
1.348055e+003;1.415659e-001
1.349984e+003;1.417092e-001
1.351912e+003;1.424226e-001
1.353841e+003;1.436159e-001
1.355769e+003;1.451781e-001
1.357698e+003;1.469844e-001
1.359626e+003;1.486056e-001
1.361555e+003;1.499391e-001
1.363483e+003;1.506425e-001
1.365412e+003;1.505408e-001
1.367341e+003;1.497911e-001
1.369269e+003;1.487879e-001
1.371198e+003;1.475564e-001
1.373126e+003;1.457739e-001
1.375055e+003;1.437878e-001
1.376983e+003;1.415111e-001
1.378912e+003;1.387160e-001
1.380840e+003;1.353451e-001
1.382769e+003;1.319253e-001
1.384698e+003;1.294542e-001
1.386626e+003;1.275627e-001
1.388555e+003;1.262773e-001
1.390483e+003;1.255845e-001
1.392412e+003;1.250192e-001
1.394340e+003;1.245773e-001
1.396269e+003;1.244128e-001
1.398197e+003;1.241937e-001
1.400126e+003;1.235821e-001
1.402054e+003;1.227394e-001
1.403983e+003;1.222180e-001
1.405911e+003;1.223238e-001
1.407840e+003;1.226095e-001
1.409769e+003;1.226403e-001
1.411697e+003;1.226757e-001
1.413626e+003;1.226718e-001
1.415554e+003;1.226544e-001
1.417483e+003;1.226974e-001
1.419411e+003;1.224803e-001
1.421340e+003;1.222119e-001
1.423268e+003;1.222200e-001
1.425197e+003;1.220943e-001
1.427125e+003;1.217965e-001
1.429054e+003;1.213234e-001
1.430983e+003;1.207515e-001
1.432911e+003;1.203456e-001
1.434840e+003;1.201335e-001
1.436768e+003;1.195579e-001
1.438697e+003;1.188050e-001
1.440625e+003;1.180227e-001
1.442554e+003;1.172934e-001
1.444482e+003;1.165896e-001
1.446411e+003;1.156266e-001
1.448340e+003;1.145376e-001
1.450268e+003;1.137572e-001
1.452197e+003;1.131218e-001
1.454125e+003;1.122835e-001
1.456054e+003;1.113436e-001
1.457982e+003;1.106516e-001
1.459911e+003;1.102759e-001
1.461839e+003;1.096077e-001
1.463768e+003;1.087468e-001
1.465697e+003;1.080350e-001
1.467625e+003;1.073655e-001
1.469554e+003;1.063759e-001
1.471482e+003;1.051387e-001
1.473411e+003;1.040159e-001
1.475339e+003;1.028876e-001
1.477268e+003;1.013675e-001
1.479196e+003;9.974158e-002
1.481125e+003;9.837843e-002
1.483053e+003;9.712751e-002
1.484982e+003;9.582499e-002
1.486911e+003;9.450576e-002
1.488839e+003;9.324396e-002
1.490768e+003;9.228794e-002
1.492696e+003;9.132142e-002
1.494625e+003;9.014409e-002
1.496553e+003;8.906463e-002
1.498482e+003;8.834274e-002
1.500410e+003;8.765793e-002
1.502339e+003;8.706711e-002
1.504267e+003;8.638301e-002
1.506196e+003;8.546471e-002
1.508125e+003;8.504831e-002
1.510053e+003;8.490200e-002
1.511982e+003;8.439556e-002
1.513910e+003;8.387768e-002
1.515839e+003;8.340073e-002
1.517767e+003;8.303472e-002
1.519696e+003;8.277000e-002
1.521624e+003;8.250208e-002
1.523553e+003;8.254563e-002
1.525481e+003;8.236600e-002
1.527410e+003;8.208255e-002
1.529339e+003;8.200698e-002
1.531267e+003;8.178373e-002
1.533196e+003;8.157802e-002
1.535124e+003;8.163720e-002
1.537053e+003;8.164483e-002
1.538981e+003;8.119813e-002
1.540910e+003;8.089592e-002
1.542838e+003;8.078580e-002
1.544767e+003;8.066510e-002
1.546695e+003;8.067674e-002
1.548624e+003;8.074570e-002
1.550553e+003;8.090949e-002
1.552481e+003;8.088411e-002
1.554410e+003;8.087656e-002
1.556338e+003;8.102268e-002
1.558267e+003;8.074150e-002
1.560195e+003;8.099054e-002
1.562124e+003;8.183313e-002
1.564052e+003;8.226035e-002
1.565981e+003;8.243345e-002
1.567910e+003;8.274679e-002
1.569838e+003;8.286603e-002
1.571767e+003;8.308624e-002
1.573695e+003;8.341607e-002
1.575624e+003;8.346124e-002
1.577552e+003;8.369709e-002
1.579481e+003;8.425292e-002
1.581409e+003;8.459926e-002
1.583338e+003;8.510740e-002
1.585266e+003;8.571695e-002
1.587195e+003;8.595254e-002
1.589124e+003;8.620635e-002
1.591052e+003;8.677819e-002
1.592981e+003;8.742134e-002
1.594909e+003;8.800793e-002
1.596838e+003;8.849411e-002
1.598766e+003;8.903998e-002
1.600695e+003;8.953351e-002
1.602623e+003;8.980948e-002
1.604552e+003;8.999784e-002
1.606480e+003;9.031714e-002
1.608409e+003;9.067966e-002
1.610338e+003;9.098826e-002
1.612266e+003;9.149269e-002
1.614195e+003;9.166182e-002
1.616123e+003;9.161951e-002
1.618052e+003;9.179213e-002
1.619980e+003;9.245213e-002
1.621909e+003;9.300940e-002
1.623837e+003;9.345142e-002
1.625766e+003;9.400330e-002
1.627694e+003;9.481356e-002
1.629623e+003;9.538265e-002
1.631552e+003;9.551755e-002
1.633480e+003;9.562813e-002
1.635409e+003;9.550095e-002
1.637337e+003;9.551945e-002
1.639266e+003;9.591440e-002
1.641194e+003;9.559113e-002
1.643123e+003;9.484447e-002
1.645051e+003;9.414177e-002
1.646980e+003;9.364227e-002
1.648909e+003;9.336879e-002
1.650837e+003;9.277525e-002
1.652766e+003;9.182164e-002
1.654694e+003;9.146565e-002
1.656623e+003;9.121361e-002
1.658551e+003;9.068076e-002
1.660480e+003;9.013618e-002
1.662408e+003;8.944792e-002
1.664337e+003;8.880906e-002
1.666266e+003;8.825841e-002
1.668194e+003;8.738179e-002
1.670123e+003;8.615160e-002
1.672051e+003;8.523926e-002
1.673980e+003;8.445004e-002
1.675908e+003;8.362783e-002
1.677837e+003;8.300179e-002
1.679765e+003;8.217815e-002
1.681694e+003;8.113194e-002
1.683622e+003;8.011702e-002
1.685551e+003;7.941608e-002
1.687479e+003;7.877193e-002
1.689408e+003;7.809410e-002
1.691337e+003;7.750387e-002
1.693265e+003;7.694042e-002
1.695194e+003;7.628906e-002
1.697122e+003;7.586605e-002
1.699051e+003;7.546057e-002
1.700979e+003;7.514977e-002
1.702908e+003;7.496516e-002
1.704836e+003;7.438223e-002
1.706765e+003;7.404893e-002
1.708693e+003;7.369951e-002
1.710622e+003;7.317278e-002
1.712551e+003;7.291020e-002
1.714479e+003;7.268295e-002
1.716408e+003;7.233608e-002
1.718336e+003;7.219399e-002
1.720265e+003;7.214426e-002
1.722193e+003;7.192320e-002
1.724122e+003;7.150845e-002
1.726050e+003;7.131286e-002
1.727979e+003;7.131349e-002
1.729908e+003;7.096763e-002
1.731836e+003;7.035894e-002
1.733765e+003;6.986076e-002
1.735693e+003;6.972679e-002
1.737622e+003;6.952009e-002
1.739550e+003;6.892186e-002
1.741479e+003;6.822971e-002
1.743407e+003;6.789703e-002
1.745336e+003;6.805632e-002
1.747265e+003;6.803776e-002
1.749193e+003;6.790036e-002
1.751122e+003;6.793570e-002
1.753050e+003;6.830171e-002
1.754979e+003;6.861057e-002
1.756907e+003;6.854286e-002
1.758836e+003;6.849991e-002
1.760764e+003;6.846543e-002
1.762693e+003;6.847885e-002
1.764621e+003;6.863331e-002
1.766550e+003;6.868966e-002
1.768479e+003;6.866828e-002
1.770407e+003;6.866676e-002
1.772336e+003;6.877761e-002
1.774264e+003;6.900492e-002
1.776193e+003;6.911156e-002
1.778121e+003;6.896939e-002
1.780050e+003;6.895056e-002
1.781978e+003;6.904781e-002
1.783907e+003;6.891234e-002
1.785835e+003;6.879827e-002
1.787764e+003;6.878255e-002
1.789693e+003;6.868488e-002
1.791621e+003;6.875351e-002
1.793550e+003;6.878181e-002
1.795478e+003;6.866598e-002
1.797407e+003;6.868023e-002
1.799335e+003;6.864658e-002
1.801264e+003;6.861142e-002
1.803192e+003;6.867468e-002
1.805121e+003;6.880192e-002
1.807049e+003;6.894310e-002
1.808978e+003;6.889033e-002
1.810907e+003;6.880708e-002
1.812835e+003;6.864484e-002
1.814764e+003;6.849456e-002
1.816692e+003;6.862683e-002
1.818621e+003;6.887895e-002
1.820549e+003;6.887472e-002
1.822478e+003;6.895098e-002
1.824406e+003;6.897591e-002
1.826335e+003;6.892453e-002
1.828264e+003;6.879776e-002
1.830192e+003;6.867158e-002
1.832121e+003;6.870534e-002
1.834049e+003;6.881430e-002
1.835978e+003;6.881911e-002
1.837906e+003;6.870390e-002
1.839835e+003;6.869440e-002
1.841763e+003;6.853130e-002
1.843692e+003;6.825306e-002
1.845620e+003;6.844405e-002
1.847549e+003;6.859462e-002
1.849478e+003;6.863447e-002
1.851406e+003;6.875285e-002
1.853335e+003;6.874159e-002
1.855263e+003;6.861720e-002
1.857192e+003;6.868783e-002
1.859120e+003;6.857227e-002
1.861049e+003;6.827306e-002
1.862977e+003;6.833793e-002
1.864906e+003;6.869874e-002
1.866834e+003;6.869707e-002
1.868763e+003;6.827771e-002
1.870692e+003;6.816621e-002
1.872620e+003;6.834189e-002
1.874549e+003;6.847423e-002
1.876477e+003;6.841803e-002
1.878406e+003;6.825705e-002
1.880334e+003;6.817691e-002
1.882263e+003;6.842535e-002
1.884191e+003;6.869152e-002
1.886120e+003;6.838769e-002
1.888048e+003;6.807776e-002
1.889977e+003;6.816218e-002
1.891906e+003;6.833999e-002
1.893834e+003;6.831870e-002
1.895763e+003;6.811919e-002
1.897691e+003;6.815423e-002
1.899620e+003;6.833468e-002
1.901548e+003;6.848769e-002
1.903477e+003;6.867188e-002
1.905405e+003;6.859563e-002
1.907334e+003;6.831222e-002
1.909262e+003;6.824739e-002
1.911191e+003;6.833646e-002
1.913120e+003;6.837621e-002
1.915048e+003;6.845790e-002
1.916977e+003;6.841872e-002
1.918905e+003;6.855725e-002
1.920834e+003;6.885274e-002
1.922762e+003;6.896915e-002
1.924691e+003;6.904925e-002
1.926619e+003;6.925054e-002
1.928548e+003;6.926302e-002
1.930477e+003;6.906863e-002
1.932405e+003;6.892046e-002
1.934334e+003;6.892554e-002
1.936262e+003;6.898613e-002
1.938191e+003;6.902263e-002
1.940119e+003;6.916264e-002
1.942048e+003;6.906280e-002
1.943976e+003;6.896578e-002
1.945905e+003;6.903767e-002
1.947833e+003;6.923554e-002
1.949762e+003;6.920931e-002
1.951691e+003;6.919178e-002
1.953619e+003;6.952351e-002
1.955548e+003;6.955089e-002
1.957476e+003;6.948631e-002
1.959405e+003;6.961514e-002
1.961333e+003;6.961339e-002
1.963262e+003;6.957524e-002
1.965190e+003;6.961837e-002
1.967119e+003;6.970745e-002
1.969047e+003;6.982927e-002
1.970976e+003;6.992403e-002
1.972905e+003;6.984647e-002
1.974833e+003;6.971278e-002
1.976762e+003;6.984807e-002
1.978690e+003;7.008727e-002
1.980619e+003;7.023705e-002
1.982547e+003;7.021773e-002
1.984476e+003;7.012302e-002
1.986404e+003;7.002073e-002
1.988333e+003;6.997436e-002
1.990261e+003;6.993175e-002
1.992190e+003;6.980382e-002
1.994119e+003;6.971628e-002
1.996047e+003;6.987087e-002
1.997976e+003;7.013143e-002
1.999904e+003;7.005102e-002
2.001833e+003;6.996705e-002
2.003761e+003;7.029785e-002
2.005690e+003;7.046364e-002
2.007618e+003;7.032454e-002
2.009547e+003;7.015681e-002
2.011476e+003;7.022516e-002
2.013404e+003;7.053637e-002
2.015333e+003;7.070731e-002
2.017261e+003;7.065935e-002
2.019190e+003;7.073648e-002
2.021118e+003;7.076129e-002
2.023047e+003;7.052542e-002
2.024975e+003;7.043348e-002
2.026904e+003;7.044279e-002
2.028833e+003;7.037129e-002
2.030761e+003;7.048199e-002
2.032690e+003;7.067292e-002
2.034618e+003;7.075984e-002
2.036547e+003;7.063468e-002
2.038475e+003;7.053531e-002
2.040404e+003;7.059336e-002
2.042332e+003;7.069488e-002
2.044261e+003;7.062848e-002
2.046189e+003;7.058817e-002
2.048118e+003;7.058903e-002
2.050047e+003;7.054739e-002
2.051975e+003;7.071324e-002
2.053904e+003;7.084681e-002
2.055832e+003;7.070704e-002
2.057761e+003;7.075337e-002
2.059689e+003;7.076054e-002
2.061618e+003;7.069869e-002
2.063546e+003;7.070377e-002
2.065475e+003;7.071242e-002
2.067404e+003;7.069066e-002
2.069332e+003;7.061604e-002
2.071260e+003;7.055438e-002
2.073189e+003;7.047818e-002
2.075118e+003;7.037647e-002
2.077046e+003;7.047884e-002
2.078975e+003;7.057609e-002
2.080903e+003;7.055134e-002
2.082832e+003;7.041715e-002
2.084760e+003;7.031024e-002
2.086689e+003;7.047965e-002
2.088617e+003;7.047483e-002
2.090546e+003;7.026770e-002
2.092475e+003;7.025574e-002
2.094403e+003;7.015179e-002
2.096332e+003;7.014789e-002
2.098260e+003;7.024401e-002
2.100189e+003;7.032469e-002
2.102117e+003;7.054545e-002
2.104046e+003;7.057063e-002
2.105974e+003;7.034405e-002
2.107903e+003;7.008754e-002
2.109832e+003;7.016627e-002
2.111760e+003;7.019296e-002
2.113688e+003;7.018381e-002
2.115617e+003;7.031873e-002
2.117546e+003;7.032181e-002
2.119474e+003;7.026053e-002
2.121403e+003;7.029501e-002
2.123331e+003;7.032286e-002
2.125260e+003;7.039116e-002
2.127188e+003;7.037156e-002
2.129117e+003;7.036186e-002
2.131045e+003;7.060505e-002
2.132974e+003;7.041126e-002
2.134903e+003;7.007758e-002
2.136831e+003;7.012901e-002
2.138760e+003;7.018225e-002
2.140688e+003;7.016059e-002
2.142617e+003;7.010588e-002
2.144545e+003;6.995708e-002
2.146474e+003;6.992669e-002
2.148402e+003;6.997592e-002
2.150331e+003;6.989200e-002
2.152260e+003;6.967042e-002
2.154188e+003;6.971177e-002
2.156117e+003;6.994969e-002
2.158045e+003;7.014537e-002
2.159974e+003;7.006936e-002
2.161902e+003;6.990489e-002
2.163831e+003;6.972908e-002
2.165759e+003;6.991057e-002
2.167688e+003;7.020203e-002
2.169616e+003;6.997779e-002
2.171545e+003;6.969438e-002
2.173474e+003;6.978729e-002
2.175402e+003;7.002272e-002
2.177331e+003;6.999928e-002
2.179259e+003;6.969185e-002
2.181188e+003;6.955599e-002
2.183116e+003;6.954762e-002
2.185045e+003;6.941853e-002
2.186973e+003;6.935649e-002
2.188902e+003;6.944645e-002
2.190831e+003;6.949260e-002
2.192759e+003;6.932089e-002
2.194688e+003;6.919015e-002
2.196616e+003;6.901394e-002
2.198545e+003;6.895696e-002
2.200473e+003;6.914683e-002
2.202402e+003;6.915530e-002
2.204330e+003;6.902423e-002
2.206259e+003;6.923398e-002
2.208188e+003;6.926776e-002
2.210116e+003;6.902221e-002
2.212044e+003;6.899277e-002
2.213973e+003;6.904808e-002
2.215902e+003;6.919280e-002
2.217830e+003;6.911773e-002
2.219759e+003;6.904746e-002
2.221687e+003;6.918899e-002
2.223616e+003;6.925524e-002
2.225544e+003;6.915674e-002
2.227473e+003;6.910786e-002
2.229401e+003;6.899191e-002
2.231330e+003;6.895518e-002
2.233259e+003;6.902221e-002
2.235187e+003;6.893315e-002
2.237116e+003;6.876904e-002
2.239044e+003;6.865069e-002
2.240973e+003;6.879516e-002
2.242901e+003;6.878646e-002
2.244830e+003;6.878088e-002
2.246758e+003;6.876116e-002
2.248687e+003;6.853754e-002
2.250615e+003;6.844813e-002
2.252544e+003;6.834050e-002
2.254473e+003;6.814997e-002
2.256401e+003;6.794007e-002
2.258330e+003;6.810027e-002
2.260258e+003;6.822843e-002
2.262187e+003;6.827399e-002
2.264115e+003;6.839634e-002
2.266044e+003;6.818175e-002
2.267972e+003;6.790432e-002
2.269901e+003;6.765373e-002
2.271830e+003;6.776185e-002
2.273758e+003;6.805070e-002
2.275687e+003;6.818195e-002
2.277615e+003;6.812140e-002
2.279544e+003;6.797747e-002
2.281472e+003;6.795123e-002
2.283401e+003;6.788715e-002
2.285329e+003;6.771266e-002
2.287258e+003;6.772812e-002
2.289187e+003;6.762113e-002
2.291115e+003;6.736730e-002
2.293043e+003;6.741641e-002
2.294972e+003;6.767312e-002
2.296901e+003;6.777199e-002
2.298829e+003;6.789909e-002
2.300758e+003;6.777114e-002
2.302686e+003;6.758609e-002
2.304615e+003;6.763855e-002
2.306543e+003;6.771363e-002
2.308472e+003;6.756205e-002
2.310400e+003;6.760262e-002
2.312329e+003;6.785581e-002
2.314258e+003;6.782870e-002
2.316186e+003;6.765016e-002
2.318115e+003;6.764076e-002
2.320043e+003;6.773563e-002
2.321972e+003;6.779694e-002
2.323900e+003;6.782056e-002
2.325829e+003;6.781746e-002
2.327757e+003;6.781618e-002
2.329686e+003;6.784605e-002
2.331615e+003;6.803148e-002
2.333543e+003;6.824076e-002
2.335472e+003;6.823596e-002
2.337400e+003;6.809892e-002
2.339329e+003;6.795274e-002
2.341257e+003;6.793794e-002
2.343186e+003;6.813772e-002
2.345114e+003;6.818482e-002
2.347043e+003;6.809253e-002
2.348971e+003;6.823855e-002
2.350900e+003;6.851737e-002
2.352829e+003;6.851497e-002
2.354757e+003;6.831373e-002
2.356686e+003;6.826662e-002
2.358614e+003;6.847904e-002
2.360543e+003;6.858046e-002
2.362471e+003;6.854092e-002
2.364400e+003;6.877074e-002
2.366328e+003;6.880219e-002
2.368257e+003;6.857778e-002
2.370186e+003;6.885713e-002
2.372114e+003;6.902761e-002
2.374042e+003;6.872012e-002
2.375971e+003;6.850018e-002
2.377900e+003;6.850670e-002
2.379828e+003;6.839619e-002
2.381757e+003;6.845945e-002
2.383685e+003;6.863699e-002
2.385614e+003;6.866191e-002
2.387542e+003;6.873988e-002
2.389471e+003;6.884738e-002
2.391399e+003;6.887068e-002
2.393328e+003;6.895583e-002
2.395257e+003;6.893820e-002
2.397185e+003;6.898151e-002
2.399114e+003;6.915184e-002
2.401042e+003;6.924731e-002
2.402971e+003;6.935257e-002
2.404899e+003;6.940221e-002
2.406828e+003;6.948522e-002
2.408756e+003;6.967073e-002
2.410685e+003;6.969543e-002
2.412614e+003;6.953779e-002
2.414542e+003;6.945963e-002
2.416471e+003;6.957263e-002
2.418399e+003;6.949801e-002
2.420328e+003;6.944291e-002
2.422256e+003;6.982826e-002
2.424185e+003;7.006227e-002
2.426113e+003;7.016694e-002
2.428042e+003;7.016188e-002
2.429970e+003;7.003533e-002
2.431899e+003;7.025442e-002
2.433828e+003;7.056642e-002
2.435756e+003;7.050121e-002
2.437685e+003;7.051340e-002
2.439613e+003;7.057983e-002
2.441542e+003;7.049174e-002
2.443470e+003;7.045963e-002
2.445399e+003;7.059047e-002
2.447327e+003;7.075375e-002
2.449256e+003;7.077407e-002
2.451185e+003;7.092768e-002
2.453113e+003;7.121233e-002
2.455042e+003;7.127706e-002
2.456970e+003;7.126765e-002
2.458899e+003;7.136558e-002
2.460827e+003;7.116314e-002
2.462756e+003;7.077762e-002
2.464684e+003;7.084709e-002
2.466613e+003;7.140303e-002
2.468542e+003;7.164579e-002
2.470470e+003;7.183508e-002
2.472398e+003;7.212529e-002
2.474327e+003;7.210753e-002
2.476256e+003;7.204549e-002
2.478184e+003;7.202187e-002
2.480113e+003;7.195789e-002
2.482041e+003;7.198866e-002
2.483970e+003;7.213672e-002
2.485898e+003;7.239162e-002
2.487827e+003;7.260627e-002
2.489755e+003;7.252806e-002
2.491684e+003;7.248558e-002
2.493613e+003;7.247567e-002
2.495541e+003;7.245230e-002
2.497470e+003;7.243887e-002
2.499398e+003;7.262514e-002
2.501327e+003;7.285757e-002
2.503255e+003;7.313620e-002
2.505184e+003;7.329915e-002
2.507112e+003;7.315988e-002
2.509041e+003;7.323404e-002
2.510969e+003;7.333057e-002
2.512898e+003;7.329821e-002
2.514827e+003;7.313012e-002
2.516755e+003;7.316325e-002
2.518684e+003;7.342555e-002
2.520612e+003;7.341711e-002
2.522541e+003;7.334626e-002
2.524469e+003;7.351737e-002
2.526398e+003;7.351510e-002
2.528326e+003;7.332213e-002
2.530255e+003;7.315717e-002
2.532184e+003;7.312325e-002
2.534112e+003;7.344250e-002
2.536041e+003;7.380522e-002
2.537969e+003;7.366010e-002
2.539898e+003;7.338894e-002
2.541826e+003;7.346848e-002
2.543755e+003;7.353406e-002
2.545683e+003;7.360820e-002
2.547612e+003;7.379949e-002
2.549541e+003;7.398697e-002
2.551469e+003;7.414364e-002
2.553397e+003;7.439820e-002
2.555326e+003;7.447709e-002
2.557255e+003;7.444496e-002
2.559183e+003;7.426675e-002
2.561112e+003;7.421368e-002
2.563040e+003;7.428700e-002
2.564969e+003;7.418605e-002
2.566897e+003;7.402414e-002
2.568826e+003;7.411236e-002
2.570754e+003;7.426227e-002
2.572683e+003;7.449991e-002
2.574612e+003;7.469619e-002
2.576540e+003;7.497016e-002
2.578469e+003;7.481017e-002
2.580397e+003;7.445188e-002
2.582326e+003;7.457866e-002
2.584254e+003;7.487158e-002
2.586183e+003;7.494867e-002
2.588111e+003;7.492977e-002
2.590040e+003;7.501541e-002
2.591969e+003;7.517529e-002
2.593897e+003;7.533168e-002
2.595826e+003;7.561805e-002
2.597754e+003;7.567109e-002
2.599683e+003;7.540929e-002
2.601611e+003;7.540720e-002
2.603540e+003;7.570352e-002
2.605468e+003;7.586385e-002
2.607397e+003;7.580943e-002
2.609325e+003;7.568423e-002
2.611254e+003;7.570056e-002
2.613183e+003;7.590102e-002
2.615111e+003;7.623878e-002
2.617040e+003;7.654674e-002
2.618968e+003;7.653531e-002
2.620897e+003;7.646039e-002
2.622825e+003;7.645173e-002
2.624754e+003;7.654464e-002
2.626682e+003;7.648493e-002
2.628611e+003;7.668741e-002
2.630540e+003;7.697048e-002
2.632468e+003;7.684909e-002
2.634396e+003;7.694156e-002
2.636325e+003;7.717493e-002
2.638254e+003;7.739060e-002
2.640182e+003;7.756360e-002
2.642111e+003;7.756376e-002
2.644039e+003;7.773785e-002
2.645968e+003;7.791079e-002
2.647896e+003;7.787538e-002
2.649825e+003;7.799651e-002
2.651753e+003;7.837432e-002
2.653682e+003;7.848796e-002
2.655611e+003;7.842560e-002
2.657539e+003;7.859389e-002
2.659468e+003;7.871342e-002
2.661396e+003;7.885182e-002
2.663325e+003;7.882632e-002
2.665253e+003;7.880939e-002
2.667182e+003;7.907505e-002
2.669110e+003;7.908542e-002
2.671039e+003;7.905430e-002
2.672968e+003;7.934190e-002
2.674896e+003;7.959064e-002
2.676825e+003;7.980521e-002
2.678753e+003;7.994563e-002
2.680682e+003;8.007474e-002
2.682610e+003;8.026858e-002
2.684539e+003;8.027919e-002
2.686467e+003;8.026101e-002
2.688396e+003;8.065648e-002
2.690324e+003;8.100543e-002
2.692253e+003;8.115475e-002
2.694182e+003;8.108753e-002
2.696110e+003;8.107276e-002
2.698039e+003;8.106904e-002
2.699967e+003;8.091848e-002
2.701896e+003;8.102140e-002
2.703824e+003;8.159393e-002
2.705753e+003;8.212890e-002
2.707681e+003;8.219592e-002
2.709610e+003;8.205513e-002
2.711539e+003;8.210441e-002
2.713467e+003;8.248746e-002
2.715396e+003;8.276379e-002
2.717324e+003;8.279334e-002
2.719253e+003;8.265977e-002
2.721181e+003;8.259729e-002
2.723110e+003;8.277718e-002
2.725038e+003;8.306257e-002
2.726967e+003;8.320055e-002
2.728896e+003;8.337499e-002
2.730824e+003;8.363257e-002
2.732752e+003;8.353304e-002
2.734681e+003;8.333264e-002
2.736610e+003;8.355360e-002
2.738538e+003;8.374434e-002
2.740467e+003;8.383942e-002
2.742395e+003;8.402421e-002
2.744324e+003;8.400849e-002
2.746252e+003;8.386916e-002
2.748181e+003;8.382555e-002
2.750109e+003;8.378854e-002
2.752038e+003;8.389130e-002
2.753967e+003;8.405911e-002
2.755895e+003;8.419947e-002
2.757824e+003;8.465088e-002
2.759752e+003;8.499258e-002
2.761681e+003;8.484907e-002
2.763609e+003;8.490402e-002
2.765538e+003;8.522946e-002
2.767466e+003;8.529156e-002
2.769395e+003;8.538335e-002
2.771323e+003;8.567525e-002
2.773252e+003;8.600742e-002
2.775181e+003;8.657622e-002
2.777109e+003;8.703173e-002
2.779038e+003;8.706432e-002
2.780966e+003;8.704764e-002
2.782895e+003;8.738410e-002
2.784823e+003;8.780424e-002
2.786752e+003;8.790463e-002
2.788680e+003;8.817733e-002
2.790609e+003;8.866683e-002
2.792538e+003;8.895729e-002
2.794466e+003;8.917081e-002
2.796395e+003;8.948314e-002
2.798323e+003;8.969842e-002
2.800252e+003;8.998280e-002
2.802180e+003;9.049120e-002
2.804109e+003;9.083998e-002
2.806037e+003;9.099492e-002
2.807966e+003;9.114277e-002
2.809895e+003;9.162487e-002
2.811823e+003;9.224864e-002
2.813751e+003;9.259202e-002
2.815680e+003;9.309077e-002
2.817609e+003;9.357536e-002
2.819537e+003;9.377178e-002
2.821466e+003;9.425779e-002
2.823394e+003;9.473517e-002
2.825323e+003;9.462321e-002
2.827251e+003;9.480754e-002
2.829180e+003;9.556660e-002
2.831108e+003;9.609593e-002
2.833037e+003;9.672893e-002
2.834966e+003;9.728119e-002
2.836894e+003;9.777994e-002
2.838823e+003;9.854852e-002
2.840751e+003;9.936476e-002
2.842680e+003;1.000873e-001
2.844608e+003;1.005921e-001
2.846537e+003;1.006847e-001
2.848465e+003;1.010873e-001
2.850394e+003;1.021716e-001
2.852323e+003;1.031881e-001
2.854251e+003;1.042665e-001
2.856180e+003;1.055742e-001
2.858108e+003;1.070574e-001
2.860037e+003;1.085479e-001
2.861965e+003;1.100966e-001
2.863894e+003;1.114276e-001
2.865822e+003;1.126704e-001
2.867751e+003;1.141540e-001
2.869679e+003;1.155688e-001
2.871608e+003;1.166598e-001
2.873536e+003;1.176262e-001
2.875465e+003;1.182120e-001
2.877394e+003;1.187520e-001
2.879322e+003;1.192863e-001
2.881251e+003;1.198804e-001
2.883179e+003;1.207162e-001
2.885108e+003;1.214776e-001
2.887036e+003;1.221641e-001
2.888965e+003;1.225898e-001
2.890893e+003;1.224949e-001
2.892822e+003;1.222033e-001
2.894750e+003;1.220496e-001
2.896679e+003;1.218905e-001
2.898608e+003;1.216873e-001
2.900536e+003;1.214046e-001
2.902465e+003;1.205023e-001
2.904393e+003;1.192813e-001
2.906322e+003;1.186869e-001
2.908250e+003;1.180282e-001
2.910179e+003;1.168749e-001
2.912107e+003;1.153752e-001
2.914036e+003;1.137810e-001
2.915965e+003;1.125185e-001
2.917893e+003;1.113764e-001
2.919822e+003;1.098269e-001
2.921750e+003;1.085109e-001
2.923679e+003;1.077052e-001
2.925607e+003;1.068335e-001
2.927536e+003;1.059941e-001
2.929464e+003;1.053255e-001
2.931393e+003;1.047245e-001
2.933322e+003;1.041714e-001
2.935250e+003;1.033212e-001
2.937178e+003;1.022804e-001
2.939107e+003;1.012501e-001
2.941036e+003;1.003950e-001
2.942964e+003;9.942412e-002
2.944893e+003;9.833442e-002
2.946821e+003;9.720803e-002
2.948750e+003;9.631322e-002
2.950678e+003;9.567215e-002
2.952607e+003;9.467830e-002
2.954535e+003;9.376290e-002
2.956464e+003;9.307808e-002
2.958393e+003;9.222230e-002
2.960321e+003;9.151723e-002
2.962250e+003;9.086355e-002
2.964178e+003;9.022117e-002
2.966107e+003;8.989350e-002
2.968035e+003;8.959655e-002
2.969964e+003;8.946168e-002
2.971892e+003;8.908188e-002
2.973821e+003;8.868041e-002
2.975750e+003;8.875804e-002
2.977678e+003;8.868110e-002
2.979607e+003;8.852918e-002
2.981535e+003;8.845203e-002
2.983464e+003;8.824760e-002
2.985392e+003;8.798493e-002
2.987321e+003;8.771222e-002
2.989249e+003;8.730116e-002
2.991178e+003;8.725158e-002
2.993106e+003;8.726139e-002
2.995035e+003;8.707234e-002
2.996964e+003;8.720107e-002
2.998892e+003;8.751126e-002
3.000821e+003;8.775566e-002
3.002749e+003;8.758195e-002
3.004678e+003;8.765306e-002
3.006606e+003;8.814405e-002
3.008535e+003;8.866017e-002
3.010463e+003;8.884483e-002
3.012392e+003;8.881897e-002
3.014321e+003;8.905161e-002
3.016249e+003;8.948640e-002
3.018177e+003;8.958564e-002
3.020106e+003;8.953653e-002
3.022035e+003;8.999801e-002
3.023963e+003;9.061149e-002
3.025892e+003;9.122370e-002
3.027820e+003;9.179474e-002
3.029749e+003;9.215473e-002
3.031677e+003;9.245315e-002
3.033606e+003;9.288911e-002
3.035534e+003;9.316648e-002
3.037463e+003;9.373067e-002
3.039392e+003;9.436163e-002
3.041320e+003;9.473236e-002
3.043249e+003;9.512573e-002
3.045177e+003;9.542818e-002
3.047106e+003;9.553874e-002
3.049034e+003;9.588994e-002
3.050963e+003;9.684864e-002
3.052891e+003;9.788201e-002
3.054820e+003;9.838478e-002
3.056749e+003;9.874005e-002
3.058677e+003;9.922649e-002
3.060606e+003;9.958207e-002
3.062534e+003;9.981471e-002
3.064463e+003;1.003550e-001
3.066391e+003;1.007488e-001
3.068320e+003;1.010190e-001
3.070248e+003;1.018161e-001
3.072177e+003;1.026820e-001
3.074105e+003;1.031101e-001
3.076034e+003;1.036835e-001
3.077963e+003;1.043474e-001
3.079891e+003;1.047228e-001
3.081820e+003;1.051425e-001
3.083748e+003;1.059222e-001
3.085677e+003;1.068274e-001
3.087605e+003;1.078634e-001
3.089534e+003;1.080708e-001
3.091462e+003;1.082054e-001
3.093391e+003;1.094086e-001
3.095320e+003;1.103724e-001
3.097248e+003;1.106638e-001
3.099177e+003;1.111168e-001
3.101105e+003;1.118511e-001
3.103034e+003;1.127313e-001
3.104962e+003;1.132405e-001
3.106891e+003;1.134313e-001
3.108819e+003;1.142994e-001
3.110748e+003;1.151286e-001
3.112677e+003;1.158084e-001
3.114605e+003;1.165508e-001
3.116533e+003;1.173629e-001
3.118462e+003;1.178301e-001
3.120391e+003;1.181672e-001
3.122319e+003;1.189201e-001
3.124248e+003;1.196252e-001
3.126176e+003;1.203020e-001
3.128105e+003;1.211546e-001
3.130033e+003;1.216455e-001
3.131962e+003;1.222350e-001
3.133890e+003;1.229629e-001
3.135819e+003;1.234370e-001
3.137748e+003;1.242541e-001
3.139676e+003;1.249780e-001
3.141605e+003;1.253564e-001
3.143533e+003;1.256400e-001
3.145462e+003;1.265145e-001
3.147390e+003;1.276049e-001
3.149319e+003;1.280602e-001
3.151247e+003;1.285720e-001
3.153176e+003;1.291553e-001
3.155104e+003;1.296428e-001
3.157033e+003;1.300009e-001
3.158962e+003;1.302340e-001
3.160890e+003;1.307069e-001
3.162819e+003;1.308791e-001
3.164747e+003;1.313669e-001
3.166676e+003;1.323251e-001
3.168604e+003;1.326651e-001
3.170533e+003;1.329906e-001
3.172461e+003;1.338431e-001
3.174390e+003;1.346119e-001
3.176319e+003;1.350026e-001
3.178247e+003;1.353723e-001
3.180176e+003;1.357083e-001
3.182104e+003;1.360226e-001
3.184033e+003;1.365935e-001
3.185961e+003;1.374609e-001
3.187890e+003;1.378712e-001
3.189818e+003;1.383385e-001
3.191747e+003;1.384865e-001
3.193676e+003;1.385809e-001
3.195604e+003;1.391298e-001
3.197532e+003;1.399367e-001
3.199461e+003;1.407817e-001
3.201390e+003;1.414154e-001
3.203318e+003;1.419046e-001
3.205247e+003;1.424041e-001
3.207175e+003;1.425336e-001
3.209104e+003;1.423153e-001
3.211032e+003;1.428687e-001
3.212961e+003;1.434025e-001
3.214889e+003;1.436286e-001
3.216818e+003;1.441471e-001
3.218747e+003;1.451230e-001
3.220675e+003;1.454231e-001
3.222604e+003;1.455111e-001
3.224532e+003;1.460582e-001
3.226461e+003;1.467461e-001
3.228389e+003;1.476862e-001
3.230318e+003;1.485309e-001
3.232246e+003;1.489066e-001
3.234175e+003;1.492159e-001
3.236104e+003;1.492373e-001
3.238032e+003;1.495066e-001
3.239961e+003;1.506334e-001
3.241889e+003;1.510504e-001
3.243818e+003;1.508210e-001
3.245746e+003;1.509405e-001
3.247675e+003;1.514078e-001
3.249603e+003;1.520337e-001
3.251532e+003;1.529596e-001
3.253460e+003;1.531304e-001
3.255389e+003;1.533158e-001
3.257318e+003;1.540901e-001
3.259246e+003;1.544495e-001
3.261175e+003;1.546572e-001
3.263103e+003;1.550465e-001
3.265032e+003;1.555128e-001
3.266960e+003;1.557192e-001
3.268889e+003;1.559768e-001
3.270817e+003;1.562346e-001
3.272746e+003;1.566145e-001
3.274675e+003;1.571980e-001
3.276603e+003;1.575939e-001
3.278531e+003;1.581036e-001
3.280460e+003;1.585762e-001
3.282389e+003;1.586807e-001
3.284317e+003;1.584479e-001
3.286246e+003;1.581872e-001
3.288174e+003;1.590031e-001
3.290103e+003;1.599926e-001
3.292031e+003;1.603585e-001
3.293960e+003;1.599073e-001
3.295888e+003;1.597935e-001
3.297817e+003;1.603606e-001
3.299746e+003;1.606728e-001
3.301674e+003;1.607405e-001
3.303603e+003;1.610185e-001
3.305531e+003;1.611429e-001
3.307460e+003;1.612575e-001
3.309388e+003;1.614049e-001
3.311317e+003;1.615771e-001
3.313245e+003;1.622841e-001
3.315174e+003;1.625436e-001
3.317103e+003;1.623766e-001
3.319031e+003;1.625815e-001
3.320960e+003;1.628615e-001
3.322888e+003;1.628747e-001
3.324817e+003;1.627941e-001
3.326745e+003;1.629007e-001
3.328674e+003;1.630115e-001
3.330602e+003;1.631703e-001
3.332531e+003;1.634346e-001
3.334459e+003;1.636452e-001
3.336388e+003;1.633631e-001
3.338317e+003;1.629643e-001
3.340245e+003;1.630884e-001
3.342174e+003;1.629935e-001
3.344102e+003;1.624077e-001
3.346031e+003;1.617748e-001
3.347959e+003;1.620562e-001
3.349888e+003;1.623796e-001
3.351816e+003;1.620781e-001
3.353745e+003;1.618064e-001
3.355674e+003;1.613277e-001
3.357602e+003;1.609545e-001
3.359531e+003;1.608897e-001
3.361459e+003;1.607402e-001
3.363388e+003;1.600029e-001
3.365316e+003;1.590347e-001
3.367245e+003;1.584887e-001
3.369173e+003;1.585869e-001
3.371102e+003;1.588250e-001
3.373031e+003;1.586776e-001
3.374959e+003;1.585351e-001
3.376887e+003;1.578745e-001
3.378816e+003;1.570506e-001
3.380745e+003;1.569688e-001
3.382673e+003;1.567724e-001
3.384602e+003;1.564861e-001
3.386530e+003;1.562736e-001
3.388459e+003;1.561428e-001
3.390387e+003;1.554565e-001
3.392316e+003;1.553504e-001
3.394244e+003;1.551217e-001
3.396173e+003;1.544320e-001
3.398102e+003;1.541190e-001
3.400030e+003;1.538869e-001
3.401959e+003;1.534554e-001
3.403887e+003;1.528645e-001
3.405816e+003;1.523839e-001
3.407744e+003;1.515745e-001
3.409673e+003;1.510761e-001
3.411601e+003;1.509411e-001
3.413530e+003;1.508441e-001
3.415458e+003;1.507442e-001
3.417387e+003;1.502301e-001
3.419316e+003;1.492077e-001
3.421244e+003;1.486533e-001
3.423173e+003;1.488917e-001
3.425101e+003;1.487949e-001
3.427030e+003;1.483086e-001
3.428958e+003;1.483463e-001
3.430887e+003;1.483675e-001
3.432815e+003;1.481106e-001
3.434744e+003;1.480840e-001
3.436673e+003;1.479230e-001
3.438601e+003;1.475539e-001
3.440530e+003;1.469974e-001
3.442458e+003;1.459590e-001
3.444387e+003;1.446173e-001
3.446315e+003;1.438437e-001
3.448244e+003;1.424997e-001
3.450172e+003;1.407100e-001
3.452101e+003;1.393093e-001
3.454030e+003;1.378657e-001
3.455958e+003;1.368520e-001
3.457886e+003;1.356862e-001
3.459815e+003;1.343463e-001
3.461744e+003;1.330662e-001
3.463672e+003;1.318033e-001
3.465601e+003;1.307880e-001
3.467529e+003;1.297433e-001
3.469458e+003;1.280485e-001
3.471386e+003;1.267802e-001
3.473315e+003;1.263452e-001
3.475243e+003;1.259521e-001
3.477172e+003;1.250876e-001
3.479101e+003;1.241096e-001
3.481029e+003;1.234092e-001
3.482958e+003;1.225659e-001
3.484886e+003;1.217662e-001
3.486815e+003;1.210520e-001
3.488743e+003;1.196919e-001
3.490672e+003;1.178475e-001
3.492600e+003;1.162997e-001
3.494529e+003;1.150686e-001
3.496458e+003;1.137219e-001
3.498386e+003;1.119468e-001
3.500315e+003;1.101267e-001
3.502243e+003;1.088759e-001
3.504172e+003;1.077367e-001
3.506100e+003;1.056639e-001
3.508029e+003;1.037951e-001
3.509957e+003;1.025266e-001
3.511886e+003;1.012076e-001
3.513814e+003;9.999403e-002
3.515743e+003;9.866390e-002
3.517672e+003;9.732497e-002
3.519600e+003;9.650452e-002
3.521529e+003;9.523641e-002
3.523457e+003;9.378321e-002
3.525386e+003;9.315670e-002
3.527314e+003;9.240786e-002
3.529243e+003;9.121536e-002
3.531171e+003;9.023841e-002
3.533100e+003;8.930001e-002
3.535029e+003;8.820210e-002
3.536957e+003;8.704966e-002
3.538885e+003;8.593614e-002
3.540814e+003;8.519709e-002
3.542743e+003;8.434216e-002
3.544671e+003;8.370718e-002
3.546600e+003;8.307099e-002
3.548528e+003;8.210120e-002
3.550457e+003;8.156698e-002
3.552385e+003;8.097161e-002
3.554314e+003;8.016603e-002
3.556242e+003;7.931179e-002
3.558171e+003;7.855120e-002
3.560100e+003;7.806749e-002
3.562028e+003;7.719195e-002
3.563957e+003;7.591759e-002
3.565885e+003;7.512999e-002
3.567814e+003;7.425209e-002
3.569742e+003;7.373206e-002
3.571671e+003;7.343387e-002
3.573599e+003;7.273129e-002
3.575528e+003;7.200955e-002
3.577457e+003;7.166263e-002
3.579385e+003;7.097141e-002
3.581314e+003;6.996050e-002
3.583242e+003;6.945045e-002
3.585171e+003;6.899941e-002
3.587099e+003;6.805535e-002
3.589028e+003;6.721905e-002
3.590956e+003;6.690140e-002
3.592885e+003;6.661937e-002
3.594813e+003;6.597227e-002
3.596742e+003;6.524999e-002
3.598671e+003;6.454603e-002
3.600599e+003;6.402639e-002
3.602528e+003;6.386662e-002
3.604456e+003;6.366588e-002
3.606385e+003;6.324452e-002
3.608313e+003;6.252478e-002
3.610242e+003;6.161992e-002
3.612170e+003;6.130356e-002
3.614099e+003;6.150099e-002
3.616028e+003;6.153134e-002
3.617956e+003;6.110396e-002
3.619885e+003;6.042823e-002
3.621813e+003;5.965706e-002
3.623742e+003;5.921432e-002
3.625670e+003;5.907889e-002
3.627599e+003;5.899550e-002
3.629527e+003;5.862165e-002
3.631456e+003;5.836313e-002
3.633385e+003;5.791364e-002
3.635313e+003;5.742022e-002
3.637241e+003;5.726815e-002
3.639170e+003;5.723261e-002
3.641099e+003;5.702581e-002
3.643027e+003;5.679845e-002
3.644956e+003;5.627808e-002
3.646884e+003;5.541892e-002
3.648813e+003;5.495389e-002
3.650741e+003;5.502376e-002
3.652670e+003;5.538989e-002
3.654598e+003;5.535560e-002
3.656527e+003;5.457028e-002
3.658456e+003;5.384671e-002
3.660384e+003;5.377039e-002
3.662313e+003;5.372415e-002
3.664241e+003;5.373476e-002
3.666170e+003;5.387492e-002
3.668098e+003;5.365321e-002
3.670027e+003;5.316008e-002
3.671955e+003;5.336628e-002
3.673884e+003;5.349859e-002
3.675813e+003;5.292425e-002
3.677741e+003;5.273356e-002
3.679669e+003;5.300158e-002
3.681598e+003;5.278362e-002
3.683527e+003;5.248810e-002
3.685455e+003;5.231744e-002
3.687384e+003;5.218321e-002
3.689312e+003;5.207647e-002
3.691241e+003;5.175067e-002
3.693169e+003;5.191430e-002
3.695098e+003;5.242390e-002
3.697026e+003;5.231882e-002
3.698955e+003;5.206989e-002
3.700884e+003;5.215425e-002
3.702812e+003;5.231236e-002
3.704741e+003;5.188462e-002
3.706669e+003;5.132587e-002
3.708598e+003;5.128358e-002
3.710526e+003;5.109730e-002
3.712455e+003;5.064432e-002
3.714383e+003;5.059313e-002
3.716312e+003;5.092637e-002
3.718240e+003;5.114971e-002
3.720169e+003;5.118915e-002
3.722098e+003;5.100641e-002
3.724026e+003;5.120588e-002
3.725955e+003;5.172540e-002
3.727883e+003;5.152363e-002
3.729812e+003;5.084207e-002
3.731740e+003;5.090137e-002
3.733669e+003;5.127143e-002
3.735597e+003;5.082147e-002
3.737526e+003;5.066405e-002
3.739455e+003;5.076240e-002
3.741383e+003;5.051343e-002
3.743312e+003;5.026598e-002
3.745240e+003;5.045500e-002
3.747169e+003;5.072609e-002
3.749097e+003;5.053193e-002
3.751026e+003;5.024958e-002
3.752954e+003;5.030292e-002
3.754883e+003;5.060333e-002
3.756812e+003;5.073819e-002
3.758740e+003;5.060768e-002
3.760668e+003;5.070073e-002
3.762597e+003;5.119608e-002
3.764526e+003;5.128541e-002
3.766454e+003;5.097567e-002
3.768383e+003;5.074851e-002
3.770311e+003;5.088818e-002
3.772240e+003;5.084721e-002
3.774168e+003;5.067869e-002
3.776097e+003;5.071685e-002
3.778025e+003;5.087839e-002
3.779954e+003;5.048961e-002
3.781883e+003;5.015801e-002
3.783811e+003;5.071447e-002
3.785740e+003;5.082128e-002
3.787668e+003;5.079566e-002
3.789597e+003;5.118240e-002
3.791525e+003;5.141564e-002
3.793454e+003;5.104963e-002
3.795382e+003;5.091028e-002
3.797311e+003;5.103242e-002
3.799240e+003;5.114799e-002
3.801168e+003;5.092134e-002
3.803097e+003;5.110688e-002
3.805025e+003;5.137599e-002
3.806954e+003;5.127620e-002
3.808882e+003;5.121062e-002
3.810811e+003;5.126777e-002
3.812739e+003;5.132546e-002
3.814668e+003;5.121364e-002
3.816596e+003;5.086695e-002
3.818525e+003;5.049999e-002
3.820454e+003;5.035445e-002
3.822382e+003;5.067534e-002
3.824311e+003;5.105768e-002
3.826239e+003;5.127840e-002
3.828168e+003;5.142552e-002
3.830096e+003;5.135287e-002
3.832025e+003;5.106659e-002
3.833953e+003;5.072423e-002
3.835882e+003;5.077283e-002
3.837811e+003;5.083838e-002
3.839739e+003;5.091586e-002
3.841667e+003;5.115172e-002
3.843596e+003;5.114945e-002
3.845525e+003;5.140628e-002
3.847453e+003;5.146469e-002
3.849382e+003;5.132669e-002
3.851310e+003;5.130469e-002
3.853239e+003;5.086252e-002
3.855167e+003;5.065724e-002
3.857096e+003;5.116995e-002
3.859024e+003;5.172271e-002
3.860953e+003;5.205477e-002
3.862882e+003;5.192431e-002
3.864810e+003;5.119205e-002
3.866739e+003;5.110606e-002
3.868667e+003;5.136480e-002
3.870596e+003;5.156295e-002
3.872524e+003;5.159754e-002
3.874453e+003;5.156403e-002
3.876381e+003;5.171204e-002
3.878310e+003;5.211282e-002
3.880239e+003;5.228825e-002
3.882167e+003;5.214379e-002
3.884096e+003;5.209967e-002
3.886024e+003;5.204378e-002
3.887953e+003;5.214416e-002
3.889881e+003;5.251782e-002
3.891810e+003;5.261958e-002
3.893738e+003;5.292953e-002
3.895667e+003;5.302026e-002
3.897595e+003;5.284034e-002
3.899524e+003;5.281714e-002
3.901453e+003;5.248828e-002
3.903381e+003;5.208432e-002
3.905310e+003;5.192879e-002
3.907238e+003;5.219677e-002
3.909167e+003;5.286328e-002
3.911095e+003;5.328218e-002
3.913024e+003;5.350440e-002
3.914952e+003;5.334605e-002
3.916881e+003;5.306474e-002
3.918810e+003;5.319711e-002
3.920738e+003;5.327109e-002
3.922667e+003;5.336354e-002
3.924595e+003;5.322689e-002
3.926524e+003;5.303857e-002
3.928452e+003;5.272420e-002
3.930381e+003;5.297235e-002
3.932309e+003;5.368793e-002
3.934238e+003;5.365247e-002
3.936167e+003;5.371613e-002
3.938095e+003;5.383452e-002
3.940023e+003;5.331656e-002
3.941952e+003;5.336512e-002
3.943881e+003;5.391142e-002
3.945809e+003;5.403741e-002
3.947738e+003;5.380298e-002
3.949666e+003;5.336182e-002
3.951595e+003;5.345658e-002
3.953523e+003;5.355511e-002
3.955452e+003;5.327727e-002
3.957380e+003;5.303183e-002
3.959309e+003;5.355399e-002
3.961238e+003;5.389589e-002
3.963166e+003;5.365329e-002
3.965095e+003;5.357007e-002
3.967023e+003;5.380073e-002
3.968952e+003;5.385039e-002
3.970880e+003;5.377234e-002
3.972809e+003;5.357011e-002
3.974737e+003;5.313352e-002
3.976666e+003;5.293593e-002
3.978594e+003;5.306508e-002
3.980523e+003;5.300289e-002
3.982452e+003;5.277744e-002
3.984380e+003;5.241355e-002
3.986309e+003;5.260881e-002
3.988237e+003;5.341139e-002
3.990166e+003;5.321119e-002
3.992094e+003;5.276184e-002
3.994023e+003;5.315030e-002
3.995951e+003;5.342177e-002
3.997880e+003;5.324266e-002
3.999809e+003;5.346201e-002
4.001737e+003;0.000000e+000
