3.992094e+002;0.000000e+000
4.011380e+002;0.000000e+000
4.030665e+002;0.000000e+000
4.049951e+002;0.000000e+000
4.069236e+002;0.000000e+000
4.088522e+002;0.000000e+000
4.107807e+002;0.000000e+000
4.127093e+002;0.000000e+000
4.146378e+002;0.000000e+000
4.165664e+002;0.000000e+000
4.184949e+002;0.000000e+000
4.204235e+002;0.000000e+000
4.223520e+002;0.000000e+000
4.242806e+002;0.000000e+000
4.262091e+002;0.000000e+000
4.281377e+002;0.000000e+000
4.300662e+002;0.000000e+000
4.319948e+002;0.000000e+000
4.339233e+002;0.000000e+000
4.358519e+002;0.000000e+000
4.377804e+002;0.000000e+000
4.397090e+002;0.000000e+000
4.416375e+002;0.000000e+000
4.435660e+002;0.000000e+000
4.454946e+002;0.000000e+000
4.474232e+002;0.000000e+000
4.493517e+002;0.000000e+000
4.512802e+002;0.000000e+000
4.532088e+002;0.000000e+000
4.551373e+002;0.000000e+000
4.570659e+002;0.000000e+000
4.589944e+002;0.000000e+000
4.609230e+002;0.000000e+000
4.628515e+002;0.000000e+000
4.647801e+002;0.000000e+000
4.667086e+002;0.000000e+000
4.686372e+002;0.000000e+000
4.705657e+002;0.000000e+000
4.724943e+002;0.000000e+000
4.744228e+002;0.000000e+000
4.763513e+002;0.000000e+000
4.782799e+002;0.000000e+000
4.802085e+002;0.000000e+000
4.821370e+002;0.000000e+000
4.840656e+002;0.000000e+000
4.859941e+002;0.000000e+000
4.879226e+002;0.000000e+000
4.898512e+002;0.000000e+000
4.917798e+002;0.000000e+000
4.937083e+002;0.000000e+000
4.956368e+002;0.000000e+000
4.975654e+002;0.000000e+000
4.994939e+002;0.000000e+000
5.014225e+002;0.000000e+000
5.033510e+002;0.000000e+000
5.052796e+002;0.000000e+000
5.072081e+002;0.000000e+000
5.091367e+002;0.000000e+000
5.110652e+002;0.000000e+000
5.129938e+002;0.000000e+000
5.149223e+002;0.000000e+000
5.168509e+002;0.000000e+000
5.187794e+002;0.000000e+000
5.207079e+002;0.000000e+000
5.226365e+002;0.000000e+000
5.245651e+002;0.000000e+000
5.264936e+002;0.000000e+000
5.284222e+002;0.000000e+000
5.303507e+002;0.000000e+000
5.322792e+002;0.000000e+000
5.342078e+002;0.000000e+000
5.361364e+002;0.000000e+000
5.380649e+002;0.000000e+000
5.399935e+002;0.000000e+000
5.419220e+002;0.000000e+000
5.438505e+002;0.000000e+000
5.457791e+002;0.000000e+000
5.477076e+002;0.000000e+000
5.496362e+002;0.000000e+000
5.515648e+002;0.000000e+000
5.534933e+002;0.000000e+000
5.554218e+002;0.000000e+000
5.573504e+002;0.000000e+000
5.592789e+002;0.000000e+000
5.612075e+002;0.000000e+000
5.631360e+002;0.000000e+000
5.650646e+002;0.000000e+000
5.669931e+002;0.000000e+000
5.689217e+002;0.000000e+000
5.708502e+002;0.000000e+000
5.727787e+002;0.000000e+000
5.747073e+002;0.000000e+000
5.766359e+002;0.000000e+000
5.785644e+002;0.000000e+000
5.804930e+002;0.000000e+000
5.824215e+002;0.000000e+000
5.843500e+002;0.000000e+000
5.862786e+002;0.000000e+000
5.882072e+002;0.000000e+000
5.901357e+002;0.000000e+000
5.920643e+002;0.000000e+000
5.939928e+002;0.000000e+000
5.959213e+002;0.000000e+000
5.978499e+002;0.000000e+000
5.997784e+002;2.746852e-001
6.017070e+002;2.732146e-001
6.036355e+002;2.733556e-001
6.055641e+002;2.762389e-001
6.074926e+002;2.787802e-001
6.094211e+002;2.807454e-001
6.113497e+002;2.805937e-001
6.132783e+002;2.716657e-001
6.152068e+002;2.634881e-001
6.171354e+002;2.624656e-001
6.190639e+002;2.606164e-001
6.209924e+002;2.586211e-001
6.229210e+002;2.603389e-001
6.248495e+002;2.603054e-001
6.267781e+002;2.577813e-001
6.287067e+002;2.532419e-001
6.306352e+002;2.536156e-001
6.325637e+002;2.531388e-001
6.344923e+002;2.506051e-001
6.364208e+002;2.523986e-001
6.383494e+002;2.527178e-001
6.402780e+002;2.492085e-001
6.422065e+002;2.471874e-001
6.441350e+002;2.454866e-001
6.460636e+002;2.422686e-001
6.479921e+002;2.432157e-001
6.499207e+002;2.458330e-001
6.518492e+002;2.443070e-001
6.537778e+002;2.411046e-001
6.557063e+002;2.406417e-001
6.576349e+002;2.421805e-001
6.595634e+002;2.444946e-001
6.614919e+002;2.478717e-001
6.634205e+002;2.498590e-001
6.653491e+002;2.499926e-001
6.672776e+002;2.474058e-001
6.692062e+002;2.449903e-001
6.711347e+002;2.412939e-001
6.730632e+002;2.342924e-001
6.749918e+002;2.265270e-001
6.769203e+002;2.172199e-001
6.788489e+002;2.107506e-001
6.807775e+002;2.059362e-001
6.827060e+002;2.024733e-001
6.846345e+002;1.997553e-001
6.865631e+002;1.960971e-001
6.884916e+002;1.941828e-001
6.904202e+002;1.928328e-001
6.923488e+002;1.923511e-001
6.942773e+002;1.924788e-001
6.962058e+002;1.924557e-001
6.981344e+002;1.921172e-001
7.000629e+002;1.906418e-001
7.019915e+002;1.893676e-001
7.039200e+002;1.884295e-001
7.058486e+002;1.884924e-001
7.077771e+002;1.887074e-001
7.097057e+002;1.879201e-001
7.116342e+002;1.872489e-001
7.135627e+002;1.863030e-001
7.154913e+002;1.848437e-001
7.174199e+002;1.838802e-001
7.193484e+002;1.833218e-001
7.212770e+002;1.817258e-001
7.232055e+002;1.802105e-001
7.251340e+002;1.785429e-001
7.270626e+002;1.762450e-001
7.289911e+002;1.754711e-001
7.309197e+002;1.751662e-001
7.328483e+002;1.738938e-001
7.347768e+002;1.725288e-001
7.367053e+002;1.708592e-001
7.386339e+002;1.689674e-001
7.405624e+002;1.677192e-001
7.424910e+002;1.670351e-001
7.444196e+002;1.667107e-001
7.463481e+002;1.658765e-001
7.482766e+002;1.650012e-001
7.502052e+002;1.640984e-001
7.521337e+002;1.626781e-001
7.540623e+002;1.612061e-001
7.559908e+002;1.596905e-001
7.579194e+002;1.581748e-001
7.598479e+002;1.576696e-001
7.617765e+002;1.572426e-001
7.637050e+002;1.563037e-001
7.656335e+002;1.546378e-001
7.675621e+002;1.531924e-001
7.694907e+002;1.520607e-001
7.714192e+002;1.509360e-001
7.733478e+002;1.501120e-001
7.752763e+002;1.488240e-001
7.772048e+002;1.471258e-001
7.791334e+002;1.458673e-001
7.810620e+002;1.454072e-001
7.829905e+002;1.451279e-001
7.849191e+002;1.444850e-001
7.868476e+002;1.438214e-001
7.887761e+002;1.429878e-001
7.907047e+002;1.414317e-001
7.926332e+002;1.401559e-001
7.945618e+002;1.399660e-001
7.964903e+002;1.398679e-001
7.984189e+002;1.389804e-001
8.003474e+002;1.383917e-001
8.022759e+002;1.382033e-001
8.042045e+002;1.383187e-001
8.061331e+002;1.384137e-001
8.080616e+002;1.381767e-001
8.099902e+002;1.377242e-001
8.119187e+002;1.371995e-001
8.138472e+002;1.367133e-001
8.157758e+002;1.361464e-001
8.177043e+002;1.358495e-001
8.196329e+002;1.358863e-001
8.215615e+002;1.363067e-001
8.234900e+002;1.366600e-001
8.254185e+002;1.366727e-001
8.273471e+002;1.364809e-001
8.292756e+002;1.362657e-001
8.312042e+002;1.359553e-001
8.331328e+002;1.359774e-001
8.350613e+002;1.359738e-001
8.369898e+002;1.354290e-001
8.389184e+002;1.345343e-001
8.408469e+002;1.336460e-001
8.427755e+002;1.327211e-001
8.447040e+002;1.319599e-001
8.466326e+002;1.318266e-001
8.485611e+002;1.317425e-001
8.504897e+002;1.314259e-001
8.524182e+002;1.310503e-001
8.543467e+002;1.309800e-001
8.562753e+002;1.314982e-001
8.582039e+002;1.317890e-001
8.601324e+002;1.325684e-001
8.620610e+002;1.339036e-001
8.639895e+002;1.349097e-001
8.659180e+002;1.356124e-001
8.678466e+002;1.364919e-001
8.697751e+002;1.385275e-001
8.717037e+002;1.414452e-001
8.736323e+002;1.441626e-001
8.755608e+002;1.469646e-001
8.774893e+002;1.503730e-001
8.794179e+002;1.544274e-001
8.813464e+002;1.594921e-001
8.832750e+002;1.646424e-001
8.852036e+002;1.697553e-001
8.871321e+002;1.752849e-001
8.890606e+002;1.805992e-001
8.909892e+002;1.850465e-001
8.929177e+002;1.883037e-001
8.948463e+002;1.902636e-001
8.967748e+002;1.900392e-001
8.987034e+002;1.878098e-001
9.006319e+002;1.848397e-001
9.025605e+002;1.814430e-001
9.044890e+002;1.779362e-001
9.064175e+002;1.739870e-001
9.083461e+002;1.701484e-001
9.102747e+002;1.673096e-001
9.122032e+002;1.652415e-001
9.141318e+002;1.636526e-001
9.160603e+002;1.628933e-001
9.179888e+002;1.622639e-001
9.199174e+002;1.621605e-001
9.218459e+002;1.632481e-001
9.237745e+002;1.647366e-001
9.257031e+002;1.659499e-001
9.276316e+002;1.673732e-001
9.295601e+002;1.691781e-001
9.314887e+002;1.708482e-001
9.334172e+002;1.720948e-001
9.353458e+002;1.738713e-001
9.372744e+002;1.759881e-001
9.392029e+002;1.782281e-001
9.411314e+002;1.804940e-001
9.430600e+002;1.830838e-001
9.449885e+002;1.865074e-001
9.469171e+002;1.904336e-001
9.488456e+002;1.946824e-001
9.507742e+002;1.993183e-001
9.527027e+002;2.045174e-001
9.546313e+002;2.099710e-001
9.565598e+002;2.154415e-001
9.584883e+002;2.212040e-001
9.604169e+002;2.271280e-001
9.623455e+002;2.327199e-001
9.642740e+002;2.382598e-001
9.662026e+002;2.442124e-001
9.681311e+002;2.506711e-001
9.700596e+002;2.577634e-001
9.719882e+002;2.656621e-001
9.739167e+002;2.748716e-001
9.758453e+002;2.854578e-001
9.777739e+002;2.973377e-001
9.797024e+002;3.115017e-001
9.816309e+002;3.276964e-001
9.835595e+002;3.448426e-001
9.854880e+002;3.617822e-001
9.874166e+002;3.776496e-001
9.893452e+002;3.915354e-001
9.912737e+002;4.026985e-001
9.932022e+002;4.108835e-001
9.951307e+002;4.157957e-001
9.970593e+002;4.186545e-001
9.989879e+002;4.202516e-001
1.000916e+003;4.212136e-001
1.002845e+003;4.229509e-001
1.004773e+003;4.270514e-001
1.006702e+003;4.332462e-001
1.008631e+003;4.411277e-001
1.010559e+003;4.500350e-001
1.012488e+003;4.595022e-001
1.014416e+003;4.685631e-001
1.016345e+003;4.752795e-001
1.018273e+003;4.788955e-001
1.020202e+003;4.808688e-001
1.022130e+003;4.813382e-001
1.024059e+003;4.793696e-001
1.025988e+003;4.753658e-001
1.027916e+003;4.703822e-001
1.029845e+003;4.652019e-001
1.031773e+003;4.598478e-001
1.033702e+003;4.547909e-001
1.035630e+003;4.501087e-001
1.037559e+003;4.456001e-001
1.039487e+003;4.422162e-001
1.041416e+003;4.401907e-001
1.043344e+003;4.372024e-001
1.045273e+003;4.328019e-001
1.047202e+003;4.287654e-001
1.049130e+003;4.256895e-001
1.051059e+003;4.224671e-001
1.052987e+003;4.192260e-001
1.054916e+003;4.153945e-001
1.056844e+003;4.112132e-001
1.058773e+003;4.061160e-001
1.060701e+003;3.997927e-001
1.062630e+003;3.927340e-001
1.064558e+003;3.855449e-001
1.066487e+003;3.779557e-001
1.068416e+003;3.702505e-001
1.070344e+003;3.623048e-001
1.072273e+003;3.547330e-001
1.074201e+003;3.472320e-001
1.076130e+003;3.392268e-001
1.078058e+003;3.317171e-001
1.079987e+003;3.249507e-001
1.081915e+003;3.187500e-001
1.083844e+003;3.126079e-001
1.085773e+003;3.062618e-001
1.087701e+003;3.006353e-001
1.089630e+003;2.952331e-001
1.091558e+003;2.905198e-001
1.093487e+003;2.853427e-001
1.095415e+003;2.796138e-001
1.097344e+003;2.741302e-001
1.099272e+003;2.676062e-001
1.101201e+003;2.607009e-001
1.103129e+003;2.552356e-001
1.105058e+003;2.505870e-001
1.106987e+003;2.460659e-001
1.108915e+003;2.419172e-001
1.110844e+003;2.382156e-001
1.112772e+003;2.341386e-001
1.114701e+003;2.296167e-001
1.116629e+003;2.246425e-001
1.118558e+003;2.190845e-001
1.120486e+003;2.132860e-001
1.122415e+003;2.072624e-001
1.124344e+003;2.010880e-001
1.126272e+003;1.948542e-001
1.128201e+003;1.893198e-001
1.130129e+003;1.839314e-001
1.132058e+003;1.787711e-001
1.133986e+003;1.740807e-001
1.135915e+003;1.697011e-001
1.137843e+003;1.660386e-001
1.139772e+003;1.635501e-001
1.141700e+003;1.621166e-001
1.143629e+003;1.616891e-001
1.145557e+003;1.624373e-001
1.147486e+003;1.637562e-001
1.149415e+003;1.654611e-001
1.151343e+003;1.674978e-001
1.153272e+003;1.693445e-001
1.155200e+003;1.702551e-001
1.157129e+003;1.697204e-001
1.159057e+003;1.672745e-001
1.160986e+003;1.634757e-001
1.162914e+003;1.581592e-001
1.164843e+003;1.515683e-001
1.166771e+003;1.445419e-001
1.168700e+003;1.374191e-001
1.170629e+003;1.308615e-001
1.172557e+003;1.248335e-001
1.174486e+003;1.193839e-001
1.176414e+003;1.148248e-001
1.178343e+003;1.110288e-001
1.180271e+003;1.080585e-001
1.182200e+003;1.059211e-001
1.184128e+003;1.044034e-001
1.186057e+003;1.038619e-001
1.187986e+003;1.047338e-001
1.189914e+003;1.070172e-001
1.191843e+003;1.097616e-001
1.193771e+003;1.122666e-001
1.195700e+003;1.145962e-001
1.197628e+003;1.165829e-001
1.199557e+003;1.173632e-001
1.201485e+003;1.166056e-001
1.203414e+003;1.151666e-001
1.205343e+003;1.135799e-001
1.207271e+003;1.114040e-001
1.209200e+003;1.091303e-001
1.211128e+003;1.077741e-001
1.213057e+003;1.073178e-001
1.214985e+003;1.079379e-001
1.216914e+003;1.093200e-001
1.218842e+003;1.109433e-001
1.220771e+003;1.127369e-001
1.222699e+003;1.148864e-001
1.224628e+003;1.169582e-001
1.226557e+003;1.182436e-001
1.228485e+003;1.193852e-001
1.230414e+003;1.204598e-001
1.232342e+003;1.210060e-001
1.234271e+003;1.213201e-001
1.236199e+003;1.213842e-001
1.238128e+003;1.212179e-001
1.240056e+003;1.212975e-001
1.241985e+003;1.212568e-001
1.243913e+003;1.211506e-001
1.245842e+003;1.213028e-001
1.247771e+003;1.217420e-001
1.249699e+003;1.223330e-001
1.251628e+003;1.231746e-001
1.253556e+003;1.241683e-001
1.255485e+003;1.250818e-001
1.257413e+003;1.259993e-001
1.259342e+003;1.262867e-001
1.261270e+003;1.260498e-001
1.263199e+003;1.259469e-001
1.265127e+003;1.257589e-001
1.267056e+003;1.250903e-001
1.268985e+003;1.238443e-001
1.270913e+003;1.225579e-001
1.272842e+003;1.216663e-001
1.274770e+003;1.208928e-001
1.276699e+003;1.202067e-001
1.278627e+003;1.195537e-001
1.280556e+003;1.188323e-001
1.282484e+003;1.182971e-001
1.284413e+003;1.181515e-001
1.286342e+003;1.182814e-001
1.288270e+003;1.190213e-001
1.290199e+003;1.204650e-001
1.292127e+003;1.220983e-001
1.294056e+003;1.236975e-001
1.295984e+003;1.253021e-001
1.297913e+003;1.268864e-001
1.299841e+003;1.287091e-001
1.301770e+003;1.305932e-001
1.303698e+003;1.323390e-001
1.305627e+003;1.339663e-001
1.307556e+003;1.357009e-001
1.309484e+003;1.374080e-001
1.311413e+003;1.388035e-001
1.313341e+003;1.398649e-001
1.315270e+003;1.404002e-001
1.317198e+003;1.402255e-001
1.319127e+003;1.395013e-001
1.321055e+003;1.383985e-001
1.322984e+003;1.377136e-001
1.324912e+003;1.376736e-001
1.326841e+003;1.377249e-001
1.328770e+003;1.376180e-001
1.330698e+003;1.375851e-001
1.332627e+003;1.378468e-001
1.334555e+003;1.380154e-001
1.336484e+003;1.378280e-001
1.338412e+003;1.373356e-001
1.340341e+003;1.368593e-001
1.342269e+003;1.364819e-001
1.344198e+003;1.360357e-001
1.346126e+003;1.360623e-001
1.348055e+003;1.363163e-001
1.349984e+003;1.365903e-001
1.351912e+003;1.370833e-001
1.353841e+003;1.376676e-001
1.355769e+003;1.382572e-001
1.357698e+003;1.389586e-001
1.359626e+003;1.398737e-001
1.361555e+003;1.407578e-001
1.363483e+003;1.415345e-001
1.365412e+003;1.417662e-001
1.367341e+003;1.411924e-001
1.369269e+003;1.402459e-001
1.371198e+003;1.390911e-001
1.373126e+003;1.376644e-001
1.375055e+003;1.362830e-001
1.376983e+003;1.347034e-001
1.378912e+003;1.326323e-001
1.380840e+003;1.305640e-001
1.382769e+003;1.285432e-001
1.384698e+003;1.262811e-001
1.386626e+003;1.239715e-001
1.388555e+003;1.226901e-001
1.390483e+003;1.221954e-001
1.392412e+003;1.214102e-001
1.394340e+003;1.204321e-001
1.396269e+003;1.202306e-001
1.398197e+003;1.201200e-001
1.400126e+003;1.200145e-001
1.402054e+003;1.202007e-001
1.403983e+003;1.201100e-001
1.405911e+003;1.201006e-001
1.407840e+003;1.202796e-001
1.409769e+003;1.201190e-001
1.411697e+003;1.201726e-001
1.413626e+003;1.202328e-001
1.415554e+003;1.198729e-001
1.417483e+003;1.187937e-001
1.419411e+003;1.181493e-001
1.421340e+003;1.187526e-001
1.423268e+003;1.189493e-001
1.425197e+003;1.190274e-001
1.427125e+003;1.186967e-001
1.429054e+003;1.177095e-001
1.430983e+003;1.172701e-001
1.432911e+003;1.170174e-001
1.434840e+003;1.157275e-001
1.436768e+003;1.142539e-001
1.438697e+003;1.142824e-001
1.440625e+003;1.140789e-001
1.442554e+003;1.133029e-001
1.444482e+003;1.120837e-001
1.446411e+003;1.107106e-001
1.448340e+003;1.095601e-001
1.450268e+003;1.086181e-001
1.452197e+003;1.073890e-001
1.454125e+003;1.054015e-001
1.456054e+003;1.023664e-001
1.457982e+003;1.014433e-001
1.459911e+003;1.019549e-001
1.461839e+003;1.011946e-001
1.463768e+003;9.917752e-002
1.465697e+003;9.746043e-002
1.467625e+003;9.652136e-002
1.469554e+003;9.470323e-002
1.471482e+003;9.180485e-002
1.473411e+003;8.995945e-002
1.475339e+003;8.902521e-002
1.477268e+003;8.764265e-002
1.479196e+003;8.612231e-002
1.481125e+003;8.440352e-002
1.483053e+003;8.273577e-002
1.484982e+003;8.097465e-002
1.486911e+003;7.907680e-002
1.488839e+003;7.713412e-002
1.490768e+003;7.603130e-002
1.492696e+003;7.558859e-002
1.494625e+003;7.415413e-002
1.496553e+003;7.263520e-002
1.498482e+003;7.277568e-002
1.500410e+003;7.327405e-002
1.502339e+003;7.301442e-002
1.504267e+003;7.076939e-002
1.506196e+003;6.839351e-002
1.508125e+003;6.892488e-002
1.510053e+003;7.029111e-002
1.511982e+003;7.054318e-002
1.513910e+003;7.037468e-002
1.515839e+003;6.967030e-002
1.517767e+003;6.911524e-002
1.519696e+003;6.799944e-002
1.521624e+003;6.738359e-002
1.523553e+003;6.842784e-002
1.525481e+003;6.901603e-002
1.527410e+003;6.968606e-002
1.529339e+003;7.027156e-002
1.531267e+003;6.979371e-002
1.533196e+003;6.883228e-002
1.535124e+003;6.932776e-002
1.537053e+003;6.866808e-002
1.538981e+003;6.615999e-002
1.540910e+003;6.610806e-002
1.542838e+003;6.774488e-002
1.544767e+003;6.889118e-002
1.546695e+003;6.982736e-002
1.548624e+003;7.011998e-002
1.550553e+003;7.021075e-002
1.552481e+003;6.992225e-002
1.554410e+003;6.935436e-002
1.556338e+003;6.834387e-002
1.558267e+003;6.608418e-002
1.560195e+003;6.699843e-002
1.562124e+003;7.009116e-002
1.564052e+003;7.132044e-002
1.565981e+003;7.147998e-002
1.567910e+003;7.095464e-002
1.569838e+003;7.078316e-002
1.571767e+003;7.186659e-002
1.573695e+003;7.158819e-002
1.575624e+003;7.019584e-002
1.577552e+003;7.151861e-002
1.579481e+003;7.345757e-002
1.581409e+003;7.402744e-002
1.583338e+003;7.462410e-002
1.585266e+003;7.514886e-002
1.587195e+003;7.516658e-002
1.589124e+003;7.545714e-002
1.591052e+003;7.625356e-002
1.592981e+003;7.668772e-002
1.594909e+003;7.696111e-002
1.596838e+003;7.746822e-002
1.598766e+003;7.788351e-002
1.600695e+003;7.824123e-002
1.602623e+003;7.880073e-002
1.604552e+003;7.945233e-002
1.606480e+003;8.001299e-002
1.608409e+003;8.038934e-002
1.610338e+003;8.062141e-002
1.612266e+003;8.094662e-002
1.614195e+003;8.063928e-002
1.616123e+003;7.960151e-002
1.618052e+003;8.068018e-002
1.619980e+003;8.246218e-002
1.621909e+003;8.279718e-002
1.623837e+003;8.318117e-002
1.625766e+003;8.394702e-002
1.627694e+003;8.426986e-002
1.629623e+003;8.476565e-002
1.631552e+003;8.514562e-002
1.633480e+003;8.429685e-002
1.635409e+003;8.343197e-002
1.637337e+003;8.477096e-002
1.639266e+003;8.607642e-002
1.641194e+003;8.626693e-002
1.643123e+003;8.588546e-002
1.645051e+003;8.428104e-002
1.646980e+003;8.345506e-002
1.648909e+003;8.399454e-002
1.650837e+003;8.209476e-002
1.652766e+003;7.906550e-002
1.654694e+003;8.067998e-002
1.656623e+003;8.275164e-002
1.658551e+003;8.247984e-002
1.660480e+003;8.129021e-002
1.662408e+003;8.021712e-002
1.664337e+003;7.999921e-002
1.666266e+003;7.938856e-002
1.668194e+003;7.791868e-002
1.670123e+003;7.708723e-002
1.672051e+003;7.673675e-002
1.673980e+003;7.525082e-002
1.675908e+003;7.433398e-002
1.677837e+003;7.453110e-002
1.679765e+003;7.384281e-002
1.681694e+003;7.213988e-002
1.683622e+003;6.933507e-002
1.685551e+003;6.935132e-002
1.687479e+003;7.057995e-002
1.689408e+003;7.018501e-002
1.691337e+003;6.977176e-002
1.693265e+003;6.850581e-002
1.695194e+003;6.596517e-002
1.697122e+003;6.564154e-002
1.699051e+003;6.469748e-002
1.700979e+003;6.413269e-002
1.702908e+003;6.547743e-002
1.704836e+003;6.531153e-002
1.706765e+003;6.504777e-002
1.708693e+003;6.491154e-002
1.710622e+003;6.473198e-002
1.712551e+003;6.415958e-002
1.714479e+003;6.297746e-002
1.716408e+003;6.125746e-002
1.718336e+003;6.116056e-002
1.720265e+003;6.265065e-002
1.722193e+003;6.292284e-002
1.724122e+003;6.258800e-002
1.726050e+003;6.239902e-002
1.727979e+003;6.195180e-002
1.729908e+003;6.131973e-002
1.731836e+003;5.980682e-002
1.733765e+003;5.818830e-002
1.735693e+003;5.877056e-002
1.737622e+003;5.886180e-002
1.739550e+003;5.790884e-002
1.741479e+003;5.804830e-002
1.743407e+003;5.818220e-002
1.745336e+003;5.789188e-002
1.747265e+003;5.756864e-002
1.749193e+003;5.738252e-002
1.751122e+003;5.754352e-002
1.753050e+003;5.875383e-002
1.754979e+003;5.936222e-002
1.756907e+003;5.935420e-002
1.758836e+003;5.949892e-002
1.760764e+003;5.936606e-002
1.762693e+003;5.941681e-002
1.764621e+003;5.973503e-002
1.766550e+003;5.951994e-002
1.768479e+003;5.943049e-002
1.770407e+003;5.917115e-002
1.772336e+003;5.874233e-002
1.774264e+003;5.946141e-002
1.776193e+003;6.007092e-002
1.778121e+003;6.006471e-002
1.780050e+003;5.999425e-002
1.781978e+003;5.999505e-002
1.783907e+003;5.991434e-002
1.785835e+003;6.020426e-002
1.787764e+003;6.038756e-002
1.789693e+003;5.973918e-002
1.791621e+003;5.890885e-002
1.793550e+003;5.909165e-002
1.795478e+003;5.968561e-002
1.797407e+003;5.959279e-002
1.799335e+003;5.915178e-002
1.801264e+003;5.902260e-002
1.803192e+003;5.938946e-002
1.805121e+003;5.969846e-002
1.807049e+003;5.957063e-002
1.808978e+003;5.908667e-002
1.810907e+003;5.888419e-002
1.812835e+003;5.900905e-002
1.814764e+003;5.926365e-002
1.816692e+003;5.956155e-002
1.818621e+003;5.964026e-002
1.820549e+003;5.929981e-002
1.822478e+003;5.896251e-002
1.824406e+003;5.878213e-002
1.826335e+003;5.889367e-002
1.828264e+003;5.873012e-002
1.830192e+003;5.853163e-002
1.832121e+003;5.874059e-002
1.834049e+003;5.892984e-002
1.835978e+003;5.903349e-002
1.837906e+003;5.906891e-002
1.839835e+003;5.880656e-002
1.841763e+003;5.815299e-002
1.843692e+003;5.759509e-002
1.845620e+003;5.815038e-002
1.847549e+003;5.875853e-002
1.849478e+003;5.874814e-002
1.851406e+003;5.868024e-002
1.853335e+003;5.854266e-002
1.855263e+003;5.851616e-002
1.857192e+003;5.857948e-002
1.859120e+003;5.853333e-002
1.861049e+003;5.847196e-002
1.862977e+003;5.858274e-002
1.864906e+003;5.849068e-002
1.866834e+003;5.787840e-002
1.868763e+003;5.765740e-002
1.870692e+003;5.810439e-002
1.872620e+003;5.840224e-002
1.874549e+003;5.854243e-002
1.876477e+003;5.857353e-002
1.878406e+003;5.837893e-002
1.880334e+003;5.832398e-002
1.882263e+003;5.842343e-002
1.884191e+003;5.839903e-002
1.886120e+003;5.838671e-002
1.888048e+003;5.820038e-002
1.889977e+003;5.828105e-002
1.891906e+003;5.863845e-002
1.893834e+003;5.865130e-002
1.895763e+003;5.842976e-002
1.897691e+003;5.819663e-002
1.899620e+003;5.839440e-002
1.901548e+003;5.862684e-002
1.903477e+003;5.863435e-002
1.905405e+003;5.873141e-002
1.907334e+003;5.891139e-002
1.909262e+003;5.904336e-002
1.911191e+003;5.918649e-002
1.913120e+003;5.936925e-002
1.915048e+003;5.943311e-002
1.916977e+003;5.916219e-002
1.918905e+003;5.921151e-002
1.920834e+003;5.950861e-002
1.922762e+003;5.954251e-002
1.924691e+003;5.959663e-002
1.926619e+003;5.981622e-002
1.928548e+003;5.988794e-002
1.930477e+003;5.995549e-002
1.932405e+003;6.008492e-002
1.934334e+003;6.025862e-002
1.936262e+003;6.033194e-002
1.938191e+003;6.022341e-002
1.940119e+003;6.008245e-002
1.942048e+003;6.037066e-002
1.943976e+003;6.085651e-002
1.945905e+003;6.102037e-002
1.947833e+003;6.089722e-002
1.949762e+003;6.091285e-002
1.951691e+003;6.113939e-002
1.953619e+003;6.116598e-002
1.955548e+003;6.116388e-002
1.957476e+003;6.144556e-002
1.959405e+003;6.159346e-002
1.961333e+003;6.148988e-002
1.963262e+003;6.146285e-002
1.965190e+003;6.146576e-002
1.967119e+003;6.148908e-002
1.969047e+003;6.164161e-002
1.970976e+003;6.183262e-002
1.972905e+003;6.196907e-002
1.974833e+003;6.196146e-002
1.976762e+003;6.203939e-002
1.978690e+003;6.190216e-002
1.980619e+003;6.201581e-002
1.982547e+003;6.233074e-002
1.984476e+003;6.255773e-002
1.986404e+003;6.256504e-002
1.988333e+003;6.236077e-002
1.990261e+003;6.233373e-002
1.992190e+003;6.253125e-002
1.994119e+003;6.264449e-002
1.996047e+003;6.267132e-002
1.997976e+003;6.268253e-002
1.999904e+003;6.270860e-002
2.001833e+003;6.292663e-002
2.003761e+003;6.302948e-002
2.005690e+003;6.301822e-002
2.007618e+003;6.315580e-002
2.009547e+003;6.352836e-002
2.011476e+003;6.376176e-002
2.013404e+003;6.368015e-002
2.015333e+003;6.354132e-002
2.017261e+003;6.379945e-002
2.019190e+003;6.416672e-002
2.021118e+003;6.429023e-002
2.023047e+003;6.401361e-002
2.024975e+003;6.400443e-002
2.026904e+003;6.420782e-002
2.028833e+003;6.409045e-002
2.030761e+003;6.429195e-002
2.032690e+003;6.460658e-002
2.034618e+003;6.464741e-002
2.036547e+003;6.474144e-002
2.038475e+003;6.489696e-002
2.040404e+003;6.503357e-002
2.042332e+003;6.508777e-002
2.044261e+003;6.491243e-002
2.046189e+003;6.472660e-002
2.048118e+003;6.458863e-002
2.050047e+003;6.465218e-002
2.051975e+003;6.503892e-002
2.053904e+003;6.518385e-002
2.055832e+003;6.521457e-002
2.057761e+003;6.531596e-002
2.059689e+003;6.541044e-002
2.061618e+003;6.544453e-002
2.063546e+003;6.512256e-002
2.065475e+003;6.488308e-002
2.067404e+003;6.505378e-002
2.069332e+003;6.528150e-002
2.071260e+003;6.525831e-002
2.073189e+003;6.522351e-002
2.075118e+003;6.514670e-002
2.077046e+003;6.504320e-002
2.078975e+003;6.511798e-002
2.080903e+003;6.525896e-002
2.082832e+003;6.536014e-002
2.084760e+003;6.547928e-002
2.086689e+003;6.586964e-002
2.088617e+003;6.596667e-002
2.090546e+003;6.559225e-002
2.092475e+003;6.549592e-002
2.094403e+003;6.563218e-002
2.096332e+003;6.563908e-002
2.098260e+003;6.560108e-002
2.100189e+003;6.559256e-002
2.102117e+003;6.561299e-002
2.104046e+003;6.576528e-002
2.105974e+003;6.598110e-002
2.107903e+003;6.613020e-002
2.109832e+003;6.602615e-002
2.111760e+003;6.609672e-002
2.113688e+003;6.631004e-002
2.115617e+003;6.614275e-002
2.117546e+003;6.601512e-002
2.119474e+003;6.606747e-002
2.121403e+003;6.610227e-002
2.123331e+003;6.615134e-002
2.125260e+003;6.618727e-002
2.127188e+003;6.626554e-002
2.129117e+003;6.623755e-002
2.131045e+003;6.622197e-002
2.132974e+003;6.627461e-002
2.134903e+003;6.631193e-002
2.136831e+003;6.637099e-002
2.138760e+003;6.649926e-002
2.140688e+003;6.656267e-002
2.142617e+003;6.626125e-002
2.144545e+003;6.609791e-002
2.146474e+003;6.607229e-002
2.148402e+003;6.613503e-002
2.150331e+003;6.629197e-002
2.152260e+003;6.640632e-002
2.154188e+003;6.643875e-002
2.156117e+003;6.629352e-002
2.158045e+003;6.612183e-002
2.159974e+003;6.605096e-002
2.161902e+003;6.613950e-002
2.163831e+003;6.617349e-002
2.165759e+003;6.602592e-002
2.167688e+003;6.599422e-002
2.169616e+003;6.615181e-002
2.171545e+003;6.600845e-002
2.173474e+003;6.585152e-002
2.175402e+003;6.580125e-002
2.177331e+003;6.576736e-002
2.179259e+003;6.574288e-002
2.181188e+003;6.569647e-002
2.183116e+003;6.561160e-002
2.185045e+003;6.533614e-002
2.186973e+003;6.523344e-002
2.188902e+003;6.563052e-002
2.190831e+003;6.582315e-002
2.192759e+003;6.555977e-002
2.194688e+003;6.518635e-002
2.196616e+003;6.513596e-002
2.198545e+003;6.530856e-002
2.200473e+003;6.542145e-002
2.202402e+003;6.533768e-002
2.204330e+003;6.510932e-002
2.206259e+003;6.516290e-002
2.208188e+003;6.513807e-002
2.210116e+003;6.491801e-002
2.212044e+003;6.486311e-002
2.213973e+003;6.491678e-002
2.215902e+003;6.497531e-002
2.217830e+003;6.516695e-002
2.219759e+003;6.507098e-002
2.221687e+003;6.475556e-002
2.223616e+003;6.486153e-002
2.225544e+003;6.509031e-002
2.227473e+003;6.500902e-002
2.229401e+003;6.485834e-002
2.231330e+003;6.458605e-002
2.233259e+003;6.454949e-002
2.235187e+003;6.471714e-002
2.237116e+003;6.460627e-002
2.239044e+003;6.454745e-002
2.240973e+003;6.460262e-002
2.242901e+003;6.437952e-002
2.244830e+003;6.425100e-002
2.246758e+003;6.413968e-002
2.248687e+003;6.403983e-002
2.250615e+003;6.405723e-002
2.252544e+003;6.402828e-002
2.254473e+003;6.396454e-002
2.256401e+003;6.399675e-002
2.258330e+003;6.405938e-002
2.260258e+003;6.386627e-002
2.262187e+003;6.380194e-002
2.264115e+003;6.391609e-002
2.266044e+003;6.393590e-002
2.267972e+003;6.398527e-002
2.269901e+003;6.394722e-002
2.271830e+003;6.370950e-002
2.273758e+003;6.359084e-002
2.275687e+003;6.369439e-002
2.277615e+003;6.377800e-002
2.279544e+003;6.369373e-002
2.281472e+003;6.364152e-002
2.283401e+003;6.351782e-002
2.285329e+003;6.357059e-002
2.287258e+003;6.367052e-002
2.289187e+003;6.366043e-002
2.291115e+003;6.361397e-002
2.293043e+003;6.351244e-002
2.294972e+003;6.356261e-002
2.296901e+003;6.352736e-002
2.298829e+003;6.333046e-002
2.300758e+003;6.347846e-002
2.302686e+003;6.356069e-002
2.304615e+003;6.353266e-002
2.306543e+003;6.347064e-002
2.308472e+003;6.365068e-002
2.310400e+003;6.372147e-002
2.312329e+003;6.367321e-002
2.314258e+003;6.381127e-002
2.316186e+003;6.361094e-002
2.318115e+003;6.341573e-002
2.320043e+003;6.358171e-002
2.321972e+003;6.389414e-002
2.323900e+003;6.406453e-002
2.325829e+003;6.370459e-002
2.327757e+003;6.336976e-002
2.329686e+003;6.342344e-002
2.331615e+003;6.357853e-002
2.333543e+003;6.364021e-002
2.335472e+003;6.385959e-002
2.337400e+003;6.404214e-002
2.339329e+003;6.411061e-002
2.341257e+003;6.419810e-002
2.343186e+003;6.418247e-002
2.345114e+003;6.407658e-002
2.347043e+003;6.408891e-002
2.348971e+003;6.435854e-002
2.350900e+003;6.463811e-002
2.352829e+003;6.472710e-002
2.354757e+003;6.466522e-002
2.356686e+003;6.480999e-002
2.358614e+003;6.499058e-002
2.360543e+003;6.518947e-002
2.362471e+003;6.531808e-002
2.364400e+003;6.511371e-002
2.366328e+003;6.497446e-002
2.368257e+003;6.511655e-002
2.370186e+003;6.528808e-002
2.372114e+003;6.520056e-002
2.374042e+003;6.491332e-002
2.375971e+003;6.501587e-002
2.377900e+003;6.524360e-002
2.379828e+003;6.537177e-002
2.381757e+003;6.547901e-002
2.383685e+003;6.548675e-002
2.385614e+003;6.558724e-002
2.387542e+003;6.577441e-002
2.389471e+003;6.586324e-002
2.391399e+003;6.584439e-002
2.393328e+003;6.601142e-002
2.395257e+003;6.618553e-002
2.397185e+003;6.626257e-002
2.399114e+003;6.637991e-002
2.401042e+003;6.634767e-002
2.402971e+003;6.619962e-002
2.404899e+003;6.635323e-002
2.406828e+003;6.640987e-002
2.408756e+003;6.653069e-002
2.410685e+003;6.686608e-002
2.412614e+003;6.702843e-002
2.414542e+003;6.720068e-002
2.416471e+003;6.730168e-002
2.418399e+003;6.729827e-002
2.420328e+003;6.736138e-002
2.422256e+003;6.727197e-002
2.424185e+003;6.737020e-002
2.426113e+003;6.768955e-002
2.428042e+003;6.760258e-002
2.429970e+003;6.770340e-002
2.431899e+003;6.804442e-002
2.433828e+003;6.826418e-002
2.435756e+003;6.826650e-002
2.437685e+003;6.831843e-002
2.439613e+003;6.855849e-002
2.441542e+003;6.871241e-002
2.443470e+003;6.891471e-002
2.445399e+003;6.898997e-002
2.447327e+003;6.905659e-002
2.449256e+003;6.916533e-002
2.451185e+003;6.926034e-002
2.453113e+003;6.944536e-002
2.455042e+003;6.961903e-002
2.456970e+003;6.964082e-002
2.458899e+003;6.986892e-002
2.460827e+003;6.994136e-002
2.462756e+003;7.004724e-002
2.464684e+003;7.035699e-002
2.466613e+003;7.047666e-002
2.468542e+003;7.040211e-002
2.470470e+003;7.035255e-002
2.472398e+003;7.036537e-002
2.474327e+003;7.059893e-002
2.476256e+003;7.088356e-002
2.478184e+003;7.118406e-002
2.480113e+003;7.127413e-002
2.482041e+003;7.130310e-002
2.483970e+003;7.129978e-002
2.485898e+003;7.137421e-002
2.487827e+003;7.136691e-002
2.489755e+003;7.134417e-002
2.491684e+003;7.153673e-002
2.493613e+003;7.171226e-002
2.495541e+003;7.162844e-002
2.497470e+003;7.129197e-002
2.499398e+003;7.126812e-002
2.501327e+003;7.163958e-002
2.503255e+003;7.196548e-002
2.505184e+003;7.219540e-002
2.507112e+003;7.234297e-002
2.509041e+003;7.243413e-002
2.510969e+003;7.234269e-002
2.512898e+003;7.222717e-002
2.514827e+003;7.230442e-002
2.516755e+003;7.233929e-002
2.518684e+003;7.226556e-002
2.520612e+003;7.267535e-002
2.522541e+003;7.307789e-002
2.524469e+003;7.314470e-002
2.526398e+003;7.308777e-002
2.528326e+003;7.309765e-002
2.530255e+003;7.304034e-002
2.532184e+003;7.296029e-002
2.534112e+003;7.288763e-002
2.536041e+003;7.297197e-002
2.537969e+003;7.308283e-002
2.539898e+003;7.284965e-002
2.541826e+003;7.286987e-002
2.543755e+003;7.314286e-002
2.545683e+003;7.324557e-002
2.547612e+003;7.336925e-002
2.549541e+003;7.349340e-002
2.551469e+003;7.363077e-002
2.553397e+003;7.373957e-002
2.555326e+003;7.378174e-002
2.557255e+003;7.398131e-002
2.559183e+003;7.407498e-002
2.561112e+003;7.406913e-002
2.563040e+003;7.420393e-002
2.564969e+003;7.427406e-002
2.566897e+003;7.431196e-002
2.568826e+003;7.441829e-002
2.570754e+003;7.428853e-002
2.572683e+003;7.422689e-002
2.574612e+003;7.432474e-002
2.576540e+003;7.454526e-002
2.578469e+003;7.476404e-002
2.580397e+003;7.492823e-002
2.582326e+003;7.504538e-002
2.584254e+003;7.507772e-002
2.586183e+003;7.503349e-002
2.588111e+003;7.501203e-002
2.590040e+003;7.512700e-002
2.591969e+003;7.531813e-002
2.593897e+003;7.543349e-002
2.595826e+003;7.555350e-002
2.597754e+003;7.554889e-002
2.599683e+003;7.547598e-002
2.601611e+003;7.547677e-002
2.603540e+003;7.565422e-002
2.605468e+003;7.588168e-002
2.607397e+003;7.594178e-002
2.609325e+003;7.606067e-002
2.611254e+003;7.629640e-002
2.613183e+003;7.658898e-002
2.615111e+003;7.654776e-002
2.617040e+003;7.647209e-002
2.618968e+003;7.665748e-002
2.620897e+003;7.693927e-002
2.622825e+003;7.703599e-002
2.624754e+003;7.710777e-002
2.626682e+003;7.719313e-002
2.628611e+003;7.713840e-002
2.630540e+003;7.753741e-002
2.632468e+003;7.784224e-002
2.634396e+003;7.809430e-002
2.636325e+003;7.826972e-002
2.638254e+003;7.824321e-002
2.640182e+003;7.821556e-002
2.642111e+003;7.837880e-002
2.644039e+003;7.864666e-002
2.645968e+003;7.899917e-002
2.647896e+003;7.886346e-002
2.649825e+003;7.870242e-002
2.651753e+003;7.895887e-002
2.653682e+003;7.923639e-002
2.655611e+003;7.942201e-002
2.657539e+003;7.955873e-002
2.659468e+003;7.953732e-002
2.661396e+003;7.967005e-002
2.663325e+003;8.021836e-002
2.665253e+003;8.067886e-002
2.667182e+003;8.054622e-002
2.669110e+003;8.026866e-002
2.671039e+003;8.047112e-002
2.672968e+003;8.099912e-002
2.674896e+003;8.139610e-002
2.676825e+003;8.129416e-002
2.678753e+003;8.112323e-002
2.680682e+003;8.121949e-002
2.682610e+003;8.122537e-002
2.684539e+003;8.127275e-002
2.686467e+003;8.170690e-002
2.688396e+003;8.199734e-002
2.690324e+003;8.203860e-002
2.692253e+003;8.225033e-002
2.694182e+003;8.261628e-002
2.696110e+003;8.298342e-002
2.698039e+003;8.282429e-002
2.699967e+003;8.270021e-002
2.701896e+003;8.304030e-002
2.703824e+003;8.333364e-002
2.705753e+003;8.350693e-002
2.707681e+003;8.372851e-002
2.709610e+003;8.399767e-002
2.711539e+003;8.402292e-002
2.713467e+003;8.406321e-002
2.715396e+003;8.418362e-002
2.717324e+003;8.427095e-002
2.719253e+003;8.430056e-002
2.721181e+003;8.431878e-002
2.723110e+003;8.446550e-002
2.725038e+003;8.482019e-002
2.726967e+003;8.519580e-002
2.728896e+003;8.543752e-002
2.730824e+003;8.530007e-002
2.732752e+003;8.528769e-002
2.734681e+003;8.553402e-002
2.736610e+003;8.560189e-002
2.738538e+003;8.554338e-002
2.740467e+003;8.573556e-002
2.742395e+003;8.601101e-002
2.744324e+003;8.621613e-002
2.746252e+003;8.621763e-002
2.748181e+003;8.619350e-002
2.750109e+003;8.624499e-002
2.752038e+003;8.660813e-002
2.753967e+003;8.687321e-002
2.755895e+003;8.677083e-002
2.757824e+003;8.684099e-002
2.759752e+003;8.718354e-002
2.761681e+003;8.757693e-002
2.763609e+003;8.784670e-002
2.765538e+003;8.804242e-002
2.767466e+003;8.818135e-002
2.769395e+003;8.834372e-002
2.771323e+003;8.851540e-002
2.773252e+003;8.835570e-002
2.775181e+003;8.851890e-002
2.777109e+003;8.912361e-002
2.779038e+003;8.938015e-002
2.780966e+003;8.943991e-002
2.782895e+003;8.965642e-002
2.784823e+003;8.990777e-002
2.786752e+003;9.015498e-002
2.788680e+003;9.055874e-002
2.790609e+003;9.092143e-002
2.792538e+003;9.121651e-002
2.794466e+003;9.161051e-002
2.796395e+003;9.213392e-002
2.798323e+003;9.246861e-002
2.800252e+003;9.249493e-002
2.802180e+003;9.271441e-002
2.804109e+003;9.314089e-002
2.806037e+003;9.351577e-002
2.807966e+003;9.376237e-002
2.809895e+003;9.413213e-002
2.811823e+003;9.471852e-002
2.813751e+003;9.534118e-002
2.815680e+003;9.559902e-002
2.817609e+003;9.594506e-002
2.819537e+003;9.638143e-002
2.821466e+003;9.672248e-002
2.823394e+003;9.690604e-002
2.825323e+003;9.717546e-002
2.827251e+003;9.779194e-002
2.829180e+003;9.853039e-002
2.831108e+003;9.912682e-002
2.833037e+003;9.959899e-002
2.834966e+003;1.002743e-001
2.836894e+003;1.012643e-001
2.838823e+003;1.020865e-001
2.840751e+003;1.026505e-001
2.842680e+003;1.030300e-001
2.844608e+003;1.032696e-001
2.846537e+003;1.033771e-001
2.848465e+003;1.037550e-001
2.850394e+003;1.044682e-001
2.852323e+003;1.053885e-001
2.854251e+003;1.063741e-001
2.856180e+003;1.076629e-001
2.858108e+003;1.094567e-001
2.860037e+003;1.114038e-001
2.861965e+003;1.132497e-001
2.863894e+003;1.146729e-001
2.865822e+003;1.157587e-001
2.867751e+003;1.167508e-001
2.869679e+003;1.178748e-001
2.871608e+003;1.190284e-001
2.873536e+003;1.199400e-001
2.875465e+003;1.206323e-001
2.877394e+003;1.215190e-001
2.879322e+003;1.224022e-001
2.881251e+003;1.228427e-001
2.883179e+003;1.232900e-001
2.885108e+003;1.236500e-001
2.887036e+003;1.238060e-001
2.888965e+003;1.239415e-001
2.890893e+003;1.236706e-001
2.892822e+003;1.235769e-001
2.894750e+003;1.234785e-001
2.896679e+003;1.229422e-001
2.898608e+003;1.222487e-001
2.900536e+003;1.216627e-001
2.902465e+003;1.211739e-001
2.904393e+003;1.202729e-001
2.906322e+003;1.196519e-001
2.908250e+003;1.190644e-001
2.910179e+003;1.179556e-001
2.912107e+003;1.166256e-001
2.914036e+003;1.150666e-001
2.915965e+003;1.135247e-001
2.917893e+003;1.119994e-001
2.919822e+003;1.110460e-001
2.921750e+003;1.103138e-001
2.923679e+003;1.093159e-001
2.925607e+003;1.082579e-001
2.927536e+003;1.074985e-001
2.929464e+003;1.070097e-001
2.931393e+003;1.066338e-001
2.933322e+003;1.062092e-001
2.935250e+003;1.056390e-001
2.937178e+003;1.048792e-001
2.939107e+003;1.039898e-001
2.941036e+003;1.030616e-001
2.942964e+003;1.023190e-001
2.944893e+003;1.016406e-001
2.946821e+003;1.007637e-001
2.948750e+003;9.987500e-002
2.950678e+003;9.898435e-002
2.952607e+003;9.792942e-002
2.954535e+003;9.664030e-002
2.956464e+003;9.533990e-002
2.958393e+003;9.442311e-002
2.960321e+003;9.379905e-002
2.962250e+003;9.325645e-002
2.964178e+003;9.252536e-002
2.966107e+003;9.189197e-002
2.968035e+003;9.169906e-002
2.969964e+003;9.176507e-002
2.971892e+003;9.157868e-002
2.973821e+003;9.150930e-002
2.975750e+003;9.141081e-002
2.977678e+003;9.118373e-002
2.979607e+003;9.064227e-002
2.981535e+003;9.046806e-002
2.983464e+003;9.061989e-002
2.985392e+003;9.031278e-002
2.987321e+003;8.968718e-002
2.989249e+003;8.932145e-002
2.991178e+003;8.944573e-002
2.993106e+003;8.938206e-002
2.995035e+003;8.928560e-002
2.996964e+003;8.963190e-002
2.998892e+003;8.990125e-002
3.000821e+003;8.992191e-002
3.002749e+003;8.984925e-002
3.004678e+003;9.010841e-002
3.006606e+003;9.060920e-002
3.008535e+003;9.069089e-002
3.010463e+003;9.069775e-002
3.012392e+003;9.072620e-002
3.014321e+003;9.107435e-002
3.016249e+003;9.158236e-002
3.018177e+003;9.208629e-002
3.020106e+003;9.236547e-002
3.022035e+003;9.238248e-002
3.023963e+003;9.283371e-002
3.025892e+003;9.325534e-002
3.027820e+003;9.359254e-002
3.029749e+003;9.403441e-002
3.031677e+003;9.425055e-002
3.033606e+003;9.452504e-002
3.035534e+003;9.499240e-002
3.037463e+003;9.537576e-002
3.039392e+003;9.590510e-002
3.041320e+003;9.678611e-002
3.043249e+003;9.732190e-002
3.045177e+003;9.737232e-002
3.047106e+003;9.772301e-002
3.049034e+003;9.849630e-002
3.050963e+003;9.900062e-002
3.052891e+003;9.920826e-002
3.054820e+003;9.991291e-002
3.056749e+003;1.006182e-001
3.058677e+003;1.009434e-001
3.060606e+003;1.014934e-001
3.062534e+003;1.021473e-001
3.064463e+003;1.026129e-001
3.066391e+003;1.030499e-001
3.068320e+003;1.036543e-001
3.070248e+003;1.040634e-001
3.072177e+003;1.044331e-001
3.074105e+003;1.047608e-001
3.076034e+003;1.050061e-001
3.077963e+003;1.056504e-001
3.079891e+003;1.065041e-001
3.081820e+003;1.070134e-001
3.083748e+003;1.072626e-001
3.085677e+003;1.078381e-001
3.087605e+003;1.089161e-001
3.089534e+003;1.097103e-001
3.091462e+003;1.102560e-001
3.093391e+003;1.107034e-001
3.095320e+003;1.112131e-001
3.097248e+003;1.119976e-001
3.099177e+003;1.125130e-001
3.101105e+003;1.128198e-001
3.103034e+003;1.132582e-001
3.104962e+003;1.140191e-001
3.106891e+003;1.149279e-001
3.108819e+003;1.153867e-001
3.110748e+003;1.158796e-001
3.112677e+003;1.166827e-001
3.114605e+003;1.174948e-001
3.116533e+003;1.181870e-001
3.118462e+003;1.185015e-001
3.120391e+003;1.189669e-001
3.122319e+003;1.197459e-001
3.124248e+003;1.203782e-001
3.126176e+003;1.208645e-001
3.128105e+003;1.215153e-001
3.130033e+003;1.222949e-001
3.131962e+003;1.231837e-001
3.133890e+003;1.239332e-001
3.135819e+003;1.241827e-001
3.137748e+003;1.244598e-001
3.139676e+003;1.251183e-001
3.141605e+003;1.256525e-001
3.143533e+003;1.260711e-001
3.145462e+003;1.269262e-001
3.147390e+003;1.278350e-001
3.149319e+003;1.284497e-001
3.151247e+003;1.288224e-001
3.153176e+003;1.292534e-001
3.155104e+003;1.300027e-001
3.157033e+003;1.305562e-001
3.158962e+003;1.311631e-001
3.160890e+003;1.318871e-001
3.162819e+003;1.324823e-001
3.164747e+003;1.329311e-001
3.166676e+003;1.338021e-001
3.168604e+003;1.347540e-001
3.170533e+003;1.355405e-001
3.172461e+003;1.358121e-001
3.174390e+003;1.361339e-001
3.176319e+003;1.365801e-001
3.178247e+003;1.368221e-001
3.180176e+003;1.375227e-001
3.182104e+003;1.387500e-001
3.184033e+003;1.394657e-001
3.185961e+003;1.398605e-001
3.187890e+003;1.403521e-001
3.189818e+003;1.410293e-001
3.191747e+003;1.416443e-001
3.193676e+003;1.419847e-001
3.195604e+003;1.425096e-001
3.197532e+003;1.433949e-001
3.199461e+003;1.438910e-001
3.201390e+003;1.442386e-001
3.203318e+003;1.448946e-001
3.205247e+003;1.456364e-001
3.207175e+003;1.461618e-001
3.209104e+003;1.468543e-001
3.211032e+003;1.472702e-001
3.212961e+003;1.474096e-001
3.214889e+003;1.478434e-001
3.216818e+003;1.483081e-001
3.218747e+003;1.490152e-001
3.220675e+003;1.500409e-001
3.222604e+003;1.505340e-001
3.224532e+003;1.506270e-001
3.226461e+003;1.508398e-001
3.228389e+003;1.512727e-001
3.230318e+003;1.520900e-001
3.232246e+003;1.527379e-001
3.234175e+003;1.529208e-001
3.236104e+003;1.532998e-001
3.238032e+003;1.540855e-001
3.239961e+003;1.547983e-001
3.241889e+003;1.554661e-001
3.243818e+003;1.558351e-001
3.245746e+003;1.560304e-001
3.247675e+003;1.566141e-001
3.249603e+003;1.570311e-001
3.251532e+003;1.574055e-001
3.253460e+003;1.575700e-001
3.255389e+003;1.576010e-001
3.257318e+003;1.584031e-001
3.259246e+003;1.595678e-001
3.261175e+003;1.598974e-001
3.263103e+003;1.598149e-001
3.265032e+003;1.599981e-001
3.266960e+003;1.603964e-001
3.268889e+003;1.609304e-001
3.270817e+003;1.609800e-001
3.272746e+003;1.611487e-001
3.274675e+003;1.616510e-001
3.276603e+003;1.618235e-001
3.278531e+003;1.618626e-001
3.280460e+003;1.622505e-001
3.282389e+003;1.631674e-001
3.284317e+003;1.635954e-001
3.286246e+003;1.631596e-001
3.288174e+003;1.632540e-001
3.290103e+003;1.636415e-001
3.292031e+003;1.640618e-001
3.293960e+003;1.644145e-001
3.295888e+003;1.640370e-001
3.297817e+003;1.643613e-001
3.299746e+003;1.650711e-001
3.301674e+003;1.652642e-001
3.303603e+003;1.653215e-001
3.305531e+003;1.652453e-001
3.307460e+003;1.650316e-001
3.309388e+003;1.651860e-001
3.311317e+003;1.656117e-001
3.313245e+003;1.654304e-001
3.315174e+003;1.651753e-001
3.317103e+003;1.658037e-001
3.319031e+003;1.662339e-001
3.320960e+003;1.665148e-001
3.322888e+003;1.663879e-001
3.324817e+003;1.660862e-001
3.326745e+003;1.660613e-001
3.328674e+003;1.663826e-001
3.330602e+003;1.665951e-001
3.332531e+003;1.662809e-001
3.334459e+003;1.660899e-001
3.336388e+003;1.665007e-001
3.338317e+003;1.664878e-001
3.340245e+003;1.660384e-001
3.342174e+003;1.659162e-001
3.344102e+003;1.661163e-001
3.346031e+003;1.657342e-001
3.347959e+003;1.651518e-001
3.349888e+003;1.655454e-001
3.351816e+003;1.653714e-001
3.353745e+003;1.650224e-001
3.355674e+003;1.649147e-001
3.357602e+003;1.644969e-001
3.359531e+003;1.642573e-001
3.361459e+003;1.641234e-001
3.363388e+003;1.638198e-001
3.365316e+003;1.632808e-001
3.367245e+003;1.630402e-001
3.369173e+003;1.632858e-001
3.371102e+003;1.632099e-001
3.373031e+003;1.628222e-001
3.374959e+003;1.626611e-001
3.376887e+003;1.624493e-001
3.378816e+003;1.624199e-001
3.380745e+003;1.621473e-001
3.382673e+003;1.611127e-001
3.384602e+003;1.604846e-001
3.386530e+003;1.604704e-001
3.388459e+003;1.605095e-001
3.390387e+003;1.600378e-001
3.392316e+003;1.596263e-001
3.394244e+003;1.591607e-001
3.396173e+003;1.585905e-001
3.398102e+003;1.582394e-001
3.400030e+003;1.578811e-001
3.401959e+003;1.573985e-001
3.403887e+003;1.570791e-001
3.405816e+003;1.568096e-001
3.407744e+003;1.562626e-001
3.409673e+003;1.553297e-001
3.411601e+003;1.543746e-001
3.413530e+003;1.540627e-001
3.415458e+003;1.538010e-001
3.417387e+003;1.532685e-001
3.419316e+003;1.531530e-001
3.421244e+003;1.525322e-001
3.423173e+003;1.517855e-001
3.425101e+003;1.512547e-001
3.427030e+003;1.509597e-001
3.428958e+003;1.506397e-001
3.430887e+003;1.500253e-001
3.432815e+003;1.494258e-001
3.434744e+003;1.486441e-001
3.436673e+003;1.477530e-001
3.438601e+003;1.472873e-001
3.440530e+003;1.469516e-001
3.442458e+003;1.462199e-001
3.444387e+003;1.449973e-001
3.446315e+003;1.437113e-001
3.448244e+003;1.425978e-001
3.450172e+003;1.413686e-001
3.452101e+003;1.402319e-001
3.454030e+003;1.392256e-001
3.455958e+003;1.381731e-001
3.457886e+003;1.372491e-001
3.459815e+003;1.363128e-001
3.461744e+003;1.352092e-001
3.463672e+003;1.340998e-001
3.465601e+003;1.329316e-001
3.467529e+003;1.319580e-001
3.469458e+003;1.313870e-001
3.471386e+003;1.307299e-001
3.473315e+003;1.295247e-001
3.475243e+003;1.281974e-001
3.477172e+003;1.270314e-001
3.479101e+003;1.261912e-001
3.481029e+003;1.253022e-001
3.482958e+003;1.243372e-001
3.484886e+003;1.231357e-001
3.486815e+003;1.223606e-001
3.488743e+003;1.217384e-001
3.490672e+003;1.207041e-001
3.492600e+003;1.192235e-001
3.494529e+003;1.176852e-001
3.496458e+003;1.160917e-001
3.498386e+003;1.149302e-001
3.500315e+003;1.139318e-001
3.502243e+003;1.123992e-001
3.504172e+003;1.108640e-001
3.506100e+003;1.096191e-001
3.508029e+003;1.081645e-001
3.509957e+003;1.071687e-001
3.511886e+003;1.066448e-001
3.513814e+003;1.053828e-001
3.515743e+003;1.041059e-001
3.517672e+003;1.030584e-001
3.519600e+003;1.020390e-001
3.521529e+003;1.009449e-001
3.523457e+003;9.961428e-002
3.525386e+003;9.849273e-002
3.527314e+003;9.755043e-002
3.529243e+003;9.644572e-002
3.531171e+003;9.555091e-002
3.533100e+003;9.442303e-002
3.535029e+003;9.327567e-002
3.536957e+003;9.238318e-002
3.538885e+003;9.170868e-002
3.540814e+003;9.090889e-002
3.542743e+003;8.982492e-002
3.544671e+003;8.889265e-002
3.546600e+003;8.790126e-002
3.548528e+003;8.677152e-002
3.550457e+003;8.585849e-002
3.552385e+003;8.527729e-002
3.554314e+003;8.460087e-002
3.556242e+003;8.353661e-002
3.558171e+003;8.252908e-002
3.560100e+003;8.156470e-002
3.562028e+003;8.091477e-002
3.563957e+003;7.978164e-002
3.565885e+003;7.819815e-002
3.567814e+003;7.729293e-002
3.569742e+003;7.722231e-002
3.571671e+003;7.678325e-002
3.573599e+003;7.583512e-002
3.575528e+003;7.508785e-002
3.577457e+003;7.408076e-002
3.579385e+003;7.324890e-002
3.581314e+003;7.294653e-002
3.583242e+003;7.240959e-002
3.585171e+003;7.138062e-002
3.587099e+003;7.021406e-002
3.589028e+003;6.921704e-002
3.590956e+003;6.867824e-002
3.592885e+003;6.832386e-002
3.594813e+003;6.793221e-002
3.596742e+003;6.737047e-002
3.598671e+003;6.683477e-002
3.600599e+003;6.630988e-002
3.602528e+003;6.591886e-002
3.604456e+003;6.564077e-002
3.606385e+003;6.472237e-002
3.608313e+003;6.357987e-002
3.610242e+003;6.327108e-002
3.612170e+003;6.270049e-002
3.614099e+003;6.218547e-002
3.616028e+003;6.173025e-002
3.617956e+003;6.094556e-002
3.619885e+003;6.111068e-002
3.621813e+003;6.122885e-002
3.623742e+003;6.110240e-002
3.625670e+003;6.033750e-002
3.627599e+003;5.822107e-002
3.629527e+003;5.753100e-002
3.631456e+003;5.865676e-002
3.633385e+003;5.869773e-002
3.635313e+003;5.832573e-002
3.637241e+003;5.796714e-002
3.639170e+003;5.769532e-002
3.641099e+003;5.725983e-002
3.643027e+003;5.670749e-002
3.644956e+003;5.629377e-002
3.646884e+003;5.516347e-002
3.648813e+003;5.428281e-002
3.650741e+003;5.455596e-002
3.652670e+003;5.514992e-002
3.654598e+003;5.487797e-002
3.656527e+003;5.455566e-002
3.658456e+003;5.499864e-002
3.660384e+003;5.483271e-002
3.662313e+003;5.414643e-002
3.664241e+003;5.376972e-002
3.666170e+003;5.331885e-002
3.668098e+003;5.181704e-002
3.670027e+003;5.071808e-002
3.671955e+003;5.123116e-002
3.673884e+003;5.031713e-002
3.675813e+003;4.982844e-002
3.677741e+003;5.140613e-002
3.679669e+003;5.184511e-002
3.681598e+003;5.145156e-002
3.683527e+003;5.114453e-002
3.685455e+003;5.080679e-002
3.687384e+003;4.959701e-002
3.689312e+003;4.919940e-002
3.691241e+003;4.974524e-002
3.693169e+003;5.003436e-002
3.695098e+003;4.998748e-002
3.697026e+003;4.974071e-002
3.698955e+003;4.915369e-002
3.700884e+003;4.892622e-002
3.702812e+003;4.954988e-002
3.704741e+003;4.968345e-002
3.706669e+003;4.912270e-002
3.708598e+003;4.828893e-002
3.710526e+003;4.772820e-002
3.712455e+003;4.780255e-002
3.714383e+003;4.856112e-002
3.716312e+003;4.895589e-002
3.718240e+003;4.843326e-002
3.720169e+003;4.827856e-002
3.722098e+003;4.865829e-002
3.724026e+003;4.849035e-002
3.725955e+003;4.809978e-002
3.727883e+003;4.795327e-002
3.729812e+003;4.734168e-002
3.731740e+003;4.664599e-002
3.733669e+003;4.659512e-002
3.735597e+003;4.617500e-002
3.737526e+003;4.684199e-002
3.739455e+003;4.764019e-002
3.741383e+003;4.682900e-002
3.743312e+003;4.406950e-002
3.745240e+003;4.448436e-002
3.747169e+003;4.603885e-002
3.749097e+003;4.488260e-002
3.751026e+003;4.440170e-002
3.752954e+003;4.534127e-002
3.754883e+003;4.657324e-002
3.756812e+003;4.671871e-002
3.758740e+003;4.718485e-002
3.760668e+003;4.779115e-002
3.762597e+003;4.749498e-002
3.764526e+003;4.687422e-002
3.766454e+003;4.699626e-002
3.768383e+003;4.676479e-002
3.770311e+003;4.659379e-002
3.772240e+003;4.698219e-002
3.774168e+003;4.763808e-002
3.776097e+003;4.776208e-002
3.778025e+003;4.727802e-002
3.779954e+003;4.740306e-002
3.781883e+003;4.788600e-002
3.783811e+003;4.775387e-002
3.785740e+003;4.792700e-002
3.787668e+003;4.778264e-002
3.789597e+003;4.728293e-002
3.791525e+003;4.704515e-002
3.793454e+003;4.714726e-002
3.795382e+003;4.702188e-002
3.797311e+003;4.721681e-002
3.799240e+003;4.661928e-002
3.801168e+003;4.575705e-002
3.803097e+003;4.648720e-002
3.805025e+003;4.641777e-002
3.806954e+003;4.576162e-002
3.808882e+003;4.667078e-002
3.810811e+003;4.761095e-002
3.812739e+003;4.756347e-002
3.814668e+003;4.606387e-002
3.816596e+003;4.597413e-002
3.818525e+003;4.621491e-002
3.820454e+003;4.543547e-002
3.822382e+003;4.633330e-002
3.824311e+003;4.757915e-002
3.826239e+003;4.738990e-002
3.828168e+003;4.731493e-002
3.830096e+003;4.714969e-002
3.832025e+003;4.674719e-002
3.833953e+003;4.677509e-002
3.835882e+003;4.590905e-002
3.837811e+003;4.514939e-002
3.839739e+003;4.604313e-002
3.841667e+003;4.651375e-002
3.843596e+003;4.665082e-002
3.845525e+003;4.748810e-002
3.847453e+003;4.812340e-002
3.849382e+003;4.715102e-002
3.851310e+003;4.461925e-002
3.853239e+003;4.329896e-002
3.855167e+003;4.519005e-002
3.857096e+003;4.718700e-002
3.859024e+003;4.800200e-002
3.860953e+003;4.792629e-002
3.862882e+003;4.752510e-002
3.864810e+003;4.733488e-002
3.866739e+003;4.713551e-002
3.868667e+003;4.635811e-002
3.870596e+003;4.692209e-002
3.872524e+003;4.801307e-002
3.874453e+003;4.801140e-002
3.876381e+003;4.861003e-002
3.878310e+003;4.875073e-002
3.880239e+003;4.829049e-002
3.882167e+003;4.854956e-002
3.884096e+003;4.804049e-002
3.886024e+003;4.801225e-002
3.887953e+003;4.863260e-002
3.889881e+003;4.809105e-002
3.891810e+003;4.809682e-002
3.893738e+003;4.902039e-002
3.895667e+003;4.913992e-002
3.897595e+003;4.874224e-002
3.899524e+003;4.860007e-002
3.901453e+003;4.831193e-002
3.903381e+003;4.831967e-002
3.905310e+003;4.900933e-002
3.907238e+003;4.960953e-002
3.909167e+003;4.978823e-002
3.911095e+003;4.964883e-002
3.913024e+003;4.939426e-002
3.914952e+003;4.911365e-002
3.916881e+003;4.936753e-002
3.918810e+003;4.989124e-002
3.920738e+003;4.995217e-002
3.922667e+003;5.009519e-002
3.924595e+003;5.016340e-002
3.926524e+003;4.998648e-002
3.928452e+003;5.036338e-002
3.930381e+003;5.069816e-002
3.932309e+003;5.058784e-002
3.934238e+003;5.043583e-002
3.936167e+003;5.028994e-002
3.938095e+003;5.026438e-002
3.940023e+003;5.027376e-002
3.941952e+003;5.018619e-002
3.943881e+003;5.040525e-002
3.945809e+003;5.068736e-002
3.947738e+003;5.037909e-002
3.949666e+003;5.022257e-002
3.951595e+003;5.092280e-002
3.953523e+003;5.120044e-002
3.955452e+003;5.098774e-002
3.957380e+003;5.135425e-002
3.959309e+003;5.158639e-002
3.961238e+003;5.116387e-002
3.963166e+003;5.113502e-002
3.965095e+003;5.140594e-002
3.967023e+003;5.134343e-002
3.968952e+003;5.097231e-002
3.970880e+003;5.062384e-002
3.972809e+003;5.080083e-002
3.974737e+003;5.095715e-002
3.976666e+003;5.091426e-002
3.978594e+003;5.081518e-002
3.980523e+003;5.082486e-002
3.982452e+003;5.122069e-002
3.984380e+003;5.128862e-002
3.986309e+003;5.111683e-002
3.988237e+003;5.115992e-002
3.990166e+003;5.139054e-002
3.992094e+003;5.116227e-002
3.994023e+003;5.082367e-002
3.995951e+003;5.050867e-002
3.997880e+003;5.042731e-002
3.999809e+003;5.067787e-002
4.001737e+003;0.000000e+000
