3.992094e+002;0.000000e+000
4.011380e+002;0.000000e+000
4.030665e+002;0.000000e+000
4.049951e+002;0.000000e+000
4.069236e+002;0.000000e+000
4.088522e+002;0.000000e+000
4.107807e+002;0.000000e+000
4.127093e+002;0.000000e+000
4.146378e+002;0.000000e+000
4.165664e+002;0.000000e+000
4.184949e+002;0.000000e+000
4.204235e+002;0.000000e+000
4.223520e+002;0.000000e+000
4.242806e+002;0.000000e+000
4.262091e+002;0.000000e+000
4.281377e+002;0.000000e+000
4.300662e+002;0.000000e+000
4.319948e+002;0.000000e+000
4.339233e+002;0.000000e+000
4.358519e+002;0.000000e+000
4.377804e+002;0.000000e+000
4.397090e+002;0.000000e+000
4.416375e+002;0.000000e+000
4.435660e+002;0.000000e+000
4.454946e+002;0.000000e+000
4.474232e+002;0.000000e+000
4.493517e+002;0.000000e+000
4.512802e+002;0.000000e+000
4.532088e+002;0.000000e+000
4.551373e+002;0.000000e+000
4.570659e+002;0.000000e+000
4.589944e+002;0.000000e+000
4.609230e+002;0.000000e+000
4.628515e+002;0.000000e+000
4.647801e+002;0.000000e+000
4.667086e+002;0.000000e+000
4.686372e+002;0.000000e+000
4.705657e+002;0.000000e+000
4.724943e+002;0.000000e+000
4.744228e+002;0.000000e+000
4.763513e+002;0.000000e+000
4.782799e+002;0.000000e+000
4.802085e+002;0.000000e+000
4.821370e+002;0.000000e+000
4.840656e+002;0.000000e+000
4.859941e+002;0.000000e+000
4.879226e+002;0.000000e+000
4.898512e+002;0.000000e+000
4.917798e+002;0.000000e+000
4.937083e+002;0.000000e+000
4.956368e+002;0.000000e+000
4.975654e+002;0.000000e+000
4.994939e+002;0.000000e+000
5.014225e+002;0.000000e+000
5.033510e+002;0.000000e+000
5.052796e+002;0.000000e+000
5.072081e+002;0.000000e+000
5.091367e+002;0.000000e+000
5.110652e+002;0.000000e+000
5.129938e+002;0.000000e+000
5.149223e+002;0.000000e+000
5.168509e+002;0.000000e+000
5.187794e+002;0.000000e+000
5.207079e+002;0.000000e+000
5.226365e+002;0.000000e+000
5.245651e+002;0.000000e+000
5.264936e+002;0.000000e+000
5.284222e+002;0.000000e+000
5.303507e+002;0.000000e+000
5.322792e+002;0.000000e+000
5.342078e+002;0.000000e+000
5.361364e+002;0.000000e+000
5.380649e+002;0.000000e+000
5.399935e+002;0.000000e+000
5.419220e+002;0.000000e+000
5.438505e+002;0.000000e+000
5.457791e+002;0.000000e+000
5.477076e+002;0.000000e+000
5.496362e+002;0.000000e+000
5.515648e+002;0.000000e+000
5.534933e+002;0.000000e+000
5.554218e+002;0.000000e+000
5.573504e+002;0.000000e+000
5.592789e+002;0.000000e+000
5.612075e+002;0.000000e+000
5.631360e+002;0.000000e+000
5.650646e+002;0.000000e+000
5.669931e+002;0.000000e+000
5.689217e+002;0.000000e+000
5.708502e+002;0.000000e+000
5.727787e+002;0.000000e+000
5.747073e+002;0.000000e+000
5.766359e+002;0.000000e+000
5.785644e+002;0.000000e+000
5.804930e+002;0.000000e+000
5.824215e+002;0.000000e+000
5.843500e+002;0.000000e+000
5.862786e+002;0.000000e+000
5.882072e+002;0.000000e+000
5.901357e+002;0.000000e+000
5.920643e+002;0.000000e+000
5.939928e+002;0.000000e+000
5.959213e+002;0.000000e+000
5.978499e+002;0.000000e+000
5.997784e+002;3.058329e-001
6.017070e+002;3.010759e-001
6.036355e+002;3.012000e-001
6.055641e+002;2.997985e-001
6.074926e+002;2.961387e-001
6.094211e+002;2.938120e-001
6.113497e+002;2.966473e-001
6.132783e+002;2.984444e-001
6.152068e+002;2.961875e-001
6.171354e+002;2.897011e-001
6.190639e+002;2.836418e-001
6.209924e+002;2.814129e-001
6.229210e+002;2.819877e-001
6.248495e+002;2.846869e-001
6.267781e+002;2.844096e-001
6.287067e+002;2.779212e-001
6.306352e+002;2.759893e-001
6.325637e+002;2.758962e-001
6.344923e+002;2.722711e-001
6.364208e+002;2.661178e-001
6.383494e+002;2.619819e-001
6.402780e+002;2.629401e-001
6.422065e+002;2.614717e-001
6.441350e+002;2.604293e-001
6.460636e+002;2.584968e-001
6.479921e+002;2.557013e-001
6.499207e+002;2.564982e-001
6.518492e+002;2.611348e-001
6.537778e+002;2.659169e-001
6.557063e+002;2.666219e-001
6.576349e+002;2.660245e-001
6.595634e+002;2.667983e-001
6.614919e+002;2.690245e-001
6.634205e+002;2.694416e-001
6.653491e+002;2.659397e-001
6.672776e+002;2.619405e-001
6.692062e+002;2.599802e-001
6.711347e+002;2.559176e-001
6.730632e+002;2.505739e-001
6.749918e+002;2.429996e-001
6.769203e+002;2.341402e-001
6.788489e+002;2.260423e-001
6.807775e+002;2.189976e-001
6.827060e+002;2.149642e-001
6.846345e+002;2.140729e-001
6.865631e+002;2.118774e-001
6.884916e+002;2.089980e-001
6.904202e+002;2.072378e-001
6.923488e+002;2.069944e-001
6.942773e+002;2.071220e-001
6.962058e+002;2.060795e-001
6.981344e+002;2.047286e-001
7.000629e+002;2.039479e-001
7.019915e+002;2.029634e-001
7.039200e+002;2.012913e-001
7.058486e+002;1.991564e-001
7.077771e+002;1.980036e-001
7.097057e+002;1.977796e-001
7.116342e+002;1.977233e-001
7.135627e+002;1.976279e-001
7.154913e+002;1.962083e-001
7.174199e+002;1.935638e-001
7.193484e+002;1.915497e-001
7.212770e+002;1.895036e-001
7.232055e+002;1.886080e-001
7.251340e+002;1.874664e-001
7.270626e+002;1.859420e-001
7.289911e+002;1.842998e-001
7.309197e+002;1.819711e-001
7.328483e+002;1.799474e-001
7.347768e+002;1.780664e-001
7.367053e+002;1.763043e-001
7.386339e+002;1.749191e-001
7.405624e+002;1.734851e-001
7.424910e+002;1.719808e-001
7.444196e+002;1.710362e-001
7.463481e+002;1.698925e-001
7.482766e+002;1.677842e-001
7.502052e+002;1.660054e-001
7.521337e+002;1.643271e-001
7.540623e+002;1.630437e-001
7.559908e+002;1.609835e-001
7.579194e+002;1.591466e-001
7.598479e+002;1.579747e-001
7.617765e+002;1.563436e-001
7.637050e+002;1.549296e-001
7.656335e+002;1.530081e-001
7.675621e+002;1.519717e-001
7.694907e+002;1.511283e-001
7.714192e+002;1.491011e-001
7.733478e+002;1.473078e-001
7.752763e+002;1.458413e-001
7.772048e+002;1.442948e-001
7.791334e+002;1.429085e-001
7.810620e+002;1.422915e-001
7.829905e+002;1.412711e-001
7.849191e+002;1.393975e-001
7.868476e+002;1.376611e-001
7.887761e+002;1.358832e-001
7.907047e+002;1.341837e-001
7.926332e+002;1.331755e-001
7.945618e+002;1.326977e-001
7.964903e+002;1.324479e-001
7.984189e+002;1.308901e-001
8.003474e+002;1.293835e-001
8.022759e+002;1.288874e-001
8.042045e+002;1.284416e-001
8.061331e+002;1.276172e-001
8.080616e+002;1.266847e-001
8.099902e+002;1.258835e-001
8.119187e+002;1.249397e-001
8.138472e+002;1.239509e-001
8.157758e+002;1.236028e-001
8.177043e+002;1.238050e-001
8.196329e+002;1.240020e-001
8.215615e+002;1.234559e-001
8.234900e+002;1.222083e-001
8.254185e+002;1.215882e-001
8.273471e+002;1.217332e-001
8.292756e+002;1.214113e-001
8.312042e+002;1.209629e-001
8.331328e+002;1.201406e-001
8.350613e+002;1.192834e-001
8.369898e+002;1.181091e-001
8.389184e+002;1.168652e-001
8.408469e+002;1.160203e-001
8.427755e+002;1.149904e-001
8.447040e+002;1.142810e-001
8.466326e+002;1.130721e-001
8.485611e+002;1.121983e-001
8.504897e+002;1.120596e-001
8.524182e+002;1.116163e-001
8.543467e+002;1.106929e-001
8.562753e+002;1.104327e-001
8.582039e+002;1.108563e-001
8.601324e+002;1.108872e-001
8.620610e+002;1.112994e-001
8.639895e+002;1.119607e-001
8.659180e+002;1.124779e-001
8.678466e+002;1.140562e-001
8.697751e+002;1.163549e-001
8.717037e+002;1.188082e-001
8.736323e+002;1.223781e-001
8.755608e+002;1.266434e-001
8.774893e+002;1.316922e-001
8.794179e+002;1.377658e-001
8.813464e+002;1.442696e-001
8.832750e+002;1.512266e-001
8.852036e+002;1.585714e-001
8.871321e+002;1.660088e-001
8.890606e+002;1.732587e-001
8.909892e+002;1.792400e-001
8.929177e+002;1.837126e-001
8.948463e+002;1.867816e-001
8.967748e+002;1.876714e-001
8.987034e+002;1.861562e-001
9.006319e+002;1.830024e-001
9.025605e+002;1.789420e-001
9.044890e+002;1.743280e-001
9.064175e+002;1.693687e-001
9.083461e+002;1.645091e-001
9.102747e+002;1.601017e-001
9.122032e+002;1.566966e-001
9.141318e+002;1.535889e-001
9.160603e+002;1.510183e-001
9.179888e+002;1.498655e-001
9.199174e+002;1.497118e-001
9.218459e+002;1.502554e-001
9.237745e+002;1.516399e-001
9.257031e+002;1.530197e-001
9.276316e+002;1.540461e-001
9.295601e+002;1.560461e-001
9.314887e+002;1.578841e-001
9.334172e+002;1.594527e-001
9.353458e+002;1.614226e-001
9.372744e+002;1.633677e-001
9.392029e+002;1.656127e-001
9.411314e+002;1.690250e-001
9.430600e+002;1.731694e-001
9.449885e+002;1.771979e-001
9.469171e+002;1.819466e-001
9.488456e+002;1.877471e-001
9.507742e+002;1.941666e-001
9.527027e+002;2.010815e-001
9.546313e+002;2.086820e-001
9.565598e+002;2.169722e-001
9.584883e+002;2.253596e-001
9.604169e+002;2.340379e-001
9.623455e+002;2.431669e-001
9.642740e+002;2.520041e-001
9.662026e+002;2.606429e-001
9.681311e+002;2.700108e-001
9.700596e+002;2.803795e-001
9.719882e+002;2.916542e-001
9.739167e+002;3.042836e-001
9.758453e+002;3.187473e-001
9.777739e+002;3.358439e-001
9.797024e+002;3.554856e-001
9.816309e+002;3.774006e-001
9.835595e+002;4.005280e-001
9.854880e+002;4.238972e-001
9.874166e+002;4.462052e-001
9.893452e+002;4.662415e-001
9.912737e+002;4.831809e-001
9.932022e+002;4.957503e-001
9.951307e+002;5.041108e-001
9.970593e+002;5.093314e-001
9.989879e+002;5.108538e-001
1.000916e+003;5.109075e-001
1.002845e+003;5.126977e-001
1.004773e+003;5.169195e-001
1.006702e+003;5.244032e-001
1.008631e+003;5.345464e-001
1.010559e+003;5.462632e-001
1.012488e+003;5.583137e-001
1.014416e+003;5.696615e-001
1.016345e+003;5.788563e-001
1.018273e+003;5.850207e-001
1.020202e+003;5.875847e-001
1.022130e+003;5.871091e-001
1.024059e+003;5.841155e-001
1.025988e+003;5.780110e-001
1.027916e+003;5.698820e-001
1.029845e+003;5.618805e-001
1.031773e+003;5.536231e-001
1.033702e+003;5.458081e-001
1.035630e+003;5.392674e-001
1.037559e+003;5.332233e-001
1.039487e+003;5.287290e-001
1.041416e+003;5.249850e-001
1.043344e+003;5.206302e-001
1.045273e+003;5.157701e-001
1.047202e+003;5.109035e-001
1.049130e+003;5.067152e-001
1.051059e+003;5.020027e-001
1.052987e+003;4.966730e-001
1.054916e+003;4.914057e-001
1.056844e+003;4.861392e-001
1.058773e+003;4.797221e-001
1.060701e+003;4.722060e-001
1.062630e+003;4.640404e-001
1.064558e+003;4.548162e-001
1.066487e+003;4.444834e-001
1.068416e+003;4.338894e-001
1.070344e+003;4.239916e-001
1.072273e+003;4.139776e-001
1.074201e+003;4.035069e-001
1.076130e+003;3.929347e-001
1.078058e+003;3.830628e-001
1.079987e+003;3.748253e-001
1.081915e+003;3.664117e-001
1.083844e+003;3.582172e-001
1.085773e+003;3.510328e-001
1.087701e+003;3.438611e-001
1.089630e+003;3.362652e-001
1.091558e+003;3.293149e-001
1.093487e+003;3.233196e-001
1.095415e+003;3.172259e-001
1.097344e+003;3.101555e-001
1.099272e+003;3.025953e-001
1.101201e+003;2.946773e-001
1.103129e+003;2.874860e-001
1.105058e+003;2.811579e-001
1.106987e+003;2.758145e-001
1.108915e+003;2.708529e-001
1.110844e+003;2.660307e-001
1.112772e+003;2.616616e-001
1.114701e+003;2.567431e-001
1.116629e+003;2.509425e-001
1.118558e+003;2.451728e-001
1.120486e+003;2.386144e-001
1.122415e+003;2.313132e-001
1.124344e+003;2.237709e-001
1.126272e+003;2.164395e-001
1.128201e+003;2.095400e-001
1.130129e+003;2.026448e-001
1.132058e+003;1.968132e-001
1.133986e+003;1.919647e-001
1.135915e+003;1.865803e-001
1.137843e+003;1.819486e-001
1.139772e+003;1.788199e-001
1.141700e+003;1.764669e-001
1.143629e+003;1.749546e-001
1.145557e+003;1.742747e-001
1.147486e+003;1.747459e-001
1.149415e+003;1.762440e-001
1.151343e+003;1.779814e-001
1.153272e+003;1.794888e-001
1.155200e+003;1.799425e-001
1.157129e+003;1.791998e-001
1.159057e+003;1.771860e-001
1.160986e+003;1.737936e-001
1.162914e+003;1.685118e-001
1.164843e+003;1.612651e-001
1.166771e+003;1.534416e-001
1.168700e+003;1.455091e-001
1.170629e+003;1.373410e-001
1.172557e+003;1.298681e-001
1.174486e+003;1.235157e-001
1.176414e+003;1.179708e-001
1.178343e+003;1.130027e-001
1.180271e+003;1.085438e-001
1.182200e+003;1.051564e-001
1.184128e+003;1.034714e-001
1.186057e+003;1.027388e-001
1.187986e+003;1.031656e-001
1.189914e+003;1.049032e-001
1.191843e+003;1.077897e-001
1.193771e+003;1.111857e-001
1.195700e+003;1.141189e-001
1.197628e+003;1.161359e-001
1.199557e+003;1.169678e-001
1.201485e+003;1.167061e-001
1.203414e+003;1.152382e-001
1.205343e+003;1.127475e-001
1.207271e+003;1.102406e-001
1.209200e+003;1.082223e-001
1.211128e+003;1.067755e-001
1.213057e+003;1.059250e-001
1.214985e+003;1.057259e-001
1.216914e+003;1.066763e-001
1.218842e+003;1.086163e-001
1.220771e+003;1.110917e-001
1.222699e+003;1.136931e-001
1.224628e+003;1.162377e-001
1.226557e+003;1.181615e-001
1.228485e+003;1.194717e-001
1.230414e+003;1.205167e-001
1.232342e+003;1.212330e-001
1.234271e+003;1.214759e-001
1.236199e+003;1.218012e-001
1.238128e+003;1.220841e-001
1.240056e+003;1.219532e-001
1.241985e+003;1.216020e-001
1.243913e+003;1.213499e-001
1.245842e+003;1.215290e-001
1.247771e+003;1.217609e-001
1.249699e+003;1.221325e-001
1.251628e+003;1.235396e-001
1.253556e+003;1.252727e-001
1.255485e+003;1.264771e-001
1.257413e+003;1.273092e-001
1.259342e+003;1.279286e-001
1.261270e+003;1.276848e-001
1.263199e+003;1.270225e-001
1.265127e+003;1.268192e-001
1.267056e+003;1.262980e-001
1.268985e+003;1.250900e-001
1.270913e+003;1.237735e-001
1.272842e+003;1.226559e-001
1.274770e+003;1.216103e-001
1.276699e+003;1.204743e-001
1.278627e+003;1.194174e-001
1.280556e+003;1.185643e-001
1.282484e+003;1.176945e-001
1.284413e+003;1.172319e-001
1.286342e+003;1.177482e-001
1.288270e+003;1.187675e-001
1.290199e+003;1.201616e-001
1.292127e+003;1.222031e-001
1.294056e+003;1.241774e-001
1.295984e+003;1.262006e-001
1.297913e+003;1.283091e-001
1.299841e+003;1.302528e-001
1.301770e+003;1.320890e-001
1.303698e+003;1.341800e-001
1.305627e+003;1.363394e-001
1.307556e+003;1.385493e-001
1.309484e+003;1.405303e-001
1.311413e+003;1.421225e-001
1.313341e+003;1.433326e-001
1.315270e+003;1.441637e-001
1.317198e+003;1.442798e-001
1.319127e+003;1.438529e-001
1.321055e+003;1.433633e-001
1.322984e+003;1.428930e-001
1.324912e+003;1.428089e-001
1.326841e+003;1.431430e-001
1.328770e+003;1.436720e-001
1.330698e+003;1.438775e-001
1.332627e+003;1.437289e-001
1.334555e+003;1.441066e-001
1.336484e+003;1.443648e-001
1.338412e+003;1.439101e-001
1.340341e+003;1.433802e-001
1.342269e+003;1.432814e-001
1.344198e+003;1.433217e-001
1.346126e+003;1.431213e-001
1.348055e+003;1.430933e-001
1.349984e+003;1.433976e-001
1.351912e+003;1.438878e-001
1.353841e+003;1.447242e-001
1.355769e+003;1.456812e-001
1.357698e+003;1.464569e-001
1.359626e+003;1.472325e-001
1.361555e+003;1.481789e-001
1.363483e+003;1.486900e-001
1.365412e+003;1.487264e-001
1.367341e+003;1.484051e-001
1.369269e+003;1.475556e-001
1.371198e+003;1.463105e-001
1.373126e+003;1.447088e-001
1.375055e+003;1.428957e-001
1.376983e+003;1.408513e-001
1.378912e+003;1.384893e-001
1.380840e+003;1.360462e-001
1.382769e+003;1.336039e-001
1.384698e+003;1.311489e-001
1.386626e+003;1.289643e-001
1.388555e+003;1.271553e-001
1.390483e+003;1.255626e-001
1.392412e+003;1.245577e-001
1.394340e+003;1.241111e-001
1.396269e+003;1.237132e-001
1.398197e+003;1.235608e-001
1.400126e+003;1.232496e-001
1.402054e+003;1.228471e-001
1.403983e+003;1.228586e-001
1.405911e+003;1.231831e-001
1.407840e+003;1.232957e-001
1.409769e+003;1.230424e-001
1.411697e+003;1.229946e-001
1.413626e+003;1.233589e-001
1.415554e+003;1.232977e-001
1.417483e+003;1.228397e-001
1.419411e+003;1.225007e-001
1.421340e+003;1.222925e-001
1.423268e+003;1.220710e-001
1.425197e+003;1.216863e-001
1.427125e+003;1.209431e-001
1.429054e+003;1.199206e-001
1.430983e+003;1.189574e-001
1.432911e+003;1.181733e-001
1.434840e+003;1.172325e-001
1.436768e+003;1.160757e-001
1.438697e+003;1.152420e-001
1.440625e+003;1.143241e-001
1.442554e+003;1.128601e-001
1.444482e+003;1.113198e-001
1.446411e+003;1.100332e-001
1.448340e+003;1.087205e-001
1.450268e+003;1.074179e-001
1.452197e+003;1.059545e-001
1.454125e+003;1.042829e-001
1.456054e+003;1.025405e-001
1.457982e+003;1.008110e-001
1.459911e+003;9.938966e-002
1.461839e+003;9.776115e-002
1.463768e+003;9.582400e-002
1.465697e+003;9.376603e-002
1.467625e+003;9.163862e-002
1.469554e+003;8.911739e-002
1.471482e+003;8.660004e-002
1.473411e+003;8.388367e-002
1.475339e+003;8.085269e-002
1.477268e+003;7.785814e-002
1.479196e+003;7.504692e-002
1.481125e+003;7.226235e-002
1.483053e+003;6.935082e-002
1.484982e+003;6.666353e-002
1.486911e+003;6.404713e-002
1.488839e+003;6.164149e-002
1.490768e+003;5.957192e-002
1.492696e+003;5.776711e-002
1.494625e+003;5.598944e-002
1.496553e+003;5.421606e-002
1.498482e+003;5.290385e-002
1.500410e+003;5.163269e-002
1.502339e+003;5.024675e-002
1.504267e+003;4.908267e-002
1.506196e+003;4.789011e-002
1.508125e+003;4.692449e-002
1.510053e+003;4.619298e-002
1.511982e+003;4.534712e-002
1.513910e+003;4.464620e-002
1.515839e+003;4.389454e-002
1.517767e+003;4.315288e-002
1.519696e+003;4.260945e-002
1.521624e+003;4.213690e-002
1.523553e+003;4.189385e-002
1.525481e+003;4.178370e-002
1.527410e+003;4.140185e-002
1.529339e+003;4.106964e-002
1.531267e+003;4.079355e-002
1.533196e+003;4.034511e-002
1.535124e+003;4.021246e-002
1.537053e+003;4.010564e-002
1.538981e+003;3.959120e-002
1.540910e+003;3.938280e-002
1.542838e+003;3.976186e-002
1.544767e+003;3.995871e-002
1.546695e+003;4.004514e-002
1.548624e+003;4.007443e-002
1.550553e+003;4.009420e-002
1.552481e+003;4.030021e-002
1.554410e+003;4.047687e-002
1.556338e+003;4.030966e-002
1.558267e+003;4.024023e-002
1.560195e+003;4.034195e-002
1.562124e+003;4.054387e-002
1.564052e+003;4.089100e-002
1.565981e+003;4.121003e-002
1.567910e+003;4.154522e-002
1.569838e+003;4.183726e-002
1.571767e+003;4.212711e-002
1.573695e+003;4.242981e-002
1.575624e+003;4.273377e-002
1.577552e+003;4.316763e-002
1.579481e+003;4.374001e-002
1.581409e+003;4.440423e-002
1.583338e+003;4.521991e-002
1.585266e+003;4.577329e-002
1.587195e+003;4.610679e-002
1.589124e+003;4.676973e-002
1.591052e+003;4.760333e-002
1.592981e+003;4.829171e-002
1.594909e+003;4.920044e-002
1.596838e+003;5.017731e-002
1.598766e+003;5.095879e-002
1.600695e+003;5.179759e-002
1.602623e+003;5.279525e-002
1.604552e+003;5.361891e-002
1.606480e+003;5.438460e-002
1.608409e+003;5.532154e-002
1.610338e+003;5.619865e-002
1.612266e+003;5.705729e-002
1.614195e+003;5.790342e-002
1.616123e+003;5.858039e-002
1.618052e+003;5.939455e-002
1.619980e+003;6.047370e-002
1.621909e+003;6.141052e-002
1.623837e+003;6.214868e-002
1.625766e+003;6.291445e-002
1.627694e+003;6.373644e-002
1.629623e+003;6.450574e-002
1.631552e+003;6.519852e-002
1.633480e+003;6.559452e-002
1.635409e+003;6.573517e-002
1.637337e+003;6.602932e-002
1.639266e+003;6.631803e-002
1.641194e+003;6.649864e-002
1.643123e+003;6.654336e-002
1.645051e+003;6.626932e-002
1.646980e+003;6.591666e-002
1.648909e+003;6.544603e-002
1.650837e+003;6.494980e-002
1.652766e+003;6.432461e-002
1.654694e+003;6.389160e-002
1.656623e+003;6.374484e-002
1.658551e+003;6.293713e-002
1.660480e+003;6.163443e-002
1.662408e+003;6.061479e-002
1.664337e+003;5.977762e-002
1.666266e+003;5.876938e-002
1.668194e+003;5.748119e-002
1.670123e+003;5.599419e-002
1.672051e+003;5.474272e-002
1.673980e+003;5.358030e-002
1.675908e+003;5.219090e-002
1.677837e+003;5.085805e-002
1.679765e+003;4.957287e-002
1.681694e+003;4.832193e-002
1.683622e+003;4.710785e-002
1.685551e+003;4.605690e-002
1.687479e+003;4.518384e-002
1.689408e+003;4.435315e-002
1.691337e+003;4.376409e-002
1.693265e+003;4.323713e-002
1.695194e+003;4.251472e-002
1.697122e+003;4.218553e-002
1.699051e+003;4.200030e-002
1.700979e+003;4.149003e-002
1.702908e+003;4.121735e-002
1.704836e+003;4.092926e-002
1.706765e+003;4.074445e-002
1.708693e+003;4.044868e-002
1.710622e+003;4.003195e-002
1.712551e+003;3.972312e-002
1.714479e+003;3.926298e-002
1.716408e+003;3.865796e-002
1.718336e+003;3.817016e-002
1.720265e+003;3.783520e-002
1.722193e+003;3.710699e-002
1.724122e+003;3.605391e-002
1.726050e+003;3.523567e-002
1.727979e+003;3.440466e-002
1.729908e+003;3.347917e-002
1.731836e+003;3.260028e-002
1.733765e+003;3.166647e-002
1.735693e+003;3.048372e-002
1.737622e+003;2.937451e-002
1.739550e+003;2.839259e-002
1.741479e+003;2.749537e-002
1.743407e+003;2.648539e-002
1.745336e+003;2.537004e-002
1.747265e+003;2.453625e-002
1.749193e+003;2.421028e-002
1.751122e+003;2.385470e-002
1.753050e+003;2.350311e-002
1.754979e+003;2.324044e-002
1.756907e+003;2.292571e-002
1.758836e+003;2.271357e-002
1.760764e+003;2.247095e-002
1.762693e+003;2.235017e-002
1.764621e+003;2.241007e-002
1.766550e+003;2.235418e-002
1.768479e+003;2.234193e-002
1.770407e+003;2.221160e-002
1.772336e+003;2.192201e-002
1.774264e+003;2.191950e-002
1.776193e+003;2.200042e-002
1.778121e+003;2.192957e-002
1.780050e+003;2.177169e-002
1.781978e+003;2.163372e-002
1.783907e+003;2.152957e-002
1.785835e+003;2.122878e-002
1.787764e+003;2.090264e-002
1.789693e+003;2.069651e-002
1.791621e+003;2.057341e-002
1.793550e+003;2.047989e-002
1.795478e+003;2.061913e-002
1.797407e+003;2.061708e-002
1.799335e+003;2.039852e-002
1.801264e+003;2.012613e-002
1.803192e+003;2.012381e-002
1.805121e+003;2.031942e-002
1.807049e+003;2.032334e-002
1.808978e+003;2.006290e-002
1.810907e+003;1.999555e-002
1.812835e+003;2.002560e-002
1.814764e+003;1.998896e-002
1.816692e+003;1.985648e-002
1.818621e+003;1.954111e-002
1.820549e+003;1.937998e-002
1.822478e+003;1.948209e-002
1.824406e+003;1.944151e-002
1.826335e+003;1.935545e-002
1.828264e+003;1.918493e-002
1.830192e+003;1.900862e-002
1.832121e+003;1.898294e-002
1.834049e+003;1.869445e-002
1.835978e+003;1.847437e-002
1.837906e+003;1.855369e-002
1.839835e+003;1.859816e-002
1.841763e+003;1.866408e-002
1.843692e+003;1.850770e-002
1.845620e+003;1.824386e-002
1.847549e+003;1.824071e-002
1.849478e+003;1.820568e-002
1.851406e+003;1.805896e-002
1.853335e+003;1.801367e-002
1.855263e+003;1.799651e-002
1.857192e+003;1.805340e-002
1.859120e+003;1.796764e-002
1.861049e+003;1.797793e-002
1.862977e+003;1.796129e-002
1.864906e+003;1.782590e-002
1.866834e+003;1.771538e-002
1.868763e+003;1.757859e-002
1.870692e+003;1.754767e-002
1.872620e+003;1.764076e-002
1.874549e+003;1.752135e-002
1.876477e+003;1.740221e-002
1.878406e+003;1.739176e-002
1.880334e+003;1.744470e-002
1.882263e+003;1.730713e-002
1.884191e+003;1.718426e-002
1.886120e+003;1.731431e-002
1.888048e+003;1.743846e-002
1.889977e+003;1.744398e-002
1.891906e+003;1.731886e-002
1.893834e+003;1.719777e-002
1.895763e+003;1.722266e-002
1.897691e+003;1.730344e-002
1.899620e+003;1.731455e-002
1.901548e+003;1.743159e-002
1.903477e+003;1.759522e-002
1.905405e+003;1.751279e-002
1.907334e+003;1.745239e-002
1.909262e+003;1.752849e-002
1.911191e+003;1.768473e-002
1.913120e+003;1.787427e-002
1.915048e+003;1.805433e-002
1.916977e+003;1.850110e-002
1.918905e+003;1.881789e-002
1.920834e+003;1.874565e-002
1.922762e+003;1.847278e-002
1.924691e+003;1.838621e-002
1.926619e+003;1.864271e-002
1.928548e+003;1.883412e-002
1.930477e+003;1.880779e-002
1.932405e+003;1.884260e-002
1.934334e+003;1.894542e-002
1.936262e+003;1.882018e-002
1.938191e+003;1.864572e-002
1.940119e+003;1.888586e-002
1.942048e+003;1.922319e-002
1.943976e+003;1.934921e-002
1.945905e+003;1.945762e-002
1.947833e+003;1.965002e-002
1.949762e+003;1.982138e-002
1.951691e+003;1.985277e-002
1.953619e+003;1.975959e-002
1.955548e+003;1.994768e-002
1.957476e+003;2.030587e-002
1.959405e+003;2.022071e-002
1.961333e+003;2.006578e-002
1.963262e+003;2.028292e-002
1.965190e+003;2.056972e-002
1.967119e+003;2.057889e-002
1.969047e+003;2.045214e-002
1.970976e+003;2.051077e-002
1.972905e+003;2.075907e-002
1.974833e+003;2.086443e-002
1.976762e+003;2.081023e-002
1.978690e+003;2.076998e-002
1.980619e+003;2.084412e-002
1.982547e+003;2.099627e-002
1.984476e+003;2.122881e-002
1.986404e+003;2.126862e-002
1.988333e+003;2.112378e-002
1.990261e+003;2.104392e-002
1.992190e+003;2.111853e-002
1.994119e+003;2.124419e-002
1.996047e+003;2.130233e-002
1.997976e+003;2.135906e-002
1.999904e+003;2.140953e-002
2.001833e+003;2.135979e-002
2.003761e+003;2.120418e-002
2.005690e+003;2.130150e-002
2.007618e+003;2.153409e-002
2.009547e+003;2.172491e-002
2.011476e+003;2.179761e-002
2.013404e+003;2.201580e-002
2.015333e+003;2.239423e-002
2.017261e+003;2.251900e-002
2.019190e+003;2.262039e-002
2.021118e+003;2.272760e-002
2.023047e+003;2.250909e-002
2.024975e+003;2.258894e-002
2.026904e+003;2.292184e-002
2.028833e+003;2.295093e-002
2.030761e+003;2.293672e-002
2.032690e+003;2.298454e-002
2.034618e+003;2.308254e-002
2.036547e+003;2.325369e-002
2.038475e+003;2.325547e-002
2.040404e+003;2.322538e-002
2.042332e+003;2.325834e-002
2.044261e+003;2.330641e-002
2.046189e+003;2.337375e-002
2.048118e+003;2.345166e-002
2.050047e+003;2.355516e-002
2.051975e+003;2.350591e-002
2.053904e+003;2.352403e-002
2.055832e+003;2.348803e-002
2.057761e+003;2.335392e-002
2.059689e+003;2.338983e-002
2.061618e+003;2.336228e-002
2.063546e+003;2.312783e-002
2.065475e+003;2.310180e-002
2.067404e+003;2.313804e-002
2.069332e+003;2.322366e-002
2.071260e+003;2.351521e-002
2.073189e+003;2.364094e-002
2.075118e+003;2.346422e-002
2.077046e+003;2.340424e-002
2.078975e+003;2.333889e-002
2.080903e+003;2.346453e-002
2.082832e+003;2.351504e-002
2.084760e+003;2.356688e-002
2.086689e+003;2.361235e-002
2.088617e+003;2.357664e-002
2.090546e+003;2.343215e-002
2.092475e+003;2.336109e-002
2.094403e+003;2.345886e-002
2.096332e+003;2.346492e-002
2.098260e+003;2.339088e-002
2.100189e+003;2.339316e-002
2.102117e+003;2.353777e-002
2.104046e+003;2.362481e-002
2.105974e+003;2.371998e-002
2.107903e+003;2.391484e-002
2.109832e+003;2.404303e-002
2.111760e+003;2.409959e-002
2.113688e+003;2.415385e-002
2.115617e+003;2.418695e-002
2.117546e+003;2.417497e-002
2.119474e+003;2.415020e-002
2.121403e+003;2.417476e-002
2.123331e+003;2.417448e-002
2.125260e+003;2.413857e-002
2.127188e+003;2.417591e-002
2.129117e+003;2.441840e-002
2.131045e+003;2.461150e-002
2.132974e+003;2.474824e-002
2.134903e+003;2.476578e-002
2.136831e+003;2.465116e-002
2.138760e+003;2.449253e-002
2.140688e+003;2.442074e-002
2.142617e+003;2.425471e-002
2.144545e+003;2.400889e-002
2.146474e+003;2.408540e-002
2.148402e+003;2.407654e-002
2.150331e+003;2.398343e-002
2.152260e+003;2.381749e-002
2.154188e+003;2.365749e-002
2.156117e+003;2.359017e-002
2.158045e+003;2.352168e-002
2.159974e+003;2.347184e-002
2.161902e+003;2.352444e-002
2.163831e+003;2.378235e-002
2.165759e+003;2.372593e-002
2.167688e+003;2.349468e-002
2.169616e+003;2.347520e-002
2.171545e+003;2.336378e-002
2.173474e+003;2.295911e-002
2.175402e+003;2.282970e-002
2.177331e+003;2.286305e-002
2.179259e+003;2.259313e-002
2.181188e+003;2.234727e-002
2.183116e+003;2.230737e-002
2.185045e+003;2.214894e-002
2.186973e+003;2.182113e-002
2.188902e+003;2.175605e-002
2.190831e+003;2.175364e-002
2.192759e+003;2.155690e-002
2.194688e+003;2.154635e-002
2.196616e+003;2.161645e-002
2.198545e+003;2.154635e-002
2.200473e+003;2.145043e-002
2.202402e+003;2.154809e-002
2.204330e+003;2.157226e-002
2.206259e+003;2.132221e-002
2.208188e+003;2.108538e-002
2.210116e+003;2.109181e-002
2.212044e+003;2.093528e-002
2.213973e+003;2.077683e-002
2.215902e+003;2.073401e-002
2.217830e+003;2.074475e-002
2.219759e+003;2.070277e-002
2.221687e+003;2.054572e-002
2.223616e+003;2.043161e-002
2.225544e+003;2.040904e-002
2.227473e+003;2.042877e-002
2.229401e+003;2.034375e-002
2.231330e+003;2.033282e-002
2.233259e+003;2.022238e-002
2.235187e+003;2.011843e-002
2.237116e+003;2.026064e-002
2.239044e+003;2.028417e-002
2.240973e+003;2.015692e-002
2.242901e+003;2.005582e-002
2.244830e+003;1.984459e-002
2.246758e+003;1.965155e-002
2.248687e+003;1.944033e-002
2.250615e+003;1.949914e-002
2.252544e+003;1.952773e-002
2.254473e+003;1.922417e-002
2.256401e+003;1.894784e-002
2.258330e+003;1.889378e-002
2.260258e+003;1.878873e-002
2.262187e+003;1.876115e-002
2.264115e+003;1.868864e-002
2.266044e+003;1.847551e-002
2.267972e+003;1.852900e-002
2.269901e+003;1.871109e-002
2.271830e+003;1.857956e-002
2.273758e+003;1.828149e-002
2.275687e+003;1.825934e-002
2.277615e+003;1.827067e-002
2.279544e+003;1.802549e-002
2.281472e+003;1.794057e-002
2.283401e+003;1.804631e-002
2.285329e+003;1.801181e-002
2.287258e+003;1.799002e-002
2.289187e+003;1.805934e-002
2.291115e+003;1.794032e-002
2.293043e+003;1.779449e-002
2.294972e+003;1.775928e-002
2.296901e+003;1.771406e-002
2.298829e+003;1.773891e-002
2.300758e+003;1.775465e-002
2.302686e+003;1.770161e-002
2.304615e+003;1.754439e-002
2.306543e+003;1.733148e-002
2.308472e+003;1.737686e-002
2.310400e+003;1.767914e-002
2.312329e+003;1.780667e-002
2.314258e+003;1.787500e-002
2.316186e+003;1.810431e-002
2.318115e+003;1.797634e-002
2.320043e+003;1.770005e-002
2.321972e+003;1.763804e-002
2.323900e+003;1.761450e-002
2.325829e+003;1.744718e-002
2.327757e+003;1.749399e-002
2.329686e+003;1.774306e-002
2.331615e+003;1.775100e-002
2.333543e+003;1.763704e-002
2.335472e+003;1.778520e-002
2.337400e+003;1.799582e-002
2.339329e+003;1.801734e-002
2.341257e+003;1.810172e-002
2.343186e+003;1.824863e-002
2.345114e+003;1.840713e-002
2.347043e+003;1.862593e-002
2.348971e+003;1.864344e-002
2.350900e+003;1.866298e-002
2.352829e+003;1.883139e-002
2.354757e+003;1.887727e-002
2.356686e+003;1.879215e-002
2.358614e+003;1.891150e-002
2.360543e+003;1.900568e-002
2.362471e+003;1.901434e-002
2.364400e+003;1.903673e-002
2.366328e+003;1.903518e-002
2.368257e+003;1.928779e-002
2.370186e+003;1.961809e-002
2.372114e+003;1.985416e-002
2.374042e+003;1.983487e-002
2.375971e+003;1.980342e-002
2.377900e+003;2.013689e-002
2.379828e+003;2.030022e-002
2.381757e+003;2.014893e-002
2.383685e+003;2.016615e-002
2.385614e+003;2.031351e-002
2.387542e+003;2.047041e-002
2.389471e+003;2.068230e-002
2.391399e+003;2.067288e-002
2.393328e+003;2.090323e-002
2.395257e+003;2.109063e-002
2.397185e+003;2.120296e-002
2.399114e+003;2.141806e-002
2.401042e+003;2.156331e-002
2.402971e+003;2.162014e-002
2.404899e+003;2.172895e-002
2.406828e+003;2.196731e-002
2.408756e+003;2.222007e-002
2.410685e+003;2.231459e-002
2.412614e+003;2.233541e-002
2.414542e+003;2.255027e-002
2.416471e+003;2.269335e-002
2.418399e+003;2.276555e-002
2.420328e+003;2.303237e-002
2.422256e+003;2.332249e-002
2.424185e+003;2.339865e-002
2.426113e+003;2.358975e-002
2.428042e+003;2.385270e-002
2.429970e+003;2.398035e-002
2.431899e+003;2.417381e-002
2.433828e+003;2.417507e-002
2.435756e+003;2.414558e-002
2.437685e+003;2.455073e-002
2.439613e+003;2.512408e-002
2.441542e+003;2.548011e-002
2.443470e+003;2.544834e-002
2.445399e+003;2.557797e-002
2.447327e+003;2.587395e-002
2.449256e+003;2.622208e-002
2.451185e+003;2.662974e-002
2.453113e+003;2.684226e-002
2.455042e+003;2.689795e-002
2.456970e+003;2.719268e-002
2.458899e+003;2.740018e-002
2.460827e+003;2.740946e-002
2.462756e+003;2.729403e-002
2.464684e+003;2.732530e-002
2.466613e+003;2.764468e-002
2.468542e+003;2.810666e-002
2.470470e+003;2.833310e-002
2.472398e+003;2.844148e-002
2.474327e+003;2.862901e-002
2.476256e+003;2.868065e-002
2.478184e+003;2.880913e-002
2.480113e+003;2.942798e-002
2.482041e+003;2.981403e-002
2.483970e+003;2.972769e-002
2.485898e+003;2.987788e-002
2.487827e+003;3.017748e-002
2.489755e+003;3.032710e-002
2.491684e+003;3.053807e-002
2.493613e+003;3.068590e-002
2.495541e+003;3.083986e-002
2.497470e+003;3.092379e-002
2.499398e+003;3.075773e-002
2.501327e+003;3.086078e-002
2.503255e+003;3.123824e-002
2.505184e+003;3.143248e-002
2.507112e+003;3.154584e-002
2.509041e+003;3.170660e-002
2.510969e+003;3.197629e-002
2.512898e+003;3.222602e-002
2.514827e+003;3.218392e-002
2.516755e+003;3.206711e-002
2.518684e+003;3.231828e-002
2.520612e+003;3.257285e-002
2.522541e+003;3.297519e-002
2.524469e+003;3.317817e-002
2.526398e+003;3.309428e-002
2.528326e+003;3.292296e-002
2.530255e+003;3.282611e-002
2.532184e+003;3.306961e-002
2.534112e+003;3.324695e-002
2.536041e+003;3.324645e-002
2.537969e+003;3.344746e-002
2.539898e+003;3.367036e-002
2.541826e+003;3.374838e-002
2.543755e+003;3.393321e-002
2.545683e+003;3.407002e-002
2.547612e+003;3.410063e-002
2.549541e+003;3.428940e-002
2.551469e+003;3.443529e-002
2.553397e+003;3.464302e-002
2.555326e+003;3.514581e-002
2.557255e+003;3.536718e-002
2.559183e+003;3.537020e-002
2.561112e+003;3.552910e-002
2.563040e+003;3.572998e-002
2.564969e+003;3.564261e-002
2.566897e+003;3.539119e-002
2.568826e+003;3.545025e-002
2.570754e+003;3.558600e-002
2.572683e+003;3.557100e-002
2.574612e+003;3.582633e-002
2.576540e+003;3.605236e-002
2.578469e+003;3.610497e-002
2.580397e+003;3.642749e-002
2.582326e+003;3.662226e-002
2.584254e+003;3.651423e-002
2.586183e+003;3.670532e-002
2.588111e+003;3.720621e-002
2.590040e+003;3.758602e-002
2.591969e+003;3.776775e-002
2.593897e+003;3.778149e-002
2.595826e+003;3.779963e-002
2.597754e+003;3.793503e-002
2.599683e+003;3.820753e-002
2.601611e+003;3.853509e-002
2.603540e+003;3.877921e-002
2.605468e+003;3.891577e-002
2.607397e+003;3.915662e-002
2.609325e+003;3.940573e-002
2.611254e+003;3.963697e-002
2.613183e+003;3.988821e-002
2.615111e+003;4.012890e-002
2.617040e+003;4.029403e-002
2.618968e+003;4.069216e-002
2.620897e+003;4.110395e-002
2.622825e+003;4.137542e-002
2.624754e+003;4.156735e-002
2.626682e+003;4.162890e-002
2.628611e+003;4.184080e-002
2.630540e+003;4.215286e-002
2.632468e+003;4.245367e-002
2.634396e+003;4.283963e-002
2.636325e+003;4.334560e-002
2.638254e+003;4.383108e-002
2.640182e+003;4.403276e-002
2.642111e+003;4.434254e-002
2.644039e+003;4.492335e-002
2.645968e+003;4.522969e-002
2.647896e+003;4.514759e-002
2.649825e+003;4.545939e-002
2.651753e+003;4.589583e-002
2.653682e+003;4.615908e-002
2.655611e+003;4.647702e-002
2.657539e+003;4.700926e-002
2.659468e+003;4.757057e-002
2.661396e+003;4.801702e-002
2.663325e+003;4.812481e-002
2.665253e+003;4.823802e-002
2.667182e+003;4.873401e-002
2.669110e+003;4.925588e-002
2.671039e+003;4.961347e-002
2.672968e+003;4.993451e-002
2.674896e+003;5.023269e-002
2.676825e+003;5.048652e-002
2.678753e+003;5.084494e-002
2.680682e+003;5.131513e-002
2.682610e+003;5.147651e-002
2.684539e+003;5.162844e-002
2.686467e+003;5.195501e-002
2.688396e+003;5.220264e-002
2.690324e+003;5.268575e-002
2.692253e+003;5.325288e-002
2.694182e+003;5.368411e-002
2.696110e+003;5.414564e-002
2.698039e+003;5.435370e-002
2.699967e+003;5.454777e-002
2.701896e+003;5.472276e-002
2.703824e+003;5.495046e-002
2.705753e+003;5.525132e-002
2.707681e+003;5.550746e-002
2.709610e+003;5.583161e-002
2.711539e+003;5.612927e-002
2.713467e+003;5.634183e-002
2.715396e+003;5.640166e-002
2.717324e+003;5.655804e-002
2.719253e+003;5.684302e-002
2.721181e+003;5.735968e-002
2.723110e+003;5.778126e-002
2.725038e+003;5.782003e-002
2.726967e+003;5.776772e-002
2.728896e+003;5.803538e-002
2.730824e+003;5.860985e-002
2.732752e+003;5.890100e-002
2.734681e+003;5.908849e-002
2.736610e+003;5.961445e-002
2.738538e+003;5.986698e-002
2.740467e+003;5.985109e-002
2.742395e+003;6.002442e-002
2.744324e+003;6.016612e-002
2.746252e+003;6.057578e-002
2.748181e+003;6.102456e-002
2.750109e+003;6.103341e-002
2.752038e+003;6.104462e-002
2.753967e+003;6.131741e-002
2.755895e+003;6.168992e-002
2.757824e+003;6.214834e-002
2.759752e+003;6.243158e-002
2.761681e+003;6.266505e-002
2.763609e+003;6.313649e-002
2.765538e+003;6.349250e-002
2.767466e+003;6.373686e-002
2.769395e+003;6.421162e-002
2.771323e+003;6.462250e-002
2.773252e+003;6.492775e-002
2.775181e+003;6.543837e-002
2.777109e+003;6.584077e-002
2.779038e+003;6.632652e-002
2.780966e+003;6.674822e-002
2.782895e+003;6.709363e-002
2.784823e+003;6.731332e-002
2.786752e+003;6.770097e-002
2.788680e+003;6.839723e-002
2.790609e+003;6.887677e-002
2.792538e+003;6.938188e-002
2.794466e+003;6.989753e-002
2.796395e+003;7.054685e-002
2.798323e+003;7.131298e-002
2.800252e+003;7.180697e-002
2.802180e+003;7.238763e-002
2.804109e+003;7.288527e-002
2.806037e+003;7.345459e-002
2.807966e+003;7.415276e-002
2.809895e+003;7.462355e-002
2.811823e+003;7.539553e-002
2.813751e+003;7.637655e-002
2.815680e+003;7.698876e-002
2.817609e+003;7.742082e-002
2.819537e+003;7.804338e-002
2.821466e+003;7.856835e-002
2.823394e+003;7.945634e-002
2.825323e+003;8.053026e-002
2.827251e+003;8.129984e-002
2.829180e+003;8.206986e-002
2.831108e+003;8.297551e-002
2.833037e+003;8.398645e-002
2.834966e+003;8.524451e-002
2.836894e+003;8.659482e-002
2.838823e+003;8.783592e-002
2.840751e+003;8.914587e-002
2.842680e+003;9.034223e-002
2.844608e+003;9.161399e-002
2.846537e+003;9.296614e-002
2.848465e+003;9.441512e-002
2.850394e+003;9.613954e-002
2.852323e+003;9.771699e-002
2.854251e+003;9.915600e-002
2.856180e+003;1.008997e-001
2.858108e+003;1.026735e-001
2.860037e+003;1.047063e-001
2.861965e+003;1.070675e-001
2.863894e+003;1.092709e-001
2.865822e+003;1.110893e-001
2.867751e+003;1.127123e-001
2.869679e+003;1.143738e-001
2.871608e+003;1.159457e-001
2.873536e+003;1.175825e-001
2.875465e+003;1.186206e-001
2.877394e+003;1.194673e-001
2.879322e+003;1.205053e-001
2.881251e+003;1.212736e-001
2.883179e+003;1.216806e-001
2.885108e+003;1.218711e-001
2.887036e+003;1.221025e-001
2.888965e+003;1.222433e-001
2.890893e+003;1.224613e-001
2.892822e+003;1.225474e-001
2.894750e+003;1.223042e-001
2.896679e+003;1.220440e-001
2.898608e+003;1.216708e-001
2.900536e+003;1.210036e-001
2.902465e+003;1.200878e-001
2.904393e+003;1.192992e-001
2.906322e+003;1.188639e-001
2.908250e+003;1.184703e-001
2.910179e+003;1.176209e-001
2.912107e+003;1.166855e-001
2.914036e+003;1.157717e-001
2.915965e+003;1.146429e-001
2.917893e+003;1.135097e-001
2.919822e+003;1.126534e-001
2.921750e+003;1.114885e-001
2.923679e+003;1.102930e-001
2.925607e+003;1.096668e-001
2.927536e+003;1.086394e-001
2.929464e+003;1.071623e-001
2.931393e+003;1.060734e-001
2.933322e+003;1.055178e-001
2.935250e+003;1.049543e-001
2.937178e+003;1.038650e-001
2.939107e+003;1.024929e-001
2.941036e+003;1.010931e-001
2.942964e+003;9.960765e-002
2.944893e+003;9.806125e-002
2.946821e+003;9.679625e-002
2.948750e+003;9.535393e-002
2.950678e+003;9.336871e-002
2.952607e+003;9.167667e-002
2.954535e+003;9.038544e-002
2.956464e+003;8.866200e-002
2.958393e+003;8.697534e-002
2.960321e+003;8.576240e-002
2.962250e+003;8.439382e-002
2.964178e+003;8.299116e-002
2.966107e+003;8.195476e-002
2.968035e+003;8.097461e-002
2.969964e+003;8.012263e-002
2.971892e+003;7.947445e-002
2.973821e+003;7.884240e-002
2.975750e+003;7.814376e-002
2.977678e+003;7.738335e-002
2.979607e+003;7.683399e-002
2.981535e+003;7.613315e-002
2.983464e+003;7.525760e-002
2.985392e+003;7.478289e-002
2.987321e+003;7.440343e-002
2.989249e+003;7.377262e-002
2.991178e+003;7.318497e-002
2.993106e+003;7.315058e-002
2.995035e+003;7.317623e-002
2.996964e+003;7.291165e-002
2.998892e+003;7.232704e-002
3.000821e+003;7.169166e-002
3.002749e+003;7.162805e-002
3.004678e+003;7.192606e-002
3.006606e+003;7.229217e-002
3.008535e+003;7.256190e-002
3.010463e+003;7.302289e-002
3.012392e+003;7.342677e-002
3.014321e+003;7.353790e-002
3.016249e+003;7.393064e-002
3.018177e+003;7.418133e-002
3.020106e+003;7.444342e-002
3.022035e+003;7.513503e-002
3.023963e+003;7.572529e-002
3.025892e+003;7.632110e-002
3.027820e+003;7.701419e-002
3.029749e+003;7.747044e-002
3.031677e+003;7.832833e-002
3.033606e+003;7.929461e-002
3.035534e+003;8.000104e-002
3.037463e+003;8.075766e-002
3.039392e+003;8.127610e-002
3.041320e+003;8.187918e-002
3.043249e+003;8.279859e-002
3.045177e+003;8.331875e-002
3.047106e+003;8.406056e-002
3.049034e+003;8.510438e-002
3.050963e+003;8.561181e-002
3.052891e+003;8.612954e-002
3.054820e+003;8.709347e-002
3.056749e+003;8.794784e-002
3.058677e+003;8.874536e-002
3.060606e+003;8.962082e-002
3.062534e+003;9.027435e-002
3.064463e+003;9.105871e-002
3.066391e+003;9.209804e-002
3.068320e+003;9.283630e-002
3.070248e+003;9.343510e-002
3.072177e+003;9.409370e-002
3.074105e+003;9.494308e-002
3.076034e+003;9.615988e-002
3.077963e+003;9.722552e-002
3.079891e+003;9.803496e-002
3.081820e+003;9.887266e-002
3.083748e+003;1.000864e-001
3.085677e+003;1.010558e-001
3.087605e+003;1.018393e-001
3.089534e+003;1.027426e-001
3.091462e+003;1.039913e-001
3.093391e+003;1.047502e-001
3.095320e+003;1.053852e-001
3.097248e+003;1.063434e-001
3.099177e+003;1.070394e-001
3.101105e+003;1.079084e-001
3.103034e+003;1.091806e-001
3.104962e+003;1.101356e-001
3.106891e+003;1.106085e-001
3.108819e+003;1.113563e-001
3.110748e+003;1.126011e-001
3.112677e+003;1.135819e-001
3.114605e+003;1.141632e-001
3.116533e+003;1.150573e-001
3.118462e+003;1.160757e-001
3.120391e+003;1.171239e-001
3.122319e+003;1.179961e-001
3.124248e+003;1.189507e-001
3.126176e+003;1.199457e-001
3.128105e+003;1.207914e-001
3.130033e+003;1.216194e-001
3.131962e+003;1.225362e-001
3.133890e+003;1.235268e-001
3.135819e+003;1.245240e-001
3.137748e+003;1.252442e-001
3.139676e+003;1.259069e-001
3.141605e+003;1.269578e-001
3.143533e+003;1.280084e-001
3.145462e+003;1.287914e-001
3.147390e+003;1.294979e-001
3.149319e+003;1.301500e-001
3.151247e+003;1.307335e-001
3.153176e+003;1.313867e-001
3.155104e+003;1.327667e-001
3.157033e+003;1.342170e-001
3.158962e+003;1.347017e-001
3.160890e+003;1.351631e-001
3.162819e+003;1.362765e-001
3.164747e+003;1.372699e-001
3.166676e+003;1.380059e-001
3.168604e+003;1.384926e-001
3.170533e+003;1.392195e-001
3.172461e+003;1.401808e-001
3.174390e+003;1.411347e-001
3.176319e+003;1.423026e-001
3.178247e+003;1.431740e-001
3.180176e+003;1.436888e-001
3.182104e+003;1.445248e-001
3.184033e+003;1.454064e-001
3.185961e+003;1.461705e-001
3.187890e+003;1.470373e-001
3.189818e+003;1.475325e-001
3.191747e+003;1.481482e-001
3.193676e+003;1.490937e-001
3.195604e+003;1.500766e-001
3.197532e+003;1.506176e-001
3.199461e+003;1.510298e-001
3.201390e+003;1.520012e-001
3.203318e+003;1.531071e-001
3.205247e+003;1.534901e-001
3.207175e+003;1.538175e-001
3.209104e+003;1.544880e-001
3.211032e+003;1.553229e-001
3.212961e+003;1.562746e-001
3.214889e+003;1.571371e-001
3.216818e+003;1.579526e-001
3.218747e+003;1.586401e-001
3.220675e+003;1.592602e-001
3.222604e+003;1.598065e-001
3.224532e+003;1.604948e-001
3.226461e+003;1.608332e-001
3.228389e+003;1.612976e-001
3.230318e+003;1.619540e-001
3.232246e+003;1.626096e-001
3.234175e+003;1.633961e-001
3.236104e+003;1.642294e-001
3.238032e+003;1.647024e-001
3.239961e+003;1.648992e-001
3.241889e+003;1.651591e-001
3.243818e+003;1.656585e-001
3.245746e+003;1.661219e-001
3.247675e+003;1.666900e-001
3.249603e+003;1.675456e-001
3.251532e+003;1.683364e-001
3.253460e+003;1.689039e-001
3.255389e+003;1.691408e-001
3.257318e+003;1.692255e-001
3.259246e+003;1.692912e-001
3.261175e+003;1.696069e-001
3.263103e+003;1.699588e-001
3.265032e+003;1.704871e-001
3.266960e+003;1.714243e-001
3.268889e+003;1.721245e-001
3.270817e+003;1.726568e-001
3.272746e+003;1.731661e-001
3.274675e+003;1.732491e-001
3.276603e+003;1.731803e-001
3.278531e+003;1.737954e-001
3.280460e+003;1.746083e-001
3.282389e+003;1.749386e-001
3.284317e+003;1.752469e-001
3.286246e+003;1.758513e-001
3.288174e+003;1.762565e-001
3.290103e+003;1.758590e-001
3.292031e+003;1.751723e-001
3.293960e+003;1.753457e-001
3.295888e+003;1.759664e-001
3.297817e+003;1.762719e-001
3.299746e+003;1.765963e-001
3.301674e+003;1.772017e-001
3.303603e+003;1.777650e-001
3.305531e+003;1.779959e-001
3.307460e+003;1.778861e-001
3.309388e+003;1.780537e-001
3.311317e+003;1.784504e-001
3.313245e+003;1.786996e-001
3.315174e+003;1.786211e-001
3.317103e+003;1.787620e-001
3.319031e+003;1.790887e-001
3.320960e+003;1.790769e-001
3.322888e+003;1.789569e-001
3.324817e+003;1.787299e-001
3.326745e+003;1.786215e-001
3.328674e+003;1.788009e-001
3.330602e+003;1.790479e-001
3.332531e+003;1.789516e-001
3.334459e+003;1.787354e-001
3.336388e+003;1.791424e-001
3.338317e+003;1.795935e-001
3.340245e+003;1.794345e-001
3.342174e+003;1.793024e-001
3.344102e+003;1.794853e-001
3.346031e+003;1.796731e-001
3.347959e+003;1.792906e-001
3.349888e+003;1.788178e-001
3.351816e+003;1.789019e-001
3.353745e+003;1.784615e-001
3.355674e+003;1.778512e-001
3.357602e+003;1.778579e-001
3.359531e+003;1.778551e-001
3.361459e+003;1.775378e-001
3.363388e+003;1.767473e-001
3.365316e+003;1.760888e-001
3.367245e+003;1.762139e-001
3.369173e+003;1.764029e-001
3.371102e+003;1.762886e-001
3.373031e+003;1.762768e-001
3.374959e+003;1.762771e-001
3.376887e+003;1.758136e-001
3.378816e+003;1.747213e-001
3.380745e+003;1.740655e-001
3.382673e+003;1.737185e-001
3.384602e+003;1.739031e-001
3.386530e+003;1.733430e-001
3.388459e+003;1.721184e-001
3.390387e+003;1.716968e-001
3.392316e+003;1.714365e-001
3.394244e+003;1.709684e-001
3.396173e+003;1.706821e-001
3.398102e+003;1.701136e-001
3.400030e+003;1.692592e-001
3.401959e+003;1.687728e-001
3.403887e+003;1.686091e-001
3.405816e+003;1.681626e-001
3.407744e+003;1.675105e-001
3.409673e+003;1.667478e-001
3.411601e+003;1.659010e-001
3.413530e+003;1.652731e-001
3.415458e+003;1.647613e-001
3.417387e+003;1.640127e-001
3.419316e+003;1.631207e-001
3.421244e+003;1.626090e-001
3.423173e+003;1.621844e-001
3.425101e+003;1.616102e-001
3.427030e+003;1.605642e-001
3.428958e+003;1.599152e-001
3.430887e+003;1.593619e-001
3.432815e+003;1.581862e-001
3.434744e+003;1.573102e-001
3.436673e+003;1.568265e-001
3.438601e+003;1.559409e-001
3.440530e+003;1.549579e-001
3.442458e+003;1.538488e-001
3.444387e+003;1.525155e-001
3.446315e+003;1.515843e-001
3.448244e+003;1.506755e-001
3.450172e+003;1.491334e-001
3.452101e+003;1.473539e-001
3.454030e+003;1.460238e-001
3.455958e+003;1.450982e-001
3.457886e+003;1.442061e-001
3.459815e+003;1.430571e-001
3.461744e+003;1.415508e-001
3.463672e+003;1.400055e-001
3.465601e+003;1.388093e-001
3.467529e+003;1.378500e-001
3.469458e+003;1.368232e-001
3.471386e+003;1.354435e-001
3.473315e+003;1.340324e-001
3.475243e+003;1.327140e-001
3.477172e+003;1.317327e-001
3.479101e+003;1.304288e-001
3.481029e+003;1.286695e-001
3.482958e+003;1.274501e-001
3.484886e+003;1.265674e-001
3.486815e+003;1.255370e-001
3.488743e+003;1.243058e-001
3.490672e+003;1.228263e-001
3.492600e+003;1.216898e-001
3.494529e+003;1.205995e-001
3.496458e+003;1.183535e-001
3.498386e+003;1.163693e-001
3.500315e+003;1.151353e-001
3.502243e+003;1.136699e-001
3.504172e+003;1.121766e-001
3.506100e+003;1.107728e-001
3.508029e+003;1.092594e-001
3.509957e+003;1.077460e-001
3.511886e+003;1.060706e-001
3.513814e+003;1.046997e-001
3.515743e+003;1.037054e-001
3.517672e+003;1.025937e-001
3.519600e+003;1.012899e-001
3.521529e+003;9.986575e-002
3.523457e+003;9.858385e-002
3.525386e+003;9.732513e-002
3.527314e+003;9.573311e-002
3.529243e+003;9.409646e-002
3.531171e+003;9.257858e-002
3.533100e+003;9.145583e-002
3.535029e+003;9.055524e-002
3.536957e+003;8.906987e-002
3.538885e+003;8.745027e-002
3.540814e+003;8.612587e-002
3.542743e+003;8.506597e-002
3.544671e+003;8.404660e-002
3.546600e+003;8.262574e-002
3.548528e+003;8.128665e-002
3.550457e+003;7.996726e-002
3.552385e+003;7.895513e-002
3.554314e+003;7.788859e-002
3.556242e+003;7.674228e-002
3.558171e+003;7.545257e-002
3.560100e+003;7.372943e-002
3.562028e+003;7.259221e-002
3.563957e+003;7.150716e-002
3.565885e+003;7.018813e-002
3.567814e+003;6.909807e-002
3.569742e+003;6.812280e-002
3.571671e+003;6.683968e-002
3.573599e+003;6.578879e-002
3.575528e+003;6.447834e-002
3.577457e+003;6.310802e-002
3.579385e+003;6.194049e-002
3.581314e+003;6.083230e-002
3.583242e+003;6.011015e-002
3.585171e+003;5.900126e-002
3.587099e+003;5.745687e-002
3.589028e+003;5.631557e-002
3.590956e+003;5.541602e-002
3.592885e+003;5.475659e-002
3.594813e+003;5.393310e-002
3.596742e+003;5.257960e-002
3.598671e+003;5.103368e-002
3.600599e+003;4.937726e-002
3.602528e+003;4.839604e-002
3.604456e+003;4.767055e-002
3.606385e+003;4.644140e-002
3.608313e+003;4.537790e-002
3.610242e+003;4.443492e-002
3.612170e+003;4.322538e-002
3.614099e+003;4.178027e-002
3.616028e+003;4.033595e-002
3.617956e+003;3.866380e-002
3.619885e+003;3.745662e-002
3.621813e+003;3.674419e-002
3.623742e+003;3.596856e-002
3.625670e+003;3.516708e-002
3.627599e+003;3.399430e-002
3.629527e+003;3.250864e-002
3.631456e+003;3.140295e-002
3.633385e+003;3.024170e-002
3.635313e+003;2.914806e-002
3.637241e+003;2.817701e-002
3.639170e+003;2.686422e-002
3.641099e+003;2.572820e-002
3.643027e+003;2.498441e-002
3.644956e+003;2.431588e-002
3.646884e+003;2.324355e-002
3.648813e+003;2.165448e-002
3.650741e+003;2.028900e-002
3.652670e+003;1.947900e-002
3.654598e+003;1.872832e-002
3.656527e+003;1.804611e-002
3.658456e+003;1.768877e-002
3.660384e+003;1.705939e-002
3.662313e+003;1.596397e-002
3.664241e+003;1.516206e-002
3.666170e+003;1.450837e-002
3.668098e+003;1.364948e-002
3.670027e+003;1.264175e-002
3.671955e+003;1.191998e-002
3.673884e+003;1.138457e-002
3.675813e+003;1.099239e-002
3.677741e+003;1.053600e-002
3.679669e+003;1.030372e-002
3.681598e+003;9.930150e-003
3.683527e+003;9.480524e-003
3.685455e+003;8.985154e-003
3.687384e+003;8.158068e-003
3.689312e+003;7.735434e-003
3.691241e+003;7.596019e-003
3.693169e+003;7.298789e-003
3.695098e+003;6.722640e-003
3.697026e+003;6.322076e-003
3.698955e+003;6.355798e-003
3.700884e+003;6.361043e-003
3.702812e+003;5.850309e-003
3.704741e+003;5.723449e-003
3.706669e+003;5.679638e-003
3.708598e+003;5.228923e-003
3.710526e+003;4.742564e-003
3.712455e+003;4.555184e-003
3.714383e+003;4.594261e-003
3.716312e+003;4.509146e-003
3.718240e+003;4.273814e-003
3.720169e+003;4.210475e-003
3.722098e+003;4.134100e-003
3.724026e+003;4.013058e-003
3.725955e+003;3.884092e-003
3.727883e+003;3.940495e-003
3.729812e+003;4.255410e-003
3.731740e+003;4.058708e-003
3.733669e+003;3.747913e-003
3.735597e+003;3.350383e-003
3.737526e+003;3.102862e-003
3.739455e+003;3.188335e-003
3.741383e+003;3.473244e-003
3.743312e+003;3.577431e-003
3.745240e+003;3.499564e-003
3.747169e+003;3.514529e-003
3.749097e+003;3.055677e-003
3.751026e+003;2.598275e-003
3.752954e+003;2.644844e-003
3.754883e+003;3.175184e-003
3.756812e+003;3.280869e-003
3.758740e+003;3.061983e-003
3.760668e+003;2.990147e-003
3.762597e+003;3.030585e-003
3.764526e+003;2.871958e-003
3.766454e+003;2.711122e-003
3.768383e+003;3.142208e-003
3.770311e+003;3.341200e-003
3.772240e+003;3.051539e-003
3.774168e+003;3.036891e-003
3.776097e+003;3.028583e-003
3.778025e+003;2.867889e-003
3.779954e+003;2.691518e-003
3.781883e+003;2.359111e-003
3.783811e+003;2.196767e-003
3.785740e+003;2.504254e-003
3.787668e+003;2.521317e-003
3.789597e+003;2.364442e-003
3.791525e+003;2.408953e-003
3.793454e+003;2.597409e-003
3.795382e+003;2.572077e-003
3.797311e+003;2.451902e-003
3.799240e+003;2.257048e-003
3.801168e+003;2.009550e-003
3.803097e+003;2.322800e-003
3.805025e+003;2.546246e-003
3.806954e+003;2.023065e-003
3.808882e+003;1.597876e-003
3.810811e+003;1.819518e-003
3.812739e+003;2.498122e-003
3.814668e+003;2.616276e-003
3.816596e+003;2.558811e-003
3.818525e+003;2.793083e-003
3.820454e+003;2.692251e-003
3.822382e+003;2.267839e-003
3.824311e+003;2.507753e-003
3.826239e+003;2.819562e-003
3.828168e+003;2.443772e-003
3.830096e+003;2.508086e-003
3.832025e+003;2.734962e-003
3.833953e+003;2.689150e-003
3.835882e+003;2.711189e-003
3.837811e+003;2.595609e-003
3.839739e+003;2.603176e-003
3.841667e+003;2.409586e-003
3.843596e+003;2.477361e-003
3.845525e+003;2.542513e-003
3.847453e+003;2.396025e-003
3.849382e+003;2.244391e-003
3.851310e+003;1.969207e-003
3.853239e+003;1.869431e-003
3.855167e+003;2.262843e-003
3.857096e+003;2.456767e-003
3.859024e+003;2.134996e-003
3.860953e+003;2.337791e-003
3.862882e+003;2.861518e-003
3.864810e+003;3.159864e-003
3.866739e+003;3.103729e-003
3.868667e+003;3.103529e-003
3.870596e+003;3.242778e-003
3.872524e+003;3.164436e-003
3.874453e+003;2.848111e-003
3.876381e+003;3.115410e-003
3.878310e+003;3.381604e-003
3.880239e+003;3.148850e-003
3.882167e+003;3.223717e-003
3.884096e+003;3.407451e-003
3.886024e+003;3.502069e-003
3.887953e+003;3.473945e-003
3.889881e+003;3.355391e-003
3.891810e+003;3.430093e-003
3.893738e+003;3.752726e-003
3.895667e+003;4.086535e-003
3.897595e+003;3.904018e-003
3.899524e+003;3.481761e-003
3.901453e+003;3.459584e-003
3.903381e+003;4.021820e-003
3.905310e+003;4.440150e-003
3.907238e+003;4.336325e-003
3.909167e+003;4.197561e-003
3.911095e+003;4.283584e-003
3.913024e+003;4.462378e-003
3.914952e+003;4.465859e-003
3.916881e+003;4.283250e-003
3.918810e+003;4.393623e-003
3.920738e+003;4.664487e-003
3.922667e+003;4.551032e-003
3.924595e+003;4.474530e-003
3.926524e+003;4.599317e-003
3.928452e+003;4.879457e-003
3.930381e+003;4.894470e-003
3.932309e+003;5.077370e-003
3.934238e+003;5.372244e-003
3.936167e+003;5.221311e-003
3.938095e+003;5.289694e-003
3.940023e+003;5.623311e-003
3.941952e+003;5.697766e-003
3.943881e+003;5.369862e-003
3.945809e+003;5.398612e-003
3.947738e+003;5.746448e-003
3.949666e+003;5.598842e-003
3.951595e+003;5.334673e-003
3.953523e+003;5.423606e-003
3.955452e+003;5.528263e-003
3.957380e+003;5.737786e-003
3.959309e+003;5.803026e-003
3.961238e+003;5.618847e-003
3.963166e+003;5.846951e-003
3.965095e+003;6.117144e-003
3.967023e+003;5.926248e-003
3.968952e+003;6.085053e-003
3.970880e+003;6.429707e-003
3.972809e+003;6.306073e-003
3.974737e+003;5.683734e-003
3.976666e+003;5.643182e-003
3.978594e+003;6.150615e-003
3.980523e+003;6.097822e-003
3.982452e+003;5.863138e-003
3.984380e+003;6.082365e-003
3.986309e+003;6.359026e-003
3.988237e+003;6.042012e-003
3.990166e+003;6.156025e-003
3.992094e+003;6.256825e-003
3.994023e+003;6.069798e-003
3.995951e+003;6.073058e-003
3.997880e+003;6.416592e-003
3.999809e+003;6.380646e-003
4.001737e+003;0.000000e+000
