3.992094e+002;0.000000e+000
4.011380e+002;0.000000e+000
4.030665e+002;0.000000e+000
4.049951e+002;0.000000e+000
4.069236e+002;0.000000e+000
4.088522e+002;0.000000e+000
4.107807e+002;0.000000e+000
4.127093e+002;0.000000e+000
4.146378e+002;0.000000e+000
4.165664e+002;0.000000e+000
4.184949e+002;0.000000e+000
4.204235e+002;0.000000e+000
4.223520e+002;0.000000e+000
4.242806e+002;0.000000e+000
4.262091e+002;0.000000e+000
4.281377e+002;0.000000e+000
4.300662e+002;0.000000e+000
4.319948e+002;0.000000e+000
4.339233e+002;0.000000e+000
4.358519e+002;0.000000e+000
4.377804e+002;0.000000e+000
4.397090e+002;0.000000e+000
4.416375e+002;0.000000e+000
4.435660e+002;0.000000e+000
4.454946e+002;0.000000e+000
4.474232e+002;0.000000e+000
4.493517e+002;0.000000e+000
4.512802e+002;0.000000e+000
4.532088e+002;0.000000e+000
4.551373e+002;0.000000e+000
4.570659e+002;0.000000e+000
4.589944e+002;0.000000e+000
4.609230e+002;0.000000e+000
4.628515e+002;0.000000e+000
4.647801e+002;0.000000e+000
4.667086e+002;0.000000e+000
4.686372e+002;0.000000e+000
4.705657e+002;0.000000e+000
4.724943e+002;0.000000e+000
4.744228e+002;0.000000e+000
4.763513e+002;0.000000e+000
4.782799e+002;0.000000e+000
4.802085e+002;0.000000e+000
4.821370e+002;0.000000e+000
4.840656e+002;0.000000e+000
4.859941e+002;0.000000e+000
4.879226e+002;0.000000e+000
4.898512e+002;0.000000e+000
4.917798e+002;0.000000e+000
4.937083e+002;0.000000e+000
4.956368e+002;0.000000e+000
4.975654e+002;0.000000e+000
4.994939e+002;0.000000e+000
5.014225e+002;0.000000e+000
5.033510e+002;0.000000e+000
5.052796e+002;0.000000e+000
5.072081e+002;0.000000e+000
5.091367e+002;0.000000e+000
5.110652e+002;0.000000e+000
5.129938e+002;0.000000e+000
5.149223e+002;0.000000e+000
5.168509e+002;0.000000e+000
5.187794e+002;0.000000e+000
5.207079e+002;0.000000e+000
5.226365e+002;0.000000e+000
5.245651e+002;0.000000e+000
5.264936e+002;0.000000e+000
5.284222e+002;0.000000e+000
5.303507e+002;0.000000e+000
5.322792e+002;0.000000e+000
5.342078e+002;0.000000e+000
5.361364e+002;0.000000e+000
5.380649e+002;0.000000e+000
5.399935e+002;0.000000e+000
5.419220e+002;0.000000e+000
5.438505e+002;0.000000e+000
5.457791e+002;0.000000e+000
5.477076e+002;0.000000e+000
5.496362e+002;0.000000e+000
5.515648e+002;0.000000e+000
5.534933e+002;0.000000e+000
5.554218e+002;0.000000e+000
5.573504e+002;0.000000e+000
5.592789e+002;0.000000e+000
5.612075e+002;0.000000e+000
5.631360e+002;0.000000e+000
5.650646e+002;0.000000e+000
5.669931e+002;0.000000e+000
5.689217e+002;0.000000e+000
5.708502e+002;0.000000e+000
5.727787e+002;0.000000e+000
5.747073e+002;0.000000e+000
5.766359e+002;0.000000e+000
5.785644e+002;0.000000e+000
5.804930e+002;0.000000e+000
5.824215e+002;0.000000e+000
5.843500e+002;0.000000e+000
5.862786e+002;0.000000e+000
5.882072e+002;0.000000e+000
5.901357e+002;0.000000e+000
5.920643e+002;0.000000e+000
5.939928e+002;0.000000e+000
5.959213e+002;0.000000e+000
5.978499e+002;0.000000e+000
5.997784e+002;3.050367e-001
6.017070e+002;3.071993e-001
6.036355e+002;3.060842e-001
6.055641e+002;3.046563e-001
6.074926e+002;3.043190e-001
6.094211e+002;2.988358e-001
6.113497e+002;2.929173e-001
6.132783e+002;2.911539e-001
6.152068e+002;2.877865e-001
6.171354e+002;2.827008e-001
6.190639e+002;2.760254e-001
6.209924e+002;2.713918e-001
6.229210e+002;2.708914e-001
6.248495e+002;2.700906e-001
6.267781e+002;2.669663e-001
6.287067e+002;2.673782e-001
6.306352e+002;2.666665e-001
6.325637e+002;2.623651e-001
6.344923e+002;2.605368e-001
6.364208e+002;2.634487e-001
6.383494e+002;2.634701e-001
6.402780e+002;2.621166e-001
6.422065e+002;2.588001e-001
6.441350e+002;2.573125e-001
6.460636e+002;2.587682e-001
6.479921e+002;2.600817e-001
6.499207e+002;2.625206e-001
6.518492e+002;2.638070e-001
6.537778e+002;2.639678e-001
6.557063e+002;2.662455e-001
6.576349e+002;2.696070e-001
6.595634e+002;2.715966e-001
6.614919e+002;2.740971e-001
6.634205e+002;2.770155e-001
6.653491e+002;2.793554e-001
6.672776e+002;2.792228e-001
6.692062e+002;2.789740e-001
6.711347e+002;2.767856e-001
6.730632e+002;2.658352e-001
6.749918e+002;2.521186e-001
6.769203e+002;2.378644e-001
6.788489e+002;2.244257e-001
6.807775e+002;2.132873e-001
6.827060e+002;2.067955e-001
6.846345e+002;2.027154e-001
6.865631e+002;1.999792e-001
6.884916e+002;1.991763e-001
6.904202e+002;1.974984e-001
6.923488e+002;1.960540e-001
6.942773e+002;1.956407e-001
6.962058e+002;1.963232e-001
6.981344e+002;1.971931e-001
7.000629e+002;1.959932e-001
7.019915e+002;1.944204e-001
7.039200e+002;1.941743e-001
7.058486e+002;1.939608e-001
7.077771e+002;1.932692e-001
7.097057e+002;1.920036e-001
7.116342e+002;1.903491e-001
7.135627e+002;1.897185e-001
7.154913e+002;1.884324e-001
7.174199e+002;1.867262e-001
7.193484e+002;1.854038e-001
7.212770e+002;1.836663e-001
7.232055e+002;1.820839e-001
7.251340e+002;1.807431e-001
7.270626e+002;1.791576e-001
7.289911e+002;1.768572e-001
7.309197e+002;1.741395e-001
7.328483e+002;1.725698e-001
7.347768e+002;1.724352e-001
7.367053e+002;1.720156e-001
7.386339e+002;1.703093e-001
7.405624e+002;1.692296e-001
7.424910e+002;1.678613e-001
7.444196e+002;1.673285e-001
7.463481e+002;1.664509e-001
7.482766e+002;1.650076e-001
7.502052e+002;1.636205e-001
7.521337e+002;1.625099e-001
7.540623e+002;1.615947e-001
7.559908e+002;1.593111e-001
7.579194e+002;1.569514e-001
7.598479e+002;1.558094e-001
7.617765e+002;1.560318e-001
7.637050e+002;1.555993e-001
7.656335e+002;1.539772e-001
7.675621e+002;1.520815e-001
7.694907e+002;1.508997e-001
7.714192e+002;1.504909e-001
7.733478e+002;1.493429e-001
7.752763e+002;1.472135e-001
7.772048e+002;1.461815e-001
7.791334e+002;1.460519e-001
7.810620e+002;1.459156e-001
7.829905e+002;1.448694e-001
7.849191e+002;1.442003e-001
7.868476e+002;1.438001e-001
7.887761e+002;1.429100e-001
7.907047e+002;1.421158e-001
7.926332e+002;1.415353e-001
7.945618e+002;1.409867e-001
7.964903e+002;1.408645e-001
7.984189e+002;1.406228e-001
8.003474e+002;1.403244e-001
8.022759e+002;1.400902e-001
8.042045e+002;1.388614e-001
8.061331e+002;1.378158e-001
8.080616e+002;1.381621e-001
8.099902e+002;1.387849e-001
8.119187e+002;1.387400e-001
8.138472e+002;1.388348e-001
8.157758e+002;1.387661e-001
8.177043e+002;1.382583e-001
8.196329e+002;1.376331e-001
8.215615e+002;1.371078e-001
8.234900e+002;1.375081e-001
8.254185e+002;1.382864e-001
8.273471e+002;1.377882e-001
8.292756e+002;1.372943e-001
8.312042e+002;1.373752e-001
8.331328e+002;1.368034e-001
8.350613e+002;1.363302e-001
8.369898e+002;1.359603e-001
8.389184e+002;1.353716e-001
8.408469e+002;1.349669e-001
8.427755e+002;1.348571e-001
8.447040e+002;1.346274e-001
8.466326e+002;1.341767e-001
8.485611e+002;1.339646e-001
8.504897e+002;1.340850e-001
8.524182e+002;1.345678e-001
8.543467e+002;1.349710e-001
8.562753e+002;1.353768e-001
8.582039e+002;1.357165e-001
8.601324e+002;1.356717e-001
8.620610e+002;1.364299e-001
8.639895e+002;1.377427e-001
8.659180e+002;1.389713e-001
8.678466e+002;1.402804e-001
8.697751e+002;1.417460e-001
8.717037e+002;1.440893e-001
8.736323e+002;1.468084e-001
8.755608e+002;1.497221e-001
8.774893e+002;1.538462e-001
8.794179e+002;1.590926e-001
8.813464e+002;1.648320e-001
8.832750e+002;1.711618e-001
8.852036e+002;1.779337e-001
8.871321e+002;1.852044e-001
8.890606e+002;1.928225e-001
8.909892e+002;1.997156e-001
8.929177e+002;2.043462e-001
8.948463e+002;2.055164e-001
8.967748e+002;2.026023e-001
8.987034e+002;1.975329e-001
9.006319e+002;1.918738e-001
9.025605e+002;1.855590e-001
9.044890e+002;1.798870e-001
9.064175e+002;1.752447e-001
9.083461e+002;1.709836e-001
9.102747e+002;1.672192e-001
9.122032e+002;1.644970e-001
9.141318e+002;1.625218e-001
9.160603e+002;1.611130e-001
9.179888e+002;1.609339e-001
9.199174e+002;1.618376e-001
9.218459e+002;1.631993e-001
9.237745e+002;1.650394e-001
9.257031e+002;1.666096e-001
9.276316e+002;1.677910e-001
9.295601e+002;1.697595e-001
9.314887e+002;1.718805e-001
9.334172e+002;1.740554e-001
9.353458e+002;1.764575e-001
9.372744e+002;1.784782e-001
9.392029e+002;1.805899e-001
9.411314e+002;1.833164e-001
9.430600e+002;1.864819e-001
9.449885e+002;1.895537e-001
9.469171e+002;1.935254e-001
9.488456e+002;1.985199e-001
9.507742e+002;2.035105e-001
9.527027e+002;2.087903e-001
9.546313e+002;2.146902e-001
9.565598e+002;2.214897e-001
9.584883e+002;2.281793e-001
9.604169e+002;2.345410e-001
9.623455e+002;2.410711e-001
9.642740e+002;2.473889e-001
9.662026e+002;2.534891e-001
9.681311e+002;2.600428e-001
9.700596e+002;2.665905e-001
9.719882e+002;2.738760e-001
9.739167e+002;2.827005e-001
9.758453e+002;2.936130e-001
9.777739e+002;3.070129e-001
9.797024e+002;3.225404e-001
9.816309e+002;3.397591e-001
9.835595e+002;3.584353e-001
9.854880e+002;3.784688e-001
9.874166e+002;3.982437e-001
9.893452e+002;4.163175e-001
9.912737e+002;4.329556e-001
9.932022e+002;4.466167e-001
9.951307e+002;4.566877e-001
9.970593e+002;4.631965e-001
9.989879e+002;4.663104e-001
1.000916e+003;4.677549e-001
1.002845e+003;4.703505e-001
1.004773e+003;4.754410e-001
1.006702e+003;4.823578e-001
1.008631e+003;4.910159e-001
1.010559e+003;5.014240e-001
1.012488e+003;5.132873e-001
1.014416e+003;5.250059e-001
1.016345e+003;5.347654e-001
1.018273e+003;5.420020e-001
1.020202e+003;5.470666e-001
1.022130e+003;5.485694e-001
1.024059e+003;5.479258e-001
1.025988e+003;5.466858e-001
1.027916e+003;5.420784e-001
1.029845e+003;5.342889e-001
1.031773e+003;5.247340e-001
1.033702e+003;5.152286e-001
1.035630e+003;5.065230e-001
1.037559e+003;4.995229e-001
1.039487e+003;4.946562e-001
1.041416e+003;4.923539e-001
1.043344e+003;4.904706e-001
1.045273e+003;4.873639e-001
1.047202e+003;4.834083e-001
1.049130e+003;4.794298e-001
1.051059e+003;4.759952e-001
1.052987e+003;4.721938e-001
1.054916e+003;4.667028e-001
1.056844e+003;4.604008e-001
1.058773e+003;4.535897e-001
1.060701e+003;4.440120e-001
1.062630e+003;4.318233e-001
1.064558e+003;4.186558e-001
1.066487e+003;4.069773e-001
1.068416e+003;3.979521e-001
1.070344e+003;3.913453e-001
1.072273e+003;3.850673e-001
1.074201e+003;3.793527e-001
1.076130e+003;3.737203e-001
1.078058e+003;3.669133e-001
1.079987e+003;3.606209e-001
1.081915e+003;3.551718e-001
1.083844e+003;3.497779e-001
1.085773e+003;3.432151e-001
1.087701e+003;3.357867e-001
1.089630e+003;3.282334e-001
1.091558e+003;3.207573e-001
1.093487e+003;3.137827e-001
1.095415e+003;3.067122e-001
1.097344e+003;2.986361e-001
1.099272e+003;2.893690e-001
1.101201e+003;2.793635e-001
1.103129e+003;2.706156e-001
1.105058e+003;2.638647e-001
1.106987e+003;2.595015e-001
1.108915e+003;2.567668e-001
1.110844e+003;2.533465e-001
1.112772e+003;2.490828e-001
1.114701e+003;2.442404e-001
1.116629e+003;2.395384e-001
1.118558e+003;2.343871e-001
1.120486e+003;2.279680e-001
1.122415e+003;2.211259e-001
1.124344e+003;2.147435e-001
1.126272e+003;2.080159e-001
1.128201e+003;2.010303e-001
1.130129e+003;1.950404e-001
1.132058e+003;1.898825e-001
1.133986e+003;1.849153e-001
1.135915e+003;1.801895e-001
1.137843e+003;1.764606e-001
1.139772e+003;1.739551e-001
1.141700e+003;1.729581e-001
1.143629e+003;1.730913e-001
1.145557e+003;1.741587e-001
1.147486e+003;1.762826e-001
1.149415e+003;1.792235e-001
1.151343e+003;1.821114e-001
1.153272e+003;1.845373e-001
1.155200e+003;1.864559e-001
1.157129e+003;1.871494e-001
1.159057e+003;1.852378e-001
1.160986e+003;1.803627e-001
1.162914e+003;1.737364e-001
1.164843e+003;1.660822e-001
1.166771e+003;1.582739e-001
1.168700e+003;1.510339e-001
1.170629e+003;1.446910e-001
1.172557e+003;1.391238e-001
1.174486e+003;1.344939e-001
1.176414e+003;1.307459e-001
1.178343e+003;1.278967e-001
1.180271e+003;1.257230e-001
1.182200e+003;1.240653e-001
1.184128e+003;1.232043e-001
1.186057e+003;1.232884e-001
1.187986e+003;1.247814e-001
1.189914e+003;1.277974e-001
1.191843e+003;1.313721e-001
1.193771e+003;1.347759e-001
1.195700e+003;1.379875e-001
1.197628e+003;1.394824e-001
1.199557e+003;1.388540e-001
1.201485e+003;1.368858e-001
1.203414e+003;1.338245e-001
1.205343e+003;1.304810e-001
1.207271e+003;1.276155e-001
1.209200e+003;1.256528e-001
1.211128e+003;1.249006e-001
1.213057e+003;1.251139e-001
1.214985e+003;1.259630e-001
1.216914e+003;1.274594e-001
1.218842e+003;1.300099e-001
1.220771e+003;1.330156e-001
1.222699e+003;1.362296e-001
1.224628e+003;1.387962e-001
1.226557e+003;1.396266e-001
1.228485e+003;1.394251e-001
1.230414e+003;1.388967e-001
1.232342e+003;1.380866e-001
1.234271e+003;1.370247e-001
1.236199e+003;1.360321e-001
1.238128e+003;1.351963e-001
1.240056e+003;1.346052e-001
1.241985e+003;1.336392e-001
1.243913e+003;1.326241e-001
1.245842e+003;1.322293e-001
1.247771e+003;1.322947e-001
1.249699e+003;1.328059e-001
1.251628e+003;1.338158e-001
1.253556e+003;1.353606e-001
1.255485e+003;1.372222e-001
1.257413e+003;1.385641e-001
1.259342e+003;1.391817e-001
1.261270e+003;1.390572e-001
1.263199e+003;1.384530e-001
1.265127e+003;1.375792e-001
1.267056e+003;1.360280e-001
1.268985e+003;1.349479e-001
1.270913e+003;1.342996e-001
1.272842e+003;1.337937e-001
1.274770e+003;1.336844e-001
1.276699e+003;1.335082e-001
1.278627e+003;1.328058e-001
1.280556e+003;1.316682e-001
1.282484e+003;1.304481e-001
1.284413e+003;1.299225e-001
1.286342e+003;1.304187e-001
1.288270e+003;1.317205e-001
1.290199e+003;1.339158e-001
1.292127e+003;1.363872e-001
1.294056e+003;1.383167e-001
1.295984e+003;1.398966e-001
1.297913e+003;1.415558e-001
1.299841e+003;1.435374e-001
1.301770e+003;1.458303e-001
1.303698e+003;1.485839e-001
1.305627e+003;1.517000e-001
1.307556e+003;1.553572e-001
1.309484e+003;1.587366e-001
1.311413e+003;1.609077e-001
1.313341e+003;1.620064e-001
1.315270e+003;1.622266e-001
1.317198e+003;1.610020e-001
1.319127e+003;1.581015e-001
1.321055e+003;1.545382e-001
1.322984e+003;1.520195e-001
1.324912e+003;1.508524e-001
1.326841e+003;1.504796e-001
1.328770e+003;1.505709e-001
1.330698e+003;1.507413e-001
1.332627e+003;1.512534e-001
1.334555e+003;1.519427e-001
1.336484e+003;1.521013e-001
1.338412e+003;1.514511e-001
1.340341e+003;1.503792e-001
1.342269e+003;1.494177e-001
1.344198e+003;1.486488e-001
1.346126e+003;1.479614e-001
1.348055e+003;1.476004e-001
1.349984e+003;1.475835e-001
1.351912e+003;1.481644e-001
1.353841e+003;1.495702e-001
1.355769e+003;1.510695e-001
1.357698e+003;1.526862e-001
1.359626e+003;1.546991e-001
1.361555e+003;1.561147e-001
1.363483e+003;1.568819e-001
1.365412e+003;1.570612e-001
1.367341e+003;1.565384e-001
1.369269e+003;1.555895e-001
1.371198e+003;1.543716e-001
1.373126e+003;1.524685e-001
1.375055e+003;1.500674e-001
1.376983e+003;1.478038e-001
1.378912e+003;1.450184e-001
1.380840e+003;1.413733e-001
1.382769e+003;1.375251e-001
1.384698e+003;1.345341e-001
1.386626e+003;1.323953e-001
1.388555e+003;1.308121e-001
1.390483e+003;1.299705e-001
1.392412e+003;1.293010e-001
1.394340e+003;1.285806e-001
1.396269e+003;1.283896e-001
1.398197e+003;1.281556e-001
1.400126e+003;1.275622e-001
1.402054e+003;1.267928e-001
1.403983e+003;1.262284e-001
1.405911e+003;1.259356e-001
1.407840e+003;1.257550e-001
1.409769e+003;1.258325e-001
1.411697e+003;1.259689e-001
1.413626e+003;1.260760e-001
1.415554e+003;1.263071e-001
1.417483e+003;1.263459e-001
1.419411e+003;1.259817e-001
1.421340e+003;1.257925e-001
1.423268e+003;1.256357e-001
1.425197e+003;1.253054e-001
1.427125e+003;1.249792e-001
1.429054e+003;1.245269e-001
1.430983e+003;1.241343e-001
1.432911e+003;1.239443e-001
1.434840e+003;1.235149e-001
1.436768e+003;1.226689e-001
1.438697e+003;1.219328e-001
1.440625e+003;1.213173e-001
1.442554e+003;1.206796e-001
1.444482e+003;1.200077e-001
1.446411e+003;1.191274e-001
1.448340e+003;1.180479e-001
1.450268e+003;1.170873e-001
1.452197e+003;1.164182e-001
1.454125e+003;1.158730e-001
1.456054e+003;1.151592e-001
1.457982e+003;1.145617e-001
1.459911e+003;1.141955e-001
1.461839e+003;1.137057e-001
1.463768e+003;1.130238e-001
1.465697e+003;1.122805e-001
1.467625e+003;1.117494e-001
1.469554e+003;1.110507e-001
1.471482e+003;1.098608e-001
1.473411e+003;1.086170e-001
1.475339e+003;1.074180e-001
1.477268e+003;1.058463e-001
1.479196e+003;1.042123e-001
1.481125e+003;1.027572e-001
1.483053e+003;1.013807e-001
1.484982e+003;9.995937e-002
1.486911e+003;9.853005e-002
1.488839e+003;9.738678e-002
1.490768e+003;9.630429e-002
1.492696e+003;9.502510e-002
1.494625e+003;9.362225e-002
1.496553e+003;9.258005e-002
1.498482e+003;9.208079e-002
1.500410e+003;9.134807e-002
1.502339e+003;9.057875e-002
1.504267e+003;8.971830e-002
1.506196e+003;8.883914e-002
1.508125e+003;8.856139e-002
1.510053e+003;8.832292e-002
1.511982e+003;8.776413e-002
1.513910e+003;8.721148e-002
1.515839e+003;8.675732e-002
1.517767e+003;8.639733e-002
1.519696e+003;8.600476e-002
1.521624e+003;8.577681e-002
1.523553e+003;8.586406e-002
1.525481e+003;8.542997e-002
1.527410e+003;8.511220e-002
1.529339e+003;8.499544e-002
1.531267e+003;8.479183e-002
1.533196e+003;8.471132e-002
1.535124e+003;8.469751e-002
1.537053e+003;8.443201e-002
1.538981e+003;8.375057e-002
1.540910e+003;8.338924e-002
1.542838e+003;8.327512e-002
1.544767e+003;8.298839e-002
1.546695e+003;8.301575e-002
1.548624e+003;8.308230e-002
1.550553e+003;8.291644e-002
1.552481e+003;8.267836e-002
1.554410e+003;8.288328e-002
1.556338e+003;8.302882e-002
1.558267e+003;8.243021e-002
1.560195e+003;8.253413e-002
1.562124e+003;8.361252e-002
1.564052e+003;8.410390e-002
1.565981e+003;8.411633e-002
1.567910e+003;8.441740e-002
1.569838e+003;8.480750e-002
1.571767e+003;8.516940e-002
1.573695e+003;8.535955e-002
1.575624e+003;8.534705e-002
1.577552e+003;8.576676e-002
1.579481e+003;8.636180e-002
1.581409e+003;8.663591e-002
1.583338e+003;8.718625e-002
1.585266e+003;8.780493e-002
1.587195e+003;8.827627e-002
1.589124e+003;8.881909e-002
1.591052e+003;8.936464e-002
1.592981e+003;9.009161e-002
1.594909e+003;9.065945e-002
1.596838e+003;9.101159e-002
1.598766e+003;9.134125e-002
1.600695e+003;9.192612e-002
1.602623e+003;9.245143e-002
1.604552e+003;9.272233e-002
1.606480e+003;9.307607e-002
1.608409e+003;9.337779e-002
1.610338e+003;9.364051e-002
1.612266e+003;9.409950e-002
1.614195e+003;9.418403e-002
1.616123e+003;9.385156e-002
1.618052e+003;9.416869e-002
1.619980e+003;9.496403e-002
1.621909e+003;9.525040e-002
1.623837e+003;9.568673e-002
1.625766e+003;9.649707e-002
1.627694e+003;9.738923e-002
1.629623e+003;9.807511e-002
1.631552e+003;9.854776e-002
1.633480e+003;9.838396e-002
1.635409e+003;9.793963e-002
1.637337e+003;9.800623e-002
1.639266e+003;9.832469e-002
1.641194e+003;9.797579e-002
1.643123e+003;9.703056e-002
1.645051e+003;9.632352e-002
1.646980e+003;9.589361e-002
1.648909e+003;9.531473e-002
1.650837e+003;9.432914e-002
1.652766e+003;9.335943e-002
1.654694e+003;9.301712e-002
1.656623e+003;9.262569e-002
1.658551e+003;9.203845e-002
1.660480e+003;9.137233e-002
1.662408e+003;9.057295e-002
1.664337e+003;8.974099e-002
1.666266e+003;8.874317e-002
1.668194e+003;8.766377e-002
1.670123e+003;8.650253e-002
1.672051e+003;8.542247e-002
1.673980e+003;8.449215e-002
1.675908e+003;8.353983e-002
1.677837e+003;8.256683e-002
1.679765e+003;8.151725e-002
1.681694e+003;8.050290e-002
1.683622e+003;7.933720e-002
1.685551e+003;7.841191e-002
1.687479e+003;7.763617e-002
1.689408e+003;7.681053e-002
1.691337e+003;7.605826e-002
1.693265e+003;7.528479e-002
1.695194e+003;7.444236e-002
1.697122e+003;7.394513e-002
1.699051e+003;7.341558e-002
1.700979e+003;7.272115e-002
1.702908e+003;7.224697e-002
1.704836e+003;7.168135e-002
1.706765e+003;7.123145e-002
1.708693e+003;7.071854e-002
1.710622e+003;7.018477e-002
1.712551e+003;6.989764e-002
1.714479e+003;6.944151e-002
1.716408e+003;6.892519e-002
1.718336e+003;6.857611e-002
1.720265e+003;6.834794e-002
1.722193e+003;6.818443e-002
1.724122e+003;6.779879e-002
1.726050e+003;6.743266e-002
1.727979e+003;6.720865e-002
1.729908e+003;6.674184e-002
1.731836e+003;6.612534e-002
1.733765e+003;6.564859e-002
1.735693e+003;6.546456e-002
1.737622e+003;6.514647e-002
1.739550e+003;6.436884e-002
1.741479e+003;6.362368e-002
1.743407e+003;6.327304e-002
1.745336e+003;6.328776e-002
1.747265e+003;6.320076e-002
1.749193e+003;6.312955e-002
1.751122e+003;6.310514e-002
1.753050e+003;6.324659e-002
1.754979e+003;6.342535e-002
1.756907e+003;6.342551e-002
1.758836e+003;6.365862e-002
1.760764e+003;6.386428e-002
1.762693e+003;6.387771e-002
1.764621e+003;6.397379e-002
1.766550e+003;6.381027e-002
1.768479e+003;6.370705e-002
1.770407e+003;6.378651e-002
1.772336e+003;6.376161e-002
1.774264e+003;6.372692e-002
1.776193e+003;6.376019e-002
1.778121e+003;6.385026e-002
1.780050e+003;6.386899e-002
1.781978e+003;6.368241e-002
1.783907e+003;6.353711e-002
1.785835e+003;6.365027e-002
1.787764e+003;6.380336e-002
1.789693e+003;6.373291e-002
1.791621e+003;6.352890e-002
1.793550e+003;6.349534e-002
1.795478e+003;6.357136e-002
1.797407e+003;6.355916e-002
1.799335e+003;6.336857e-002
1.801264e+003;6.320585e-002
1.803192e+003;6.316002e-002
1.805121e+003;6.318056e-002
1.807049e+003;6.326894e-002
1.808978e+003;6.333196e-002
1.810907e+003;6.328960e-002
1.812835e+003;6.318094e-002
1.814764e+003;6.319638e-002
1.816692e+003;6.334910e-002
1.818621e+003;6.352422e-002
1.820549e+003;6.348993e-002
1.822478e+003;6.338429e-002
1.824406e+003;6.329558e-002
1.826335e+003;6.317301e-002
1.828264e+003;6.307258e-002
1.830192e+003;6.296520e-002
1.832121e+003;6.300477e-002
1.834049e+003;6.300466e-002
1.835978e+003;6.301622e-002
1.837906e+003;6.313568e-002
1.839835e+003;6.318079e-002
1.841763e+003;6.292494e-002
1.843692e+003;6.263174e-002
1.845620e+003;6.275810e-002
1.847549e+003;6.279149e-002
1.849478e+003;6.280144e-002
1.851406e+003;6.284188e-002
1.853335e+003;6.267916e-002
1.855263e+003;6.254556e-002
1.857192e+003;6.268089e-002
1.859120e+003;6.272189e-002
1.861049e+003;6.267419e-002
1.862977e+003;6.269991e-002
1.864906e+003;6.278751e-002
1.866834e+003;6.275041e-002
1.868763e+003;6.262799e-002
1.870692e+003;6.240334e-002
1.872620e+003;6.229693e-002
1.874549e+003;6.241199e-002
1.876477e+003;6.252581e-002
1.878406e+003;6.247982e-002
1.880334e+003;6.235989e-002
1.882263e+003;6.257357e-002
1.884191e+003;6.286788e-002
1.886120e+003;6.279233e-002
1.888048e+003;6.250373e-002
1.889977e+003;6.237286e-002
1.891906e+003;6.251912e-002
1.893834e+003;6.255022e-002
1.895763e+003;6.248349e-002
1.897691e+003;6.260312e-002
1.899620e+003;6.262321e-002
1.901548e+003;6.254093e-002
1.903477e+003;6.264016e-002
1.905405e+003;6.274708e-002
1.907334e+003;6.275787e-002
1.909262e+003;6.264820e-002
1.911191e+003;6.260461e-002
1.913120e+003;6.267844e-002
1.915048e+003;6.276833e-002
1.916977e+003;6.289270e-002
1.918905e+003;6.303082e-002
1.920834e+003;6.314576e-002
1.922762e+003;6.335684e-002
1.924691e+003;6.341343e-002
1.926619e+003;6.346880e-002
1.928548e+003;6.343141e-002
1.930477e+003;6.325050e-002
1.932405e+003;6.322716e-002
1.934334e+003;6.324352e-002
1.936262e+003;6.325583e-002
1.938191e+003;6.345561e-002
1.940119e+003;6.363576e-002
1.942048e+003;6.354247e-002
1.943976e+003;6.356714e-002
1.945905e+003;6.348234e-002
1.947833e+003;6.343187e-002
1.949762e+003;6.359951e-002
1.951691e+003;6.368272e-002
1.953619e+003;6.379607e-002
1.955548e+003;6.401100e-002
1.957476e+003;6.405807e-002
1.959405e+003;6.395698e-002
1.961333e+003;6.397092e-002
1.963262e+003;6.412347e-002
1.965190e+003;6.413584e-002
1.967119e+003;6.402628e-002
1.969047e+003;6.409037e-002
1.970976e+003;6.427628e-002
1.972905e+003;6.442222e-002
1.974833e+003;6.438529e-002
1.976762e+003;6.451093e-002
1.978690e+003;6.471314e-002
1.980619e+003;6.482737e-002
1.982547e+003;6.489708e-002
1.984476e+003;6.494772e-002
1.986404e+003;6.486076e-002
1.988333e+003;6.492706e-002
1.990261e+003;6.496349e-002
1.992190e+003;6.476294e-002
1.994119e+003;6.464880e-002
1.996047e+003;6.483784e-002
1.997976e+003;6.514277e-002
1.999904e+003;6.503503e-002
2.001833e+003;6.492324e-002
2.003761e+003;6.514338e-002
2.005690e+003;6.522031e-002
2.007618e+003;6.526205e-002
2.009547e+003;6.535451e-002
2.011476e+003;6.534354e-002
2.013404e+003;6.544854e-002
2.015333e+003;6.545743e-002
2.017261e+003;6.558377e-002
2.019190e+003;6.588846e-002
2.021118e+003;6.586799e-002
2.023047e+003;6.557553e-002
2.024975e+003;6.555380e-002
2.026904e+003;6.554127e-002
2.028833e+003;6.558833e-002
2.030761e+003;6.591643e-002
2.032690e+003;6.595079e-002
2.034618e+003;6.578182e-002
2.036547e+003;6.583486e-002
2.038475e+003;6.603642e-002
2.040404e+003;6.616450e-002
2.042332e+003;6.603217e-002
2.044261e+003;6.595001e-002
2.046189e+003;6.617353e-002
2.048118e+003;6.624573e-002
2.050047e+003;6.613240e-002
2.051975e+003;6.615270e-002
2.053904e+003;6.627260e-002
2.055832e+003;6.625010e-002
2.057761e+003;6.628036e-002
2.059689e+003;6.624253e-002
2.061618e+003;6.609185e-002
2.063546e+003;6.606716e-002
2.065475e+003;6.600301e-002
2.067404e+003;6.607673e-002
2.069332e+003;6.614575e-002
2.071260e+003;6.605057e-002
2.073189e+003;6.598882e-002
2.075118e+003;6.594423e-002
2.077046e+003;6.589552e-002
2.078975e+003;6.596798e-002
2.080903e+003;6.599750e-002
2.082832e+003;6.598561e-002
2.084760e+003;6.603348e-002
2.086689e+003;6.615281e-002
2.088617e+003;6.610049e-002
2.090546e+003;6.594793e-002
2.092475e+003;6.591488e-002
2.094403e+003;6.590108e-002
2.096332e+003;6.604046e-002
2.098260e+003;6.600317e-002
2.100189e+003;6.591897e-002
2.102117e+003;6.609752e-002
2.104046e+003;6.630039e-002
2.105974e+003;6.623790e-002
2.107903e+003;6.611369e-002
2.109832e+003;6.602812e-002
2.111760e+003;6.602453e-002
2.113688e+003;6.629985e-002
2.115617e+003;6.649478e-002
2.117546e+003;6.636401e-002
2.119474e+003;6.627943e-002
2.121403e+003;6.634594e-002
2.123331e+003;6.635559e-002
2.125260e+003;6.631170e-002
2.127188e+003;6.626110e-002
2.129117e+003;6.626951e-002
2.131045e+003;6.639192e-002
2.132974e+003;6.645910e-002
2.134903e+003;6.640933e-002
2.136831e+003;6.645814e-002
2.138760e+003;6.660195e-002
2.140688e+003;6.664869e-002
2.142617e+003;6.655008e-002
2.144545e+003;6.627256e-002
2.146474e+003;6.614660e-002
2.148402e+003;6.633417e-002
2.150331e+003;6.638508e-002
2.152260e+003;6.613039e-002
2.154188e+003;6.602778e-002
2.156117e+003;6.627958e-002
2.158045e+003;6.661864e-002
2.159974e+003;6.645729e-002
2.161902e+003;6.607569e-002
2.163831e+003;6.598970e-002
2.165759e+003;6.622069e-002
2.167688e+003;6.646416e-002
2.169616e+003;6.634328e-002
2.171545e+003;6.622752e-002
2.173474e+003;6.631583e-002
2.175402e+003;6.631406e-002
2.177331e+003;6.625774e-002
2.179259e+003;6.611963e-002
2.181188e+003;6.603834e-002
2.183116e+003;6.604537e-002
2.185045e+003;6.594890e-002
2.186973e+003;6.580526e-002
2.188902e+003;6.577218e-002
2.190831e+003;6.569543e-002
2.192759e+003;6.566020e-002
2.194688e+003;6.583197e-002
2.196616e+003;6.573921e-002
2.198545e+003;6.541272e-002
2.200473e+003;6.561017e-002
2.202402e+003;6.588029e-002
2.204330e+003;6.568683e-002
2.206259e+003;6.566028e-002
2.208188e+003;6.569400e-002
2.210116e+003;6.543398e-002
2.212044e+003;6.526367e-002
2.213973e+003;6.521692e-002
2.215902e+003;6.534169e-002
2.217830e+003;6.538506e-002
2.219759e+003;6.527761e-002
2.221687e+003;6.550174e-002
2.223616e+003;6.571081e-002
2.225544e+003;6.570992e-002
2.227473e+003;6.554328e-002
2.229401e+003;6.559961e-002
2.231330e+003;6.565145e-002
2.233259e+003;6.541699e-002
2.235187e+003;6.549554e-002
2.237116e+003;6.559560e-002
2.239044e+003;6.541295e-002
2.240973e+003;6.521346e-002
2.242901e+003;6.511563e-002
2.244830e+003;6.513807e-002
2.246758e+003;6.526239e-002
2.248687e+003;6.519502e-002
2.250615e+003;6.506479e-002
2.252544e+003;6.498739e-002
2.254473e+003;6.491801e-002
2.256401e+003;6.483133e-002
2.258330e+003;6.476029e-002
2.260258e+003;6.463161e-002
2.262187e+003;6.472898e-002
2.264115e+003;6.475286e-002
2.266044e+003;6.456087e-002
2.267972e+003;6.463396e-002
2.269901e+003;6.458255e-002
2.271830e+003;6.441649e-002
2.273758e+003;6.444266e-002
2.275687e+003;6.457929e-002
2.277615e+003;6.462773e-002
2.279544e+003;6.456640e-002
2.281472e+003;6.465814e-002
2.283401e+003;6.465311e-002
2.285329e+003;6.434986e-002
2.287258e+003;6.415224e-002
2.289187e+003;6.414402e-002
2.291115e+003;6.409563e-002
2.293043e+003;6.422357e-002
2.294972e+003;6.426099e-002
2.296901e+003;6.419023e-002
2.298829e+003;6.424562e-002
2.300758e+003;6.427167e-002
2.302686e+003;6.423271e-002
2.304615e+003;6.424647e-002
2.306543e+003;6.438652e-002
2.308472e+003;6.430767e-002
2.310400e+003;6.435428e-002
2.312329e+003;6.451605e-002
2.314258e+003;6.448483e-002
2.316186e+003;6.440070e-002
2.318115e+003;6.437419e-002
2.320043e+003;6.445865e-002
2.321972e+003;6.453899e-002
2.323900e+003;6.467614e-002
2.325829e+003;6.470095e-002
2.327757e+003;6.455629e-002
2.329686e+003;6.452381e-002
2.331615e+003;6.466275e-002
2.333543e+003;6.481794e-002
2.335472e+003;6.502660e-002
2.337400e+003;6.516090e-002
2.339329e+003;6.510643e-002
2.341257e+003;6.495380e-002
2.343186e+003;6.493079e-002
2.345114e+003;6.506436e-002
2.347043e+003;6.508926e-002
2.348971e+003;6.527491e-002
2.350900e+003;6.532548e-002
2.352829e+003;6.536395e-002
2.354757e+003;6.543494e-002
2.356686e+003;6.542569e-002
2.358614e+003;6.547970e-002
2.360543e+003;6.567365e-002
2.362471e+003;6.580965e-002
2.364400e+003;6.577322e-002
2.366328e+003;6.575946e-002
2.368257e+003;6.568348e-002
2.370186e+003;6.581999e-002
2.372114e+003;6.595287e-002
2.374042e+003;6.572846e-002
2.375971e+003;6.548082e-002
2.377900e+003;6.557680e-002
2.379828e+003;6.568298e-002
2.381757e+003;6.553091e-002
2.383685e+003;6.551272e-002
2.385614e+003;6.553931e-002
2.387542e+003;6.560273e-002
2.389471e+003;6.571952e-002
2.391399e+003;6.583390e-002
2.393328e+003;6.612314e-002
2.395257e+003;6.630518e-002
2.397185e+003;6.638566e-002
2.399114e+003;6.653992e-002
2.401042e+003;6.654062e-002
2.402971e+003;6.668771e-002
2.404899e+003;6.682897e-002
2.406828e+003;6.693789e-002
2.408756e+003;6.703791e-002
2.410685e+003;6.684180e-002
2.412614e+003;6.661922e-002
2.414542e+003;6.670421e-002
2.416471e+003;6.681537e-002
2.418399e+003;6.695858e-002
2.420328e+003;6.729669e-002
2.422256e+003;6.767394e-002
2.424185e+003;6.766914e-002
2.426113e+003;6.751943e-002
2.428042e+003;6.746837e-002
2.429970e+003;6.752977e-002
2.431899e+003;6.772064e-002
2.433828e+003;6.787007e-002
2.435756e+003;6.795363e-002
2.437685e+003;6.804036e-002
2.439613e+003;6.816915e-002
2.441542e+003;6.818172e-002
2.443470e+003;6.814714e-002
2.445399e+003;6.817780e-002
2.447327e+003;6.838699e-002
2.449256e+003;6.851248e-002
2.451185e+003;6.869960e-002
2.453113e+003;6.895790e-002
2.455042e+003;6.897824e-002
2.456970e+003;6.902023e-002
2.458899e+003;6.907208e-002
2.460827e+003;6.891432e-002
2.462756e+003;6.892107e-002
2.464684e+003;6.908552e-002
2.466613e+003;6.931914e-002
2.468542e+003;6.940726e-002
2.470470e+003;6.966917e-002
2.472398e+003;6.996292e-002
2.474327e+003;6.997900e-002
2.476256e+003;6.989598e-002
2.478184e+003;6.986643e-002
2.480113e+003;6.988796e-002
2.482041e+003;6.988379e-002
2.483970e+003;7.005974e-002
2.485898e+003;7.009619e-002
2.487827e+003;7.008949e-002
2.489755e+003;7.021683e-002
2.491684e+003;7.032318e-002
2.493613e+003;7.044829e-002
2.495541e+003;7.060641e-002
2.497470e+003;7.062509e-002
2.499398e+003;7.069799e-002
2.501327e+003;7.093970e-002
2.503255e+003;7.132934e-002
2.505184e+003;7.169768e-002
2.507112e+003;7.148825e-002
2.509041e+003;7.106815e-002
2.510969e+003;7.096419e-002
2.512898e+003;7.118762e-002
2.514827e+003;7.138971e-002
2.516755e+003;7.153912e-002
2.518684e+003;7.163348e-002
2.520612e+003;7.174462e-002
2.522541e+003;7.179579e-002
2.524469e+003;7.167841e-002
2.526398e+003;7.149208e-002
2.528326e+003;7.139788e-002
2.530255e+003;7.139928e-002
2.532184e+003;7.150970e-002
2.534112e+003;7.177781e-002
2.536041e+003;7.206771e-002
2.537969e+003;7.198346e-002
2.539898e+003;7.171926e-002
2.541826e+003;7.169655e-002
2.543755e+003;7.195621e-002
2.545683e+003;7.206783e-002
2.547612e+003;7.215565e-002
2.549541e+003;7.235655e-002
2.551469e+003;7.252739e-002
2.553397e+003;7.247720e-002
2.555326e+003;7.239836e-002
2.557255e+003;7.260818e-002
2.559183e+003;7.273791e-002
2.561112e+003;7.277223e-002
2.563040e+003;7.287896e-002
2.564969e+003;7.308918e-002
2.566897e+003;7.314419e-002
2.568826e+003;7.295363e-002
2.570754e+003;7.276028e-002
2.572683e+003;7.280851e-002
2.574612e+003;7.314674e-002
2.576540e+003;7.343037e-002
2.578469e+003;7.325337e-002
2.580397e+003;7.312404e-002
2.582326e+003;7.350572e-002
2.584254e+003;7.375216e-002
2.586183e+003;7.367285e-002
2.588111e+003;7.355607e-002
2.590040e+003;7.355957e-002
2.591969e+003;7.371601e-002
2.593897e+003;7.398410e-002
2.595826e+003;7.423471e-002
2.597754e+003;7.422917e-002
2.599683e+003;7.419462e-002
2.601611e+003;7.437519e-002
2.603540e+003;7.457036e-002
2.605468e+003;7.461521e-002
2.607397e+003;7.464381e-002
2.609325e+003;7.473417e-002
2.611254e+003;7.467140e-002
2.613183e+003;7.468277e-002
2.615111e+003;7.486146e-002
2.617040e+003;7.509840e-002
2.618968e+003;7.519093e-002
2.620897e+003;7.506902e-002
2.622825e+003;7.502285e-002
2.624754e+003;7.536550e-002
2.626682e+003;7.547247e-002
2.628611e+003;7.552744e-002
2.630540e+003;7.579298e-002
2.632468e+003;7.581259e-002
2.634396e+003;7.590204e-002
2.636325e+003;7.627172e-002
2.638254e+003;7.666559e-002
2.640182e+003;7.672288e-002
2.642111e+003;7.653520e-002
2.644039e+003;7.648797e-002
2.645968e+003;7.667792e-002
2.647896e+003;7.677807e-002
2.649825e+003;7.683414e-002
2.651753e+003;7.708300e-002
2.653682e+003;7.735132e-002
2.655611e+003;7.761735e-002
2.657539e+003;7.770108e-002
2.659468e+003;7.757948e-002
2.661396e+003;7.786968e-002
2.663325e+003;7.818264e-002
2.665253e+003;7.832686e-002
2.667182e+003;7.836753e-002
2.669110e+003;7.834979e-002
2.671039e+003;7.838781e-002
2.672968e+003;7.878818e-002
2.674896e+003;7.921288e-002
2.676825e+003;7.942997e-002
2.678753e+003;7.932770e-002
2.680682e+003;7.935896e-002
2.682610e+003;7.977813e-002
2.684539e+003;8.008148e-002
2.686467e+003;8.005717e-002
2.688396e+003;8.020967e-002
2.690324e+003;8.066633e-002
2.692253e+003;8.089460e-002
2.694182e+003;8.089679e-002
2.696110e+003;8.102815e-002
2.698039e+003;8.118542e-002
2.699967e+003;8.131143e-002
2.701896e+003;8.138376e-002
2.703824e+003;8.146533e-002
2.705753e+003;8.177084e-002
2.707681e+003;8.200735e-002
2.709610e+003;8.208603e-002
2.711539e+003;8.218375e-002
2.713467e+003;8.239700e-002
2.715396e+003;8.248417e-002
2.717324e+003;8.279334e-002
2.719253e+003;8.325537e-002
2.721181e+003;8.311661e-002
2.723110e+003;8.309097e-002
2.725038e+003;8.328889e-002
2.726967e+003;8.341076e-002
2.728896e+003;8.357385e-002
2.730824e+003;8.364040e-002
2.732752e+003;8.368909e-002
2.734681e+003;8.370484e-002
2.736610e+003;8.389581e-002
2.738538e+003;8.408842e-002
2.740467e+003;8.423401e-002
2.742395e+003;8.432184e-002
2.744324e+003;8.426238e-002
2.746252e+003;8.428639e-002
2.748181e+003;8.445435e-002
2.750109e+003;8.459850e-002
2.752038e+003;8.452467e-002
2.753967e+003;8.452507e-002
2.755895e+003;8.486107e-002
2.757824e+003;8.524241e-002
2.759752e+003;8.547104e-002
2.761681e+003;8.540723e-002
2.763609e+003;8.558026e-002
2.765538e+003;8.582352e-002
2.767466e+003;8.588788e-002
2.769395e+003;8.601268e-002
2.771323e+003;8.638051e-002
2.773252e+003;8.668458e-002
2.775181e+003;8.716571e-002
2.777109e+003;8.756963e-002
2.779038e+003;8.765100e-002
2.780966e+003;8.789571e-002
2.782895e+003;8.832370e-002
2.784823e+003;8.878743e-002
2.786752e+003;8.926912e-002
2.788680e+003;8.973023e-002
2.790609e+003;8.997420e-002
2.792538e+003;8.995843e-002
2.794466e+003;9.010021e-002
2.796395e+003;9.058066e-002
2.798323e+003;9.115450e-002
2.800252e+003;9.159909e-002
2.802180e+003;9.182467e-002
2.804109e+003;9.217825e-002
2.806037e+003;9.270912e-002
2.807966e+003;9.294131e-002
2.809895e+003;9.344041e-002
2.811823e+003;9.401651e-002
2.813751e+003;9.422939e-002
2.815680e+003;9.462560e-002
2.817609e+003;9.509001e-002
2.819537e+003;9.566678e-002
2.821466e+003;9.616675e-002
2.823394e+003;9.642740e-002
2.825323e+003;9.681613e-002
2.827251e+003;9.712842e-002
2.829180e+003;9.771094e-002
2.831108e+003;9.857205e-002
2.833037e+003;9.934518e-002
2.834966e+003;9.977102e-002
2.836894e+003;1.003436e-001
2.838823e+003;1.013523e-001
2.840751e+003;1.021460e-001
2.842680e+003;1.028154e-001
2.844608e+003;1.034891e-001
2.846537e+003;1.039602e-001
2.848465e+003;1.042822e-001
2.850394e+003;1.050738e-001
2.852323e+003;1.061814e-001
2.854251e+003;1.073455e-001
2.856180e+003;1.088698e-001
2.858108e+003;1.106628e-001
2.860037e+003;1.122726e-001
2.861965e+003;1.141701e-001
2.863894e+003;1.158898e-001
2.865822e+003;1.175089e-001
2.867751e+003;1.189903e-001
2.869679e+003;1.203543e-001
2.871608e+003;1.217629e-001
2.873536e+003;1.230917e-001
2.875465e+003;1.239115e-001
2.877394e+003;1.246062e-001
2.879322e+003;1.252537e-001
2.881251e+003;1.259157e-001
2.883179e+003;1.264731e-001
2.885108e+003;1.269024e-001
2.887036e+003;1.276683e-001
2.888965e+003;1.285017e-001
2.890893e+003;1.289287e-001
2.892822e+003;1.289635e-001
2.894750e+003;1.288439e-001
2.896679e+003;1.286471e-001
2.898608e+003;1.281999e-001
2.900536e+003;1.273696e-001
2.902465e+003;1.263715e-001
2.904393e+003;1.255248e-001
2.906322e+003;1.249922e-001
2.908250e+003;1.242381e-001
2.910179e+003;1.226258e-001
2.912107e+003;1.206106e-001
2.914036e+003;1.189720e-001
2.915965e+003;1.176226e-001
2.917893e+003;1.160508e-001
2.919822e+003;1.145849e-001
2.921750e+003;1.134859e-001
2.923679e+003;1.123931e-001
2.925607e+003;1.113800e-001
2.927536e+003;1.104564e-001
2.929464e+003;1.094258e-001
2.931393e+003;1.085683e-001
2.933322e+003;1.080716e-001
2.935250e+003;1.072349e-001
2.937178e+003;1.060673e-001
2.939107e+003;1.046333e-001
2.941036e+003;1.033315e-001
2.942964e+003;1.020806e-001
2.944893e+003;1.008862e-001
2.946821e+003;9.988343e-002
2.948750e+003;9.865471e-002
2.950678e+003;9.754881e-002
2.952607e+003;9.635185e-002
2.954535e+003;9.546950e-002
2.956464e+003;9.485420e-002
2.958393e+003;9.407309e-002
2.960321e+003;9.322976e-002
2.962250e+003;9.232450e-002
2.964178e+003;9.178230e-002
2.966107e+003;9.140156e-002
2.968035e+003;9.108678e-002
2.969964e+003;9.083055e-002
2.971892e+003;9.022149e-002
2.973821e+003;8.999136e-002
2.975750e+003;9.029067e-002
2.977678e+003;9.017280e-002
2.979607e+003;8.989391e-002
2.981535e+003;8.984843e-002
2.983464e+003;8.959073e-002
2.985392e+003;8.911475e-002
2.987321e+003;8.873080e-002
2.989249e+003;8.831704e-002
2.991178e+003;8.836228e-002
2.993106e+003;8.862494e-002
2.995035e+003;8.878836e-002
2.996964e+003;8.897357e-002
2.998892e+003;8.885057e-002
3.000821e+003;8.869895e-002
3.002749e+003;8.879698e-002
3.004678e+003;8.903489e-002
3.006606e+003;8.939455e-002
3.008535e+003;8.981857e-002
3.010463e+003;9.008517e-002
3.012392e+003;9.035271e-002
3.014321e+003;9.070893e-002
3.016249e+003;9.111527e-002
3.018177e+003;9.139849e-002
3.020106e+003;9.161685e-002
3.022035e+003;9.213872e-002
3.023963e+003;9.273377e-002
3.025892e+003;9.321501e-002
3.027820e+003;9.386484e-002
3.029749e+003;9.425240e-002
3.031677e+003;9.473929e-002
3.033606e+003;9.549229e-002
3.035534e+003;9.589113e-002
3.037463e+003;9.640265e-002
3.039392e+003;9.698386e-002
3.041320e+003;9.720612e-002
3.043249e+003;9.760734e-002
3.045177e+003;9.826557e-002
3.047106e+003;9.885024e-002
3.049034e+003;9.943749e-002
3.050963e+003;1.002783e-001
3.052891e+003;1.011805e-001
3.054820e+003;1.015406e-001
3.056749e+003;1.019699e-001
3.058677e+003;1.027087e-001
3.060606e+003;1.033668e-001
3.062534e+003;1.038604e-001
3.064463e+003;1.042756e-001
3.066391e+003;1.048107e-001
3.068320e+003;1.054946e-001
3.070248e+003;1.064427e-001
3.072177e+003;1.071648e-001
3.074105e+003;1.076068e-001
3.076034e+003;1.081716e-001
3.077963e+003;1.089156e-001
3.079891e+003;1.095515e-001
3.081820e+003;1.103071e-001
3.083748e+003;1.110327e-001
3.085677e+003;1.115300e-001
3.087605e+003;1.125903e-001
3.089534e+003;1.135158e-001
3.091462e+003;1.141313e-001
3.093391e+003;1.152456e-001
3.095320e+003;1.157887e-001
3.097248e+003;1.161625e-001
3.099177e+003;1.171343e-001
3.101105e+003;1.180154e-001
3.103034e+003;1.186259e-001
3.104962e+003;1.189906e-001
3.106891e+003;1.197300e-001
3.108819e+003;1.206633e-001
3.110748e+003;1.214521e-001
3.112677e+003;1.222911e-001
3.114605e+003;1.231656e-001
3.116533e+003;1.239855e-001
3.118462e+003;1.247006e-001
3.120391e+003;1.253362e-001
3.122319e+003;1.259753e-001
3.124248e+003;1.265385e-001
3.126176e+003;1.272955e-001
3.128105e+003;1.284018e-001
3.130033e+003;1.291255e-001
3.131962e+003;1.296757e-001
3.133890e+003;1.306298e-001
3.135819e+003;1.313814e-001
3.137748e+003;1.318871e-001
3.139676e+003;1.324842e-001
3.141605e+003;1.334806e-001
3.143533e+003;1.340797e-001
3.145462e+003;1.344573e-001
3.147390e+003;1.351083e-001
3.149319e+003;1.357522e-001
3.151247e+003;1.362794e-001
3.153176e+003;1.366848e-001
3.155104e+003;1.371440e-001
3.157033e+003;1.376601e-001
3.158962e+003;1.381591e-001
3.160890e+003;1.388459e-001
3.162819e+003;1.395925e-001
3.164747e+003;1.402097e-001
3.166676e+003;1.406621e-001
3.168604e+003;1.406004e-001
3.170533e+003;1.406441e-001
3.172461e+003;1.414941e-001
3.174390e+003;1.425688e-001
3.176319e+003;1.428922e-001
3.178247e+003;1.431494e-001
3.180176e+003;1.434589e-001
3.182104e+003;1.439257e-001
3.184033e+003;1.447933e-001
3.185961e+003;1.456312e-001
3.187890e+003;1.459115e-001
3.189818e+003;1.459861e-001
3.191747e+003;1.463841e-001
3.193676e+003;1.470483e-001
3.195604e+003;1.477940e-001
3.197532e+003;1.483433e-001
3.199461e+003;1.487843e-001
3.201390e+003;1.492958e-001
3.203318e+003;1.498721e-001
3.205247e+003;1.506566e-001
3.207175e+003;1.512278e-001
3.209104e+003;1.510611e-001
3.211032e+003;1.512773e-001
3.212961e+003;1.519465e-001
3.214889e+003;1.526045e-001
3.216818e+003;1.530659e-001
3.218747e+003;1.537199e-001
3.220675e+003;1.541062e-001
3.222604e+003;1.548121e-001
3.224532e+003;1.555915e-001
3.226461e+003;1.558429e-001
3.228389e+003;1.562392e-001
3.230318e+003;1.567802e-001
3.232246e+003;1.574106e-001
3.234175e+003;1.583136e-001
3.236104e+003;1.588185e-001
3.238032e+003;1.591807e-001
3.239961e+003;1.593876e-001
3.241889e+003;1.596156e-001
3.243818e+003;1.600189e-001
3.245746e+003;1.604022e-001
3.247675e+003;1.611494e-001
3.249603e+003;1.619531e-001
3.251532e+003;1.621689e-001
3.253460e+003;1.621470e-001
3.255389e+003;1.624095e-001
3.257318e+003;1.630248e-001
3.259246e+003;1.636945e-001
3.261175e+003;1.641769e-001
3.263103e+003;1.644509e-001
3.265032e+003;1.646154e-001
3.266960e+003;1.650878e-001
3.268889e+003;1.657554e-001
3.270817e+003;1.663130e-001
3.272746e+003;1.665849e-001
3.274675e+003;1.667299e-001
3.276603e+003;1.667693e-001
3.278531e+003;1.673573e-001
3.280460e+003;1.681875e-001
3.282389e+003;1.683760e-001
3.284317e+003;1.681966e-001
3.286246e+003;1.681625e-001
3.288174e+003;1.685436e-001
3.290103e+003;1.694124e-001
3.292031e+003;1.701359e-001
3.293960e+003;1.699413e-001
3.295888e+003;1.699979e-001
3.297817e+003;1.700709e-001
3.299746e+003;1.701019e-001
3.301674e+003;1.706649e-001
3.303603e+003;1.708988e-001
3.305531e+003;1.708772e-001
3.307460e+003;1.708586e-001
3.309388e+003;1.714176e-001
3.311317e+003;1.720474e-001
3.313245e+003;1.724116e-001
3.315174e+003;1.723273e-001
3.317103e+003;1.722149e-001
3.319031e+003;1.721804e-001
3.320960e+003;1.721392e-001
3.322888e+003;1.721380e-001
3.324817e+003;1.721575e-001
3.326745e+003;1.723312e-001
3.328674e+003;1.723225e-001
3.330602e+003;1.724391e-001
3.332531e+003;1.725012e-001
3.334459e+003;1.724826e-001
3.336388e+003;1.724119e-001
3.338317e+003;1.721185e-001
3.340245e+003;1.719964e-001
3.342174e+003;1.716480e-001
3.344102e+003;1.710490e-001
3.346031e+003;1.709011e-001
3.347959e+003;1.708185e-001
3.349888e+003;1.702741e-001
3.351816e+003;1.700591e-001
3.353745e+003;1.701308e-001
3.355674e+003;1.694726e-001
3.357602e+003;1.688987e-001
3.359531e+003;1.686730e-001
3.361459e+003;1.685780e-001
3.363388e+003;1.683191e-001
3.365316e+003;1.672476e-001
3.367245e+003;1.666236e-001
3.369173e+003;1.669001e-001
3.371102e+003;1.665348e-001
3.373031e+003;1.656297e-001
3.374959e+003;1.653467e-001
3.376887e+003;1.650396e-001
3.378816e+003;1.646287e-001
3.380745e+003;1.642902e-001
3.382673e+003;1.638632e-001
3.384602e+003;1.635631e-001
3.386530e+003;1.629194e-001
3.388459e+003;1.620276e-001
3.390387e+003;1.612660e-001
3.392316e+003;1.611237e-001
3.394244e+003;1.607068e-001
3.396173e+003;1.601378e-001
3.398102e+003;1.596063e-001
3.400030e+003;1.590098e-001
3.401959e+003;1.584219e-001
3.403887e+003;1.582250e-001
3.405816e+003;1.579491e-001
3.407744e+003;1.570152e-001
3.409673e+003;1.562717e-001
3.411601e+003;1.557377e-001
3.413530e+003;1.554556e-001
3.415458e+003;1.552642e-001
3.417387e+003;1.547129e-001
3.419316e+003;1.542693e-001
3.421244e+003;1.539652e-001
3.423173e+003;1.536342e-001
3.425101e+003;1.528883e-001
3.427030e+003;1.525534e-001
3.428958e+003;1.529473e-001
3.430887e+003;1.531730e-001
3.432815e+003;1.534203e-001
3.434744e+003;1.535375e-001
3.436673e+003;1.528827e-001
3.438601e+003;1.518223e-001
3.440530e+003;1.515128e-001
3.442458e+003;1.508945e-001
3.444387e+003;1.495248e-001
3.446315e+003;1.483889e-001
3.448244e+003;1.468000e-001
3.450172e+003;1.450777e-001
3.452101e+003;1.436786e-001
3.454030e+003;1.421493e-001
3.455958e+003;1.404541e-001
3.457886e+003;1.388175e-001
3.459815e+003;1.375591e-001
3.461744e+003;1.359356e-001
3.463672e+003;1.344470e-001
3.465601e+003;1.336460e-001
3.467529e+003;1.330111e-001
3.469458e+003;1.314632e-001
3.471386e+003;1.299783e-001
3.473315e+003;1.293619e-001
3.475243e+003;1.287102e-001
3.477172e+003;1.277957e-001
3.479101e+003;1.271948e-001
3.481029e+003;1.265116e-001
3.482958e+003;1.256087e-001
3.484886e+003;1.246234e-001
3.486815e+003;1.235482e-001
3.488743e+003;1.222843e-001
3.490672e+003;1.208539e-001
3.492600e+003;1.193529e-001
3.494529e+003;1.176149e-001
3.496458e+003;1.159147e-001
3.498386e+003;1.140925e-001
3.500315e+003;1.122627e-001
3.502243e+003;1.108539e-001
3.504172e+003;1.092343e-001
3.506100e+003;1.071967e-001
3.508029e+003;1.054061e-001
3.509957e+003;1.040081e-001
3.511886e+003;1.026275e-001
3.513814e+003;1.012677e-001
3.515743e+003;1.000839e-001
3.517672e+003;9.871472e-002
3.519600e+003;9.736162e-002
3.521529e+003;9.614173e-002
3.523457e+003;9.493855e-002
3.525386e+003;9.374691e-002
3.527314e+003;9.248853e-002
3.529243e+003;9.126876e-002
3.531171e+003;9.013022e-002
3.533100e+003;8.935975e-002
3.535029e+003;8.860288e-002
3.536957e+003;8.751698e-002
3.538885e+003;8.656521e-002
3.540814e+003;8.577560e-002
3.542743e+003;8.476786e-002
3.544671e+003;8.385810e-002
3.546600e+003;8.289069e-002
3.548528e+003;8.194480e-002
3.550457e+003;8.126520e-002
3.552385e+003;8.034720e-002
3.554314e+003;7.943618e-002
3.556242e+003;7.860047e-002
3.558171e+003;7.800943e-002
3.560100e+003;7.732951e-002
3.562028e+003;7.639674e-002
3.563957e+003;7.539123e-002
3.565885e+003;7.456206e-002
3.567814e+003;7.384430e-002
3.569742e+003;7.336964e-002
3.571671e+003;7.258186e-002
3.573599e+003;7.114769e-002
3.575528e+003;7.022626e-002
3.577457e+003;7.028262e-002
3.579385e+003;6.968947e-002
3.581314e+003;6.866688e-002
3.583242e+003;6.819753e-002
3.585171e+003;6.763754e-002
3.587099e+003;6.668412e-002
3.589028e+003;6.602380e-002
3.590956e+003;6.574079e-002
3.592885e+003;6.521769e-002
3.594813e+003;6.447357e-002
3.596742e+003;6.406886e-002
3.598671e+003;6.348602e-002
3.600599e+003;6.299293e-002
3.602528e+003;6.277514e-002
3.604456e+003;6.226332e-002
3.606385e+003;6.158387e-002
3.608313e+003;6.084438e-002
3.610242e+003;5.983876e-002
3.612170e+003;5.930692e-002
3.614099e+003;5.910592e-002
3.616028e+003;5.877667e-002
3.617956e+003;5.825900e-002
3.619885e+003;5.755741e-002
3.621813e+003;5.725465e-002
3.623742e+003;5.726799e-002
3.625670e+003;5.701270e-002
3.627599e+003;5.634059e-002
3.629527e+003;5.593743e-002
3.631456e+003;5.607317e-002
3.633385e+003;5.549485e-002
3.635313e+003;5.497709e-002
3.637241e+003;5.517012e-002
3.639170e+003;5.514424e-002
3.641099e+003;5.458745e-002
3.643027e+003;5.419755e-002
3.644956e+003;5.375160e-002
3.646884e+003;5.296262e-002
3.648813e+003;5.242828e-002
3.650741e+003;5.239792e-002
3.652670e+003;5.280405e-002
3.654598e+003;5.288866e-002
3.656527e+003;5.198869e-002
3.658456e+003;5.102247e-002
3.660384e+003;5.059439e-002
3.662313e+003;5.045909e-002
3.664241e+003;5.073484e-002
3.666170e+003;5.091098e-002
3.668098e+003;5.031118e-002
3.670027e+003;4.975720e-002
3.671955e+003;4.997733e-002
3.673884e+003;4.999481e-002
3.675813e+003;4.939096e-002
3.677741e+003;4.929712e-002
3.679669e+003;4.956295e-002
3.681598e+003;4.937852e-002
3.683527e+003;4.900043e-002
3.685455e+003;4.897963e-002
3.687384e+003;4.863742e-002
3.689312e+003;4.813650e-002
3.691241e+003;4.817275e-002
3.693169e+003;4.829278e-002
3.695098e+003;4.874543e-002
3.697026e+003;4.910979e-002
3.698955e+003;4.880515e-002
3.700884e+003;4.844634e-002
3.702812e+003;4.837793e-002
3.704741e+003;4.824080e-002
3.706669e+003;4.808372e-002
3.708598e+003;4.780029e-002
3.710526e+003;4.717957e-002
3.712455e+003;4.692940e-002
3.714383e+003;4.692464e-002
3.716312e+003;4.715139e-002
3.718240e+003;4.763121e-002
3.720169e+003;4.760666e-002
3.722098e+003;4.728378e-002
3.724026e+003;4.732520e-002
3.725955e+003;4.725752e-002
3.727883e+003;4.733004e-002
3.729812e+003;4.738872e-002
3.731740e+003;4.706841e-002
3.733669e+003;4.724802e-002
3.735597e+003;4.718526e-002
3.737526e+003;4.698821e-002
3.739455e+003;4.708658e-002
3.741383e+003;4.684428e-002
3.743312e+003;4.658029e-002
3.745240e+003;4.685414e-002
3.747169e+003;4.701756e-002
3.749097e+003;4.657173e-002
3.751026e+003;4.623389e-002
3.752954e+003;4.645755e-002
3.754883e+003;4.690212e-002
3.756812e+003;4.702037e-002
3.758740e+003;4.705722e-002
3.760668e+003;4.702657e-002
3.762597e+003;4.722623e-002
3.764526e+003;4.717905e-002
3.766454e+003;4.706010e-002
3.768383e+003;4.690710e-002
3.770311e+003;4.678446e-002
3.772240e+003;4.692571e-002
3.774168e+003;4.707749e-002
3.776097e+003;4.742206e-002
3.778025e+003;4.751131e-002
3.779954e+003;4.693505e-002
3.781883e+003;4.652010e-002
3.783811e+003;4.684594e-002
3.785740e+003;4.706283e-002
3.787668e+003;4.685882e-002
3.789597e+003;4.667974e-002
3.791525e+003;4.680594e-002
3.793454e+003;4.706125e-002
3.795382e+003;4.735476e-002
3.797311e+003;4.760599e-002
3.799240e+003;4.768963e-002
3.801168e+003;4.720137e-002
3.803097e+003;4.709356e-002
3.805025e+003;4.741167e-002
3.806954e+003;4.728925e-002
3.808882e+003;4.738972e-002
3.810811e+003;4.738022e-002
3.812739e+003;4.713477e-002
3.814668e+003;4.701236e-002
3.816596e+003;4.672560e-002
3.818525e+003;4.655790e-002
3.820454e+003;4.666628e-002
3.822382e+003;4.701856e-002
3.824311e+003;4.732775e-002
3.826239e+003;4.752019e-002
3.828168e+003;4.746659e-002
3.830096e+003;4.720480e-002
3.832025e+003;4.684388e-002
3.833953e+003;4.708370e-002
3.835882e+003;4.747893e-002
3.837811e+003;4.741983e-002
3.839739e+003;4.736559e-002
3.841667e+003;4.739312e-002
3.843596e+003;4.722460e-002
3.845525e+003;4.744759e-002
3.847453e+003;4.767650e-002
3.849382e+003;4.751679e-002
3.851310e+003;4.702956e-002
3.853239e+003;4.670520e-002
3.855167e+003;4.711069e-002
3.857096e+003;4.810704e-002
3.859024e+003;4.873323e-002
3.860953e+003;4.869216e-002
3.862882e+003;4.823805e-002
3.864810e+003;4.742157e-002
3.866739e+003;4.726357e-002
3.868667e+003;4.760185e-002
3.870596e+003;4.818463e-002
3.872524e+003;4.844808e-002
3.874453e+003;4.830241e-002
3.876381e+003;4.847561e-002
3.878310e+003;4.847653e-002
3.880239e+003;4.818100e-002
3.882167e+003;4.834700e-002
3.884096e+003;4.843989e-002
3.886024e+003;4.822358e-002
3.887953e+003;4.829889e-002
3.889881e+003;4.868716e-002
3.891810e+003;4.884546e-002
3.893738e+003;4.894079e-002
3.895667e+003;4.900436e-002
3.897595e+003;4.888116e-002
3.899524e+003;4.897050e-002
3.901453e+003;4.891839e-002
3.903381e+003;4.878728e-002
3.905310e+003;4.881505e-002
3.907238e+003;4.941583e-002
3.909167e+003;5.011609e-002
3.911095e+003;5.020803e-002
3.913024e+003;4.964110e-002
3.914952e+003;4.931404e-002
3.916881e+003;4.923803e-002
3.918810e+003;4.948085e-002
3.920738e+003;5.005965e-002
3.922667e+003;5.021606e-002
3.924595e+003;4.967877e-002
3.926524e+003;4.926898e-002
3.928452e+003;4.892262e-002
3.930381e+003;4.876178e-002
3.932309e+003;4.985226e-002
3.934238e+003;5.066063e-002
3.936167e+003;5.040673e-002
3.938095e+003;5.013878e-002
3.940023e+003;4.971797e-002
3.941952e+003;4.960634e-002
3.943881e+003;4.965983e-002
3.945809e+003;4.969040e-002
3.947738e+003;4.961536e-002
3.949666e+003;4.950075e-002
3.951595e+003;4.945541e-002
3.953523e+003;4.937807e-002
3.955452e+003;4.935090e-002
3.957380e+003;4.911855e-002
3.959309e+003;4.943763e-002
3.961238e+003;5.009583e-002
3.963166e+003;5.010390e-002
3.965095e+003;4.972889e-002
3.967023e+003;4.939916e-002
3.968952e+003;4.952667e-002
3.970880e+003;4.968973e-002
3.972809e+003;4.962873e-002
3.974737e+003;4.959460e-002
3.976666e+003;4.975564e-002
3.978594e+003;5.012375e-002
3.980523e+003;5.004924e-002
3.982452e+003;4.951757e-002
3.984380e+003;4.914927e-002
3.986309e+003;4.900051e-002
3.988237e+003;4.904253e-002
3.990166e+003;4.873805e-002
3.992094e+003;4.895373e-002
3.994023e+003;4.978678e-002
3.995951e+003;4.991633e-002
3.997880e+003;4.931590e-002
3.999809e+003;4.927663e-002
4.001737e+003;0.000000e+000
