3.992094e+002;0.000000e+000
4.011380e+002;0.000000e+000
4.030665e+002;0.000000e+000
4.049951e+002;0.000000e+000
4.069236e+002;0.000000e+000
4.088522e+002;0.000000e+000
4.107807e+002;0.000000e+000
4.127093e+002;0.000000e+000
4.146378e+002;0.000000e+000
4.165664e+002;0.000000e+000
4.184949e+002;0.000000e+000
4.204235e+002;0.000000e+000
4.223520e+002;0.000000e+000
4.242806e+002;0.000000e+000
4.262091e+002;0.000000e+000
4.281377e+002;0.000000e+000
4.300662e+002;0.000000e+000
4.319948e+002;0.000000e+000
4.339233e+002;0.000000e+000
4.358519e+002;0.000000e+000
4.377804e+002;0.000000e+000
4.397090e+002;0.000000e+000
4.416375e+002;0.000000e+000
4.435660e+002;0.000000e+000
4.454946e+002;0.000000e+000
4.474232e+002;0.000000e+000
4.493517e+002;0.000000e+000
4.512802e+002;0.000000e+000
4.532088e+002;0.000000e+000
4.551373e+002;0.000000e+000
4.570659e+002;0.000000e+000
4.589944e+002;0.000000e+000
4.609230e+002;0.000000e+000
4.628515e+002;0.000000e+000
4.647801e+002;0.000000e+000
4.667086e+002;0.000000e+000
4.686372e+002;0.000000e+000
4.705657e+002;0.000000e+000
4.724943e+002;0.000000e+000
4.744228e+002;0.000000e+000
4.763513e+002;0.000000e+000
4.782799e+002;0.000000e+000
4.802085e+002;0.000000e+000
4.821370e+002;0.000000e+000
4.840656e+002;0.000000e+000
4.859941e+002;0.000000e+000
4.879226e+002;0.000000e+000
4.898512e+002;0.000000e+000
4.917798e+002;0.000000e+000
4.937083e+002;0.000000e+000
4.956368e+002;0.000000e+000
4.975654e+002;0.000000e+000
4.994939e+002;0.000000e+000
5.014225e+002;0.000000e+000
5.033510e+002;0.000000e+000
5.052796e+002;0.000000e+000
5.072081e+002;0.000000e+000
5.091367e+002;0.000000e+000
5.110652e+002;0.000000e+000
5.129938e+002;0.000000e+000
5.149223e+002;0.000000e+000
5.168509e+002;0.000000e+000
5.187794e+002;0.000000e+000
5.207079e+002;0.000000e+000
5.226365e+002;0.000000e+000
5.245651e+002;0.000000e+000
5.264936e+002;0.000000e+000
5.284222e+002;0.000000e+000
5.303507e+002;0.000000e+000
5.322792e+002;0.000000e+000
5.342078e+002;0.000000e+000
5.361364e+002;0.000000e+000
5.380649e+002;0.000000e+000
5.399935e+002;0.000000e+000
5.419220e+002;0.000000e+000
5.438505e+002;0.000000e+000
5.457791e+002;0.000000e+000
5.477076e+002;0.000000e+000
5.496362e+002;0.000000e+000
5.515648e+002;0.000000e+000
5.534933e+002;0.000000e+000
5.554218e+002;0.000000e+000
5.573504e+002;0.000000e+000
5.592789e+002;0.000000e+000
5.612075e+002;0.000000e+000
5.631360e+002;0.000000e+000
5.650646e+002;0.000000e+000
5.669931e+002;0.000000e+000
5.689217e+002;0.000000e+000
5.708502e+002;0.000000e+000
5.727787e+002;0.000000e+000
5.747073e+002;0.000000e+000
5.766359e+002;0.000000e+000
5.785644e+002;0.000000e+000
5.804930e+002;0.000000e+000
5.824215e+002;0.000000e+000
5.843500e+002;0.000000e+000
5.862786e+002;0.000000e+000
5.882072e+002;0.000000e+000
5.901357e+002;0.000000e+000
5.920643e+002;0.000000e+000
5.939928e+002;0.000000e+000
5.959213e+002;0.000000e+000
5.978499e+002;0.000000e+000
5.997784e+002;2.381363e-001
6.017070e+002;2.431572e-001
6.036355e+002;2.481911e-001
6.055641e+002;2.494354e-001
6.074926e+002;2.456502e-001
6.094211e+002;2.400397e-001
6.113497e+002;2.401159e-001
6.132783e+002;2.423019e-001
6.152068e+002;2.401383e-001
6.171354e+002;2.373619e-001
6.190639e+002;2.346764e-001
6.209924e+002;2.317155e-001
6.229210e+002;2.286490e-001
6.248495e+002;2.258690e-001
6.267781e+002;2.238965e-001
6.287067e+002;2.250492e-001
6.306352e+002;2.291982e-001
6.325637e+002;2.297511e-001
6.344923e+002;2.241054e-001
6.364208e+002;2.207654e-001
6.383494e+002;2.198181e-001
6.402780e+002;2.172760e-001
6.422065e+002;2.141556e-001
6.441350e+002;2.171102e-001
6.460636e+002;2.207921e-001
6.479921e+002;2.193708e-001
6.499207e+002;2.193958e-001
6.518492e+002;2.200145e-001
6.537778e+002;2.212588e-001
6.557063e+002;2.239082e-001
6.576349e+002;2.237359e-001
6.595634e+002;2.230434e-001
6.614919e+002;2.247606e-001
6.634205e+002;2.274918e-001
6.653491e+002;2.281853e-001
6.672776e+002;2.282316e-001
6.692062e+002;2.283409e-001
6.711347e+002;2.268551e-001
6.730632e+002;2.201855e-001
6.749918e+002;2.104401e-001
6.769203e+002;1.989994e-001
6.788489e+002;1.888087e-001
6.807775e+002;1.819780e-001
6.827060e+002;1.758725e-001
6.846345e+002;1.711482e-001
6.865631e+002;1.698281e-001
6.884916e+002;1.703936e-001
6.904202e+002;1.695470e-001
6.923488e+002;1.682202e-001
6.942773e+002;1.668773e-001
6.962058e+002;1.658244e-001
6.981344e+002;1.664240e-001
7.000629e+002;1.662259e-001
7.019915e+002;1.651078e-001
7.039200e+002;1.651753e-001
7.058486e+002;1.650293e-001
7.077771e+002;1.640711e-001
7.097057e+002;1.634647e-001
7.116342e+002;1.629512e-001
7.135627e+002;1.626546e-001
7.154913e+002;1.607295e-001
7.174199e+002;1.592409e-001
7.193484e+002;1.586797e-001
7.212770e+002;1.568507e-001
7.232055e+002;1.557681e-001
7.251340e+002;1.552420e-001
7.270626e+002;1.538507e-001
7.289911e+002;1.516837e-001
7.309197e+002;1.507970e-001
7.328483e+002;1.502779e-001
7.347768e+002;1.489551e-001
7.367053e+002;1.478750e-001
7.386339e+002;1.467363e-001
7.405624e+002;1.457175e-001
7.424910e+002;1.447031e-001
7.444196e+002;1.441440e-001
7.463481e+002;1.432043e-001
7.482766e+002;1.417970e-001
7.502052e+002;1.403588e-001
7.521337e+002;1.391773e-001
7.540623e+002;1.386873e-001
7.559908e+002;1.371833e-001
7.579194e+002;1.354243e-001
7.598479e+002;1.348260e-001
7.617765e+002;1.353420e-001
7.637050e+002;1.350701e-001
7.656335e+002;1.337550e-001
7.675621e+002;1.322913e-001
7.694907e+002;1.312886e-001
7.714192e+002;1.307610e-001
7.733478e+002;1.292707e-001
7.752763e+002;1.269443e-001
7.772048e+002;1.265010e-001
7.791334e+002;1.270369e-001
7.810620e+002;1.270225e-001
7.829905e+002;1.260062e-001
7.849191e+002;1.249778e-001
7.868476e+002;1.239537e-001
7.887761e+002;1.235768e-001
7.907047e+002;1.237286e-001
7.926332e+002;1.235553e-001
7.945618e+002;1.227111e-001
7.964903e+002;1.221681e-001
7.984189e+002;1.213784e-001
8.003474e+002;1.208555e-001
8.022759e+002;1.211092e-001
8.042045e+002;1.203749e-001
8.061331e+002;1.198965e-001
8.080616e+002;1.207225e-001
8.099902e+002;1.210066e-001
8.119187e+002;1.205314e-001
8.138472e+002;1.204382e-001
8.157758e+002;1.200156e-001
8.177043e+002;1.193971e-001
8.196329e+002;1.188142e-001
8.215615e+002;1.188203e-001
8.234900e+002;1.195418e-001
8.254185e+002;1.199803e-001
8.273471e+002;1.194880e-001
8.292756e+002;1.189563e-001
8.312042e+002;1.187615e-001
8.331328e+002;1.182867e-001
8.350613e+002;1.181460e-001
8.369898e+002;1.182331e-001
8.389184e+002;1.182773e-001
8.408469e+002;1.178123e-001
8.427755e+002;1.173000e-001
8.447040e+002;1.168072e-001
8.466326e+002;1.162623e-001
8.485611e+002;1.157268e-001
8.504897e+002;1.156587e-001
8.524182e+002;1.164766e-001
8.543467e+002;1.169667e-001
8.562753e+002;1.166430e-001
8.582039e+002;1.163066e-001
8.601324e+002;1.165795e-001
8.620610e+002;1.170326e-001
8.639895e+002;1.174906e-001
8.659180e+002;1.181024e-001
8.678466e+002;1.190781e-001
8.697751e+002;1.202436e-001
8.717037e+002;1.222218e-001
8.736323e+002;1.245661e-001
8.755608e+002;1.270464e-001
8.774893e+002;1.300892e-001
8.794179e+002;1.337541e-001
8.813464e+002;1.378742e-001
8.832750e+002;1.424059e-001
8.852036e+002;1.475895e-001
8.871321e+002;1.528999e-001
8.890606e+002;1.580135e-001
8.909892e+002;1.627083e-001
8.929177e+002;1.659509e-001
8.948463e+002;1.671202e-001
8.967748e+002;1.657773e-001
8.987034e+002;1.630306e-001
9.006319e+002;1.600235e-001
9.025605e+002;1.561293e-001
9.044890e+002;1.519386e-001
9.064175e+002;1.479403e-001
9.083461e+002;1.442671e-001
9.102747e+002;1.412641e-001
9.122032e+002;1.388541e-001
9.141318e+002;1.372225e-001
9.160603e+002;1.363445e-001
9.179888e+002;1.359880e-001
9.199174e+002;1.362122e-001
9.218459e+002;1.369001e-001
9.237745e+002;1.378707e-001
9.257031e+002;1.386211e-001
9.276316e+002;1.393460e-001
9.295601e+002;1.408121e-001
9.314887e+002;1.422936e-001
9.334172e+002;1.435522e-001
9.353458e+002;1.448180e-001
9.372744e+002;1.458884e-001
9.392029e+002;1.469141e-001
9.411314e+002;1.484875e-001
9.430600e+002;1.507205e-001
9.449885e+002;1.532717e-001
9.469171e+002;1.562145e-001
9.488456e+002;1.594472e-001
9.507742e+002;1.629959e-001
9.527027e+002;1.669193e-001
9.546313e+002;1.711911e-001
9.565598e+002;1.759063e-001
9.584883e+002;1.806895e-001
9.604169e+002;1.855321e-001
9.623455e+002;1.902843e-001
9.642740e+002;1.954000e-001
9.662026e+002;2.006281e-001
9.681311e+002;2.059223e-001
9.700596e+002;2.112609e-001
9.719882e+002;2.169843e-001
9.739167e+002;2.241125e-001
9.758453e+002;2.328692e-001
9.777739e+002;2.424207e-001
9.797024e+002;2.533250e-001
9.816309e+002;2.664044e-001
9.835595e+002;2.804445e-001
9.854880e+002;2.950283e-001
9.874166e+002;3.098213e-001
9.893452e+002;3.236324e-001
9.912737e+002;3.356186e-001
9.932022e+002;3.451452e-001
9.951307e+002;3.530717e-001
9.970593e+002;3.592517e-001
9.989879e+002;3.632923e-001
1.000916e+003;3.656116e-001
1.002845e+003;3.683409e-001
1.004773e+003;3.723985e-001
1.006702e+003;3.772731e-001
1.008631e+003;3.830630e-001
1.010559e+003;3.896203e-001
1.012488e+003;3.974158e-001
1.014416e+003;4.054304e-001
1.016345e+003;4.128617e-001
1.018273e+003;4.190804e-001
1.020202e+003;4.231548e-001
1.022130e+003;4.248050e-001
1.024059e+003;4.252205e-001
1.025988e+003;4.246761e-001
1.027916e+003;4.217331e-001
1.029845e+003;4.170732e-001
1.031773e+003;4.113340e-001
1.033702e+003;4.052793e-001
1.035630e+003;3.998185e-001
1.037559e+003;3.944941e-001
1.039487e+003;3.901073e-001
1.041416e+003;3.875237e-001
1.043344e+003;3.855493e-001
1.045273e+003;3.823898e-001
1.047202e+003;3.792084e-001
1.049130e+003;3.766818e-001
1.051059e+003;3.735375e-001
1.052987e+003;3.703201e-001
1.054916e+003;3.659429e-001
1.056844e+003;3.611762e-001
1.058773e+003;3.566652e-001
1.060701e+003;3.511857e-001
1.062630e+003;3.447955e-001
1.064558e+003;3.385692e-001
1.066487e+003;3.325825e-001
1.068416e+003;3.270290e-001
1.070344e+003;3.220493e-001
1.072273e+003;3.177768e-001
1.074201e+003;3.134833e-001
1.076130e+003;3.086114e-001
1.078058e+003;3.033575e-001
1.079987e+003;2.988496e-001
1.081915e+003;2.950569e-001
1.083844e+003;2.909030e-001
1.085773e+003;2.853442e-001
1.087701e+003;2.790728e-001
1.089630e+003;2.736831e-001
1.091558e+003;2.688003e-001
1.093487e+003;2.630652e-001
1.095415e+003;2.566210e-001
1.097344e+003;2.500750e-001
1.099272e+003;2.431367e-001
1.101201e+003;2.368870e-001
1.103129e+003;2.310113e-001
1.105058e+003;2.257797e-001
1.106987e+003;2.219796e-001
1.108915e+003;2.199731e-001
1.110844e+003;2.184421e-001
1.112772e+003;2.157526e-001
1.114701e+003;2.117671e-001
1.116629e+003;2.076555e-001
1.118558e+003;2.030160e-001
1.120486e+003;1.978529e-001
1.122415e+003;1.928568e-001
1.124344e+003;1.875710e-001
1.126272e+003;1.816446e-001
1.128201e+003;1.758216e-001
1.130129e+003;1.708383e-001
1.132058e+003;1.669198e-001
1.133986e+003;1.626812e-001
1.135915e+003;1.587925e-001
1.137843e+003;1.565602e-001
1.139772e+003;1.546740e-001
1.141700e+003;1.533411e-001
1.143629e+003;1.531609e-001
1.145557e+003;1.541249e-001
1.147486e+003;1.560095e-001
1.149415e+003;1.578577e-001
1.151343e+003;1.596975e-001
1.153272e+003;1.616624e-001
1.155200e+003;1.630907e-001
1.157129e+003;1.635881e-001
1.159057e+003;1.622549e-001
1.160986e+003;1.588533e-001
1.162914e+003;1.542152e-001
1.164843e+003;1.488006e-001
1.166771e+003;1.426704e-001
1.168700e+003;1.365388e-001
1.170629e+003;1.308852e-001
1.172557e+003;1.262184e-001
1.174486e+003;1.223603e-001
1.176414e+003;1.185073e-001
1.178343e+003;1.154043e-001
1.180271e+003;1.134686e-001
1.182200e+003;1.122555e-001
1.184128e+003;1.115994e-001
1.186057e+003;1.116916e-001
1.187986e+003;1.129951e-001
1.189914e+003;1.152475e-001
1.191843e+003;1.176632e-001
1.193771e+003;1.200331e-001
1.195700e+003;1.223221e-001
1.197628e+003;1.233648e-001
1.199557e+003;1.228539e-001
1.201485e+003;1.211744e-001
1.203414e+003;1.187667e-001
1.205343e+003;1.165672e-001
1.207271e+003;1.147352e-001
1.209200e+003;1.131278e-001
1.211128e+003;1.123203e-001
1.213057e+003;1.125099e-001
1.214985e+003;1.131001e-001
1.216914e+003;1.140855e-001
1.218842e+003;1.156702e-001
1.220771e+003;1.181470e-001
1.222699e+003;1.207617e-001
1.224628e+003;1.225377e-001
1.226557e+003;1.234645e-001
1.228485e+003;1.236333e-001
1.230414e+003;1.235297e-001
1.232342e+003;1.232282e-001
1.234271e+003;1.225170e-001
1.236199e+003;1.218900e-001
1.238128e+003;1.213394e-001
1.240056e+003;1.209678e-001
1.241985e+003;1.203779e-001
1.243913e+003;1.197212e-001
1.245842e+003;1.195099e-001
1.247771e+003;1.197061e-001
1.249699e+003;1.201079e-001
1.251628e+003;1.207978e-001
1.253556e+003;1.219327e-001
1.255485e+003;1.233316e-001
1.257413e+003;1.241964e-001
1.259342e+003;1.243918e-001
1.261270e+003;1.239109e-001
1.263199e+003;1.230252e-001
1.265127e+003;1.220547e-001
1.267056e+003;1.210554e-001
1.268985e+003;1.201678e-001
1.270913e+003;1.196201e-001
1.272842e+003;1.189743e-001
1.274770e+003;1.182864e-001
1.276699e+003;1.180300e-001
1.278627e+003;1.176642e-001
1.280556e+003;1.169610e-001
1.282484e+003;1.162180e-001
1.284413e+003;1.159312e-001
1.286342e+003;1.161718e-001
1.288270e+003;1.171329e-001
1.290199e+003;1.190271e-001
1.292127e+003;1.209882e-001
1.294056e+003;1.223875e-001
1.295984e+003;1.235988e-001
1.297913e+003;1.249153e-001
1.299841e+003;1.265783e-001
1.301770e+003;1.284205e-001
1.303698e+003;1.303189e-001
1.305627e+003;1.324572e-001
1.307556e+003;1.349291e-001
1.309484e+003;1.370706e-001
1.311413e+003;1.384451e-001
1.313341e+003;1.392554e-001
1.315270e+003;1.394525e-001
1.317198e+003;1.386650e-001
1.319127e+003;1.368469e-001
1.321055e+003;1.347306e-001
1.322984e+003;1.334306e-001
1.324912e+003;1.327352e-001
1.326841e+003;1.325138e-001
1.328770e+003;1.326705e-001
1.330698e+003;1.327760e-001
1.332627e+003;1.331887e-001
1.334555e+003;1.334091e-001
1.336484e+003;1.332466e-001
1.338412e+003;1.329444e-001
1.340341e+003;1.324585e-001
1.342269e+003;1.318311e-001
1.344198e+003;1.312118e-001
1.346126e+003;1.305668e-001
1.348055e+003;1.304235e-001
1.349984e+003;1.306173e-001
1.351912e+003;1.310920e-001
1.353841e+003;1.319713e-001
1.355769e+003;1.330382e-001
1.357698e+003;1.343281e-001
1.359626e+003;1.355907e-001
1.361555e+003;1.363456e-001
1.363483e+003;1.366139e-001
1.365412e+003;1.366019e-001
1.367341e+003;1.362739e-001
1.369269e+003;1.354233e-001
1.371198e+003;1.342252e-001
1.373126e+003;1.327804e-001
1.375055e+003;1.311198e-001
1.376983e+003;1.291470e-001
1.378912e+003;1.268725e-001
1.380840e+003;1.243706e-001
1.382769e+003;1.218700e-001
1.384698e+003;1.199243e-001
1.386626e+003;1.183692e-001
1.388555e+003;1.173072e-001
1.390483e+003;1.168390e-001
1.392412e+003;1.163653e-001
1.394340e+003;1.158580e-001
1.396269e+003;1.157655e-001
1.398197e+003;1.155572e-001
1.400126e+003;1.151901e-001
1.402054e+003;1.146814e-001
1.403983e+003;1.142870e-001
1.405911e+003;1.143017e-001
1.407840e+003;1.143200e-001
1.409769e+003;1.142442e-001
1.411697e+003;1.141959e-001
1.413626e+003;1.145311e-001
1.415554e+003;1.147958e-001
1.417483e+003;1.144075e-001
1.419411e+003;1.137680e-001
1.421340e+003;1.135219e-001
1.423268e+003;1.134486e-001
1.425197e+003;1.133212e-001
1.427125e+003;1.130973e-001
1.429054e+003;1.126398e-001
1.430983e+003;1.121752e-001
1.432911e+003;1.121057e-001
1.434840e+003;1.118203e-001
1.436768e+003;1.111305e-001
1.438697e+003;1.105702e-001
1.440625e+003;1.098643e-001
1.442554e+003;1.091667e-001
1.444482e+003;1.083511e-001
1.446411e+003;1.072301e-001
1.448340e+003;1.062082e-001
1.450268e+003;1.056295e-001
1.452197e+003;1.052227e-001
1.454125e+003;1.047074e-001
1.456054e+003;1.038951e-001
1.457982e+003;1.033740e-001
1.459911e+003;1.029875e-001
1.461839e+003;1.024284e-001
1.463768e+003;1.017000e-001
1.465697e+003;1.008476e-001
1.467625e+003;9.992801e-002
1.469554e+003;9.874899e-002
1.471482e+003;9.746802e-002
1.473411e+003;9.631178e-002
1.475339e+003;9.503788e-002
1.477268e+003;9.370324e-002
1.479196e+003;9.238224e-002
1.481125e+003;9.130518e-002
1.483053e+003;9.027345e-002
1.484982e+003;8.901814e-002
1.486911e+003;8.765440e-002
1.488839e+003;8.651001e-002
1.490768e+003;8.566101e-002
1.492696e+003;8.468289e-002
1.494625e+003;8.359883e-002
1.496553e+003;8.274623e-002
1.498482e+003;8.230080e-002
1.500410e+003;8.184005e-002
1.502339e+003;8.120783e-002
1.504267e+003;8.045764e-002
1.506196e+003;7.966706e-002
1.508125e+003;7.951484e-002
1.510053e+003;7.946566e-002
1.511982e+003;7.904527e-002
1.513910e+003;7.844346e-002
1.515839e+003;7.781798e-002
1.517767e+003;7.744560e-002
1.519696e+003;7.718981e-002
1.521624e+003;7.687994e-002
1.523553e+003;7.678147e-002
1.525481e+003;7.646348e-002
1.527410e+003;7.622942e-002
1.529339e+003;7.613975e-002
1.531267e+003;7.612979e-002
1.533196e+003;7.614950e-002
1.535124e+003;7.607575e-002
1.537053e+003;7.584317e-002
1.538981e+003;7.510836e-002
1.540910e+003;7.468391e-002
1.542838e+003;7.484610e-002
1.544767e+003;7.492611e-002
1.546695e+003;7.510218e-002
1.548624e+003;7.520784e-002
1.550553e+003;7.505157e-002
1.552481e+003;7.486355e-002
1.554410e+003;7.499994e-002
1.556338e+003;7.510328e-002
1.558267e+003;7.474782e-002
1.560195e+003;7.495694e-002
1.562124e+003;7.591294e-002
1.564052e+003;7.624237e-002
1.565981e+003;7.642412e-002
1.567910e+003;7.674608e-002
1.569838e+003;7.674011e-002
1.571767e+003;7.671896e-002
1.573695e+003;7.682829e-002
1.575624e+003;7.712562e-002
1.577552e+003;7.763305e-002
1.579481e+003;7.809156e-002
1.581409e+003;7.817435e-002
1.583338e+003;7.841329e-002
1.585266e+003;7.867851e-002
1.587195e+003;7.882389e-002
1.589124e+003;7.931143e-002
1.591052e+003;8.012000e-002
1.592981e+003;8.081964e-002
1.594909e+003;8.112954e-002
1.596838e+003;8.156694e-002
1.598766e+003;8.200334e-002
1.600695e+003;8.237657e-002
1.602623e+003;8.278291e-002
1.604552e+003;8.299914e-002
1.606480e+003;8.327111e-002
1.608409e+003;8.363968e-002
1.610338e+003;8.381993e-002
1.612266e+003;8.412269e-002
1.614195e+003;8.437962e-002
1.616123e+003;8.432417e-002
1.618052e+003;8.455341e-002
1.619980e+003;8.529789e-002
1.621909e+003;8.582849e-002
1.623837e+003;8.629203e-002
1.625766e+003;8.686835e-002
1.627694e+003;8.736295e-002
1.629623e+003;8.760819e-002
1.631552e+003;8.788443e-002
1.633480e+003;8.804327e-002
1.635409e+003;8.788756e-002
1.637337e+003;8.787478e-002
1.639266e+003;8.823027e-002
1.641194e+003;8.828163e-002
1.643123e+003;8.767131e-002
1.645051e+003;8.690292e-002
1.646980e+003;8.670035e-002
1.648909e+003;8.657108e-002
1.650837e+003;8.584480e-002
1.652766e+003;8.488355e-002
1.654694e+003;8.466630e-002
1.656623e+003;8.456927e-002
1.658551e+003;8.400813e-002
1.660480e+003;8.337484e-002
1.662408e+003;8.275273e-002
1.664337e+003;8.223104e-002
1.666266e+003;8.176565e-002
1.668194e+003;8.103570e-002
1.670123e+003;8.004020e-002
1.672051e+003;7.916191e-002
1.673980e+003;7.837793e-002
1.675908e+003;7.747436e-002
1.677837e+003;7.692796e-002
1.679765e+003;7.625241e-002
1.681694e+003;7.508398e-002
1.683622e+003;7.396913e-002
1.685551e+003;7.360934e-002
1.687479e+003;7.315133e-002
1.689408e+003;7.259021e-002
1.691337e+003;7.220589e-002
1.693265e+003;7.164770e-002
1.695194e+003;7.089401e-002
1.697122e+003;7.037939e-002
1.699051e+003;6.982748e-002
1.700979e+003;6.940018e-002
1.702908e+003;6.933523e-002
1.704836e+003;6.894419e-002
1.706765e+003;6.849549e-002
1.708693e+003;6.813345e-002
1.710622e+003;6.775232e-002
1.712551e+003;6.741087e-002
1.714479e+003;6.706892e-002
1.716408e+003;6.668184e-002
1.718336e+003;6.649111e-002
1.720265e+003;6.648508e-002
1.722193e+003;6.629298e-002
1.724122e+003;6.586475e-002
1.726050e+003;6.567696e-002
1.727979e+003;6.564663e-002
1.729908e+003;6.542069e-002
1.731836e+003;6.490731e-002
1.733765e+003;6.437276e-002
1.735693e+003;6.416976e-002
1.737622e+003;6.399706e-002
1.739550e+003;6.344798e-002
1.741479e+003;6.300500e-002
1.743407e+003;6.280264e-002
1.745336e+003;6.268093e-002
1.747265e+003;6.248502e-002
1.749193e+003;6.227506e-002
1.751122e+003;6.230240e-002
1.753050e+003;6.260514e-002
1.754979e+003;6.289350e-002
1.756907e+003;6.285279e-002
1.758836e+003;6.274022e-002
1.760764e+003;6.277698e-002
1.762693e+003;6.301473e-002
1.764621e+003;6.318907e-002
1.766550e+003;6.306909e-002
1.768479e+003;6.303572e-002
1.770407e+003;6.306093e-002
1.772336e+003;6.296635e-002
1.774264e+003;6.300910e-002
1.776193e+003;6.308760e-002
1.778121e+003;6.313974e-002
1.780050e+003;6.310231e-002
1.781978e+003;6.286961e-002
1.783907e+003;6.259882e-002
1.785835e+003;6.252853e-002
1.787764e+003;6.268253e-002
1.789693e+003;6.264820e-002
1.791621e+003;6.245223e-002
1.793550e+003;6.245151e-002
1.795478e+003;6.265547e-002
1.797407e+003;6.285945e-002
1.799335e+003;6.288742e-002
1.801264e+003;6.271304e-002
1.803192e+003;6.258696e-002
1.805121e+003;6.260093e-002
1.807049e+003;6.268208e-002
1.808978e+003;6.257529e-002
1.810907e+003;6.257816e-002
1.812835e+003;6.273429e-002
1.814764e+003;6.272889e-002
1.816692e+003;6.269681e-002
1.818621e+003;6.272430e-002
1.820549e+003;6.258352e-002
1.822478e+003;6.259653e-002
1.824406e+003;6.256878e-002
1.826335e+003;6.249394e-002
1.828264e+003;6.241314e-002
1.830192e+003;6.228221e-002
1.832121e+003;6.241604e-002
1.834049e+003;6.251728e-002
1.835978e+003;6.241906e-002
1.837906e+003;6.236096e-002
1.839835e+003;6.237882e-002
1.841763e+003;6.232053e-002
1.843692e+003;6.219453e-002
1.845620e+003;6.230634e-002
1.847549e+003;6.234046e-002
1.849478e+003;6.240755e-002
1.851406e+003;6.246880e-002
1.853335e+003;6.239500e-002
1.855263e+003;6.222041e-002
1.857192e+003;6.211007e-002
1.859120e+003;6.228133e-002
1.861049e+003;6.233587e-002
1.862977e+003;6.217426e-002
1.864906e+003;6.229135e-002
1.866834e+003;6.252700e-002
1.868763e+003;6.241501e-002
1.870692e+003;6.206317e-002
1.872620e+003;6.193724e-002
1.874549e+003;6.219877e-002
1.876477e+003;6.215855e-002
1.878406e+003;6.191576e-002
1.880334e+003;6.192772e-002
1.882263e+003;6.203649e-002
1.884191e+003;6.217793e-002
1.886120e+003;6.219170e-002
1.888048e+003;6.203874e-002
1.889977e+003;6.188073e-002
1.891906e+003;6.193353e-002
1.893834e+003;6.214089e-002
1.895763e+003;6.223613e-002
1.897691e+003;6.230263e-002
1.899620e+003;6.235339e-002
1.901548e+003;6.236773e-002
1.903477e+003;6.245992e-002
1.905405e+003;6.259121e-002
1.907334e+003;6.256714e-002
1.909262e+003;6.249264e-002
1.911191e+003;6.233778e-002
1.913120e+003;6.239971e-002
1.915048e+003;6.263296e-002
1.916977e+003;6.264850e-002
1.918905e+003;6.266140e-002
1.920834e+003;6.270466e-002
1.922762e+003;6.266385e-002
1.924691e+003;6.271205e-002
1.926619e+003;6.290365e-002
1.928548e+003;6.305220e-002
1.930477e+003;6.295563e-002
1.932405e+003;6.282499e-002
1.934334e+003;6.292468e-002
1.936262e+003;6.302591e-002
1.938191e+003;6.315894e-002
1.940119e+003;6.327339e-002
1.942048e+003;6.309304e-002
1.943976e+003;6.311446e-002
1.945905e+003;6.308495e-002
1.947833e+003;6.292671e-002
1.949762e+003;6.306319e-002
1.951691e+003;6.323705e-002
1.953619e+003;6.346098e-002
1.955548e+003;6.357446e-002
1.957476e+003;6.352011e-002
1.959405e+003;6.349725e-002
1.961333e+003;6.358651e-002
1.963262e+003;6.369830e-002
1.965190e+003;6.362260e-002
1.967119e+003;6.353234e-002
1.969047e+003;6.364493e-002
1.970976e+003;6.378157e-002
1.972905e+003;6.381983e-002
1.974833e+003;6.386692e-002
1.976762e+003;6.401803e-002
1.978690e+003;6.406372e-002
1.980619e+003;6.411345e-002
1.982547e+003;6.411821e-002
1.984476e+003;6.415574e-002
1.986404e+003;6.431381e-002
1.988333e+003;6.446807e-002
1.990261e+003;6.447361e-002
1.992190e+003;6.430091e-002
1.994119e+003;6.420863e-002
1.996047e+003;6.440466e-002
1.997976e+003;6.451166e-002
1.999904e+003;6.439655e-002
2.001833e+003;6.432024e-002
2.003761e+003;6.453584e-002
2.005690e+003;6.459285e-002
2.007618e+003;6.450167e-002
2.009547e+003;6.469337e-002
2.011476e+003;6.496476e-002
2.013404e+003;6.503257e-002
2.015333e+003;6.502218e-002
2.017261e+003;6.502645e-002
2.019190e+003;6.526005e-002
2.021118e+003;6.519744e-002
2.023047e+003;6.495018e-002
2.024975e+003;6.505532e-002
2.026904e+003;6.508288e-002
2.028833e+003;6.512014e-002
2.030761e+003;6.532724e-002
2.032690e+003;6.532844e-002
2.034618e+003;6.528550e-002
2.036547e+003;6.520025e-002
2.038475e+003;6.513368e-002
2.040404e+003;6.524619e-002
2.042332e+003;6.527722e-002
2.044261e+003;6.528123e-002
2.046189e+003;6.551319e-002
2.048118e+003;6.565002e-002
2.050047e+003;6.553210e-002
2.051975e+003;6.548279e-002
2.053904e+003;6.551276e-002
2.055832e+003;6.543683e-002
2.057761e+003;6.547365e-002
2.059689e+003;6.554378e-002
2.061618e+003;6.556050e-002
2.063546e+003;6.565087e-002
2.065475e+003;6.558065e-002
2.067404e+003;6.548309e-002
2.069332e+003;6.556674e-002
2.071260e+003;6.583221e-002
2.073189e+003;6.601705e-002
2.075118e+003;6.576253e-002
2.077046e+003;6.555191e-002
2.078975e+003;6.556131e-002
2.080903e+003;6.569550e-002
2.082832e+003;6.566081e-002
2.084760e+003;6.551442e-002
2.086689e+003;6.561965e-002
2.088617e+003;6.560389e-002
2.090546e+003;6.537180e-002
2.092475e+003;6.547955e-002
2.094403e+003;6.552809e-002
2.096332e+003;6.553268e-002
2.098260e+003;6.553838e-002
2.100189e+003;6.549855e-002
2.102117e+003;6.552263e-002
2.104046e+003;6.555214e-002
2.105974e+003;6.560767e-002
2.107903e+003;6.562940e-002
2.109832e+003;6.581756e-002
2.111760e+003;6.582754e-002
2.113688e+003;6.573281e-002
2.115617e+003;6.599417e-002
2.117546e+003;6.601316e-002
2.119474e+003;6.581937e-002
2.121403e+003;6.578154e-002
2.123331e+003;6.573652e-002
2.125260e+003;6.590316e-002
2.127188e+003;6.594335e-002
2.129117e+003;6.578317e-002
2.131045e+003;6.581921e-002
2.132974e+003;6.586980e-002
2.134903e+003;6.565707e-002
2.136831e+003;6.560990e-002
2.138760e+003;6.575911e-002
2.140688e+003;6.573710e-002
2.142617e+003;6.574824e-002
2.144545e+003;6.561934e-002
2.146474e+003;6.548024e-002
2.148402e+003;6.564235e-002
2.150331e+003;6.573779e-002
2.152260e+003;6.553006e-002
2.154188e+003;6.552848e-002
2.156117e+003;6.583980e-002
2.158045e+003;6.609548e-002
2.159974e+003;6.602716e-002
2.161902e+003;6.593443e-002
2.163831e+003;6.578170e-002
2.165759e+003;6.578258e-002
2.167688e+003;6.575687e-002
2.169616e+003;6.544696e-002
2.171545e+003;6.523629e-002
2.173474e+003;6.547743e-002
2.175402e+003;6.559298e-002
2.177331e+003;6.541464e-002
2.179259e+003;6.518061e-002
2.181188e+003;6.503249e-002
2.183116e+003;6.506760e-002
2.185045e+003;6.514508e-002
2.186973e+003;6.525481e-002
2.188902e+003;6.522786e-002
2.190831e+003;6.495803e-002
2.192759e+003;6.484441e-002
2.194688e+003;6.492871e-002
2.196616e+003;6.489335e-002
2.198545e+003;6.486188e-002
2.200473e+003;6.483322e-002
2.202402e+003;6.467272e-002
2.204330e+003;6.451343e-002
2.206259e+003;6.455768e-002
2.208188e+003;6.456087e-002
2.210116e+003;6.450651e-002
2.212044e+003;6.448226e-002
2.213973e+003;6.435531e-002
2.215902e+003;6.438141e-002
2.217830e+003;6.439536e-002
2.219759e+003;6.448856e-002
2.221687e+003;6.470367e-002
2.223616e+003;6.461412e-002
2.225544e+003;6.426337e-002
2.227473e+003;6.415190e-002
2.229401e+003;6.436819e-002
2.231330e+003;6.462515e-002
2.233259e+003;6.472509e-002
2.235187e+003;6.462280e-002
2.237116e+003;6.440012e-002
2.239044e+003;6.422403e-002
2.240973e+003;6.418800e-002
2.242901e+003;6.420098e-002
2.244830e+003;6.420206e-002
2.246758e+003;6.421312e-002
2.248687e+003;6.418116e-002
2.250615e+003;6.413396e-002
2.252544e+003;6.381929e-002
2.254473e+003;6.367758e-002
2.256401e+003;6.364021e-002
2.258330e+003;6.340143e-002
2.260258e+003;6.328565e-002
2.262187e+003;6.338755e-002
2.264115e+003;6.355233e-002
2.266044e+003;6.353752e-002
2.267972e+003;6.345952e-002
2.269901e+003;6.331528e-002
2.271830e+003;6.330390e-002
2.273758e+003;6.335171e-002
2.275687e+003;6.347977e-002
2.277615e+003;6.359253e-002
2.279544e+003;6.365015e-002
2.281472e+003;6.367581e-002
2.283401e+003;6.359997e-002
2.285329e+003;6.331471e-002
2.287258e+003;6.312089e-002
2.289187e+003;6.311435e-002
2.291115e+003;6.301316e-002
2.293043e+003;6.293958e-002
2.294972e+003;6.297466e-002
2.296901e+003;6.300373e-002
2.298829e+003;6.313208e-002
2.300758e+003;6.312737e-002
2.302686e+003;6.295953e-002
2.304615e+003;6.271274e-002
2.306543e+003;6.278793e-002
2.308472e+003;6.278984e-002
2.310400e+003;6.285505e-002
2.312329e+003;6.309955e-002
2.314258e+003;6.296409e-002
2.316186e+003;6.272162e-002
2.318115e+003;6.265452e-002
2.320043e+003;6.297382e-002
2.321972e+003;6.321804e-002
2.323900e+003;6.319945e-002
2.325829e+003;6.313656e-002
2.327757e+003;6.293544e-002
2.329686e+003;6.287895e-002
2.331615e+003;6.300615e-002
2.333543e+003;6.314205e-002
2.335472e+003;6.322984e-002
2.337400e+003;6.316703e-002
2.339329e+003;6.308495e-002
2.341257e+003;6.310067e-002
2.343186e+003;6.325246e-002
2.345114e+003;6.336754e-002
2.347043e+003;6.338721e-002
2.348971e+003;6.341282e-002
2.350900e+003;6.334001e-002
2.352829e+003;6.366001e-002
2.354757e+003;6.374231e-002
2.356686e+003;6.339698e-002
2.358614e+003;6.333583e-002
2.360543e+003;6.371208e-002
2.362471e+003;6.398892e-002
2.364400e+003;6.399199e-002
2.366328e+003;6.392147e-002
2.368257e+003;6.362192e-002
2.370186e+003;6.362513e-002
2.372114e+003;6.372919e-002
2.374042e+003;6.362778e-002
2.375971e+003;6.372646e-002
2.377900e+003;6.392726e-002
2.379828e+003;6.377850e-002
2.381757e+003;6.359318e-002
2.383685e+003;6.377443e-002
2.385614e+003;6.394581e-002
2.387542e+003;6.400701e-002
2.389471e+003;6.404617e-002
2.391399e+003;6.415028e-002
2.393328e+003;6.443910e-002
2.395257e+003;6.440996e-002
2.397185e+003;6.426241e-002
2.399114e+003;6.422322e-002
2.401042e+003;6.431071e-002
2.402971e+003;6.448487e-002
2.404899e+003;6.447972e-002
2.406828e+003;6.461219e-002
2.408756e+003;6.475056e-002
2.410685e+003;6.457817e-002
2.412614e+003;6.448187e-002
2.414542e+003;6.457847e-002
2.416471e+003;6.456552e-002
2.418399e+003;6.455683e-002
2.420328e+003;6.475740e-002
2.422256e+003;6.508565e-002
2.424185e+003;6.519028e-002
2.426113e+003;6.533549e-002
2.428042e+003;6.546009e-002
2.429970e+003;6.545921e-002
2.431899e+003;6.553203e-002
2.433828e+003;6.557287e-002
2.435756e+003;6.559499e-002
2.437685e+003;6.560451e-002
2.439613e+003;6.561684e-002
2.441542e+003;6.561827e-002
2.443470e+003;6.584358e-002
2.445399e+003;6.609166e-002
2.447327e+003;6.612936e-002
2.449256e+003;6.603738e-002
2.451185e+003;6.605308e-002
2.453113e+003;6.628055e-002
2.455042e+003;6.657206e-002
2.456970e+003;6.682786e-002
2.458899e+003;6.694906e-002
2.460827e+003;6.663359e-002
2.462756e+003;6.660516e-002
2.464684e+003;6.690983e-002
2.466613e+003;6.720872e-002
2.468542e+003;6.722926e-002
2.470470e+003;6.722551e-002
2.472398e+003;6.740131e-002
2.474327e+003;6.759236e-002
2.476256e+003;6.760796e-002
2.478184e+003;6.750198e-002
2.480113e+003;6.737860e-002
2.482041e+003;6.730268e-002
2.483970e+003;6.734393e-002
2.485898e+003;6.740286e-002
2.487827e+003;6.772455e-002
2.489755e+003;6.787103e-002
2.491684e+003;6.773725e-002
2.493613e+003;6.785151e-002
2.495541e+003;6.808364e-002
2.497470e+003;6.810504e-002
2.499398e+003;6.821878e-002
2.501327e+003;6.823786e-002
2.503255e+003;6.840394e-002
2.505184e+003;6.871318e-002
2.507112e+003;6.841581e-002
2.509041e+003;6.813206e-002
2.510969e+003;6.831971e-002
2.512898e+003;6.859148e-002
2.514827e+003;6.851003e-002
2.516755e+003;6.837315e-002
2.518684e+003;6.854356e-002
2.520612e+003;6.877571e-002
2.522541e+003;6.880316e-002
2.524469e+003;6.887130e-002
2.526398e+003;6.891277e-002
2.528326e+003;6.872288e-002
2.530255e+003;6.859940e-002
2.532184e+003;6.877645e-002
2.534112e+003;6.893630e-002
2.536041e+003;6.903483e-002
2.537969e+003;6.887079e-002
2.539898e+003;6.860812e-002
2.541826e+003;6.867592e-002
2.543755e+003;6.885553e-002
2.545683e+003;6.903864e-002
2.547612e+003;6.910188e-002
2.549541e+003;6.917480e-002
2.551469e+003;6.937822e-002
2.553397e+003;6.947048e-002
2.555326e+003;6.947709e-002
2.557255e+003;6.957777e-002
2.559183e+003;6.962265e-002
2.561112e+003;6.971414e-002
2.563040e+003;6.997417e-002
2.564969e+003;6.982064e-002
2.566897e+003;6.951461e-002
2.568826e+003;6.959352e-002
2.570754e+003;6.976254e-002
2.572683e+003;6.972935e-002
2.574612e+003;6.959305e-002
2.576540e+003;6.979522e-002
2.578469e+003;6.987745e-002
2.580397e+003;7.005752e-002
2.582326e+003;7.051317e-002
2.584254e+003;7.067842e-002
2.586183e+003;7.056505e-002
2.588111e+003;7.037125e-002
2.590040e+003;7.028188e-002
2.591969e+003;7.040487e-002
2.593897e+003;7.072954e-002
2.595826e+003;7.113165e-002
2.597754e+003;7.120787e-002
2.599683e+003;7.103201e-002
2.601611e+003;7.107017e-002
2.603540e+003;7.120147e-002
2.605468e+003;7.119659e-002
2.607397e+003;7.105566e-002
2.609325e+003;7.100704e-002
2.611254e+003;7.102057e-002
2.613183e+003;7.101776e-002
2.615111e+003;7.122204e-002
2.617040e+003;7.151458e-002
2.618968e+003;7.164442e-002
2.620897e+003;7.165728e-002
2.622825e+003;7.156033e-002
2.624754e+003;7.166900e-002
2.626682e+003;7.178621e-002
2.628611e+003;7.192000e-002
2.630540e+003;7.204115e-002
2.632468e+003;7.198585e-002
2.634396e+003;7.221246e-002
2.636325e+003;7.259342e-002
2.638254e+003;7.270364e-002
2.640182e+003;7.267418e-002
2.642111e+003;7.267602e-002
2.644039e+003;7.276032e-002
2.645968e+003;7.306036e-002
2.647896e+003;7.309781e-002
2.649825e+003;7.304625e-002
2.651753e+003;7.326475e-002
2.653682e+003;7.330076e-002
2.655611e+003;7.335497e-002
2.657539e+003;7.362312e-002
2.659468e+003;7.367329e-002
2.661396e+003;7.384077e-002
2.663325e+003;7.393531e-002
2.665253e+003;7.392517e-002
2.667182e+003;7.425719e-002
2.669110e+003;7.439651e-002
2.671039e+003;7.437370e-002
2.672968e+003;7.446691e-002
2.674896e+003;7.457854e-002
2.676825e+003;7.474093e-002
2.678753e+003;7.490748e-002
2.680682e+003;7.514464e-002
2.682610e+003;7.539782e-002
2.684539e+003;7.569839e-002
2.686467e+003;7.566360e-002
2.688396e+003;7.564810e-002
2.690324e+003;7.581674e-002
2.692253e+003;7.590457e-002
2.694182e+003;7.600675e-002
2.696110e+003;7.626765e-002
2.698039e+003;7.634468e-002
2.699967e+003;7.629360e-002
2.701896e+003;7.640950e-002
2.703824e+003;7.661887e-002
2.705753e+003;7.685336e-002
2.707681e+003;7.716824e-002
2.709610e+003;7.729305e-002
2.711539e+003;7.723565e-002
2.713467e+003;7.741182e-002
2.715396e+003;7.763356e-002
2.717324e+003;7.767623e-002
2.719253e+003;7.782429e-002
2.721181e+003;7.799024e-002
2.723110e+003;7.810608e-002
2.725038e+003;7.830392e-002
2.726967e+003;7.857856e-002
2.728896e+003;7.880717e-002
2.730824e+003;7.903804e-002
2.732752e+003;7.898264e-002
2.734681e+003;7.869595e-002
2.736610e+003;7.875540e-002
2.738538e+003;7.877324e-002
2.740467e+003;7.884030e-002
2.742395e+003;7.908761e-002
2.744324e+003;7.915718e-002
2.746252e+003;7.914267e-002
2.748181e+003;7.912585e-002
2.750109e+003;7.922613e-002
2.752038e+003;7.940554e-002
2.753967e+003;7.939588e-002
2.755895e+003;7.945456e-002
2.757824e+003;7.976806e-002
2.759752e+003;8.002686e-002
2.761681e+003;8.004992e-002
2.763609e+003;8.019851e-002
2.765538e+003;8.056165e-002
2.767466e+003;8.067603e-002
2.769395e+003;8.066957e-002
2.771323e+003;8.077607e-002
2.773252e+003;8.099317e-002
2.775181e+003;8.146908e-002
2.777109e+003;8.195016e-002
2.779038e+003;8.214500e-002
2.780966e+003;8.204340e-002
2.782895e+003;8.220977e-002
2.784823e+003;8.278996e-002
2.786752e+003;8.328295e-002
2.788680e+003;8.367129e-002
2.790609e+003;8.395715e-002
2.792538e+003;8.378818e-002
2.794466e+003;8.375800e-002
2.796395e+003;8.416757e-002
2.798323e+003;8.437721e-002
2.800252e+003;8.472361e-002
2.802180e+003;8.522072e-002
2.804109e+003;8.562146e-002
2.806037e+003;8.594963e-002
2.807966e+003;8.608514e-002
2.809895e+003;8.634267e-002
2.811823e+003;8.675966e-002
2.813751e+003;8.698355e-002
2.815680e+003;8.737887e-002
2.817609e+003;8.791782e-002
2.819537e+003;8.828954e-002
2.821466e+003;8.870219e-002
2.823394e+003;8.906414e-002
2.825323e+003;8.906536e-002
2.827251e+003;8.915620e-002
2.829180e+003;8.986624e-002
2.831108e+003;9.060328e-002
2.833037e+003;9.132264e-002
2.834966e+003;9.193001e-002
2.836894e+003;9.232006e-002
2.838823e+003;9.309778e-002
2.840751e+003;9.380057e-002
2.842680e+003;9.438250e-002
2.844608e+003;9.484575e-002
2.846537e+003;9.504085e-002
2.848465e+003;9.541257e-002
2.850394e+003;9.622530e-002
2.852323e+003;9.702757e-002
2.854251e+003;9.812205e-002
2.856180e+003;9.974112e-002
2.858108e+003;1.013945e-001
2.860037e+003;1.027453e-001
2.861965e+003;1.041292e-001
2.863894e+003;1.052944e-001
2.865822e+003;1.064902e-001
2.867751e+003;1.077703e-001
2.869679e+003;1.085844e-001
2.871608e+003;1.095819e-001
2.873536e+003;1.109830e-001
2.875465e+003;1.117220e-001
2.877394e+003;1.120566e-001
2.879322e+003;1.125376e-001
2.881251e+003;1.129212e-001
2.883179e+003;1.132472e-001
2.885108e+003;1.138262e-001
2.887036e+003;1.144515e-001
2.888965e+003;1.146973e-001
2.890893e+003;1.146074e-001
2.892822e+003;1.146568e-001
2.894750e+003;1.144936e-001
2.896679e+003;1.139463e-001
2.898608e+003;1.135397e-001
2.900536e+003;1.133542e-001
2.902465e+003;1.129392e-001
2.904393e+003;1.120673e-001
2.906322e+003;1.112658e-001
2.908250e+003;1.106485e-001
2.910179e+003;1.100337e-001
2.912107e+003;1.089923e-001
2.914036e+003;1.073136e-001
2.915965e+003;1.058503e-001
2.917893e+003;1.045551e-001
2.919822e+003;1.033419e-001
2.921750e+003;1.026145e-001
2.923679e+003;1.018110e-001
2.925607e+003;1.010345e-001
2.927536e+003;1.005594e-001
2.929464e+003;9.969781e-002
2.931393e+003;9.859820e-002
2.933322e+003;9.797542e-002
2.935250e+003;9.737198e-002
2.937178e+003;9.631512e-002
2.939107e+003;9.540407e-002
2.941036e+003;9.433944e-002
2.942964e+003;9.328861e-002
2.944893e+003;9.287351e-002
2.946821e+003;9.212884e-002
2.948750e+003;9.098990e-002
2.950678e+003;8.995688e-002
2.952607e+003;8.897942e-002
2.954535e+003;8.807173e-002
2.956464e+003;8.728642e-002
2.958393e+003;8.663470e-002
2.960321e+003;8.610877e-002
2.962250e+003;8.526571e-002
2.964178e+003;8.466340e-002
2.966107e+003;8.460151e-002
2.968035e+003;8.481124e-002
2.969964e+003;8.494576e-002
2.971892e+003;8.439724e-002
2.973821e+003;8.379023e-002
2.975750e+003;8.369030e-002
2.977678e+003;8.362518e-002
2.979607e+003;8.339840e-002
2.981535e+003;8.321905e-002
2.983464e+003;8.304603e-002
2.985392e+003;8.293749e-002
2.987321e+003;8.264093e-002
2.989249e+003;8.205745e-002
2.991178e+003;8.212586e-002
2.993106e+003;8.248341e-002
2.995035e+003;8.235002e-002
2.996964e+003;8.227728e-002
2.998892e+003;8.229903e-002
3.000821e+003;8.226723e-002
3.002749e+003;8.217835e-002
3.004678e+003;8.223264e-002
3.006606e+003;8.271184e-002
3.008535e+003;8.314064e-002
3.010463e+003;8.318269e-002
3.012392e+003;8.329334e-002
3.014321e+003;8.361951e-002
3.016249e+003;8.372706e-002
3.018177e+003;8.398248e-002
3.020106e+003;8.427674e-002
3.022035e+003;8.459278e-002
3.023963e+003;8.509789e-002
3.025892e+003;8.543631e-002
3.027820e+003;8.553491e-002
3.029749e+003;8.556750e-002
3.031677e+003;8.597144e-002
3.033606e+003;8.673143e-002
3.035534e+003;8.725551e-002
3.037463e+003;8.784829e-002
3.039392e+003;8.832837e-002
3.041320e+003;8.842080e-002
3.043249e+003;8.868638e-002
3.045177e+003;8.909595e-002
3.047106e+003;8.934266e-002
3.049034e+003;8.948966e-002
3.050963e+003;9.013899e-002
3.052891e+003;9.093650e-002
3.054820e+003;9.131610e-002
3.056749e+003;9.150176e-002
3.058677e+003;9.191306e-002
3.060606e+003;9.261438e-002
3.062534e+003;9.310423e-002
3.064463e+003;9.349781e-002
3.066391e+003;9.362661e-002
3.068320e+003;9.378038e-002
3.070248e+003;9.456990e-002
3.072177e+003;9.531307e-002
3.074105e+003;9.563494e-002
3.076034e+003;9.606963e-002
3.077963e+003;9.661435e-002
3.079891e+003;9.712991e-002
3.081820e+003;9.781290e-002
3.083748e+003;9.829640e-002
3.085677e+003;9.847052e-002
3.087605e+003;9.937425e-002
3.089534e+003;1.001257e-001
3.091462e+003;1.002186e-001
3.093391e+003;1.008171e-001
3.095320e+003;1.015772e-001
3.097248e+003;1.020871e-001
3.099177e+003;1.026650e-001
3.101105e+003;1.031052e-001
3.103034e+003;1.036029e-001
3.104962e+003;1.041028e-001
3.106891e+003;1.044388e-001
3.108819e+003;1.049374e-001
3.110748e+003;1.053677e-001
3.112677e+003;1.059413e-001
3.114605e+003;1.069684e-001
3.116533e+003;1.079989e-001
3.118462e+003;1.084425e-001
3.120391e+003;1.085250e-001
3.122319e+003;1.091489e-001
3.124248e+003;1.097750e-001
3.126176e+003;1.101763e-001
3.128105e+003;1.110368e-001
3.130033e+003;1.116816e-001
3.131962e+003;1.122255e-001
3.133890e+003;1.132762e-001
3.135819e+003;1.138929e-001
3.137748e+003;1.139564e-001
3.139676e+003;1.142851e-001
3.141605e+003;1.150918e-001
3.143533e+003;1.159059e-001
3.145462e+003;1.166926e-001
3.147390e+003;1.169374e-001
3.149319e+003;1.172922e-001
3.151247e+003;1.179286e-001
3.153176e+003;1.180747e-001
3.155104e+003;1.185638e-001
3.157033e+003;1.194750e-001
3.158962e+003;1.198863e-001
3.160890e+003;1.201628e-001
3.162819e+003;1.206239e-001
3.164747e+003;1.211839e-001
3.166676e+003;1.217253e-001
3.168604e+003;1.217696e-001
3.170533e+003;1.219846e-001
3.172461e+003;1.224688e-001
3.174390e+003;1.232843e-001
3.176319e+003;1.237611e-001
3.178247e+003;1.241457e-001
3.180176e+003;1.244238e-001
3.182104e+003;1.249864e-001
3.184033e+003;1.259004e-001
3.185961e+003;1.263468e-001
3.187890e+003;1.264072e-001
3.189818e+003;1.265456e-001
3.191747e+003;1.269780e-001
3.193676e+003;1.277604e-001
3.195604e+003;1.282757e-001
3.197532e+003;1.285788e-001
3.199461e+003;1.292723e-001
3.201390e+003;1.300340e-001
3.203318e+003;1.303908e-001
3.205247e+003;1.304683e-001
3.207175e+003;1.305906e-001
3.209104e+003;1.307834e-001
3.211032e+003;1.313348e-001
3.212961e+003;1.316728e-001
3.214889e+003;1.320691e-001
3.216818e+003;1.325252e-001
3.218747e+003;1.330034e-001
3.220675e+003;1.334692e-001
3.222604e+003;1.342501e-001
3.224532e+003;1.345930e-001
3.226461e+003;1.345538e-001
3.228389e+003;1.351226e-001
3.230318e+003;1.362226e-001
3.232246e+003;1.366839e-001
3.234175e+003;1.369214e-001
3.236104e+003;1.372798e-001
3.238032e+003;1.378623e-001
3.239961e+003;1.383709e-001
3.241889e+003;1.384077e-001
3.243818e+003;1.383189e-001
3.245746e+003;1.384108e-001
3.247675e+003;1.388727e-001
3.249603e+003;1.391183e-001
3.251532e+003;1.395394e-001
3.253460e+003;1.398781e-001
3.255389e+003;1.403017e-001
3.257318e+003;1.408241e-001
3.259246e+003;1.412106e-001
3.261175e+003;1.415402e-001
3.263103e+003;1.420121e-001
3.265032e+003;1.422889e-001
3.266960e+003;1.424225e-001
3.268889e+003;1.429989e-001
3.270817e+003;1.436386e-001
3.272746e+003;1.439163e-001
3.274675e+003;1.441718e-001
3.276603e+003;1.442580e-001
3.278531e+003;1.443953e-001
3.280460e+003;1.447205e-001
3.282389e+003;1.448149e-001
3.284317e+003;1.448544e-001
3.286246e+003;1.450885e-001
3.288174e+003;1.457890e-001
3.290103e+003;1.464721e-001
3.292031e+003;1.467051e-001
3.293960e+003;1.465319e-001
3.295888e+003;1.463696e-001
3.297817e+003;1.465851e-001
3.299746e+003;1.471566e-001
3.301674e+003;1.476351e-001
3.303603e+003;1.475946e-001
3.305531e+003;1.474285e-001
3.307460e+003;1.472842e-001
3.309388e+003;1.473670e-001
3.311317e+003;1.480548e-001
3.313245e+003;1.487751e-001
3.315174e+003;1.487275e-001
3.317103e+003;1.485723e-001
3.319031e+003;1.489663e-001
3.320960e+003;1.488186e-001
3.322888e+003;1.485450e-001
3.324817e+003;1.488511e-001
3.326745e+003;1.489591e-001
3.328674e+003;1.487651e-001
3.330602e+003;1.492221e-001
3.332531e+003;1.494476e-001
3.334459e+003;1.491259e-001
3.336388e+003;1.487881e-001
3.338317e+003;1.484079e-001
3.340245e+003;1.485730e-001
3.342174e+003;1.488065e-001
3.344102e+003;1.488871e-001
3.346031e+003;1.484694e-001
3.347959e+003;1.480544e-001
3.349888e+003;1.480511e-001
3.351816e+003;1.481060e-001
3.353745e+003;1.483022e-001
3.355674e+003;1.480703e-001
3.357602e+003;1.478989e-001
3.359531e+003;1.479086e-001
3.361459e+003;1.476148e-001
3.363388e+003;1.469624e-001
3.365316e+003;1.459974e-001
3.367245e+003;1.453015e-001
3.369173e+003;1.450282e-001
3.371102e+003;1.451454e-001
3.373031e+003;1.454107e-001
3.374959e+003;1.456056e-001
3.376887e+003;1.450515e-001
3.378816e+003;1.443402e-001
3.380745e+003;1.443885e-001
3.382673e+003;1.442875e-001
3.384602e+003;1.439668e-001
3.386530e+003;1.435886e-001
3.388459e+003;1.432673e-001
3.390387e+003;1.426889e-001
3.392316e+003;1.426952e-001
3.394244e+003;1.425073e-001
3.396173e+003;1.418127e-001
3.398102e+003;1.415734e-001
3.400030e+003;1.414338e-001
3.401959e+003;1.409808e-001
3.403887e+003;1.404112e-001
3.405816e+003;1.397163e-001
3.407744e+003;1.390160e-001
3.409673e+003;1.387608e-001
3.411601e+003;1.384661e-001
3.413530e+003;1.379348e-001
3.415458e+003;1.378651e-001
3.417387e+003;1.379068e-001
3.419316e+003;1.372926e-001
3.421244e+003;1.364881e-001
3.423173e+003;1.360631e-001
3.425101e+003;1.353551e-001
3.427030e+003;1.352692e-001
3.428958e+003;1.354708e-001
3.430887e+003;1.350367e-001
3.432815e+003;1.346546e-001
3.434744e+003;1.342767e-001
3.436673e+003;1.341196e-001
3.438601e+003;1.337986e-001
3.440530e+003;1.333181e-001
3.442458e+003;1.327580e-001
3.444387e+003;1.319549e-001
3.446315e+003;1.315331e-001
3.448244e+003;1.307919e-001
3.450172e+003;1.296998e-001
3.452101e+003;1.286792e-001
3.454030e+003;1.275534e-001
3.455958e+003;1.262777e-001
3.457886e+003;1.247763e-001
3.459815e+003;1.238915e-001
3.461744e+003;1.233061e-001
3.463672e+003;1.225040e-001
3.465601e+003;1.218628e-001
3.467529e+003;1.212470e-001
3.469458e+003;1.202292e-001
3.471386e+003;1.190590e-001
3.473315e+003;1.180236e-001
3.475243e+003;1.171584e-001
3.477172e+003;1.165363e-001
3.479101e+003;1.161182e-001
3.481029e+003;1.155268e-001
3.482958e+003;1.146695e-001
3.484886e+003;1.137203e-001
3.486815e+003;1.128096e-001
3.488743e+003;1.119250e-001
3.490672e+003;1.107645e-001
3.492600e+003;1.094264e-001
3.494529e+003;1.080859e-001
3.496458e+003;1.070151e-001
3.498386e+003;1.060129e-001
3.500315e+003;1.047434e-001
3.502243e+003;1.035930e-001
3.504172e+003;1.025443e-001
3.506100e+003;1.013366e-001
3.508029e+003;1.002928e-001
3.509957e+003;9.915297e-002
3.511886e+003;9.749701e-002
3.513814e+003;9.595791e-002
3.515743e+003;9.513472e-002
3.517672e+003;9.448916e-002
3.519600e+003;9.360660e-002
3.521529e+003;9.246349e-002
3.523457e+003;9.148083e-002
3.525386e+003;9.063986e-002
3.527314e+003;8.956254e-002
3.529243e+003;8.850175e-002
3.531171e+003;8.767508e-002
3.533100e+003;8.693729e-002
3.535029e+003;8.612110e-002
3.536957e+003;8.544800e-002
3.538885e+003;8.462841e-002
3.540814e+003;8.359200e-002
3.542743e+003;8.264554e-002
3.544671e+003;8.193920e-002
3.546600e+003;8.122797e-002
3.548528e+003;8.045305e-002
3.550457e+003;7.984535e-002
3.552385e+003;7.926597e-002
3.554314e+003;7.854076e-002
3.556242e+003;7.770785e-002
3.558171e+003;7.724012e-002
3.560100e+003;7.681283e-002
3.562028e+003;7.586847e-002
3.563957e+003;7.493957e-002
3.565885e+003;7.439568e-002
3.567814e+003;7.371632e-002
3.569742e+003;7.296072e-002
3.571671e+003;7.232133e-002
3.573599e+003;7.145611e-002
3.575528e+003;7.077669e-002
3.577457e+003;7.035590e-002
3.579385e+003;6.955330e-002
3.581314e+003;6.907003e-002
3.583242e+003;6.884004e-002
3.585171e+003;6.844211e-002
3.587099e+003;6.790207e-002
3.589028e+003;6.757924e-002
3.590956e+003;6.694176e-002
3.592885e+003;6.624994e-002
3.594813e+003;6.596305e-002
3.596742e+003;6.536564e-002
3.598671e+003;6.442007e-002
3.600599e+003;6.398758e-002
3.602528e+003;6.392054e-002
3.604456e+003;6.353055e-002
3.606385e+003;6.295627e-002
3.608313e+003;6.255291e-002
3.610242e+003;6.176237e-002
3.612170e+003;6.110720e-002
3.614099e+003;6.106403e-002
3.616028e+003;6.077120e-002
3.617956e+003;6.051727e-002
3.619885e+003;6.024438e-002
3.621813e+003;5.990365e-002
3.623742e+003;5.955794e-002
3.625670e+003;5.910364e-002
3.627599e+003;5.863170e-002
3.629527e+003;5.838655e-002
3.631456e+003;5.829810e-002
3.633385e+003;5.776215e-002
3.635313e+003;5.715996e-002
3.637241e+003;5.719288e-002
3.639170e+003;5.728410e-002
3.641099e+003;5.698901e-002
3.643027e+003;5.664965e-002
3.644956e+003;5.613447e-002
3.646884e+003;5.561640e-002
3.648813e+003;5.525098e-002
3.650741e+003;5.503249e-002
3.652670e+003;5.513427e-002
3.654598e+003;5.492155e-002
3.656527e+003;5.424376e-002
3.658456e+003;5.364275e-002
3.660384e+003;5.359282e-002
3.662313e+003;5.341611e-002
3.664241e+003;5.347982e-002
3.666170e+003;5.373334e-002
3.668098e+003;5.302726e-002
3.670027e+003;5.221867e-002
3.671955e+003;5.277636e-002
3.673884e+003;5.303262e-002
3.675813e+003;5.229528e-002
3.677741e+003;5.193899e-002
3.679669e+003;5.210322e-002
3.681598e+003;5.209418e-002
3.683527e+003;5.179692e-002
3.685455e+003;5.168804e-002
3.687384e+003;5.125968e-002
3.689312e+003;5.102846e-002
3.691241e+003;5.097279e-002
3.693169e+003;5.111470e-002
3.695098e+003;5.171569e-002
3.697026e+003;5.185658e-002
3.698955e+003;5.128646e-002
3.700884e+003;5.089753e-002
3.702812e+003;5.107956e-002
3.704741e+003;5.113696e-002
3.706669e+003;5.080035e-002
3.708598e+003;5.019029e-002
3.710526e+003;4.963286e-002
3.712455e+003;4.927748e-002
3.714383e+003;4.945222e-002
3.716312e+003;5.000038e-002
3.718240e+003;5.038534e-002
3.720169e+003;5.020766e-002
3.722098e+003;5.015016e-002
3.724026e+003;5.033782e-002
3.725955e+003;5.036018e-002
3.727883e+003;5.009899e-002
3.729812e+003;4.983513e-002
3.731740e+003;4.996626e-002
3.733669e+003;5.002332e-002
3.735597e+003;4.961113e-002
3.737526e+003;4.975445e-002
3.739455e+003;4.992038e-002
3.741383e+003;4.964865e-002
3.743312e+003;4.941776e-002
3.745240e+003;4.953180e-002
3.747169e+003;4.986742e-002
3.749097e+003;4.971529e-002
3.751026e+003;4.950157e-002
3.752954e+003;4.998373e-002
3.754883e+003;5.039378e-002
3.756812e+003;5.017861e-002
3.758740e+003;4.974553e-002
3.760668e+003;4.959549e-002
3.762597e+003;4.989938e-002
3.764526e+003;5.007132e-002
3.766454e+003;5.000142e-002
3.768383e+003;4.981695e-002
3.770311e+003;4.988351e-002
3.772240e+003;5.015031e-002
3.774168e+003;5.040707e-002
3.776097e+003;5.047152e-002
3.778025e+003;5.015135e-002
3.779954e+003;4.970567e-002
3.781883e+003;4.956626e-002
3.783811e+003;4.978864e-002
3.785740e+003;4.969482e-002
3.787668e+003;4.944465e-002
3.789597e+003;4.966748e-002
3.791525e+003;5.000566e-002
3.793454e+003;4.982435e-002
3.795382e+003;4.973030e-002
3.797311e+003;4.992934e-002
3.799240e+003;5.004336e-002
3.801168e+003;4.956214e-002
3.803097e+003;4.939274e-002
3.805025e+003;4.974839e-002
3.806954e+003;4.971139e-002
3.808882e+003;4.994670e-002
3.810811e+003;4.997410e-002
3.812739e+003;4.969939e-002
3.814668e+003;4.964816e-002
3.816596e+003;4.942070e-002
3.818525e+003;4.910990e-002
3.820454e+003;4.932837e-002
3.822382e+003;4.971076e-002
3.824311e+003;4.961562e-002
3.826239e+003;4.960381e-002
3.828168e+003;4.999321e-002
3.830096e+003;5.020754e-002
3.832025e+003;4.995050e-002
3.833953e+003;4.990325e-002
3.835882e+003;5.007322e-002
3.837811e+003;4.982379e-002
3.839739e+003;4.971325e-002
3.841667e+003;4.967067e-002
3.843596e+003;4.923770e-002
3.845525e+003;4.939148e-002
3.847453e+003;4.969783e-002
3.849382e+003;4.990682e-002
3.851310e+003;4.971028e-002
3.853239e+003;4.921005e-002
3.855167e+003;4.921911e-002
3.857096e+003;5.015380e-002
3.859024e+003;5.084848e-002
3.860953e+003;5.077726e-002
3.862882e+003;5.014395e-002
3.864810e+003;4.947940e-002
3.866739e+003;4.982620e-002
3.868667e+003;5.005544e-002
3.870596e+003;5.026825e-002
3.872524e+003;5.032859e-002
3.874453e+003;4.998079e-002
3.876381e+003;5.024273e-002
3.878310e+003;5.072981e-002
3.880239e+003;5.082210e-002
3.882167e+003;5.097589e-002
3.884096e+003;5.089411e-002
3.886024e+003;5.048057e-002
3.887953e+003;5.022871e-002
3.889881e+003;5.058773e-002
3.891810e+003;5.109145e-002
3.893738e+003;5.137614e-002
3.895667e+003;5.133706e-002
3.897595e+003;5.107252e-002
3.899524e+003;5.108250e-002
3.901453e+003;5.127228e-002
3.903381e+003;5.118184e-002
3.905310e+003;5.107386e-002
3.907238e+003;5.118031e-002
3.909167e+003;5.147946e-002
3.911095e+003;5.192491e-002
3.913024e+003;5.202780e-002
3.914952e+003;5.166191e-002
3.916881e+003;5.178550e-002
3.918810e+003;5.221205e-002
3.920738e+003;5.203598e-002
3.922667e+003;5.181118e-002
3.924595e+003;5.165684e-002
3.926524e+003;5.142123e-002
3.928452e+003;5.143026e-002
3.930381e+003;5.153213e-002
3.932309e+003;5.220955e-002
3.934238e+003;5.253222e-002
3.936167e+003;5.243134e-002
3.938095e+003;5.221052e-002
3.940023e+003;5.191378e-002
3.941952e+003;5.208275e-002
3.943881e+003;5.246462e-002
3.945809e+003;5.254729e-002
3.947738e+003;5.215720e-002
3.949666e+003;5.156844e-002
3.951595e+003;5.165755e-002
3.953523e+003;5.178624e-002
3.955452e+003;5.168311e-002
3.957380e+003;5.176239e-002
3.959309e+003;5.211924e-002
3.961238e+003;5.253787e-002
3.963166e+003;5.252893e-002
3.965095e+003;5.242128e-002
3.967023e+003;5.235044e-002
3.968952e+003;5.204061e-002
3.970880e+003;5.172536e-002
3.972809e+003;5.183772e-002
3.974737e+003;5.187853e-002
3.976666e+003;5.187315e-002
3.978594e+003;5.173510e-002
3.980523e+003;5.166635e-002
3.982452e+003;5.163284e-002
3.984380e+003;5.140952e-002
3.986309e+003;5.114150e-002
3.988237e+003;5.118046e-002
3.990166e+003;5.098934e-002
3.992094e+003;5.127967e-002
3.994023e+003;5.189982e-002
3.995951e+003;5.183705e-002
3.997880e+003;5.121088e-002
3.999809e+003;5.153904e-002
4.001737e+003;0.000000e+000
