3.992094e+002;0.000000e+000
4.011380e+002;0.000000e+000
4.030665e+002;0.000000e+000
4.049951e+002;0.000000e+000
4.069236e+002;0.000000e+000
4.088522e+002;0.000000e+000
4.107807e+002;0.000000e+000
4.127093e+002;0.000000e+000
4.146378e+002;0.000000e+000
4.165664e+002;0.000000e+000
4.184949e+002;0.000000e+000
4.204235e+002;0.000000e+000
4.223520e+002;0.000000e+000
4.242806e+002;0.000000e+000
4.262091e+002;0.000000e+000
4.281377e+002;0.000000e+000
4.300662e+002;0.000000e+000
4.319948e+002;0.000000e+000
4.339233e+002;0.000000e+000
4.358519e+002;0.000000e+000
4.377804e+002;0.000000e+000
4.397090e+002;0.000000e+000
4.416375e+002;0.000000e+000
4.435660e+002;0.000000e+000
4.454946e+002;0.000000e+000
4.474232e+002;0.000000e+000
4.493517e+002;0.000000e+000
4.512802e+002;0.000000e+000
4.532088e+002;0.000000e+000
4.551373e+002;0.000000e+000
4.570659e+002;0.000000e+000
4.589944e+002;0.000000e+000
4.609230e+002;0.000000e+000
4.628515e+002;0.000000e+000
4.647801e+002;0.000000e+000
4.667086e+002;0.000000e+000
4.686372e+002;0.000000e+000
4.705657e+002;0.000000e+000
4.724943e+002;0.000000e+000
4.744228e+002;0.000000e+000
4.763513e+002;0.000000e+000
4.782799e+002;0.000000e+000
4.802085e+002;0.000000e+000
4.821370e+002;0.000000e+000
4.840656e+002;0.000000e+000
4.859941e+002;0.000000e+000
4.879226e+002;0.000000e+000
4.898512e+002;0.000000e+000
4.917798e+002;0.000000e+000
4.937083e+002;0.000000e+000
4.956368e+002;0.000000e+000
4.975654e+002;0.000000e+000
4.994939e+002;0.000000e+000
5.014225e+002;0.000000e+000
5.033510e+002;0.000000e+000
5.052796e+002;0.000000e+000
5.072081e+002;0.000000e+000
5.091367e+002;0.000000e+000
5.110652e+002;0.000000e+000
5.129938e+002;0.000000e+000
5.149223e+002;0.000000e+000
5.168509e+002;0.000000e+000
5.187794e+002;0.000000e+000
5.207079e+002;0.000000e+000
5.226365e+002;0.000000e+000
5.245651e+002;0.000000e+000
5.264936e+002;0.000000e+000
5.284222e+002;0.000000e+000
5.303507e+002;0.000000e+000
5.322792e+002;0.000000e+000
5.342078e+002;0.000000e+000
5.361364e+002;0.000000e+000
5.380649e+002;0.000000e+000
5.399935e+002;0.000000e+000
5.419220e+002;0.000000e+000
5.438505e+002;0.000000e+000
5.457791e+002;0.000000e+000
5.477076e+002;0.000000e+000
5.496362e+002;0.000000e+000
5.515648e+002;0.000000e+000
5.534933e+002;0.000000e+000
5.554218e+002;0.000000e+000
5.573504e+002;0.000000e+000
5.592789e+002;0.000000e+000
5.612075e+002;0.000000e+000
5.631360e+002;0.000000e+000
5.650646e+002;0.000000e+000
5.669931e+002;0.000000e+000
5.689217e+002;0.000000e+000
5.708502e+002;0.000000e+000
5.727787e+002;0.000000e+000
5.747073e+002;0.000000e+000
5.766359e+002;0.000000e+000
5.785644e+002;0.000000e+000
5.804930e+002;0.000000e+000
5.824215e+002;0.000000e+000
5.843500e+002;0.000000e+000
5.862786e+002;0.000000e+000
5.882072e+002;0.000000e+000
5.901357e+002;0.000000e+000
5.920643e+002;0.000000e+000
5.939928e+002;0.000000e+000
5.959213e+002;0.000000e+000
5.978499e+002;0.000000e+000
5.997784e+002;2.729815e-001
6.017070e+002;2.703103e-001
6.036355e+002;2.720516e-001
6.055641e+002;2.786792e-001
6.074926e+002;2.799497e-001
6.094211e+002;2.755301e-001
6.113497e+002;2.718759e-001
6.132783e+002;2.685183e-001
6.152068e+002;2.698192e-001
6.171354e+002;2.682818e-001
6.190639e+002;2.660558e-001
6.209924e+002;2.657577e-001
6.229210e+002;2.659744e-001
6.248495e+002;2.614063e-001
6.267781e+002;2.561692e-001
6.287067e+002;2.552626e-001
6.306352e+002;2.541792e-001
6.325637e+002;2.553343e-001
6.344923e+002;2.563498e-001
6.364208e+002;2.487048e-001
6.383494e+002;2.416815e-001
6.402780e+002;2.436595e-001
6.422065e+002;2.455273e-001
6.441350e+002;2.429582e-001
6.460636e+002;2.425420e-001
6.479921e+002;2.450512e-001
6.499207e+002;2.451112e-001
6.518492e+002;2.424186e-001
6.537778e+002;2.432914e-001
6.557063e+002;2.477717e-001
6.576349e+002;2.509282e-001
6.595634e+002;2.506795e-001
6.614919e+002;2.504895e-001
6.634205e+002;2.507460e-001
6.653491e+002;2.502275e-001
6.672776e+002;2.491347e-001
6.692062e+002;2.445571e-001
6.711347e+002;2.378168e-001
6.730632e+002;2.326952e-001
6.749918e+002;2.269794e-001
6.769203e+002;2.203340e-001
6.788489e+002;2.132177e-001
6.807775e+002;2.075259e-001
6.827060e+002;2.035455e-001
6.846345e+002;1.996014e-001
6.865631e+002;1.971616e-001
6.884916e+002;1.966804e-001
6.904202e+002;1.956308e-001
6.923488e+002;1.943645e-001
6.942773e+002;1.935392e-001
6.962058e+002;1.919569e-001
6.981344e+002;1.900732e-001
7.000629e+002;1.895620e-001
7.019915e+002;1.893996e-001
7.039200e+002;1.890097e-001
7.058486e+002;1.887411e-001
7.077771e+002;1.875838e-001
7.097057e+002;1.859346e-001
7.116342e+002;1.842253e-001
7.135627e+002;1.832547e-001
7.154913e+002;1.826198e-001
7.174199e+002;1.817206e-001
7.193484e+002;1.801321e-001
7.212770e+002;1.790307e-001
7.232055e+002;1.782615e-001
7.251340e+002;1.768650e-001
7.270626e+002;1.746351e-001
7.289911e+002;1.733382e-001
7.309197e+002;1.726948e-001
7.328483e+002;1.720467e-001
7.347768e+002;1.701261e-001
7.367053e+002;1.669854e-001
7.386339e+002;1.654383e-001
7.405624e+002;1.655595e-001
7.424910e+002;1.655487e-001
7.444196e+002;1.646723e-001
7.463481e+002;1.630833e-001
7.482766e+002;1.613548e-001
7.502052e+002;1.596601e-001
7.521337e+002;1.583901e-001
7.540623e+002;1.568377e-001
7.559908e+002;1.560741e-001
7.579194e+002;1.556426e-001
7.598479e+002;1.549022e-001
7.617765e+002;1.538170e-001
7.637050e+002;1.527302e-001
7.656335e+002;1.510222e-001
7.675621e+002;1.494580e-001
7.694907e+002;1.485025e-001
7.714192e+002;1.482221e-001
7.733478e+002;1.475765e-001
7.752763e+002;1.459083e-001
7.772048e+002;1.445983e-001
7.791334e+002;1.445502e-001
7.810620e+002;1.448378e-001
7.829905e+002;1.443609e-001
7.849191e+002;1.435548e-001
7.868476e+002;1.429223e-001
7.887761e+002;1.430652e-001
7.907047e+002;1.435383e-001
7.926332e+002;1.431077e-001
7.945618e+002;1.429955e-001
7.964903e+002;1.435579e-001
7.984189e+002;1.432710e-001
8.003474e+002;1.422214e-001
8.022759e+002;1.411538e-001
8.042045e+002;1.411685e-001
8.061331e+002;1.409728e-001
8.080616e+002;1.402171e-001
8.099902e+002;1.401011e-001
8.119187e+002;1.397512e-001
8.138472e+002;1.386135e-001
8.157758e+002;1.382198e-001
8.177043e+002;1.377901e-001
8.196329e+002;1.378705e-001
8.215615e+002;1.381215e-001
8.234900e+002;1.374716e-001
8.254185e+002;1.360304e-001
8.273471e+002;1.349076e-001
8.292756e+002;1.341695e-001
8.312042e+002;1.336175e-001
8.331328e+002;1.328175e-001
8.350613e+002;1.323486e-001
8.369898e+002;1.317711e-001
8.389184e+002;1.306464e-001
8.408469e+002;1.296901e-001
8.427755e+002;1.292623e-001
8.447040e+002;1.288406e-001
8.466326e+002;1.281565e-001
8.485611e+002;1.281271e-001
8.504897e+002;1.281011e-001
8.524182e+002;1.278777e-001
8.543467e+002;1.279117e-001
8.562753e+002;1.286967e-001
8.582039e+002;1.293624e-001
8.601324e+002;1.294837e-001
8.620610e+002;1.305442e-001
8.639895e+002;1.327261e-001
8.659180e+002;1.342481e-001
8.678466e+002;1.356183e-001
8.697751e+002;1.373904e-001
8.717037e+002;1.399483e-001
8.736323e+002;1.436202e-001
8.755608e+002;1.481096e-001
8.774893e+002;1.527319e-001
8.794179e+002;1.574439e-001
8.813464e+002;1.624577e-001
8.832750e+002;1.678515e-001
8.852036e+002;1.733440e-001
8.871321e+002;1.788722e-001
8.890606e+002;1.842427e-001
8.909892e+002;1.884854e-001
8.929177e+002;1.911911e-001
8.948463e+002;1.925319e-001
8.967748e+002;1.926540e-001
8.987034e+002;1.917951e-001
9.006319e+002;1.897123e-001
9.025605e+002;1.865333e-001
9.044890e+002;1.827172e-001
9.064175e+002;1.786683e-001
9.083461e+002;1.748087e-001
9.102747e+002;1.713126e-001
9.122032e+002;1.685510e-001
9.141318e+002;1.668135e-001
9.160603e+002;1.654647e-001
9.179888e+002;1.652117e-001
9.199174e+002;1.663189e-001
9.218459e+002;1.673118e-001
9.237745e+002;1.683958e-001
9.257031e+002;1.701543e-001
9.276316e+002;1.718409e-001
9.295601e+002;1.732632e-001
9.314887e+002;1.749675e-001
9.334172e+002;1.767258e-001
9.353458e+002;1.786795e-001
9.372744e+002;1.807813e-001
9.392029e+002;1.832363e-001
9.411314e+002;1.862870e-001
9.430600e+002;1.897109e-001
9.449885e+002;1.934018e-001
9.469171e+002;1.976093e-001
9.488456e+002;2.029059e-001
9.507742e+002;2.082733e-001
9.527027e+002;2.138898e-001
9.546313e+002;2.201363e-001
9.565598e+002;2.264430e-001
9.584883e+002;2.327742e-001
9.604169e+002;2.396992e-001
9.623455e+002;2.467857e-001
9.642740e+002;2.535293e-001
9.662026e+002;2.606326e-001
9.681311e+002;2.680715e-001
9.700596e+002;2.758626e-001
9.719882e+002;2.851374e-001
9.739167e+002;2.960487e-001
9.758453e+002;3.080381e-001
9.777739e+002;3.217014e-001
9.797024e+002;3.369762e-001
9.816309e+002;3.534309e-001
9.835595e+002;3.709746e-001
9.854880e+002;3.885383e-001
9.874166e+002;4.052697e-001
9.893452e+002;4.192052e-001
9.912737e+002;4.294351e-001
9.932022e+002;4.363846e-001
9.951307e+002;4.410803e-001
9.970593e+002;4.437412e-001
9.989879e+002;4.448134e-001
1.000916e+003;4.458841e-001
1.002845e+003;4.492396e-001
1.004773e+003;4.545827e-001
1.006702e+003;4.611706e-001
1.008631e+003;4.689795e-001
1.010559e+003;4.782345e-001
1.012488e+003;4.875148e-001
1.014416e+003;4.944925e-001
1.016345e+003;4.997254e-001
1.018273e+003;5.037174e-001
1.020202e+003;5.051908e-001
1.022130e+003;5.036882e-001
1.024059e+003;5.005012e-001
1.025988e+003;4.957244e-001
1.027916e+003;4.898105e-001
1.029845e+003;4.831013e-001
1.031773e+003;4.764617e-001
1.033702e+003;4.709090e-001
1.035630e+003;4.657522e-001
1.037559e+003;4.612375e-001
1.039487e+003;4.570670e-001
1.041416e+003;4.538193e-001
1.043344e+003;4.507250e-001
1.045273e+003;4.469866e-001
1.047202e+003;4.434609e-001
1.049130e+003;4.400221e-001
1.051059e+003;4.360923e-001
1.052987e+003;4.322536e-001
1.054916e+003;4.282828e-001
1.056844e+003;4.231153e-001
1.058773e+003;4.173359e-001
1.060701e+003;4.108145e-001
1.062630e+003;4.026262e-001
1.064558e+003;3.943398e-001
1.066487e+003;3.870459e-001
1.068416e+003;3.791085e-001
1.070344e+003;3.706750e-001
1.072273e+003;3.622950e-001
1.074201e+003;3.541950e-001
1.076130e+003;3.466802e-001
1.078058e+003;3.389663e-001
1.079987e+003;3.313837e-001
1.081915e+003;3.248197e-001
1.083844e+003;3.194561e-001
1.085773e+003;3.142575e-001
1.087701e+003;3.094696e-001
1.089630e+003;3.044644e-001
1.091558e+003;3.002376e-001
1.093487e+003;2.957051e-001
1.095415e+003;2.897598e-001
1.097344e+003;2.829260e-001
1.099272e+003;2.760979e-001
1.101201e+003;2.699105e-001
1.103129e+003;2.646000e-001
1.105058e+003;2.597841e-001
1.106987e+003;2.548229e-001
1.108915e+003;2.499788e-001
1.110844e+003;2.453388e-001
1.112772e+003;2.407362e-001
1.114701e+003;2.357145e-001
1.116629e+003;2.300587e-001
1.118558e+003;2.238925e-001
1.120486e+003;2.176830e-001
1.122415e+003;2.114552e-001
1.124344e+003;2.054098e-001
1.126272e+003;1.998785e-001
1.128201e+003;1.942522e-001
1.130129e+003;1.885628e-001
1.132058e+003;1.835191e-001
1.133986e+003;1.791653e-001
1.135915e+003;1.750643e-001
1.137843e+003;1.720541e-001
1.139772e+003;1.698641e-001
1.141700e+003;1.681112e-001
1.143629e+003;1.673735e-001
1.145557e+003;1.674783e-001
1.147486e+003;1.680953e-001
1.149415e+003;1.693212e-001
1.151343e+003;1.710526e-001
1.153272e+003;1.719532e-001
1.155200e+003;1.715185e-001
1.157129e+003;1.706917e-001
1.159057e+003;1.683619e-001
1.160986e+003;1.640710e-001
1.162914e+003;1.583621e-001
1.164843e+003;1.518180e-001
1.166771e+003;1.451167e-001
1.168700e+003;1.384502e-001
1.170629e+003;1.320490e-001
1.172557e+003;1.263113e-001
1.174486e+003;1.214939e-001
1.176414e+003;1.171303e-001
1.178343e+003;1.132847e-001
1.180271e+003;1.101347e-001
1.182200e+003;1.078895e-001
1.184128e+003;1.065237e-001
1.186057e+003;1.063086e-001
1.187986e+003;1.076676e-001
1.189914e+003;1.097418e-001
1.191843e+003;1.123460e-001
1.193771e+003;1.151927e-001
1.195700e+003;1.176589e-001
1.197628e+003;1.195642e-001
1.199557e+003;1.203267e-001
1.201485e+003;1.194724e-001
1.203414e+003;1.175731e-001
1.205343e+003;1.151526e-001
1.207271e+003;1.129883e-001
1.209200e+003;1.113697e-001
1.211128e+003;1.100214e-001
1.213057e+003;1.095933e-001
1.214985e+003;1.102272e-001
1.216914e+003;1.113226e-001
1.218842e+003;1.130659e-001
1.220771e+003;1.152501e-001
1.222699e+003;1.175214e-001
1.224628e+003;1.196129e-001
1.226557e+003;1.215519e-001
1.228485e+003;1.230132e-001
1.230414e+003;1.237146e-001
1.232342e+003;1.241682e-001
1.234271e+003;1.244700e-001
1.236199e+003;1.248082e-001
1.238128e+003;1.251623e-001
1.240056e+003;1.252007e-001
1.241985e+003;1.253391e-001
1.243913e+003;1.256539e-001
1.245842e+003;1.258172e-001
1.247771e+003;1.263126e-001
1.249699e+003;1.271849e-001
1.251628e+003;1.284041e-001
1.253556e+003;1.301640e-001
1.255485e+003;1.321183e-001
1.257413e+003;1.339277e-001
1.259342e+003;1.348962e-001
1.261270e+003;1.348712e-001
1.263199e+003;1.339097e-001
1.265127e+003;1.321971e-001
1.267056e+003;1.301551e-001
1.268985e+003;1.283346e-001
1.270913e+003;1.267164e-001
1.272842e+003;1.251602e-001
1.274770e+003;1.237648e-001
1.276699e+003;1.226939e-001
1.278627e+003;1.218809e-001
1.280556e+003;1.211103e-001
1.282484e+003;1.203906e-001
1.284413e+003;1.204876e-001
1.286342e+003;1.211194e-001
1.288270e+003;1.221229e-001
1.290199e+003;1.236519e-001
1.292127e+003;1.254622e-001
1.294056e+003;1.270930e-001
1.295984e+003;1.285797e-001
1.297913e+003;1.302373e-001
1.299841e+003;1.319611e-001
1.301770e+003;1.335501e-001
1.303698e+003;1.350054e-001
1.305627e+003;1.363558e-001
1.307556e+003;1.378553e-001
1.309484e+003;1.396258e-001
1.311413e+003;1.407747e-001
1.313341e+003;1.411993e-001
1.315270e+003;1.416070e-001
1.317198e+003;1.417770e-001
1.319127e+003;1.414658e-001
1.321055e+003;1.411068e-001
1.322984e+003;1.408430e-001
1.324912e+003;1.407042e-001
1.326841e+003;1.408400e-001
1.328770e+003;1.408539e-001
1.330698e+003;1.408260e-001
1.332627e+003;1.412264e-001
1.334555e+003;1.413871e-001
1.336484e+003;1.410483e-001
1.338412e+003;1.403673e-001
1.340341e+003;1.398469e-001
1.342269e+003;1.395456e-001
1.344198e+003;1.390162e-001
1.346126e+003;1.388625e-001
1.348055e+003;1.392910e-001
1.349984e+003;1.396762e-001
1.351912e+003;1.397849e-001
1.353841e+003;1.403326e-001
1.355769e+003;1.411338e-001
1.357698e+003;1.417809e-001
1.359626e+003;1.425934e-001
1.361555e+003;1.433138e-001
1.363483e+003;1.434945e-001
1.365412e+003;1.434003e-001
1.367341e+003;1.431237e-001
1.369269e+003;1.423254e-001
1.371198e+003;1.412508e-001
1.373126e+003;1.397628e-001
1.375055e+003;1.381359e-001
1.376983e+003;1.365004e-001
1.378912e+003;1.346078e-001
1.380840e+003;1.324110e-001
1.382769e+003;1.301595e-001
1.384698e+003;1.279637e-001
1.386626e+003;1.262424e-001
1.388555e+003;1.252457e-001
1.390483e+003;1.248014e-001
1.392412e+003;1.244691e-001
1.394340e+003;1.239974e-001
1.396269e+003;1.236235e-001
1.398197e+003;1.236005e-001
1.400126e+003;1.236036e-001
1.402054e+003;1.235842e-001
1.403983e+003;1.237182e-001
1.405911e+003;1.239041e-001
1.407840e+003;1.239750e-001
1.409769e+003;1.241479e-001
1.411697e+003;1.243029e-001
1.413626e+003;1.241602e-001
1.415554e+003;1.241386e-001
1.417483e+003;1.240188e-001
1.419411e+003;1.234886e-001
1.421340e+003;1.232894e-001
1.423268e+003;1.231625e-001
1.425197e+003;1.224417e-001
1.427125e+003;1.215744e-001
1.429054e+003;1.207784e-001
1.430983e+003;1.200770e-001
1.432911e+003;1.194279e-001
1.434840e+003;1.188715e-001
1.436768e+003;1.178908e-001
1.438697e+003;1.171150e-001
1.440625e+003;1.166624e-001
1.442554e+003;1.155190e-001
1.444482e+003;1.141695e-001
1.446411e+003;1.128889e-001
1.448340e+003;1.115549e-001
1.450268e+003;1.106047e-001
1.452197e+003;1.096404e-001
1.454125e+003;1.084046e-001
1.456054e+003;1.069979e-001
1.457982e+003;1.057793e-001
1.459911e+003;1.050686e-001
1.461839e+003;1.043469e-001
1.463768e+003;1.029494e-001
1.465697e+003;1.011736e-001
1.467625e+003;9.920897e-002
1.469554e+003;9.712104e-002
1.471482e+003;9.483639e-002
1.473411e+003;9.229556e-002
1.475339e+003;8.980837e-002
1.477268e+003;8.747487e-002
1.479196e+003;8.514343e-002
1.481125e+003;8.292694e-002
1.483053e+003;8.091033e-002
1.484982e+003;7.881741e-002
1.486911e+003;7.688259e-002
1.488839e+003;7.536337e-002
1.490768e+003;7.404524e-002
1.492696e+003;7.275080e-002
1.494625e+003;7.178684e-002
1.496553e+003;7.076499e-002
1.498482e+003;6.971332e-002
1.500410e+003;6.886159e-002
1.502339e+003;6.814784e-002
1.504267e+003;6.735596e-002
1.506196e+003;6.627642e-002
1.508125e+003;6.524502e-002
1.510053e+003;6.439470e-002
1.511982e+003;6.356146e-002
1.513910e+003;6.300335e-002
1.515839e+003;6.250197e-002
1.517767e+003;6.194068e-002
1.519696e+003;6.125906e-002
1.521624e+003;6.074312e-002
1.523553e+003;6.063563e-002
1.525481e+003;6.041913e-002
1.527410e+003;6.016308e-002
1.529339e+003;6.020913e-002
1.531267e+003;6.038954e-002
1.533196e+003;6.045634e-002
1.535124e+003;6.053575e-002
1.537053e+003;6.072532e-002
1.538981e+003;6.103474e-002
1.540910e+003;6.134775e-002
1.542838e+003;6.164703e-002
1.544767e+003;6.193628e-002
1.546695e+003;6.213282e-002
1.548624e+003;6.204524e-002
1.550553e+003;6.205671e-002
1.552481e+003;6.238797e-002
1.554410e+003;6.290905e-002
1.556338e+003;6.322586e-002
1.558267e+003;6.329163e-002
1.560195e+003;6.337509e-002
1.562124e+003;6.368192e-002
1.564052e+003;6.418673e-002
1.565981e+003;6.457659e-002
1.567910e+003;6.495110e-002
1.569838e+003;6.548513e-002
1.571767e+003;6.607380e-002
1.573695e+003;6.652714e-002
1.575624e+003;6.664795e-002
1.577552e+003;6.689622e-002
1.579481e+003;6.749230e-002
1.581409e+003;6.793965e-002
1.583338e+003;6.839665e-002
1.585266e+003;6.876954e-002
1.587195e+003;6.921060e-002
1.589124e+003;6.993108e-002
1.591052e+003;7.046583e-002
1.592981e+003;7.078008e-002
1.594909e+003;7.130939e-002
1.596838e+003;7.198749e-002
1.598766e+003;7.241668e-002
1.600695e+003;7.253135e-002
1.602623e+003;7.265048e-002
1.604552e+003;7.291208e-002
1.606480e+003;7.339546e-002
1.608409e+003;7.406253e-002
1.610338e+003;7.476364e-002
1.612266e+003;7.509107e-002
1.614195e+003;7.547548e-002
1.616123e+003;7.593298e-002
1.618052e+003;7.641673e-002
1.619980e+003;7.727610e-002
1.621909e+003;7.822377e-002
1.623837e+003;7.903561e-002
1.625766e+003;7.969851e-002
1.627694e+003;8.025093e-002
1.629623e+003;8.068221e-002
1.631552e+003;8.102676e-002
1.633480e+003;8.130052e-002
1.635409e+003;8.140981e-002
1.637337e+003;8.179457e-002
1.639266e+003;8.232582e-002
1.641194e+003;8.264273e-002
1.643123e+003;8.278996e-002
1.645051e+003;8.271464e-002
1.646980e+003;8.234148e-002
1.648909e+003;8.150398e-002
1.650837e+003;8.030760e-002
1.652766e+003;7.907934e-002
1.654694e+003;7.808030e-002
1.656623e+003;7.712459e-002
1.658551e+003;7.620122e-002
1.660480e+003;7.524972e-002
1.662408e+003;7.416695e-002
1.664337e+003;7.306672e-002
1.666266e+003;7.192105e-002
1.668194e+003;7.084096e-002
1.670123e+003;6.981787e-002
1.672051e+003;6.863862e-002
1.673980e+003;6.726601e-002
1.675908e+003;6.576046e-002
1.677837e+003;6.461239e-002
1.679765e+003;6.359191e-002
1.681694e+003;6.238399e-002
1.683622e+003;6.109523e-002
1.685551e+003;6.002142e-002
1.687479e+003;5.896631e-002
1.689408e+003;5.774380e-002
1.691337e+003;5.660801e-002
1.693265e+003;5.564616e-002
1.695194e+003;5.466455e-002
1.697122e+003;5.353082e-002
1.699051e+003;5.246207e-002
1.700979e+003;5.159736e-002
1.702908e+003;5.100376e-002
1.704836e+003;5.048075e-002
1.706765e+003;4.990459e-002
1.708693e+003;4.926245e-002
1.710622e+003;4.855845e-002
1.712551e+003;4.789950e-002
1.714479e+003;4.742590e-002
1.716408e+003;4.691859e-002
1.718336e+003;4.646618e-002
1.720265e+003;4.618539e-002
1.722193e+003;4.588541e-002
1.724122e+003;4.570036e-002
1.726050e+003;4.568666e-002
1.727979e+003;4.556124e-002
1.729908e+003;4.535183e-002
1.731836e+003;4.495194e-002
1.733765e+003;4.451259e-002
1.735693e+003;4.427698e-002
1.737622e+003;4.419249e-002
1.739550e+003;4.403551e-002
1.741479e+003;4.354514e-002
1.743407e+003;4.282233e-002
1.745336e+003;4.221676e-002
1.747265e+003;4.146403e-002
1.749193e+003;4.069784e-002
1.751122e+003;4.017557e-002
1.753050e+003;4.004976e-002
1.754979e+003;4.017466e-002
1.756907e+003;3.995802e-002
1.758836e+003;3.942583e-002
1.760764e+003;3.914505e-002
1.762693e+003;3.907511e-002
1.764621e+003;3.894614e-002
1.766550e+003;3.881384e-002
1.768479e+003;3.875308e-002
1.770407e+003;3.864989e-002
1.772336e+003;3.839875e-002
1.774264e+003;3.841482e-002
1.776193e+003;3.843357e-002
1.778121e+003;3.819497e-002
1.780050e+003;3.809600e-002
1.781978e+003;3.812823e-002
1.783907e+003;3.791243e-002
1.785835e+003;3.777202e-002
1.787764e+003;3.777296e-002
1.789693e+003;3.754707e-002
1.791621e+003;3.724289e-002
1.793550e+003;3.720210e-002
1.795478e+003;3.724556e-002
1.797407e+003;3.696923e-002
1.799335e+003;3.650108e-002
1.801264e+003;3.626562e-002
1.803192e+003;3.613723e-002
1.805121e+003;3.597328e-002
1.807049e+003;3.607717e-002
1.808978e+003;3.614490e-002
1.810907e+003;3.605867e-002
1.812835e+003;3.602475e-002
1.814764e+003;3.587405e-002
1.816692e+003;3.569760e-002
1.818621e+003;3.558894e-002
1.820549e+003;3.553756e-002
1.822478e+003;3.539971e-002
1.824406e+003;3.535636e-002
1.826335e+003;3.550544e-002
1.828264e+003;3.542390e-002
1.830192e+003;3.525608e-002
1.832121e+003;3.533033e-002
1.834049e+003;3.517208e-002
1.835978e+003;3.485842e-002
1.837906e+003;3.472585e-002
1.839835e+003;3.453455e-002
1.841763e+003;3.425846e-002
1.843692e+003;3.409711e-002
1.845620e+003;3.426904e-002
1.847549e+003;3.434036e-002
1.849478e+003;3.426057e-002
1.851406e+003;3.406661e-002
1.853335e+003;3.380429e-002
1.855263e+003;3.362578e-002
1.857192e+003;3.358587e-002
1.859120e+003;3.371913e-002
1.861049e+003;3.376174e-002
1.862977e+003;3.372536e-002
1.864906e+003;3.369678e-002
1.866834e+003;3.372167e-002
1.868763e+003;3.355093e-002
1.870692e+003;3.336594e-002
1.872620e+003;3.330702e-002
1.874549e+003;3.326767e-002
1.876477e+003;3.335671e-002
1.878406e+003;3.325153e-002
1.880334e+003;3.303432e-002
1.882263e+003;3.309349e-002
1.884191e+003;3.318962e-002
1.886120e+003;3.292679e-002
1.888048e+003;3.278519e-002
1.889977e+003;3.300303e-002
1.891906e+003;3.317481e-002
1.893834e+003;3.316369e-002
1.895763e+003;3.318354e-002
1.897691e+003;3.331163e-002
1.899620e+003;3.336838e-002
1.901548e+003;3.326055e-002
1.903477e+003;3.337517e-002
1.905405e+003;3.360835e-002
1.907334e+003;3.366832e-002
1.909262e+003;3.384526e-002
1.911191e+003;3.409819e-002
1.913120e+003;3.418428e-002
1.915048e+003;3.416077e-002
1.916977e+003;3.416837e-002
1.918905e+003;3.415891e-002
1.920834e+003;3.430224e-002
1.922762e+003;3.446111e-002
1.924691e+003;3.466889e-002
1.926619e+003;3.482550e-002
1.928548e+003;3.497824e-002
1.930477e+003;3.508962e-002
1.932405e+003;3.522996e-002
1.934334e+003;3.541880e-002
1.936262e+003;3.542315e-002
1.938191e+003;3.534450e-002
1.940119e+003;3.536502e-002
1.942048e+003;3.548157e-002
1.943976e+003;3.569199e-002
1.945905e+003;3.602432e-002
1.947833e+003;3.609402e-002
1.949762e+003;3.610590e-002
1.951691e+003;3.630845e-002
1.953619e+003;3.656296e-002
1.955548e+003;3.681174e-002
1.957476e+003;3.697720e-002
1.959405e+003;3.690699e-002
1.961333e+003;3.673821e-002
1.963262e+003;3.678966e-002
1.965190e+003;3.701775e-002
1.967119e+003;3.733994e-002
1.969047e+003;3.747158e-002
1.970976e+003;3.739220e-002
1.972905e+003;3.742553e-002
1.974833e+003;3.772619e-002
1.976762e+003;3.808298e-002
1.978690e+003;3.820275e-002
1.980619e+003;3.827125e-002
1.982547e+003;3.831514e-002
1.984476e+003;3.828717e-002
1.986404e+003;3.821734e-002
1.988333e+003;3.829586e-002
1.990261e+003;3.843980e-002
1.992190e+003;3.864696e-002
1.994119e+003;3.876080e-002
1.996047e+003;3.874540e-002
1.997976e+003;3.868560e-002
1.999904e+003;3.872631e-002
2.001833e+003;3.903948e-002
2.003761e+003;3.929048e-002
2.005690e+003;3.927695e-002
2.007618e+003;3.938098e-002
2.009547e+003;3.962684e-002
2.011476e+003;3.975416e-002
2.013404e+003;3.985813e-002
2.015333e+003;4.004601e-002
2.017261e+003;4.032683e-002
2.019190e+003;4.061342e-002
2.021118e+003;4.073423e-002
2.023047e+003;4.093039e-002
2.024975e+003;4.104600e-002
2.026904e+003;4.099273e-002
2.028833e+003;4.105653e-002
2.030761e+003;4.122638e-002
2.032690e+003;4.146950e-002
2.034618e+003;4.184598e-002
2.036547e+003;4.220408e-002
2.038475e+003;4.213332e-002
2.040404e+003;4.198859e-002
2.042332e+003;4.202454e-002
2.044261e+003;4.199822e-002
2.046189e+003;4.211007e-002
2.048118e+003;4.227446e-002
2.050047e+003;4.214712e-002
2.051975e+003;4.214464e-002
2.053904e+003;4.235540e-002
2.055832e+003;4.231445e-002
2.057761e+003;4.217641e-002
2.059689e+003;4.229261e-002
2.061618e+003;4.243452e-002
2.063546e+003;4.243251e-002
2.065475e+003;4.239335e-002
2.067404e+003;4.228771e-002
2.069332e+003;4.224455e-002
2.071260e+003;4.227617e-002
2.073189e+003;4.248655e-002
2.075118e+003;4.269407e-002
2.077046e+003;4.273527e-002
2.078975e+003;4.267206e-002
2.080903e+003;4.263741e-002
2.082832e+003;4.256979e-002
2.084760e+003;4.250870e-002
2.086689e+003;4.237238e-002
2.088617e+003;4.229217e-002
2.090546e+003;4.254253e-002
2.092475e+003;4.265024e-002
2.094403e+003;4.267583e-002
2.096332e+003;4.279326e-002
2.098260e+003;4.288194e-002
2.100189e+003;4.316093e-002
2.102117e+003;4.347607e-002
2.104046e+003;4.349042e-002
2.105974e+003;4.344395e-002
2.107903e+003;4.344226e-002
2.109832e+003;4.336588e-002
2.111760e+003;4.354558e-002
2.113688e+003;4.368413e-002
2.115617e+003;4.372418e-002
2.117546e+003;4.367856e-002
2.119474e+003;4.363460e-002
2.121403e+003;4.354218e-002
2.123331e+003;4.365984e-002
2.125260e+003;4.398121e-002
2.127188e+003;4.388046e-002
2.129117e+003;4.367974e-002
2.131045e+003;4.383427e-002
2.132974e+003;4.400232e-002
2.134903e+003;4.380972e-002
2.136831e+003;4.367277e-002
2.138760e+003;4.352778e-002
2.140688e+003;4.357657e-002
2.142617e+003;4.354917e-002
2.144545e+003;4.351452e-002
2.146474e+003;4.363409e-002
2.148402e+003;4.358565e-002
2.150331e+003;4.339411e-002
2.152260e+003;4.328410e-002
2.154188e+003;4.337467e-002
2.156117e+003;4.322681e-002
2.158045e+003;4.282954e-002
2.159974e+003;4.277776e-002
2.161902e+003;4.292217e-002
2.163831e+003;4.298728e-002
2.165759e+003;4.302496e-002
2.167688e+003;4.292002e-002
2.169616e+003;4.249430e-002
2.171545e+003;4.214884e-002
2.173474e+003;4.191560e-002
2.175402e+003;4.169827e-002
2.177331e+003;4.178531e-002
2.179259e+003;4.179198e-002
2.181188e+003;4.143108e-002
2.183116e+003;4.118409e-002
2.185045e+003;4.128527e-002
2.186973e+003;4.127346e-002
2.188902e+003;4.120263e-002
2.190831e+003;4.105118e-002
2.192759e+003;4.096764e-002
2.194688e+003;4.073878e-002
2.196616e+003;4.061262e-002
2.198545e+003;4.078700e-002
2.200473e+003;4.087145e-002
2.202402e+003;4.067728e-002
2.204330e+003;4.041435e-002
2.206259e+003;4.026106e-002
2.208188e+003;4.015336e-002
2.210116e+003;4.014747e-002
2.212044e+003;4.024579e-002
2.213973e+003;4.009529e-002
2.215902e+003;3.985726e-002
2.217830e+003;3.978583e-002
2.219759e+003;3.965998e-002
2.221687e+003;3.952010e-002
2.223616e+003;3.956561e-002
2.225544e+003;3.965523e-002
2.227473e+003;3.977893e-002
2.229401e+003;3.969044e-002
2.231330e+003;3.930375e-002
2.233259e+003;3.917631e-002
2.235187e+003;3.918617e-002
2.237116e+003;3.916260e-002
2.239044e+003;3.910492e-002
2.240973e+003;3.902063e-002
2.242901e+003;3.905992e-002
2.244830e+003;3.922527e-002
2.246758e+003;3.915698e-002
2.248687e+003;3.893875e-002
2.250615e+003;3.865072e-002
2.252544e+003;3.828569e-002
2.254473e+003;3.818871e-002
2.256401e+003;3.818083e-002
2.258330e+003;3.802731e-002
2.260258e+003;3.801075e-002
2.262187e+003;3.795495e-002
2.264115e+003;3.769171e-002
2.266044e+003;3.749910e-002
2.267972e+003;3.747490e-002
2.269901e+003;3.733041e-002
2.271830e+003;3.716654e-002
2.273758e+003;3.724935e-002
2.275687e+003;3.734922e-002
2.277615e+003;3.732720e-002
2.279544e+003;3.717503e-002
2.281472e+003;3.689848e-002
2.283401e+003;3.669487e-002
2.285329e+003;3.690115e-002
2.287258e+003;3.717243e-002
2.289187e+003;3.694419e-002
2.291115e+003;3.666022e-002
2.293043e+003;3.675804e-002
2.294972e+003;3.672403e-002
2.296901e+003;3.674722e-002
2.298829e+003;3.702432e-002
2.300758e+003;3.708292e-002
2.302686e+003;3.670298e-002
2.304615e+003;3.658354e-002
2.306543e+003;3.670767e-002
2.308472e+003;3.666184e-002
2.310400e+003;3.660877e-002
2.312329e+003;3.668041e-002
2.314258e+003;3.667017e-002
2.316186e+003;3.668336e-002
2.318115e+003;3.677369e-002
2.320043e+003;3.676669e-002
2.321972e+003;3.690191e-002
2.323900e+003;3.690837e-002
2.325829e+003;3.701963e-002
2.327757e+003;3.724766e-002
2.329686e+003;3.717019e-002
2.331615e+003;3.701209e-002
2.333543e+003;3.723780e-002
2.335472e+003;3.746114e-002
2.337400e+003;3.756640e-002
2.339329e+003;3.761793e-002
2.341257e+003;3.765521e-002
2.343186e+003;3.778044e-002
2.345114e+003;3.791055e-002
2.347043e+003;3.793806e-002
2.348971e+003;3.783922e-002
2.350900e+003;3.790165e-002
2.352829e+003;3.834272e-002
2.354757e+003;3.871356e-002
2.356686e+003;3.881076e-002
2.358614e+003;3.891371e-002
2.360543e+003;3.908117e-002
2.362471e+003;3.908632e-002
2.364400e+003;3.894955e-002
2.366328e+003;3.891353e-002
2.368257e+003;3.909567e-002
2.370186e+003;3.928311e-002
2.372114e+003;3.932958e-002
2.374042e+003;3.944005e-002
2.375971e+003;3.967175e-002
2.377900e+003;3.990422e-002
2.379828e+003;3.995730e-002
2.381757e+003;3.997321e-002
2.383685e+003;4.014482e-002
2.385614e+003;4.031312e-002
2.387542e+003;4.039719e-002
2.389471e+003;4.042799e-002
2.391399e+003;4.026880e-002
2.393328e+003;4.017204e-002
2.395257e+003;4.047774e-002
2.397185e+003;4.077375e-002
2.399114e+003;4.085354e-002
2.401042e+003;4.093938e-002
2.402971e+003;4.113429e-002
2.404899e+003;4.125859e-002
2.406828e+003;4.142579e-002
2.408756e+003;4.151514e-002
2.410685e+003;4.182139e-002
2.412614e+003;4.221898e-002
2.414542e+003;4.249302e-002
2.416471e+003;4.264944e-002
2.418399e+003;4.269977e-002
2.420328e+003;4.283191e-002
2.422256e+003;4.302657e-002
2.424185e+003;4.306195e-002
2.426113e+003;4.328867e-002
2.428042e+003;4.378124e-002
2.429970e+003;4.423350e-002
2.431899e+003;4.439183e-002
2.433828e+003;4.445092e-002
2.435756e+003;4.457761e-002
2.437685e+003;4.491913e-002
2.439613e+003;4.533575e-002
2.441542e+003;4.547182e-002
2.443470e+003;4.545166e-002
2.445399e+003;4.565468e-002
2.447327e+003;4.605842e-002
2.449256e+003;4.625490e-002
2.451185e+003;4.645818e-002
2.453113e+003;4.676775e-002
2.455042e+003;4.703661e-002
2.456970e+003;4.724085e-002
2.458899e+003;4.738805e-002
2.460827e+003;4.747380e-002
2.462756e+003;4.785911e-002
2.464684e+003;4.818033e-002
2.466613e+003;4.829926e-002
2.468542e+003;4.857202e-002
2.470470e+003;4.864035e-002
2.472398e+003;4.897184e-002
2.474327e+003;4.945162e-002
2.476256e+003;4.973773e-002
2.478184e+003;4.987942e-002
2.480113e+003;5.000678e-002
2.482041e+003;5.015109e-002
2.483970e+003;5.022135e-002
2.485898e+003;5.028492e-002
2.487827e+003;5.043133e-002
2.489755e+003;5.054332e-002
2.491684e+003;5.048567e-002
2.493613e+003;5.060809e-002
2.495541e+003;5.102221e-002
2.497470e+003;5.138375e-002
2.499398e+003;5.158008e-002
2.501327e+003;5.170509e-002
2.503255e+003;5.185015e-002
2.505184e+003;5.188361e-002
2.507112e+003;5.196632e-002
2.509041e+003;5.225110e-002
2.510969e+003;5.231154e-002
2.512898e+003;5.233082e-002
2.514827e+003;5.230522e-002
2.516755e+003;5.226384e-002
2.518684e+003;5.244903e-002
2.520612e+003;5.258820e-002
2.522541e+003;5.272660e-002
2.524469e+003;5.301686e-002
2.526398e+003;5.327704e-002
2.528326e+003;5.339344e-002
2.530255e+003;5.328393e-002
2.532184e+003;5.322700e-002
2.534112e+003;5.345924e-002
2.536041e+003;5.388227e-002
2.537969e+003;5.415281e-002
2.539898e+003;5.423089e-002
2.541826e+003;5.401726e-002
2.543755e+003;5.394537e-002
2.545683e+003;5.417818e-002
2.547612e+003;5.423257e-002
2.549541e+003;5.432993e-002
2.551469e+003;5.464381e-002
2.553397e+003;5.500454e-002
2.555326e+003;5.515651e-002
2.557255e+003;5.522280e-002
2.559183e+003;5.545031e-002
2.561112e+003;5.548321e-002
2.563040e+003;5.550031e-002
2.564969e+003;5.559945e-002
2.566897e+003;5.566171e-002
2.568826e+003;5.558861e-002
2.570754e+003;5.582223e-002
2.572683e+003;5.622245e-002
2.574612e+003;5.631972e-002
2.576540e+003;5.644272e-002
2.578469e+003;5.670764e-002
2.580397e+003;5.678508e-002
2.582326e+003;5.696275e-002
2.584254e+003;5.718442e-002
2.586183e+003;5.743100e-002
2.588111e+003;5.754947e-002
2.590040e+003;5.762240e-002
2.591969e+003;5.797051e-002
2.593897e+003;5.805599e-002
2.595826e+003;5.812757e-002
2.597754e+003;5.812215e-002
2.599683e+003;5.794802e-002
2.601611e+003;5.827427e-002
2.603540e+003;5.876953e-002
2.605468e+003;5.893849e-002
2.607397e+003;5.934220e-002
2.609325e+003;5.965258e-002
2.611254e+003;5.972043e-002
2.613183e+003;5.972762e-002
2.615111e+003;5.997592e-002
2.617040e+003;6.051445e-002
2.618968e+003;6.078653e-002
2.620897e+003;6.093126e-002
2.622825e+003;6.126063e-002
2.624754e+003;6.159269e-002
2.626682e+003;6.175397e-002
2.628611e+003;6.211187e-002
2.630540e+003;6.262512e-002
2.632468e+003;6.316749e-002
2.634396e+003;6.345400e-002
2.636325e+003;6.340051e-002
2.638254e+003;6.345304e-002
2.640182e+003;6.372374e-002
2.642111e+003;6.406890e-002
2.644039e+003;6.443394e-002
2.645968e+003;6.469921e-002
2.647896e+003;6.509862e-002
2.649825e+003;6.536141e-002
2.651753e+003;6.579006e-002
2.653682e+003;6.603383e-002
2.655611e+003;6.593011e-002
2.657539e+003;6.623277e-002
2.659468e+003;6.671058e-002
2.661396e+003;6.694400e-002
2.663325e+003;6.711946e-002
2.665253e+003;6.744814e-002
2.667182e+003;6.787824e-002
2.669110e+003;6.817152e-002
2.671039e+003;6.832785e-002
2.672968e+003;6.848660e-002
2.674896e+003;6.862943e-002
2.676825e+003;6.879415e-002
2.678753e+003;6.933076e-002
2.680682e+003;6.986748e-002
2.682610e+003;7.003439e-002
2.684539e+003;7.037444e-002
2.686467e+003;7.051656e-002
2.688396e+003;7.056732e-002
2.690324e+003;7.106163e-002
2.692253e+003;7.136757e-002
2.694182e+003;7.135144e-002
2.696110e+003;7.151775e-002
2.698039e+003;7.186577e-002
2.699967e+003;7.219540e-002
2.701896e+003;7.253648e-002
2.703824e+003;7.298031e-002
2.705753e+003;7.293802e-002
2.707681e+003;7.282873e-002
2.709610e+003;7.322042e-002
2.711539e+003;7.367941e-002
2.713467e+003;7.398021e-002
2.715396e+003;7.399455e-002
2.717324e+003;7.398469e-002
2.719253e+003;7.433745e-002
2.721181e+003;7.451430e-002
2.723110e+003;7.445093e-002
2.725038e+003;7.480057e-002
2.726967e+003;7.535419e-002
2.728896e+003;7.558106e-002
2.730824e+003;7.561857e-002
2.732752e+003;7.574411e-002
2.734681e+003;7.583102e-002
2.736610e+003;7.611164e-002
2.738538e+003;7.637473e-002
2.740467e+003;7.646248e-002
2.742395e+003;7.661614e-002
2.744324e+003;7.678562e-002
2.746252e+003;7.678277e-002
2.748181e+003;7.683098e-002
2.750109e+003;7.716064e-002
2.752038e+003;7.742038e-002
2.753967e+003;7.768884e-002
2.755895e+003;7.803001e-002
2.757824e+003;7.812353e-002
2.759752e+003;7.823616e-002
2.761681e+003;7.851972e-002
2.763609e+003;7.883494e-002
2.765538e+003;7.906853e-002
2.767466e+003;7.901419e-002
2.769395e+003;7.913380e-002
2.771323e+003;7.962002e-002
2.773252e+003;7.998291e-002
2.775181e+003;8.039910e-002
2.777109e+003;8.089684e-002
2.779038e+003;8.116461e-002
2.780966e+003;8.136873e-002
2.782895e+003;8.184589e-002
2.784823e+003;8.239712e-002
2.786752e+003;8.276311e-002
2.788680e+003;8.312564e-002
2.790609e+003;8.352348e-002
2.792538e+003;8.399606e-002
2.794466e+003;8.444405e-002
2.796395e+003;8.477081e-002
2.798323e+003;8.504049e-002
2.800252e+003;8.539690e-002
2.802180e+003;8.577011e-002
2.804109e+003;8.620566e-002
2.806037e+003;8.675732e-002
2.807966e+003;8.735302e-002
2.809895e+003;8.795612e-002
2.811823e+003;8.854957e-002
2.813751e+003;8.922098e-002
2.815680e+003;8.975843e-002
2.817609e+003;9.014262e-002
2.819537e+003;9.068419e-002
2.821466e+003;9.140414e-002
2.823394e+003;9.209468e-002
2.825323e+003;9.274739e-002
2.827251e+003;9.350044e-002
2.829180e+003;9.403478e-002
2.831108e+003;9.467545e-002
2.833037e+003;9.554736e-002
2.834966e+003;9.622985e-002
2.836894e+003;9.706826e-002
2.838823e+003;9.810988e-002
2.840751e+003;9.950190e-002
2.842680e+003;1.012887e-001
2.844608e+003;1.035063e-001
2.846537e+003;1.055025e-001
2.848465e+003;1.073026e-001
2.850394e+003;1.085054e-001
2.852323e+003;1.089930e-001
2.854251e+003;1.096075e-001
2.856180e+003;1.105941e-001
2.858108e+003;1.116681e-001
2.860037e+003;1.128699e-001
2.861965e+003;1.143113e-001
2.863894e+003;1.157575e-001
2.865822e+003;1.171375e-001
2.867751e+003;1.184622e-001
2.869679e+003;1.193938e-001
2.871608e+003;1.203387e-001
2.873536e+003;1.216637e-001
2.875465e+003;1.224137e-001
2.877394e+003;1.225972e-001
2.879322e+003;1.229539e-001
2.881251e+003;1.235059e-001
2.883179e+003;1.239076e-001
2.885108e+003;1.242192e-001
2.887036e+003;1.245814e-001
2.888965e+003;1.248792e-001
2.890893e+003;1.250464e-001
2.892822e+003;1.252165e-001
2.894750e+003;1.251442e-001
2.896679e+003;1.247805e-001
2.898608e+003;1.244844e-001
2.900536e+003;1.239609e-001
2.902465e+003;1.231946e-001
2.904393e+003;1.228518e-001
2.906322e+003;1.227426e-001
2.908250e+003;1.222355e-001
2.910179e+003;1.217891e-001
2.912107e+003;1.218444e-001
2.914036e+003;1.219165e-001
2.915965e+003;1.219319e-001
2.917893e+003;1.216679e-001
2.919822e+003;1.207379e-001
2.921750e+003;1.195204e-001
2.923679e+003;1.183907e-001
2.925607e+003;1.167256e-001
2.927536e+003;1.148348e-001
2.929464e+003;1.135392e-001
2.931393e+003;1.121104e-001
2.933322e+003;1.106712e-001
2.935250e+003;1.095579e-001
2.937178e+003;1.084224e-001
2.939107e+003;1.066109e-001
2.941036e+003;1.048489e-001
2.942964e+003;1.035976e-001
2.944893e+003;1.027335e-001
2.946821e+003;1.015216e-001
2.948750e+003;9.986299e-002
2.950678e+003;9.840964e-002
2.952607e+003;9.759635e-002
2.954535e+003;9.700085e-002
2.956464e+003;9.606426e-002
2.958393e+003;9.460306e-002
2.960321e+003;9.318799e-002
2.962250e+003;9.224819e-002
2.964178e+003;9.154280e-002
2.966107e+003;9.073993e-002
2.968035e+003;8.994412e-002
2.969964e+003;8.925727e-002
2.971892e+003;8.860909e-002
2.973821e+003;8.770066e-002
2.975750e+003;8.668303e-002
2.977678e+003;8.623925e-002
2.979607e+003;8.594789e-002
2.981535e+003;8.555201e-002
2.983464e+003;8.519358e-002
2.985392e+003;8.481463e-002
2.987321e+003;8.450370e-002
2.989249e+003;8.410254e-002
2.991178e+003;8.384054e-002
2.993106e+003;8.391502e-002
2.995035e+003;8.389834e-002
2.996964e+003;8.357963e-002
2.998892e+003;8.334729e-002
3.000821e+003;8.343686e-002
3.002749e+003;8.343197e-002
3.004678e+003;8.321175e-002
3.006606e+003;8.323242e-002
3.008535e+003;8.345397e-002
3.010463e+003;8.388905e-002
3.012392e+003;8.456589e-002
3.014321e+003;8.499020e-002
3.016249e+003;8.494705e-002
3.018177e+003;8.487787e-002
3.020106e+003;8.511941e-002
3.022035e+003;8.558211e-002
3.023963e+003;8.610999e-002
3.025892e+003;8.649893e-002
3.027820e+003;8.694445e-002
3.029749e+003;8.755520e-002
3.031677e+003;8.806682e-002
3.033606e+003;8.838530e-002
3.035534e+003;8.887655e-002
3.037463e+003;8.954158e-002
3.039392e+003;9.010714e-002
3.041320e+003;9.070702e-002
3.043249e+003;9.119967e-002
3.045177e+003;9.135879e-002
3.047106e+003;9.181116e-002
3.049034e+003;9.240786e-002
3.050963e+003;9.320376e-002
3.052891e+003;9.395217e-002
3.054820e+003;9.423870e-002
3.056749e+003;9.481813e-002
3.058677e+003;9.546595e-002
3.060606e+003;9.598139e-002
3.062534e+003;9.643385e-002
3.064463e+003;9.688914e-002
3.066391e+003;9.755321e-002
3.068320e+003;9.832411e-002
3.070248e+003;9.878393e-002
3.072177e+003;9.928966e-002
3.074105e+003;9.984035e-002
3.076034e+003;1.003470e-001
3.077963e+003;1.009441e-001
3.079891e+003;1.015393e-001
3.081820e+003;1.023675e-001
3.083748e+003;1.032046e-001
3.085677e+003;1.037255e-001
3.087605e+003;1.043865e-001
3.089534e+003;1.051130e-001
3.091462e+003;1.056545e-001
3.093391e+003;1.061509e-001
3.095320e+003;1.071015e-001
3.097248e+003;1.083345e-001
3.099177e+003;1.090304e-001
3.101105e+003;1.092529e-001
3.103034e+003;1.094375e-001
3.104962e+003;1.099743e-001
3.106891e+003;1.108078e-001
3.108819e+003;1.115601e-001
3.110748e+003;1.121914e-001
3.112677e+003;1.129919e-001
3.114605e+003;1.139522e-001
3.116533e+003;1.147055e-001
3.118462e+003;1.152729e-001
3.120391e+003;1.158562e-001
3.122319e+003;1.164700e-001
3.124248e+003;1.172092e-001
3.126176e+003;1.179285e-001
3.128105e+003;1.185466e-001
3.130033e+003;1.190493e-001
3.131962e+003;1.195702e-001
3.133890e+003;1.199076e-001
3.135819e+003;1.205681e-001
3.137748e+003;1.218921e-001
3.139676e+003;1.229941e-001
3.141605e+003;1.233293e-001
3.143533e+003;1.239815e-001
3.145462e+003;1.247002e-001
3.147390e+003;1.252152e-001
3.149319e+003;1.258705e-001
3.151247e+003;1.264875e-001
3.153176e+003;1.271724e-001
3.155104e+003;1.275723e-001
3.157033e+003;1.282330e-001
3.158962e+003;1.290764e-001
3.160890e+003;1.297463e-001
3.162819e+003;1.305584e-001
3.164747e+003;1.314676e-001
3.166676e+003;1.325396e-001
3.168604e+003;1.332612e-001
3.170533e+003;1.334168e-001
3.172461e+003;1.338678e-001
3.174390e+003;1.345425e-001
3.176319e+003;1.349976e-001
3.178247e+003;1.356052e-001
3.180176e+003;1.366970e-001
3.182104e+003;1.378015e-001
3.184033e+003;1.384297e-001
3.185961e+003;1.387847e-001
3.187890e+003;1.390931e-001
3.189818e+003;1.393430e-001
3.191747e+003;1.398838e-001
3.193676e+003;1.405919e-001
3.195604e+003;1.412601e-001
3.197532e+003;1.419032e-001
3.199461e+003;1.428044e-001
3.201390e+003;1.434359e-001
3.203318e+003;1.437284e-001
3.205247e+003;1.443777e-001
3.207175e+003;1.452778e-001
3.209104e+003;1.457747e-001
3.211032e+003;1.464241e-001
3.212961e+003;1.472334e-001
3.214889e+003;1.479144e-001
3.216818e+003;1.481106e-001
3.218747e+003;1.483145e-001
3.220675e+003;1.490139e-001
3.222604e+003;1.500504e-001
3.224532e+003;1.506400e-001
3.226461e+003;1.508124e-001
3.228389e+003;1.509305e-001
3.230318e+003;1.518970e-001
3.232246e+003;1.529875e-001
3.234175e+003;1.533331e-001
3.236104e+003;1.538486e-001
3.238032e+003;1.543842e-001
3.239961e+003;1.547420e-001
3.241889e+003;1.550775e-001
3.243818e+003;1.554079e-001
3.245746e+003;1.559686e-001
3.247675e+003;1.565018e-001
3.249603e+003;1.566277e-001
3.251532e+003;1.568818e-001
3.253460e+003;1.576203e-001
3.255389e+003;1.585737e-001
3.257318e+003;1.587111e-001
3.259246e+003;1.589244e-001
3.261175e+003;1.595093e-001
3.263103e+003;1.600668e-001
3.265032e+003;1.602285e-001
3.266960e+003;1.606091e-001
3.268889e+003;1.610685e-001
3.270817e+003;1.610723e-001
3.272746e+003;1.612778e-001
3.274675e+003;1.616815e-001
3.276603e+003;1.622917e-001
3.278531e+003;1.627484e-001
3.280460e+003;1.628216e-001
3.282389e+003;1.629400e-001
3.284317e+003;1.633497e-001
3.286246e+003;1.639705e-001
3.288174e+003;1.644004e-001
3.290103e+003;1.645361e-001
3.292031e+003;1.648615e-001
3.293960e+003;1.648681e-001
3.295888e+003;1.647331e-001
3.297817e+003;1.650716e-001
3.299746e+003;1.651350e-001
3.301674e+003;1.651311e-001
3.303603e+003;1.656319e-001
3.305531e+003;1.659229e-001
3.307460e+003;1.658699e-001
3.309388e+003;1.663125e-001
3.311317e+003;1.665827e-001
3.313245e+003;1.664722e-001
3.315174e+003;1.665124e-001
3.317103e+003;1.663127e-001
3.319031e+003;1.662755e-001
3.320960e+003;1.663842e-001
3.322888e+003;1.667523e-001
3.324817e+003;1.669299e-001
3.326745e+003;1.669236e-001
3.328674e+003;1.668792e-001
3.330602e+003;1.670205e-001
3.332531e+003;1.672117e-001
3.334459e+003;1.675674e-001
3.336388e+003;1.675204e-001
3.338317e+003;1.673048e-001
3.340245e+003;1.673812e-001
3.342174e+003;1.678978e-001
3.344102e+003;1.678717e-001
3.346031e+003;1.674491e-001
3.347959e+003;1.673013e-001
3.349888e+003;1.671439e-001
3.351816e+003;1.669972e-001
3.353745e+003;1.668593e-001
3.355674e+003;1.666111e-001
3.357602e+003;1.662867e-001
3.359531e+003;1.662965e-001
3.361459e+003;1.661936e-001
3.363388e+003;1.657954e-001
3.365316e+003;1.651222e-001
3.367245e+003;1.645878e-001
3.369173e+003;1.647994e-001
3.371102e+003;1.650841e-001
3.373031e+003;1.648432e-001
3.374959e+003;1.645089e-001
3.376887e+003;1.646403e-001
3.378816e+003;1.646945e-001
3.380745e+003;1.640583e-001
3.382673e+003;1.633926e-001
3.384602e+003;1.628288e-001
3.386530e+003;1.626945e-001
3.388459e+003;1.626173e-001
3.390387e+003;1.618504e-001
3.392316e+003;1.612783e-001
3.394244e+003;1.614541e-001
3.396173e+003;1.611888e-001
3.398102e+003;1.603178e-001
3.400030e+003;1.595908e-001
3.401959e+003;1.589593e-001
3.403887e+003;1.583177e-001
3.405816e+003;1.577074e-001
3.407744e+003;1.570855e-001
3.409673e+003;1.566053e-001
3.411601e+003;1.561017e-001
3.413530e+003;1.557146e-001
3.415458e+003;1.556288e-001
3.417387e+003;1.551448e-001
3.419316e+003;1.544150e-001
3.421244e+003;1.533557e-001
3.423173e+003;1.525869e-001
3.425101e+003;1.518347e-001
3.427030e+003;1.510929e-001
3.428958e+003;1.511494e-001
3.430887e+003;1.505074e-001
3.432815e+003;1.492890e-001
3.434744e+003;1.485028e-001
3.436673e+003;1.479684e-001
3.438601e+003;1.472593e-001
3.440530e+003;1.461203e-001
3.442458e+003;1.454011e-001
3.444387e+003;1.450665e-001
3.446315e+003;1.443779e-001
3.448244e+003;1.429632e-001
3.450172e+003;1.416761e-001
3.452101e+003;1.406903e-001
3.454030e+003;1.391631e-001
3.455958e+003;1.377745e-001
3.457886e+003;1.370913e-001
3.459815e+003;1.363905e-001
3.461744e+003;1.351456e-001
3.463672e+003;1.338445e-001
3.465601e+003;1.325009e-001
3.467529e+003;1.311744e-001
3.469458e+003;1.300791e-001
3.471386e+003;1.292990e-001
3.473315e+003;1.283941e-001
3.475243e+003;1.272849e-001
3.477172e+003;1.263267e-001
3.479101e+003;1.253999e-001
3.481029e+003;1.241050e-001
3.482958e+003;1.226627e-001
3.484886e+003;1.212349e-001
3.486815e+003;1.201286e-001
3.488743e+003;1.194105e-001
3.490672e+003;1.184789e-001
3.492600e+003;1.170957e-001
3.494529e+003;1.158078e-001
3.496458e+003;1.141946e-001
3.498386e+003;1.126950e-001
3.500315e+003;1.113056e-001
3.502243e+003;1.096773e-001
3.504172e+003;1.083987e-001
3.506100e+003;1.079004e-001
3.508029e+003;1.070980e-001
3.509957e+003;1.057651e-001
3.511886e+003;1.043791e-001
3.513814e+003;1.031912e-001
3.515743e+003;1.019180e-001
3.517672e+003;1.006844e-001
3.519600e+003;9.938042e-002
3.521529e+003;9.786242e-002
3.523457e+003;9.680773e-002
3.525386e+003;9.610076e-002
3.527314e+003;9.495640e-002
3.529243e+003;9.398948e-002
3.531171e+003;9.347188e-002
3.533100e+003;9.217407e-002
3.535029e+003;9.067444e-002
3.536957e+003;8.976014e-002
3.538885e+003;8.884638e-002
3.540814e+003;8.738248e-002
3.542743e+003;8.597358e-002
3.544671e+003;8.504456e-002
3.546600e+003;8.462431e-002
3.548528e+003;8.393725e-002
3.550457e+003;8.266802e-002
3.552385e+003;8.160409e-002
3.554314e+003;8.081824e-002
3.556242e+003;7.973366e-002
3.558171e+003;7.823762e-002
3.560100e+003;7.714596e-002
3.562028e+003;7.635187e-002
3.563957e+003;7.546490e-002
3.565885e+003;7.427788e-002
3.567814e+003;7.327683e-002
3.569742e+003;7.272714e-002
3.571671e+003;7.201979e-002
3.573599e+003;7.092175e-002
3.575528e+003;7.000543e-002
3.577457e+003;6.933270e-002
3.579385e+003;6.848215e-002
3.581314e+003;6.741098e-002
3.583242e+003;6.641215e-002
3.585171e+003;6.596957e-002
3.587099e+003;6.495622e-002
3.589028e+003;6.407934e-002
3.590956e+003;6.365728e-002
3.592885e+003;6.317132e-002
3.594813e+003;6.257001e-002
3.596742e+003;6.148591e-002
3.598671e+003;6.017834e-002
3.600599e+003;5.914802e-002
3.602528e+003;5.863591e-002
3.604456e+003;5.812037e-002
3.606385e+003;5.753237e-002
3.608313e+003;5.680148e-002
3.610242e+003;5.607045e-002
3.612170e+003;5.537743e-002
3.614099e+003;5.462088e-002
3.616028e+003;5.373807e-002
3.617956e+003;5.284746e-002
3.619885e+003;5.205495e-002
3.621813e+003;5.130681e-002
3.623742e+003;5.088349e-002
3.625670e+003;5.037455e-002
3.627599e+003;4.924931e-002
3.629527e+003;4.831474e-002
3.631456e+003;4.779633e-002
3.633385e+003;4.699257e-002
3.635313e+003;4.617986e-002
3.637241e+003;4.536930e-002
3.639170e+003;4.443786e-002
3.641099e+003;4.363848e-002
3.643027e+003;4.298282e-002
3.644956e+003;4.237384e-002
3.646884e+003;4.142492e-002
3.648813e+003;4.031759e-002
3.650741e+003;3.926552e-002
3.652670e+003;3.826589e-002
3.654598e+003;3.732752e-002
3.656527e+003;3.641347e-002
3.658456e+003;3.527581e-002
3.660384e+003;3.435380e-002
3.662313e+003;3.372736e-002
3.664241e+003;3.301630e-002
3.666170e+003;3.213235e-002
3.668098e+003;3.098808e-002
3.670027e+003;3.000297e-002
3.671955e+003;2.925679e-002
3.673884e+003;2.866331e-002
3.675813e+003;2.818723e-002
3.677741e+003;2.751041e-002
3.679669e+003;2.693564e-002
3.681598e+003;2.651156e-002
3.683527e+003;2.575299e-002
3.685455e+003;2.501761e-002
3.687384e+003;2.480163e-002
3.689312e+003;2.455522e-002
3.691241e+003;2.402387e-002
3.693169e+003;2.333990e-002
3.695098e+003;2.291436e-002
3.697026e+003;2.261219e-002
3.698955e+003;2.238160e-002
3.700884e+003;2.234138e-002
3.702812e+003;2.203939e-002
3.704741e+003;2.171383e-002
3.706669e+003;2.140647e-002
3.708598e+003;2.093612e-002
3.710526e+003;2.060047e-002
3.712455e+003;2.018673e-002
3.714383e+003;2.021957e-002
3.716312e+003;2.044676e-002
3.718240e+003;2.012197e-002
3.720169e+003;1.962801e-002
3.722098e+003;1.944823e-002
3.724026e+003;1.936390e-002
3.725955e+003;1.899983e-002
3.727883e+003;1.875299e-002
3.729812e+003;1.870141e-002
3.731740e+003;1.843271e-002
3.733669e+003;1.834626e-002
3.735597e+003;1.843624e-002
3.737526e+003;1.849235e-002
3.739455e+003;1.831215e-002
3.741383e+003;1.811699e-002
3.743312e+003;1.797064e-002
3.745240e+003;1.773274e-002
3.747169e+003;1.777139e-002
3.749097e+003;1.772062e-002
3.751026e+003;1.752566e-002
3.752954e+003;1.739345e-002
3.754883e+003;1.761150e-002
3.756812e+003;1.755671e-002
3.758740e+003;1.732386e-002
3.760668e+003;1.697941e-002
3.762597e+003;1.671798e-002
3.764526e+003;1.679973e-002
3.766454e+003;1.728417e-002
3.768383e+003;1.746319e-002
3.770311e+003;1.724125e-002
3.772240e+003;1.719777e-002
3.774168e+003;1.719260e-002
3.776097e+003;1.704423e-002
3.778025e+003;1.699740e-002
3.779954e+003;1.698572e-002
3.781883e+003;1.685787e-002
3.783811e+003;1.668940e-002
3.785740e+003;1.668430e-002
3.787668e+003;1.669270e-002
3.789597e+003;1.665046e-002
3.791525e+003;1.673753e-002
3.793454e+003;1.685787e-002
3.795382e+003;1.634483e-002
3.797311e+003;1.591069e-002
3.799240e+003;1.620404e-002
3.801168e+003;1.620957e-002
3.803097e+003;1.619097e-002
3.805025e+003;1.641592e-002
3.806954e+003;1.624060e-002
3.808882e+003;1.627637e-002
3.810811e+003;1.628876e-002
3.812739e+003;1.630792e-002
3.814668e+003;1.667697e-002
3.816596e+003;1.693121e-002
3.818525e+003;1.689087e-002
3.820454e+003;1.663276e-002
3.822382e+003;1.629409e-002
3.824311e+003;1.650264e-002
3.826239e+003;1.658467e-002
3.828168e+003;1.602784e-002
3.830096e+003;1.595070e-002
3.832025e+003;1.619516e-002
3.833953e+003;1.661610e-002
3.835882e+003;1.684051e-002
3.837811e+003;1.681168e-002
3.839739e+003;1.645704e-002
3.841667e+003;1.600102e-002
3.843596e+003;1.619702e-002
3.845525e+003;1.646833e-002
3.847453e+003;1.684316e-002
3.849382e+003;1.721511e-002
3.851310e+003;1.708393e-002
3.853239e+003;1.669229e-002
3.855167e+003;1.674876e-002
3.857096e+003;1.719174e-002
3.859024e+003;1.753908e-002
3.860953e+003;1.755233e-002
3.862882e+003;1.718923e-002
3.864810e+003;1.702017e-002
3.866739e+003;1.743763e-002
3.868667e+003;1.785839e-002
3.870596e+003;1.773646e-002
3.872524e+003;1.782117e-002
3.874453e+003;1.811018e-002
3.876381e+003;1.803934e-002
3.878310e+003;1.796450e-002
3.880239e+003;1.808510e-002
3.882167e+003;1.844353e-002
3.884096e+003;1.913662e-002
3.886024e+003;1.952853e-002
3.887953e+003;1.923895e-002
3.889881e+003;1.890364e-002
3.891810e+003;1.879869e-002
3.893738e+003;1.844243e-002
3.895667e+003;1.821594e-002
3.897595e+003;1.885018e-002
3.899524e+003;1.942623e-002
3.901453e+003;1.910158e-002
3.903381e+003;1.905525e-002
3.905310e+003;1.946365e-002
3.907238e+003;1.976631e-002
3.909167e+003;2.001828e-002
3.911095e+003;1.996041e-002
3.913024e+003;2.004639e-002
3.914952e+003;2.087368e-002
3.916881e+003;2.122383e-002
3.918810e+003;2.093417e-002
3.920738e+003;2.088421e-002
3.922667e+003;2.098417e-002
3.924595e+003;2.079511e-002
3.926524e+003;2.069231e-002
3.928452e+003;2.073165e-002
3.930381e+003;2.071208e-002
3.932309e+003;2.117767e-002
3.934238e+003;2.164288e-002
3.936167e+003;2.120651e-002
3.938095e+003;2.112284e-002
3.940023e+003;2.175504e-002
3.941952e+003;2.204089e-002
3.943881e+003;2.182681e-002
3.945809e+003;2.177406e-002
3.947738e+003;2.203877e-002
3.949666e+003;2.215926e-002
3.951595e+003;2.202841e-002
3.953523e+003;2.169777e-002
3.955452e+003;2.146276e-002
3.957380e+003;2.157598e-002
3.959309e+003;2.241534e-002
3.961238e+003;2.291915e-002
3.963166e+003;2.238090e-002
3.965095e+003;2.186350e-002
3.967023e+003;2.189548e-002
3.968952e+003;2.239088e-002
3.970880e+003;2.263575e-002
3.972809e+003;2.272243e-002
3.974737e+003;2.290238e-002
3.976666e+003;2.276597e-002
3.978594e+003;2.251105e-002
3.980523e+003;2.253422e-002
3.982452e+003;2.273710e-002
3.984380e+003;2.272453e-002
3.986309e+003;2.261767e-002
3.988237e+003;2.264559e-002
3.990166e+003;2.264497e-002
3.992094e+003;2.288345e-002
3.994023e+003;2.289540e-002
3.995951e+003;2.264594e-002
3.997880e+003;2.269426e-002
3.999809e+003;2.309442e-002
4.001737e+003;0.000000e+000
