3.992094e+002;0.000000e+000
4.011380e+002;0.000000e+000
4.030665e+002;0.000000e+000
4.049951e+002;0.000000e+000
4.069236e+002;0.000000e+000
4.088522e+002;0.000000e+000
4.107807e+002;0.000000e+000
4.127093e+002;0.000000e+000
4.146378e+002;0.000000e+000
4.165664e+002;0.000000e+000
4.184949e+002;0.000000e+000
4.204235e+002;0.000000e+000
4.223520e+002;0.000000e+000
4.242806e+002;0.000000e+000
4.262091e+002;0.000000e+000
4.281377e+002;0.000000e+000
4.300662e+002;0.000000e+000
4.319948e+002;0.000000e+000
4.339233e+002;0.000000e+000
4.358519e+002;0.000000e+000
4.377804e+002;0.000000e+000
4.397090e+002;0.000000e+000
4.416375e+002;0.000000e+000
4.435660e+002;0.000000e+000
4.454946e+002;0.000000e+000
4.474232e+002;0.000000e+000
4.493517e+002;0.000000e+000
4.512802e+002;0.000000e+000
4.532088e+002;0.000000e+000
4.551373e+002;0.000000e+000
4.570659e+002;0.000000e+000
4.589944e+002;0.000000e+000
4.609230e+002;0.000000e+000
4.628515e+002;0.000000e+000
4.647801e+002;0.000000e+000
4.667086e+002;0.000000e+000
4.686372e+002;0.000000e+000
4.705657e+002;0.000000e+000
4.724943e+002;0.000000e+000
4.744228e+002;0.000000e+000
4.763513e+002;0.000000e+000
4.782799e+002;0.000000e+000
4.802085e+002;0.000000e+000
4.821370e+002;0.000000e+000
4.840656e+002;0.000000e+000
4.859941e+002;0.000000e+000
4.879226e+002;0.000000e+000
4.898512e+002;0.000000e+000
4.917798e+002;0.000000e+000
4.937083e+002;0.000000e+000
4.956368e+002;0.000000e+000
4.975654e+002;0.000000e+000
4.994939e+002;0.000000e+000
5.014225e+002;0.000000e+000
5.033510e+002;0.000000e+000
5.052796e+002;0.000000e+000
5.072081e+002;0.000000e+000
5.091367e+002;0.000000e+000
5.110652e+002;0.000000e+000
5.129938e+002;0.000000e+000
5.149223e+002;0.000000e+000
5.168509e+002;0.000000e+000
5.187794e+002;0.000000e+000
5.207079e+002;0.000000e+000
5.226365e+002;0.000000e+000
5.245651e+002;0.000000e+000
5.264936e+002;0.000000e+000
5.284222e+002;0.000000e+000
5.303507e+002;0.000000e+000
5.322792e+002;0.000000e+000
5.342078e+002;0.000000e+000
5.361364e+002;0.000000e+000
5.380649e+002;0.000000e+000
5.399935e+002;0.000000e+000
5.419220e+002;0.000000e+000
5.438505e+002;0.000000e+000
5.457791e+002;0.000000e+000
5.477076e+002;0.000000e+000
5.496362e+002;0.000000e+000
5.515648e+002;0.000000e+000
5.534933e+002;0.000000e+000
5.554218e+002;0.000000e+000
5.573504e+002;0.000000e+000
5.592789e+002;0.000000e+000
5.612075e+002;0.000000e+000
5.631360e+002;0.000000e+000
5.650646e+002;0.000000e+000
5.669931e+002;0.000000e+000
5.689217e+002;0.000000e+000
5.708502e+002;0.000000e+000
5.727787e+002;0.000000e+000
5.747073e+002;0.000000e+000
5.766359e+002;0.000000e+000
5.785644e+002;0.000000e+000
5.804930e+002;0.000000e+000
5.824215e+002;0.000000e+000
5.843500e+002;0.000000e+000
5.862786e+002;0.000000e+000
5.882072e+002;0.000000e+000
5.901357e+002;0.000000e+000
5.920643e+002;0.000000e+000
5.939928e+002;0.000000e+000
5.959213e+002;0.000000e+000
5.978499e+002;0.000000e+000
5.997784e+002;2.952794e-001
6.017070e+002;2.848178e-001
6.036355e+002;2.873724e-001
6.055641e+002;2.992107e-001
6.074926e+002;2.996034e-001
6.094211e+002;2.921989e-001
6.113497e+002;2.859782e-001
6.132783e+002;2.814831e-001
6.152068e+002;2.789474e-001
6.171354e+002;2.788180e-001
6.190639e+002;2.751713e-001
6.209924e+002;2.752234e-001
6.229210e+002;2.758903e-001
6.248495e+002;2.695998e-001
6.267781e+002;2.642314e-001
6.287067e+002;2.628635e-001
6.306352e+002;2.640088e-001
6.325637e+002;2.636203e-001
6.344923e+002;2.586474e-001
6.364208e+002;2.511929e-001
6.383494e+002;2.472652e-001
6.402780e+002;2.501834e-001
6.422065e+002;2.553967e-001
6.441350e+002;2.555933e-001
6.460636e+002;2.516411e-001
6.479921e+002;2.507972e-001
6.499207e+002;2.531105e-001
6.518492e+002;2.572210e-001
6.537778e+002;2.583865e-001
6.557063e+002;2.579184e-001
6.576349e+002;2.579314e-001
6.595634e+002;2.582797e-001
6.614919e+002;2.580968e-001
6.634205e+002;2.579167e-001
6.653491e+002;2.563097e-001
6.672776e+002;2.560905e-001
6.692062e+002;2.538372e-001
6.711347e+002;2.477038e-001
6.730632e+002;2.407568e-001
6.749918e+002;2.328217e-001
6.769203e+002;2.254289e-001
6.788489e+002;2.190847e-001
6.807775e+002;2.131783e-001
6.827060e+002;2.073651e-001
6.846345e+002;2.041325e-001
6.865631e+002;2.027275e-001
6.884916e+002;2.010593e-001
6.904202e+002;2.000391e-001
6.923488e+002;1.994043e-001
6.942773e+002;1.975499e-001
6.962058e+002;1.961712e-001
6.981344e+002;1.954844e-001
7.000629e+002;1.947868e-001
7.019915e+002;1.936423e-001
7.039200e+002;1.922819e-001
7.058486e+002;1.915438e-001
7.077771e+002;1.905609e-001
7.097057e+002;1.888453e-001
7.116342e+002;1.875832e-001
7.135627e+002;1.864501e-001
7.154913e+002;1.850042e-001
7.174199e+002;1.830643e-001
7.193484e+002;1.820674e-001
7.212770e+002;1.816097e-001
7.232055e+002;1.798324e-001
7.251340e+002;1.773285e-001
7.270626e+002;1.755208e-001
7.289911e+002;1.742562e-001
7.309197e+002;1.731016e-001
7.328483e+002;1.722024e-001
7.347768e+002;1.707509e-001
7.367053e+002;1.692410e-001
7.386339e+002;1.678886e-001
7.405624e+002;1.665000e-001
7.424910e+002;1.659176e-001
7.444196e+002;1.649898e-001
7.463481e+002;1.637330e-001
7.482766e+002;1.623095e-001
7.502052e+002;1.599611e-001
7.521337e+002;1.579754e-001
7.540623e+002;1.562145e-001
7.559908e+002;1.549706e-001
7.579194e+002;1.540231e-001
7.598479e+002;1.531372e-001
7.617765e+002;1.528115e-001
7.637050e+002;1.516980e-001
7.656335e+002;1.503634e-001
7.675621e+002;1.487758e-001
7.694907e+002;1.473608e-001
7.714192e+002;1.462950e-001
7.733478e+002;1.454182e-001
7.752763e+002;1.442958e-001
7.772048e+002;1.432434e-001
7.791334e+002;1.424161e-001
7.810620e+002;1.418623e-001
7.829905e+002;1.410737e-001
7.849191e+002;1.407237e-001
7.868476e+002;1.405604e-001
7.887761e+002;1.395720e-001
7.907047e+002;1.391026e-001
7.926332e+002;1.384148e-001
7.945618e+002;1.380911e-001
7.964903e+002;1.387509e-001
7.984189e+002;1.390534e-001
8.003474e+002;1.382812e-001
8.022759e+002;1.372132e-001
8.042045e+002;1.373707e-001
8.061331e+002;1.373481e-001
8.080616e+002;1.368766e-001
8.099902e+002;1.366256e-001
8.119187e+002;1.358447e-001
8.138472e+002;1.345162e-001
8.157758e+002;1.342439e-001
8.177043e+002;1.341238e-001
8.196329e+002;1.343627e-001
8.215615e+002;1.344696e-001
8.234900e+002;1.340374e-001
8.254185e+002;1.331539e-001
8.273471e+002;1.322836e-001
8.292756e+002;1.320247e-001
8.312042e+002;1.312438e-001
8.331328e+002;1.299593e-001
8.350613e+002;1.294356e-001
8.369898e+002;1.288910e-001
8.389184e+002;1.284740e-001
8.408469e+002;1.281250e-001
8.427755e+002;1.271011e-001
8.447040e+002;1.259550e-001
8.466326e+002;1.252002e-001
8.485611e+002;1.249035e-001
8.504897e+002;1.246039e-001
8.524182e+002;1.246108e-001
8.543467e+002;1.249723e-001
8.562753e+002;1.255948e-001
8.582039e+002;1.265173e-001
8.601324e+002;1.277024e-001
8.620610e+002;1.290968e-001
8.639895e+002;1.302484e-001
8.659180e+002;1.313412e-001
8.678466e+002;1.329651e-001
8.697751e+002;1.351754e-001
8.717037e+002;1.379289e-001
8.736323e+002;1.415962e-001
8.755608e+002;1.455040e-001
8.774893e+002;1.498696e-001
8.794179e+002;1.550883e-001
8.813464e+002;1.605580e-001
8.832750e+002;1.663181e-001
8.852036e+002;1.720879e-001
8.871321e+002;1.781026e-001
8.890606e+002;1.841128e-001
8.909892e+002;1.885458e-001
8.929177e+002;1.918086e-001
8.948463e+002;1.940461e-001
8.967748e+002;1.938944e-001
8.987034e+002;1.918861e-001
9.006319e+002;1.890908e-001
9.025605e+002;1.860563e-001
9.044890e+002;1.825557e-001
9.064175e+002;1.785031e-001
9.083461e+002;1.742775e-001
9.102747e+002;1.707755e-001
9.122032e+002;1.679798e-001
9.141318e+002;1.659032e-001
9.160603e+002;1.645490e-001
9.179888e+002;1.638470e-001
9.199174e+002;1.645981e-001
9.218459e+002;1.659221e-001
9.237745e+002;1.673983e-001
9.257031e+002;1.691968e-001
9.276316e+002;1.706075e-001
9.295601e+002;1.720453e-001
9.314887e+002;1.739388e-001
9.334172e+002;1.757513e-001
9.353458e+002;1.775924e-001
9.372744e+002;1.799307e-001
9.392029e+002;1.829961e-001
9.411314e+002;1.862662e-001
9.430600e+002;1.897266e-001
9.449885e+002;1.938319e-001
9.469171e+002;1.985778e-001
9.488456e+002;2.040345e-001
9.507742e+002;2.097629e-001
9.527027e+002;2.157924e-001
9.546313e+002;2.222812e-001
9.565598e+002;2.288851e-001
9.584883e+002;2.356707e-001
9.604169e+002;2.428942e-001
9.623455e+002;2.498560e-001
9.642740e+002;2.568825e-001
9.662026e+002;2.650385e-001
9.681311e+002;2.739069e-001
9.700596e+002;2.828191e-001
9.719882e+002;2.927697e-001
9.739167e+002;3.049125e-001
9.758453e+002;3.186013e-001
9.777739e+002;3.342396e-001
9.797024e+002;3.523152e-001
9.816309e+002;3.722409e-001
9.835595e+002;3.935683e-001
9.854880e+002;4.149652e-001
9.874166e+002;4.349231e-001
9.893452e+002;4.520265e-001
9.912737e+002;4.648480e-001
9.932022e+002;4.741945e-001
9.951307e+002;4.809877e-001
9.970593e+002;4.854056e-001
9.989879e+002;4.877705e-001
1.000916e+003;4.892576e-001
1.002845e+003;4.925989e-001
1.004773e+003;4.988957e-001
1.006702e+003;5.078800e-001
1.008631e+003;5.183119e-001
1.010559e+003;5.296854e-001
1.012488e+003;5.413492e-001
1.014416e+003;5.519887e-001
1.016345e+003;5.604138e-001
1.018273e+003;5.649217e-001
1.020202e+003;5.667398e-001
1.022130e+003;5.664983e-001
1.024059e+003;5.634615e-001
1.025988e+003;5.586752e-001
1.027916e+003;5.518656e-001
1.029845e+003;5.438939e-001
1.031773e+003;5.360428e-001
1.033702e+003;5.288795e-001
1.035630e+003;5.222083e-001
1.037559e+003;5.160584e-001
1.039487e+003;5.112355e-001
1.041416e+003;5.072852e-001
1.043344e+003;5.027977e-001
1.045273e+003;4.977075e-001
1.047202e+003;4.927042e-001
1.049130e+003;4.883818e-001
1.051059e+003;4.837704e-001
1.052987e+003;4.792051e-001
1.054916e+003;4.735713e-001
1.056844e+003;4.667381e-001
1.058773e+003;4.606865e-001
1.060701e+003;4.535651e-001
1.062630e+003;4.453504e-001
1.064558e+003;4.374296e-001
1.066487e+003;4.291455e-001
1.068416e+003;4.192895e-001
1.070344e+003;4.089583e-001
1.072273e+003;3.993261e-001
1.074201e+003;3.899051e-001
1.076130e+003;3.803240e-001
1.078058e+003;3.710726e-001
1.079987e+003;3.626038e-001
1.081915e+003;3.550401e-001
1.083844e+003;3.482188e-001
1.085773e+003;3.414428e-001
1.087701e+003;3.350410e-001
1.089630e+003;3.289414e-001
1.091558e+003;3.231640e-001
1.093487e+003;3.173495e-001
1.095415e+003;3.107888e-001
1.097344e+003;3.039205e-001
1.099272e+003;2.968553e-001
1.101201e+003;2.896779e-001
1.103129e+003;2.834262e-001
1.105058e+003;2.776261e-001
1.106987e+003;2.722965e-001
1.108915e+003;2.673907e-001
1.110844e+003;2.621715e-001
1.112772e+003;2.565639e-001
1.114701e+003;2.508240e-001
1.116629e+003;2.448364e-001
1.118558e+003;2.385607e-001
1.120486e+003;2.319350e-001
1.122415e+003;2.251457e-001
1.124344e+003;2.186025e-001
1.126272e+003;2.118443e-001
1.128201e+003;2.052676e-001
1.130129e+003;1.991162e-001
1.132058e+003;1.935066e-001
1.133986e+003;1.885985e-001
1.135915e+003;1.842865e-001
1.137843e+003;1.804121e-001
1.139772e+003;1.771279e-001
1.141700e+003;1.746837e-001
1.143629e+003;1.738115e-001
1.145557e+003;1.741851e-001
1.147486e+003;1.748412e-001
1.149415e+003;1.760396e-001
1.151343e+003;1.779250e-001
1.153272e+003;1.797719e-001
1.155200e+003;1.800723e-001
1.157129e+003;1.793952e-001
1.159057e+003;1.774680e-001
1.160986e+003;1.732998e-001
1.162914e+003;1.675463e-001
1.164843e+003;1.605338e-001
1.166771e+003;1.527222e-001
1.168700e+003;1.452553e-001
1.170629e+003;1.380592e-001
1.172557e+003;1.310018e-001
1.174486e+003;1.250262e-001
1.176414e+003;1.200313e-001
1.178343e+003;1.154759e-001
1.180271e+003;1.118069e-001
1.182200e+003;1.092740e-001
1.184128e+003;1.077312e-001
1.186057e+003;1.073023e-001
1.187986e+003;1.082566e-001
1.189914e+003;1.104129e-001
1.191843e+003;1.131945e-001
1.193771e+003;1.159720e-001
1.195700e+003;1.182328e-001
1.197628e+003;1.197241e-001
1.199557e+003;1.203349e-001
1.201485e+003;1.201488e-001
1.203414e+003;1.185974e-001
1.205343e+003;1.158452e-001
1.207271e+003;1.135591e-001
1.209200e+003;1.117923e-001
1.211128e+003;1.104924e-001
1.213057e+003;1.100556e-001
1.214985e+003;1.106264e-001
1.216914e+003;1.117374e-001
1.218842e+003;1.133409e-001
1.220771e+003;1.154188e-001
1.222699e+003;1.177313e-001
1.224628e+003;1.199886e-001
1.226557e+003;1.219253e-001
1.228485e+003;1.233895e-001
1.230414e+003;1.241203e-001
1.232342e+003;1.246532e-001
1.234271e+003;1.250707e-001
1.236199e+003;1.252970e-001
1.238128e+003;1.254227e-001
1.240056e+003;1.253653e-001
1.241985e+003;1.251786e-001
1.243913e+003;1.251437e-001
1.245842e+003;1.254114e-001
1.247771e+003;1.260763e-001
1.249699e+003;1.270072e-001
1.251628e+003;1.282365e-001
1.253556e+003;1.300514e-001
1.255485e+003;1.319692e-001
1.257413e+003;1.334119e-001
1.259342e+003;1.341381e-001
1.261270e+003;1.339686e-001
1.263199e+003;1.329159e-001
1.265127e+003;1.313739e-001
1.267056e+003;1.297040e-001
1.268985e+003;1.278719e-001
1.270913e+003;1.263119e-001
1.272842e+003;1.249800e-001
1.274770e+003;1.237148e-001
1.276699e+003;1.228140e-001
1.278627e+003;1.220400e-001
1.280556e+003;1.212277e-001
1.282484e+003;1.205661e-001
1.284413e+003;1.206203e-001
1.286342e+003;1.211503e-001
1.288270e+003;1.221801e-001
1.290199e+003;1.236627e-001
1.292127e+003;1.255657e-001
1.294056e+003;1.274910e-001
1.295984e+003;1.289665e-001
1.297913e+003;1.303948e-001
1.299841e+003;1.320073e-001
1.301770e+003;1.337100e-001
1.303698e+003;1.354647e-001
1.305627e+003;1.369053e-001
1.307556e+003;1.384403e-001
1.309484e+003;1.402001e-001
1.311413e+003;1.413691e-001
1.313341e+003;1.419121e-001
1.315270e+003;1.424981e-001
1.317198e+003;1.429811e-001
1.319127e+003;1.429183e-001
1.321055e+003;1.423900e-001
1.322984e+003;1.419604e-001
1.324912e+003;1.419255e-001
1.326841e+003;1.421918e-001
1.328770e+003;1.423102e-001
1.330698e+003;1.421412e-001
1.332627e+003;1.421286e-001
1.334555e+003;1.422092e-001
1.336484e+003;1.421188e-001
1.338412e+003;1.417478e-001
1.340341e+003;1.410756e-001
1.342269e+003;1.404566e-001
1.344198e+003;1.400031e-001
1.346126e+003;1.398929e-001
1.348055e+003;1.401628e-001
1.349984e+003;1.405614e-001
1.351912e+003;1.409877e-001
1.353841e+003;1.416374e-001
1.355769e+003;1.423067e-001
1.357698e+003;1.426967e-001
1.359626e+003;1.434429e-001
1.361555e+003;1.444099e-001
1.363483e+003;1.445940e-001
1.365412e+003;1.442758e-001
1.367341e+003;1.438835e-001
1.369269e+003;1.433401e-001
1.371198e+003;1.423532e-001
1.373126e+003;1.408063e-001
1.375055e+003;1.389409e-001
1.376983e+003;1.370061e-001
1.378912e+003;1.349920e-001
1.380840e+003;1.328059e-001
1.382769e+003;1.306145e-001
1.384698e+003;1.283992e-001
1.386626e+003;1.264088e-001
1.388555e+003;1.251855e-001
1.390483e+003;1.245670e-001
1.392412e+003;1.240506e-001
1.394340e+003;1.235410e-001
1.396269e+003;1.232818e-001
1.398197e+003;1.232285e-001
1.400126e+003;1.231057e-001
1.402054e+003;1.228821e-001
1.403983e+003;1.226899e-001
1.405911e+003;1.226583e-001
1.407840e+003;1.227281e-001
1.409769e+003;1.227867e-001
1.411697e+003;1.227364e-001
1.413626e+003;1.225135e-001
1.415554e+003;1.223986e-001
1.417483e+003;1.223214e-001
1.419411e+003;1.218975e-001
1.421340e+003;1.217667e-001
1.423268e+003;1.217539e-001
1.425197e+003;1.211918e-001
1.427125e+003;1.204141e-001
1.429054e+003;1.197759e-001
1.430983e+003;1.190173e-001
1.432911e+003;1.181827e-001
1.434840e+003;1.173844e-001
1.436768e+003;1.164688e-001
1.438697e+003;1.155650e-001
1.440625e+003;1.146640e-001
1.442554e+003;1.137382e-001
1.444482e+003;1.127314e-001
1.446411e+003;1.112973e-001
1.448340e+003;1.095684e-001
1.450268e+003;1.084141e-001
1.452197e+003;1.075339e-001
1.454125e+003;1.064532e-001
1.456054e+003;1.050675e-001
1.457982e+003;1.036296e-001
1.459911e+003;1.025054e-001
1.461839e+003;1.014263e-001
1.463768e+003;9.998135e-002
1.465697e+003;9.824567e-002
1.467625e+003;9.623965e-002
1.469554e+003;9.399890e-002
1.471482e+003;9.175165e-002
1.473411e+003;8.950566e-002
1.475339e+003;8.707739e-002
1.477268e+003;8.467557e-002
1.479196e+003;8.241306e-002
1.481125e+003;8.027452e-002
1.483053e+003;7.830281e-002
1.484982e+003;7.638580e-002
1.486911e+003;7.476888e-002
1.488839e+003;7.328534e-002
1.490768e+003;7.178422e-002
1.492696e+003;7.047530e-002
1.494625e+003;6.951232e-002
1.496553e+003;6.852470e-002
1.498482e+003;6.752833e-002
1.500410e+003;6.657800e-002
1.502339e+003;6.579261e-002
1.504267e+003;6.506252e-002
1.506196e+003;6.412175e-002
1.508125e+003;6.304990e-002
1.510053e+003;6.196196e-002
1.511982e+003;6.097316e-002
1.513910e+003;6.037199e-002
1.515839e+003;5.989817e-002
1.517767e+003;5.940625e-002
1.519696e+003;5.882541e-002
1.521624e+003;5.831898e-002
1.523553e+003;5.802429e-002
1.525481e+003;5.777143e-002
1.527410e+003;5.752942e-002
1.529339e+003;5.740472e-002
1.531267e+003;5.743788e-002
1.533196e+003;5.731434e-002
1.535124e+003;5.722588e-002
1.537053e+003;5.738403e-002
1.538981e+003;5.730399e-002
1.540910e+003;5.736399e-002
1.542838e+003;5.759815e-002
1.544767e+003;5.779209e-002
1.546695e+003;5.795628e-002
1.548624e+003;5.787582e-002
1.550553e+003;5.753573e-002
1.552481e+003;5.760065e-002
1.554410e+003;5.826665e-002
1.556338e+003;5.855817e-002
1.558267e+003;5.862540e-002
1.560195e+003;5.890308e-002
1.562124e+003;5.925712e-002
1.564052e+003;5.949516e-002
1.565981e+003;5.966216e-002
1.567910e+003;5.988261e-002
1.569838e+003;6.033723e-002
1.571767e+003;6.085407e-002
1.573695e+003;6.123621e-002
1.575624e+003;6.136068e-002
1.577552e+003;6.169148e-002
1.579481e+003;6.248437e-002
1.581409e+003;6.313733e-002
1.583338e+003;6.364723e-002
1.585266e+003;6.417905e-002
1.587195e+003;6.478575e-002
1.589124e+003;6.539607e-002
1.591052e+003;6.594709e-002
1.592981e+003;6.653336e-002
1.594909e+003;6.712355e-002
1.596838e+003;6.770740e-002
1.598766e+003;6.832343e-002
1.600695e+003;6.880541e-002
1.602623e+003;6.898578e-002
1.604552e+003;6.923651e-002
1.606480e+003;6.981429e-002
1.608409e+003;7.027689e-002
1.610338e+003;7.083133e-002
1.612266e+003;7.132110e-002
1.614195e+003;7.186604e-002
1.616123e+003;7.241476e-002
1.618052e+003;7.284879e-002
1.619980e+003;7.352130e-002
1.621909e+003;7.427233e-002
1.623837e+003;7.490835e-002
1.625766e+003;7.542828e-002
1.627694e+003;7.582526e-002
1.629623e+003;7.613868e-002
1.631552e+003;7.640997e-002
1.633480e+003;7.678871e-002
1.635409e+003;7.699881e-002
1.637337e+003;7.732321e-002
1.639266e+003;7.768091e-002
1.641194e+003;7.768994e-002
1.643123e+003;7.741618e-002
1.645051e+003;7.717283e-002
1.646980e+003;7.685621e-002
1.648909e+003;7.646106e-002
1.650837e+003;7.586230e-002
1.652766e+003;7.495882e-002
1.654694e+003;7.440633e-002
1.656623e+003;7.358658e-002
1.658551e+003;7.254290e-002
1.660480e+003;7.165196e-002
1.662408e+003;7.068954e-002
1.664337e+003;6.997125e-002
1.666266e+003;6.917445e-002
1.668194e+003;6.813981e-002
1.670123e+003;6.702673e-002
1.672051e+003;6.591858e-002
1.673980e+003;6.481906e-002
1.675908e+003;6.349254e-002
1.677837e+003;6.250737e-002
1.679765e+003;6.152302e-002
1.681694e+003;6.031583e-002
1.683622e+003;5.904124e-002
1.685551e+003;5.787378e-002
1.687479e+003;5.679581e-002
1.689408e+003;5.575811e-002
1.691337e+003;5.502515e-002
1.693265e+003;5.438742e-002
1.695194e+003;5.354821e-002
1.697122e+003;5.251816e-002
1.699051e+003;5.152113e-002
1.700979e+003;5.069362e-002
1.702908e+003;5.020554e-002
1.704836e+003;4.965429e-002
1.706765e+003;4.903741e-002
1.708693e+003;4.841911e-002
1.710622e+003;4.782600e-002
1.712551e+003;4.736119e-002
1.714479e+003;4.699198e-002
1.716408e+003;4.637444e-002
1.718336e+003;4.568276e-002
1.720265e+003;4.548462e-002
1.722193e+003;4.537213e-002
1.724122e+003;4.518355e-002
1.726050e+003;4.506819e-002
1.727979e+003;4.495819e-002
1.729908e+003;4.480979e-002
1.731836e+003;4.456858e-002
1.733765e+003;4.424799e-002
1.735693e+003;4.394091e-002
1.737622e+003;4.351906e-002
1.739550e+003;4.323999e-002
1.741479e+003;4.300133e-002
1.743407e+003;4.260883e-002
1.745336e+003;4.199067e-002
1.747265e+003;4.120718e-002
1.749193e+003;4.059217e-002
1.751122e+003;4.008144e-002
1.753050e+003;3.984989e-002
1.754979e+003;3.995864e-002
1.756907e+003;3.976418e-002
1.758836e+003;3.930803e-002
1.760764e+003;3.926240e-002
1.762693e+003;3.944647e-002
1.764621e+003;3.925936e-002
1.766550e+003;3.900243e-002
1.768479e+003;3.888747e-002
1.770407e+003;3.876663e-002
1.772336e+003;3.846721e-002
1.774264e+003;3.850732e-002
1.776193e+003;3.865967e-002
1.778121e+003;3.839777e-002
1.780050e+003;3.818315e-002
1.781978e+003;3.804384e-002
1.783907e+003;3.793850e-002
1.785835e+003;3.788900e-002
1.787764e+003;3.769872e-002
1.789693e+003;3.736269e-002
1.791621e+003;3.706499e-002
1.793550e+003;3.702594e-002
1.795478e+003;3.706394e-002
1.797407e+003;3.694531e-002
1.799335e+003;3.677582e-002
1.801264e+003;3.669288e-002
1.803192e+003;3.643271e-002
1.805121e+003;3.615754e-002
1.807049e+003;3.615380e-002
1.808978e+003;3.612474e-002
1.810907e+003;3.606792e-002
1.812835e+003;3.614130e-002
1.814764e+003;3.606490e-002
1.816692e+003;3.589075e-002
1.818621e+003;3.592602e-002
1.820549e+003;3.600755e-002
1.822478e+003;3.579409e-002
1.824406e+003;3.553173e-002
1.826335e+003;3.542056e-002
1.828264e+003;3.530352e-002
1.830192e+003;3.512274e-002
1.832121e+003;3.510557e-002
1.834049e+003;3.513586e-002
1.835978e+003;3.510870e-002
1.837906e+003;3.499907e-002
1.839835e+003;3.478371e-002
1.841763e+003;3.451163e-002
1.843692e+003;3.430117e-002
1.845620e+003;3.429295e-002
1.847549e+003;3.437224e-002
1.849478e+003;3.428836e-002
1.851406e+003;3.410973e-002
1.853335e+003;3.402028e-002
1.855263e+003;3.392060e-002
1.857192e+003;3.380501e-002
1.859120e+003;3.381496e-002
1.861049e+003;3.387389e-002
1.862977e+003;3.397767e-002
1.864906e+003;3.403389e-002
1.866834e+003;3.383194e-002
1.868763e+003;3.367047e-002
1.870692e+003;3.367465e-002
1.872620e+003;3.351470e-002
1.874549e+003;3.336669e-002
1.876477e+003;3.338176e-002
1.878406e+003;3.336433e-002
1.880334e+003;3.333002e-002
1.882263e+003;3.327357e-002
1.884191e+003;3.339027e-002
1.886120e+003;3.345293e-002
1.888048e+003;3.340949e-002
1.889977e+003;3.349623e-002
1.891906e+003;3.348017e-002
1.893834e+003;3.342173e-002
1.895763e+003;3.359213e-002
1.897691e+003;3.377445e-002
1.899620e+003;3.389445e-002
1.901548e+003;3.384140e-002
1.903477e+003;3.393776e-002
1.905405e+003;3.407747e-002
1.907334e+003;3.420293e-002
1.909262e+003;3.414604e-002
1.911191e+003;3.412819e-002
1.913120e+003;3.450710e-002
1.915048e+003;3.476727e-002
1.916977e+003;3.484021e-002
1.918905e+003;3.494409e-002
1.920834e+003;3.503143e-002
1.922762e+003;3.508783e-002
1.924691e+003;3.524591e-002
1.926619e+003;3.544180e-002
1.928548e+003;3.564933e-002
1.930477e+003;3.567955e-002
1.932405e+003;3.573045e-002
1.934334e+003;3.594088e-002
1.936262e+003;3.608153e-002
1.938191e+003;3.614857e-002
1.940119e+003;3.626033e-002
1.942048e+003;3.644197e-002
1.943976e+003;3.668304e-002
1.945905e+003;3.690880e-002
1.947833e+003;3.700383e-002
1.949762e+003;3.713373e-002
1.951691e+003;3.736590e-002
1.953619e+003;3.769413e-002
1.955548e+003;3.794819e-002
1.957476e+003;3.796518e-002
1.959405e+003;3.780130e-002
1.961333e+003;3.777603e-002
1.963262e+003;3.807162e-002
1.965190e+003;3.841070e-002
1.967119e+003;3.862925e-002
1.969047e+003;3.868611e-002
1.970976e+003;3.854595e-002
1.972905e+003;3.852720e-002
1.974833e+003;3.872976e-002
1.976762e+003;3.890986e-002
1.978690e+003;3.906960e-002
1.980619e+003;3.921627e-002
1.982547e+003;3.928141e-002
1.984476e+003;3.938388e-002
1.986404e+003;3.936814e-002
1.988333e+003;3.940028e-002
1.990261e+003;3.953026e-002
1.992190e+003;3.967273e-002
1.994119e+003;3.982421e-002
1.996047e+003;3.998323e-002
1.997976e+003;3.996928e-002
1.999904e+003;4.007199e-002
2.001833e+003;4.026917e-002
2.003761e+003;4.024655e-002
2.005690e+003;4.022936e-002
2.007618e+003;4.046327e-002
2.009547e+003;4.071305e-002
2.011476e+003;4.096553e-002
2.013404e+003;4.128643e-002
2.015333e+003;4.138625e-002
2.017261e+003;4.154351e-002
2.019190e+003;4.187035e-002
2.021118e+003;4.193256e-002
2.023047e+003;4.185499e-002
2.024975e+003;4.178742e-002
2.026904e+003;4.207538e-002
2.028833e+003;4.239061e-002
2.030761e+003;4.259892e-002
2.032690e+003;4.290681e-002
2.034618e+003;4.304607e-002
2.036547e+003;4.300279e-002
2.038475e+003;4.291555e-002
2.040404e+003;4.287719e-002
2.042332e+003;4.302471e-002
2.044261e+003;4.320177e-002
2.046189e+003;4.330789e-002
2.048118e+003;4.329519e-002
2.050047e+003;4.333886e-002
2.051975e+003;4.352291e-002
2.053904e+003;4.350511e-002
2.055832e+003;4.339327e-002
2.057761e+003;4.349603e-002
2.059689e+003;4.354364e-002
2.061618e+003;4.350731e-002
2.063546e+003;4.344329e-002
2.065475e+003;4.354470e-002
2.067404e+003;4.366182e-002
2.069332e+003;4.362625e-002
2.071260e+003;4.353075e-002
2.073189e+003;4.355763e-002
2.075118e+003;4.372983e-002
2.077046e+003;4.376812e-002
2.078975e+003;4.392848e-002
2.080903e+003;4.419289e-002
2.082832e+003;4.414348e-002
2.084760e+003;4.389446e-002
2.086689e+003;4.380587e-002
2.088617e+003;4.400079e-002
2.090546e+003;4.425511e-002
2.092475e+003;4.431906e-002
2.094403e+003;4.436478e-002
2.096332e+003;4.453484e-002
2.098260e+003;4.465310e-002
2.100189e+003;4.467815e-002
2.102117e+003;4.489807e-002
2.104046e+003;4.513866e-002
2.105974e+003;4.499402e-002
2.107903e+003;4.477133e-002
2.109832e+003;4.482199e-002
2.111760e+003;4.507932e-002
2.113688e+003;4.526955e-002
2.115617e+003;4.518821e-002
2.117546e+003;4.508679e-002
2.119474e+003;4.538931e-002
2.121403e+003;4.535598e-002
2.123331e+003;4.534119e-002
2.125260e+003;4.576821e-002
2.127188e+003;4.577991e-002
2.129117e+003;4.570190e-002
2.131045e+003;4.572944e-002
2.132974e+003;4.575631e-002
2.134903e+003;4.570396e-002
2.136831e+003;4.553849e-002
2.138760e+003;4.549577e-002
2.140688e+003;4.558453e-002
2.142617e+003;4.547226e-002
2.144545e+003;4.544839e-002
2.146474e+003;4.559859e-002
2.148402e+003;4.568747e-002
2.150331e+003;4.559892e-002
2.152260e+003;4.525892e-002
2.154188e+003;4.531034e-002
2.156117e+003;4.550195e-002
2.158045e+003;4.506341e-002
2.159974e+003;4.467668e-002
2.161902e+003;4.475836e-002
2.163831e+003;4.493221e-002
2.165759e+003;4.489671e-002
2.167688e+003;4.471671e-002
2.169616e+003;4.447603e-002
2.171545e+003;4.431011e-002
2.173474e+003;4.414322e-002
2.175402e+003;4.399778e-002
2.177331e+003;4.368021e-002
2.179259e+003;4.358950e-002
2.181188e+003;4.351782e-002
2.183116e+003;4.335307e-002
2.185045e+003;4.332645e-002
2.186973e+003;4.311186e-002
2.188902e+003;4.298297e-002
2.190831e+003;4.304842e-002
2.192759e+003;4.299346e-002
2.194688e+003;4.271169e-002
2.196616e+003;4.260386e-002
2.198545e+003;4.261778e-002
2.200473e+003;4.272189e-002
2.202402e+003;4.261899e-002
2.204330e+003;4.234184e-002
2.206259e+003;4.221161e-002
2.208188e+003;4.221277e-002
2.210116e+003;4.231273e-002
2.212044e+003;4.231554e-002
2.213973e+003;4.197983e-002
2.215902e+003;4.176345e-002
2.217830e+003;4.184689e-002
2.219759e+003;4.195118e-002
2.221687e+003;4.178881e-002
2.223616e+003;4.170374e-002
2.225544e+003;4.176623e-002
2.227473e+003;4.186802e-002
2.229401e+003;4.190257e-002
2.231330e+003;4.172067e-002
2.233259e+003;4.158372e-002
2.235187e+003;4.159569e-002
2.237116e+003;4.153024e-002
2.239044e+003;4.139962e-002
2.240973e+003;4.124650e-002
2.242901e+003;4.126198e-002
2.244830e+003;4.117738e-002
2.246758e+003;4.108064e-002
2.248687e+003;4.117334e-002
2.250615e+003;4.114879e-002
2.252544e+003;4.097772e-002
2.254473e+003;4.072433e-002
2.256401e+003;4.057482e-002
2.258330e+003;4.047155e-002
2.260258e+003;4.022842e-002
2.262187e+003;4.004154e-002
2.264115e+003;4.001211e-002
2.266044e+003;4.005924e-002
2.267972e+003;4.016234e-002
2.269901e+003;4.011600e-002
2.271830e+003;4.005561e-002
2.273758e+003;4.004085e-002
2.275687e+003;3.989282e-002
2.277615e+003;3.970645e-002
2.279544e+003;3.958710e-002
2.281472e+003;3.955033e-002
2.283401e+003;3.953476e-002
2.285329e+003;3.954685e-002
2.287258e+003;3.964975e-002
2.289187e+003;3.958692e-002
2.291115e+003;3.957149e-002
2.293043e+003;3.972965e-002
2.294972e+003;3.958913e-002
2.296901e+003;3.944244e-002
2.298829e+003;3.958808e-002
2.300758e+003;3.976640e-002
2.302686e+003;3.957617e-002
2.304615e+003;3.936723e-002
2.306543e+003;3.966848e-002
2.308472e+003;3.993292e-002
2.310400e+003;3.984146e-002
2.312329e+003;3.973768e-002
2.314258e+003;3.969070e-002
2.316186e+003;3.966038e-002
2.318115e+003;3.958042e-002
2.320043e+003;3.962688e-002
2.321972e+003;3.988697e-002
2.323900e+003;4.002193e-002
2.325829e+003;4.012610e-002
2.327757e+003;4.037642e-002
2.329686e+003;4.053834e-002
2.331615e+003;4.038202e-002
2.333543e+003;4.038031e-002
2.335472e+003;4.053492e-002
2.337400e+003;4.068641e-002
2.339329e+003;4.069307e-002
2.341257e+003;4.070122e-002
2.343186e+003;4.091666e-002
2.345114e+003;4.112905e-002
2.347043e+003;4.107554e-002
2.348971e+003;4.113418e-002
2.350900e+003;4.122708e-002
2.352829e+003;4.141544e-002
2.354757e+003;4.188965e-002
2.356686e+003;4.210996e-002
2.358614e+003;4.215975e-002
2.360543e+003;4.219601e-002
2.362471e+003;4.223384e-002
2.364400e+003;4.224845e-002
2.366328e+003;4.230674e-002
2.368257e+003;4.242546e-002
2.370186e+003;4.260163e-002
2.372114e+003;4.264655e-002
2.374042e+003;4.262429e-002
2.375971e+003;4.287536e-002
2.377900e+003;4.302207e-002
2.379828e+003;4.300964e-002
2.381757e+003;4.318926e-002
2.383685e+003;4.337518e-002
2.385614e+003;4.339338e-002
2.387542e+003;4.365786e-002
2.389471e+003;4.390004e-002
2.391399e+003;4.384065e-002
2.393328e+003;4.372939e-002
2.395257e+003;4.384938e-002
2.397185e+003;4.409385e-002
2.399114e+003;4.440607e-002
2.401042e+003;4.460720e-002
2.402971e+003;4.481992e-002
2.404899e+003;4.499589e-002
2.406828e+003;4.508462e-002
2.408756e+003;4.510112e-002
2.410685e+003;4.529519e-002
2.412614e+003;4.556723e-002
2.414542e+003;4.593358e-002
2.416471e+003;4.634838e-002
2.418399e+003;4.644889e-002
2.420328e+003;4.649867e-002
2.422256e+003;4.670339e-002
2.424185e+003;4.691789e-002
2.426113e+003;4.714559e-002
2.428042e+003;4.746378e-002
2.429970e+003;4.761128e-002
2.431899e+003;4.773597e-002
2.433828e+003;4.826297e-002
2.435756e+003;4.871581e-002
2.437685e+003;4.880689e-002
2.439613e+003;4.881068e-002
2.441542e+003;4.889006e-002
2.443470e+003;4.921454e-002
2.445399e+003;4.945805e-002
2.447327e+003;4.961432e-002
2.449256e+003;4.973770e-002
2.451185e+003;4.996574e-002
2.453113e+003;5.036416e-002
2.455042e+003;5.073521e-002
2.456970e+003;5.105932e-002
2.458899e+003;5.108034e-002
2.460827e+003;5.111046e-002
2.462756e+003;5.130987e-002
2.464684e+003;5.148397e-002
2.466613e+003;5.179113e-002
2.468542e+003;5.211794e-002
2.470470e+003;5.228556e-002
2.472398e+003;5.263600e-002
2.474327e+003;5.290973e-002
2.476256e+003;5.292477e-002
2.478184e+003;5.309612e-002
2.480113e+003;5.346752e-002
2.482041e+003;5.361693e-002
2.483970e+003;5.348772e-002
2.485898e+003;5.343470e-002
2.487827e+003;5.374643e-002
2.489755e+003;5.406149e-002
2.491684e+003;5.430522e-002
2.493613e+003;5.449458e-002
2.495541e+003;5.470153e-002
2.497470e+003;5.472438e-002
2.499398e+003;5.462167e-002
2.501327e+003;5.470337e-002
2.503255e+003;5.507412e-002
2.505184e+003;5.526415e-002
2.507112e+003;5.549331e-002
2.509041e+003;5.572059e-002
2.510969e+003;5.566213e-002
2.512898e+003;5.576881e-002
2.514827e+003;5.581767e-002
2.516755e+003;5.585268e-002
2.518684e+003;5.606985e-002
2.520612e+003;5.604670e-002
2.522541e+003;5.614488e-002
2.524469e+003;5.639781e-002
2.526398e+003;5.660847e-002
2.528326e+003;5.675401e-002
2.530255e+003;5.673928e-002
2.532184e+003;5.670560e-002
2.534112e+003;5.680582e-002
2.536041e+003;5.718075e-002
2.537969e+003;5.751973e-002
2.539898e+003;5.760042e-002
2.541826e+003;5.736274e-002
2.543755e+003;5.725030e-002
2.545683e+003;5.754023e-002
2.547612e+003;5.778478e-002
2.549541e+003;5.793500e-002
2.551469e+003;5.800085e-002
2.553397e+003;5.806489e-002
2.555326e+003;5.822876e-002
2.557255e+003;5.851889e-002
2.559183e+003;5.867019e-002
2.561112e+003;5.858630e-002
2.563040e+003;5.853527e-002
2.564969e+003;5.870941e-002
2.566897e+003;5.892104e-002
2.568826e+003;5.896919e-002
2.570754e+003;5.908641e-002
2.572683e+003;5.930369e-002
2.574612e+003;5.934908e-002
2.576540e+003;5.958294e-002
2.578469e+003;5.988056e-002
2.580397e+003;6.004672e-002
2.582326e+003;6.018668e-002
2.584254e+003;6.028222e-002
2.586183e+003;6.034854e-002
2.588111e+003;6.058645e-002
2.590040e+003;6.102769e-002
2.591969e+003;6.128604e-002
2.593897e+003;6.131569e-002
2.595826e+003;6.141003e-002
2.597754e+003;6.132874e-002
2.599683e+003;6.117872e-002
2.601611e+003;6.143713e-002
2.603540e+003;6.186330e-002
2.605468e+003;6.227422e-002
2.607397e+003;6.257127e-002
2.609325e+003;6.265540e-002
2.611254e+003;6.287175e-002
2.613183e+003;6.292115e-002
2.615111e+003;6.304607e-002
2.617040e+003;6.345983e-002
2.618968e+003;6.379861e-002
2.620897e+003;6.391709e-002
2.622825e+003;6.413504e-002
2.624754e+003;6.453065e-002
2.626682e+003;6.473432e-002
2.628611e+003;6.497127e-002
2.630540e+003;6.534153e-002
2.632468e+003;6.559919e-002
2.634396e+003;6.570198e-002
2.636325e+003;6.585280e-002
2.638254e+003;6.606269e-002
2.640182e+003;6.632772e-002
2.642111e+003;6.661176e-002
2.644039e+003;6.674740e-002
2.645968e+003;6.696194e-002
2.647896e+003;6.740870e-002
2.649825e+003;6.779550e-002
2.651753e+003;6.817462e-002
2.653682e+003;6.825635e-002
2.655611e+003;6.822025e-002
2.657539e+003;6.867604e-002
2.659468e+003;6.914640e-002
2.661396e+003;6.923123e-002
2.663325e+003;6.933383e-002
2.665253e+003;6.967718e-002
2.667182e+003;6.992984e-002
2.669110e+003;7.001925e-002
2.671039e+003;7.031577e-002
2.672968e+003;7.063581e-002
2.674896e+003;7.098546e-002
2.676825e+003;7.121178e-002
2.678753e+003;7.167572e-002
2.680682e+003;7.199981e-002
2.682610e+003;7.201616e-002
2.684539e+003;7.239804e-002
2.686467e+003;7.253660e-002
2.688396e+003;7.252873e-002
2.690324e+003;7.307440e-002
2.692253e+003;7.349563e-002
2.694182e+003;7.353001e-002
2.696110e+003;7.356102e-002
2.698039e+003;7.377141e-002
2.699967e+003;7.407251e-002
2.701896e+003;7.433909e-002
2.703824e+003;7.470858e-002
2.705753e+003;7.492492e-002
2.707681e+003;7.512180e-002
2.709610e+003;7.522387e-002
2.711539e+003;7.542489e-002
2.713467e+003;7.568490e-002
2.715396e+003;7.563943e-002
2.717324e+003;7.567685e-002
2.719253e+003;7.611574e-002
2.721181e+003;7.634705e-002
2.723110e+003;7.639311e-002
2.725038e+003;7.678115e-002
2.726967e+003;7.711153e-002
2.728896e+003;7.711291e-002
2.730824e+003;7.728469e-002
2.732752e+003;7.770745e-002
2.734681e+003;7.784181e-002
2.736610e+003;7.812643e-002
2.738538e+003;7.829015e-002
2.740467e+003;7.804631e-002
2.742395e+003;7.794647e-002
2.744324e+003;7.818204e-002
2.746252e+003;7.851436e-002
2.748181e+003;7.886259e-002
2.750109e+003;7.914016e-002
2.752038e+003;7.919598e-002
2.753967e+003;7.925193e-002
2.755895e+003;7.943764e-002
2.757824e+003;7.975349e-002
2.759752e+003;7.981703e-002
2.761681e+003;7.998021e-002
2.763609e+003;8.036051e-002
2.765538e+003;8.069222e-002
2.767466e+003;8.086071e-002
2.769395e+003;8.092530e-002
2.771323e+003;8.137233e-002
2.773252e+003;8.190959e-002
2.775181e+003;8.228706e-002
2.777109e+003;8.261251e-002
2.779038e+003;8.273079e-002
2.780966e+003;8.284658e-002
2.782895e+003;8.313137e-002
2.784823e+003;8.357421e-002
2.786752e+003;8.399695e-002
2.788680e+003;8.442590e-002
2.790609e+003;8.483412e-002
2.792538e+003;8.522100e-002
2.794466e+003;8.579542e-002
2.796395e+003;8.590775e-002
2.798323e+003;8.594906e-002
2.800252e+003;8.636195e-002
2.802180e+003;8.681004e-002
2.804109e+003;8.732329e-002
2.806037e+003;8.785486e-002
2.807966e+003;8.822466e-002
2.809895e+003;8.887463e-002
2.811823e+003;8.958971e-002
2.813751e+003;9.008582e-002
2.815680e+003;9.038013e-002
2.817609e+003;9.079567e-002
2.819537e+003;9.143595e-002
2.821466e+003;9.214294e-002
2.823394e+003;9.261347e-002
2.825323e+003;9.321406e-002
2.827251e+003;9.390379e-002
2.829180e+003;9.453184e-002
2.831108e+003;9.509983e-002
2.833037e+003;9.574530e-002
2.834966e+003;9.667909e-002
2.836894e+003;9.756179e-002
2.838823e+003;9.828643e-002
2.840751e+003;9.961287e-002
2.842680e+003;1.008089e-001
2.844608e+003;1.021513e-001
2.846537e+003;1.036951e-001
2.848465e+003;1.049623e-001
2.850394e+003;1.059634e-001
2.852323e+003;1.069827e-001
2.854251e+003;1.085323e-001
2.856180e+003;1.102157e-001
2.858108e+003;1.115398e-001
2.860037e+003;1.127578e-001
2.861965e+003;1.143029e-001
2.863894e+003;1.160558e-001
2.865822e+003;1.174141e-001
2.867751e+003;1.185862e-001
2.869679e+003;1.198085e-001
2.871608e+003;1.208406e-001
2.873536e+003;1.217819e-001
2.875465e+003;1.224635e-001
2.877394e+003;1.229858e-001
2.879322e+003;1.235269e-001
2.881251e+003;1.241017e-001
2.883179e+003;1.245867e-001
2.885108e+003;1.249359e-001
2.887036e+003;1.250765e-001
2.888965e+003;1.252906e-001
2.890893e+003;1.253319e-001
2.892822e+003;1.251970e-001
2.894750e+003;1.253562e-001
2.896679e+003;1.251792e-001
2.898608e+003;1.244659e-001
2.900536e+003;1.235656e-001
2.902465e+003;1.227846e-001
2.904393e+003;1.222032e-001
2.906322e+003;1.218513e-001
2.908250e+003;1.212091e-001
2.910179e+003;1.202860e-001
2.912107e+003;1.198328e-001
2.914036e+003;1.195149e-001
2.915965e+003;1.189846e-001
2.917893e+003;1.182522e-001
2.919822e+003;1.175158e-001
2.921750e+003;1.167888e-001
2.923679e+003;1.158045e-001
2.925607e+003;1.145446e-001
2.927536e+003;1.130911e-001
2.929464e+003;1.120076e-001
2.931393e+003;1.111626e-001
2.933322e+003;1.099631e-001
2.935250e+003;1.088554e-001
2.937178e+003;1.080249e-001
2.939107e+003;1.064994e-001
2.941036e+003;1.050304e-001
2.942964e+003;1.038925e-001
2.944893e+003;1.028092e-001
2.946821e+003;1.012967e-001
2.948750e+003;9.942740e-002
2.950678e+003;9.793681e-002
2.952607e+003;9.720816e-002
2.954535e+003;9.672293e-002
2.956464e+003;9.574649e-002
2.958393e+003;9.437571e-002
2.960321e+003;9.306617e-002
2.962250e+003;9.207543e-002
2.964178e+003;9.139849e-002
2.966107e+003;9.076929e-002
2.968035e+003;9.023625e-002
2.969964e+003;8.956552e-002
2.971892e+003;8.869821e-002
2.973821e+003;8.810829e-002
2.975750e+003;8.738235e-002
2.977678e+003;8.657375e-002
2.979607e+003;8.616784e-002
2.981535e+003;8.595310e-002
2.983464e+003;8.550444e-002
2.985392e+003;8.508725e-002
2.987321e+003;8.496022e-002
2.989249e+003;8.469851e-002
2.991178e+003;8.435415e-002
2.993106e+003;8.423708e-002
2.995035e+003;8.439153e-002
2.996964e+003;8.415377e-002
2.998892e+003;8.344895e-002
3.000821e+003;8.332024e-002
3.002749e+003;8.341964e-002
3.004678e+003;8.353701e-002
3.006606e+003;8.362309e-002
3.008535e+003;8.369882e-002
3.010463e+003;8.405975e-002
3.012392e+003;8.449315e-002
3.014321e+003;8.483183e-002
3.016249e+003;8.508579e-002
3.018177e+003;8.536919e-002
3.020106e+003;8.564749e-002
3.022035e+003;8.609407e-002
3.023963e+003;8.650621e-002
3.025892e+003;8.685832e-002
3.027820e+003;8.731453e-002
3.029749e+003;8.771344e-002
3.031677e+003;8.801998e-002
3.033606e+003;8.833311e-002
3.035534e+003;8.894441e-002
3.037463e+003;8.943661e-002
3.039392e+003;8.984587e-002
3.041320e+003;9.056528e-002
3.043249e+003;9.140009e-002
3.045177e+003;9.172218e-002
3.047106e+003;9.190602e-002
3.049034e+003;9.218325e-002
3.050963e+003;9.295645e-002
3.052891e+003;9.359796e-002
3.054820e+003;9.385781e-002
3.056749e+003;9.452109e-002
3.058677e+003;9.534320e-002
3.060606e+003;9.595598e-002
3.062534e+003;9.621897e-002
3.064463e+003;9.659643e-002
3.066391e+003;9.736899e-002
3.068320e+003;9.801532e-002
3.070248e+003;9.848512e-002
3.072177e+003;9.894510e-002
3.074105e+003;9.935230e-002
3.076034e+003;1.000663e-001
3.077963e+003;1.010069e-001
3.079891e+003;1.014778e-001
3.081820e+003;1.020150e-001
3.083748e+003;1.029817e-001
3.085677e+003;1.035892e-001
3.087605e+003;1.037210e-001
3.089534e+003;1.041301e-001
3.091462e+003;1.049300e-001
3.093391e+003;1.057428e-001
3.095320e+003;1.065742e-001
3.097248e+003;1.075468e-001
3.099177e+003;1.083485e-001
3.101105e+003;1.085861e-001
3.103034e+003;1.089065e-001
3.104962e+003;1.095290e-001
3.106891e+003;1.104448e-001
3.108819e+003;1.112370e-001
3.110748e+003;1.118203e-001
3.112677e+003;1.123875e-001
3.114605e+003;1.131033e-001
3.116533e+003;1.139190e-001
3.118462e+003;1.145617e-001
3.120391e+003;1.151276e-001
3.122319e+003;1.155813e-001
3.124248e+003;1.162836e-001
3.126176e+003;1.173959e-001
3.128105e+003;1.184992e-001
3.130033e+003;1.190779e-001
3.131962e+003;1.194033e-001
3.133890e+003;1.201050e-001
3.135819e+003;1.209931e-001
3.137748e+003;1.218656e-001
3.139676e+003;1.227417e-001
3.141605e+003;1.233752e-001
3.143533e+003;1.241642e-001
3.145462e+003;1.249396e-001
3.147390e+003;1.252476e-001
3.149319e+003;1.260368e-001
3.151247e+003;1.268103e-001
3.153176e+003;1.274064e-001
3.155104e+003;1.278252e-001
3.157033e+003;1.285655e-001
3.158962e+003;1.293205e-001
3.160890e+003;1.296704e-001
3.162819e+003;1.304018e-001
3.164747e+003;1.311740e-001
3.166676e+003;1.320601e-001
3.168604e+003;1.330804e-001
3.170533e+003;1.337993e-001
3.172461e+003;1.342342e-001
3.174390e+003;1.348358e-001
3.176319e+003;1.356244e-001
3.178247e+003;1.362586e-001
3.180176e+003;1.369634e-001
3.182104e+003;1.377211e-001
3.184033e+003;1.386392e-001
3.185961e+003;1.395677e-001
3.187890e+003;1.401503e-001
3.189818e+003;1.405006e-001
3.191747e+003;1.411028e-001
3.193676e+003;1.417305e-001
3.195604e+003;1.423723e-001
3.197532e+003;1.429990e-001
3.199461e+003;1.435790e-001
3.201390e+003;1.442172e-001
3.203318e+003;1.450054e-001
3.205247e+003;1.460239e-001
3.207175e+003;1.467502e-001
3.209104e+003;1.472769e-001
3.211032e+003;1.480815e-001
3.212961e+003;1.487384e-001
3.214889e+003;1.491629e-001
3.216818e+003;1.496787e-001
3.218747e+003;1.502253e-001
3.220675e+003;1.505830e-001
3.222604e+003;1.515278e-001
3.224532e+003;1.522105e-001
3.226461e+003;1.524482e-001
3.228389e+003;1.528243e-001
3.230318e+003;1.539889e-001
3.232246e+003;1.548827e-001
3.234175e+003;1.555202e-001
3.236104e+003;1.560479e-001
3.238032e+003;1.563168e-001
3.239961e+003;1.569545e-001
3.241889e+003;1.578214e-001
3.243818e+003;1.580245e-001
3.245746e+003;1.582918e-001
3.247675e+003;1.588289e-001
3.249603e+003;1.591247e-001
3.251532e+003;1.597049e-001
3.253460e+003;1.605907e-001
3.255389e+003;1.613331e-001
3.257318e+003;1.617900e-001
3.259246e+003;1.622549e-001
3.261175e+003;1.626848e-001
3.263103e+003;1.629844e-001
3.265032e+003;1.631614e-001
3.266960e+003;1.635220e-001
3.268889e+003;1.641046e-001
3.270817e+003;1.643553e-001
3.272746e+003;1.645011e-001
3.274675e+003;1.651478e-001
3.276603e+003;1.656402e-001
3.278531e+003;1.660344e-001
3.280460e+003;1.661961e-001
3.282389e+003;1.661206e-001
3.284317e+003;1.664803e-001
3.286246e+003;1.675803e-001
3.288174e+003;1.676764e-001
3.290103e+003;1.672132e-001
3.292031e+003;1.675286e-001
3.293960e+003;1.679591e-001
3.295888e+003;1.684441e-001
3.297817e+003;1.689085e-001
3.299746e+003;1.690791e-001
3.301674e+003;1.694707e-001
3.303603e+003;1.700060e-001
3.305531e+003;1.702257e-001
3.307460e+003;1.705634e-001
3.309388e+003;1.709688e-001
3.311317e+003;1.710241e-001
3.313245e+003;1.708727e-001
3.315174e+003;1.706730e-001
3.317103e+003;1.708199e-001
3.319031e+003;1.711004e-001
3.320960e+003;1.713242e-001
3.322888e+003;1.711383e-001
3.324817e+003;1.711041e-001
3.326745e+003;1.714051e-001
3.328674e+003;1.718323e-001
3.330602e+003;1.720255e-001
3.332531e+003;1.717660e-001
3.334459e+003;1.718928e-001
3.336388e+003;1.720782e-001
3.338317e+003;1.717395e-001
3.340245e+003;1.715530e-001
3.342174e+003;1.719098e-001
3.344102e+003;1.721157e-001
3.346031e+003;1.722322e-001
3.347959e+003;1.724966e-001
3.349888e+003;1.722485e-001
3.351816e+003;1.716024e-001
3.353745e+003;1.713198e-001
3.355674e+003;1.712615e-001
3.357602e+003;1.711699e-001
3.359531e+003;1.711197e-001
3.361459e+003;1.712151e-001
3.363388e+003;1.710083e-001
3.365316e+003;1.705128e-001
3.367245e+003;1.698955e-001
3.369173e+003;1.695133e-001
3.371102e+003;1.693082e-001
3.373031e+003;1.691697e-001
3.374959e+003;1.689072e-001
3.376887e+003;1.689060e-001
3.378816e+003;1.690059e-001
3.380745e+003;1.685313e-001
3.382673e+003;1.681592e-001
3.384602e+003;1.677146e-001
3.386530e+003;1.671495e-001
3.388459e+003;1.669719e-001
3.390387e+003;1.666733e-001
3.392316e+003;1.662305e-001
3.394244e+003;1.662828e-001
3.396173e+003;1.658144e-001
3.398102e+003;1.647949e-001
3.400030e+003;1.641757e-001
3.401959e+003;1.638022e-001
3.403887e+003;1.631667e-001
3.405816e+003;1.624833e-001
3.407744e+003;1.621421e-001
3.409673e+003;1.616683e-001
3.411601e+003;1.610014e-001
3.413530e+003;1.606096e-001
3.415458e+003;1.603548e-001
3.417387e+003;1.596892e-001
3.419316e+003;1.588233e-001
3.421244e+003;1.582288e-001
3.423173e+003;1.577013e-001
3.425101e+003;1.567119e-001
3.427030e+003;1.555122e-001
3.428958e+003;1.552372e-001
3.430887e+003;1.548650e-001
3.432815e+003;1.539095e-001
3.434744e+003;1.534725e-001
3.436673e+003;1.530316e-001
3.438601e+003;1.522456e-001
3.440530e+003;1.511870e-001
3.442458e+003;1.502919e-001
3.444387e+003;1.497998e-001
3.446315e+003;1.487886e-001
3.448244e+003;1.471280e-001
3.450172e+003;1.459216e-001
3.452101e+003;1.452416e-001
3.454030e+003;1.440652e-001
3.455958e+003;1.425265e-001
3.457886e+003;1.413734e-001
3.459815e+003;1.406368e-001
3.461744e+003;1.395923e-001
3.463672e+003;1.381568e-001
3.465601e+003;1.366563e-001
3.467529e+003;1.354782e-001
3.469458e+003;1.345282e-001
3.471386e+003;1.336179e-001
3.473315e+003;1.328962e-001
3.475243e+003;1.317756e-001
3.477172e+003;1.303348e-001
3.479101e+003;1.289974e-001
3.481029e+003;1.277034e-001
3.482958e+003;1.264307e-001
3.484886e+003;1.253051e-001
3.486815e+003;1.241707e-001
3.488743e+003;1.229775e-001
3.490672e+003;1.214347e-001
3.492600e+003;1.197928e-001
3.494529e+003;1.186543e-001
3.496458e+003;1.173487e-001
3.498386e+003;1.157074e-001
3.500315e+003;1.141933e-001
3.502243e+003;1.127320e-001
3.504172e+003;1.113494e-001
3.506100e+003;1.103208e-001
3.508029e+003;1.089445e-001
3.509957e+003;1.073267e-001
3.511886e+003;1.060470e-001
3.513814e+003;1.050371e-001
3.515743e+003;1.036126e-001
3.517672e+003;1.020264e-001
3.519600e+003;1.008143e-001
3.521529e+003;9.980474e-002
3.523457e+003;9.888161e-002
3.525386e+003;9.792905e-002
3.527314e+003;9.677319e-002
3.529243e+003;9.525044e-002
3.531171e+003;9.411176e-002
3.533100e+003;9.317859e-002
3.535029e+003;9.232306e-002
3.536957e+003;9.111179e-002
3.538885e+003;9.003571e-002
3.540814e+003;8.899663e-002
3.542743e+003;8.706768e-002
3.544671e+003;8.515622e-002
3.546600e+003;8.459362e-002
3.548528e+003;8.441181e-002
3.550457e+003;8.336315e-002
3.552385e+003;8.208091e-002
3.554314e+003;8.080994e-002
3.556242e+003;7.971193e-002
3.558171e+003;7.855184e-002
3.560100e+003;7.764731e-002
3.562028e+003;7.679440e-002
3.563957e+003;7.576557e-002
3.565885e+003;7.467277e-002
3.567814e+003;7.376442e-002
3.569742e+003;7.287031e-002
3.571671e+003;7.212177e-002
3.573599e+003;7.138178e-002
3.575528e+003;7.021999e-002
3.577457e+003;6.920651e-002
3.579385e+003;6.838168e-002
3.581314e+003;6.748541e-002
3.583242e+003;6.670753e-002
3.585171e+003;6.579515e-002
3.587099e+003;6.459451e-002
3.589028e+003;6.381123e-002
3.590956e+003;6.347367e-002
3.592885e+003;6.305714e-002
3.594813e+003;6.266370e-002
3.596742e+003;6.196816e-002
3.598671e+003;6.078260e-002
3.600599e+003;5.967816e-002
3.602528e+003;5.896597e-002
3.604456e+003;5.834593e-002
3.606385e+003;5.810795e-002
3.608313e+003;5.755623e-002
3.610242e+003;5.656725e-002
3.612170e+003;5.574240e-002
3.614099e+003;5.510681e-002
3.616028e+003;5.457899e-002
3.617956e+003;5.380261e-002
3.619885e+003;5.291411e-002
3.621813e+003;5.238068e-002
3.623742e+003;5.190198e-002
3.625670e+003;5.124779e-002
3.627599e+003;5.063777e-002
3.629527e+003;4.958621e-002
3.631456e+003;4.876467e-002
3.633385e+003;4.841541e-002
3.635313e+003;4.790502e-002
3.637241e+003;4.680856e-002
3.639170e+003;4.561287e-002
3.641099e+003;4.485810e-002
3.643027e+003;4.435297e-002
3.644956e+003;4.368919e-002
3.646884e+003;4.290956e-002
3.648813e+003;4.186156e-002
3.650741e+003;4.075250e-002
3.652670e+003;4.013457e-002
3.654598e+003;3.954884e-002
3.656527e+003;3.852137e-002
3.658456e+003;3.736402e-002
3.660384e+003;3.668466e-002
3.662313e+003;3.619186e-002
3.664241e+003;3.541053e-002
3.666170e+003;3.455787e-002
3.668098e+003;3.365854e-002
3.670027e+003;3.258360e-002
3.671955e+003;3.180495e-002
3.673884e+003;3.144886e-002
3.675813e+003;3.067032e-002
3.677741e+003;2.985353e-002
3.679669e+003;2.931754e-002
3.681598e+003;2.866795e-002
3.683527e+003;2.810062e-002
3.685455e+003;2.761205e-002
3.687384e+003;2.704219e-002
3.689312e+003;2.653072e-002
3.691241e+003;2.586322e-002
3.693169e+003;2.543443e-002
3.695098e+003;2.541711e-002
3.697026e+003;2.516649e-002
3.698955e+003;2.490166e-002
3.700884e+003;2.483808e-002
3.702812e+003;2.443147e-002
3.704741e+003;2.388179e-002
3.706669e+003;2.329277e-002
3.708598e+003;2.273029e-002
3.710526e+003;2.250344e-002
3.712455e+003;2.235847e-002
3.714383e+003;2.243742e-002
3.716312e+003;2.244949e-002
3.718240e+003;2.208307e-002
3.720169e+003;2.170275e-002
3.722098e+003;2.147964e-002
3.724026e+003;2.151320e-002
3.725955e+003;2.143052e-002
3.727883e+003;2.107623e-002
3.729812e+003;2.066812e-002
3.731740e+003;2.054683e-002
3.733669e+003;2.049378e-002
3.735597e+003;2.025147e-002
3.737526e+003;2.030674e-002
3.739455e+003;2.049959e-002
3.741383e+003;2.055259e-002
3.743312e+003;2.044551e-002
3.745240e+003;2.037858e-002
3.747169e+003;2.038015e-002
3.749097e+003;2.017247e-002
3.751026e+003;1.996755e-002
3.752954e+003;1.971333e-002
3.754883e+003;1.989589e-002
3.756812e+003;2.020554e-002
3.758740e+003;1.995392e-002
3.760668e+003;1.956873e-002
3.762597e+003;1.929655e-002
3.764526e+003;1.938417e-002
3.766454e+003;1.983005e-002
3.768383e+003;1.974076e-002
3.770311e+003;1.931699e-002
3.772240e+003;1.934495e-002
3.774168e+003;1.938427e-002
3.776097e+003;1.921616e-002
3.778025e+003;1.907329e-002
3.779954e+003;1.904788e-002
3.781883e+003;1.908711e-002
3.783811e+003;1.905231e-002
3.785740e+003;1.877465e-002
3.787668e+003;1.868591e-002
3.789597e+003;1.887506e-002
3.791525e+003;1.921765e-002
3.793454e+003;1.923192e-002
3.795382e+003;1.884845e-002
3.797311e+003;1.865862e-002
3.799240e+003;1.896459e-002
3.801168e+003;1.874825e-002
3.803097e+003;1.817496e-002
3.805025e+003;1.817786e-002
3.806954e+003;1.817099e-002
3.808882e+003;1.837640e-002
3.810811e+003;1.869366e-002
3.812739e+003;1.846113e-002
3.814668e+003;1.836153e-002
3.816596e+003;1.877115e-002
3.818525e+003;1.915248e-002
3.820454e+003;1.904785e-002
3.822382e+003;1.866156e-002
3.824311e+003;1.867512e-002
3.826239e+003;1.881814e-002
3.828168e+003;1.864063e-002
3.830096e+003;1.822036e-002
3.832025e+003;1.816632e-002
3.833953e+003;1.873624e-002
3.835882e+003;1.924585e-002
3.837811e+003;1.920023e-002
3.839739e+003;1.929063e-002
3.841667e+003;1.913492e-002
3.843596e+003;1.891545e-002
3.845525e+003;1.899741e-002
3.847453e+003;1.915244e-002
3.849382e+003;1.910608e-002
3.851310e+003;1.881917e-002
3.853239e+003;1.859170e-002
3.855167e+003;1.878831e-002
3.857096e+003;1.951578e-002
3.859024e+003;2.015199e-002
3.860953e+003;2.013925e-002
3.862882e+003;1.992981e-002
3.864810e+003;1.985950e-002
3.866739e+003;2.026921e-002
3.868667e+003;2.049785e-002
3.870596e+003;2.010864e-002
3.872524e+003;2.002737e-002
3.874453e+003;2.032237e-002
3.876381e+003;2.015112e-002
3.878310e+003;2.006537e-002
3.880239e+003;2.029435e-002
3.882167e+003;2.054412e-002
3.884096e+003;2.110353e-002
3.886024e+003;2.166026e-002
3.887953e+003;2.191322e-002
3.889881e+003;2.160610e-002
3.891810e+003;2.104493e-002
3.893738e+003;2.096557e-002
3.895667e+003;2.091418e-002
3.897595e+003;2.112343e-002
3.899524e+003;2.133220e-002
3.901453e+003;2.150203e-002
3.903381e+003;2.197233e-002
3.905310e+003;2.230848e-002
3.907238e+003;2.261257e-002
3.909167e+003;2.286553e-002
3.911095e+003;2.259240e-002
3.913024e+003;2.229680e-002
3.914952e+003;2.267803e-002
3.916881e+003;2.293106e-002
3.918810e+003;2.265918e-002
3.920738e+003;2.268476e-002
3.922667e+003;2.294140e-002
3.924595e+003;2.287755e-002
3.926524e+003;2.304456e-002
3.928452e+003;2.379705e-002
3.930381e+003;2.440998e-002
3.932309e+003;2.477935e-002
3.934238e+003;2.491313e-002
3.936167e+003;2.445106e-002
3.938095e+003;2.414232e-002
3.940023e+003;2.426855e-002
3.941952e+003;2.447953e-002
3.943881e+003;2.438636e-002
3.945809e+003;2.462906e-002
3.947738e+003;2.535715e-002
3.949666e+003;2.541423e-002
3.951595e+003;2.492057e-002
3.953523e+003;2.466757e-002
3.955452e+003;2.435331e-002
3.957380e+003;2.408134e-002
3.959309e+003;2.480061e-002
3.961238e+003;2.527461e-002
3.963166e+003;2.493668e-002
3.965095e+003;2.474750e-002
3.967023e+003;2.500687e-002
3.968952e+003;2.556585e-002
3.970880e+003;2.569002e-002
3.972809e+003;2.547835e-002
3.974737e+003;2.554539e-002
3.976666e+003;2.564630e-002
3.978594e+003;2.552529e-002
3.980523e+003;2.537415e-002
3.982452e+003;2.547986e-002
3.984380e+003;2.536853e-002
3.986309e+003;2.494472e-002
3.988237e+003;2.488180e-002
3.990166e+003;2.530664e-002
3.992094e+003;2.544827e-002
3.994023e+003;2.536006e-002
3.995951e+003;2.548060e-002
3.997880e+003;2.566784e-002
3.999809e+003;2.583249e-002
4.001737e+003;0.000000e+000
