3.992094e+002;0.000000e+000
4.011380e+002;0.000000e+000
4.030665e+002;0.000000e+000
4.049951e+002;0.000000e+000
4.069236e+002;0.000000e+000
4.088522e+002;0.000000e+000
4.107807e+002;0.000000e+000
4.127093e+002;0.000000e+000
4.146378e+002;0.000000e+000
4.165664e+002;0.000000e+000
4.184949e+002;0.000000e+000
4.204235e+002;0.000000e+000
4.223520e+002;0.000000e+000
4.242806e+002;0.000000e+000
4.262091e+002;0.000000e+000
4.281377e+002;0.000000e+000
4.300662e+002;0.000000e+000
4.319948e+002;0.000000e+000
4.339233e+002;0.000000e+000
4.358519e+002;0.000000e+000
4.377804e+002;0.000000e+000
4.397090e+002;0.000000e+000
4.416375e+002;0.000000e+000
4.435660e+002;0.000000e+000
4.454946e+002;0.000000e+000
4.474232e+002;0.000000e+000
4.493517e+002;0.000000e+000
4.512802e+002;0.000000e+000
4.532088e+002;0.000000e+000
4.551373e+002;0.000000e+000
4.570659e+002;0.000000e+000
4.589944e+002;0.000000e+000
4.609230e+002;0.000000e+000
4.628515e+002;0.000000e+000
4.647801e+002;0.000000e+000
4.667086e+002;0.000000e+000
4.686372e+002;0.000000e+000
4.705657e+002;0.000000e+000
4.724943e+002;0.000000e+000
4.744228e+002;0.000000e+000
4.763513e+002;0.000000e+000
4.782799e+002;0.000000e+000
4.802085e+002;0.000000e+000
4.821370e+002;0.000000e+000
4.840656e+002;0.000000e+000
4.859941e+002;0.000000e+000
4.879226e+002;0.000000e+000
4.898512e+002;0.000000e+000
4.917798e+002;0.000000e+000
4.937083e+002;0.000000e+000
4.956368e+002;0.000000e+000
4.975654e+002;0.000000e+000
4.994939e+002;0.000000e+000
5.014225e+002;0.000000e+000
5.033510e+002;0.000000e+000
5.052796e+002;0.000000e+000
5.072081e+002;0.000000e+000
5.091367e+002;0.000000e+000
5.110652e+002;0.000000e+000
5.129938e+002;0.000000e+000
5.149223e+002;0.000000e+000
5.168509e+002;0.000000e+000
5.187794e+002;0.000000e+000
5.207079e+002;0.000000e+000
5.226365e+002;0.000000e+000
5.245651e+002;0.000000e+000
5.264936e+002;0.000000e+000
5.284222e+002;0.000000e+000
5.303507e+002;0.000000e+000
5.322792e+002;0.000000e+000
5.342078e+002;0.000000e+000
5.361364e+002;0.000000e+000
5.380649e+002;0.000000e+000
5.399935e+002;0.000000e+000
5.419220e+002;0.000000e+000
5.438505e+002;0.000000e+000
5.457791e+002;0.000000e+000
5.477076e+002;0.000000e+000
5.496362e+002;0.000000e+000
5.515648e+002;0.000000e+000
5.534933e+002;0.000000e+000
5.554218e+002;0.000000e+000
5.573504e+002;0.000000e+000
5.592789e+002;0.000000e+000
5.612075e+002;0.000000e+000
5.631360e+002;0.000000e+000
5.650646e+002;0.000000e+000
5.669931e+002;0.000000e+000
5.689217e+002;0.000000e+000
5.708502e+002;0.000000e+000
5.727787e+002;0.000000e+000
5.747073e+002;0.000000e+000
5.766359e+002;0.000000e+000
5.785644e+002;0.000000e+000
5.804930e+002;0.000000e+000
5.824215e+002;0.000000e+000
5.843500e+002;0.000000e+000
5.862786e+002;0.000000e+000
5.882072e+002;0.000000e+000
5.901357e+002;0.000000e+000
5.920643e+002;0.000000e+000
5.939928e+002;0.000000e+000
5.959213e+002;0.000000e+000
5.978499e+002;0.000000e+000
5.997784e+002;2.658622e-001
6.017070e+002;2.687866e-001
6.036355e+002;2.756538e-001
6.055641e+002;2.809712e-001
6.074926e+002;2.821943e-001
6.094211e+002;2.778285e-001
6.113497e+002;2.703978e-001
6.132783e+002;2.686330e-001
6.152068e+002;2.695356e-001
6.171354e+002;2.683616e-001
6.190639e+002;2.624634e-001
6.209924e+002;2.538153e-001
6.229210e+002;2.479352e-001
6.248495e+002;2.464588e-001
6.267781e+002;2.465545e-001
6.287067e+002;2.440992e-001
6.306352e+002;2.447338e-001
6.325637e+002;2.471626e-001
6.344923e+002;2.473428e-001
6.364208e+002;2.440259e-001
6.383494e+002;2.446102e-001
6.402780e+002;2.444548e-001
6.422065e+002;2.382677e-001
6.441350e+002;2.369130e-001
6.460636e+002;2.426048e-001
6.479921e+002;2.433584e-001
6.499207e+002;2.402880e-001
6.518492e+002;2.388269e-001
6.537778e+002;2.407899e-001
6.557063e+002;2.431428e-001
6.576349e+002;2.442219e-001
6.595634e+002;2.474839e-001
6.614919e+002;2.521023e-001
6.634205e+002;2.541726e-001
6.653491e+002;2.560678e-001
6.672776e+002;2.578861e-001
6.692062e+002;2.561258e-001
6.711347e+002;2.505861e-001
6.730632e+002;2.415383e-001
6.749918e+002;2.291188e-001
6.769203e+002;2.153626e-001
6.788489e+002;2.048158e-001
6.807775e+002;1.972989e-001
6.827060e+002;1.906940e-001
6.846345e+002;1.869720e-001
6.865631e+002;1.861482e-001
6.884916e+002;1.843234e-001
6.904202e+002;1.812049e-001
6.923488e+002;1.798698e-001
6.942773e+002;1.799446e-001
6.962058e+002;1.813213e-001
6.981344e+002;1.818089e-001
7.000629e+002;1.808376e-001
7.019915e+002;1.796803e-001
7.039200e+002;1.780803e-001
7.058486e+002;1.773085e-001
7.077771e+002;1.774169e-001
7.097057e+002;1.767791e-001
7.116342e+002;1.755872e-001
7.135627e+002;1.739732e-001
7.154913e+002;1.727148e-001
7.174199e+002;1.720762e-001
7.193484e+002;1.716290e-001
7.212770e+002;1.699641e-001
7.232055e+002;1.676400e-001
7.251340e+002;1.667446e-001
7.270626e+002;1.656800e-001
7.289911e+002;1.636218e-001
7.309197e+002;1.616938e-001
7.328483e+002;1.611579e-001
7.347768e+002;1.595130e-001
7.367053e+002;1.571079e-001
7.386339e+002;1.560843e-001
7.405624e+002;1.549585e-001
7.424910e+002;1.535811e-001
7.444196e+002;1.526024e-001
7.463481e+002;1.517319e-001
7.482766e+002;1.509082e-001
7.502052e+002;1.498753e-001
7.521337e+002;1.487561e-001
7.540623e+002;1.478795e-001
7.559908e+002;1.465649e-001
7.579194e+002;1.442292e-001
7.598479e+002;1.432169e-001
7.617765e+002;1.424800e-001
7.637050e+002;1.408682e-001
7.656335e+002;1.399792e-001
7.675621e+002;1.400270e-001
7.694907e+002;1.394492e-001
7.714192e+002;1.374191e-001
7.733478e+002;1.359010e-001
7.752763e+002;1.353212e-001
7.772048e+002;1.346493e-001
7.791334e+002;1.337339e-001
7.810620e+002;1.332946e-001
7.829905e+002;1.327286e-001
7.849191e+002;1.317007e-001
7.868476e+002;1.304098e-001
7.887761e+002;1.296334e-001
7.907047e+002;1.296577e-001
7.926332e+002;1.293382e-001
7.945618e+002;1.287447e-001
7.964903e+002;1.281055e-001
7.984189e+002;1.276352e-001
8.003474e+002;1.276024e-001
8.022759e+002;1.268638e-001
8.042045e+002;1.261097e-001
8.061331e+002;1.261959e-001
8.080616e+002;1.260638e-001
8.099902e+002;1.253975e-001
8.119187e+002;1.248864e-001
8.138472e+002;1.243957e-001
8.157758e+002;1.242499e-001
8.177043e+002;1.245715e-001
8.196329e+002;1.247689e-001
8.215615e+002;1.244952e-001
8.234900e+002;1.235504e-001
8.254185e+002;1.232112e-001
8.273471e+002;1.238661e-001
8.292756e+002;1.240720e-001
8.312042e+002;1.237060e-001
8.331328e+002;1.229621e-001
8.350613e+002;1.217493e-001
8.369898e+002;1.213326e-001
8.389184e+002;1.208900e-001
8.408469e+002;1.203171e-001
8.427755e+002;1.201903e-001
8.447040e+002;1.201288e-001
8.466326e+002;1.203246e-001
8.485611e+002;1.206737e-001
8.504897e+002;1.212306e-001
8.524182e+002;1.214251e-001
8.543467e+002;1.213041e-001
8.562753e+002;1.209054e-001
8.582039e+002;1.216996e-001
8.601324e+002;1.234268e-001
8.620610e+002;1.246344e-001
8.639895e+002;1.252444e-001
8.659180e+002;1.264682e-001
8.678466e+002;1.282793e-001
8.697751e+002;1.302615e-001
8.717037e+002;1.323231e-001
8.736323e+002;1.349131e-001
8.755608e+002;1.382851e-001
8.774893e+002;1.426589e-001
8.794179e+002;1.473227e-001
8.813464e+002;1.524145e-001
8.832750e+002;1.582110e-001
8.852036e+002;1.644560e-001
8.871321e+002;1.715174e-001
8.890606e+002;1.784952e-001
8.909892e+002;1.836653e-001
8.929177e+002;1.868871e-001
8.948463e+002;1.873461e-001
8.967748e+002;1.851847e-001
8.987034e+002;1.811987e-001
9.006319e+002;1.764455e-001
9.025605e+002;1.714907e-001
9.044890e+002;1.668614e-001
9.064175e+002;1.626468e-001
9.083461e+002;1.588738e-001
9.102747e+002;1.550788e-001
9.122032e+002;1.517116e-001
9.141318e+002;1.504093e-001
9.160603e+002;1.501217e-001
9.179888e+002;1.495850e-001
9.199174e+002;1.495384e-001
9.218459e+002;1.506157e-001
9.237745e+002;1.518855e-001
9.257031e+002;1.533770e-001
9.276316e+002;1.547513e-001
9.295601e+002;1.563262e-001
9.314887e+002;1.579039e-001
9.334172e+002;1.598103e-001
9.353458e+002;1.619877e-001
9.372744e+002;1.639198e-001
9.392029e+002;1.661268e-001
9.411314e+002;1.686862e-001
9.430600e+002;1.715702e-001
9.449885e+002;1.747384e-001
9.469171e+002;1.784794e-001
9.488456e+002;1.829015e-001
9.507742e+002;1.876377e-001
9.527027e+002;1.926287e-001
9.546313e+002;1.981844e-001
9.565598e+002;2.039906e-001
9.584883e+002;2.095656e-001
9.604169e+002;2.150147e-001
9.623455e+002;2.210467e-001
9.642740e+002;2.271271e-001
9.662026e+002;2.328214e-001
9.681311e+002;2.386504e-001
9.700596e+002;2.455058e-001
9.719882e+002;2.535116e-001
9.739167e+002;2.626812e-001
9.758453e+002;2.731847e-001
9.777739e+002;2.850687e-001
9.797024e+002;2.989127e-001
9.816309e+002;3.149764e-001
9.835595e+002;3.322384e-001
9.854880e+002;3.500168e-001
9.874166e+002;3.676454e-001
9.893452e+002;3.838618e-001
9.912737e+002;3.977094e-001
9.932022e+002;4.086519e-001
9.951307e+002;4.166487e-001
9.970593e+002;4.219958e-001
9.989879e+002;4.261204e-001
1.000916e+003;4.294041e-001
1.002845e+003;4.326312e-001
1.004773e+003;4.371077e-001
1.006702e+003;4.435045e-001
1.008631e+003;4.516512e-001
1.010559e+003;4.603711e-001
1.012488e+003;4.698855e-001
1.014416e+003;4.800858e-001
1.016345e+003;4.891090e-001
1.018273e+003;4.954985e-001
1.020202e+003;4.981943e-001
1.022130e+003;4.984349e-001
1.024059e+003;4.976067e-001
1.025988e+003;4.949666e-001
1.027916e+003;4.902058e-001
1.029845e+003;4.840161e-001
1.031773e+003;4.767537e-001
1.033702e+003;4.696820e-001
1.035630e+003;4.629242e-001
1.037559e+003;4.568739e-001
1.039487e+003;4.523654e-001
1.041416e+003;4.497893e-001
1.043344e+003;4.474668e-001
1.045273e+003;4.437658e-001
1.047202e+003;4.395894e-001
1.049130e+003;4.359830e-001
1.051059e+003;4.324290e-001
1.052987e+003;4.290781e-001
1.054916e+003;4.250000e-001
1.056844e+003;4.197601e-001
1.058773e+003;4.138062e-001
1.060701e+003;4.058121e-001
1.062630e+003;3.965001e-001
1.064558e+003;3.879066e-001
1.066487e+003;3.794914e-001
1.068416e+003;3.714960e-001
1.070344e+003;3.651814e-001
1.072273e+003;3.603468e-001
1.074201e+003;3.544142e-001
1.076130e+003;3.475274e-001
1.078058e+003;3.410368e-001
1.079987e+003;3.358241e-001
1.081915e+003;3.306937e-001
1.083844e+003;3.247703e-001
1.085773e+003;3.191114e-001
1.087701e+003;3.137635e-001
1.089630e+003;3.077266e-001
1.091558e+003;3.016361e-001
1.093487e+003;2.958294e-001
1.095415e+003;2.898226e-001
1.097344e+003;2.824966e-001
1.099272e+003;2.743501e-001
1.101201e+003;2.663342e-001
1.103129e+003;2.594447e-001
1.105058e+003;2.539992e-001
1.106987e+003;2.495117e-001
1.108915e+003;2.459718e-001
1.110844e+003;2.432356e-001
1.112772e+003;2.392039e-001
1.114701e+003;2.332442e-001
1.116629e+003;2.274894e-001
1.118558e+003;2.224280e-001
1.120486e+003;2.167876e-001
1.122415e+003;2.104831e-001
1.124344e+003;2.040610e-001
1.126272e+003;1.975982e-001
1.128201e+003;1.917912e-001
1.130129e+003;1.861236e-001
1.132058e+003;1.805683e-001
1.133986e+003;1.759343e-001
1.135915e+003;1.717509e-001
1.137843e+003;1.683011e-001
1.139772e+003;1.659571e-001
1.141700e+003;1.651688e-001
1.143629e+003;1.652491e-001
1.145557e+003;1.659432e-001
1.147486e+003;1.673717e-001
1.149415e+003;1.691379e-001
1.151343e+003;1.714771e-001
1.153272e+003;1.734361e-001
1.155200e+003;1.743812e-001
1.157129e+003;1.743072e-001
1.159057e+003;1.717100e-001
1.160986e+003;1.668026e-001
1.162914e+003;1.605122e-001
1.164843e+003;1.538076e-001
1.166771e+003;1.465224e-001
1.168700e+003;1.394337e-001
1.170629e+003;1.330747e-001
1.172557e+003;1.273672e-001
1.174486e+003;1.222741e-001
1.176414e+003;1.182165e-001
1.178343e+003;1.150745e-001
1.180271e+003;1.124528e-001
1.182200e+003;1.105438e-001
1.184128e+003;1.094739e-001
1.186057e+003;1.098023e-001
1.187986e+003;1.118084e-001
1.189914e+003;1.148351e-001
1.191843e+003;1.183473e-001
1.193771e+003;1.215351e-001
1.195700e+003;1.239420e-001
1.197628e+003;1.253789e-001
1.199557e+003;1.256241e-001
1.201485e+003;1.245553e-001
1.203414e+003;1.220210e-001
1.205343e+003;1.189512e-001
1.207271e+003;1.165155e-001
1.209200e+003;1.146432e-001
1.211128e+003;1.136415e-001
1.213057e+003;1.137321e-001
1.214985e+003;1.146880e-001
1.216914e+003;1.164606e-001
1.218842e+003;1.190793e-001
1.220771e+003;1.218792e-001
1.222699e+003;1.245583e-001
1.224628e+003;1.270555e-001
1.226557e+003;1.287167e-001
1.228485e+003;1.292333e-001
1.230414e+003;1.292279e-001
1.232342e+003;1.291945e-001
1.234271e+003;1.293265e-001
1.236199e+003;1.292525e-001
1.238128e+003;1.289458e-001
1.240056e+003;1.286938e-001
1.241985e+003;1.283412e-001
1.243913e+003;1.280101e-001
1.245842e+003;1.281123e-001
1.247771e+003;1.287843e-001
1.249699e+003;1.297172e-001
1.251628e+003;1.308949e-001
1.253556e+003;1.324543e-001
1.255485e+003;1.338542e-001
1.257413e+003;1.348366e-001
1.259342e+003;1.355530e-001
1.261270e+003;1.356393e-001
1.263199e+003;1.350116e-001
1.265127e+003;1.339401e-001
1.267056e+003;1.326262e-001
1.268985e+003;1.313873e-001
1.270913e+003;1.301928e-001
1.272842e+003;1.291310e-001
1.274770e+003;1.285431e-001
1.276699e+003;1.279351e-001
1.278627e+003;1.269143e-001
1.280556e+003;1.260159e-001
1.282484e+003;1.253454e-001
1.284413e+003;1.251302e-001
1.286342e+003;1.253794e-001
1.288270e+003;1.264576e-001
1.290199e+003;1.284161e-001
1.292127e+003;1.306403e-001
1.294056e+003;1.326218e-001
1.295984e+003;1.341232e-001
1.297913e+003;1.357737e-001
1.299841e+003;1.378480e-001
1.301770e+003;1.398391e-001
1.303698e+003;1.421548e-001
1.305627e+003;1.447415e-001
1.307556e+003;1.476121e-001
1.309484e+003;1.500175e-001
1.311413e+003;1.514857e-001
1.313341e+003;1.524046e-001
1.315270e+003;1.524189e-001
1.317198e+003;1.511091e-001
1.319127e+003;1.488893e-001
1.321055e+003;1.466434e-001
1.322984e+003;1.450585e-001
1.324912e+003;1.443401e-001
1.326841e+003;1.442618e-001
1.328770e+003;1.444863e-001
1.330698e+003;1.448572e-001
1.332627e+003;1.450819e-001
1.334555e+003;1.451928e-001
1.336484e+003;1.450443e-001
1.338412e+003;1.442803e-001
1.340341e+003;1.432507e-001
1.342269e+003;1.424413e-001
1.344198e+003;1.418434e-001
1.346126e+003;1.416720e-001
1.348055e+003;1.416127e-001
1.349984e+003;1.415730e-001
1.351912e+003;1.422678e-001
1.353841e+003;1.436177e-001
1.355769e+003;1.452388e-001
1.357698e+003;1.464333e-001
1.359626e+003;1.475246e-001
1.361555e+003;1.487360e-001
1.363483e+003;1.495739e-001
1.365412e+003;1.496696e-001
1.367341e+003;1.490831e-001
1.369269e+003;1.480636e-001
1.371198e+003;1.467430e-001
1.373126e+003;1.451213e-001
1.375055e+003;1.434169e-001
1.376983e+003;1.411217e-001
1.378912e+003;1.381584e-001
1.380840e+003;1.351469e-001
1.382769e+003;1.321801e-001
1.384698e+003;1.294128e-001
1.386626e+003;1.273835e-001
1.388555e+003;1.261920e-001
1.390483e+003;1.253575e-001
1.392412e+003;1.245397e-001
1.394340e+003;1.238055e-001
1.396269e+003;1.237977e-001
1.398197e+003;1.239043e-001
1.400126e+003;1.234513e-001
1.402054e+003;1.229904e-001
1.403983e+003;1.227435e-001
1.405911e+003;1.227592e-001
1.407840e+003;1.228594e-001
1.409769e+003;1.229639e-001
1.411697e+003;1.231534e-001
1.413626e+003;1.233940e-001
1.415554e+003;1.235967e-001
1.417483e+003;1.237283e-001
1.419411e+003;1.233974e-001
1.421340e+003;1.232471e-001
1.423268e+003;1.229394e-001
1.425197e+003;1.224049e-001
1.427125e+003;1.218600e-001
1.429054e+003;1.213669e-001
1.430983e+003;1.212620e-001
1.432911e+003;1.211867e-001
1.434840e+003;1.204635e-001
1.436768e+003;1.196868e-001
1.438697e+003;1.191553e-001
1.440625e+003;1.184768e-001
1.442554e+003;1.176782e-001
1.444482e+003;1.168887e-001
1.446411e+003;1.158230e-001
1.448340e+003;1.145047e-001
1.450268e+003;1.133148e-001
1.452197e+003;1.122601e-001
1.454125e+003;1.111628e-001
1.456054e+003;1.099045e-001
1.457982e+003;1.089827e-001
1.459911e+003;1.085588e-001
1.461839e+003;1.078476e-001
1.463768e+003;1.065227e-001
1.465697e+003;1.053851e-001
1.467625e+003;1.042772e-001
1.469554e+003;1.025912e-001
1.471482e+003;1.006567e-001
1.473411e+003;9.892717e-002
1.475339e+003;9.700321e-002
1.477268e+003;9.488755e-002
1.479196e+003;9.290946e-002
1.481125e+003;9.101862e-002
1.483053e+003;8.919908e-002
1.484982e+003;8.762606e-002
1.486911e+003;8.623096e-002
1.488839e+003;8.485761e-002
1.490768e+003;8.380285e-002
1.492696e+003;8.289743e-002
1.494625e+003;8.169162e-002
1.496553e+003;8.064514e-002
1.498482e+003;8.019827e-002
1.500410e+003;7.985694e-002
1.502339e+003;7.961588e-002
1.504267e+003;7.885734e-002
1.506196e+003;7.799833e-002
1.508125e+003;7.784728e-002
1.510053e+003;7.785307e-002
1.511982e+003;7.754141e-002
1.513910e+003;7.730425e-002
1.515839e+003;7.706266e-002
1.517767e+003;7.699975e-002
1.519696e+003;7.681702e-002
1.521624e+003;7.652421e-002
1.523553e+003;7.657068e-002
1.525481e+003;7.652808e-002
1.527410e+003;7.676367e-002
1.529339e+003;7.700316e-002
1.531267e+003;7.698310e-002
1.533196e+003;7.681915e-002
1.535124e+003;7.669528e-002
1.537053e+003;7.681575e-002
1.538981e+003;7.662017e-002
1.540910e+003;7.632706e-002
1.542838e+003;7.636984e-002
1.544767e+003;7.667144e-002
1.546695e+003;7.707679e-002
1.548624e+003;7.719211e-002
1.550553e+003;7.707940e-002
1.552481e+003;7.685035e-002
1.554410e+003;7.665515e-002
1.556338e+003;7.634961e-002
1.558267e+003;7.560011e-002
1.560195e+003;7.564865e-002
1.562124e+003;7.652374e-002
1.564052e+003;7.668705e-002
1.565981e+003;7.656452e-002
1.567910e+003;7.655804e-002
1.569838e+003;7.651500e-002
1.571767e+003;7.670694e-002
1.573695e+003;7.700498e-002
1.575624e+003;7.717259e-002
1.577552e+003;7.750264e-002
1.579481e+003;7.784197e-002
1.581409e+003;7.816986e-002
1.583338e+003;7.833614e-002
1.585266e+003;7.833023e-002
1.587195e+003;7.838452e-002
1.589124e+003;7.854223e-002
1.591052e+003;7.881431e-002
1.592981e+003;7.917018e-002
1.594909e+003;7.949132e-002
1.596838e+003;7.955308e-002
1.598766e+003;7.963443e-002
1.600695e+003;8.004319e-002
1.602623e+003;8.072335e-002
1.604552e+003;8.118786e-002
1.606480e+003;8.133113e-002
1.608409e+003;8.130128e-002
1.610338e+003;8.167942e-002
1.612266e+003;8.254568e-002
1.614195e+003;8.288845e-002
1.616123e+003;8.289222e-002
1.618052e+003;8.366820e-002
1.619980e+003;8.467629e-002
1.621909e+003;8.511143e-002
1.623837e+003;8.535548e-002
1.625766e+003;8.576179e-002
1.627694e+003;8.630730e-002
1.629623e+003;8.698043e-002
1.631552e+003;8.753145e-002
1.633480e+003;8.759339e-002
1.635409e+003;8.759339e-002
1.637337e+003;8.791827e-002
1.639266e+003;8.816386e-002
1.641194e+003;8.829093e-002
1.643123e+003;8.828187e-002
1.645051e+003;8.785206e-002
1.646980e+003;8.752841e-002
1.648909e+003;8.749688e-002
1.650837e+003;8.692656e-002
1.652766e+003;8.592325e-002
1.654694e+003;8.563974e-002
1.656623e+003;8.551368e-002
1.658551e+003;8.497682e-002
1.660480e+003;8.450188e-002
1.662408e+003;8.362012e-002
1.664337e+003;8.263312e-002
1.666266e+003;8.197761e-002
1.668194e+003;8.108102e-002
1.670123e+003;8.031546e-002
1.672051e+003;7.993054e-002
1.673980e+003;7.915209e-002
1.675908e+003;7.828238e-002
1.677837e+003;7.786848e-002
1.679765e+003;7.725295e-002
1.681694e+003;7.639844e-002
1.683622e+003;7.541421e-002
1.685551e+003;7.490717e-002
1.687479e+003;7.475086e-002
1.689408e+003;7.419407e-002
1.691337e+003;7.354638e-002
1.693265e+003;7.286274e-002
1.695194e+003;7.198922e-002
1.697122e+003;7.157967e-002
1.699051e+003;7.104481e-002
1.700979e+003;7.045351e-002
1.702908e+003;7.034145e-002
1.704836e+003;7.009809e-002
1.706765e+003;7.002790e-002
1.708693e+003;7.011048e-002
1.710622e+003;7.000948e-002
1.712551e+003;6.973515e-002
1.714479e+003;6.942806e-002
1.716408e+003;6.904396e-002
1.718336e+003;6.900450e-002
1.720265e+003;6.922714e-002
1.722193e+003;6.927747e-002
1.724122e+003;6.949486e-002
1.726050e+003;6.977993e-002
1.727979e+003;6.966905e-002
1.729908e+003;6.950653e-002
1.731836e+003;6.911054e-002
1.733765e+003;6.856211e-002
1.735693e+003;6.865252e-002
1.737622e+003;6.853642e-002
1.739550e+003;6.792217e-002
1.741479e+003;6.754363e-002
1.743407e+003;6.725904e-002
1.745336e+003;6.684694e-002
1.747265e+003;6.630749e-002
1.749193e+003;6.601057e-002
1.751122e+003;6.596236e-002
1.753050e+003;6.620776e-002
1.754979e+003;6.623504e-002
1.756907e+003;6.606508e-002
1.758836e+003;6.614135e-002
1.760764e+003;6.620039e-002
1.762693e+003;6.638169e-002
1.764621e+003;6.658449e-002
1.766550e+003;6.636933e-002
1.768479e+003;6.616531e-002
1.770407e+003;6.597161e-002
1.772336e+003;6.563784e-002
1.774264e+003;6.575911e-002
1.776193e+003;6.620981e-002
1.778121e+003;6.633501e-002
1.780050e+003;6.618021e-002
1.781978e+003;6.622408e-002
1.783907e+003;6.638312e-002
1.785835e+003;6.656530e-002
1.787764e+003;6.672329e-002
1.789693e+003;6.651787e-002
1.791621e+003;6.611408e-002
1.793550e+003;6.590381e-002
1.795478e+003;6.590196e-002
1.797407e+003;6.598577e-002
1.799335e+003;6.599684e-002
1.801264e+003;6.588715e-002
1.803192e+003;6.597902e-002
1.805121e+003;6.603341e-002
1.807049e+003;6.585295e-002
1.808978e+003;6.586051e-002
1.810907e+003;6.592078e-002
1.812835e+003;6.587354e-002
1.814764e+003;6.589587e-002
1.816692e+003;6.607734e-002
1.818621e+003;6.610239e-002
1.820549e+003;6.602384e-002
1.822478e+003;6.591503e-002
1.824406e+003;6.597111e-002
1.826335e+003;6.593486e-002
1.828264e+003;6.570063e-002
1.830192e+003;6.565095e-002
1.832121e+003;6.565696e-002
1.834049e+003;6.573313e-002
1.835978e+003;6.575317e-002
1.837906e+003;6.572457e-002
1.839835e+003;6.574176e-002
1.841763e+003;6.558651e-002
1.843692e+003;6.538613e-002
1.845620e+003;6.545709e-002
1.847549e+003;6.533210e-002
1.849478e+003;6.508588e-002
1.851406e+003;6.518774e-002
1.853335e+003;6.527306e-002
1.855263e+003;6.534577e-002
1.857192e+003;6.538501e-002
1.859120e+003;6.533702e-002
1.861049e+003;6.540219e-002
1.862977e+003;6.537569e-002
1.864906e+003;6.523193e-002
1.866834e+003;6.504747e-002
1.868763e+003;6.506902e-002
1.870692e+003;6.525335e-002
1.872620e+003;6.534357e-002
1.874549e+003;6.526744e-002
1.876477e+003;6.514720e-002
1.878406e+003;6.508061e-002
1.880334e+003;6.517234e-002
1.882263e+003;6.533471e-002
1.884191e+003;6.529162e-002
1.886120e+003;6.512734e-002
1.888048e+003;6.502699e-002
1.889977e+003;6.501683e-002
1.891906e+003;6.510870e-002
1.893834e+003;6.521893e-002
1.895763e+003;6.525777e-002
1.897691e+003;6.537042e-002
1.899620e+003;6.550078e-002
1.901548e+003;6.526555e-002
1.903477e+003;6.517711e-002
1.905405e+003;6.526609e-002
1.907334e+003;6.526313e-002
1.909262e+003;6.527495e-002
1.911191e+003;6.529409e-002
1.913120e+003;6.547578e-002
1.915048e+003;6.570949e-002
1.916977e+003;6.568182e-002
1.918905e+003;6.563422e-002
1.920834e+003;6.571694e-002
1.922762e+003;6.594554e-002
1.924691e+003;6.617851e-002
1.926619e+003;6.618530e-002
1.928548e+003;6.603272e-002
1.930477e+003;6.595831e-002
1.932405e+003;6.607075e-002
1.934334e+003;6.611573e-002
1.936262e+003;6.610161e-002
1.938191e+003;6.614525e-002
1.940119e+003;6.606002e-002
1.942048e+003;6.610481e-002
1.943976e+003;6.628811e-002
1.945905e+003;6.639068e-002
1.947833e+003;6.650972e-002
1.949762e+003;6.653930e-002
1.951691e+003;6.650215e-002
1.953619e+003;6.649065e-002
1.955548e+003;6.652641e-002
1.957476e+003;6.665514e-002
1.959405e+003;6.669033e-002
1.961333e+003;6.669208e-002
1.963262e+003;6.683500e-002
1.965190e+003;6.702066e-002
1.967119e+003;6.700895e-002
1.969047e+003;6.693314e-002
1.970976e+003;6.700431e-002
1.972905e+003;6.715012e-002
1.974833e+003;6.720717e-002
1.976762e+003;6.737558e-002
1.978690e+003;6.752779e-002
1.980619e+003;6.769163e-002
1.982547e+003;6.758524e-002
1.984476e+003;6.742860e-002
1.986404e+003;6.758748e-002
1.988333e+003;6.762488e-002
1.990261e+003;6.763359e-002
1.992190e+003;6.761191e-002
1.994119e+003;6.734049e-002
1.996047e+003;6.745797e-002
1.997976e+003;6.789211e-002
1.999904e+003;6.792159e-002
2.001833e+003;6.773179e-002
2.003761e+003;6.790090e-002
2.005690e+003;6.809147e-002
2.007618e+003;6.811628e-002
2.009547e+003;6.828710e-002
2.011476e+003;6.842357e-002
2.013404e+003;6.830230e-002
2.015333e+003;6.804880e-002
2.017261e+003;6.807458e-002
2.019190e+003;6.844157e-002
2.021118e+003;6.852618e-002
2.023047e+003;6.863474e-002
2.024975e+003;6.866901e-002
2.026904e+003;6.854410e-002
2.028833e+003;6.861643e-002
2.030761e+003;6.880137e-002
2.032690e+003;6.904260e-002
2.034618e+003;6.907041e-002
2.036547e+003;6.900438e-002
2.038475e+003;6.895323e-002
2.040404e+003;6.896450e-002
2.042332e+003;6.897335e-002
2.044261e+003;6.892411e-002
2.046189e+003;6.899669e-002
2.048118e+003;6.899677e-002
2.050047e+003;6.876477e-002
2.051975e+003;6.891587e-002
2.053904e+003;6.906529e-002
2.055832e+003;6.898411e-002
2.057761e+003;6.891420e-002
2.059689e+003;6.880149e-002
2.061618e+003;6.877443e-002
2.063546e+003;6.894535e-002
2.065475e+003;6.889331e-002
2.067404e+003;6.899098e-002
2.069332e+003;6.911268e-002
2.071260e+003;6.884975e-002
2.073189e+003;6.873992e-002
2.075118e+003;6.883787e-002
2.077046e+003;6.880087e-002
2.078975e+003;6.862082e-002
2.080903e+003;6.866614e-002
2.082832e+003;6.881547e-002
2.084760e+003;6.887021e-002
2.086689e+003;6.897580e-002
2.088617e+003;6.898931e-002
2.090546e+003;6.880964e-002
2.092475e+003;6.875122e-002
2.094403e+003;6.893448e-002
2.096332e+003;6.905181e-002
2.098260e+003;6.892294e-002
2.100189e+003;6.881026e-002
2.102117e+003;6.879473e-002
2.104046e+003;6.903767e-002
2.105974e+003;6.917263e-002
2.107903e+003;6.901961e-002
2.109832e+003;6.896570e-002
2.111760e+003;6.887402e-002
2.113688e+003;6.891106e-002
2.115617e+003;6.928482e-002
2.117546e+003;6.952620e-002
2.119474e+003;6.949882e-002
2.121403e+003;6.935886e-002
2.123331e+003;6.933146e-002
2.125260e+003;6.928762e-002
2.127188e+003;6.924728e-002
2.129117e+003;6.934596e-002
2.131045e+003;6.946500e-002
2.132974e+003;6.954043e-002
2.134903e+003;6.930993e-002
2.136831e+003;6.931996e-002
2.138760e+003;6.958461e-002
2.140688e+003;6.964101e-002
2.142617e+003;6.943086e-002
2.144545e+003;6.926115e-002
2.146474e+003;6.930235e-002
2.148402e+003;6.939443e-002
2.150331e+003;6.940617e-002
2.152260e+003;6.925664e-002
2.154188e+003;6.924429e-002
2.156117e+003;6.922493e-002
2.158045e+003;6.896205e-002
2.159974e+003;6.889712e-002
2.161902e+003;6.903662e-002
2.163831e+003;6.910289e-002
2.165759e+003;6.918775e-002
2.167688e+003;6.893642e-002
2.169616e+003;6.882467e-002
2.171545e+003;6.905729e-002
2.173474e+003;6.909850e-002
2.175402e+003;6.885289e-002
2.177331e+003;6.858538e-002
2.179259e+003;6.841279e-002
2.181188e+003;6.851438e-002
2.183116e+003;6.893071e-002
2.185045e+003;6.899953e-002
2.186973e+003;6.861980e-002
2.188902e+003;6.840643e-002
2.190831e+003;6.845824e-002
2.192759e+003;6.858701e-002
2.194688e+003;6.876349e-002
2.196616e+003;6.869704e-002
2.198545e+003;6.843311e-002
2.200473e+003;6.842826e-002
2.202402e+003;6.848994e-002
2.204330e+003;6.841302e-002
2.206259e+003;6.845506e-002
2.208188e+003;6.836093e-002
2.210116e+003;6.826317e-002
2.212044e+003;6.835856e-002
2.213973e+003;6.832080e-002
2.215902e+003;6.804710e-002
2.217830e+003;6.809764e-002
2.219759e+003;6.813613e-002
2.221687e+003;6.796692e-002
2.223616e+003;6.796646e-002
2.225544e+003;6.801660e-002
2.227473e+003;6.797192e-002
2.229401e+003;6.790819e-002
2.231330e+003;6.794918e-002
2.233259e+003;6.798486e-002
2.235187e+003;6.799354e-002
2.237116e+003;6.776471e-002
2.239044e+003;6.761184e-002
2.240973e+003;6.766690e-002
2.242901e+003;6.777281e-002
2.244830e+003;6.785856e-002
2.246758e+003;6.788452e-002
2.248687e+003;6.777920e-002
2.250615e+003;6.767201e-002
2.252544e+003;6.766077e-002
2.254473e+003;6.774531e-002
2.256401e+003;6.768250e-002
2.258330e+003;6.744535e-002
2.260258e+003;6.721518e-002
2.262187e+003;6.720814e-002
2.264115e+003;6.731100e-002
2.266044e+003;6.757289e-002
2.267972e+003;6.761811e-002
2.269901e+003;6.754354e-002
2.271830e+003;6.751359e-002
2.273758e+003;6.728376e-002
2.275687e+003;6.710372e-002
2.277615e+003;6.706753e-002
2.279544e+003;6.696600e-002
2.281472e+003;6.696619e-002
2.283401e+003;6.712832e-002
2.285329e+003;6.741017e-002
2.287258e+003;6.737120e-002
2.289187e+003;6.713729e-002
2.291115e+003;6.700829e-002
2.293043e+003;6.706296e-002
2.294972e+003;6.726311e-002
2.296901e+003;6.729615e-002
2.298829e+003;6.724899e-002
2.300758e+003;6.727796e-002
2.302686e+003;6.734176e-002
2.304615e+003;6.728601e-002
2.306543e+003;6.741745e-002
2.308472e+003;6.761431e-002
2.310400e+003;6.769795e-002
2.312329e+003;6.755005e-002
2.314258e+003;6.750004e-002
2.316186e+003;6.753933e-002
2.318115e+003;6.748897e-002
2.320043e+003;6.729518e-002
2.321972e+003;6.723731e-002
2.323900e+003;6.741180e-002
2.325829e+003;6.736610e-002
2.327757e+003;6.736401e-002
2.329686e+003;6.759925e-002
2.331615e+003;6.752872e-002
2.333543e+003;6.731522e-002
2.335472e+003;6.752628e-002
2.337400e+003;6.774907e-002
2.339329e+003;6.773873e-002
2.341257e+003;6.777582e-002
2.343186e+003;6.782161e-002
2.345114e+003;6.806264e-002
2.347043e+003;6.836741e-002
2.348971e+003;6.831133e-002
2.350900e+003;6.804167e-002
2.352829e+003;6.798014e-002
2.354757e+003;6.807888e-002
2.356686e+003;6.814024e-002
2.358614e+003;6.823944e-002
2.360543e+003;6.827605e-002
2.362471e+003;6.811497e-002
2.364400e+003;6.826849e-002
2.366328e+003;6.844548e-002
2.368257e+003;6.848897e-002
2.370186e+003;6.868585e-002
2.372114e+003;6.887072e-002
2.374042e+003;6.893039e-002
2.375971e+003;6.898842e-002
2.377900e+003;6.891114e-002
2.379828e+003;6.892399e-002
2.381757e+003;6.892768e-002
2.383685e+003;6.904633e-002
2.385614e+003;6.913607e-002
2.387542e+003;6.904326e-002
2.389471e+003;6.908743e-002
2.391399e+003;6.926947e-002
2.393328e+003;6.928785e-002
2.395257e+003;6.927681e-002
2.397185e+003;6.940928e-002
2.399114e+003;6.966832e-002
2.401042e+003;6.985612e-002
2.402971e+003;6.992587e-002
2.404899e+003;6.992719e-002
2.406828e+003;6.971912e-002
2.408756e+003;6.960161e-002
2.410685e+003;6.984908e-002
2.412614e+003;7.015903e-002
2.414542e+003;7.035800e-002
2.416471e+003;7.074592e-002
2.418399e+003;7.087607e-002
2.420328e+003;7.071909e-002
2.422256e+003;7.064856e-002
2.424185e+003;7.069164e-002
2.426113e+003;7.070209e-002
2.428042e+003;7.080293e-002
2.429970e+003;7.083929e-002
2.431899e+003;7.101488e-002
2.433828e+003;7.119422e-002
2.435756e+003;7.128248e-002
2.437685e+003;7.142791e-002
2.439613e+003;7.165114e-002
2.441542e+003;7.195648e-002
2.443470e+003;7.187883e-002
2.445399e+003;7.172801e-002
2.447327e+003;7.184865e-002
2.449256e+003;7.206157e-002
2.451185e+003;7.237753e-002
2.453113e+003;7.243582e-002
2.455042e+003;7.234856e-002
2.456970e+003;7.223675e-002
2.458899e+003;7.218534e-002
2.460827e+003;7.222264e-002
2.462756e+003;7.249956e-002
2.464684e+003;7.258613e-002
2.466613e+003;7.251573e-002
2.468542e+003;7.268570e-002
2.470470e+003;7.286819e-002
2.472398e+003;7.295798e-002
2.474327e+003;7.291345e-002
2.476256e+003;7.298420e-002
2.478184e+003;7.325683e-002
2.480113e+003;7.353802e-002
2.482041e+003;7.369885e-002
2.483970e+003;7.373438e-002
2.485898e+003;7.337812e-002
2.487827e+003;7.317019e-002
2.489755e+003;7.348885e-002
2.491684e+003;7.390369e-002
2.493613e+003;7.388704e-002
2.495541e+003;7.365233e-002
2.497470e+003;7.365464e-002
2.499398e+003;7.390770e-002
2.501327e+003;7.398500e-002
2.503255e+003;7.411703e-002
2.505184e+003;7.405133e-002
2.507112e+003;7.385039e-002
2.509041e+003;7.386331e-002
2.510969e+003;7.407101e-002
2.512898e+003;7.418173e-002
2.514827e+003;7.411550e-002
2.516755e+003;7.420028e-002
2.518684e+003;7.463098e-002
2.520612e+003;7.482906e-002
2.522541e+003;7.477900e-002
2.524469e+003;7.467927e-002
2.526398e+003;7.472586e-002
2.528326e+003;7.467824e-002
2.530255e+003;7.481194e-002
2.532184e+003;7.492142e-002
2.534112e+003;7.477833e-002
2.536041e+003;7.481666e-002
2.537969e+003;7.496095e-002
2.539898e+003;7.514011e-002
2.541826e+003;7.515532e-002
2.543755e+003;7.502904e-002
2.545683e+003;7.511896e-002
2.547612e+003;7.541961e-002
2.549541e+003;7.543755e-002
2.551469e+003;7.530965e-002
2.553397e+003;7.540625e-002
2.555326e+003;7.559975e-002
2.557255e+003;7.561257e-002
2.559183e+003;7.566980e-002
2.561112e+003;7.592375e-002
2.563040e+003;7.601736e-002
2.564969e+003;7.597261e-002
2.566897e+003;7.577839e-002
2.568826e+003;7.593630e-002
2.570754e+003;7.625900e-002
2.572683e+003;7.614195e-002
2.574612e+003;7.606773e-002
2.576540e+003;7.616399e-002
2.578469e+003;7.635964e-002
2.580397e+003;7.655808e-002
2.582326e+003;7.664713e-002
2.584254e+003;7.679231e-002
2.586183e+003;7.676486e-002
2.588111e+003;7.675909e-002
2.590040e+003;7.691834e-002
2.591969e+003;7.687108e-002
2.593897e+003;7.681322e-002
2.595826e+003;7.696439e-002
2.597754e+003;7.732408e-002
2.599683e+003;7.745693e-002
2.601611e+003;7.710235e-002
2.603540e+003;7.727907e-002
2.605468e+003;7.754066e-002
2.607397e+003;7.752882e-002
2.609325e+003;7.756257e-002
2.611254e+003;7.753191e-002
2.613183e+003;7.759232e-002
2.615111e+003;7.778731e-002
2.617040e+003;7.795749e-002
2.618968e+003;7.807804e-002
2.620897e+003;7.823667e-002
2.622825e+003;7.821759e-002
2.624754e+003;7.820981e-002
2.626682e+003;7.827654e-002
2.628611e+003;7.829944e-002
2.630540e+003;7.849169e-002
2.632468e+003;7.878019e-002
2.634396e+003;7.880291e-002
2.636325e+003;7.883136e-002
2.638254e+003;7.909043e-002
2.640182e+003;7.923988e-002
2.642111e+003;7.912526e-002
2.644039e+003;7.904889e-002
2.645968e+003;7.926748e-002
2.647896e+003;7.958630e-002
2.649825e+003;7.971491e-002
2.651753e+003;7.996013e-002
2.653682e+003;8.002494e-002
2.655611e+003;7.996965e-002
2.657539e+003;8.023585e-002
2.659468e+003;8.066022e-002
2.661396e+003;8.086076e-002
2.663325e+003;8.096578e-002
2.665253e+003;8.126620e-002
2.667182e+003;8.143211e-002
2.669110e+003;8.152681e-002
2.671039e+003;8.160096e-002
2.672968e+003;8.146277e-002
2.674896e+003;8.164223e-002
2.676825e+003;8.193007e-002
2.678753e+003;8.207162e-002
2.680682e+003;8.208555e-002
2.682610e+003;8.200030e-002
2.684539e+003;8.212402e-002
2.686467e+003;8.235302e-002
2.688396e+003;8.279534e-002
2.690324e+003;8.326585e-002
2.692253e+003;8.339298e-002
2.694182e+003;8.319517e-002
2.696110e+003;8.303765e-002
2.698039e+003;8.319742e-002
2.699967e+003;8.360843e-002
2.701896e+003;8.379083e-002
2.703824e+003;8.390533e-002
2.705753e+003;8.412670e-002
2.707681e+003;8.423772e-002
2.709610e+003;8.426608e-002
2.711539e+003;8.442413e-002
2.713467e+003;8.469433e-002
2.715396e+003;8.490285e-002
2.717324e+003;8.466276e-002
2.719253e+003;8.449706e-002
2.721181e+003;8.487928e-002
2.723110e+003;8.514239e-002
2.725038e+003;8.514368e-002
2.726967e+003;8.521254e-002
2.728896e+003;8.536363e-002
2.730824e+003;8.565418e-002
2.732752e+003;8.593646e-002
2.734681e+003;8.593622e-002
2.736610e+003;8.582195e-002
2.738538e+003;8.589991e-002
2.740467e+003;8.625133e-002
2.742395e+003;8.643202e-002
2.744324e+003;8.629438e-002
2.746252e+003;8.612566e-002
2.748181e+003;8.624034e-002
2.750109e+003;8.620728e-002
2.752038e+003;8.631001e-002
2.753967e+003;8.659579e-002
2.755895e+003;8.674761e-002
2.757824e+003;8.680021e-002
2.759752e+003;8.698226e-002
2.761681e+003;8.715158e-002
2.763609e+003;8.721266e-002
2.765538e+003;8.747426e-002
2.767466e+003;8.797368e-002
2.769395e+003;8.833746e-002
2.771323e+003;8.847770e-002
2.773252e+003;8.870569e-002
2.775181e+003;8.874393e-002
2.777109e+003;8.875743e-002
2.779038e+003;8.889927e-002
2.780966e+003;8.924669e-002
2.782895e+003;8.988384e-002
2.784823e+003;9.043848e-002
2.786752e+003;9.046904e-002
2.788680e+003;9.028699e-002
2.790609e+003;9.058981e-002
2.792538e+003;9.091853e-002
2.794466e+003;9.108306e-002
2.796395e+003;9.159287e-002
2.798323e+003;9.210140e-002
2.800252e+003;9.232257e-002
2.802180e+003;9.259408e-002
2.804109e+003;9.315424e-002
2.806037e+003;9.348749e-002
2.807966e+003;9.373128e-002
2.809895e+003;9.423376e-002
2.811823e+003;9.458029e-002
2.813751e+003;9.494407e-002
2.815680e+003;9.539850e-002
2.817609e+003;9.605323e-002
2.819537e+003;9.659552e-002
2.821466e+003;9.672512e-002
2.823394e+003;9.665127e-002
2.825323e+003;9.713302e-002
2.827251e+003;9.765169e-002
2.829180e+003;9.798136e-002
2.831108e+003;9.854714e-002
2.833037e+003;9.956399e-002
2.834966e+003;1.004352e-001
2.836894e+003;1.010296e-001
2.838823e+003;1.017187e-001
2.840751e+003;1.025807e-001
2.842680e+003;1.037856e-001
2.844608e+003;1.049510e-001
2.846537e+003;1.059174e-001
2.848465e+003;1.068299e-001
2.850394e+003;1.074929e-001
2.852323e+003;1.085115e-001
2.854251e+003;1.093990e-001
2.856180e+003;1.100628e-001
2.858108e+003;1.114089e-001
2.860037e+003;1.130821e-001
2.861965e+003;1.143844e-001
2.863894e+003;1.158452e-001
2.865822e+003;1.176494e-001
2.867751e+003;1.192112e-001
2.869679e+003;1.203607e-001
2.871608e+003;1.213345e-001
2.873536e+003;1.220285e-001
2.875465e+003;1.228879e-001
2.877394e+003;1.238643e-001
2.879322e+003;1.246014e-001
2.881251e+003;1.250011e-001
2.883179e+003;1.251368e-001
2.885108e+003;1.253215e-001
2.887036e+003;1.256914e-001
2.888965e+003;1.262970e-001
2.890893e+003;1.268933e-001
2.892822e+003;1.269851e-001
2.894750e+003;1.267173e-001
2.896679e+003;1.264390e-001
2.898608e+003;1.259707e-001
2.900536e+003;1.252307e-001
2.902465e+003;1.246170e-001
2.904393e+003;1.239962e-001
2.906322e+003;1.231597e-001
2.908250e+003;1.223835e-001
2.910179e+003;1.214221e-001
2.912107e+003;1.207469e-001
2.914036e+003;1.201568e-001
2.915965e+003;1.192921e-001
2.917893e+003;1.186976e-001
2.919822e+003;1.177671e-001
2.921750e+003;1.160038e-001
2.923679e+003;1.140890e-001
2.925607e+003;1.126559e-001
2.927536e+003;1.112038e-001
2.929464e+003;1.098256e-001
2.931393e+003;1.090669e-001
2.933322e+003;1.084058e-001
2.935250e+003;1.075833e-001
2.937178e+003;1.063690e-001
2.939107e+003;1.050798e-001
2.941036e+003;1.039073e-001
2.942964e+003;1.027557e-001
2.944893e+003;1.015791e-001
2.946821e+003;1.005836e-001
2.948750e+003;9.948686e-002
2.950678e+003;9.817808e-002
2.952607e+003;9.725922e-002
2.954535e+003;9.663157e-002
2.956464e+003;9.586242e-002
2.958393e+003;9.503553e-002
2.960321e+003;9.425158e-002
2.962250e+003;9.334053e-002
2.964178e+003;9.223524e-002
2.966107e+003;9.135617e-002
2.968035e+003;9.100767e-002
2.969964e+003;9.088046e-002
2.971892e+003;9.095962e-002
2.973821e+003;9.072078e-002
2.975750e+003;8.999340e-002
2.977678e+003;8.947162e-002
2.979607e+003;8.926968e-002
2.981535e+003;8.925613e-002
2.983464e+003;8.922240e-002
2.985392e+003;8.876304e-002
2.987321e+003;8.834977e-002
2.989249e+003;8.812221e-002
2.991178e+003;8.808731e-002
2.993106e+003;8.793161e-002
2.995035e+003;8.782408e-002
2.996964e+003;8.785515e-002
2.998892e+003;8.758049e-002
3.000821e+003;8.758431e-002
3.002749e+003;8.802522e-002
3.004678e+003;8.839716e-002
3.006606e+003;8.864761e-002
3.008535e+003;8.858906e-002
3.010463e+003;8.864611e-002
3.012392e+003;8.918773e-002
3.014321e+003;8.937416e-002
3.016249e+003;8.945476e-002
3.018177e+003;8.986131e-002
3.020106e+003;9.021762e-002
3.022035e+003;9.066619e-002
3.023963e+003;9.116108e-002
3.025892e+003;9.129279e-002
3.027820e+003;9.146839e-002
3.029749e+003;9.209468e-002
3.031677e+003;9.241860e-002
3.033606e+003;9.235023e-002
3.035534e+003;9.288980e-002
3.037463e+003;9.348955e-002
3.039392e+003;9.396418e-002
3.041320e+003;9.422404e-002
3.043249e+003;9.441710e-002
3.045177e+003;9.480094e-002
3.047106e+003;9.525584e-002
3.049034e+003;9.561149e-002
3.050963e+003;9.613781e-002
3.052891e+003;9.691465e-002
3.054820e+003;9.738164e-002
3.056749e+003;9.752587e-002
3.058677e+003;9.804817e-002
3.060606e+003;9.851114e-002
3.062534e+003;9.891194e-002
3.064463e+003;9.964079e-002
3.066391e+003;1.002061e-001
3.068320e+003;1.004307e-001
3.070248e+003;1.007585e-001
3.072177e+003;1.010802e-001
3.074105e+003;1.018796e-001
3.076034e+003;1.028944e-001
3.077963e+003;1.032654e-001
3.079891e+003;1.034852e-001
3.081820e+003;1.040791e-001
3.083748e+003;1.048234e-001
3.085677e+003;1.054419e-001
3.087605e+003;1.061720e-001
3.089534e+003;1.065768e-001
3.091462e+003;1.069829e-001
3.093391e+003;1.077036e-001
3.095320e+003;1.083051e-001
3.097248e+003;1.087580e-001
3.099177e+003;1.095593e-001
3.101105e+003;1.105309e-001
3.103034e+003;1.111403e-001
3.104962e+003;1.114944e-001
3.106891e+003;1.117886e-001
3.108819e+003;1.123709e-001
3.110748e+003;1.133139e-001
3.112677e+003;1.139507e-001
3.114605e+003;1.147061e-001
3.116533e+003;1.158343e-001
3.118462e+003;1.163572e-001
3.120391e+003;1.167405e-001
3.122319e+003;1.171695e-001
3.124248e+003;1.176826e-001
3.126176e+003;1.184044e-001
3.128105e+003;1.188699e-001
3.130033e+003;1.192440e-001
3.131962e+003;1.198803e-001
3.133890e+003;1.206049e-001
3.135819e+003;1.212298e-001
3.137748e+003;1.219306e-001
3.139676e+003;1.228149e-001
3.141605e+003;1.233888e-001
3.143533e+003;1.237578e-001
3.145462e+003;1.242828e-001
3.147390e+003;1.248738e-001
3.149319e+003;1.254260e-001
3.151247e+003;1.262748e-001
3.153176e+003;1.268488e-001
3.155104e+003;1.268088e-001
3.157033e+003;1.268350e-001
3.158962e+003;1.275522e-001
3.160890e+003;1.285664e-001
3.162819e+003;1.295479e-001
3.164747e+003;1.301072e-001
3.166676e+003;1.303949e-001
3.168604e+003;1.311659e-001
3.170533e+003;1.314477e-001
3.172461e+003;1.317868e-001
3.174390e+003;1.326008e-001
3.176319e+003;1.331246e-001
3.178247e+003;1.335901e-001
3.180176e+003;1.341357e-001
3.182104e+003;1.345037e-001
3.184033e+003;1.347507e-001
3.185961e+003;1.351966e-001
3.187890e+003;1.358166e-001
3.189818e+003;1.362793e-001
3.191747e+003;1.367683e-001
3.193676e+003;1.375265e-001
3.195604e+003;1.381771e-001
3.197532e+003;1.384048e-001
3.199461e+003;1.386151e-001
3.201390e+003;1.391898e-001
3.203318e+003;1.400859e-001
3.205247e+003;1.407015e-001
3.207175e+003;1.409246e-001
3.209104e+003;1.411423e-001
3.211032e+003;1.415597e-001
3.212961e+003;1.417220e-001
3.214889e+003;1.421378e-001
3.216818e+003;1.426655e-001
3.218747e+003;1.434532e-001
3.220675e+003;1.446276e-001
3.222604e+003;1.452941e-001
3.224532e+003;1.452719e-001
3.226461e+003;1.455371e-001
3.228389e+003;1.462042e-001
3.230318e+003;1.466688e-001
3.232246e+003;1.468993e-001
3.234175e+003;1.471887e-001
3.236104e+003;1.480503e-001
3.238032e+003;1.487284e-001
3.239961e+003;1.488468e-001
3.241889e+003;1.493659e-001
3.243818e+003;1.501996e-001
3.245746e+003;1.508396e-001
3.247675e+003;1.517699e-001
3.249603e+003;1.524535e-001
3.251532e+003;1.525910e-001
3.253460e+003;1.530889e-001
3.255389e+003;1.533623e-001
3.257318e+003;1.533844e-001
3.259246e+003;1.537180e-001
3.261175e+003;1.544799e-001
3.263103e+003;1.550585e-001
3.265032e+003;1.550958e-001
3.266960e+003;1.551049e-001
3.268889e+003;1.557717e-001
3.270817e+003;1.562667e-001
3.272746e+003;1.565561e-001
3.274675e+003;1.567718e-001
3.276603e+003;1.570281e-001
3.278531e+003;1.574394e-001
3.280460e+003;1.577387e-001
3.282389e+003;1.579012e-001
3.284317e+003;1.581249e-001
3.286246e+003;1.583624e-001
3.288174e+003;1.585842e-001
3.290103e+003;1.594483e-001
3.292031e+003;1.598737e-001
3.293960e+003;1.599665e-001
3.295888e+003;1.601690e-001
3.297817e+003;1.602754e-001
3.299746e+003;1.601948e-001
3.301674e+003;1.604686e-001
3.303603e+003;1.609658e-001
3.305531e+003;1.610222e-001
3.307460e+003;1.609187e-001
3.309388e+003;1.612236e-001
3.311317e+003;1.614732e-001
3.313245e+003;1.617039e-001
3.315174e+003;1.621266e-001
3.317103e+003;1.621409e-001
3.319031e+003;1.618824e-001
3.320960e+003;1.617530e-001
3.322888e+003;1.615309e-001
3.324817e+003;1.617838e-001
3.326745e+003;1.623386e-001
3.328674e+003;1.626803e-001
3.330602e+003;1.627240e-001
3.332531e+003;1.624827e-001
3.334459e+003;1.622811e-001
3.336388e+003;1.624593e-001
3.338317e+003;1.626793e-001
3.340245e+003;1.630430e-001
3.342174e+003;1.633316e-001
3.344102e+003;1.631160e-001
3.346031e+003;1.628472e-001
3.347959e+003;1.622868e-001
3.349888e+003;1.618970e-001
3.351816e+003;1.617247e-001
3.353745e+003;1.616442e-001
3.355674e+003;1.616718e-001
3.357602e+003;1.613156e-001
3.359531e+003;1.603808e-001
3.361459e+003;1.599555e-001
3.363388e+003;1.600849e-001
3.365316e+003;1.605994e-001
3.367245e+003;1.608520e-001
3.369173e+003;1.604180e-001
3.371102e+003;1.601624e-001
3.373031e+003;1.601671e-001
3.374959e+003;1.596000e-001
3.376887e+003;1.588004e-001
3.378816e+003;1.584014e-001
3.380745e+003;1.577476e-001
3.382673e+003;1.574860e-001
3.384602e+003;1.576662e-001
3.386530e+003;1.574341e-001
3.388459e+003;1.569333e-001
3.390387e+003;1.564880e-001
3.392316e+003;1.559616e-001
3.394244e+003;1.556366e-001
3.396173e+003;1.555448e-001
3.398102e+003;1.552029e-001
3.400030e+003;1.547641e-001
3.401959e+003;1.544893e-001
3.403887e+003;1.539173e-001
3.405816e+003;1.532359e-001
3.407744e+003;1.528295e-001
3.409673e+003;1.527016e-001
3.411601e+003;1.524708e-001
3.413530e+003;1.521372e-001
3.415458e+003;1.516953e-001
3.417387e+003;1.510441e-001
3.419316e+003;1.502637e-001
3.421244e+003;1.500190e-001
3.423173e+003;1.496008e-001
3.425101e+003;1.489667e-001
3.427030e+003;1.488490e-001
3.428958e+003;1.492475e-001
3.430887e+003;1.489175e-001
3.432815e+003;1.481479e-001
3.434744e+003;1.478328e-001
3.436673e+003;1.476201e-001
3.438601e+003;1.473693e-001
3.440530e+003;1.466519e-001
3.442458e+003;1.457157e-001
3.444387e+003;1.447582e-001
3.446315e+003;1.440944e-001
3.448244e+003;1.433261e-001
3.450172e+003;1.419766e-001
3.452101e+003;1.406631e-001
3.454030e+003;1.397716e-001
3.455958e+003;1.382467e-001
3.457886e+003;1.364769e-001
3.459815e+003;1.351422e-001
3.461744e+003;1.340628e-001
3.463672e+003;1.330340e-001
3.465601e+003;1.322604e-001
3.467529e+003;1.314746e-001
3.469458e+003;1.305615e-001
3.471386e+003;1.293636e-001
3.473315e+003;1.282634e-001
3.475243e+003;1.272672e-001
3.477172e+003;1.266880e-001
3.479101e+003;1.260107e-001
3.481029e+003;1.251138e-001
3.482958e+003;1.241922e-001
3.484886e+003;1.229428e-001
3.486815e+003;1.219434e-001
3.488743e+003;1.202892e-001
3.490672e+003;1.188911e-001
3.492600e+003;1.177518e-001
3.494529e+003;1.166612e-001
3.496458e+003;1.157104e-001
3.498386e+003;1.139079e-001
3.500315e+003;1.117903e-001
3.502243e+003;1.103544e-001
3.504172e+003;1.091379e-001
3.506100e+003;1.079459e-001
3.508029e+003;1.065289e-001
3.509957e+003;1.047852e-001
3.511886e+003;1.034044e-001
3.513814e+003;1.021774e-001
3.515743e+003;1.007492e-001
3.517672e+003;9.977185e-002
3.519600e+003;9.886812e-002
3.521529e+003;9.755416e-002
3.523457e+003;9.617014e-002
3.525386e+003;9.496807e-002
3.527314e+003;9.420186e-002
3.529243e+003;9.334829e-002
3.531171e+003;9.249866e-002
3.533100e+003;9.166366e-002
3.535029e+003;9.047320e-002
3.536957e+003;8.961198e-002
3.538885e+003;8.885552e-002
3.540814e+003;8.822982e-002
3.542743e+003;8.735006e-002
3.544671e+003;8.637158e-002
3.546600e+003;8.539541e-002
3.548528e+003;8.463792e-002
3.550457e+003;8.382567e-002
3.552385e+003;8.276010e-002
3.554314e+003;8.179953e-002
3.556242e+003;8.110686e-002
3.558171e+003;8.033870e-002
3.560100e+003;7.946637e-002
3.562028e+003;7.847141e-002
3.563957e+003;7.757057e-002
3.565885e+003;7.660388e-002
3.567814e+003;7.560223e-002
3.569742e+003;7.520271e-002
3.571671e+003;7.483225e-002
3.573599e+003;7.411043e-002
3.575528e+003;7.351962e-002
3.577457e+003;7.299643e-002
3.579385e+003;7.198554e-002
3.581314e+003;7.125168e-002
3.583242e+003;7.114694e-002
3.585171e+003;7.077560e-002
3.587099e+003;6.981343e-002
3.589028e+003;6.906874e-002
3.590956e+003;6.860234e-002
3.592885e+003;6.779151e-002
3.594813e+003;6.729959e-002
3.596742e+003;6.724110e-002
3.598671e+003;6.647937e-002
3.600599e+003;6.564713e-002
3.602528e+003;6.540686e-002
3.604456e+003;6.514774e-002
3.606385e+003;6.474032e-002
3.608313e+003;6.411645e-002
3.610242e+003;6.324341e-002
3.612170e+003;6.256400e-002
3.614099e+003;6.256033e-002
3.616028e+003;6.246188e-002
3.617956e+003;6.164012e-002
3.619885e+003;6.105133e-002
3.621813e+003;6.114741e-002
3.623742e+003;6.121515e-002
3.625670e+003;6.102308e-002
3.627599e+003;6.040873e-002
3.629527e+003;5.967896e-002
3.631456e+003;5.957283e-002
3.633385e+003;5.943812e-002
3.635313e+003;5.922496e-002
3.637241e+003;5.893993e-002
3.639170e+003;5.866094e-002
3.641099e+003;5.839561e-002
3.643027e+003;5.810909e-002
3.644956e+003;5.774425e-002
3.646884e+003;5.728017e-002
3.648813e+003;5.710872e-002
3.650741e+003;5.720793e-002
3.652670e+003;5.699332e-002
3.654598e+003;5.684169e-002
3.656527e+003;5.639355e-002
3.658456e+003;5.571851e-002
3.660384e+003;5.569068e-002
3.662313e+003;5.592269e-002
3.664241e+003;5.571923e-002
3.666170e+003;5.574266e-002
3.668098e+003;5.568921e-002
3.670027e+003;5.479249e-002
3.671955e+003;5.411156e-002
3.673884e+003;5.428743e-002
3.675813e+003;5.427564e-002
3.677741e+003;5.417315e-002
3.679669e+003;5.410788e-002
3.681598e+003;5.425814e-002
3.683527e+003;5.448947e-002
3.685455e+003;5.418302e-002
3.687384e+003;5.394799e-002
3.689312e+003;5.384146e-002
3.691241e+003;5.370855e-002
3.693169e+003;5.326052e-002
3.695098e+003;5.304291e-002
3.697026e+003;5.328431e-002
3.698955e+003;5.357115e-002
3.700884e+003;5.349398e-002
3.702812e+003;5.317487e-002
3.704741e+003;5.293421e-002
3.706669e+003;5.278930e-002
3.708598e+003;5.263907e-002
3.710526e+003;5.230084e-002
3.712455e+003;5.215014e-002
3.714383e+003;5.238360e-002
3.716312e+003;5.237889e-002
3.718240e+003;5.205697e-002
3.720169e+003;5.206228e-002
3.722098e+003;5.208566e-002
3.724026e+003;5.181775e-002
3.725955e+003;5.175601e-002
3.727883e+003;5.199254e-002
3.729812e+003;5.178415e-002
3.731740e+003;5.134358e-002
3.733669e+003;5.134153e-002
3.735597e+003;5.154363e-002
3.737526e+003;5.167695e-002
3.739455e+003;5.161000e-002
3.741383e+003;5.143231e-002
3.743312e+003;5.131043e-002
3.745240e+003;5.126960e-002
3.747169e+003;5.158422e-002
3.749097e+003;5.171666e-002
3.751026e+003;5.115116e-002
3.752954e+003;5.095227e-002
3.754883e+003;5.165176e-002
3.756812e+003;5.174876e-002
3.758740e+003;5.208196e-002
3.760668e+003;5.239227e-002
3.762597e+003;5.202537e-002
3.764526e+003;5.165740e-002
3.766454e+003;5.165833e-002
3.768383e+003;5.142276e-002
3.770311e+003;5.132307e-002
3.772240e+003;5.169845e-002
3.774168e+003;5.189810e-002
3.776097e+003;5.211480e-002
3.778025e+003;5.182402e-002
3.779954e+003;5.152516e-002
3.781883e+003;5.174481e-002
3.783811e+003;5.201827e-002
3.785740e+003;5.222140e-002
3.787668e+003;5.214453e-002
3.789597e+003;5.191535e-002
3.791525e+003;5.208435e-002
3.793454e+003;5.259220e-002
3.795382e+003;5.224875e-002
3.797311e+003;5.186741e-002
3.799240e+003;5.160575e-002
3.801168e+003;5.092179e-002
3.803097e+003;5.104784e-002
3.805025e+003;5.176437e-002
3.806954e+003;5.176175e-002
3.808882e+003;5.142977e-002
3.810811e+003;5.149464e-002
3.812739e+003;5.184123e-002
3.814668e+003;5.153657e-002
3.816596e+003;5.140754e-002
3.818525e+003;5.188014e-002
3.820454e+003;5.172409e-002
3.822382e+003;5.175294e-002
3.824311e+003;5.217125e-002
3.826239e+003;5.174757e-002
3.828168e+003;5.124227e-002
3.830096e+003;5.153128e-002
3.832025e+003;5.208514e-002
3.833953e+003;5.211704e-002
3.835882e+003;5.156325e-002
3.837811e+003;5.116834e-002
3.839739e+003;5.153225e-002
3.841667e+003;5.194294e-002
3.843596e+003;5.207718e-002
3.845525e+003;5.225114e-002
3.847453e+003;5.216920e-002
3.849382e+003;5.227289e-002
3.851310e+003;5.236233e-002
3.853239e+003;5.207800e-002
3.855167e+003;5.191639e-002
3.857096e+003;5.205581e-002
3.859024e+003;5.248555e-002
3.860953e+003;5.273722e-002
3.862882e+003;5.243889e-002
3.864810e+003;5.242446e-002
3.866739e+003;5.289805e-002
3.868667e+003;5.334402e-002
3.870596e+003;5.327374e-002
3.872524e+003;5.334249e-002
3.874453e+003;5.336766e-002
3.876381e+003;5.351126e-002
3.878310e+003;5.339018e-002
3.880239e+003;5.313966e-002
3.882167e+003;5.333226e-002
3.884096e+003;5.317974e-002
3.886024e+003;5.295232e-002
3.887953e+003;5.328566e-002
3.889881e+003;5.339015e-002
3.891810e+003;5.361501e-002
3.893738e+003;5.385781e-002
3.895667e+003;5.346557e-002
3.897595e+003;5.331979e-002
3.899524e+003;5.341532e-002
3.901453e+003;5.357292e-002
3.903381e+003;5.369633e-002
3.905310e+003;5.361494e-002
3.907238e+003;5.359387e-002
3.909167e+003;5.378858e-002
3.911095e+003;5.386622e-002
3.913024e+003;5.375603e-002
3.914952e+003;5.342364e-002
3.916881e+003;5.380542e-002
3.918810e+003;5.430016e-002
3.920738e+003;5.424924e-002
3.922667e+003;5.401425e-002
3.924595e+003;5.429910e-002
3.926524e+003;5.460883e-002
3.928452e+003;5.436099e-002
3.930381e+003;5.423655e-002
3.932309e+003;5.472686e-002
3.934238e+003;5.529486e-002
3.936167e+003;5.529501e-002
3.938095e+003;5.494445e-002
3.940023e+003;5.494528e-002
3.941952e+003;5.491565e-002
3.943881e+003;5.467466e-002
3.945809e+003;5.454950e-002
3.947738e+003;5.434472e-002
3.949666e+003;5.437097e-002
3.951595e+003;5.458703e-002
3.953523e+003;5.486294e-002
3.955452e+003;5.508259e-002
3.957380e+003;5.491877e-002
3.959309e+003;5.486256e-002
3.961238e+003;5.510087e-002
3.963166e+003;5.518773e-002
3.965095e+003;5.514894e-002
3.967023e+003;5.503493e-002
3.968952e+003;5.479467e-002
3.970880e+003;5.483831e-002
3.972809e+003;5.482579e-002
3.974737e+003;5.476437e-002
3.976666e+003;5.503478e-002
3.978594e+003;5.523349e-002
3.980523e+003;5.509944e-002
3.982452e+003;5.469736e-002
3.984380e+003;5.426400e-002
3.986309e+003;5.406281e-002
3.988237e+003;5.438115e-002
3.990166e+003;5.499518e-002
3.992094e+003;5.507905e-002
3.994023e+003;5.515474e-002
3.995951e+003;5.528489e-002
3.997880e+003;5.529094e-002
3.999809e+003;5.513468e-002
4.001737e+003;0.000000e+000
