3.992094e+002;0.000000e+000
4.011380e+002;0.000000e+000
4.030665e+002;0.000000e+000
4.049951e+002;0.000000e+000
4.069236e+002;0.000000e+000
4.088522e+002;0.000000e+000
4.107807e+002;0.000000e+000
4.127093e+002;0.000000e+000
4.146378e+002;0.000000e+000
4.165664e+002;0.000000e+000
4.184949e+002;0.000000e+000
4.204235e+002;0.000000e+000
4.223520e+002;0.000000e+000
4.242806e+002;0.000000e+000
4.262091e+002;0.000000e+000
4.281377e+002;0.000000e+000
4.300662e+002;0.000000e+000
4.319948e+002;0.000000e+000
4.339233e+002;0.000000e+000
4.358519e+002;0.000000e+000
4.377804e+002;0.000000e+000
4.397090e+002;0.000000e+000
4.416375e+002;0.000000e+000
4.435660e+002;0.000000e+000
4.454946e+002;0.000000e+000
4.474232e+002;0.000000e+000
4.493517e+002;0.000000e+000
4.512802e+002;0.000000e+000
4.532088e+002;0.000000e+000
4.551373e+002;0.000000e+000
4.570659e+002;0.000000e+000
4.589944e+002;0.000000e+000
4.609230e+002;0.000000e+000
4.628515e+002;0.000000e+000
4.647801e+002;0.000000e+000
4.667086e+002;0.000000e+000
4.686372e+002;0.000000e+000
4.705657e+002;0.000000e+000
4.724943e+002;0.000000e+000
4.744228e+002;0.000000e+000
4.763513e+002;0.000000e+000
4.782799e+002;0.000000e+000
4.802085e+002;0.000000e+000
4.821370e+002;0.000000e+000
4.840656e+002;0.000000e+000
4.859941e+002;0.000000e+000
4.879226e+002;0.000000e+000
4.898512e+002;0.000000e+000
4.917798e+002;0.000000e+000
4.937083e+002;0.000000e+000
4.956368e+002;0.000000e+000
4.975654e+002;0.000000e+000
4.994939e+002;0.000000e+000
5.014225e+002;0.000000e+000
5.033510e+002;0.000000e+000
5.052796e+002;0.000000e+000
5.072081e+002;0.000000e+000
5.091367e+002;0.000000e+000
5.110652e+002;0.000000e+000
5.129938e+002;0.000000e+000
5.149223e+002;0.000000e+000
5.168509e+002;0.000000e+000
5.187794e+002;0.000000e+000
5.207079e+002;0.000000e+000
5.226365e+002;0.000000e+000
5.245651e+002;0.000000e+000
5.264936e+002;0.000000e+000
5.284222e+002;0.000000e+000
5.303507e+002;0.000000e+000
5.322792e+002;0.000000e+000
5.342078e+002;0.000000e+000
5.361364e+002;0.000000e+000
5.380649e+002;0.000000e+000
5.399935e+002;0.000000e+000
5.419220e+002;0.000000e+000
5.438505e+002;0.000000e+000
5.457791e+002;0.000000e+000
5.477076e+002;0.000000e+000
5.496362e+002;0.000000e+000
5.515648e+002;0.000000e+000
5.534933e+002;0.000000e+000
5.554218e+002;0.000000e+000
5.573504e+002;0.000000e+000
5.592789e+002;0.000000e+000
5.612075e+002;0.000000e+000
5.631360e+002;0.000000e+000
5.650646e+002;0.000000e+000
5.669931e+002;0.000000e+000
5.689217e+002;0.000000e+000
5.708502e+002;0.000000e+000
5.727787e+002;0.000000e+000
5.747073e+002;0.000000e+000
5.766359e+002;0.000000e+000
5.785644e+002;0.000000e+000
5.804930e+002;0.000000e+000
5.824215e+002;0.000000e+000
5.843500e+002;0.000000e+000
5.862786e+002;0.000000e+000
5.882072e+002;0.000000e+000
5.901357e+002;0.000000e+000
5.920643e+002;0.000000e+000
5.939928e+002;0.000000e+000
5.959213e+002;0.000000e+000
5.978499e+002;0.000000e+000
5.997784e+002;2.910326e-001
6.017070e+002;2.966122e-001
6.036355e+002;3.014460e-001
6.055641e+002;3.058369e-001
6.074926e+002;3.066456e-001
6.094211e+002;3.062584e-001
6.113497e+002;2.998222e-001
6.132783e+002;2.942037e-001
6.152068e+002;2.917553e-001
6.171354e+002;2.906694e-001
6.190639e+002;2.874936e-001
6.209924e+002;2.819956e-001
6.229210e+002;2.797806e-001
6.248495e+002;2.781878e-001
6.267781e+002;2.773241e-001
6.287067e+002;2.760570e-001
6.306352e+002;2.768861e-001
6.325637e+002;2.765110e-001
6.344923e+002;2.701409e-001
6.364208e+002;2.647870e-001
6.383494e+002;2.631230e-001
6.402780e+002;2.622825e-001
6.422065e+002;2.600184e-001
6.441350e+002;2.584905e-001
6.460636e+002;2.579734e-001
6.479921e+002;2.567866e-001
6.499207e+002;2.583525e-001
6.518492e+002;2.623356e-001
6.537778e+002;2.616287e-001
6.557063e+002;2.599977e-001
6.576349e+002;2.636844e-001
6.595634e+002;2.677901e-001
6.614919e+002;2.683547e-001
6.634205e+002;2.679091e-001
6.653491e+002;2.691000e-001
6.672776e+002;2.687794e-001
6.692062e+002;2.649635e-001
6.711347e+002;2.588278e-001
6.730632e+002;2.503825e-001
6.749918e+002;2.413100e-001
6.769203e+002;2.315087e-001
6.788489e+002;2.241130e-001
6.807775e+002;2.178127e-001
6.827060e+002;2.122895e-001
6.846345e+002;2.089483e-001
6.865631e+002;2.057392e-001
6.884916e+002;2.035266e-001
6.904202e+002;2.033109e-001
6.923488e+002;2.032156e-001
6.942773e+002;2.026284e-001
6.962058e+002;2.014878e-001
6.981344e+002;2.003901e-001
7.000629e+002;1.994318e-001
7.019915e+002;1.979111e-001
7.039200e+002;1.971822e-001
7.058486e+002;1.974088e-001
7.077771e+002;1.966668e-001
7.097057e+002;1.956393e-001
7.116342e+002;1.946683e-001
7.135627e+002;1.925332e-001
7.154913e+002;1.912026e-001
7.174199e+002;1.917292e-001
7.193484e+002;1.904273e-001
7.212770e+002;1.876389e-001
7.232055e+002;1.853688e-001
7.251340e+002;1.840620e-001
7.270626e+002;1.832226e-001
7.289911e+002;1.820434e-001
7.309197e+002;1.809198e-001
7.328483e+002;1.791656e-001
7.347768e+002;1.765898e-001
7.367053e+002;1.748675e-001
7.386339e+002;1.745485e-001
7.405624e+002;1.734511e-001
7.424910e+002;1.718774e-001
7.444196e+002;1.709573e-001
7.463481e+002;1.704089e-001
7.482766e+002;1.692520e-001
7.502052e+002;1.672539e-001
7.521337e+002;1.660707e-001
7.540623e+002;1.651541e-001
7.559908e+002;1.630575e-001
7.579194e+002;1.612930e-001
7.598479e+002;1.608532e-001
7.617765e+002;1.598525e-001
7.637050e+002;1.581781e-001
7.656335e+002;1.570275e-001
7.675621e+002;1.562566e-001
7.694907e+002;1.550295e-001
7.714192e+002;1.536820e-001
7.733478e+002;1.529854e-001
7.752763e+002;1.514688e-001
7.772048e+002;1.495770e-001
7.791334e+002;1.485458e-001
7.810620e+002;1.476005e-001
7.829905e+002;1.467462e-001
7.849191e+002;1.456778e-001
7.868476e+002;1.443908e-001
7.887761e+002;1.433371e-001
7.907047e+002;1.426652e-001
7.926332e+002;1.419792e-001
7.945618e+002;1.410493e-001
7.964903e+002;1.402988e-001
7.984189e+002;1.396778e-001
8.003474e+002;1.386509e-001
8.022759e+002;1.380053e-001
8.042045e+002;1.376949e-001
8.061331e+002;1.376474e-001
8.080616e+002;1.371628e-001
8.099902e+002;1.364816e-001
8.119187e+002;1.361323e-001
8.138472e+002;1.364071e-001
8.157758e+002;1.363841e-001
8.177043e+002;1.357813e-001
8.196329e+002;1.352194e-001
8.215615e+002;1.353671e-001
8.234900e+002;1.358701e-001
8.254185e+002;1.356197e-001
8.273471e+002;1.353099e-001
8.292756e+002;1.353863e-001
8.312042e+002;1.348171e-001
8.331328e+002;1.342265e-001
8.350613e+002;1.340993e-001
8.369898e+002;1.340562e-001
8.389184e+002;1.334642e-001
8.408469e+002;1.327369e-001
8.427755e+002;1.317293e-001
8.447040e+002;1.312013e-001
8.466326e+002;1.311391e-001
8.485611e+002;1.304521e-001
8.504897e+002;1.301073e-001
8.524182e+002;1.304176e-001
8.543467e+002;1.312800e-001
8.562753e+002;1.321902e-001
8.582039e+002;1.324253e-001
8.601324e+002;1.329104e-001
8.620610e+002;1.342109e-001
8.639895e+002;1.356902e-001
8.659180e+002;1.366217e-001
8.678466e+002;1.378010e-001
8.697751e+002;1.403546e-001
8.717037e+002;1.442204e-001
8.736323e+002;1.477871e-001
8.755608e+002;1.513364e-001
8.774893e+002;1.554334e-001
8.794179e+002;1.599993e-001
8.813464e+002;1.654649e-001
8.832750e+002;1.716544e-001
8.852036e+002;1.783279e-001
8.871321e+002;1.849608e-001
8.890606e+002;1.908650e-001
8.909892e+002;1.959357e-001
8.929177e+002;1.991880e-001
8.948463e+002;2.004494e-001
8.967748e+002;2.002176e-001
8.987034e+002;1.981181e-001
9.006319e+002;1.943866e-001
9.025605e+002;1.899733e-001
9.044890e+002;1.860029e-001
9.064175e+002;1.821038e-001
9.083461e+002;1.776892e-001
9.102747e+002;1.736936e-001
9.122032e+002;1.707802e-001
9.141318e+002;1.688207e-001
9.160603e+002;1.678578e-001
9.179888e+002;1.679478e-001
9.199174e+002;1.687897e-001
9.218459e+002;1.701716e-001
9.237745e+002;1.714981e-001
9.257031e+002;1.726998e-001
9.276316e+002;1.744680e-001
9.295601e+002;1.764580e-001
9.314887e+002;1.782980e-001
9.334172e+002;1.805175e-001
9.353458e+002;1.827451e-001
9.372744e+002;1.848739e-001
9.392029e+002;1.871947e-001
9.411314e+002;1.900726e-001
9.430600e+002;1.936399e-001
9.449885e+002;1.979939e-001
9.469171e+002;2.025768e-001
9.488456e+002;2.072968e-001
9.507742e+002;2.125581e-001
9.527027e+002;2.184813e-001
9.546313e+002;2.244818e-001
9.565598e+002;2.310605e-001
9.584883e+002;2.382903e-001
9.604169e+002;2.452071e-001
9.623455e+002;2.523087e-001
9.642740e+002;2.595559e-001
9.662026e+002;2.667790e-001
9.681311e+002;2.749719e-001
9.700596e+002;2.843017e-001
9.719882e+002;2.945082e-001
9.739167e+002;3.061313e-001
9.758453e+002;3.193942e-001
9.777739e+002;3.345758e-001
9.797024e+002;3.525633e-001
9.816309e+002;3.728840e-001
9.835595e+002;3.939819e-001
9.854880e+002;4.154343e-001
9.874166e+002;4.362540e-001
9.893452e+002;4.545238e-001
9.912737e+002;4.700316e-001
9.932022e+002;4.816597e-001
9.951307e+002;4.892572e-001
9.970593e+002;4.938556e-001
9.989879e+002;4.972587e-001
1.000916e+003;4.998581e-001
1.002845e+003;5.026646e-001
1.004773e+003;5.076014e-001
1.006702e+003;5.154382e-001
1.008631e+003;5.255857e-001
1.010559e+003;5.371828e-001
1.012488e+003;5.485390e-001
1.014416e+003;5.595871e-001
1.016345e+003;5.684885e-001
1.018273e+003;5.735392e-001
1.020202e+003;5.761498e-001
1.022130e+003;5.763153e-001
1.024059e+003;5.740565e-001
1.025988e+003;5.686934e-001
1.027916e+003;5.612936e-001
1.029845e+003;5.529578e-001
1.031773e+003;5.451849e-001
1.033702e+003;5.385661e-001
1.035630e+003;5.323253e-001
1.037559e+003;5.255556e-001
1.039487e+003;5.196974e-001
1.041416e+003;5.158209e-001
1.043344e+003;5.119964e-001
1.045273e+003;5.073121e-001
1.047202e+003;5.015202e-001
1.049130e+003;4.962707e-001
1.051059e+003;4.916176e-001
1.052987e+003;4.863089e-001
1.054916e+003;4.805084e-001
1.056844e+003;4.740566e-001
1.058773e+003;4.669233e-001
1.060701e+003;4.593926e-001
1.062630e+003;4.511738e-001
1.064558e+003;4.420249e-001
1.066487e+003;4.324699e-001
1.068416e+003;4.231574e-001
1.070344e+003;4.141335e-001
1.072273e+003;4.052241e-001
1.074201e+003;3.962595e-001
1.076130e+003;3.870785e-001
1.078058e+003;3.779528e-001
1.079987e+003;3.699163e-001
1.081915e+003;3.624221e-001
1.083844e+003;3.555293e-001
1.085773e+003;3.486992e-001
1.087701e+003;3.417276e-001
1.089630e+003;3.349713e-001
1.091558e+003;3.288683e-001
1.093487e+003;3.225561e-001
1.095415e+003;3.156754e-001
1.097344e+003;3.081255e-001
1.099272e+003;3.006157e-001
1.101201e+003;2.932720e-001
1.103129e+003;2.863886e-001
1.105058e+003;2.810411e-001
1.106987e+003;2.759340e-001
1.108915e+003;2.707703e-001
1.110844e+003;2.663302e-001
1.112772e+003;2.616510e-001
1.114701e+003;2.566234e-001
1.116629e+003;2.505695e-001
1.118558e+003;2.437672e-001
1.120486e+003;2.370516e-001
1.122415e+003;2.300570e-001
1.124344e+003;2.226698e-001
1.126272e+003;2.154232e-001
1.128201e+003;2.087636e-001
1.130129e+003;2.027961e-001
1.132058e+003;1.975165e-001
1.133986e+003;1.921351e-001
1.135915e+003;1.870638e-001
1.137843e+003;1.830078e-001
1.139772e+003;1.802575e-001
1.141700e+003;1.785128e-001
1.143629e+003;1.776775e-001
1.145557e+003;1.779605e-001
1.147486e+003;1.794523e-001
1.149415e+003;1.816830e-001
1.151343e+003;1.841918e-001
1.153272e+003;1.858499e-001
1.155200e+003;1.863162e-001
1.157129e+003;1.856506e-001
1.159057e+003;1.830559e-001
1.160986e+003;1.785256e-001
1.162914e+003;1.720883e-001
1.164843e+003;1.643532e-001
1.166771e+003;1.562358e-001
1.168700e+003;1.484855e-001
1.170629e+003;1.406800e-001
1.172557e+003;1.333170e-001
1.174486e+003;1.270271e-001
1.176414e+003;1.213408e-001
1.178343e+003;1.165659e-001
1.180271e+003;1.129290e-001
1.182200e+003;1.104643e-001
1.184128e+003;1.089954e-001
1.186057e+003;1.090113e-001
1.187986e+003;1.104438e-001
1.189914e+003;1.127710e-001
1.191843e+003;1.160205e-001
1.193771e+003;1.193569e-001
1.195700e+003;1.220588e-001
1.197628e+003;1.239314e-001
1.199557e+003;1.244786e-001
1.201485e+003;1.234939e-001
1.203414e+003;1.217539e-001
1.205343e+003;1.197366e-001
1.207271e+003;1.170711e-001
1.209200e+003;1.143854e-001
1.211128e+003;1.128839e-001
1.213057e+003;1.125997e-001
1.214985e+003;1.133623e-001
1.216914e+003;1.149821e-001
1.218842e+003;1.168211e-001
1.220771e+003;1.189105e-001
1.222699e+003;1.215347e-001
1.224628e+003;1.241448e-001
1.226557e+003;1.259229e-001
1.228485e+003;1.271079e-001
1.230414e+003;1.281929e-001
1.232342e+003;1.290887e-001
1.234271e+003;1.297429e-001
1.236199e+003;1.298090e-001
1.238128e+003;1.294217e-001
1.240056e+003;1.293487e-001
1.241985e+003;1.294192e-001
1.243913e+003;1.291596e-001
1.245842e+003;1.290947e-001
1.247771e+003;1.294311e-001
1.249699e+003;1.303750e-001
1.251628e+003;1.318307e-001
1.253556e+003;1.332113e-001
1.255485e+003;1.343938e-001
1.257413e+003;1.351305e-001
1.259342e+003;1.354508e-001
1.261270e+003;1.355336e-001
1.263199e+003;1.353294e-001
1.265127e+003;1.347074e-001
1.267056e+003;1.336500e-001
1.268985e+003;1.321339e-001
1.270913e+003;1.305311e-001
1.272842e+003;1.294161e-001
1.274770e+003;1.285102e-001
1.276699e+003;1.276165e-001
1.278627e+003;1.268440e-001
1.280556e+003;1.258710e-001
1.282484e+003;1.250718e-001
1.284413e+003;1.250224e-001
1.286342e+003;1.254962e-001
1.288270e+003;1.265755e-001
1.290199e+003;1.282309e-001
1.292127e+003;1.303501e-001
1.294056e+003;1.323960e-001
1.295984e+003;1.340475e-001
1.297913e+003;1.357587e-001
1.299841e+003;1.378225e-001
1.301770e+003;1.400285e-001
1.303698e+003;1.420762e-001
1.305627e+003;1.439330e-001
1.307556e+003;1.459306e-001
1.309484e+003;1.482336e-001
1.311413e+003;1.500811e-001
1.313341e+003;1.510468e-001
1.315270e+003;1.514622e-001
1.317198e+003;1.511103e-001
1.319127e+003;1.502160e-001
1.321055e+003;1.492666e-001
1.322984e+003;1.485727e-001
1.324912e+003;1.484005e-001
1.326841e+003;1.483037e-001
1.328770e+003;1.482285e-001
1.330698e+003;1.482946e-001
1.332627e+003;1.483706e-001
1.334555e+003;1.482877e-001
1.336484e+003;1.480046e-001
1.338412e+003;1.473877e-001
1.340341e+003;1.470010e-001
1.342269e+003;1.469307e-001
1.344198e+003;1.466423e-001
1.346126e+003;1.462902e-001
1.348055e+003;1.460327e-001
1.349984e+003;1.463388e-001
1.351912e+003;1.471052e-001
1.353841e+003;1.480128e-001
1.355769e+003;1.489393e-001
1.357698e+003;1.498768e-001
1.359626e+003;1.507707e-001
1.361555e+003;1.515966e-001
1.363483e+003;1.521784e-001
1.365412e+003;1.523034e-001
1.367341e+003;1.519001e-001
1.369269e+003;1.512122e-001
1.371198e+003;1.498937e-001
1.373126e+003;1.479638e-001
1.375055e+003;1.461168e-001
1.376983e+003;1.442261e-001
1.378912e+003;1.418559e-001
1.380840e+003;1.391999e-001
1.382769e+003;1.365423e-001
1.384698e+003;1.339946e-001
1.386626e+003;1.317185e-001
1.388555e+003;1.301597e-001
1.390483e+003;1.291965e-001
1.392412e+003;1.284260e-001
1.394340e+003;1.277461e-001
1.396269e+003;1.275058e-001
1.398197e+003;1.271207e-001
1.400126e+003;1.270995e-001
1.402054e+003;1.275116e-001
1.403983e+003;1.273944e-001
1.405911e+003;1.273778e-001
1.407840e+003;1.275930e-001
1.409769e+003;1.276696e-001
1.411697e+003;1.279953e-001
1.413626e+003;1.280898e-001
1.415554e+003;1.276104e-001
1.417483e+003;1.266320e-001
1.419411e+003;1.262544e-001
1.421340e+003;1.269476e-001
1.423268e+003;1.269156e-001
1.425197e+003;1.266641e-001
1.427125e+003;1.262164e-001
1.429054e+003;1.253162e-001
1.430983e+003;1.247916e-001
1.432911e+003;1.239548e-001
1.434840e+003;1.222002e-001
1.436768e+003;1.208287e-001
1.438697e+003;1.210195e-001
1.440625e+003;1.204869e-001
1.442554e+003;1.191576e-001
1.444482e+003;1.177534e-001
1.446411e+003;1.162285e-001
1.448340e+003;1.148654e-001
1.450268e+003;1.138694e-001
1.452197e+003;1.125406e-001
1.454125e+003;1.104460e-001
1.456054e+003;1.073612e-001
1.457982e+003;1.062470e-001
1.459911e+003;1.064549e-001
1.461839e+003;1.054322e-001
1.463768e+003;1.034383e-001
1.465697e+003;1.012689e-001
1.467625e+003;9.960303e-002
1.469554e+003;9.771604e-002
1.471482e+003;9.471283e-002
1.473411e+003;9.237655e-002
1.475339e+003;9.115802e-002
1.477268e+003;8.955550e-002
1.479196e+003;8.756116e-002
1.481125e+003;8.540751e-002
1.483053e+003;8.351332e-002
1.484982e+003;8.144394e-002
1.486911e+003;7.910128e-002
1.488839e+003;7.694845e-002
1.490768e+003;7.574695e-002
1.492696e+003;7.520977e-002
1.494625e+003;7.382211e-002
1.496553e+003;7.218472e-002
1.498482e+003;7.181135e-002
1.500410e+003;7.182327e-002
1.502339e+003;7.126495e-002
1.504267e+003;6.919105e-002
1.506196e+003;6.709266e-002
1.508125e+003;6.760429e-002
1.510053e+003;6.866385e-002
1.511982e+003;6.853724e-002
1.513910e+003;6.818152e-002
1.515839e+003;6.729785e-002
1.517767e+003;6.676421e-002
1.519696e+003;6.580976e-002
1.521624e+003;6.520641e-002
1.523553e+003;6.610458e-002
1.525481e+003;6.654232e-002
1.527410e+003;6.695835e-002
1.529339e+003;6.735770e-002
1.531267e+003;6.688915e-002
1.533196e+003;6.608900e-002
1.535124e+003;6.664282e-002
1.537053e+003;6.593455e-002
1.538981e+003;6.362180e-002
1.540910e+003;6.363492e-002
1.542838e+003;6.514820e-002
1.544767e+003;6.610674e-002
1.546695e+003;6.679377e-002
1.548624e+003;6.697647e-002
1.550553e+003;6.708322e-002
1.552481e+003;6.692007e-002
1.554410e+003;6.642736e-002
1.556338e+003;6.542034e-002
1.558267e+003;6.343222e-002
1.560195e+003;6.453761e-002
1.562124e+003;6.743142e-002
1.564052e+003;6.857537e-002
1.565981e+003;6.867949e-002
1.567910e+003;6.812671e-002
1.569838e+003;6.819157e-002
1.571767e+003;6.943696e-002
1.573695e+003;6.926318e-002
1.575624e+003;6.818687e-002
1.577552e+003;6.938751e-002
1.579481e+003;7.103154e-002
1.581409e+003;7.168287e-002
1.583338e+003;7.223015e-002
1.585266e+003;7.271022e-002
1.587195e+003;7.337898e-002
1.589124e+003;7.405176e-002
1.591052e+003;7.464378e-002
1.592981e+003;7.508831e-002
1.594909e+003;7.569022e-002
1.596838e+003;7.622713e-002
1.598766e+003;7.650144e-002
1.600695e+003;7.685692e-002
1.602623e+003;7.756328e-002
1.604552e+003;7.832400e-002
1.606480e+003;7.890884e-002
1.608409e+003;7.931938e-002
1.610338e+003;7.975520e-002
1.612266e+003;8.023912e-002
1.614195e+003;8.020896e-002
1.616123e+003;7.952705e-002
1.618052e+003;8.061092e-002
1.619980e+003;8.217206e-002
1.621909e+003;8.238454e-002
1.623837e+003;8.274483e-002
1.625766e+003;8.353452e-002
1.627694e+003;8.405509e-002
1.629623e+003;8.471442e-002
1.631552e+003;8.495454e-002
1.633480e+003;8.410773e-002
1.635409e+003;8.326898e-002
1.637337e+003;8.432575e-002
1.639266e+003;8.548613e-002
1.641194e+003;8.588001e-002
1.643123e+003;8.557089e-002
1.645051e+003;8.400109e-002
1.646980e+003;8.318659e-002
1.648909e+003;8.354794e-002
1.650837e+003;8.151206e-002
1.652766e+003;7.868911e-002
1.654694e+003;8.017735e-002
1.656623e+003;8.182233e-002
1.658551e+003;8.158254e-002
1.660480e+003;8.071828e-002
1.662408e+003;7.956812e-002
1.664337e+003;7.901053e-002
1.666266e+003;7.813270e-002
1.668194e+003;7.651935e-002
1.670123e+003;7.550134e-002
1.672051e+003;7.509643e-002
1.673980e+003;7.376089e-002
1.675908e+003;7.275609e-002
1.677837e+003;7.276005e-002
1.679765e+003;7.198171e-002
1.681694e+003;7.028554e-002
1.683622e+003;6.755872e-002
1.685551e+003;6.739922e-002
1.687479e+003;6.843354e-002
1.689408e+003;6.793426e-002
1.691337e+003;6.726520e-002
1.693265e+003;6.612010e-002
1.695194e+003;6.400298e-002
1.697122e+003;6.347551e-002
1.699051e+003;6.247994e-002
1.700979e+003;6.204975e-002
1.702908e+003;6.315320e-002
1.704836e+003;6.268231e-002
1.706765e+003;6.241341e-002
1.708693e+003;6.242985e-002
1.710622e+003;6.208549e-002
1.712551e+003;6.145117e-002
1.714479e+003;6.042709e-002
1.716408e+003;5.914480e-002
1.718336e+003;5.913314e-002
1.720265e+003;6.013393e-002
1.722193e+003;6.023726e-002
1.724122e+003;5.998368e-002
1.726050e+003;5.995557e-002
1.727979e+003;5.932309e-002
1.729908e+003;5.837636e-002
1.731836e+003;5.682991e-002
1.733765e+003;5.539452e-002
1.735693e+003;5.603125e-002
1.737622e+003;5.599936e-002
1.739550e+003;5.486598e-002
1.741479e+003;5.496205e-002
1.743407e+003;5.510640e-002
1.745336e+003;5.474449e-002
1.747265e+003;5.455833e-002
1.749193e+003;5.455337e-002
1.751122e+003;5.470284e-002
1.753050e+003;5.560375e-002
1.754979e+003;5.610476e-002
1.756907e+003;5.646053e-002
1.758836e+003;5.695985e-002
1.760764e+003;5.692037e-002
1.762693e+003;5.701829e-002
1.764621e+003;5.726009e-002
1.766550e+003;5.700586e-002
1.768479e+003;5.688989e-002
1.770407e+003;5.670379e-002
1.772336e+003;5.637914e-002
1.774264e+003;5.697295e-002
1.776193e+003;5.765899e-002
1.778121e+003;5.762661e-002
1.780050e+003;5.724633e-002
1.781978e+003;5.727518e-002
1.783907e+003;5.736940e-002
1.785835e+003;5.747226e-002
1.787764e+003;5.756153e-002
1.789693e+003;5.718903e-002
1.791621e+003;5.652660e-002
1.793550e+003;5.653793e-002
1.795478e+003;5.689159e-002
1.797407e+003;5.680457e-002
1.799335e+003;5.660805e-002
1.801264e+003;5.641770e-002
1.803192e+003;5.652675e-002
1.805121e+003;5.660050e-002
1.807049e+003;5.651838e-002
1.808978e+003;5.614013e-002
1.810907e+003;5.596310e-002
1.812835e+003;5.621329e-002
1.814764e+003;5.635537e-002
1.816692e+003;5.640031e-002
1.818621e+003;5.645071e-002
1.820549e+003;5.628227e-002
1.822478e+003;5.600897e-002
1.824406e+003;5.571403e-002
1.826335e+003;5.581093e-002
1.828264e+003;5.560887e-002
1.830192e+003;5.524895e-002
1.832121e+003;5.560981e-002
1.834049e+003;5.591026e-002
1.835978e+003;5.581541e-002
1.837906e+003;5.585268e-002
1.839835e+003;5.575321e-002
1.841763e+003;5.519669e-002
1.843692e+003;5.453594e-002
1.845620e+003;5.487444e-002
1.847549e+003;5.539840e-002
1.849478e+003;5.559622e-002
1.851406e+003;5.561004e-002
1.853335e+003;5.541865e-002
1.855263e+003;5.535963e-002
1.857192e+003;5.527608e-002
1.859120e+003;5.511080e-002
1.861049e+003;5.502929e-002
1.862977e+003;5.511779e-002
1.864906e+003;5.514842e-002
1.866834e+003;5.477046e-002
1.868763e+003;5.437293e-002
1.870692e+003;5.468199e-002
1.872620e+003;5.507589e-002
1.874549e+003;5.509255e-002
1.876477e+003;5.487271e-002
1.878406e+003;5.473844e-002
1.880334e+003;5.487500e-002
1.882263e+003;5.500105e-002
1.884191e+003;5.502564e-002
1.886120e+003;5.500364e-002
1.888048e+003;5.487380e-002
1.889977e+003;5.480880e-002
1.891906e+003;5.487278e-002
1.893834e+003;5.482767e-002
1.895763e+003;5.467135e-002
1.897691e+003;5.460349e-002
1.899620e+003;5.468300e-002
1.901548e+003;5.498555e-002
1.903477e+003;5.525595e-002
1.905405e+003;5.530306e-002
1.907334e+003;5.529080e-002
1.909262e+003;5.526344e-002
1.911191e+003;5.535982e-002
1.913120e+003;5.539874e-002
1.915048e+003;5.547271e-002
1.916977e+003;5.551526e-002
1.918905e+003;5.560424e-002
1.920834e+003;5.574311e-002
1.922762e+003;5.591542e-002
1.924691e+003;5.616174e-002
1.926619e+003;5.626062e-002
1.928548e+003;5.634964e-002
1.930477e+003;5.640529e-002
1.932405e+003;5.638318e-002
1.934334e+003;5.633025e-002
1.936262e+003;5.620729e-002
1.938191e+003;5.632349e-002
1.940119e+003;5.653758e-002
1.942048e+003;5.661994e-002
1.943976e+003;5.677342e-002
1.945905e+003;5.695172e-002
1.947833e+003;5.697458e-002
1.949762e+003;5.700250e-002
1.951691e+003;5.716941e-002
1.953619e+003;5.722029e-002
1.955548e+003;5.730058e-002
1.957476e+003;5.753505e-002
1.959405e+003;5.766092e-002
1.961333e+003;5.754035e-002
1.963262e+003;5.746768e-002
1.965190e+003;5.748928e-002
1.967119e+003;5.760027e-002
1.969047e+003;5.769566e-002
1.970976e+003;5.768079e-002
1.972905e+003;5.794435e-002
1.974833e+003;5.806864e-002
1.976762e+003;5.805754e-002
1.978690e+003;5.799672e-002
1.980619e+003;5.799922e-002
1.982547e+003;5.800122e-002
1.984476e+003;5.811280e-002
1.986404e+003;5.814704e-002
1.988333e+003;5.798551e-002
1.990261e+003;5.788071e-002
1.992190e+003;5.790232e-002
1.994119e+003;5.801028e-002
1.996047e+003;5.811916e-002
1.997976e+003;5.842419e-002
1.999904e+003;5.858687e-002
2.001833e+003;5.852704e-002
2.003761e+003;5.857864e-002
2.005690e+003;5.870615e-002
2.007618e+003;5.887030e-002
2.009547e+003;5.909294e-002
2.011476e+003;5.923624e-002
2.013404e+003;5.944234e-002
2.015333e+003;5.948391e-002
2.017261e+003;5.942509e-002
2.019190e+003;5.948277e-002
2.021118e+003;5.947832e-002
2.023047e+003;5.957223e-002
2.024975e+003;5.984124e-002
2.026904e+003;5.989406e-002
2.028833e+003;5.967538e-002
2.030761e+003;5.970576e-002
2.032690e+003;5.975864e-002
2.034618e+003;5.957329e-002
2.036547e+003;5.959917e-002
2.038475e+003;5.983013e-002
2.040404e+003;5.989768e-002
2.042332e+003;5.980990e-002
2.044261e+003;5.977108e-002
2.046189e+003;5.981796e-002
2.048118e+003;5.986558e-002
2.050047e+003;5.992578e-002
2.051975e+003;6.011810e-002
2.053904e+003;6.022002e-002
2.055832e+003;6.017575e-002
2.057761e+003;6.015414e-002
2.059689e+003;6.027453e-002
2.061618e+003;6.036468e-002
2.063546e+003;6.002595e-002
2.065475e+003;5.987813e-002
2.067404e+003;5.992038e-002
2.069332e+003;6.003751e-002
2.071260e+003;6.027392e-002
2.073189e+003;6.032029e-002
2.075118e+003;6.016179e-002
2.077046e+003;6.007233e-002
2.078975e+003;6.008914e-002
2.080903e+003;6.008222e-002
2.082832e+003;6.008602e-002
2.084760e+003;6.006243e-002
2.086689e+003;6.025778e-002
2.088617e+003;6.038554e-002
2.090546e+003;6.029101e-002
2.092475e+003;6.027514e-002
2.094403e+003;6.036038e-002
2.096332e+003;6.037012e-002
2.098260e+003;6.031138e-002
2.100189e+003;6.016080e-002
2.102117e+003;6.012769e-002
2.104046e+003;6.034248e-002
2.105974e+003;6.065975e-002
2.107903e+003;6.064352e-002
2.109832e+003;6.049922e-002
2.111760e+003;6.066607e-002
2.113688e+003;6.065514e-002
2.115617e+003;6.038383e-002
2.117546e+003;6.042233e-002
2.119474e+003;6.065365e-002
2.121403e+003;6.073950e-002
2.123331e+003;6.068451e-002
2.125260e+003;6.066881e-002
2.127188e+003;6.065060e-002
2.129117e+003;6.061650e-002
2.131045e+003;6.080497e-002
2.132974e+003;6.092615e-002
2.134903e+003;6.079827e-002
2.136831e+003;6.077936e-002
2.138760e+003;6.085914e-002
2.140688e+003;6.085571e-002
2.142617e+003;6.072182e-002
2.144545e+003;6.068470e-002
2.146474e+003;6.064683e-002
2.148402e+003;6.056706e-002
2.150331e+003;6.075486e-002
2.152260e+003;6.074411e-002
2.154188e+003;6.049697e-002
2.156117e+003;6.053986e-002
2.158045e+003;6.042138e-002
2.159974e+003;6.031990e-002
2.161902e+003;6.040748e-002
2.163831e+003;6.031667e-002
2.165759e+003;6.029844e-002
2.167688e+003;6.027152e-002
2.169616e+003;6.014226e-002
2.171545e+003;6.001647e-002
2.173474e+003;5.998722e-002
2.175402e+003;5.985922e-002
2.177331e+003;5.987946e-002
2.179259e+003;5.987470e-002
2.181188e+003;5.967504e-002
2.183116e+003;5.944284e-002
2.185045e+003;5.935762e-002
2.186973e+003;5.953209e-002
2.188902e+003;5.963140e-002
2.190831e+003;5.943877e-002
2.192759e+003;5.919796e-002
2.194688e+003;5.912434e-002
2.196616e+003;5.904450e-002
2.198545e+003;5.926810e-002
2.200473e+003;5.945264e-002
2.202402e+003;5.937457e-002
2.204330e+003;5.918554e-002
2.206259e+003;5.907650e-002
2.208188e+003;5.902541e-002
2.210116e+003;5.889174e-002
2.212044e+003;5.882879e-002
2.213973e+003;5.897257e-002
2.215902e+003;5.913527e-002
2.217830e+003;5.914920e-002
2.219759e+003;5.915068e-002
2.221687e+003;5.901629e-002
2.223616e+003;5.885626e-002
2.225544e+003;5.880083e-002
2.227473e+003;5.897902e-002
2.229401e+003;5.903216e-002
2.231330e+003;5.866916e-002
2.233259e+003;5.867099e-002
2.235187e+003;5.875402e-002
2.237116e+003;5.851923e-002
2.239044e+003;5.832091e-002
2.240973e+003;5.832845e-002
2.242901e+003;5.828874e-002
2.244830e+003;5.828488e-002
2.246758e+003;5.821266e-002
2.248687e+003;5.807640e-002
2.250615e+003;5.807609e-002
2.252544e+003;5.795272e-002
2.254473e+003;5.775341e-002
2.256401e+003;5.780466e-002
2.258330e+003;5.808511e-002
2.260258e+003;5.814553e-002
2.262187e+003;5.799127e-002
2.264115e+003;5.783376e-002
2.266044e+003;5.763735e-002
2.267972e+003;5.765351e-002
2.269901e+003;5.768714e-002
2.271830e+003;5.756108e-002
2.273758e+003;5.737257e-002
2.275687e+003;5.732024e-002
2.277615e+003;5.753471e-002
2.279544e+003;5.752889e-002
2.281472e+003;5.756104e-002
2.283401e+003;5.743641e-002
2.285329e+003;5.731862e-002
2.287258e+003;5.754035e-002
2.289187e+003;5.767814e-002
2.291115e+003;5.743501e-002
2.293043e+003;5.721416e-002
2.294972e+003;5.749628e-002
2.296901e+003;5.741236e-002
2.298829e+003;5.708714e-002
2.300758e+003;5.730032e-002
2.302686e+003;5.751096e-002
2.304615e+003;5.731431e-002
2.306543e+003;5.713691e-002
2.308472e+003;5.733677e-002
2.310400e+003;5.764658e-002
2.312329e+003;5.785852e-002
2.314258e+003;5.781715e-002
2.316186e+003;5.758609e-002
2.318115e+003;5.753532e-002
2.320043e+003;5.748096e-002
2.321972e+003;5.746610e-002
2.323900e+003;5.769104e-002
2.325829e+003;5.756569e-002
2.327757e+003;5.734130e-002
2.329686e+003;5.745853e-002
2.331615e+003;5.756100e-002
2.333543e+003;5.766769e-002
2.335472e+003;5.776772e-002
2.337400e+003;5.778921e-002
2.339329e+003;5.798013e-002
2.341257e+003;5.820508e-002
2.343186e+003;5.803466e-002
2.345114e+003;5.794746e-002
2.347043e+003;5.834778e-002
2.348971e+003;5.859870e-002
2.350900e+003;5.851407e-002
2.352829e+003;5.860989e-002
2.354757e+003;5.881043e-002
2.356686e+003;5.907855e-002
2.358614e+003;5.918843e-002
2.360543e+003;5.918114e-002
2.362471e+003;5.929457e-002
2.364400e+003;5.910744e-002
2.366328e+003;5.894938e-002
2.368257e+003;5.908595e-002
2.370186e+003;5.916560e-002
2.372114e+003;5.937422e-002
2.374042e+003;5.952062e-002
2.375971e+003;5.952970e-002
2.377900e+003;5.944933e-002
2.379828e+003;5.939687e-002
2.381757e+003;5.945465e-002
2.383685e+003;5.966919e-002
2.385614e+003;5.971667e-002
2.387542e+003;5.979416e-002
2.389471e+003;5.989707e-002
2.391399e+003;5.994260e-002
2.393328e+003;6.007632e-002
2.395257e+003;6.026775e-002
2.397185e+003;6.038501e-002
2.399114e+003;6.040576e-002
2.401042e+003;6.032120e-002
2.402971e+003;6.011985e-002
2.404899e+003;6.045295e-002
2.406828e+003;6.079148e-002
2.408756e+003;6.076416e-002
2.410685e+003;6.084644e-002
2.412614e+003;6.100824e-002
2.414542e+003;6.098681e-002
2.416471e+003;6.094910e-002
2.418399e+003;6.117273e-002
2.420328e+003;6.146709e-002
2.422256e+003;6.143533e-002
2.424185e+003;6.151569e-002
2.426113e+003;6.174709e-002
2.428042e+003;6.170955e-002
2.429970e+003;6.180409e-002
2.431899e+003;6.197285e-002
2.433828e+003;6.207880e-002
2.435756e+003;6.222129e-002
2.437685e+003;6.230676e-002
2.439613e+003;6.238892e-002
2.441542e+003;6.252719e-002
2.443470e+003;6.280627e-002
2.445399e+003;6.312189e-002
2.447327e+003;6.329896e-002
2.449256e+003;6.341462e-002
2.451185e+003;6.357673e-002
2.453113e+003;6.366710e-002
2.455042e+003;6.366646e-002
2.456970e+003;6.369960e-002
2.458899e+003;6.391440e-002
2.460827e+003;6.413634e-002
2.462756e+003;6.399549e-002
2.464684e+003;6.409068e-002
2.466613e+003;6.435670e-002
2.468542e+003;6.429806e-002
2.470470e+003;6.432588e-002
2.472398e+003;6.456102e-002
2.474327e+003;6.490578e-002
2.476256e+003;6.511806e-002
2.478184e+003;6.515882e-002
2.480113e+003;6.516214e-002
2.482041e+003;6.543201e-002
2.483970e+003;6.548066e-002
2.485898e+003;6.547573e-002
2.487827e+003;6.563754e-002
2.489755e+003;6.576543e-002
2.491684e+003;6.572387e-002
2.493613e+003;6.551557e-002
2.495541e+003;6.532501e-002
2.497470e+003;6.536029e-002
2.499398e+003;6.548602e-002
2.501327e+003;6.572634e-002
2.503255e+003;6.584162e-002
2.505184e+003;6.605054e-002
2.507112e+003;6.618307e-002
2.509041e+003;6.623925e-002
2.510969e+003;6.633181e-002
2.512898e+003;6.639805e-002
2.514827e+003;6.647671e-002
2.516755e+003;6.653892e-002
2.518684e+003;6.650084e-002
2.520612e+003;6.655101e-002
2.522541e+003;6.668195e-002
2.524469e+003;6.686488e-002
2.526398e+003;6.686600e-002
2.528326e+003;6.686921e-002
2.530255e+003;6.711795e-002
2.532184e+003;6.724137e-002
2.534112e+003;6.727827e-002
2.536041e+003;6.728156e-002
2.537969e+003;6.707673e-002
2.539898e+003;6.705136e-002
2.541826e+003;6.715125e-002
2.543755e+003;6.708813e-002
2.545683e+003;6.717005e-002
2.547612e+003;6.739330e-002
2.549541e+003;6.750678e-002
2.551469e+003;6.768544e-002
2.553397e+003;6.787061e-002
2.555326e+003;6.793337e-002
2.557255e+003;6.790284e-002
2.559183e+003;6.798305e-002
2.561112e+003;6.807198e-002
2.563040e+003;6.815074e-002
2.564969e+003;6.826659e-002
2.566897e+003;6.838564e-002
2.568826e+003;6.844576e-002
2.570754e+003;6.851590e-002
2.572683e+003;6.849227e-002
2.574612e+003;6.857060e-002
2.576540e+003;6.876244e-002
2.578469e+003;6.876438e-002
2.580397e+003;6.881551e-002
2.582326e+003;6.895459e-002
2.584254e+003;6.905795e-002
2.586183e+003;6.900446e-002
2.588111e+003;6.900364e-002
2.590040e+003;6.901705e-002
2.591969e+003;6.927802e-002
2.593897e+003;6.963245e-002
2.595826e+003;6.980686e-002
2.597754e+003;6.973931e-002
2.599683e+003;6.969263e-002
2.601611e+003;6.978191e-002
2.603540e+003;7.009128e-002
2.605468e+003;7.016663e-002
2.607397e+003;7.001042e-002
2.609325e+003;7.016324e-002
2.611254e+003;7.036338e-002
2.613183e+003;7.045690e-002
2.615111e+003;7.071246e-002
2.617040e+003;7.095475e-002
2.618968e+003;7.093388e-002
2.620897e+003;7.099256e-002
2.622825e+003;7.121182e-002
2.624754e+003;7.138889e-002
2.626682e+003;7.159186e-002
2.628611e+003;7.178868e-002
2.630540e+003;7.187836e-002
2.632468e+003;7.188293e-002
2.634396e+003;7.207561e-002
2.636325e+003;7.234833e-002
2.638254e+003;7.255747e-002
2.640182e+003;7.277682e-002
2.642111e+003;7.287740e-002
2.644039e+003;7.286408e-002
2.645968e+003;7.306244e-002
2.647896e+003;7.339938e-002
2.649825e+003;7.366508e-002
2.651753e+003;7.380043e-002
2.653682e+003;7.386456e-002
2.655611e+003;7.416852e-002
2.657539e+003;7.451961e-002
2.659468e+003;7.438651e-002
2.661396e+003;7.433528e-002
2.663325e+003;7.467809e-002
2.665253e+003;7.493816e-002
2.667182e+003;7.505783e-002
2.669110e+003;7.530331e-002
2.671039e+003;7.551502e-002
2.672968e+003;7.573266e-002
2.674896e+003;7.609402e-002
2.676825e+003;7.616688e-002
2.678753e+003;7.622974e-002
2.680682e+003;7.628902e-002
2.682610e+003;7.611641e-002
2.684539e+003;7.609659e-002
2.686467e+003;7.647406e-002
2.688396e+003;7.683714e-002
2.690324e+003;7.679903e-002
2.692253e+003;7.708925e-002
2.694182e+003;7.748367e-002
2.696110e+003;7.752668e-002
2.698039e+003;7.746129e-002
2.699967e+003;7.761993e-002
2.701896e+003;7.792264e-002
2.703824e+003;7.833007e-002
2.705753e+003;7.882401e-002
2.707681e+003;7.877097e-002
2.709610e+003;7.860588e-002
2.711539e+003;7.881217e-002
2.713467e+003;7.919122e-002
2.715396e+003;7.932026e-002
2.717324e+003;7.920366e-002
2.719253e+003;7.924274e-002
2.721181e+003;7.951161e-002
2.723110e+003;7.964573e-002
2.725038e+003;7.963717e-002
2.726967e+003;7.983030e-002
2.728896e+003;8.001471e-002
2.730824e+003;8.003168e-002
2.732752e+003;8.024953e-002
2.734681e+003;8.048823e-002
2.736610e+003;8.079019e-002
2.738538e+003;8.107407e-002
2.740467e+003;8.125976e-002
2.742395e+003;8.119265e-002
2.744324e+003;8.104021e-002
2.746252e+003;8.088387e-002
2.748181e+003;8.099537e-002
2.750109e+003;8.104452e-002
2.752038e+003;8.142036e-002
2.753967e+003;8.189446e-002
2.755895e+003;8.204352e-002
2.757824e+003;8.205021e-002
2.759752e+003;8.210745e-002
2.761681e+003;8.250645e-002
2.763609e+003;8.277706e-002
2.765538e+003;8.302493e-002
2.767466e+003;8.332501e-002
2.769395e+003;8.343558e-002
2.771323e+003;8.360871e-002
2.773252e+003;8.379545e-002
2.775181e+003;8.419588e-002
2.777109e+003;8.465277e-002
2.779038e+003;8.466232e-002
2.780966e+003;8.476275e-002
2.782895e+003;8.515117e-002
2.784823e+003;8.527455e-002
2.786752e+003;8.554059e-002
2.788680e+003;8.613601e-002
2.790609e+003;8.653431e-002
2.792538e+003;8.672094e-002
2.794466e+003;8.723737e-002
2.796395e+003;8.766787e-002
2.798323e+003;8.784833e-002
2.800252e+003;8.807334e-002
2.802180e+003;8.854055e-002
2.804109e+003;8.898544e-002
2.806037e+003;8.929569e-002
2.807966e+003;8.960731e-002
2.809895e+003;8.988128e-002
2.811823e+003;9.042460e-002
2.813751e+003;9.096281e-002
2.815680e+003;9.135969e-002
2.817609e+003;9.161824e-002
2.819537e+003;9.175517e-002
2.821466e+003;9.225097e-002
2.823394e+003;9.282210e-002
2.825323e+003;9.320746e-002
2.827251e+003;9.385444e-002
2.829180e+003;9.466685e-002
2.831108e+003;9.539219e-002
2.833037e+003;9.594101e-002
2.834966e+003;9.684259e-002
2.836894e+003;9.799767e-002
2.838823e+003;9.859683e-002
2.840751e+003;9.906051e-002
2.842680e+003;9.988873e-002
2.844608e+003;1.003691e-001
2.846537e+003;1.000698e-001
2.848465e+003;1.003139e-001
2.850394e+003;1.012109e-001
2.852323e+003;1.021035e-001
2.854251e+003;1.033816e-001
2.856180e+003;1.052905e-001
2.858108e+003;1.073246e-001
2.860037e+003;1.092220e-001
2.861965e+003;1.111354e-001
2.863894e+003;1.129969e-001
2.865822e+003;1.148005e-001
2.867751e+003;1.163282e-001
2.869679e+003;1.175726e-001
2.871608e+003;1.186950e-001
2.873536e+003;1.197147e-001
2.875465e+003;1.207632e-001
2.877394e+003;1.219184e-001
2.879322e+003;1.227991e-001
2.881251e+003;1.232053e-001
2.883179e+003;1.234656e-001
2.885108e+003;1.237543e-001
2.887036e+003;1.239750e-001
2.888965e+003;1.242369e-001
2.890893e+003;1.243339e-001
2.892822e+003;1.243439e-001
2.894750e+003;1.237959e-001
2.896679e+003;1.230151e-001
2.898608e+003;1.224123e-001
2.900536e+003;1.218634e-001
2.902465e+003;1.211943e-001
2.904393e+003;1.203386e-001
2.906322e+003;1.195006e-001
2.908250e+003;1.186385e-001
2.910179e+003;1.175815e-001
2.912107e+003;1.160551e-001
2.914036e+003;1.141841e-001
2.915965e+003;1.124868e-001
2.917893e+003;1.107045e-001
2.919822e+003;1.093553e-001
2.921750e+003;1.085102e-001
2.923679e+003;1.074358e-001
2.925607e+003;1.058687e-001
2.927536e+003;1.047589e-001
2.929464e+003;1.042899e-001
2.931393e+003;1.038877e-001
2.933322e+003;1.034055e-001
2.935250e+003;1.027711e-001
2.937178e+003;1.019636e-001
2.939107e+003;1.011560e-001
2.941036e+003;1.003768e-001
2.942964e+003;9.940566e-002
2.944893e+003;9.846741e-002
2.946821e+003;9.757283e-002
2.948750e+003;9.652045e-002
2.950678e+003;9.531014e-002
2.952607e+003;9.412963e-002
2.954535e+003;9.254418e-002
2.956464e+003;9.092780e-002
2.958393e+003;9.010547e-002
2.960321e+003;8.940473e-002
2.962250e+003;8.848567e-002
2.964178e+003;8.803179e-002
2.966107e+003;8.771393e-002
2.968035e+003;8.734921e-002
2.969964e+003;8.708238e-002
2.971892e+003;8.672830e-002
2.973821e+003;8.636632e-002
2.975750e+003;8.626726e-002
2.977678e+003;8.613189e-002
2.979607e+003;8.575388e-002
2.981535e+003;8.590759e-002
2.983464e+003;8.609476e-002
2.985392e+003;8.564615e-002
2.987321e+003;8.498355e-002
2.989249e+003;8.461005e-002
2.991178e+003;8.440275e-002
2.993106e+003;8.423108e-002
2.995035e+003;8.431492e-002
2.996964e+003;8.445854e-002
2.998892e+003;8.453441e-002
3.000821e+003;8.461364e-002
3.002749e+003;8.472183e-002
3.004678e+003;8.475679e-002
3.006606e+003;8.489773e-002
3.008535e+003;8.514045e-002
3.010463e+003;8.547871e-002
3.012392e+003;8.555960e-002
3.014321e+003;8.580738e-002
3.016249e+003;8.633370e-002
3.018177e+003;8.663134e-002
3.020106e+003;8.691867e-002
3.022035e+003;8.744415e-002
3.023963e+003;8.787770e-002
3.025892e+003;8.819227e-002
3.027820e+003;8.865985e-002
3.029749e+003;8.933326e-002
3.031677e+003;8.990842e-002
3.033606e+003;9.040266e-002
3.035534e+003;9.074189e-002
3.037463e+003;9.118503e-002
3.039392e+003;9.194025e-002
3.041320e+003;9.248616e-002
3.043249e+003;9.260564e-002
3.045177e+003;9.285029e-002
3.047106e+003;9.357589e-002
3.049034e+003;9.443307e-002
3.050963e+003;9.503095e-002
3.052891e+003;9.546451e-002
3.054820e+003;9.602400e-002
3.056749e+003;9.652885e-002
3.058677e+003;9.693164e-002
3.060606e+003;9.735738e-002
3.062534e+003;9.837227e-002
3.064463e+003;9.930674e-002
3.066391e+003;9.966713e-002
3.068320e+003;1.000537e-001
3.070248e+003;1.004920e-001
3.072177e+003;1.009784e-001
3.074105e+003;1.018048e-001
3.076034e+003;1.028227e-001
3.077963e+003;1.036592e-001
3.079891e+003;1.042080e-001
3.081820e+003;1.047130e-001
3.083748e+003;1.051108e-001
3.085677e+003;1.056574e-001
3.087605e+003;1.064905e-001
3.089534e+003;1.072402e-001
3.091462e+003;1.081066e-001
3.093391e+003;1.087697e-001
3.095320e+003;1.092845e-001
3.097248e+003;1.101853e-001
3.099177e+003;1.109889e-001
3.101105e+003;1.113222e-001
3.103034e+003;1.119370e-001
3.104962e+003;1.128039e-001
3.106891e+003;1.134054e-001
3.108819e+003;1.139063e-001
3.110748e+003;1.149809e-001
3.112677e+003;1.158842e-001
3.114605e+003;1.163991e-001
3.116533e+003;1.172868e-001
3.118462e+003;1.182296e-001
3.120391e+003;1.192601e-001
3.122319e+003;1.199873e-001
3.124248e+003;1.202830e-001
3.126176e+003;1.209270e-001
3.128105e+003;1.219140e-001
3.130033e+003;1.231680e-001
3.131962e+003;1.240342e-001
3.133890e+003;1.243820e-001
3.135819e+003;1.248003e-001
3.137748e+003;1.250015e-001
3.139676e+003;1.255456e-001
3.141605e+003;1.264493e-001
3.143533e+003;1.272781e-001
3.145462e+003;1.282271e-001
3.147390e+003;1.292669e-001
3.149319e+003;1.300295e-001
3.151247e+003;1.305771e-001
3.153176e+003;1.308995e-001
3.155104e+003;1.316579e-001
3.157033e+003;1.326883e-001
3.158962e+003;1.334811e-001
3.160890e+003;1.342050e-001
3.162819e+003;1.350884e-001
3.164747e+003;1.356070e-001
3.166676e+003;1.364161e-001
3.168604e+003;1.374229e-001
3.170533e+003;1.381358e-001
3.172461e+003;1.388223e-001
3.174390e+003;1.397680e-001
3.176319e+003;1.403642e-001
3.178247e+003;1.406344e-001
3.180176e+003;1.414334e-001
3.182104e+003;1.426574e-001
3.184033e+003;1.433180e-001
3.185961e+003;1.435704e-001
3.187890e+003;1.439844e-001
3.189818e+003;1.450908e-001
3.191747e+003;1.463638e-001
3.193676e+003;1.470386e-001
3.195604e+003;1.473736e-001
3.197532e+003;1.476618e-001
3.199461e+003;1.481231e-001
3.201390e+003;1.492276e-001
3.203318e+003;1.504284e-001
3.205247e+003;1.510485e-001
3.207175e+003;1.514990e-001
3.209104e+003;1.522804e-001
3.211032e+003;1.531668e-001
3.212961e+003;1.538726e-001
3.214889e+003;1.543566e-001
3.216818e+003;1.548369e-001
3.218747e+003;1.556962e-001
3.220675e+003;1.567218e-001
3.222604e+003;1.573357e-001
3.224532e+003;1.575946e-001
3.226461e+003;1.580419e-001
3.228389e+003;1.588667e-001
3.230318e+003;1.595424e-001
3.232246e+003;1.597138e-001
3.234175e+003;1.602254e-001
3.236104e+003;1.609705e-001
3.238032e+003;1.614327e-001
3.239961e+003;1.620042e-001
3.241889e+003;1.632500e-001
3.243818e+003;1.640065e-001
3.245746e+003;1.641439e-001
3.247675e+003;1.646338e-001
3.249603e+003;1.651797e-001
3.251532e+003;1.655666e-001
3.253460e+003;1.657684e-001
3.255389e+003;1.660524e-001
3.257318e+003;1.668173e-001
3.259246e+003;1.675325e-001
3.261175e+003;1.680478e-001
3.263103e+003;1.685824e-001
3.265032e+003;1.689703e-001
3.266960e+003;1.692992e-001
3.268889e+003;1.698961e-001
3.270817e+003;1.704132e-001
3.272746e+003;1.707525e-001
3.274675e+003;1.708911e-001
3.276603e+003;1.711054e-001
3.278531e+003;1.718409e-001
3.280460e+003;1.720642e-001
3.282389e+003;1.720077e-001
3.284317e+003;1.724176e-001
3.286246e+003;1.728314e-001
3.288174e+003;1.730599e-001
3.290103e+003;1.734461e-001
3.292031e+003;1.738883e-001
3.293960e+003;1.743364e-001
3.295888e+003;1.743518e-001
3.297817e+003;1.746330e-001
3.299746e+003;1.751235e-001
3.301674e+003;1.754282e-001
3.303603e+003;1.756583e-001
3.305531e+003;1.753921e-001
3.307460e+003;1.754712e-001
3.309388e+003;1.762632e-001
3.311317e+003;1.766224e-001
3.313245e+003;1.766463e-001
3.315174e+003;1.766423e-001
3.317103e+003;1.766436e-001
3.319031e+003;1.767897e-001
3.320960e+003;1.771975e-001
3.322888e+003;1.773422e-001
3.324817e+003;1.773082e-001
3.326745e+003;1.775441e-001
3.328674e+003;1.776986e-001
3.330602e+003;1.772531e-001
3.332531e+003;1.766930e-001
3.334459e+003;1.769860e-001
3.336388e+003;1.774048e-001
3.338317e+003;1.773922e-001
3.340245e+003;1.770063e-001
3.342174e+003;1.766118e-001
3.344102e+003;1.768657e-001
3.346031e+003;1.771218e-001
3.347959e+003;1.770772e-001
3.349888e+003;1.770080e-001
3.351816e+003;1.767798e-001
3.353745e+003;1.763306e-001
3.355674e+003;1.760763e-001
3.357602e+003;1.762599e-001
3.359531e+003;1.761376e-001
3.361459e+003;1.757190e-001
3.363388e+003;1.754054e-001
3.365316e+003;1.755191e-001
3.367245e+003;1.754263e-001
3.369173e+003;1.751311e-001
3.371102e+003;1.743813e-001
3.373031e+003;1.736286e-001
3.374959e+003;1.736785e-001
3.376887e+003;1.733925e-001
3.378816e+003;1.729778e-001
3.380745e+003;1.731726e-001
3.382673e+003;1.726822e-001
3.384602e+003;1.720075e-001
3.386530e+003;1.716476e-001
3.388459e+003;1.714692e-001
3.390387e+003;1.711936e-001
3.392316e+003;1.706307e-001
3.394244e+003;1.699772e-001
3.396173e+003;1.692934e-001
3.398102e+003;1.689128e-001
3.400030e+003;1.682553e-001
3.401959e+003;1.677981e-001
3.403887e+003;1.677471e-001
3.405816e+003;1.673291e-001
3.407744e+003;1.668277e-001
3.409673e+003;1.661513e-001
3.411601e+003;1.653692e-001
3.413530e+003;1.648052e-001
3.415458e+003;1.646052e-001
3.417387e+003;1.639853e-001
3.419316e+003;1.631043e-001
3.421244e+003;1.620951e-001
3.423173e+003;1.615049e-001
3.425101e+003;1.609936e-001
3.427030e+003;1.604681e-001
3.428958e+003;1.603774e-001
3.430887e+003;1.596569e-001
3.432815e+003;1.588326e-001
3.434744e+003;1.582197e-001
3.436673e+003;1.571866e-001
3.438601e+003;1.563168e-001
3.440530e+003;1.557808e-001
3.442458e+003;1.545513e-001
3.444387e+003;1.530730e-001
3.446315e+003;1.523525e-001
3.448244e+003;1.513774e-001
3.450172e+003;1.499503e-001
3.452101e+003;1.487411e-001
3.454030e+003;1.474908e-001
3.455958e+003;1.461010e-001
3.457886e+003;1.448017e-001
3.459815e+003;1.436631e-001
3.461744e+003;1.424032e-001
3.463672e+003;1.411648e-001
3.465601e+003;1.400142e-001
3.467529e+003;1.388254e-001
3.469458e+003;1.375015e-001
3.471386e+003;1.363831e-001
3.473315e+003;1.353163e-001
3.475243e+003;1.341738e-001
3.477172e+003;1.328323e-001
3.479101e+003;1.317291e-001
3.481029e+003;1.307741e-001
3.482958e+003;1.295837e-001
3.484886e+003;1.280202e-001
3.486815e+003;1.270123e-001
3.488743e+003;1.262265e-001
3.490672e+003;1.252009e-001
3.492600e+003;1.235917e-001
3.494529e+003;1.218653e-001
3.496458e+003;1.201477e-001
3.498386e+003;1.182844e-001
3.500315e+003;1.165873e-001
3.502243e+003;1.149802e-001
3.504172e+003;1.135193e-001
3.506100e+003;1.122622e-001
3.508029e+003;1.105324e-001
3.509957e+003;1.092005e-001
3.511886e+003;1.083933e-001
3.513814e+003;1.070633e-001
3.515743e+003;1.055674e-001
3.517672e+003;1.042019e-001
3.519600e+003;1.027707e-001
3.521529e+003;1.015023e-001
3.523457e+003;1.000813e-001
3.525386e+003;9.839451e-002
3.527314e+003;9.716833e-002
3.529243e+003;9.605868e-002
3.531171e+003;9.471625e-002
3.533100e+003;9.370846e-002
3.535029e+003;9.264234e-002
3.536957e+003;9.145939e-002
3.538885e+003;9.041228e-002
3.540814e+003;8.933061e-002
3.542743e+003;8.843769e-002
3.544671e+003;8.766130e-002
3.546600e+003;8.660408e-002
3.548528e+003;8.544337e-002
3.550457e+003;8.420739e-002
3.552385e+003;8.300652e-002
3.554314e+003;8.212058e-002
3.556242e+003;8.108629e-002
3.558171e+003;7.996913e-002
3.560100e+003;7.927445e-002
3.562028e+003;7.830091e-002
3.563957e+003;7.658309e-002
3.565885e+003;7.475412e-002
3.567814e+003;7.366108e-002
3.569742e+003;7.359501e-002
3.571671e+003;7.318784e-002
3.573599e+003;7.211602e-002
3.575528e+003;7.097168e-002
3.577457e+003;6.993766e-002
3.579385e+003;6.929729e-002
3.581314e+003;6.863769e-002
3.583242e+003;6.747821e-002
3.585171e+003;6.631834e-002
3.587099e+003;6.532339e-002
3.589028e+003;6.479425e-002
3.590956e+003;6.431278e-002
3.592885e+003;6.336612e-002
3.594813e+003;6.240170e-002
3.596742e+003;6.222202e-002
3.598671e+003;6.191874e-002
3.600599e+003;6.092318e-002
3.602528e+003;6.018595e-002
3.604456e+003;5.979735e-002
3.606385e+003;5.900954e-002
3.608313e+003;5.786019e-002
3.610242e+003;5.749246e-002
3.612170e+003;5.705513e-002
3.614099e+003;5.657340e-002
3.616028e+003;5.580490e-002
3.617956e+003;5.474652e-002
3.619885e+003;5.489061e-002
3.621813e+003;5.525903e-002
3.623742e+003;5.481267e-002
3.625670e+003;5.370045e-002
3.627599e+003;5.169043e-002
3.629527e+003;5.081156e-002
3.631456e+003;5.177531e-002
3.633385e+003;5.180207e-002
3.635313e+003;5.145734e-002
3.637241e+003;5.129112e-002
3.639170e+003;5.116510e-002
3.641099e+003;5.065490e-002
3.643027e+003;5.024552e-002
3.644956e+003;4.999284e-002
3.646884e+003;4.879826e-002
3.648813e+003;4.738189e-002
3.650741e+003;4.739962e-002
3.652670e+003;4.808098e-002
3.654598e+003;4.778046e-002
3.656527e+003;4.733403e-002
3.658456e+003;4.763516e-002
3.660384e+003;4.775391e-002
3.662313e+003;4.730687e-002
3.664241e+003;4.688518e-002
3.666170e+003;4.634624e-002
3.668098e+003;4.491938e-002
3.670027e+003;4.375387e-002
3.671955e+003;4.415628e-002
3.673884e+003;4.347387e-002
3.675813e+003;4.281297e-002
3.677741e+003;4.405260e-002
3.679669e+003;4.446035e-002
3.681598e+003;4.399877e-002
3.683527e+003;4.333762e-002
3.685455e+003;4.284903e-002
3.687384e+003;4.200684e-002
3.689312e+003;4.178946e-002
3.691241e+003;4.216107e-002
3.693169e+003;4.229710e-002
3.695098e+003;4.262436e-002
3.697026e+003;4.218736e-002
3.698955e+003;4.139416e-002
3.700884e+003;4.111469e-002
3.702812e+003;4.131985e-002
3.704741e+003;4.169025e-002
3.706669e+003;4.140072e-002
3.708598e+003;4.062441e-002
3.710526e+003;4.007258e-002
3.712455e+003;4.001673e-002
3.714383e+003;4.060658e-002
3.716312e+003;4.069882e-002
3.718240e+003;4.025972e-002
3.720169e+003;4.038842e-002
3.722098e+003;4.034552e-002
3.724026e+003;3.989892e-002
3.725955e+003;3.966514e-002
3.727883e+003;3.986398e-002
3.729812e+003;3.933078e-002
3.731740e+003;3.853878e-002
3.733669e+003;3.862316e-002
3.735597e+003;3.807165e-002
3.737526e+003;3.813662e-002
3.739455e+003;3.906960e-002
3.741383e+003;3.890381e-002
3.743312e+003;3.681242e-002
3.745240e+003;3.692077e-002
3.747169e+003;3.777043e-002
3.749097e+003;3.671516e-002
3.751026e+003;3.646695e-002
3.752954e+003;3.730290e-002
3.754883e+003;3.803118e-002
3.756812e+003;3.842778e-002
3.758740e+003;3.935903e-002
3.760668e+003;3.967687e-002
3.762597e+003;3.901555e-002
3.764526e+003;3.845515e-002
3.766454e+003;3.882605e-002
3.768383e+003;3.853172e-002
3.770311e+003;3.828482e-002
3.772240e+003;3.877841e-002
3.774168e+003;3.915481e-002
3.776097e+003;3.908037e-002
3.778025e+003;3.887145e-002
3.779954e+003;3.881174e-002
3.781883e+003;3.889776e-002
3.783811e+003;3.903147e-002
3.785740e+003;3.950718e-002
3.787668e+003;3.945874e-002
3.789597e+003;3.915444e-002
3.791525e+003;3.878569e-002
3.793454e+003;3.844664e-002
3.795382e+003;3.838471e-002
3.797311e+003;3.884033e-002
3.799240e+003;3.853679e-002
3.801168e+003;3.756156e-002
3.803097e+003;3.809411e-002
3.805025e+003;3.838851e-002
3.806954e+003;3.792906e-002
3.808882e+003;3.853013e-002
3.810811e+003;3.925301e-002
3.812739e+003;3.941694e-002
3.814668e+003;3.826018e-002
3.816596e+003;3.780010e-002
3.818525e+003;3.778380e-002
3.820454e+003;3.711035e-002
3.822382e+003;3.796327e-002
3.824311e+003;3.883246e-002
3.826239e+003;3.866767e-002
3.828168e+003;3.909948e-002
3.830096e+003;3.892081e-002
3.832025e+003;3.852564e-002
3.833953e+003;3.869411e-002
3.835882e+003;3.798681e-002
3.837811e+003;3.734406e-002
3.839739e+003;3.792071e-002
3.841667e+003;3.819798e-002
3.843596e+003;3.832571e-002
3.845525e+003;3.911467e-002
3.847453e+003;3.961965e-002
3.849382e+003;3.880971e-002
3.851310e+003;3.654342e-002
3.853239e+003;3.525468e-002
3.855167e+003;3.737995e-002
3.857096e+003;3.950587e-002
3.859024e+003;3.995555e-002
3.860953e+003;3.977029e-002
3.862882e+003;3.932780e-002
3.864810e+003;3.898199e-002
3.866739e+003;3.906243e-002
3.868667e+003;3.833226e-002
3.870596e+003;3.841490e-002
3.872524e+003;3.888776e-002
3.874453e+003;3.917018e-002
3.876381e+003;4.005466e-002
3.878310e+003;4.007683e-002
3.880239e+003;3.989456e-002
3.882167e+003;4.047836e-002
3.884096e+003;3.983910e-002
3.886024e+003;3.947390e-002
3.887953e+003;4.000863e-002
3.889881e+003;3.969102e-002
3.891810e+003;3.978724e-002
3.893738e+003;4.044260e-002
3.895667e+003;4.071643e-002
3.897595e+003;4.052080e-002
3.899524e+003;4.017408e-002
3.901453e+003;4.006048e-002
3.903381e+003;4.009227e-002
3.905310e+003;4.049305e-002
3.907238e+003;4.085652e-002
3.909167e+003;4.121848e-002
3.911095e+003;4.174241e-002
3.913024e+003;4.175422e-002
3.914952e+003;4.154628e-002
3.916881e+003;4.154227e-002
3.918810e+003;4.147154e-002
3.920738e+003;4.138876e-002
3.922667e+003;4.149848e-002
3.924595e+003;4.165338e-002
3.926524e+003;4.191826e-002
3.928452e+003;4.218703e-002
3.930381e+003;4.196957e-002
3.932309e+003;4.198391e-002
3.934238e+003;4.262188e-002
3.936167e+003;4.266259e-002
3.938095e+003;4.237172e-002
3.940023e+003;4.208269e-002
3.941952e+003;4.197304e-002
3.943881e+003;4.234082e-002
3.945809e+003;4.236847e-002
3.947738e+003;4.170797e-002
3.949666e+003;4.152159e-002
3.951595e+003;4.240825e-002
3.953523e+003;4.309668e-002
3.955452e+003;4.327370e-002
3.957380e+003;4.349658e-002
3.959309e+003;4.333169e-002
3.961238e+003;4.257791e-002
3.963166e+003;4.275900e-002
3.965095e+003;4.323011e-002
3.967023e+003;4.315248e-002
3.968952e+003;4.314436e-002
3.970880e+003;4.343029e-002
3.972809e+003;4.333125e-002
3.974737e+003;4.287408e-002
3.976666e+003;4.312434e-002
3.978594e+003;4.278324e-002
3.980523e+003;4.293197e-002
3.982452e+003;4.347457e-002
3.984380e+003;4.347339e-002
3.986309e+003;4.349123e-002
3.988237e+003;4.337943e-002
3.990166e+003;4.332250e-002
3.992094e+003;4.306671e-002
3.994023e+003;4.263551e-002
3.995951e+003;4.266128e-002
3.997880e+003;4.298937e-002
3.999809e+003;4.314311e-002
4.001737e+003;0.000000e+000
