3.992094e+002;0.000000e+000
4.011380e+002;0.000000e+000
4.030665e+002;0.000000e+000
4.049951e+002;0.000000e+000
4.069236e+002;0.000000e+000
4.088522e+002;0.000000e+000
4.107807e+002;0.000000e+000
4.127093e+002;0.000000e+000
4.146378e+002;0.000000e+000
4.165664e+002;0.000000e+000
4.184949e+002;0.000000e+000
4.204235e+002;0.000000e+000
4.223520e+002;0.000000e+000
4.242806e+002;0.000000e+000
4.262091e+002;0.000000e+000
4.281377e+002;0.000000e+000
4.300662e+002;0.000000e+000
4.319948e+002;0.000000e+000
4.339233e+002;0.000000e+000
4.358519e+002;0.000000e+000
4.377804e+002;0.000000e+000
4.397090e+002;0.000000e+000
4.416375e+002;0.000000e+000
4.435660e+002;0.000000e+000
4.454946e+002;0.000000e+000
4.474232e+002;0.000000e+000
4.493517e+002;0.000000e+000
4.512802e+002;0.000000e+000
4.532088e+002;0.000000e+000
4.551373e+002;0.000000e+000
4.570659e+002;0.000000e+000
4.589944e+002;0.000000e+000
4.609230e+002;0.000000e+000
4.628515e+002;0.000000e+000
4.647801e+002;0.000000e+000
4.667086e+002;0.000000e+000
4.686372e+002;0.000000e+000
4.705657e+002;0.000000e+000
4.724943e+002;0.000000e+000
4.744228e+002;0.000000e+000
4.763513e+002;0.000000e+000
4.782799e+002;0.000000e+000
4.802085e+002;0.000000e+000
4.821370e+002;0.000000e+000
4.840656e+002;0.000000e+000
4.859941e+002;0.000000e+000
4.879226e+002;0.000000e+000
4.898512e+002;0.000000e+000
4.917798e+002;0.000000e+000
4.937083e+002;0.000000e+000
4.956368e+002;0.000000e+000
4.975654e+002;0.000000e+000
4.994939e+002;0.000000e+000
5.014225e+002;0.000000e+000
5.033510e+002;0.000000e+000
5.052796e+002;0.000000e+000
5.072081e+002;0.000000e+000
5.091367e+002;0.000000e+000
5.110652e+002;0.000000e+000
5.129938e+002;0.000000e+000
5.149223e+002;0.000000e+000
5.168509e+002;0.000000e+000
5.187794e+002;0.000000e+000
5.207079e+002;0.000000e+000
5.226365e+002;0.000000e+000
5.245651e+002;0.000000e+000
5.264936e+002;0.000000e+000
5.284222e+002;0.000000e+000
5.303507e+002;0.000000e+000
5.322792e+002;0.000000e+000
5.342078e+002;0.000000e+000
5.361364e+002;0.000000e+000
5.380649e+002;0.000000e+000
5.399935e+002;0.000000e+000
5.419220e+002;0.000000e+000
5.438505e+002;0.000000e+000
5.457791e+002;0.000000e+000
5.477076e+002;0.000000e+000
5.496362e+002;0.000000e+000
5.515648e+002;0.000000e+000
5.534933e+002;0.000000e+000
5.554218e+002;0.000000e+000
5.573504e+002;0.000000e+000
5.592789e+002;0.000000e+000
5.612075e+002;0.000000e+000
5.631360e+002;0.000000e+000
5.650646e+002;0.000000e+000
5.669931e+002;0.000000e+000
5.689217e+002;0.000000e+000
5.708502e+002;0.000000e+000
5.727787e+002;0.000000e+000
5.747073e+002;0.000000e+000
5.766359e+002;0.000000e+000
5.785644e+002;0.000000e+000
5.804930e+002;0.000000e+000
5.824215e+002;0.000000e+000
5.843500e+002;0.000000e+000
5.862786e+002;0.000000e+000
5.882072e+002;0.000000e+000
5.901357e+002;0.000000e+000
5.920643e+002;0.000000e+000
5.939928e+002;0.000000e+000
5.959213e+002;0.000000e+000
5.978499e+002;0.000000e+000
5.997784e+002;2.775403e-001
6.017070e+002;2.763074e-001
6.036355e+002;2.738269e-001
6.055641e+002;2.764547e-001
6.074926e+002;2.810306e-001
6.094211e+002;2.835674e-001
6.113497e+002;2.807579e-001
6.132783e+002;2.761251e-001
6.152068e+002;2.724920e-001
6.171354e+002;2.689930e-001
6.190639e+002;2.664728e-001
6.209924e+002;2.660359e-001
6.229210e+002;2.693022e-001
6.248495e+002;2.699104e-001
6.267781e+002;2.684239e-001
6.287067e+002;2.622186e-001
6.306352e+002;2.571154e-001
6.325637e+002;2.571190e-001
6.344923e+002;2.565940e-001
6.364208e+002;2.562429e-001
6.383494e+002;2.559490e-001
6.402780e+002;2.550551e-001
6.422065e+002;2.562985e-001
6.441350e+002;2.534790e-001
6.460636e+002;2.484298e-001
6.479921e+002;2.492821e-001
6.499207e+002;2.523446e-001
6.518492e+002;2.505431e-001
6.537778e+002;2.491005e-001
6.557063e+002;2.501990e-001
6.576349e+002;2.511166e-001
6.595634e+002;2.520306e-001
6.614919e+002;2.512528e-001
6.634205e+002;2.496771e-001
6.653491e+002;2.510202e-001
6.672776e+002;2.516520e-001
6.692062e+002;2.453495e-001
6.711347e+002;2.410053e-001
6.730632e+002;2.394031e-001
6.749918e+002;2.335119e-001
6.769203e+002;2.249853e-001
6.788489e+002;2.192186e-001
6.807775e+002;2.153666e-001
6.827060e+002;2.123222e-001
6.846345e+002;2.088998e-001
6.865631e+002;2.045979e-001
6.884916e+002;2.026198e-001
6.904202e+002;2.020732e-001
6.923488e+002;2.020673e-001
6.942773e+002;2.015168e-001
6.962058e+002;1.996332e-001
6.981344e+002;1.976715e-001
7.000629e+002;1.970697e-001
7.019915e+002;1.958766e-001
7.039200e+002;1.936104e-001
7.058486e+002;1.932056e-001
7.077771e+002;1.936628e-001
7.097057e+002;1.925765e-001
7.116342e+002;1.908218e-001
7.135627e+002;1.888476e-001
7.154913e+002;1.882372e-001
7.174199e+002;1.882420e-001
7.193484e+002;1.865734e-001
7.212770e+002;1.849184e-001
7.232055e+002;1.834355e-001
7.251340e+002;1.819896e-001
7.270626e+002;1.801361e-001
7.289911e+002;1.780878e-001
7.309197e+002;1.766838e-001
7.328483e+002;1.755328e-001
7.347768e+002;1.740611e-001
7.367053e+002;1.731632e-001
7.386339e+002;1.726196e-001
7.405624e+002;1.715423e-001
7.424910e+002;1.707036e-001
7.444196e+002;1.698457e-001
7.463481e+002;1.684673e-001
7.482766e+002;1.666634e-001
7.502052e+002;1.644017e-001
7.521337e+002;1.636654e-001
7.540623e+002;1.633440e-001
7.559908e+002;1.615502e-001
7.579194e+002;1.593322e-001
7.598479e+002;1.585833e-001
7.617765e+002;1.572073e-001
7.637050e+002;1.555967e-001
7.656335e+002;1.537432e-001
7.675621e+002;1.521567e-001
7.694907e+002;1.508289e-001
7.714192e+002;1.493198e-001
7.733478e+002;1.480678e-001
7.752763e+002;1.463253e-001
7.772048e+002;1.444089e-001
7.791334e+002;1.422521e-001
7.810620e+002;1.413036e-001
7.829905e+002;1.411489e-001
7.849191e+002;1.399701e-001
7.868476e+002;1.386223e-001
7.887761e+002;1.370332e-001
7.907047e+002;1.356005e-001
7.926332e+002;1.347462e-001
7.945618e+002;1.341409e-001
7.964903e+002;1.333492e-001
7.984189e+002;1.322919e-001
8.003474e+002;1.312992e-001
8.022759e+002;1.304450e-001
8.042045e+002;1.297364e-001
8.061331e+002;1.292931e-001
8.080616e+002;1.289966e-001
8.099902e+002;1.286266e-001
8.119187e+002;1.278818e-001
8.138472e+002;1.273564e-001
8.157758e+002;1.269889e-001
8.177043e+002;1.263635e-001
8.196329e+002;1.255406e-001
8.215615e+002;1.256389e-001
8.234900e+002;1.260051e-001
8.254185e+002;1.262848e-001
8.273471e+002;1.256894e-001
8.292756e+002;1.251512e-001
8.312042e+002;1.246865e-001
8.331328e+002;1.242053e-001
8.350613e+002;1.237501e-001
8.369898e+002;1.230084e-001
8.389184e+002;1.217674e-001
8.408469e+002;1.200224e-001
8.427755e+002;1.183400e-001
8.447040e+002;1.172617e-001
8.466326e+002;1.169547e-001
8.485611e+002;1.162347e-001
8.504897e+002;1.151306e-001
8.524182e+002;1.143355e-001
8.543467e+002;1.133481e-001
8.562753e+002;1.125491e-001
8.582039e+002;1.124228e-001
8.601324e+002;1.132166e-001
8.620610e+002;1.141677e-001
8.639895e+002;1.145896e-001
8.659180e+002;1.148874e-001
8.678466e+002;1.158348e-001
8.697751e+002;1.181838e-001
8.717037e+002;1.210659e-001
8.736323e+002;1.236186e-001
8.755608e+002;1.269950e-001
8.774893e+002;1.307501e-001
8.794179e+002;1.353109e-001
8.813464e+002;1.407195e-001
8.832750e+002;1.465924e-001
8.852036e+002;1.525470e-001
8.871321e+002;1.583890e-001
8.890606e+002;1.639633e-001
8.909892e+002;1.688470e-001
8.929177e+002;1.725276e-001
8.948463e+002;1.755845e-001
8.967748e+002;1.773628e-001
8.987034e+002;1.774325e-001
9.006319e+002;1.759960e-001
9.025605e+002;1.734829e-001
9.044890e+002;1.706167e-001
9.064175e+002;1.673166e-001
9.083461e+002;1.634548e-001
9.102747e+002;1.591635e-001
9.122032e+002;1.551258e-001
9.141318e+002;1.524203e-001
9.160603e+002;1.508243e-001
9.179888e+002;1.492424e-001
9.199174e+002;1.486071e-001
9.218459e+002;1.496504e-001
9.237745e+002;1.507935e-001
9.257031e+002;1.512985e-001
9.276316e+002;1.525306e-001
9.295601e+002;1.545337e-001
9.314887e+002;1.561931e-001
9.334172e+002;1.576924e-001
9.353458e+002;1.592744e-001
9.372744e+002;1.613268e-001
9.392029e+002;1.632507e-001
9.411314e+002;1.652650e-001
9.430600e+002;1.680646e-001
9.449885e+002;1.718989e-001
9.469171e+002;1.762552e-001
9.488456e+002;1.809051e-001
9.507742e+002;1.861545e-001
9.527027e+002;1.921392e-001
9.546313e+002;1.986426e-001
9.565598e+002;2.056146e-001
9.584883e+002;2.127787e-001
9.604169e+002;2.203605e-001
9.623455e+002;2.284098e-001
9.642740e+002;2.368002e-001
9.662026e+002;2.452453e-001
9.681311e+002;2.541358e-001
9.700596e+002;2.644480e-001
9.719882e+002;2.759328e-001
9.739167e+002;2.886814e-001
9.758453e+002;3.032285e-001
9.777739e+002;3.195689e-001
9.797024e+002;3.390298e-001
9.816309e+002;3.607191e-001
9.835595e+002;3.827710e-001
9.854880e+002;4.046206e-001
9.874166e+002;4.251603e-001
9.893452e+002;4.433008e-001
9.912737e+002;4.577951e-001
9.932022e+002;4.682455e-001
9.951307e+002;4.752271e-001
9.970593e+002;4.791670e-001
9.989879e+002;4.811566e-001
1.000916e+003;4.822343e-001
1.002845e+003;4.843291e-001
1.004773e+003;4.884405e-001
1.006702e+003;4.947743e-001
1.008631e+003;5.024863e-001
1.010559e+003;5.115131e-001
1.012488e+003;5.207822e-001
1.014416e+003;5.297672e-001
1.016345e+003;5.372335e-001
1.018273e+003;5.424756e-001
1.020202e+003;5.446903e-001
1.022130e+003;5.448842e-001
1.024059e+003;5.425342e-001
1.025988e+003;5.386225e-001
1.027916e+003;5.334747e-001
1.029845e+003;5.270541e-001
1.031773e+003;5.211838e-001
1.033702e+003;5.162653e-001
1.035630e+003;5.114437e-001
1.037559e+003;5.066924e-001
1.039487e+003;5.023025e-001
1.041416e+003;4.986806e-001
1.043344e+003;4.948912e-001
1.045273e+003;4.908290e-001
1.047202e+003;4.854919e-001
1.049130e+003;4.805720e-001
1.051059e+003;4.761766e-001
1.052987e+003;4.706003e-001
1.054916e+003;4.643811e-001
1.056844e+003;4.587526e-001
1.058773e+003;4.533986e-001
1.060701e+003;4.469422e-001
1.062630e+003;4.394360e-001
1.064558e+003;4.311860e-001
1.066487e+003;4.235811e-001
1.068416e+003;4.160202e-001
1.070344e+003;4.077173e-001
1.072273e+003;3.988226e-001
1.074201e+003;3.892241e-001
1.076130e+003;3.798483e-001
1.078058e+003;3.708005e-001
1.079987e+003;3.625467e-001
1.081915e+003;3.548615e-001
1.083844e+003;3.475405e-001
1.085773e+003;3.400907e-001
1.087701e+003;3.331956e-001
1.089630e+003;3.276788e-001
1.091558e+003;3.223682e-001
1.093487e+003;3.162681e-001
1.095415e+003;3.097156e-001
1.097344e+003;3.036414e-001
1.099272e+003;2.978964e-001
1.101201e+003;2.917625e-001
1.103129e+003;2.857606e-001
1.105058e+003;2.803077e-001
1.106987e+003;2.742634e-001
1.108915e+003;2.683570e-001
1.110844e+003;2.635249e-001
1.112772e+003;2.588598e-001
1.114701e+003;2.542231e-001
1.116629e+003;2.495689e-001
1.118558e+003;2.444998e-001
1.120486e+003;2.388055e-001
1.122415e+003;2.326132e-001
1.124344e+003;2.262415e-001
1.126272e+003;2.199746e-001
1.128201e+003;2.142662e-001
1.130129e+003;2.083909e-001
1.132058e+003;2.029000e-001
1.133986e+003;1.980633e-001
1.135915e+003;1.931765e-001
1.137843e+003;1.886882e-001
1.139772e+003;1.853446e-001
1.141700e+003;1.829693e-001
1.143629e+003;1.810527e-001
1.145557e+003;1.798434e-001
1.147486e+003;1.791698e-001
1.149415e+003;1.793321e-001
1.151343e+003;1.802587e-001
1.153272e+003;1.807889e-001
1.155200e+003;1.806799e-001
1.157129e+003;1.797483e-001
1.159057e+003;1.775850e-001
1.160986e+003;1.743589e-001
1.162914e+003;1.701634e-001
1.164843e+003;1.646350e-001
1.166771e+003;1.582730e-001
1.168700e+003;1.516419e-001
1.170629e+003;1.453372e-001
1.172557e+003;1.393001e-001
1.174486e+003;1.335588e-001
1.176414e+003;1.278750e-001
1.178343e+003;1.227319e-001
1.180271e+003;1.183531e-001
1.182200e+003;1.150528e-001
1.184128e+003;1.126816e-001
1.186057e+003;1.113864e-001
1.187986e+003;1.115944e-001
1.189914e+003;1.129912e-001
1.191843e+003;1.148651e-001
1.193771e+003;1.172060e-001
1.195700e+003;1.195506e-001
1.197628e+003;1.213738e-001
1.199557e+003;1.226173e-001
1.201485e+003;1.227456e-001
1.203414e+003;1.217710e-001
1.205343e+003;1.205097e-001
1.207271e+003;1.187747e-001
1.209200e+003;1.166118e-001
1.211128e+003;1.150425e-001
1.213057e+003;1.145228e-001
1.214985e+003;1.148424e-001
1.216914e+003;1.159536e-001
1.218842e+003;1.172013e-001
1.220771e+003;1.184689e-001
1.222699e+003;1.205821e-001
1.224628e+003;1.227099e-001
1.226557e+003;1.242521e-001
1.228485e+003;1.254168e-001
1.230414e+003;1.264040e-001
1.232342e+003;1.275913e-001
1.234271e+003;1.284395e-001
1.236199e+003;1.287215e-001
1.238128e+003;1.286781e-001
1.240056e+003;1.288663e-001
1.241985e+003;1.290531e-001
1.243913e+003;1.290922e-001
1.245842e+003;1.292307e-001
1.247771e+003;1.297142e-001
1.249699e+003;1.308763e-001
1.251628e+003;1.321051e-001
1.253556e+003;1.327704e-001
1.255485e+003;1.330120e-001
1.257413e+003;1.333620e-001
1.259342e+003;1.336142e-001
1.261270e+003;1.335076e-001
1.263199e+003;1.334358e-001
1.265127e+003;1.333614e-001
1.267056e+003;1.328666e-001
1.268985e+003;1.318591e-001
1.270913e+003;1.307528e-001
1.272842e+003;1.297450e-001
1.274770e+003;1.284401e-001
1.276699e+003;1.271692e-001
1.278627e+003;1.261447e-001
1.280556e+003;1.250690e-001
1.282484e+003;1.244783e-001
1.284413e+003;1.245146e-001
1.286342e+003;1.246535e-001
1.288270e+003;1.252653e-001
1.290199e+003;1.264927e-001
1.292127e+003;1.279774e-001
1.294056e+003;1.296375e-001
1.295984e+003;1.313750e-001
1.297913e+003;1.330740e-001
1.299841e+003;1.347551e-001
1.301770e+003;1.365477e-001
1.303698e+003;1.380559e-001
1.305627e+003;1.394013e-001
1.307556e+003;1.408899e-001
1.309484e+003;1.427022e-001
1.311413e+003;1.443817e-001
1.313341e+003;1.454419e-001
1.315270e+003;1.461079e-001
1.317198e+003;1.463774e-001
1.319127e+003;1.463961e-001
1.321055e+003;1.465264e-001
1.322984e+003;1.468919e-001
1.324912e+003;1.469764e-001
1.326841e+003;1.469368e-001
1.328770e+003;1.472387e-001
1.330698e+003;1.474611e-001
1.332627e+003;1.473504e-001
1.334555e+003;1.471577e-001
1.336484e+003;1.472142e-001
1.338412e+003;1.472762e-001
1.340341e+003;1.471909e-001
1.342269e+003;1.472370e-001
1.344198e+003;1.474000e-001
1.346126e+003;1.474892e-001
1.348055e+003;1.474698e-001
1.349984e+003;1.477511e-001
1.351912e+003;1.482900e-001
1.353841e+003;1.488482e-001
1.355769e+003;1.494320e-001
1.357698e+003;1.500997e-001
1.359626e+003;1.506367e-001
1.361555e+003;1.511046e-001
1.363483e+003;1.515431e-001
1.365412e+003;1.517479e-001
1.367341e+003;1.514310e-001
1.369269e+003;1.507044e-001
1.371198e+003;1.496949e-001
1.373126e+003;1.483909e-001
1.375055e+003;1.469921e-001
1.376983e+003;1.456972e-001
1.378912e+003;1.439387e-001
1.380840e+003;1.421655e-001
1.382769e+003;1.403703e-001
1.384698e+003;1.380907e-001
1.386626e+003;1.357580e-001
1.388555e+003;1.342022e-001
1.390483e+003;1.332539e-001
1.392412e+003;1.323534e-001
1.394340e+003;1.315044e-001
1.396269e+003;1.310152e-001
1.398197e+003;1.304632e-001
1.400126e+003;1.301586e-001
1.402054e+003;1.304055e-001
1.403983e+003;1.303979e-001
1.405911e+003;1.304612e-001
1.407840e+003;1.306757e-001
1.409769e+003;1.305433e-001
1.411697e+003;1.303887e-001
1.413626e+003;1.303509e-001
1.415554e+003;1.300507e-001
1.417483e+003;1.292443e-001
1.419411e+003;1.287933e-001
1.421340e+003;1.291461e-001
1.423268e+003;1.291179e-001
1.425197e+003;1.288302e-001
1.427125e+003;1.281938e-001
1.429054e+003;1.272083e-001
1.430983e+003;1.264246e-001
1.432911e+003;1.257184e-001
1.434840e+003;1.243395e-001
1.436768e+003;1.228314e-001
1.438697e+003;1.223428e-001
1.440625e+003;1.215800e-001
1.442554e+003;1.206222e-001
1.444482e+003;1.193795e-001
1.446411e+003;1.178756e-001
1.448340e+003;1.164145e-001
1.450268e+003;1.151705e-001
1.452197e+003;1.138354e-001
1.454125e+003;1.117935e-001
1.456054e+003;1.086568e-001
1.457982e+003;1.073194e-001
1.459911e+003;1.074159e-001
1.461839e+003;1.062375e-001
1.463768e+003;1.036413e-001
1.465697e+003;1.011172e-001
1.467625e+003;9.945095e-002
1.469554e+003;9.730826e-002
1.471482e+003;9.410872e-002
1.473411e+003;9.161808e-002
1.475339e+003;8.972119e-002
1.477268e+003;8.726406e-002
1.479196e+003;8.476134e-002
1.481125e+003;8.191523e-002
1.483053e+003;7.905108e-002
1.484982e+003;7.652800e-002
1.486911e+003;7.378504e-002
1.488839e+003;7.099884e-002
1.490768e+003;6.913766e-002
1.492696e+003;6.774647e-002
1.494625e+003;6.554763e-002
1.496553e+003;6.359027e-002
1.498482e+003;6.289557e-002
1.500410e+003;6.220898e-002
1.502339e+003;6.121496e-002
1.504267e+003;5.888787e-002
1.506196e+003;5.623878e-002
1.508125e+003;5.604991e-002
1.510053e+003;5.668310e-002
1.511982e+003;5.617663e-002
1.513910e+003;5.528161e-002
1.515839e+003;5.424692e-002
1.517767e+003;5.372899e-002
1.519696e+003;5.256019e-002
1.521624e+003;5.165471e-002
1.523553e+003;5.211906e-002
1.525481e+003;5.217947e-002
1.527410e+003;5.240936e-002
1.529339e+003;5.262486e-002
1.531267e+003;5.196382e-002
1.533196e+003;5.111791e-002
1.535124e+003;5.162277e-002
1.537053e+003;5.101714e-002
1.538981e+003;4.883707e-002
1.540910e+003;4.864302e-002
1.542838e+003;4.996800e-002
1.544767e+003;5.080150e-002
1.546695e+003;5.142272e-002
1.548624e+003;5.158724e-002
1.550553e+003;5.156049e-002
1.552481e+003;5.153848e-002
1.554410e+003;5.136077e-002
1.556338e+003;5.069135e-002
1.558267e+003;4.898838e-002
1.560195e+003;4.998979e-002
1.562124e+003;5.271051e-002
1.564052e+003;5.368868e-002
1.565981e+003;5.381933e-002
1.567910e+003;5.337564e-002
1.569838e+003;5.336013e-002
1.571767e+003;5.457062e-002
1.573695e+003;5.459327e-002
1.575624e+003;5.377268e-002
1.577552e+003;5.516113e-002
1.579481e+003;5.704176e-002
1.581409e+003;5.776423e-002
1.583338e+003;5.836548e-002
1.585266e+003;5.911025e-002
1.587195e+003;5.976731e-002
1.589124e+003;6.044000e-002
1.591052e+003;6.126044e-002
1.592981e+003;6.199976e-002
1.594909e+003;6.282901e-002
1.596838e+003;6.358785e-002
1.598766e+003;6.421589e-002
1.600695e+003;6.481137e-002
1.602623e+003;6.556983e-002
1.604552e+003;6.641196e-002
1.606480e+003;6.727901e-002
1.608409e+003;6.805729e-002
1.610338e+003;6.849619e-002
1.612266e+003;6.889486e-002
1.614195e+003;6.898721e-002
1.616123e+003;6.851395e-002
1.618052e+003;6.956477e-002
1.619980e+003;7.103381e-002
1.621909e+003;7.143170e-002
1.623837e+003;7.204749e-002
1.625766e+003;7.300399e-002
1.627694e+003;7.353390e-002
1.629623e+003;7.398834e-002
1.631552e+003;7.413471e-002
1.633480e+003;7.333363e-002
1.635409e+003;7.278653e-002
1.637337e+003;7.398771e-002
1.639266e+003;7.516891e-002
1.641194e+003;7.555240e-002
1.643123e+003;7.507610e-002
1.645051e+003;7.370101e-002
1.646980e+003;7.289252e-002
1.648909e+003;7.282227e-002
1.650837e+003;7.072763e-002
1.652766e+003;6.795762e-002
1.654694e+003;6.901448e-002
1.656623e+003;7.031550e-002
1.658551e+003;6.977499e-002
1.660480e+003;6.829210e-002
1.662408e+003;6.671568e-002
1.664337e+003;6.600135e-002
1.666266e+003;6.494425e-002
1.668194e+003;6.297819e-002
1.670123e+003;6.145743e-002
1.672051e+003;6.047500e-002
1.673980e+003;5.876452e-002
1.675908e+003;5.746179e-002
1.677837e+003;5.710010e-002
1.679765e+003;5.605605e-002
1.681694e+003;5.422852e-002
1.683622e+003;5.146446e-002
1.685551e+003;5.069254e-002
1.687479e+003;5.119701e-002
1.689408e+003;5.057139e-002
1.691337e+003;4.965251e-002
1.693265e+003;4.827745e-002
1.695194e+003;4.596098e-002
1.697122e+003;4.524164e-002
1.699051e+003;4.410185e-002
1.700979e+003;4.329273e-002
1.702908e+003;4.416996e-002
1.704836e+003;4.368373e-002
1.706765e+003;4.329537e-002
1.708693e+003;4.315962e-002
1.710622e+003;4.266647e-002
1.712551e+003;4.188812e-002
1.714479e+003;4.079231e-002
1.716408e+003;3.940293e-002
1.718336e+003;3.940834e-002
1.720265e+003;4.049694e-002
1.722193e+003;4.054390e-002
1.724122e+003;4.007367e-002
1.726050e+003;3.974425e-002
1.727979e+003;3.928950e-002
1.729908e+003;3.865434e-002
1.731836e+003;3.724824e-002
1.733765e+003;3.572358e-002
1.735693e+003;3.629285e-002
1.737622e+003;3.650288e-002
1.739550e+003;3.542322e-002
1.741479e+003;3.527114e-002
1.743407e+003;3.515583e-002
1.745336e+003;3.455697e-002
1.747265e+003;3.392712e-002
1.749193e+003;3.334733e-002
1.751122e+003;3.317624e-002
1.753050e+003;3.391050e-002
1.754979e+003;3.406676e-002
1.756907e+003;3.397474e-002
1.758836e+003;3.408518e-002
1.760764e+003;3.384365e-002
1.762693e+003;3.376350e-002
1.764621e+003;3.384999e-002
1.766550e+003;3.347312e-002
1.768479e+003;3.334183e-002
1.770407e+003;3.310518e-002
1.772336e+003;3.269033e-002
1.774264e+003;3.302835e-002
1.776193e+003;3.337982e-002
1.778121e+003;3.333585e-002
1.780050e+003;3.310797e-002
1.781978e+003;3.310758e-002
1.783907e+003;3.306700e-002
1.785835e+003;3.310136e-002
1.787764e+003;3.309621e-002
1.789693e+003;3.250846e-002
1.791621e+003;3.179807e-002
1.793550e+003;3.188139e-002
1.795478e+003;3.216946e-002
1.797407e+003;3.194209e-002
1.799335e+003;3.176706e-002
1.801264e+003;3.172631e-002
1.803192e+003;3.204434e-002
1.805121e+003;3.229162e-002
1.807049e+003;3.200115e-002
1.808978e+003;3.140170e-002
1.810907e+003;3.113465e-002
1.812835e+003;3.120983e-002
1.814764e+003;3.130123e-002
1.816692e+003;3.129415e-002
1.818621e+003;3.137371e-002
1.820549e+003;3.135597e-002
1.822478e+003;3.099168e-002
1.824406e+003;3.050465e-002
1.826335e+003;3.049527e-002
1.828264e+003;3.035308e-002
1.830192e+003;3.006532e-002
1.832121e+003;3.027633e-002
1.834049e+003;3.041413e-002
1.835978e+003;3.035450e-002
1.837906e+003;3.030095e-002
1.839835e+003;3.004295e-002
1.841763e+003;2.938295e-002
1.843692e+003;2.881649e-002
1.845620e+003;2.916124e-002
1.847549e+003;2.954131e-002
1.849478e+003;2.962289e-002
1.851406e+003;2.965968e-002
1.853335e+003;2.949290e-002
1.855263e+003;2.936320e-002
1.857192e+003;2.934339e-002
1.859120e+003;2.926615e-002
1.861049e+003;2.916606e-002
1.862977e+003;2.917365e-002
1.864906e+003;2.915848e-002
1.866834e+003;2.886337e-002
1.868763e+003;2.858283e-002
1.870692e+003;2.861797e-002
1.872620e+003;2.875875e-002
1.874549e+003;2.889992e-002
1.876477e+003;2.877659e-002
1.878406e+003;2.847859e-002
1.880334e+003;2.851606e-002
1.882263e+003;2.861302e-002
1.884191e+003;2.870126e-002
1.886120e+003;2.867789e-002
1.888048e+003;2.851857e-002
1.889977e+003;2.863305e-002
1.891906e+003;2.876554e-002
1.893834e+003;2.852275e-002
1.895763e+003;2.851984e-002
1.897691e+003;2.847063e-002
1.899620e+003;2.845602e-002
1.901548e+003;2.868395e-002
1.903477e+003;2.880074e-002
1.905405e+003;2.864579e-002
1.907334e+003;2.870033e-002
1.909262e+003;2.884744e-002
1.911191e+003;2.907203e-002
1.913120e+003;2.911706e-002
1.915048e+003;2.902218e-002
1.916977e+003;2.882637e-002
1.918905e+003;2.885611e-002
1.920834e+003;2.904450e-002
1.922762e+003;2.924807e-002
1.924691e+003;2.931205e-002
1.926619e+003;2.933314e-002
1.928548e+003;2.938869e-002
1.930477e+003;2.948624e-002
1.932405e+003;2.968008e-002
1.934334e+003;2.975026e-002
1.936262e+003;2.965964e-002
1.938191e+003;2.971481e-002
1.940119e+003;2.972872e-002
1.942048e+003;2.979724e-002
1.943976e+003;3.007662e-002
1.945905e+003;3.025317e-002
1.947833e+003;3.017638e-002
1.949762e+003;3.022468e-002
1.951691e+003;3.025658e-002
1.953619e+003;3.024710e-002
1.955548e+003;3.042458e-002
1.957476e+003;3.060625e-002
1.959405e+003;3.056394e-002
1.961333e+003;3.036619e-002
1.963262e+003;3.040254e-002
1.965190e+003;3.052914e-002
1.967119e+003;3.054286e-002
1.969047e+003;3.060863e-002
1.970976e+003;3.077018e-002
1.972905e+003;3.094795e-002
1.974833e+003;3.092859e-002
1.976762e+003;3.091955e-002
1.978690e+003;3.081319e-002
1.980619e+003;3.072370e-002
1.982547e+003;3.076620e-002
1.984476e+003;3.083357e-002
1.986404e+003;3.086765e-002
1.988333e+003;3.080042e-002
1.990261e+003;3.077513e-002
1.992190e+003;3.077413e-002
1.994119e+003;3.088490e-002
1.996047e+003;3.106040e-002
1.997976e+003;3.115294e-002
1.999904e+003;3.103666e-002
2.001833e+003;3.088967e-002
2.003761e+003;3.095631e-002
2.005690e+003;3.110902e-002
2.007618e+003;3.128468e-002
2.009547e+003;3.159288e-002
2.011476e+003;3.166582e-002
2.013404e+003;3.156469e-002
2.015333e+003;3.153070e-002
2.017261e+003;3.165442e-002
2.019190e+003;3.183861e-002
2.021118e+003;3.199961e-002
2.023047e+003;3.194615e-002
2.024975e+003;3.213025e-002
2.026904e+003;3.233138e-002
2.028833e+003;3.211038e-002
2.030761e+003;3.209746e-002
2.032690e+003;3.219662e-002
2.034618e+003;3.214991e-002
2.036547e+003;3.201988e-002
2.038475e+003;3.208155e-002
2.040404e+003;3.227409e-002
2.042332e+003;3.250496e-002
2.044261e+003;3.241945e-002
2.046189e+003;3.217417e-002
2.048118e+003;3.225172e-002
2.050047e+003;3.239189e-002
2.051975e+003;3.249139e-002
2.053904e+003;3.245297e-002
2.055832e+003;3.246851e-002
2.057761e+003;3.246012e-002
2.059689e+003;3.256264e-002
2.061618e+003;3.270416e-002
2.063546e+003;3.252418e-002
2.065475e+003;3.235458e-002
2.067404e+003;3.241067e-002
2.069332e+003;3.257942e-002
2.071260e+003;3.268136e-002
2.073189e+003;3.266190e-002
2.075118e+003;3.262296e-002
2.077046e+003;3.254707e-002
2.078975e+003;3.250896e-002
2.080903e+003;3.256810e-002
2.082832e+003;3.262225e-002
2.084760e+003;3.257260e-002
2.086689e+003;3.264697e-002
2.088617e+003;3.271756e-002
2.090546e+003;3.269583e-002
2.092475e+003;3.251268e-002
2.094403e+003;3.251936e-002
2.096332e+003;3.283811e-002
2.098260e+003;3.286692e-002
2.100189e+003;3.249493e-002
2.102117e+003;3.239549e-002
2.104046e+003;3.277883e-002
2.105974e+003;3.309610e-002
2.107903e+003;3.317589e-002
2.109832e+003;3.318200e-002
2.111760e+003;3.318179e-002
2.113688e+003;3.306413e-002
2.115617e+003;3.312131e-002
2.117546e+003;3.329553e-002
2.119474e+003;3.330988e-002
2.121403e+003;3.325647e-002
2.123331e+003;3.330294e-002
2.125260e+003;3.325536e-002
2.127188e+003;3.326069e-002
2.129117e+003;3.335188e-002
2.131045e+003;3.331188e-002
2.132974e+003;3.336433e-002
2.134903e+003;3.344670e-002
2.136831e+003;3.338548e-002
2.138760e+003;3.341207e-002
2.140688e+003;3.366796e-002
2.142617e+003;3.363942e-002
2.144545e+003;3.351925e-002
2.146474e+003;3.351145e-002
2.148402e+003;3.347444e-002
2.150331e+003;3.361135e-002
2.152260e+003;3.362317e-002
2.154188e+003;3.329603e-002
2.156117e+003;3.322406e-002
2.158045e+003;3.327718e-002
2.159974e+003;3.322295e-002
2.161902e+003;3.316802e-002
2.163831e+003;3.309814e-002
2.165759e+003;3.293511e-002
2.167688e+003;3.285048e-002
2.169616e+003;3.295928e-002
2.171545e+003;3.273449e-002
2.173474e+003;3.246533e-002
2.175402e+003;3.240370e-002
2.177331e+003;3.244415e-002
2.179259e+003;3.237022e-002
2.181188e+003;3.218238e-002
2.183116e+003;3.207906e-002
2.185045e+003;3.189512e-002
2.186973e+003;3.186991e-002
2.188902e+003;3.186841e-002
2.190831e+003;3.177083e-002
2.192759e+003;3.182670e-002
2.194688e+003;3.172464e-002
2.196616e+003;3.168389e-002
2.198545e+003;3.182495e-002
2.200473e+003;3.184456e-002
2.202402e+003;3.185825e-002
2.204330e+003;3.161857e-002
2.206259e+003;3.134034e-002
2.208188e+003;3.133656e-002
2.210116e+003;3.135070e-002
2.212044e+003;3.144744e-002
2.213973e+003;3.157638e-002
2.215902e+003;3.152977e-002
2.217830e+003;3.138357e-002
2.219759e+003;3.112059e-002
2.221687e+003;3.098022e-002
2.223616e+003;3.105534e-002
2.225544e+003;3.119228e-002
2.227473e+003;3.107328e-002
2.229401e+003;3.084780e-002
2.231330e+003;3.074763e-002
2.233259e+003;3.086459e-002
2.235187e+003;3.097670e-002
2.237116e+003;3.080362e-002
2.239044e+003;3.057998e-002
2.240973e+003;3.060561e-002
2.242901e+003;3.062943e-002
2.244830e+003;3.061130e-002
2.246758e+003;3.040037e-002
2.248687e+003;3.003077e-002
2.250615e+003;2.999317e-002
2.252544e+003;3.019857e-002
2.254473e+003;3.023349e-002
2.256401e+003;3.001139e-002
2.258330e+003;2.995693e-002
2.260258e+003;3.005744e-002
2.262187e+003;3.006703e-002
2.264115e+003;3.003149e-002
2.266044e+003;2.981825e-002
2.267972e+003;2.972986e-002
2.269901e+003;2.991227e-002
2.271830e+003;2.992225e-002
2.273758e+003;2.976484e-002
2.275687e+003;2.953713e-002
2.277615e+003;2.950503e-002
2.279544e+003;2.954525e-002
2.281472e+003;2.961051e-002
2.283401e+003;2.945532e-002
2.285329e+003;2.932052e-002
2.287258e+003;2.950599e-002
2.289187e+003;2.958118e-002
2.291115e+003;2.939146e-002
2.293043e+003;2.926157e-002
2.294972e+003;2.932495e-002
2.296901e+003;2.917067e-002
2.298829e+003;2.896487e-002
2.300758e+003;2.917949e-002
2.302686e+003;2.929021e-002
2.304615e+003;2.925629e-002
2.306543e+003;2.932516e-002
2.308472e+003;2.947333e-002
2.310400e+003;2.954018e-002
2.312329e+003;2.958011e-002
2.314258e+003;2.968118e-002
2.316186e+003;2.955475e-002
2.318115e+003;2.937444e-002
2.320043e+003;2.946815e-002
2.321972e+003;2.962044e-002
2.323900e+003;2.970640e-002
2.325829e+003;2.949890e-002
2.327757e+003;2.923995e-002
2.329686e+003;2.926480e-002
2.331615e+003;2.938898e-002
2.333543e+003;2.959203e-002
2.335472e+003;2.982897e-002
2.337400e+003;3.006145e-002
2.339329e+003;3.002012e-002
2.341257e+003;2.994408e-002
2.343186e+003;3.007111e-002
2.345114e+003;3.019921e-002
2.347043e+003;3.040535e-002
2.348971e+003;3.062186e-002
2.350900e+003;3.070165e-002
2.352829e+003;3.064245e-002
2.354757e+003;3.062655e-002
2.356686e+003;3.077527e-002
2.358614e+003;3.095314e-002
2.360543e+003;3.101716e-002
2.362471e+003;3.118897e-002
2.364400e+003;3.123867e-002
2.366328e+003;3.113198e-002
2.368257e+003;3.115690e-002
2.370186e+003;3.132353e-002
2.372114e+003;3.145688e-002
2.374042e+003;3.133008e-002
2.375971e+003;3.154128e-002
2.377900e+003;3.174353e-002
2.379828e+003;3.174634e-002
2.381757e+003;3.200044e-002
2.383685e+003;3.213336e-002
2.385614e+003;3.215148e-002
2.387542e+003;3.236479e-002
2.389471e+003;3.245979e-002
2.391399e+003;3.246847e-002
2.393328e+003;3.243748e-002
2.395257e+003;3.260178e-002
2.397185e+003;3.277965e-002
2.399114e+003;3.286542e-002
2.401042e+003;3.294058e-002
2.402971e+003;3.294241e-002
2.404899e+003;3.319752e-002
2.406828e+003;3.345050e-002
2.408756e+003;3.359256e-002
2.410685e+003;3.374498e-002
2.412614e+003;3.375744e-002
2.414542e+003;3.381636e-002
2.416471e+003;3.390616e-002
2.418399e+003;3.418203e-002
2.420328e+003;3.438938e-002
2.422256e+003;3.428452e-002
2.424185e+003;3.433996e-002
2.426113e+003;3.475359e-002
2.428042e+003;3.499455e-002
2.429970e+003;3.500428e-002
2.431899e+003;3.514689e-002
2.433828e+003;3.522119e-002
2.435756e+003;3.524674e-002
2.437685e+003;3.569365e-002
2.439613e+003;3.596205e-002
2.441542e+003;3.597342e-002
2.443470e+003;3.611213e-002
2.445399e+003;3.638962e-002
2.447327e+003;3.677246e-002
2.449256e+003;3.705142e-002
2.451185e+003;3.701021e-002
2.453113e+003;3.700906e-002
2.455042e+003;3.732727e-002
2.456970e+003;3.742296e-002
2.458899e+003;3.770526e-002
2.460827e+003;3.780039e-002
2.462756e+003;3.777535e-002
2.464684e+003;3.816810e-002
2.466613e+003;3.838717e-002
2.468542e+003;3.838898e-002
2.470470e+003;3.871117e-002
2.472398e+003;3.901849e-002
2.474327e+003;3.928881e-002
2.476256e+003;3.972900e-002
2.478184e+003;4.003101e-002
2.480113e+003;4.004838e-002
2.482041e+003;4.017673e-002
2.483970e+003;4.027200e-002
2.485898e+003;4.044144e-002
2.487827e+003;4.070708e-002
2.489755e+003;4.070599e-002
2.491684e+003;4.077150e-002
2.493613e+003;4.070846e-002
2.495541e+003;4.061819e-002
2.497470e+003;4.070162e-002
2.499398e+003;4.078245e-002
2.501327e+003;4.107747e-002
2.503255e+003;4.146235e-002
2.505184e+003;4.182777e-002
2.507112e+003;4.197143e-002
2.509041e+003;4.186882e-002
2.510969e+003;4.187568e-002
2.512898e+003;4.200384e-002
2.514827e+003;4.207834e-002
2.516755e+003;4.227993e-002
2.518684e+003;4.254133e-002
2.520612e+003;4.277107e-002
2.522541e+003;4.276986e-002
2.524469e+003;4.280727e-002
2.526398e+003;4.281706e-002
2.528326e+003;4.284087e-002
2.530255e+003;4.302672e-002
2.532184e+003;4.306696e-002
2.534112e+003;4.314168e-002
2.536041e+003;4.340213e-002
2.537969e+003;4.351998e-002
2.539898e+003;4.376695e-002
2.541826e+003;4.400170e-002
2.543755e+003;4.395048e-002
2.545683e+003;4.390400e-002
2.547612e+003;4.406067e-002
2.549541e+003;4.421119e-002
2.551469e+003;4.432574e-002
2.553397e+003;4.445995e-002
2.555326e+003;4.465997e-002
2.557255e+003;4.491692e-002
2.559183e+003;4.490226e-002
2.561112e+003;4.469442e-002
2.563040e+003;4.470319e-002
2.564969e+003;4.502055e-002
2.566897e+003;4.541072e-002
2.568826e+003;4.565137e-002
2.570754e+003;4.565295e-002
2.572683e+003;4.561375e-002
2.574612e+003;4.571924e-002
2.576540e+003;4.598934e-002
2.578469e+003;4.627664e-002
2.580397e+003;4.650047e-002
2.582326e+003;4.671605e-002
2.584254e+003;4.695159e-002
2.586183e+003;4.707760e-002
2.588111e+003;4.710272e-002
2.590040e+003;4.716668e-002
2.591969e+003;4.748947e-002
2.593897e+003;4.784283e-002
2.595826e+003;4.799379e-002
2.597754e+003;4.799712e-002
2.599683e+003;4.802783e-002
2.601611e+003;4.797321e-002
2.603540e+003;4.819585e-002
2.605468e+003;4.858161e-002
2.607397e+003;4.887219e-002
2.609325e+003;4.926353e-002
2.611254e+003;4.965214e-002
2.613183e+003;4.972109e-002
2.615111e+003;4.986906e-002
2.617040e+003;5.036908e-002
2.618968e+003;5.058084e-002
2.620897e+003;5.057061e-002
2.622825e+003;5.075357e-002
2.624754e+003;5.119127e-002
2.626682e+003;5.155195e-002
2.628611e+003;5.177534e-002
2.630540e+003;5.189186e-002
2.632468e+003;5.207654e-002
2.634396e+003;5.248316e-002
2.636325e+003;5.284046e-002
2.638254e+003;5.328644e-002
2.640182e+003;5.365385e-002
2.642111e+003;5.388539e-002
2.644039e+003;5.413093e-002
2.645968e+003;5.434848e-002
2.647896e+003;5.438570e-002
2.649825e+003;5.464306e-002
2.651753e+003;5.522773e-002
2.653682e+003;5.569305e-002
2.655611e+003;5.612422e-002
2.657539e+003;5.634707e-002
2.659468e+003;5.638174e-002
2.661396e+003;5.669718e-002
2.663325e+003;5.737152e-002
2.665253e+003;5.782536e-002
2.667182e+003;5.797275e-002
2.669110e+003;5.813621e-002
2.671039e+003;5.848697e-002
2.672968e+003;5.895409e-002
2.674896e+003;5.935983e-002
2.676825e+003;5.964079e-002
2.678753e+003;6.007480e-002
2.680682e+003;6.039130e-002
2.682610e+003;6.040081e-002
2.684539e+003;6.049537e-002
2.686467e+003;6.078694e-002
2.688396e+003;6.118063e-002
2.690324e+003;6.151401e-002
2.692253e+003;6.192780e-002
2.694182e+003;6.242611e-002
2.696110e+003;6.292920e-002
2.698039e+003;6.305963e-002
2.699967e+003;6.304197e-002
2.701896e+003;6.342628e-002
2.703824e+003;6.393563e-002
2.705753e+003;6.416599e-002
2.707681e+003;6.428331e-002
2.709610e+003;6.450570e-002
2.711539e+003;6.479167e-002
2.713467e+003;6.515016e-002
2.715396e+003;6.542843e-002
2.717324e+003;6.552139e-002
2.719253e+003;6.558547e-002
2.721181e+003;6.573667e-002
2.723110e+003;6.581817e-002
2.725038e+003;6.626940e-002
2.726967e+003;6.681418e-002
2.728896e+003;6.705264e-002
2.730824e+003;6.706246e-002
2.732752e+003;6.710917e-002
2.734681e+003;6.741389e-002
2.736610e+003;6.776258e-002
2.738538e+003;6.786240e-002
2.740467e+003;6.809159e-002
2.742395e+003;6.859652e-002
2.744324e+003;6.890827e-002
2.746252e+003;6.898496e-002
2.748181e+003;6.913245e-002
2.750109e+003;6.939074e-002
2.752038e+003;6.967991e-002
2.753967e+003;6.997331e-002
2.755895e+003;7.022369e-002
2.757824e+003;7.045023e-002
2.759752e+003;7.073711e-002
2.761681e+003;7.092105e-002
2.763609e+003;7.141162e-002
2.765538e+003;7.206239e-002
2.767466e+003;7.253718e-002
2.769395e+003;7.257251e-002
2.771323e+003;7.270520e-002
2.773252e+003;7.299388e-002
2.775181e+003;7.347413e-002
2.777109e+003;7.408261e-002
2.779038e+003;7.438471e-002
2.780966e+003;7.440186e-002
2.782895e+003;7.472106e-002
2.784823e+003;7.535154e-002
2.786752e+003;7.576166e-002
2.788680e+003;7.619226e-002
2.790609e+003;7.654895e-002
2.792538e+003;7.687081e-002
2.794466e+003;7.737017e-002
2.796395e+003;7.786623e-002
2.798323e+003;7.830095e-002
2.800252e+003;7.878695e-002
2.802180e+003;7.948782e-002
2.804109e+003;8.025563e-002
2.806037e+003;8.077199e-002
2.807966e+003;8.123228e-002
2.809895e+003;8.174717e-002
2.811823e+003;8.238058e-002
2.813751e+003;8.313498e-002
2.815680e+003;8.396937e-002
2.817609e+003;8.480593e-002
2.819537e+003;8.519246e-002
2.821466e+003;8.567308e-002
2.823394e+003;8.629114e-002
2.825323e+003;8.679564e-002
2.827251e+003;8.770055e-002
2.829180e+003;8.859918e-002
2.831108e+003;8.952052e-002
2.833037e+003;9.021541e-002
2.834966e+003;9.129202e-002
2.836894e+003;9.281439e-002
2.838823e+003;9.369880e-002
2.840751e+003;9.452689e-002
2.842680e+003;9.542702e-002
2.844608e+003;9.625466e-002
2.846537e+003;9.689651e-002
2.848465e+003;9.757830e-002
2.850394e+003;9.864764e-002
2.852323e+003;1.004791e-001
2.854251e+003;1.024282e-001
2.856180e+003;1.041057e-001
2.858108e+003;1.063125e-001
2.860037e+003;1.086000e-001
2.861965e+003;1.106820e-001
2.863894e+003;1.125399e-001
2.865822e+003;1.142656e-001
2.867751e+003;1.159707e-001
2.869679e+003;1.175768e-001
2.871608e+003;1.189920e-001
2.873536e+003;1.200348e-001
2.875465e+003;1.210883e-001
2.877394e+003;1.227162e-001
2.879322e+003;1.237702e-001
2.881251e+003;1.240285e-001
2.883179e+003;1.247182e-001
2.885108e+003;1.254409e-001
2.887036e+003;1.254806e-001
2.888965e+003;1.254916e-001
2.890893e+003;1.256684e-001
2.892822e+003;1.259692e-001
2.894750e+003;1.256526e-001
2.896679e+003;1.249197e-001
2.898608e+003;1.245748e-001
2.900536e+003;1.245214e-001
2.902465e+003;1.240792e-001
2.904393e+003;1.234527e-001
2.906322e+003;1.229583e-001
2.908250e+003;1.223328e-001
2.910179e+003;1.213597e-001
2.912107e+003;1.201526e-001
2.914036e+003;1.186506e-001
2.915965e+003;1.171457e-001
2.917893e+003;1.157451e-001
2.919822e+003;1.145257e-001
2.921750e+003;1.138430e-001
2.923679e+003;1.135372e-001
2.925607e+003;1.128535e-001
2.927536e+003;1.119492e-001
2.929464e+003;1.114275e-001
2.931393e+003;1.112977e-001
2.933322e+003;1.111216e-001
2.935250e+003;1.105929e-001
2.937178e+003;1.098614e-001
2.939107e+003;1.089788e-001
2.941036e+003;1.082958e-001
2.942964e+003;1.075695e-001
2.944893e+003;1.067277e-001
2.946821e+003;1.055365e-001
2.948750e+003;1.039386e-001
2.950678e+003;1.021745e-001
2.952607e+003;1.006689e-001
2.954535e+003;9.905472e-002
2.956464e+003;9.708790e-002
2.958393e+003;9.563230e-002
2.960321e+003;9.430230e-002
2.962250e+003;9.317009e-002
2.964178e+003;9.248198e-002
2.966107e+003;9.183028e-002
2.968035e+003;9.087229e-002
2.969964e+003;9.020391e-002
2.971892e+003;8.960054e-002
2.973821e+003;8.898890e-002
2.975750e+003;8.816930e-002
2.977678e+003;8.734155e-002
2.979607e+003;8.675780e-002
2.981535e+003;8.624899e-002
2.983464e+003;8.554278e-002
2.985392e+003;8.476336e-002
2.987321e+003;8.409280e-002
2.989249e+003;8.355003e-002
2.991178e+003;8.340378e-002
2.993106e+003;8.299140e-002
2.995035e+003;8.249246e-002
2.996964e+003;8.239632e-002
2.998892e+003;8.242203e-002
3.000821e+003;8.232923e-002
3.002749e+003;8.215160e-002
3.004678e+003;8.199166e-002
3.006606e+003;8.197933e-002
3.008535e+003;8.197905e-002
3.010463e+003;8.217006e-002
3.012392e+003;8.236792e-002
3.014321e+003;8.262582e-002
3.016249e+003;8.314200e-002
3.018177e+003;8.368154e-002
3.020106e+003;8.432285e-002
3.022035e+003;8.458896e-002
3.023963e+003;8.495115e-002
3.025892e+003;8.555286e-002
3.027820e+003;8.602733e-002
3.029749e+003;8.648878e-002
3.031677e+003;8.700909e-002
3.033606e+003;8.767662e-002
3.035534e+003;8.867614e-002
3.037463e+003;8.956902e-002
3.039392e+003;9.026309e-002
3.041320e+003;9.071825e-002
3.043249e+003;9.119002e-002
3.045177e+003;9.195290e-002
3.047106e+003;9.259674e-002
3.049034e+003;9.330636e-002
3.050963e+003;9.407753e-002
3.052891e+003;9.487308e-002
3.054820e+003;9.587717e-002
3.056749e+003;9.653676e-002
3.058677e+003;9.706660e-002
3.060606e+003;9.785748e-002
3.062534e+003;9.871779e-002
3.064463e+003;9.955253e-002
3.066391e+003;1.003928e-001
3.068320e+003;1.012761e-001
3.070248e+003;1.020848e-001
3.072177e+003;1.028529e-001
3.074105e+003;1.036500e-001
3.076034e+003;1.045634e-001
3.077963e+003;1.055374e-001
3.079891e+003;1.063053e-001
3.081820e+003;1.071892e-001
3.083748e+003;1.078940e-001
3.085677e+003;1.085524e-001
3.087605e+003;1.096952e-001
3.089534e+003;1.105035e-001
3.091462e+003;1.112969e-001
3.093391e+003;1.122237e-001
3.095320e+003;1.131093e-001
3.097248e+003;1.141391e-001
3.099177e+003;1.150430e-001
3.101105e+003;1.156206e-001
3.103034e+003;1.162867e-001
3.104962e+003;1.172628e-001
3.106891e+003;1.182418e-001
3.108819e+003;1.192363e-001
3.110748e+003;1.201206e-001
3.112677e+003;1.209736e-001
3.114605e+003;1.219108e-001
3.116533e+003;1.229369e-001
3.118462e+003;1.235489e-001
3.120391e+003;1.241117e-001
3.122319e+003;1.248788e-001
3.124248e+003;1.259770e-001
3.126176e+003;1.272246e-001
3.128105e+003;1.282506e-001
3.130033e+003;1.291064e-001
3.131962e+003;1.298406e-001
3.133890e+003;1.305861e-001
3.135819e+003;1.313813e-001
3.137748e+003;1.324417e-001
3.139676e+003;1.331510e-001
3.141605e+003;1.339441e-001
3.143533e+003;1.348892e-001
3.145462e+003;1.356846e-001
3.147390e+003;1.365035e-001
3.149319e+003;1.374493e-001
3.151247e+003;1.384920e-001
3.153176e+003;1.394594e-001
3.155104e+003;1.400176e-001
3.157033e+003;1.407310e-001
3.158962e+003;1.419191e-001
3.160890e+003;1.429278e-001
3.162819e+003;1.436117e-001
3.164747e+003;1.438990e-001
3.166676e+003;1.446163e-001
3.168604e+003;1.458580e-001
3.170533e+003;1.468741e-001
3.172461e+003;1.476690e-001
3.174390e+003;1.484730e-001
3.176319e+003;1.491616e-001
3.178247e+003;1.498527e-001
3.180176e+003;1.508355e-001
3.182104e+003;1.517008e-001
3.184033e+003;1.523817e-001
3.185961e+003;1.532930e-001
3.187890e+003;1.540605e-001
3.189818e+003;1.548481e-001
3.191747e+003;1.561088e-001
3.193676e+003;1.567309e-001
3.195604e+003;1.568727e-001
3.197532e+003;1.576549e-001
3.199461e+003;1.586323e-001
3.201390e+003;1.595167e-001
3.203318e+003;1.599812e-001
3.205247e+003;1.601363e-001
3.207175e+003;1.607565e-001
3.209104e+003;1.618128e-001
3.211032e+003;1.625368e-001
3.212961e+003;1.628992e-001
3.214889e+003;1.637684e-001
3.216818e+003;1.643590e-001
3.218747e+003;1.650335e-001
3.220675e+003;1.659406e-001
3.222604e+003;1.666883e-001
3.224532e+003;1.672643e-001
3.226461e+003;1.674779e-001
3.228389e+003;1.680281e-001
3.230318e+003;1.691658e-001
3.232246e+003;1.697323e-001
3.234175e+003;1.697585e-001
3.236104e+003;1.701330e-001
3.238032e+003;1.710406e-001
3.239961e+003;1.716351e-001
3.241889e+003;1.722736e-001
3.243818e+003;1.730405e-001
3.245746e+003;1.734210e-001
3.247675e+003;1.733361e-001
3.249603e+003;1.736396e-001
3.251532e+003;1.744674e-001
3.253460e+003;1.748218e-001
3.255389e+003;1.751169e-001
3.257318e+003;1.754974e-001
3.259246e+003;1.760035e-001
3.261175e+003;1.764367e-001
3.263103e+003;1.767736e-001
3.265032e+003;1.770614e-001
3.266960e+003;1.771370e-001
3.268889e+003;1.777259e-001
3.270817e+003;1.782900e-001
3.272746e+003;1.785250e-001
3.274675e+003;1.787214e-001
3.276603e+003;1.790337e-001
3.278531e+003;1.792970e-001
3.280460e+003;1.793414e-001
3.282389e+003;1.800352e-001
3.284317e+003;1.804479e-001
3.286246e+003;1.799971e-001
3.288174e+003;1.801351e-001
3.290103e+003;1.810231e-001
3.292031e+003;1.817752e-001
3.293960e+003;1.819668e-001
3.295888e+003;1.815318e-001
3.297817e+003;1.815148e-001
3.299746e+003;1.821277e-001
3.301674e+003;1.826357e-001
3.303603e+003;1.827782e-001
3.305531e+003;1.827196e-001
3.307460e+003;1.828099e-001
3.309388e+003;1.830414e-001
3.311317e+003;1.831291e-001
3.313245e+003;1.834044e-001
3.315174e+003;1.832295e-001
3.317103e+003;1.828997e-001
3.319031e+003;1.829535e-001
3.320960e+003;1.833815e-001
3.322888e+003;1.836971e-001
3.324817e+003;1.837512e-001
3.326745e+003;1.838665e-001
3.328674e+003;1.839184e-001
3.330602e+003;1.837502e-001
3.332531e+003;1.831768e-001
3.334459e+003;1.832797e-001
3.336388e+003;1.840080e-001
3.338317e+003;1.842237e-001
3.340245e+003;1.841241e-001
3.342174e+003;1.836760e-001
3.344102e+003;1.832987e-001
3.346031e+003;1.833871e-001
3.347959e+003;1.830941e-001
3.349888e+003;1.825040e-001
3.351816e+003;1.823986e-001
3.353745e+003;1.824826e-001
3.355674e+003;1.824670e-001
3.357602e+003;1.822650e-001
3.359531e+003;1.820150e-001
3.361459e+003;1.817854e-001
3.363388e+003;1.812826e-001
3.365316e+003;1.810230e-001
3.367245e+003;1.806920e-001
3.369173e+003;1.803356e-001
3.371102e+003;1.802702e-001
3.373031e+003;1.800310e-001
3.374959e+003;1.797647e-001
3.376887e+003;1.792626e-001
3.378816e+003;1.788494e-001
3.380745e+003;1.785347e-001
3.382673e+003;1.779478e-001
3.384602e+003;1.773121e-001
3.386530e+003;1.769191e-001
3.388459e+003;1.767202e-001
3.390387e+003;1.762623e-001
3.392316e+003;1.757154e-001
3.394244e+003;1.751322e-001
3.396173e+003;1.744102e-001
3.398102e+003;1.739689e-001
3.400030e+003;1.735624e-001
3.401959e+003;1.729854e-001
3.403887e+003;1.726828e-001
3.405816e+003;1.724384e-001
3.407744e+003;1.717523e-001
3.409673e+003;1.709440e-001
3.411601e+003;1.701878e-001
3.413530e+003;1.697164e-001
3.415458e+003;1.690768e-001
3.417387e+003;1.679728e-001
3.419316e+003;1.675864e-001
3.421244e+003;1.668999e-001
3.423173e+003;1.656604e-001
3.425101e+003;1.648708e-001
3.427030e+003;1.645207e-001
3.428958e+003;1.640449e-001
3.430887e+003;1.633606e-001
3.432815e+003;1.623761e-001
3.434744e+003;1.612477e-001
3.436673e+003;1.602598e-001
3.438601e+003;1.596099e-001
3.440530e+003;1.591865e-001
3.442458e+003;1.584097e-001
3.444387e+003;1.572022e-001
3.446315e+003;1.560791e-001
3.448244e+003;1.547089e-001
3.450172e+003;1.532055e-001
3.452101e+003;1.522098e-001
3.454030e+003;1.513359e-001
3.455958e+003;1.502075e-001
3.457886e+003;1.491660e-001
3.459815e+003;1.482862e-001
3.461744e+003;1.469464e-001
3.463672e+003;1.457310e-001
3.465601e+003;1.447344e-001
3.467529e+003;1.436601e-001
3.469458e+003;1.425420e-001
3.471386e+003;1.414857e-001
3.473315e+003;1.402112e-001
3.475243e+003;1.387959e-001
3.477172e+003;1.376134e-001
3.479101e+003;1.365057e-001
3.481029e+003;1.354516e-001
3.482958e+003;1.345849e-001
3.484886e+003;1.333220e-001
3.486815e+003;1.320040e-001
3.488743e+003;1.309402e-001
3.490672e+003;1.297285e-001
3.492600e+003;1.281873e-001
3.494529e+003;1.266400e-001
3.496458e+003;1.256616e-001
3.498386e+003;1.244884e-001
3.500315e+003;1.225912e-001
3.502243e+003;1.209843e-001
3.504172e+003;1.197079e-001
3.506100e+003;1.181719e-001
3.508029e+003;1.169432e-001
3.509957e+003;1.160606e-001
3.511886e+003;1.153195e-001
3.513814e+003;1.139871e-001
3.515743e+003;1.125221e-001
3.517672e+003;1.112190e-001
3.519600e+003;1.100352e-001
3.521529e+003;1.085009e-001
3.523457e+003;1.068344e-001
3.525386e+003;1.054258e-001
3.527314e+003;1.043786e-001
3.529243e+003;1.032720e-001
3.531171e+003;1.021920e-001
3.533100e+003;1.009678e-001
3.535029e+003;9.954861e-002
3.536957e+003;9.818780e-002
3.538885e+003;9.707256e-002
3.540814e+003;9.602483e-002
3.542743e+003;9.472812e-002
3.544671e+003;9.356545e-002
3.546600e+003;9.239675e-002
3.548528e+003;9.076990e-002
3.550457e+003;8.940893e-002
3.552385e+003;8.835623e-002
3.554314e+003;8.737097e-002
3.556242e+003;8.629065e-002
3.558171e+003;8.475852e-002
3.560100e+003;8.332244e-002
3.562028e+003;8.223657e-002
3.563957e+003;8.061072e-002
3.565885e+003;7.872427e-002
3.567814e+003;7.756463e-002
3.569742e+003;7.699718e-002
3.571671e+003;7.609110e-002
3.573599e+003;7.467301e-002
3.575528e+003;7.339938e-002
3.577457e+003;7.229237e-002
3.579385e+003;7.128092e-002
3.581314e+003;6.986375e-002
3.583242e+003;6.826674e-002
3.585171e+003;6.689000e-002
3.587099e+003;6.571570e-002
3.589028e+003;6.447918e-002
3.590956e+003;6.343686e-002
3.592885e+003;6.252895e-002
3.594813e+003;6.126883e-002
3.596742e+003;6.033574e-002
3.598671e+003;5.961453e-002
3.600599e+003;5.853015e-002
3.602528e+003;5.736293e-002
3.604456e+003;5.620239e-002
3.606385e+003;5.468954e-002
3.608313e+003;5.322363e-002
3.610242e+003;5.251262e-002
3.612170e+003;5.133101e-002
3.614099e+003;4.982531e-002
3.616028e+003;4.853166e-002
3.617956e+003;4.721385e-002
3.619885e+003;4.649915e-002
3.621813e+003;4.589900e-002
3.623742e+003;4.504227e-002
3.625670e+003;4.374800e-002
3.627599e+003;4.136263e-002
3.629527e+003;3.993139e-002
3.631456e+003;4.012745e-002
3.633385e+003;3.956176e-002
3.635313e+003;3.837638e-002
3.637241e+003;3.727015e-002
3.639170e+003;3.633345e-002
3.641099e+003;3.534263e-002
3.643027e+003;3.430346e-002
3.644956e+003;3.352186e-002
3.646884e+003;3.199309e-002
3.648813e+003;3.004349e-002
3.650741e+003;2.963591e-002
3.652670e+003;2.994798e-002
3.654598e+003;2.928894e-002
3.656527e+003;2.825162e-002
3.658456e+003;2.815983e-002
3.660384e+003;2.811981e-002
3.662313e+003;2.747313e-002
3.664241e+003;2.702247e-002
3.666170e+003;2.627558e-002
3.668098e+003;2.438562e-002
3.670027e+003;2.301990e-002
3.671955e+003;2.334375e-002
3.673884e+003;2.228735e-002
3.675813e+003;2.139672e-002
3.677741e+003;2.231860e-002
3.679669e+003;2.239377e-002
3.681598e+003;2.181381e-002
3.683527e+003;2.151933e-002
3.685455e+003;2.115238e-002
3.687384e+003;2.001165e-002
3.689312e+003;1.944515e-002
3.691241e+003;1.965328e-002
3.693169e+003;1.958988e-002
3.695098e+003;1.965196e-002
3.697026e+003;1.943254e-002
3.698955e+003;1.883499e-002
3.700884e+003;1.834612e-002
3.702812e+003;1.840447e-002
3.704741e+003;1.852233e-002
3.706669e+003;1.841117e-002
3.708598e+003;1.812559e-002
3.710526e+003;1.762810e-002
3.712455e+003;1.722439e-002
3.714383e+003;1.756285e-002
3.716312e+003;1.785463e-002
3.718240e+003;1.752749e-002
3.720169e+003;1.734982e-002
3.722098e+003;1.734820e-002
3.724026e+003;1.698830e-002
3.725955e+003;1.672607e-002
3.727883e+003;1.683865e-002
3.729812e+003;1.657995e-002
3.731740e+003;1.592701e-002
3.733669e+003;1.533694e-002
3.735597e+003;1.486708e-002
3.737526e+003;1.545940e-002
3.739455e+003;1.594506e-002
3.741383e+003;1.546987e-002
3.743312e+003;1.370426e-002
3.745240e+003;1.379926e-002
3.747169e+003;1.459677e-002
3.749097e+003;1.382765e-002
3.751026e+003;1.355047e-002
3.752954e+003;1.439783e-002
3.754883e+003;1.519157e-002
3.756812e+003;1.525615e-002
3.758740e+003;1.568538e-002
3.760668e+003;1.616256e-002
3.762597e+003;1.585927e-002
3.764526e+003;1.543286e-002
3.766454e+003;1.565797e-002
3.768383e+003;1.532994e-002
3.770311e+003;1.489733e-002
3.772240e+003;1.491217e-002
3.774168e+003;1.535366e-002
3.776097e+003;1.555778e-002
3.778025e+003;1.529850e-002
3.779954e+003;1.535270e-002
3.781883e+003;1.559480e-002
3.783811e+003;1.549088e-002
3.785740e+003;1.561668e-002
3.787668e+003;1.536011e-002
3.789597e+003;1.525035e-002
3.791525e+003;1.552708e-002
3.793454e+003;1.540038e-002
3.795382e+003;1.487823e-002
3.797311e+003;1.490744e-002
3.799240e+003;1.473372e-002
3.801168e+003;1.431283e-002
3.803097e+003;1.473256e-002
3.805025e+003;1.479999e-002
3.806954e+003;1.446298e-002
3.808882e+003;1.511451e-002
3.810811e+003;1.572059e-002
3.812739e+003;1.550812e-002
3.814668e+003;1.439314e-002
3.816596e+003;1.436636e-002
3.818525e+003;1.438673e-002
3.820454e+003;1.342428e-002
3.822382e+003;1.405457e-002
3.824311e+003;1.500721e-002
3.826239e+003;1.515997e-002
3.828168e+003;1.519870e-002
3.830096e+003;1.512761e-002
3.832025e+003;1.535411e-002
3.833953e+003;1.566195e-002
3.835882e+003;1.476461e-002
3.837811e+003;1.407647e-002
3.839739e+003;1.494962e-002
3.841667e+003;1.528704e-002
3.843596e+003;1.499373e-002
3.845525e+003;1.531206e-002
3.847453e+003;1.589213e-002
3.849382e+003;1.494547e-002
3.851310e+003;1.264870e-002
3.853239e+003;1.170806e-002
3.855167e+003;1.351434e-002
3.857096e+003;1.510487e-002
3.859024e+003;1.575299e-002
3.860953e+003;1.575667e-002
3.862882e+003;1.516010e-002
3.864810e+003;1.504528e-002
3.866739e+003;1.523721e-002
3.868667e+003;1.452420e-002
3.870596e+003;1.473948e-002
3.872524e+003;1.506816e-002
3.874453e+003;1.493374e-002
3.876381e+003;1.579419e-002
3.878310e+003;1.604950e-002
3.880239e+003;1.551420e-002
3.882167e+003;1.562537e-002
3.884096e+003;1.545394e-002
3.886024e+003;1.545404e-002
3.887953e+003;1.589227e-002
3.889881e+003;1.554411e-002
3.891810e+003;1.556029e-002
3.893738e+003;1.605596e-002
3.895667e+003;1.594960e-002
3.897595e+003;1.561002e-002
3.899524e+003;1.555091e-002
3.901453e+003;1.544024e-002
3.903381e+003;1.553443e-002
3.905310e+003;1.608247e-002
3.907238e+003;1.664161e-002
3.909167e+003;1.702348e-002
3.911095e+003;1.755112e-002
3.913024e+003;1.724769e-002
3.914952e+003;1.642937e-002
3.916881e+003;1.652432e-002
3.918810e+003;1.677190e-002
3.920738e+003;1.650040e-002
3.922667e+003;1.685753e-002
3.924595e+003;1.720536e-002
3.926524e+003;1.722194e-002
3.928452e+003;1.715265e-002
3.930381e+003;1.697217e-002
3.932309e+003;1.718719e-002
3.934238e+003;1.762213e-002
3.936167e+003;1.771714e-002
3.938095e+003;1.757469e-002
3.940023e+003;1.728517e-002
3.941952e+003;1.751179e-002
3.943881e+003;1.775869e-002
3.945809e+003;1.764880e-002
3.947738e+003;1.739579e-002
3.949666e+003;1.769843e-002
3.951595e+003;1.854097e-002
3.953523e+003;1.843368e-002
3.955452e+003;1.817361e-002
3.957380e+003;1.859145e-002
3.959309e+003;1.861431e-002
3.961238e+003;1.812424e-002
3.963166e+003;1.808120e-002
3.965095e+003;1.827765e-002
3.967023e+003;1.795724e-002
3.968952e+003;1.787151e-002
3.970880e+003;1.802379e-002
3.972809e+003;1.796716e-002
3.974737e+003;1.786512e-002
3.976666e+003;1.790773e-002
3.978594e+003;1.794305e-002
3.980523e+003;1.817130e-002
3.982452e+003;1.844564e-002
3.984380e+003;1.833720e-002
3.986309e+003;1.846929e-002
3.988237e+003;1.878343e-002
3.990166e+003;1.884675e-002
3.992094e+003;1.830413e-002
3.994023e+003;1.779759e-002
3.995951e+003;1.752338e-002
3.997880e+003;1.756009e-002
3.999809e+003;1.797548e-002
4.001737e+003;0.000000e+000
