3.992094e+002;0.000000e+000
4.011380e+002;0.000000e+000
4.030665e+002;0.000000e+000
4.049951e+002;0.000000e+000
4.069236e+002;0.000000e+000
4.088522e+002;0.000000e+000
4.107807e+002;0.000000e+000
4.127093e+002;0.000000e+000
4.146378e+002;0.000000e+000
4.165664e+002;0.000000e+000
4.184949e+002;0.000000e+000
4.204235e+002;0.000000e+000
4.223520e+002;0.000000e+000
4.242806e+002;0.000000e+000
4.262091e+002;0.000000e+000
4.281377e+002;0.000000e+000
4.300662e+002;0.000000e+000
4.319948e+002;0.000000e+000
4.339233e+002;0.000000e+000
4.358519e+002;0.000000e+000
4.377804e+002;0.000000e+000
4.397090e+002;0.000000e+000
4.416375e+002;0.000000e+000
4.435660e+002;0.000000e+000
4.454946e+002;0.000000e+000
4.474232e+002;0.000000e+000
4.493517e+002;0.000000e+000
4.512802e+002;0.000000e+000
4.532088e+002;0.000000e+000
4.551373e+002;0.000000e+000
4.570659e+002;0.000000e+000
4.589944e+002;0.000000e+000
4.609230e+002;0.000000e+000
4.628515e+002;0.000000e+000
4.647801e+002;0.000000e+000
4.667086e+002;0.000000e+000
4.686372e+002;0.000000e+000
4.705657e+002;0.000000e+000
4.724943e+002;0.000000e+000
4.744228e+002;0.000000e+000
4.763513e+002;0.000000e+000
4.782799e+002;0.000000e+000
4.802085e+002;0.000000e+000
4.821370e+002;0.000000e+000
4.840656e+002;0.000000e+000
4.859941e+002;0.000000e+000
4.879226e+002;0.000000e+000
4.898512e+002;0.000000e+000
4.917798e+002;0.000000e+000
4.937083e+002;0.000000e+000
4.956368e+002;0.000000e+000
4.975654e+002;0.000000e+000
4.994939e+002;0.000000e+000
5.014225e+002;0.000000e+000
5.033510e+002;0.000000e+000
5.052796e+002;0.000000e+000
5.072081e+002;0.000000e+000
5.091367e+002;0.000000e+000
5.110652e+002;0.000000e+000
5.129938e+002;0.000000e+000
5.149223e+002;0.000000e+000
5.168509e+002;0.000000e+000
5.187794e+002;0.000000e+000
5.207079e+002;0.000000e+000
5.226365e+002;0.000000e+000
5.245651e+002;0.000000e+000
5.264936e+002;0.000000e+000
5.284222e+002;0.000000e+000
5.303507e+002;0.000000e+000
5.322792e+002;0.000000e+000
5.342078e+002;0.000000e+000
5.361364e+002;0.000000e+000
5.380649e+002;0.000000e+000
5.399935e+002;0.000000e+000
5.419220e+002;0.000000e+000
5.438505e+002;0.000000e+000
5.457791e+002;0.000000e+000
5.477076e+002;0.000000e+000
5.496362e+002;0.000000e+000
5.515648e+002;0.000000e+000
5.534933e+002;0.000000e+000
5.554218e+002;0.000000e+000
5.573504e+002;0.000000e+000
5.592789e+002;0.000000e+000
5.612075e+002;0.000000e+000
5.631360e+002;0.000000e+000
5.650646e+002;0.000000e+000
5.669931e+002;0.000000e+000
5.689217e+002;0.000000e+000
5.708502e+002;0.000000e+000
5.727787e+002;0.000000e+000
5.747073e+002;0.000000e+000
5.766359e+002;0.000000e+000
5.785644e+002;0.000000e+000
5.804930e+002;0.000000e+000
5.824215e+002;0.000000e+000
5.843500e+002;0.000000e+000
5.862786e+002;0.000000e+000
5.882072e+002;0.000000e+000
5.901357e+002;0.000000e+000
5.920643e+002;0.000000e+000
5.939928e+002;0.000000e+000
5.959213e+002;0.000000e+000
5.978499e+002;0.000000e+000
5.997784e+002;2.056733e-001
6.017070e+002;2.064509e-001
6.036355e+002;2.141589e-001
6.055641e+002;2.207734e-001
6.074926e+002;2.208976e-001
6.094211e+002;2.168257e-001
6.113497e+002;2.162234e-001
6.132783e+002;2.196780e-001
6.152068e+002;2.186952e-001
6.171354e+002;2.112273e-001
6.190639e+002;2.012711e-001
6.209924e+002;1.983897e-001
6.229210e+002;1.997239e-001
6.248495e+002;2.005663e-001
6.267781e+002;1.981767e-001
6.287067e+002;1.957479e-001
6.306352e+002;1.955162e-001
6.325637e+002;1.947103e-001
6.344923e+002;1.925132e-001
6.364208e+002;1.932845e-001
6.383494e+002;1.958958e-001
6.402780e+002;1.944021e-001
6.422065e+002;1.932486e-001
6.441350e+002;1.929224e-001
6.460636e+002;1.903885e-001
6.479921e+002;1.887794e-001
6.499207e+002;1.920001e-001
6.518492e+002;1.931508e-001
6.537778e+002;1.908415e-001
6.557063e+002;1.915667e-001
6.576349e+002;1.965510e-001
6.595634e+002;2.004561e-001
6.614919e+002;2.021178e-001
6.634205e+002;2.044469e-001
6.653491e+002;2.058205e-001
6.672776e+002;2.043290e-001
6.692062e+002;2.040836e-001
6.711347e+002;2.014137e-001
6.730632e+002;1.956370e-001
6.749918e+002;1.877962e-001
6.769203e+002;1.799696e-001
6.788489e+002;1.739617e-001
6.807775e+002;1.680216e-001
6.827060e+002;1.632097e-001
6.846345e+002;1.596893e-001
6.865631e+002;1.575957e-001
6.884916e+002;1.560326e-001
6.904202e+002;1.554876e-001
6.923488e+002;1.562264e-001
6.942773e+002;1.566257e-001
6.962058e+002;1.564830e-001
6.981344e+002;1.557228e-001
7.000629e+002;1.555440e-001
7.019915e+002;1.545065e-001
7.039200e+002;1.537178e-001
7.058486e+002;1.534749e-001
7.077771e+002;1.523749e-001
7.097057e+002;1.517505e-001
7.116342e+002;1.513195e-001
7.135627e+002;1.501070e-001
7.154913e+002;1.498679e-001
7.174199e+002;1.502630e-001
7.193484e+002;1.493131e-001
7.212770e+002;1.474641e-001
7.232055e+002;1.456283e-001
7.251340e+002;1.454362e-001
7.270626e+002;1.458932e-001
7.289911e+002;1.451826e-001
7.309197e+002;1.441131e-001
7.328483e+002;1.432177e-001
7.347768e+002;1.418336e-001
7.367053e+002;1.406241e-001
7.386339e+002;1.402659e-001
7.405624e+002;1.396985e-001
7.424910e+002;1.385452e-001
7.444196e+002;1.373044e-001
7.463481e+002;1.371644e-001
7.482766e+002;1.370757e-001
7.502052e+002;1.365439e-001
7.521337e+002;1.360045e-001
7.540623e+002;1.349144e-001
7.559908e+002;1.333878e-001
7.579194e+002;1.318784e-001
7.598479e+002;1.309536e-001
7.617765e+002;1.301051e-001
7.637050e+002;1.290267e-001
7.656335e+002;1.282478e-001
7.675621e+002;1.282033e-001
7.694907e+002;1.282336e-001
7.714192e+002;1.273507e-001
7.733478e+002;1.270787e-001
7.752763e+002;1.269022e-001
7.772048e+002;1.261379e-001
7.791334e+002;1.257139e-001
7.810620e+002;1.255483e-001
7.829905e+002;1.252620e-001
7.849191e+002;1.246552e-001
7.868476e+002;1.237464e-001
7.887761e+002;1.235849e-001
7.907047e+002;1.241172e-001
7.926332e+002;1.237694e-001
7.945618e+002;1.223444e-001
7.964903e+002;1.219380e-001
7.984189e+002;1.228660e-001
8.003474e+002;1.232230e-001
8.022759e+002;1.224600e-001
8.042045e+002;1.218157e-001
8.061331e+002;1.217767e-001
8.080616e+002;1.216576e-001
8.099902e+002;1.209083e-001
8.119187e+002;1.203532e-001
8.138472e+002;1.201764e-001
8.157758e+002;1.200323e-001
8.177043e+002;1.205696e-001
8.196329e+002;1.209572e-001
8.215615e+002;1.207545e-001
8.234900e+002;1.200999e-001
8.254185e+002;1.197452e-001
8.273471e+002;1.198265e-001
8.292756e+002;1.202226e-001
8.312042e+002;1.206381e-001
8.331328e+002;1.205354e-001
8.350613e+002;1.196455e-001
8.369898e+002;1.189992e-001
8.389184e+002;1.186171e-001
8.408469e+002;1.185282e-001
8.427755e+002;1.184007e-001
8.447040e+002;1.186959e-001
8.466326e+002;1.187584e-001
8.485611e+002;1.185051e-001
8.504897e+002;1.191345e-001
8.524182e+002;1.198530e-001
8.543467e+002;1.200301e-001
8.562753e+002;1.194804e-001
8.582039e+002;1.190560e-001
8.601324e+002;1.200495e-001
8.620610e+002;1.211753e-001
8.639895e+002;1.221510e-001
8.659180e+002;1.229109e-001
8.678466e+002;1.238589e-001
8.697751e+002;1.249561e-001
8.717037e+002;1.265378e-001
8.736323e+002;1.289009e-001
8.755608e+002;1.311720e-001
8.774893e+002;1.332372e-001
8.794179e+002;1.358957e-001
8.813464e+002;1.396289e-001
8.832750e+002;1.434703e-001
8.852036e+002;1.473768e-001
8.871321e+002;1.516146e-001
8.890606e+002;1.556314e-001
8.909892e+002;1.593912e-001
8.929177e+002;1.618236e-001
8.948463e+002;1.618600e-001
8.967748e+002;1.603705e-001
8.987034e+002;1.580911e-001
9.006319e+002;1.549475e-001
9.025605e+002;1.515773e-001
9.044890e+002;1.484217e-001
9.064175e+002;1.460430e-001
9.083461e+002;1.441640e-001
9.102747e+002;1.418930e-001
9.122032e+002;1.395713e-001
9.141318e+002;1.383822e-001
9.160603e+002;1.379019e-001
9.179888e+002;1.378214e-001
9.199174e+002;1.384850e-001
9.218459e+002;1.395840e-001
9.237745e+002;1.404156e-001
9.257031e+002;1.414084e-001
9.276316e+002;1.422260e-001
9.295601e+002;1.431072e-001
9.314887e+002;1.444474e-001
9.334172e+002;1.457715e-001
9.353458e+002;1.471118e-001
9.372744e+002;1.481819e-001
9.392029e+002;1.494772e-001
9.411314e+002;1.514865e-001
9.430600e+002;1.533821e-001
9.449885e+002;1.557458e-001
9.469171e+002;1.586348e-001
9.488456e+002;1.613715e-001
9.507742e+002;1.644613e-001
9.527027e+002;1.680383e-001
9.546313e+002;1.719355e-001
9.565598e+002;1.759304e-001
9.584883e+002;1.801239e-001
9.604169e+002;1.840296e-001
9.623455e+002;1.876016e-001
9.642740e+002;1.911858e-001
9.662026e+002;1.950231e-001
9.681311e+002;1.988620e-001
9.700596e+002;2.030150e-001
9.719882e+002;2.080638e-001
9.739167e+002;2.137080e-001
9.758453e+002;2.201457e-001
9.777739e+002;2.280212e-001
9.797024e+002;2.369556e-001
9.816309e+002;2.470513e-001
9.835595e+002;2.578122e-001
9.854880e+002;2.683579e-001
9.874166e+002;2.785949e-001
9.893452e+002;2.883207e-001
9.912737e+002;2.962945e-001
9.932022e+002;3.016439e-001
9.951307e+002;3.053922e-001
9.970593e+002;3.071430e-001
9.989879e+002;3.070728e-001
1.000916e+003;3.073535e-001
1.002845e+003;3.088567e-001
1.004773e+003;3.116196e-001
1.006702e+003;3.157040e-001
1.008631e+003;3.209401e-001
1.010559e+003;3.266930e-001
1.012488e+003;3.322240e-001
1.014416e+003;3.376659e-001
1.016345e+003;3.424073e-001
1.018273e+003;3.454466e-001
1.020202e+003;3.468724e-001
1.022130e+003;3.477740e-001
1.024059e+003;3.475454e-001
1.025988e+003;3.459057e-001
1.027916e+003;3.430951e-001
1.029845e+003;3.394945e-001
1.031773e+003;3.357163e-001
1.033702e+003;3.317898e-001
1.035630e+003;3.278309e-001
1.037559e+003;3.247479e-001
1.039487e+003;3.229862e-001
1.041416e+003;3.212148e-001
1.043344e+003;3.191436e-001
1.045273e+003;3.172671e-001
1.047202e+003;3.154612e-001
1.049130e+003;3.137279e-001
1.051059e+003;3.120283e-001
1.052987e+003;3.098496e-001
1.054916e+003;3.080486e-001
1.056844e+003;3.058564e-001
1.058773e+003;3.018816e-001
1.060701e+003;2.965834e-001
1.062630e+003;2.902566e-001
1.064558e+003;2.840676e-001
1.066487e+003;2.781219e-001
1.068416e+003;2.729002e-001
1.070344e+003;2.684796e-001
1.072273e+003;2.648899e-001
1.074201e+003;2.607602e-001
1.076130e+003;2.565461e-001
1.078058e+003;2.528904e-001
1.079987e+003;2.491269e-001
1.081915e+003;2.450428e-001
1.083844e+003;2.412219e-001
1.085773e+003;2.372017e-001
1.087701e+003;2.335092e-001
1.089630e+003;2.303913e-001
1.091558e+003;2.270949e-001
1.093487e+003;2.232523e-001
1.095415e+003;2.190346e-001
1.097344e+003;2.147780e-001
1.099272e+003;2.093264e-001
1.101201e+003;2.039630e-001
1.103129e+003;1.999445e-001
1.105058e+003;1.968951e-001
1.106987e+003;1.946422e-001
1.108915e+003;1.922470e-001
1.110844e+003;1.897966e-001
1.112772e+003;1.866395e-001
1.114701e+003;1.827069e-001
1.116629e+003;1.791848e-001
1.118558e+003;1.756085e-001
1.120486e+003;1.715616e-001
1.122415e+003;1.676502e-001
1.124344e+003;1.632607e-001
1.126272e+003;1.585934e-001
1.128201e+003;1.546187e-001
1.130129e+003;1.510908e-001
1.132058e+003;1.478878e-001
1.133986e+003;1.450458e-001
1.135915e+003;1.421214e-001
1.137843e+003;1.397146e-001
1.139772e+003;1.384064e-001
1.141700e+003;1.381267e-001
1.143629e+003;1.387031e-001
1.145557e+003;1.396819e-001
1.147486e+003;1.407234e-001
1.149415e+003;1.422655e-001
1.151343e+003;1.438165e-001
1.153272e+003;1.452730e-001
1.155200e+003;1.460590e-001
1.157129e+003;1.457113e-001
1.159057e+003;1.437747e-001
1.160986e+003;1.407415e-001
1.162914e+003;1.365352e-001
1.164843e+003;1.315159e-001
1.166771e+003;1.263946e-001
1.168700e+003;1.217330e-001
1.170629e+003;1.174162e-001
1.172557e+003;1.135750e-001
1.174486e+003;1.103567e-001
1.176414e+003;1.076772e-001
1.178343e+003;1.054109e-001
1.180271e+003;1.038595e-001
1.182200e+003;1.029996e-001
1.184128e+003;1.023304e-001
1.186057e+003;1.026476e-001
1.187986e+003;1.042339e-001
1.189914e+003;1.062958e-001
1.191843e+003;1.083939e-001
1.193771e+003;1.103829e-001
1.195700e+003;1.119972e-001
1.197628e+003;1.130559e-001
1.199557e+003;1.133002e-001
1.201485e+003;1.126424e-001
1.203414e+003;1.112593e-001
1.205343e+003;1.095627e-001
1.207271e+003;1.078784e-001
1.209200e+003;1.068672e-001
1.211128e+003;1.065001e-001
1.213057e+003;1.066160e-001
1.214985e+003;1.075410e-001
1.216914e+003;1.091459e-001
1.218842e+003;1.113104e-001
1.220771e+003;1.133406e-001
1.222699e+003;1.146719e-001
1.224628e+003;1.155818e-001
1.226557e+003;1.163933e-001
1.228485e+003;1.169899e-001
1.230414e+003;1.174318e-001
1.232342e+003;1.177687e-001
1.234271e+003;1.177463e-001
1.236199e+003;1.174924e-001
1.238128e+003;1.175746e-001
1.240056e+003;1.175772e-001
1.241985e+003;1.175554e-001
1.243913e+003;1.175910e-001
1.245842e+003;1.176730e-001
1.247771e+003;1.178502e-001
1.249699e+003;1.184335e-001
1.251628e+003;1.194790e-001
1.253556e+003;1.205639e-001
1.255485e+003;1.217924e-001
1.257413e+003;1.226742e-001
1.259342e+003;1.229033e-001
1.261270e+003;1.226368e-001
1.263199e+003;1.221160e-001
1.265127e+003;1.215116e-001
1.267056e+003;1.207101e-001
1.268985e+003;1.200928e-001
1.270913e+003;1.194537e-001
1.272842e+003;1.188512e-001
1.274770e+003;1.185395e-001
1.276699e+003;1.180385e-001
1.278627e+003;1.173532e-001
1.280556e+003;1.168317e-001
1.282484e+003;1.164506e-001
1.284413e+003;1.162342e-001
1.286342e+003;1.162699e-001
1.288270e+003;1.167680e-001
1.290199e+003;1.181369e-001
1.292127e+003;1.198317e-001
1.294056e+003;1.210672e-001
1.295984e+003;1.219522e-001
1.297913e+003;1.228016e-001
1.299841e+003;1.239301e-001
1.301770e+003;1.250850e-001
1.303698e+003;1.263603e-001
1.305627e+003;1.278064e-001
1.307556e+003;1.295022e-001
1.309484e+003;1.310464e-001
1.311413e+003;1.320892e-001
1.313341e+003;1.323751e-001
1.315270e+003;1.320954e-001
1.317198e+003;1.312505e-001
1.319127e+003;1.301147e-001
1.321055e+003;1.287096e-001
1.322984e+003;1.273966e-001
1.324912e+003;1.269782e-001
1.326841e+003;1.269901e-001
1.328770e+003;1.270166e-001
1.330698e+003;1.272460e-001
1.332627e+003;1.275260e-001
1.334555e+003;1.275428e-001
1.336484e+003;1.272812e-001
1.338412e+003;1.268070e-001
1.340341e+003;1.260768e-001
1.342269e+003;1.255610e-001
1.344198e+003;1.254228e-001
1.346126e+003;1.252824e-001
1.348055e+003;1.250625e-001
1.349984e+003;1.249794e-001
1.351912e+003;1.254705e-001
1.353841e+003;1.263790e-001
1.355769e+003;1.273466e-001
1.357698e+003;1.284241e-001
1.359626e+003;1.292792e-001
1.361555e+003;1.297529e-001
1.363483e+003;1.301847e-001
1.365412e+003;1.301287e-001
1.367341e+003;1.297207e-001
1.369269e+003;1.291713e-001
1.371198e+003;1.281413e-001
1.373126e+003;1.267598e-001
1.375055e+003;1.253684e-001
1.376983e+003;1.238767e-001
1.378912e+003;1.221317e-001
1.380840e+003;1.198733e-001
1.382769e+003;1.174455e-001
1.384698e+003;1.156795e-001
1.386626e+003;1.146029e-001
1.388555e+003;1.138144e-001
1.390483e+003;1.131213e-001
1.392412e+003;1.125729e-001
1.394340e+003;1.122506e-001
1.396269e+003;1.121768e-001
1.398197e+003;1.120370e-001
1.400126e+003;1.115109e-001
1.402054e+003;1.111353e-001
1.403983e+003;1.113466e-001
1.405911e+003;1.114190e-001
1.407840e+003;1.113237e-001
1.409769e+003;1.115012e-001
1.411697e+003;1.117360e-001
1.413626e+003;1.119496e-001
1.415554e+003;1.122342e-001
1.417483e+003;1.121853e-001
1.419411e+003;1.117770e-001
1.421340e+003;1.117969e-001
1.423268e+003;1.117939e-001
1.425197e+003;1.115983e-001
1.427125e+003;1.113195e-001
1.429054e+003;1.108652e-001
1.430983e+003;1.104878e-001
1.432911e+003;1.103394e-001
1.434840e+003;1.098392e-001
1.436768e+003;1.090469e-001
1.438697e+003;1.087242e-001
1.440625e+003;1.083333e-001
1.442554e+003;1.077347e-001
1.444482e+003;1.072243e-001
1.446411e+003;1.064788e-001
1.448340e+003;1.054881e-001
1.450268e+003;1.046518e-001
1.452197e+003;1.040622e-001
1.454125e+003;1.031350e-001
1.456054e+003;1.018289e-001
1.457982e+003;1.011408e-001
1.459911e+003;1.011265e-001
1.461839e+003;1.006303e-001
1.463768e+003;9.975801e-002
1.465697e+003;9.899117e-002
1.467625e+003;9.822344e-002
1.469554e+003;9.729868e-002
1.471482e+003;9.622650e-002
1.473411e+003;9.502683e-002
1.475339e+003;9.374461e-002
1.477268e+003;9.242778e-002
1.479196e+003;9.112291e-002
1.481125e+003;8.992264e-002
1.483053e+003;8.880044e-002
1.484982e+003;8.770468e-002
1.486911e+003;8.671698e-002
1.488839e+003;8.581488e-002
1.490768e+003;8.511159e-002
1.492696e+003;8.440582e-002
1.494625e+003;8.329254e-002
1.496553e+003;8.251562e-002
1.498482e+003;8.254403e-002
1.500410e+003;8.262794e-002
1.502339e+003;8.243345e-002
1.504267e+003;8.174773e-002
1.506196e+003;8.119860e-002
1.508125e+003;8.129597e-002
1.510053e+003;8.139419e-002
1.511982e+003;8.120815e-002
1.513910e+003;8.087676e-002
1.515839e+003;8.034616e-002
1.517767e+003;8.028871e-002
1.519696e+003;8.019333e-002
1.521624e+003;7.985327e-002
1.523553e+003;7.999435e-002
1.525481e+003;8.001259e-002
1.527410e+003;8.004908e-002
1.529339e+003;8.035939e-002
1.531267e+003;8.047243e-002
1.533196e+003;8.034664e-002
1.535124e+003;8.039452e-002
1.537053e+003;8.055998e-002
1.538981e+003;8.013017e-002
1.540910e+003;7.982237e-002
1.542838e+003;8.004211e-002
1.544767e+003;8.038782e-002
1.546695e+003;8.081198e-002
1.548624e+003;8.090810e-002
1.550553e+003;8.065847e-002
1.552481e+003;8.050462e-002
1.554410e+003;8.067104e-002
1.556338e+003;8.055296e-002
1.558267e+003;7.984933e-002
1.560195e+003;8.012360e-002
1.562124e+003;8.109655e-002
1.564052e+003;8.111081e-002
1.565981e+003;8.081721e-002
1.567910e+003;8.089928e-002
1.569838e+003;8.098128e-002
1.571767e+003;8.114325e-002
1.573695e+003;8.127830e-002
1.575624e+003;8.127167e-002
1.577552e+003;8.147731e-002
1.579481e+003;8.160689e-002
1.581409e+003;8.172785e-002
1.583338e+003;8.191270e-002
1.585266e+003;8.206554e-002
1.587195e+003;8.217246e-002
1.589124e+003;8.207831e-002
1.591052e+003;8.212810e-002
1.592981e+003;8.258578e-002
1.594909e+003;8.285473e-002
1.596838e+003;8.289715e-002
1.598766e+003;8.313590e-002
1.600695e+003;8.351782e-002
1.602623e+003;8.382752e-002
1.604552e+003;8.406433e-002
1.606480e+003;8.418825e-002
1.608409e+003;8.439660e-002
1.610338e+003;8.477069e-002
1.612266e+003;8.509599e-002
1.614195e+003;8.521439e-002
1.616123e+003;8.530249e-002
1.618052e+003;8.569681e-002
1.619980e+003;8.625464e-002
1.621909e+003;8.653068e-002
1.623837e+003;8.674239e-002
1.625766e+003;8.710068e-002
1.627694e+003;8.738596e-002
1.629623e+003;8.770237e-002
1.631552e+003;8.802940e-002
1.633480e+003;8.792143e-002
1.635409e+003;8.781495e-002
1.637337e+003;8.800460e-002
1.639266e+003;8.813617e-002
1.641194e+003;8.822426e-002
1.643123e+003;8.812644e-002
1.645051e+003;8.761483e-002
1.646980e+003;8.728363e-002
1.648909e+003;8.728310e-002
1.650837e+003;8.672754e-002
1.652766e+003;8.588146e-002
1.654694e+003;8.590630e-002
1.656623e+003;8.612788e-002
1.658551e+003;8.606134e-002
1.660480e+003;8.576293e-002
1.662408e+003;8.512276e-002
1.664337e+003;8.468337e-002
1.666266e+003;8.426178e-002
1.668194e+003;8.343040e-002
1.670123e+003;8.306698e-002
1.672051e+003;8.286210e-002
1.673980e+003;8.209027e-002
1.675908e+003;8.161860e-002
1.677837e+003;8.154555e-002
1.679765e+003;8.109017e-002
1.681694e+003;8.031143e-002
1.683622e+003;7.962794e-002
1.685551e+003;7.951146e-002
1.687479e+003;7.967347e-002
1.689408e+003;7.940304e-002
1.691337e+003;7.902246e-002
1.693265e+003;7.847840e-002
1.695194e+003;7.784629e-002
1.697122e+003;7.770017e-002
1.699051e+003;7.731055e-002
1.700979e+003;7.681903e-002
1.702908e+003;7.677704e-002
1.704836e+003;7.654326e-002
1.706765e+003;7.651187e-002
1.708693e+003;7.654266e-002
1.710622e+003;7.640654e-002
1.712551e+003;7.614298e-002
1.714479e+003;7.585773e-002
1.716408e+003;7.545537e-002
1.718336e+003;7.542828e-002
1.720265e+003;7.575128e-002
1.722193e+003;7.584111e-002
1.724122e+003;7.598212e-002
1.726050e+003;7.600742e-002
1.727979e+003;7.566388e-002
1.729908e+003;7.540574e-002
1.731836e+003;7.498383e-002
1.733765e+003;7.449326e-002
1.735693e+003;7.445845e-002
1.737622e+003;7.427796e-002
1.739550e+003;7.390200e-002
1.741479e+003;7.372696e-002
1.743407e+003;7.350376e-002
1.745336e+003;7.326541e-002
1.747265e+003;7.288465e-002
1.749193e+003;7.258183e-002
1.751122e+003;7.257732e-002
1.753050e+003;7.297648e-002
1.754979e+003;7.317936e-002
1.756907e+003;7.323655e-002
1.758836e+003;7.344685e-002
1.760764e+003;7.342587e-002
1.762693e+003;7.336866e-002
1.764621e+003;7.357535e-002
1.766550e+003;7.344145e-002
1.768479e+003;7.317957e-002
1.770407e+003;7.312431e-002
1.772336e+003;7.307209e-002
1.774264e+003;7.313737e-002
1.776193e+003;7.338172e-002
1.778121e+003;7.347617e-002
1.780050e+003;7.336140e-002
1.781978e+003;7.342798e-002
1.783907e+003;7.335199e-002
1.785835e+003;7.334206e-002
1.787764e+003;7.355557e-002
1.789693e+003;7.339557e-002
1.791621e+003;7.308910e-002
1.793550e+003;7.304606e-002
1.795478e+003;7.299130e-002
1.797407e+003;7.290808e-002
1.799335e+003;7.305088e-002
1.801264e+003;7.319705e-002
1.803192e+003;7.329012e-002
1.805121e+003;7.333735e-002
1.807049e+003;7.319960e-002
1.808978e+003;7.313792e-002
1.810907e+003;7.313090e-002
1.812835e+003;7.299278e-002
1.814764e+003;7.305409e-002
1.816692e+003;7.311459e-002
1.818621e+003;7.301571e-002
1.820549e+003;7.301650e-002
1.822478e+003;7.305468e-002
1.824406e+003;7.304445e-002
1.826335e+003;7.295723e-002
1.828264e+003;7.283343e-002
1.830192e+003;7.283151e-002
1.832121e+003;7.295848e-002
1.834049e+003;7.310169e-002
1.835978e+003;7.315055e-002
1.837906e+003;7.301027e-002
1.839835e+003;7.291071e-002
1.841763e+003;7.286514e-002
1.843692e+003;7.261112e-002
1.845620e+003;7.253315e-002
1.847549e+003;7.248852e-002
1.849478e+003;7.236309e-002
1.851406e+003;7.230967e-002
1.853335e+003;7.228849e-002
1.855263e+003;7.231980e-002
1.857192e+003;7.228399e-002
1.859120e+003;7.232367e-002
1.861049e+003;7.261993e-002
1.862977e+003;7.270818e-002
1.864906e+003;7.252352e-002
1.866834e+003;7.238309e-002
1.868763e+003;7.230485e-002
1.870692e+003;7.227593e-002
1.872620e+003;7.241096e-002
1.874549e+003;7.247630e-002
1.876477e+003;7.244740e-002
1.878406e+003;7.255895e-002
1.880334e+003;7.273474e-002
1.882263e+003;7.267147e-002
1.884191e+003;7.251851e-002
1.886120e+003;7.237017e-002
1.888048e+003;7.231291e-002
1.889977e+003;7.240380e-002
1.891906e+003;7.241409e-002
1.893834e+003;7.238348e-002
1.895763e+003;7.253793e-002
1.897691e+003;7.265080e-002
1.899620e+003;7.259048e-002
1.901548e+003;7.239178e-002
1.903477e+003;7.240520e-002
1.905405e+003;7.252168e-002
1.907334e+003;7.247739e-002
1.909262e+003;7.254255e-002
1.911191e+003;7.266517e-002
1.913120e+003;7.281290e-002
1.915048e+003;7.296930e-002
1.916977e+003;7.282810e-002
1.918905e+003;7.276964e-002
1.920834e+003;7.297268e-002
1.922762e+003;7.321219e-002
1.924691e+003;7.337682e-002
1.926619e+003;7.336615e-002
1.928548e+003;7.324918e-002
1.930477e+003;7.315160e-002
1.932405e+003;7.315592e-002
1.934334e+003;7.340691e-002
1.936262e+003;7.365908e-002
1.938191e+003;7.356855e-002
1.940119e+003;7.327691e-002
1.942048e+003;7.325871e-002
1.943976e+003;7.345428e-002
1.945905e+003;7.358065e-002
1.947833e+003;7.368338e-002
1.949762e+003;7.370902e-002
1.951691e+003;7.382808e-002
1.953619e+003;7.404037e-002
1.955548e+003;7.403082e-002
1.957476e+003;7.404115e-002
1.959405e+003;7.395028e-002
1.961333e+003;7.394879e-002
1.963262e+003;7.407381e-002
1.965190e+003;7.419045e-002
1.967119e+003;7.428692e-002
1.969047e+003;7.424694e-002
1.970976e+003;7.430316e-002
1.972905e+003;7.453637e-002
1.974833e+003;7.443552e-002
1.976762e+003;7.450931e-002
1.978690e+003;7.476451e-002
1.980619e+003;7.481138e-002
1.982547e+003;7.468612e-002
1.984476e+003;7.468859e-002
1.986404e+003;7.466573e-002
1.988333e+003;7.470118e-002
1.990261e+003;7.496261e-002
1.992190e+003;7.502671e-002
1.994119e+003;7.496163e-002
1.996047e+003;7.497505e-002
1.997976e+003;7.494733e-002
1.999904e+003;7.492890e-002
2.001833e+003;7.503786e-002
2.003761e+003;7.514441e-002
2.005690e+003;7.536707e-002
2.007618e+003;7.544153e-002
2.009547e+003;7.549377e-002
2.011476e+003;7.561076e-002
2.013404e+003;7.545150e-002
2.015333e+003;7.542048e-002
2.017261e+003;7.568478e-002
2.019190e+003;7.572943e-002
2.021118e+003;7.573428e-002
2.023047e+003;7.586010e-002
2.024975e+003;7.597557e-002
2.026904e+003;7.591897e-002
2.028833e+003;7.597320e-002
2.030761e+003;7.611914e-002
2.032690e+003;7.624716e-002
2.034618e+003;7.622362e-002
2.036547e+003;7.609402e-002
2.038475e+003;7.606019e-002
2.040404e+003;7.611538e-002
2.042332e+003;7.609383e-002
2.044261e+003;7.603497e-002
2.046189e+003;7.616458e-002
2.048118e+003;7.619581e-002
2.050047e+003;7.597774e-002
2.051975e+003;7.596759e-002
2.053904e+003;7.593117e-002
2.055832e+003;7.594391e-002
2.057761e+003;7.609047e-002
2.059689e+003;7.599036e-002
2.061618e+003;7.608929e-002
2.063546e+003;7.635245e-002
2.065475e+003;7.624885e-002
2.067404e+003;7.611866e-002
2.069332e+003;7.610500e-002
2.071260e+003;7.605866e-002
2.073189e+003;7.602202e-002
2.075118e+003;7.618946e-002
2.077046e+003;7.636438e-002
2.078975e+003;7.639935e-002
2.080903e+003;7.643846e-002
2.082832e+003;7.643716e-002
2.084760e+003;7.650398e-002
2.086689e+003;7.645854e-002
2.088617e+003;7.613252e-002
2.090546e+003;7.605984e-002
2.092475e+003;7.636391e-002
2.094403e+003;7.653832e-002
2.096332e+003;7.661333e-002
2.098260e+003;7.640421e-002
2.100189e+003;7.614200e-002
2.102117e+003;7.615858e-002
2.104046e+003;7.648414e-002
2.105974e+003;7.660700e-002
2.107903e+003;7.654329e-002
2.109832e+003;7.652073e-002
2.111760e+003;7.637193e-002
2.113688e+003;7.634751e-002
2.115617e+003;7.652701e-002
2.117546e+003;7.678293e-002
2.119474e+003;7.695351e-002
2.121403e+003;7.691585e-002
2.123331e+003;7.682572e-002
2.125260e+003;7.659764e-002
2.127188e+003;7.644091e-002
2.129117e+003;7.663476e-002
2.131045e+003;7.682568e-002
2.132974e+003;7.675486e-002
2.134903e+003;7.668203e-002
2.136831e+003;7.678752e-002
2.138760e+003;7.686428e-002
2.140688e+003;7.701439e-002
2.142617e+003;7.688872e-002
2.144545e+003;7.654322e-002
2.146474e+003;7.647876e-002
2.148402e+003;7.663262e-002
2.150331e+003;7.674237e-002
2.152260e+003;7.672509e-002
2.154188e+003;7.662962e-002
2.156117e+003;7.658748e-002
2.158045e+003;7.658459e-002
2.159974e+003;7.660791e-002
2.161902e+003;7.666322e-002
2.163831e+003;7.661986e-002
2.165759e+003;7.668504e-002
2.167688e+003;7.669970e-002
2.169616e+003;7.656550e-002
2.171545e+003;7.651006e-002
2.173474e+003;7.647624e-002
2.175402e+003;7.640480e-002
2.177331e+003;7.645134e-002
2.179259e+003;7.640350e-002
2.181188e+003;7.620541e-002
2.183116e+003;7.624305e-002
2.185045e+003;7.637359e-002
2.186973e+003;7.630375e-002
2.188902e+003;7.616273e-002
2.190831e+003;7.617567e-002
2.192759e+003;7.618883e-002
2.194688e+003;7.629826e-002
2.196616e+003;7.622141e-002
2.198545e+003;7.611796e-002
2.200473e+003;7.621220e-002
2.202402e+003;7.624012e-002
2.204330e+003;7.607247e-002
2.206259e+003;7.590318e-002
2.208188e+003;7.600087e-002
2.210116e+003;7.606209e-002
2.212044e+003;7.595200e-002
2.213973e+003;7.602467e-002
2.215902e+003;7.605080e-002
2.217830e+003;7.588409e-002
2.219759e+003;7.567827e-002
2.221687e+003;7.561529e-002
2.223616e+003;7.550760e-002
2.225544e+003;7.529393e-002
2.227473e+003;7.532889e-002
2.229401e+003;7.542009e-002
2.231330e+003;7.543045e-002
2.233259e+003;7.539218e-002
2.235187e+003;7.543085e-002
2.237116e+003;7.519582e-002
2.239044e+003;7.501246e-002
2.240973e+003;7.511644e-002
2.242901e+003;7.518499e-002
2.244830e+003;7.519302e-002
2.246758e+003;7.516548e-002
2.248687e+003;7.514922e-002
2.250615e+003;7.510372e-002
2.252544e+003;7.506318e-002
2.254473e+003;7.507779e-002
2.256401e+003;7.478407e-002
2.258330e+003;7.431944e-002
2.260258e+003;7.418035e-002
2.262187e+003;7.433686e-002
2.264115e+003;7.451619e-002
2.266044e+003;7.464405e-002
2.267972e+003;7.460864e-002
2.269901e+003;7.454593e-002
2.271830e+003;7.462060e-002
2.273758e+003;7.445046e-002
2.275687e+003;7.420248e-002
2.277615e+003;7.415853e-002
2.279544e+003;7.401989e-002
2.281472e+003;7.409994e-002
2.283401e+003;7.443465e-002
2.285329e+003;7.443973e-002
2.287258e+003;7.411534e-002
2.289187e+003;7.389897e-002
2.291115e+003;7.399817e-002
2.293043e+003;7.399353e-002
2.294972e+003;7.388334e-002
2.296901e+003;7.390227e-002
2.298829e+003;7.390679e-002
2.300758e+003;7.394858e-002
2.302686e+003;7.399542e-002
2.304615e+003;7.394081e-002
2.306543e+003;7.414155e-002
2.308472e+003;7.438463e-002
2.310400e+003;7.437142e-002
2.312329e+003;7.413869e-002
2.314258e+003;7.405876e-002
2.316186e+003;7.410933e-002
2.318115e+003;7.395703e-002
2.320043e+003;7.379674e-002
2.321972e+003;7.376776e-002
2.323900e+003;7.371027e-002
2.325829e+003;7.365735e-002
2.327757e+003;7.360106e-002
2.329686e+003;7.366195e-002
2.331615e+003;7.376584e-002
2.333543e+003;7.394144e-002
2.335472e+003;7.415661e-002
2.337400e+003;7.422284e-002
2.339329e+003;7.418747e-002
2.341257e+003;7.418220e-002
2.343186e+003;7.422662e-002
2.345114e+003;7.447335e-002
2.347043e+003;7.479486e-002
2.348971e+003;7.459448e-002
2.350900e+003;7.421549e-002
2.352829e+003;7.426341e-002
2.354757e+003;7.443964e-002
2.356686e+003;7.429655e-002
2.358614e+003;7.424450e-002
2.360543e+003;7.435447e-002
2.362471e+003;7.453055e-002
2.364400e+003;7.465880e-002
2.366328e+003;7.457630e-002
2.368257e+003;7.451646e-002
2.370186e+003;7.463197e-002
2.372114e+003;7.491732e-002
2.374042e+003;7.502514e-002
2.375971e+003;7.511999e-002
2.377900e+003;7.504909e-002
2.379828e+003;7.492359e-002
2.381757e+003;7.495899e-002
2.383685e+003;7.503384e-002
2.385614e+003;7.475179e-002
2.387542e+003;7.458109e-002
2.389471e+003;7.504971e-002
2.391399e+003;7.536022e-002
2.393328e+003;7.521540e-002
2.395257e+003;7.525381e-002
2.397185e+003;7.546041e-002
2.399114e+003;7.557783e-002
2.401042e+003;7.570364e-002
2.402971e+003;7.574371e-002
2.404899e+003;7.562535e-002
2.406828e+003;7.533889e-002
2.408756e+003;7.543322e-002
2.410685e+003;7.590622e-002
2.412614e+003;7.592138e-002
2.414542e+003;7.577997e-002
2.416471e+003;7.591361e-002
2.418399e+003;7.615396e-002
2.420328e+003;7.636585e-002
2.422256e+003;7.650010e-002
2.424185e+003;7.655068e-002
2.426113e+003;7.638264e-002
2.428042e+003;7.643605e-002
2.429970e+003;7.651737e-002
2.431899e+003;7.637608e-002
2.433828e+003;7.639784e-002
2.435756e+003;7.652741e-002
2.437685e+003;7.648228e-002
2.439613e+003;7.668211e-002
2.441542e+003;7.698041e-002
2.443470e+003;7.693511e-002
2.445399e+003;7.675233e-002
2.447327e+003;7.691376e-002
2.449256e+003;7.724558e-002
2.451185e+003;7.735346e-002
2.453113e+003;7.737829e-002
2.455042e+003;7.739975e-002
2.456970e+003;7.737073e-002
2.458899e+003;7.737646e-002
2.460827e+003;7.741963e-002
2.462756e+003;7.750490e-002
2.464684e+003;7.751408e-002
2.466613e+003;7.760706e-002
2.468542e+003;7.768051e-002
2.470470e+003;7.766050e-002
2.472398e+003;7.759624e-002
2.474327e+003;7.754026e-002
2.476256e+003;7.771205e-002
2.478184e+003;7.811481e-002
2.480113e+003;7.838317e-002
2.482041e+003;7.830531e-002
2.483970e+003;7.815769e-002
2.485898e+003;7.811667e-002
2.487827e+003;7.800523e-002
2.489755e+003;7.805904e-002
2.491684e+003;7.831210e-002
2.493613e+003;7.855231e-002
2.495541e+003;7.863475e-002
2.497470e+003;7.882560e-002
2.499398e+003;7.888789e-002
2.501327e+003;7.854278e-002
2.503255e+003;7.827095e-002
2.505184e+003;7.831567e-002
2.507112e+003;7.846970e-002
2.509041e+003;7.837619e-002
2.510969e+003;7.838377e-002
2.512898e+003;7.867243e-002
2.514827e+003;7.871775e-002
2.516755e+003;7.865595e-002
2.518684e+003;7.882882e-002
2.520612e+003;7.904098e-002
2.522541e+003;7.922883e-002
2.524469e+003;7.916704e-002
2.526398e+003;7.911949e-002
2.528326e+003;7.925694e-002
2.530255e+003;7.939098e-002
2.532184e+003;7.922426e-002
2.534112e+003;7.913496e-002
2.536041e+003;7.933732e-002
2.537969e+003;7.930284e-002
2.539898e+003;7.940431e-002
2.541826e+003;7.948129e-002
2.543755e+003;7.916950e-002
2.545683e+003;7.912609e-002
2.547612e+003;7.931851e-002
2.549541e+003;7.941783e-002
2.551469e+003;7.936584e-002
2.553397e+003;7.947107e-002
2.555326e+003;7.956494e-002
2.557255e+003;7.951913e-002
2.559183e+003;7.969752e-002
2.561112e+003;7.992209e-002
2.563040e+003;7.990624e-002
2.564969e+003;7.981306e-002
2.566897e+003;7.977041e-002
2.568826e+003;7.990783e-002
2.570754e+003;8.000980e-002
2.572683e+003;7.977029e-002
2.574612e+003;7.981357e-002
2.576540e+003;8.003148e-002
2.578469e+003;8.017074e-002
2.580397e+003;8.025443e-002
2.582326e+003;8.023179e-002
2.584254e+003;8.024036e-002
2.586183e+003;8.036777e-002
2.588111e+003;8.048990e-002
2.590040e+003;8.053633e-002
2.591969e+003;8.026212e-002
2.593897e+003;8.018416e-002
2.595826e+003;8.046944e-002
2.597754e+003;8.077036e-002
2.599683e+003;8.098774e-002
2.601611e+003;8.062584e-002
2.603540e+003;8.062796e-002
2.605468e+003;8.087964e-002
2.607397e+003;8.086826e-002
2.609325e+003;8.097477e-002
2.611254e+003;8.120799e-002
2.613183e+003;8.110746e-002
2.615111e+003;8.103610e-002
2.617040e+003;8.121482e-002
2.618968e+003;8.127882e-002
2.620897e+003;8.126013e-002
2.622825e+003;8.136613e-002
2.624754e+003;8.144271e-002
2.626682e+003;8.145677e-002
2.628611e+003;8.153808e-002
2.630540e+003;8.168370e-002
2.632468e+003;8.178901e-002
2.634396e+003;8.180561e-002
2.636325e+003;8.179773e-002
2.638254e+003;8.201875e-002
2.640182e+003;8.202067e-002
2.642111e+003;8.177257e-002
2.644039e+003;8.178501e-002
2.645968e+003;8.201715e-002
2.647896e+003;8.212774e-002
2.649825e+003;8.215937e-002
2.651753e+003;8.237877e-002
2.653682e+003;8.245268e-002
2.655611e+003;8.231849e-002
2.657539e+003;8.241490e-002
2.659468e+003;8.274723e-002
2.661396e+003;8.308547e-002
2.663325e+003;8.326232e-002
2.665253e+003;8.330823e-002
2.667182e+003;8.343731e-002
2.669110e+003;8.353123e-002
2.671039e+003;8.344409e-002
2.672968e+003;8.318293e-002
2.674896e+003;8.325995e-002
2.676825e+003;8.367656e-002
2.678753e+003;8.393624e-002
2.680682e+003;8.397882e-002
2.682610e+003;8.387925e-002
2.684539e+003;8.368780e-002
2.686467e+003;8.369098e-002
2.688396e+003;8.408111e-002
2.690324e+003;8.454648e-002
2.692253e+003;8.478953e-002
2.694182e+003;8.455276e-002
2.696110e+003;8.415590e-002
2.698039e+003;8.418478e-002
2.699967e+003;8.446542e-002
2.701896e+003;8.474394e-002
2.703824e+003;8.489697e-002
2.705753e+003;8.479082e-002
2.707681e+003;8.483727e-002
2.709610e+003;8.518117e-002
2.711539e+003;8.528700e-002
2.713467e+003;8.524910e-002
2.715396e+003;8.538472e-002
2.717324e+003;8.536117e-002
2.719253e+003;8.532184e-002
2.721181e+003;8.556032e-002
2.723110e+003;8.566081e-002
2.725038e+003;8.555544e-002
2.726967e+003;8.561504e-002
2.728896e+003;8.574302e-002
2.730824e+003;8.585243e-002
2.732752e+003;8.608377e-002
2.734681e+003;8.626693e-002
2.736610e+003;8.614683e-002
2.738538e+003;8.616202e-002
2.740467e+003;8.640088e-002
2.742395e+003;8.659498e-002
2.744324e+003;8.650371e-002
2.746252e+003;8.610845e-002
2.748181e+003;8.602911e-002
2.750109e+003;8.605941e-002
2.752038e+003;8.623565e-002
2.753967e+003;8.651438e-002
2.755895e+003;8.668741e-002
2.757824e+003;8.666475e-002
2.759752e+003;8.674000e-002
2.761681e+003;8.695278e-002
2.763609e+003;8.693579e-002
2.765538e+003;8.704922e-002
2.767466e+003;8.734820e-002
2.769395e+003;8.734541e-002
2.771323e+003;8.738852e-002
2.773252e+003;8.769377e-002
2.775181e+003;8.762837e-002
2.777109e+003;8.750214e-002
2.779038e+003;8.770991e-002
2.780966e+003;8.809566e-002
2.782895e+003;8.853953e-002
2.784823e+003;8.869720e-002
2.786752e+003;8.855310e-002
2.788680e+003;8.865208e-002
2.790609e+003;8.920018e-002
2.792538e+003;8.914591e-002
2.794466e+003;8.895400e-002
2.796395e+003;8.953139e-002
2.798323e+003;9.012248e-002
2.800252e+003;9.032008e-002
2.802180e+003;9.044477e-002
2.804109e+003;9.078345e-002
2.806037e+003;9.080935e-002
2.807966e+003;9.068575e-002
2.809895e+003;9.101895e-002
2.811823e+003;9.156268e-002
2.813751e+003;9.176826e-002
2.815680e+003;9.161620e-002
2.817609e+003;9.174576e-002
2.819537e+003;9.229400e-002
2.821466e+003;9.275564e-002
2.823394e+003;9.285505e-002
2.825323e+003;9.302184e-002
2.827251e+003;9.332430e-002
2.829180e+003;9.370226e-002
2.831108e+003;9.413288e-002
2.833037e+003;9.476270e-002
2.834966e+003;9.520741e-002
2.836894e+003;9.550583e-002
2.838823e+003;9.570655e-002
2.840751e+003;9.612383e-002
2.842680e+003;9.693868e-002
2.844608e+003;9.765182e-002
2.846537e+003;9.841616e-002
2.848465e+003;9.898780e-002
2.850394e+003;9.907994e-002
2.852323e+003;9.939500e-002
2.854251e+003;1.000465e-001
2.856180e+003;1.004175e-001
2.858108e+003;1.010611e-001
2.860037e+003;1.022341e-001
2.861965e+003;1.032029e-001
2.863894e+003;1.037603e-001
2.865822e+003;1.046101e-001
2.867751e+003;1.055875e-001
2.869679e+003;1.063862e-001
2.871608e+003;1.070109e-001
2.873536e+003;1.074440e-001
2.875465e+003;1.079689e-001
2.877394e+003;1.086835e-001
2.879322e+003;1.091844e-001
2.881251e+003;1.096144e-001
2.883179e+003;1.098000e-001
2.885108e+003;1.097272e-001
2.887036e+003;1.099827e-001
2.888965e+003;1.105087e-001
2.890893e+003;1.107320e-001
2.892822e+003;1.106985e-001
2.894750e+003;1.106577e-001
2.896679e+003;1.103935e-001
2.898608e+003;1.096418e-001
2.900536e+003;1.089260e-001
2.902465e+003;1.085219e-001
2.904393e+003;1.082217e-001
2.906322e+003;1.078914e-001
2.908250e+003;1.071308e-001
2.910179e+003;1.064402e-001
2.912107e+003;1.062022e-001
2.914036e+003;1.058561e-001
2.915965e+003;1.054795e-001
2.917893e+003;1.049601e-001
2.919822e+003;1.040760e-001
2.921750e+003;1.028061e-001
2.923679e+003;1.013552e-001
2.925607e+003;1.004242e-001
2.927536e+003;9.955173e-002
2.929464e+003;9.884138e-002
2.931393e+003;9.834177e-002
2.933322e+003;9.773065e-002
2.935250e+003;9.720749e-002
2.937178e+003;9.679510e-002
2.939107e+003;9.619483e-002
2.941036e+003;9.558047e-002
2.942964e+003;9.480597e-002
2.944893e+003;9.409641e-002
2.946821e+003;9.347463e-002
2.948750e+003;9.251609e-002
2.950678e+003;9.148655e-002
2.952607e+003;9.070335e-002
2.954535e+003;9.039808e-002
2.956464e+003;9.023777e-002
2.958393e+003;9.008427e-002
2.960321e+003;8.962013e-002
2.962250e+003;8.885276e-002
2.964178e+003;8.835484e-002
2.966107e+003;8.795535e-002
2.968035e+003;8.752756e-002
2.969964e+003;8.741128e-002
2.971892e+003;8.749656e-002
2.973821e+003;8.736080e-002
2.975750e+003;8.690227e-002
2.977678e+003;8.680008e-002
2.979607e+003;8.690260e-002
2.981535e+003;8.671823e-002
2.983464e+003;8.644269e-002
2.985392e+003;8.615859e-002
2.987321e+003;8.593638e-002
2.989249e+003;8.565617e-002
2.991178e+003;8.553071e-002
2.993106e+003;8.574044e-002
2.995035e+003;8.586842e-002
2.996964e+003;8.573192e-002
2.998892e+003;8.570250e-002
3.000821e+003;8.588570e-002
3.002749e+003;8.623480e-002
3.004678e+003;8.624175e-002
3.006606e+003;8.608966e-002
3.008535e+003;8.594058e-002
3.010463e+003;8.598016e-002
3.012392e+003;8.638601e-002
3.014321e+003;8.669364e-002
3.016249e+003;8.679038e-002
3.018177e+003;8.678742e-002
3.020106e+003;8.691539e-002
3.022035e+003;8.734824e-002
3.023963e+003;8.779641e-002
3.025892e+003;8.784606e-002
3.027820e+003;8.779382e-002
3.029749e+003;8.816958e-002
3.031677e+003;8.878442e-002
3.033606e+003;8.868874e-002
3.035534e+003;8.871114e-002
3.037463e+003;8.934994e-002
3.039392e+003;8.991877e-002
3.041320e+003;8.969157e-002
3.043249e+003;8.956711e-002
3.045177e+003;9.002324e-002
3.047106e+003;9.046006e-002
3.049034e+003;9.073519e-002
3.050963e+003;9.092984e-002
3.052891e+003;9.135539e-002
3.054820e+003;9.169451e-002
3.056749e+003;9.162315e-002
3.058677e+003;9.191588e-002
3.060606e+003;9.256972e-002
3.062534e+003;9.282083e-002
3.064463e+003;9.299298e-002
3.066391e+003;9.321025e-002
3.068320e+003;9.339964e-002
3.070248e+003;9.399833e-002
3.072177e+003;9.424359e-002
3.074105e+003;9.417769e-002
3.076034e+003;9.486797e-002
3.077963e+003;9.546463e-002
3.079891e+003;9.565993e-002
3.081820e+003;9.591646e-002
3.083748e+003;9.625565e-002
3.085677e+003;9.666245e-002
3.087605e+003;9.703872e-002
3.089534e+003;9.742472e-002
3.091462e+003;9.768306e-002
3.093391e+003;9.789139e-002
3.095320e+003;9.807342e-002
3.097248e+003;9.842086e-002
3.099177e+003;9.884537e-002
3.101105e+003;9.914897e-002
3.103034e+003;9.970569e-002
3.104962e+003;1.002617e-001
3.106891e+003;1.005329e-001
3.108819e+003;1.009226e-001
3.110748e+003;1.015170e-001
3.112677e+003;1.019157e-001
3.114605e+003;1.022532e-001
3.116533e+003;1.028998e-001
3.118462e+003;1.034455e-001
3.120391e+003;1.036124e-001
3.122319e+003;1.035117e-001
3.124248e+003;1.037552e-001
3.126176e+003;1.044666e-001
3.128105e+003;1.052808e-001
3.130033e+003;1.055013e-001
3.131962e+003;1.054505e-001
3.133890e+003;1.058341e-001
3.135819e+003;1.062943e-001
3.137748e+003;1.068590e-001
3.139676e+003;1.076896e-001
3.141605e+003;1.080207e-001
3.143533e+003;1.081818e-001
3.145462e+003;1.084286e-001
3.147390e+003;1.083328e-001
3.149319e+003;1.085507e-001
3.151247e+003;1.093867e-001
3.153176e+003;1.098551e-001
3.155104e+003;1.099744e-001
3.157033e+003;1.101771e-001
3.158962e+003;1.106921e-001
3.160890e+003;1.110840e-001
3.162819e+003;1.111163e-001
3.164747e+003;1.112501e-001
3.166676e+003;1.115969e-001
3.168604e+003;1.122772e-001
3.170533e+003;1.126209e-001
3.172461e+003;1.128898e-001
3.174390e+003;1.132554e-001
3.176319e+003;1.133416e-001
3.178247e+003;1.138990e-001
3.180176e+003;1.146123e-001
3.182104e+003;1.146621e-001
3.184033e+003;1.144498e-001
3.185961e+003;1.148627e-001
3.187890e+003;1.153758e-001
3.189818e+003;1.156419e-001
3.191747e+003;1.161226e-001
3.193676e+003;1.165417e-001
3.195604e+003;1.167257e-001
3.197532e+003;1.167407e-001
3.199461e+003;1.168365e-001
3.201390e+003;1.172067e-001
3.203318e+003;1.175441e-001
3.205247e+003;1.177613e-001
3.207175e+003;1.180001e-001
3.209104e+003;1.181455e-001
3.211032e+003;1.186302e-001
3.212961e+003;1.190668e-001
3.214889e+003;1.193290e-001
3.216818e+003;1.194400e-001
3.218747e+003;1.198706e-001
3.220675e+003;1.204417e-001
3.222604e+003;1.207814e-001
3.224532e+003;1.208950e-001
3.226461e+003;1.211232e-001
3.228389e+003;1.216414e-001
3.230318e+003;1.220078e-001
3.232246e+003;1.220050e-001
3.234175e+003;1.220205e-001
3.236104e+003;1.226522e-001
3.238032e+003;1.229823e-001
3.239961e+003;1.228493e-001
3.241889e+003;1.231391e-001
3.243818e+003;1.237237e-001
3.245746e+003;1.243193e-001
3.247675e+003;1.251024e-001
3.249603e+003;1.254478e-001
3.251532e+003;1.255748e-001
3.253460e+003;1.256662e-001
3.255389e+003;1.257422e-001
3.257318e+003;1.256218e-001
3.259246e+003;1.258759e-001
3.261175e+003;1.264831e-001
3.263103e+003;1.267795e-001
3.265032e+003;1.267763e-001
3.266960e+003;1.269137e-001
3.268889e+003;1.270261e-001
3.270817e+003;1.272883e-001
3.272746e+003;1.277149e-001
3.274675e+003;1.276706e-001
3.276603e+003;1.276824e-001
3.278531e+003;1.281954e-001
3.280460e+003;1.285348e-001
3.282389e+003;1.281712e-001
3.284317e+003;1.280341e-001
3.286246e+003;1.283079e-001
3.288174e+003;1.285275e-001
3.290103e+003;1.289929e-001
3.292031e+003;1.290442e-001
3.293960e+003;1.289037e-001
3.295888e+003;1.293844e-001
3.297817e+003;1.296344e-001
3.299746e+003;1.293541e-001
3.301674e+003;1.292394e-001
3.303603e+003;1.297121e-001
3.305531e+003;1.301577e-001
3.307460e+003;1.298583e-001
3.309388e+003;1.298525e-001
3.311317e+003;1.302532e-001
3.313245e+003;1.304934e-001
3.315174e+003;1.309427e-001
3.317103e+003;1.311633e-001
3.319031e+003;1.308912e-001
3.320960e+003;1.307646e-001
3.322888e+003;1.307886e-001
3.324817e+003;1.306925e-001
3.326745e+003;1.306641e-001
3.328674e+003;1.307066e-001
3.330602e+003;1.309463e-001
3.332531e+003;1.311717e-001
3.334459e+003;1.311090e-001
3.336388e+003;1.308313e-001
3.338317e+003;1.310563e-001
3.340245e+003;1.316793e-001
3.342174e+003;1.317358e-001
3.344102e+003;1.311856e-001
3.346031e+003;1.306614e-001
3.347959e+003;1.304318e-001
3.349888e+003;1.304318e-001
3.351816e+003;1.306675e-001
3.353745e+003;1.308375e-001
3.355674e+003;1.305789e-001
3.357602e+003;1.302888e-001
3.359531e+003;1.298806e-001
3.361459e+003;1.294261e-001
3.363388e+003;1.293782e-001
3.365316e+003;1.296219e-001
3.367245e+003;1.298222e-001
3.369173e+003;1.297314e-001
3.371102e+003;1.295481e-001
3.373031e+003;1.296114e-001
3.374959e+003;1.291189e-001
3.376887e+003;1.284136e-001
3.378816e+003;1.284906e-001
3.380745e+003;1.281137e-001
3.382673e+003;1.277879e-001
3.384602e+003;1.280444e-001
3.386530e+003;1.275078e-001
3.388459e+003;1.269094e-001
3.390387e+003;1.269692e-001
3.392316e+003;1.270567e-001
3.394244e+003;1.269649e-001
3.396173e+003;1.265237e-001
3.398102e+003;1.261514e-001
3.400030e+003;1.255373e-001
3.401959e+003;1.251062e-001
3.403887e+003;1.251754e-001
3.405816e+003;1.251977e-001
3.407744e+003;1.249911e-001
3.409673e+003;1.248694e-001
3.411601e+003;1.245083e-001
3.413530e+003;1.240494e-001
3.415458e+003;1.237832e-001
3.417387e+003;1.233620e-001
3.419316e+003;1.228686e-001
3.421244e+003;1.230942e-001
3.423173e+003;1.228548e-001
3.425101e+003;1.221308e-001
3.427030e+003;1.218909e-001
3.428958e+003;1.218880e-001
3.430887e+003;1.217794e-001
3.432815e+003;1.216066e-001
3.434744e+003;1.212977e-001
3.436673e+003;1.208454e-001
3.438601e+003;1.208346e-001
3.440530e+003;1.206524e-001
3.442458e+003;1.201318e-001
3.444387e+003;1.196241e-001
3.446315e+003;1.191138e-001
3.448244e+003;1.183611e-001
3.450172e+003;1.173375e-001
3.452101e+003;1.163124e-001
3.454030e+003;1.157814e-001
3.455958e+003;1.148727e-001
3.457886e+003;1.133779e-001
3.459815e+003;1.124890e-001
3.461744e+003;1.122579e-001
3.463672e+003;1.117703e-001
3.465601e+003;1.109658e-001
3.467529e+003;1.099366e-001
3.469458e+003;1.093016e-001
3.471386e+003;1.089289e-001
3.473315e+003;1.083067e-001
3.475243e+003;1.075584e-001
3.477172e+003;1.071961e-001
3.479101e+003;1.064457e-001
3.481029e+003;1.055994e-001
3.482958e+003;1.052532e-001
3.484886e+003;1.049455e-001
3.486815e+003;1.040814e-001
3.488743e+003;1.028768e-001
3.490672e+003;1.019515e-001
3.492600e+003;1.010898e-001
3.494529e+003;1.001722e-001
3.496458e+003;9.907495e-002
3.498386e+003;9.778364e-002
3.500315e+003;9.706581e-002
3.502243e+003;9.646657e-002
3.504172e+003;9.541667e-002
3.506100e+003;9.438123e-002
3.508029e+003;9.354305e-002
3.509957e+003;9.235343e-002
3.511886e+003;9.159103e-002
3.513814e+003;9.104065e-002
3.515743e+003;9.021802e-002
3.517672e+003;8.952032e-002
3.519600e+003;8.851459e-002
3.521529e+003;8.729594e-002
3.523457e+003;8.658976e-002
3.525386e+003;8.601191e-002
3.527314e+003;8.560532e-002
3.529243e+003;8.490716e-002
3.531171e+003;8.443451e-002
3.533100e+003;8.416539e-002
3.535029e+003;8.346694e-002
3.536957e+003;8.257180e-002
3.538885e+003;8.182189e-002
3.540814e+003;8.128222e-002
3.542743e+003;8.051108e-002
3.544671e+003;8.011167e-002
3.546600e+003;7.982970e-002
3.548528e+003;7.914119e-002
3.550457e+003;7.810251e-002
3.552385e+003;7.732487e-002
3.554314e+003;7.683758e-002
3.556242e+003;7.636462e-002
3.558171e+003;7.608894e-002
3.560100e+003;7.567409e-002
3.562028e+003;7.482666e-002
3.563957e+003;7.425645e-002
3.565885e+003;7.379344e-002
3.567814e+003;7.369693e-002
3.569742e+003;7.369182e-002
3.571671e+003;7.297291e-002
3.573599e+003;7.215302e-002
3.575528e+003;7.179489e-002
3.577457e+003;7.156303e-002
3.579385e+003;7.117283e-002
3.581314e+003;7.067912e-002
3.583242e+003;7.032166e-002
3.585171e+003;6.966357e-002
3.587099e+003;6.880980e-002
3.589028e+003;6.858158e-002
3.590956e+003;6.835453e-002
3.592885e+003;6.788514e-002
3.594813e+003;6.775987e-002
3.596742e+003;6.774511e-002
3.598671e+003;6.719406e-002
3.600599e+003;6.655676e-002
3.602528e+003;6.615694e-002
3.604456e+003;6.568980e-002
3.606385e+003;6.541433e-002
3.608313e+003;6.521307e-002
3.610242e+003;6.489481e-002
3.612170e+003;6.475983e-002
3.614099e+003;6.436139e-002
3.616028e+003;6.392746e-002
3.617956e+003;6.403150e-002
3.619885e+003;6.398892e-002
3.621813e+003;6.369020e-002
3.623742e+003;6.335623e-002
3.625670e+003;6.324299e-002
3.627599e+003;6.302872e-002
3.629527e+003;6.239661e-002
3.631456e+003;6.212945e-002
3.633385e+003;6.191496e-002
3.635313e+003;6.191393e-002
3.637241e+003;6.185597e-002
3.639170e+003;6.167002e-002
3.641099e+003;6.159174e-002
3.643027e+003;6.145972e-002
3.644956e+003;6.099901e-002
3.646884e+003;6.046269e-002
3.648813e+003;6.033121e-002
3.650741e+003;6.057807e-002
3.652670e+003;6.070776e-002
3.654598e+003;6.074746e-002
3.656527e+003;6.041826e-002
3.658456e+003;5.996706e-002
3.660384e+003;5.967600e-002
3.662313e+003;5.931303e-002
3.664241e+003;5.893378e-002
3.666170e+003;5.904962e-002
3.668098e+003;5.917536e-002
3.670027e+003;5.868043e-002
3.671955e+003;5.824270e-002
3.673884e+003;5.827745e-002
3.675813e+003;5.836199e-002
3.677741e+003;5.845084e-002
3.679669e+003;5.820110e-002
3.681598e+003;5.805459e-002
3.683527e+003;5.805830e-002
3.685455e+003;5.766115e-002
3.687384e+003;5.693378e-002
3.689312e+003;5.670402e-002
3.691241e+003;5.700847e-002
3.693169e+003;5.687312e-002
3.695098e+003;5.669888e-002
3.697026e+003;5.684188e-002
3.698955e+003;5.690303e-002
3.700884e+003;5.676458e-002
3.702812e+003;5.680839e-002
3.704741e+003;5.658118e-002
3.706669e+003;5.639072e-002
3.708598e+003;5.638827e-002
3.710526e+003;5.595507e-002
3.712455e+003;5.579469e-002
3.714383e+003;5.604293e-002
3.716312e+003;5.594979e-002
3.718240e+003;5.574714e-002
3.720169e+003;5.576462e-002
3.722098e+003;5.586277e-002
3.724026e+003;5.603257e-002
3.725955e+003;5.616136e-002
3.727883e+003;5.617769e-002
3.729812e+003;5.557750e-002
3.731740e+003;5.493422e-002
3.733669e+003;5.491117e-002
3.735597e+003;5.490132e-002
3.737526e+003;5.527284e-002
3.739455e+003;5.573012e-002
3.741383e+003;5.549572e-002
3.743312e+003;5.492708e-002
3.745240e+003;5.469627e-002
3.747169e+003;5.530423e-002
3.749097e+003;5.526084e-002
3.751026e+003;5.473193e-002
3.752954e+003;5.480166e-002
3.754883e+003;5.536731e-002
3.756812e+003;5.545389e-002
3.758740e+003;5.543657e-002
3.760668e+003;5.550069e-002
3.762597e+003;5.512204e-002
3.764526e+003;5.481279e-002
3.766454e+003;5.497107e-002
3.768383e+003;5.485470e-002
3.770311e+003;5.497183e-002
3.772240e+003;5.545525e-002
3.774168e+003;5.536614e-002
3.776097e+003;5.544881e-002
3.778025e+003;5.535466e-002
3.779954e+003;5.503102e-002
3.781883e+003;5.518284e-002
3.783811e+003;5.534868e-002
3.785740e+003;5.529414e-002
3.787668e+003;5.543526e-002
3.789597e+003;5.562111e-002
3.791525e+003;5.575818e-002
3.793454e+003;5.557181e-002
3.795382e+003;5.493994e-002
3.797311e+003;5.486741e-002
3.799240e+003;5.494321e-002
3.801168e+003;5.443429e-002
3.803097e+003;5.486692e-002
3.805025e+003;5.561384e-002
3.806954e+003;5.547670e-002
3.808882e+003;5.550099e-002
3.810811e+003;5.549933e-002
3.812739e+003;5.533566e-002
3.814668e+003;5.496005e-002
3.816596e+003;5.445506e-002
3.818525e+003;5.439159e-002
3.820454e+003;5.444162e-002
3.822382e+003;5.458635e-002
3.824311e+003;5.491869e-002
3.826239e+003;5.501582e-002
3.828168e+003;5.524127e-002
3.830096e+003;5.545287e-002
3.832025e+003;5.563990e-002
3.833953e+003;5.589424e-002
3.835882e+003;5.553935e-002
3.837811e+003;5.479158e-002
3.839739e+003;5.498995e-002
3.841667e+003;5.528831e-002
3.843596e+003;5.556526e-002
3.845525e+003;5.582882e-002
3.847453e+003;5.567904e-002
3.849382e+003;5.563919e-002
3.851310e+003;5.544090e-002
3.853239e+003;5.530754e-002
3.855167e+003;5.566683e-002
3.857096e+003;5.589880e-002
3.859024e+003;5.612486e-002
3.860953e+003;5.618059e-002
3.862882e+003;5.609805e-002
3.864810e+003;5.631056e-002
3.866739e+003;5.656461e-002
3.868667e+003;5.637706e-002
3.870596e+003;5.616996e-002
3.872524e+003;5.624900e-002
3.874453e+003;5.622456e-002
3.876381e+003;5.663629e-002
3.878310e+003;5.669159e-002
3.880239e+003;5.646290e-002
3.882167e+003;5.685159e-002
3.884096e+003;5.691266e-002
3.886024e+003;5.640698e-002
3.887953e+003;5.673947e-002
3.889881e+003;5.682451e-002
3.891810e+003;5.678694e-002
3.893738e+003;5.741058e-002
3.895667e+003;5.758866e-002
3.897595e+003;5.738237e-002
3.899524e+003;5.703023e-002
3.901453e+003;5.677251e-002
3.903381e+003;5.691848e-002
3.905310e+003;5.718196e-002
3.907238e+003;5.732633e-002
3.909167e+003;5.750645e-002
3.911095e+003;5.758502e-002
3.913024e+003;5.726259e-002
3.914952e+003;5.717727e-002
3.916881e+003;5.739874e-002
3.918810e+003;5.745320e-002
3.920738e+003;5.731472e-002
3.922667e+003;5.762119e-002
3.924595e+003;5.787950e-002
3.926524e+003;5.745331e-002
3.928452e+003;5.749254e-002
3.930381e+003;5.778240e-002
3.932309e+003;5.756974e-002
3.934238e+003;5.788169e-002
3.936167e+003;5.819046e-002
3.938095e+003;5.773384e-002
3.940023e+003;5.761949e-002
3.941952e+003;5.778376e-002
3.943881e+003;5.785231e-002
3.945809e+003;5.787260e-002
3.947738e+003;5.747177e-002
3.949666e+003;5.759081e-002
3.951595e+003;5.773040e-002
3.953523e+003;5.788748e-002
3.955452e+003;5.822145e-002
3.957380e+003;5.824323e-002
3.959309e+003;5.830318e-002
3.961238e+003;5.883232e-002
3.963166e+003;5.909890e-002
3.965095e+003;5.878437e-002
3.967023e+003;5.820929e-002
3.968952e+003;5.806655e-002
3.970880e+003;5.831470e-002
3.972809e+003;5.792405e-002
3.974737e+003;5.778373e-002
3.976666e+003;5.823702e-002
3.978594e+003;5.818155e-002
3.980523e+003;5.812818e-002
3.982452e+003;5.849402e-002
3.984380e+003;5.851434e-002
3.986309e+003;5.830719e-002
3.988237e+003;5.858884e-002
3.990166e+003;5.872773e-002
3.992094e+003;5.858524e-002
3.994023e+003;5.846077e-002
3.995951e+003;5.811757e-002
3.997880e+003;5.807511e-002
3.999809e+003;5.861729e-002
4.001737e+003;0.000000e+000
