3.992094e+002;0.000000e+000
4.011380e+002;0.000000e+000
4.030665e+002;0.000000e+000
4.049951e+002;0.000000e+000
4.069236e+002;0.000000e+000
4.088522e+002;0.000000e+000
4.107807e+002;0.000000e+000
4.127093e+002;0.000000e+000
4.146378e+002;0.000000e+000
4.165664e+002;0.000000e+000
4.184949e+002;0.000000e+000
4.204235e+002;0.000000e+000
4.223520e+002;0.000000e+000
4.242806e+002;0.000000e+000
4.262091e+002;0.000000e+000
4.281377e+002;0.000000e+000
4.300662e+002;0.000000e+000
4.319948e+002;0.000000e+000
4.339233e+002;0.000000e+000
4.358519e+002;0.000000e+000
4.377804e+002;0.000000e+000
4.397090e+002;0.000000e+000
4.416375e+002;0.000000e+000
4.435660e+002;0.000000e+000
4.454946e+002;0.000000e+000
4.474232e+002;0.000000e+000
4.493517e+002;0.000000e+000
4.512802e+002;0.000000e+000
4.532088e+002;0.000000e+000
4.551373e+002;0.000000e+000
4.570659e+002;0.000000e+000
4.589944e+002;0.000000e+000
4.609230e+002;0.000000e+000
4.628515e+002;0.000000e+000
4.647801e+002;0.000000e+000
4.667086e+002;0.000000e+000
4.686372e+002;0.000000e+000
4.705657e+002;0.000000e+000
4.724943e+002;0.000000e+000
4.744228e+002;0.000000e+000
4.763513e+002;0.000000e+000
4.782799e+002;0.000000e+000
4.802085e+002;0.000000e+000
4.821370e+002;0.000000e+000
4.840656e+002;0.000000e+000
4.859941e+002;0.000000e+000
4.879226e+002;0.000000e+000
4.898512e+002;0.000000e+000
4.917798e+002;0.000000e+000
4.937083e+002;0.000000e+000
4.956368e+002;0.000000e+000
4.975654e+002;0.000000e+000
4.994939e+002;0.000000e+000
5.014225e+002;0.000000e+000
5.033510e+002;0.000000e+000
5.052796e+002;0.000000e+000
5.072081e+002;0.000000e+000
5.091367e+002;0.000000e+000
5.110652e+002;0.000000e+000
5.129938e+002;0.000000e+000
5.149223e+002;0.000000e+000
5.168509e+002;0.000000e+000
5.187794e+002;0.000000e+000
5.207079e+002;0.000000e+000
5.226365e+002;0.000000e+000
5.245651e+002;0.000000e+000
5.264936e+002;0.000000e+000
5.284222e+002;0.000000e+000
5.303507e+002;0.000000e+000
5.322792e+002;0.000000e+000
5.342078e+002;0.000000e+000
5.361364e+002;0.000000e+000
5.380649e+002;0.000000e+000
5.399935e+002;0.000000e+000
5.419220e+002;0.000000e+000
5.438505e+002;0.000000e+000
5.457791e+002;0.000000e+000
5.477076e+002;0.000000e+000
5.496362e+002;0.000000e+000
5.515648e+002;0.000000e+000
5.534933e+002;0.000000e+000
5.554218e+002;0.000000e+000
5.573504e+002;0.000000e+000
5.592789e+002;0.000000e+000
5.612075e+002;0.000000e+000
5.631360e+002;0.000000e+000
5.650646e+002;0.000000e+000
5.669931e+002;0.000000e+000
5.689217e+002;0.000000e+000
5.708502e+002;0.000000e+000
5.727787e+002;0.000000e+000
5.747073e+002;0.000000e+000
5.766359e+002;0.000000e+000
5.785644e+002;0.000000e+000
5.804930e+002;0.000000e+000
5.824215e+002;0.000000e+000
5.843500e+002;0.000000e+000
5.862786e+002;0.000000e+000
5.882072e+002;0.000000e+000
5.901357e+002;0.000000e+000
5.920643e+002;0.000000e+000
5.939928e+002;0.000000e+000
5.959213e+002;0.000000e+000
5.978499e+002;0.000000e+000
5.997784e+002;2.937708e-001
6.017070e+002;3.002152e-001
6.036355e+002;3.006427e-001
6.055641e+002;2.935671e-001
6.074926e+002;2.926323e-001
6.094211e+002;2.974359e-001
6.113497e+002;2.963369e-001
6.132783e+002;2.918704e-001
6.152068e+002;2.922259e-001
6.171354e+002;2.869999e-001
6.190639e+002;2.793734e-001
6.209924e+002;2.771166e-001
6.229210e+002;2.758809e-001
6.248495e+002;2.765594e-001
6.267781e+002;2.759935e-001
6.287067e+002;2.733004e-001
6.306352e+002;2.724406e-001
6.325637e+002;2.702671e-001
6.344923e+002;2.661958e-001
6.364208e+002;2.618088e-001
6.383494e+002;2.602049e-001
6.402780e+002;2.600026e-001
6.422065e+002;2.566611e-001
6.441350e+002;2.535671e-001
6.460636e+002;2.536963e-001
6.479921e+002;2.577015e-001
6.499207e+002;2.618515e-001
6.518492e+002;2.618494e-001
6.537778e+002;2.583601e-001
6.557063e+002;2.557808e-001
6.576349e+002;2.564562e-001
6.595634e+002;2.611941e-001
6.614919e+002;2.657958e-001
6.634205e+002;2.693023e-001
6.653491e+002;2.685035e-001
6.672776e+002;2.637156e-001
6.692062e+002;2.593045e-001
6.711347e+002;2.535445e-001
6.730632e+002;2.465712e-001
6.749918e+002;2.390615e-001
6.769203e+002;2.324095e-001
6.788489e+002;2.251199e-001
6.807775e+002;2.189035e-001
6.827060e+002;2.143055e-001
6.846345e+002;2.105313e-001
6.865631e+002;2.077752e-001
6.884916e+002;2.058943e-001
6.904202e+002;2.045855e-001
6.923488e+002;2.034203e-001
6.942773e+002;2.033763e-001
6.962058e+002;2.022212e-001
6.981344e+002;2.008982e-001
7.000629e+002;2.014816e-001
7.019915e+002;2.010974e-001
7.039200e+002;1.992137e-001
7.058486e+002;1.970085e-001
7.077771e+002;1.960929e-001
7.097057e+002;1.954263e-001
7.116342e+002;1.939718e-001
7.135627e+002;1.921049e-001
7.154913e+002;1.910245e-001
7.174199e+002;1.907464e-001
7.193484e+002;1.897291e-001
7.212770e+002;1.876406e-001
7.232055e+002;1.855920e-001
7.251340e+002;1.837947e-001
7.270626e+002;1.816804e-001
7.289911e+002;1.795284e-001
7.309197e+002;1.775960e-001
7.328483e+002;1.767501e-001
7.347768e+002;1.760763e-001
7.367053e+002;1.743959e-001
7.386339e+002;1.729125e-001
7.405624e+002;1.718306e-001
7.424910e+002;1.700743e-001
7.444196e+002;1.682515e-001
7.463481e+002;1.672915e-001
7.482766e+002;1.661055e-001
7.502052e+002;1.643681e-001
7.521337e+002;1.629504e-001
7.540623e+002;1.621499e-001
7.559908e+002;1.606283e-001
7.579194e+002;1.581004e-001
7.598479e+002;1.561625e-001
7.617765e+002;1.546345e-001
7.637050e+002;1.533857e-001
7.656335e+002;1.516319e-001
7.675621e+002;1.507631e-001
7.694907e+002;1.498975e-001
7.714192e+002;1.486444e-001
7.733478e+002;1.475943e-001
7.752763e+002;1.458317e-001
7.772048e+002;1.443473e-001
7.791334e+002;1.436508e-001
7.810620e+002;1.430179e-001
7.829905e+002;1.415500e-001
7.849191e+002;1.404965e-001
7.868476e+002;1.394334e-001
7.887761e+002;1.378452e-001
7.907047e+002;1.362085e-001
7.926332e+002;1.353716e-001
7.945618e+002;1.348473e-001
7.964903e+002;1.335782e-001
7.984189e+002;1.322517e-001
8.003474e+002;1.314115e-001
8.022759e+002;1.310799e-001
8.042045e+002;1.307870e-001
8.061331e+002;1.300360e-001
8.080616e+002;1.289155e-001
8.099902e+002;1.282029e-001
8.119187e+002;1.277366e-001
8.138472e+002;1.268373e-001
8.157758e+002;1.266046e-001
8.177043e+002;1.264189e-001
8.196329e+002;1.264527e-001
8.215615e+002;1.260797e-001
8.234900e+002;1.254343e-001
8.254185e+002;1.255230e-001
8.273471e+002;1.255493e-001
8.292756e+002;1.246056e-001
8.312042e+002;1.235226e-001
8.331328e+002;1.231428e-001
8.350613e+002;1.232032e-001
8.369898e+002;1.226976e-001
8.389184e+002;1.217221e-001
8.408469e+002;1.204904e-001
8.427755e+002;1.193857e-001
8.447040e+002;1.186975e-001
8.466326e+002;1.178321e-001
8.485611e+002;1.172428e-001
8.504897e+002;1.171498e-001
8.524182e+002;1.163454e-001
8.543467e+002;1.157353e-001
8.562753e+002;1.162924e-001
8.582039e+002;1.167726e-001
8.601324e+002;1.169439e-001
8.620610e+002;1.173349e-001
8.639895e+002;1.177991e-001
8.659180e+002;1.189507e-001
8.678466e+002;1.210953e-001
8.697751e+002;1.235259e-001
8.717037e+002;1.260699e-001
8.736323e+002;1.298521e-001
8.755608e+002;1.344731e-001
8.774893e+002;1.393765e-001
8.794179e+002;1.452186e-001
8.813464e+002;1.516721e-001
8.832750e+002;1.581821e-001
8.852036e+002;1.652757e-001
8.871321e+002;1.724276e-001
8.890606e+002;1.787580e-001
8.909892e+002;1.842114e-001
8.929177e+002;1.882719e-001
8.948463e+002;1.902748e-001
8.967748e+002;1.905032e-001
8.987034e+002;1.893892e-001
9.006319e+002;1.871251e-001
9.025605e+002;1.837199e-001
9.044890e+002;1.791915e-001
9.064175e+002;1.743224e-001
9.083461e+002;1.697344e-001
9.102747e+002;1.656480e-001
9.122032e+002;1.625336e-001
9.141318e+002;1.602466e-001
9.160603e+002;1.584206e-001
9.179888e+002;1.578593e-001
9.199174e+002;1.583493e-001
9.218459e+002;1.595183e-001
9.237745e+002;1.612772e-001
9.257031e+002;1.625808e-001
9.276316e+002;1.639585e-001
9.295601e+002;1.659673e-001
9.314887e+002;1.675237e-001
9.334172e+002;1.691111e-001
9.353458e+002;1.711901e-001
9.372744e+002;1.732741e-001
9.392029e+002;1.756137e-001
9.411314e+002;1.791940e-001
9.430600e+002;1.832527e-001
9.449885e+002;1.871751e-001
9.469171e+002;1.915303e-001
9.488456e+002;1.965886e-001
9.507742e+002;2.031230e-001
9.527027e+002;2.099728e-001
9.546313e+002;2.162113e-001
9.565598e+002;2.230399e-001
9.584883e+002;2.304519e-001
9.604169e+002;2.378250e-001
9.623455e+002;2.451970e-001
9.642740e+002;2.527020e-001
9.662026e+002;2.610920e-001
9.681311e+002;2.701023e-001
9.700596e+002;2.792529e-001
9.719882e+002;2.900993e-001
9.739167e+002;3.025230e-001
9.758453e+002;3.166307e-001
9.777739e+002;3.333568e-001
9.797024e+002;3.523510e-001
9.816309e+002;3.732637e-001
9.835595e+002;3.957480e-001
9.854880e+002;4.185071e-001
9.874166e+002;4.403218e-001
9.893452e+002;4.593427e-001
9.912737e+002;4.749316e-001
9.932022e+002;4.863114e-001
9.951307e+002;4.931647e-001
9.970593e+002;4.968803e-001
9.989879e+002;4.995211e-001
1.000916e+003;5.010658e-001
1.002845e+003;5.034496e-001
1.004773e+003;5.084358e-001
1.006702e+003;5.162973e-001
1.008631e+003;5.269265e-001
1.010559e+003;5.388683e-001
1.012488e+003;5.510304e-001
1.014416e+003;5.625941e-001
1.016345e+003;5.724927e-001
1.018273e+003;5.796923e-001
1.020202e+003;5.817076e-001
1.022130e+003;5.801463e-001
1.024059e+003;5.761935e-001
1.025988e+003;5.697521e-001
1.027916e+003;5.636944e-001
1.029845e+003;5.566430e-001
1.031773e+003;5.476281e-001
1.033702e+003;5.408053e-001
1.035630e+003;5.355278e-001
1.037559e+003;5.301236e-001
1.039487e+003;5.251547e-001
1.041416e+003;5.211230e-001
1.043344e+003;5.167968e-001
1.045273e+003;5.121538e-001
1.047202e+003;5.074136e-001
1.049130e+003;5.025610e-001
1.051059e+003;4.973949e-001
1.052987e+003;4.925447e-001
1.054916e+003;4.867008e-001
1.056844e+003;4.802875e-001
1.058773e+003;4.738255e-001
1.060701e+003;4.668773e-001
1.062630e+003;4.587429e-001
1.064558e+003;4.498811e-001
1.066487e+003;4.405741e-001
1.068416e+003;4.305089e-001
1.070344e+003;4.198500e-001
1.072273e+003;4.096437e-001
1.074201e+003;3.992688e-001
1.076130e+003;3.885815e-001
1.078058e+003;3.794168e-001
1.079987e+003;3.708909e-001
1.081915e+003;3.616670e-001
1.083844e+003;3.536398e-001
1.085773e+003;3.473605e-001
1.087701e+003;3.411006e-001
1.089630e+003;3.345828e-001
1.091558e+003;3.282235e-001
1.093487e+003;3.214161e-001
1.095415e+003;3.144716e-001
1.097344e+003;3.072953e-001
1.099272e+003;3.000752e-001
1.101201e+003;2.933146e-001
1.103129e+003;2.871950e-001
1.105058e+003;2.810663e-001
1.106987e+003;2.757045e-001
1.108915e+003;2.708282e-001
1.110844e+003;2.660842e-001
1.112772e+003;2.612246e-001
1.114701e+003;2.560831e-001
1.116629e+003;2.505538e-001
1.118558e+003;2.445228e-001
1.120486e+003;2.376382e-001
1.122415e+003;2.303312e-001
1.124344e+003;2.228117e-001
1.126272e+003;2.156870e-001
1.128201e+003;2.088974e-001
1.130129e+003;2.024036e-001
1.132058e+003;1.963548e-001
1.133986e+003;1.911166e-001
1.135915e+003;1.856406e-001
1.137843e+003;1.811091e-001
1.139772e+003;1.785053e-001
1.141700e+003;1.764148e-001
1.143629e+003;1.751584e-001
1.145557e+003;1.751279e-001
1.147486e+003;1.755159e-001
1.149415e+003;1.768942e-001
1.151343e+003;1.787097e-001
1.153272e+003;1.801757e-001
1.155200e+003;1.807987e-001
1.157129e+003;1.802396e-001
1.159057e+003;1.778570e-001
1.160986e+003;1.736846e-001
1.162914e+003;1.677812e-001
1.164843e+003;1.606608e-001
1.166771e+003;1.529017e-001
1.168700e+003;1.448153e-001
1.170629e+003;1.372896e-001
1.172557e+003;1.303503e-001
1.174486e+003;1.241376e-001
1.176414e+003;1.189087e-001
1.178343e+003;1.141460e-001
1.180271e+003;1.099311e-001
1.182200e+003;1.068743e-001
1.184128e+003;1.052358e-001
1.186057e+003;1.049252e-001
1.187986e+003;1.055160e-001
1.189914e+003;1.071715e-001
1.191843e+003;1.099770e-001
1.193771e+003;1.131137e-001
1.195700e+003;1.159463e-001
1.197628e+003;1.179886e-001
1.199557e+003;1.187287e-001
1.201485e+003;1.181288e-001
1.203414e+003;1.166894e-001
1.205343e+003;1.146370e-001
1.207271e+003;1.126475e-001
1.209200e+003;1.108285e-001
1.211128e+003;1.094549e-001
1.213057e+003;1.087941e-001
1.214985e+003;1.088937e-001
1.216914e+003;1.101261e-001
1.218842e+003;1.120921e-001
1.220771e+003;1.142026e-001
1.222699e+003;1.165909e-001
1.224628e+003;1.190746e-001
1.226557e+003;1.213482e-001
1.228485e+003;1.227839e-001
1.230414e+003;1.236920e-001
1.232342e+003;1.244592e-001
1.234271e+003;1.250892e-001
1.236199e+003;1.253297e-001
1.238128e+003;1.252335e-001
1.240056e+003;1.251528e-001
1.241985e+003;1.250093e-001
1.243913e+003;1.249505e-001
1.245842e+003;1.252352e-001
1.247771e+003;1.255932e-001
1.249699e+003;1.260668e-001
1.251628e+003;1.273853e-001
1.253556e+003;1.290092e-001
1.255485e+003;1.299537e-001
1.257413e+003;1.306735e-001
1.259342e+003;1.314957e-001
1.261270e+003;1.313494e-001
1.263199e+003;1.304915e-001
1.265127e+003;1.297614e-001
1.267056e+003;1.287802e-001
1.268985e+003;1.274970e-001
1.270913e+003;1.261978e-001
1.272842e+003;1.251882e-001
1.274770e+003;1.242848e-001
1.276699e+003;1.231485e-001
1.278627e+003;1.219226e-001
1.280556e+003;1.211067e-001
1.282484e+003;1.206667e-001
1.284413e+003;1.202246e-001
1.286342e+003;1.204706e-001
1.288270e+003;1.215976e-001
1.290199e+003;1.229838e-001
1.292127e+003;1.246687e-001
1.294056e+003;1.265779e-001
1.295984e+003;1.286469e-001
1.297913e+003;1.304740e-001
1.299841e+003;1.321035e-001
1.301770e+003;1.338264e-001
1.303698e+003;1.357806e-001
1.305627e+003;1.377351e-001
1.307556e+003;1.394140e-001
1.309484e+003;1.410255e-001
1.311413e+003;1.425995e-001
1.313341e+003;1.437473e-001
1.315270e+003;1.443869e-001
1.317198e+003;1.447690e-001
1.319127e+003;1.448096e-001
1.321055e+003;1.443013e-001
1.322984e+003;1.440088e-001
1.324912e+003;1.440152e-001
1.326841e+003;1.441787e-001
1.328770e+003;1.445476e-001
1.330698e+003;1.447240e-001
1.332627e+003;1.446175e-001
1.334555e+003;1.445671e-001
1.336484e+003;1.446584e-001
1.338412e+003;1.445809e-001
1.340341e+003;1.441215e-001
1.342269e+003;1.438100e-001
1.344198e+003;1.438672e-001
1.346126e+003;1.439338e-001
1.348055e+003;1.440295e-001
1.349984e+003;1.442013e-001
1.351912e+003;1.447206e-001
1.353841e+003;1.456781e-001
1.355769e+003;1.465782e-001
1.357698e+003;1.471616e-001
1.359626e+003;1.475960e-001
1.361555e+003;1.480297e-001
1.363483e+003;1.481482e-001
1.365412e+003;1.480284e-001
1.367341e+003;1.477036e-001
1.369269e+003;1.468546e-001
1.371198e+003;1.456086e-001
1.373126e+003;1.440076e-001
1.375055e+003;1.423107e-001
1.376983e+003;1.402837e-001
1.378912e+003;1.381544e-001
1.380840e+003;1.357988e-001
1.382769e+003;1.333884e-001
1.384698e+003;1.313305e-001
1.386626e+003;1.295910e-001
1.388555e+003;1.279541e-001
1.390483e+003;1.265657e-001
1.392412e+003;1.256670e-001
1.394340e+003;1.251329e-001
1.396269e+003;1.248697e-001
1.398197e+003;1.248022e-001
1.400126e+003;1.247593e-001
1.402054e+003;1.247553e-001
1.403983e+003;1.248554e-001
1.405911e+003;1.249542e-001
1.407840e+003;1.248989e-001
1.409769e+003;1.248792e-001
1.411697e+003;1.249425e-001
1.413626e+003;1.251253e-001
1.415554e+003;1.250521e-001
1.417483e+003;1.245386e-001
1.419411e+003;1.239279e-001
1.421340e+003;1.235785e-001
1.423268e+003;1.234965e-001
1.425197e+003;1.231817e-001
1.427125e+003;1.223695e-001
1.429054e+003;1.214717e-001
1.430983e+003;1.207537e-001
1.432911e+003;1.199231e-001
1.434840e+003;1.188699e-001
1.436768e+003;1.178731e-001
1.438697e+003;1.170537e-001
1.440625e+003;1.161212e-001
1.442554e+003;1.145942e-001
1.444482e+003;1.130254e-001
1.446411e+003;1.118101e-001
1.448340e+003;1.104682e-001
1.450268e+003;1.090622e-001
1.452197e+003;1.077514e-001
1.454125e+003;1.063887e-001
1.456054e+003;1.049065e-001
1.457982e+003;1.033684e-001
1.459911e+003;1.019317e-001
1.461839e+003;1.004246e-001
1.463768e+003;9.857973e-002
1.465697e+003;9.655769e-002
1.467625e+003;9.459359e-002
1.469554e+003;9.226376e-002
1.471482e+003;8.975948e-002
1.473411e+003;8.737753e-002
1.475339e+003;8.491727e-002
1.477268e+003;8.208711e-002
1.479196e+003;7.953385e-002
1.481125e+003;7.722991e-002
1.483053e+003;7.455970e-002
1.484982e+003;7.209224e-002
1.486911e+003;6.998624e-002
1.488839e+003;6.778369e-002
1.490768e+003;6.579696e-002
1.492696e+003;6.416894e-002
1.494625e+003;6.264395e-002
1.496553e+003;6.103406e-002
1.498482e+003;5.975013e-002
1.500410e+003;5.867095e-002
1.502339e+003;5.765933e-002
1.504267e+003;5.662032e-002
1.506196e+003;5.553759e-002
1.508125e+003;5.462303e-002
1.510053e+003;5.385267e-002
1.511982e+003;5.313637e-002
1.513910e+003;5.252235e-002
1.515839e+003;5.180106e-002
1.517767e+003;5.115556e-002
1.519696e+003;5.068677e-002
1.521624e+003;5.023399e-002
1.523553e+003;4.989113e-002
1.525481e+003;4.973465e-002
1.527410e+003;4.958932e-002
1.529339e+003;4.936627e-002
1.531267e+003;4.915910e-002
1.533196e+003;4.886092e-002
1.535124e+003;4.875354e-002
1.537053e+003;4.843608e-002
1.538981e+003;4.795622e-002
1.540910e+003;4.797377e-002
1.542838e+003;4.823409e-002
1.544767e+003;4.835474e-002
1.546695e+003;4.858628e-002
1.548624e+003;4.876389e-002
1.550553e+003;4.865191e-002
1.552481e+003;4.856545e-002
1.554410e+003;4.864972e-002
1.556338e+003;4.869001e-002
1.558267e+003;4.873420e-002
1.560195e+003;4.873182e-002
1.562124e+003;4.883463e-002
1.564052e+003;4.925726e-002
1.565981e+003;4.974803e-002
1.567910e+003;4.996239e-002
1.569838e+003;5.001350e-002
1.571767e+003;5.040662e-002
1.573695e+003;5.089750e-002
1.575624e+003;5.112838e-002
1.577552e+003;5.146305e-002
1.579481e+003;5.220899e-002
1.581409e+003;5.294390e-002
1.583338e+003;5.366157e-002
1.585266e+003;5.413629e-002
1.587195e+003;5.454465e-002
1.589124e+003;5.519793e-002
1.591052e+003;5.585121e-002
1.592981e+003;5.648022e-002
1.594909e+003;5.748244e-002
1.596838e+003;5.845660e-002
1.598766e+003;5.922947e-002
1.600695e+003;5.998839e-002
1.602623e+003;6.075044e-002
1.604552e+003;6.157574e-002
1.606480e+003;6.238884e-002
1.608409e+003;6.326790e-002
1.610338e+003;6.412136e-002
1.612266e+003;6.497865e-002
1.614195e+003;6.575903e-002
1.616123e+003;6.652486e-002
1.618052e+003;6.732516e-002
1.619980e+003;6.832021e-002
1.621909e+003;6.931389e-002
1.623837e+003;7.005052e-002
1.625766e+003;7.073645e-002
1.627694e+003;7.128752e-002
1.629623e+003;7.177754e-002
1.631552e+003;7.225922e-002
1.633480e+003;7.275754e-002
1.635409e+003;7.305919e-002
1.637337e+003;7.312232e-002
1.639266e+003;7.316839e-002
1.641194e+003;7.337435e-002
1.643123e+003;7.349340e-002
1.645051e+003;7.325404e-002
1.646980e+003;7.303433e-002
1.648909e+003;7.262401e-002
1.650837e+003;7.196223e-002
1.652766e+003;7.111826e-002
1.654694e+003;7.048363e-002
1.656623e+003;7.014719e-002
1.658551e+003;6.956127e-002
1.660480e+003;6.870317e-002
1.662408e+003;6.772246e-002
1.664337e+003;6.669026e-002
1.666266e+003;6.564428e-002
1.668194e+003;6.446531e-002
1.670123e+003;6.320700e-002
1.672051e+003;6.209337e-002
1.673980e+003;6.088296e-002
1.675908e+003;5.957948e-002
1.677837e+003;5.849470e-002
1.679765e+003;5.731079e-002
1.681694e+003;5.597512e-002
1.683622e+003;5.482771e-002
1.685551e+003;5.377553e-002
1.687479e+003;5.301072e-002
1.689408e+003;5.227734e-002
1.691337e+003;5.164934e-002
1.693265e+003;5.121416e-002
1.695194e+003;5.073101e-002
1.697122e+003;5.034325e-002
1.699051e+003;4.996506e-002
1.700979e+003;4.949741e-002
1.702908e+003;4.932945e-002
1.704836e+003;4.916403e-002
1.706765e+003;4.892129e-002
1.708693e+003;4.865895e-002
1.710622e+003;4.830493e-002
1.712551e+003;4.800733e-002
1.714479e+003;4.756362e-002
1.716408e+003;4.677188e-002
1.718336e+003;4.618450e-002
1.720265e+003;4.602920e-002
1.722193e+003;4.558191e-002
1.724122e+003;4.451520e-002
1.726050e+003;4.336200e-002
1.727979e+003;4.235170e-002
1.729908e+003;4.123163e-002
1.731836e+003;4.031781e-002
1.733765e+003;3.951491e-002
1.735693e+003;3.843890e-002
1.737622e+003;3.721773e-002
1.739550e+003;3.590219e-002
1.741479e+003;3.467244e-002
1.743407e+003;3.358293e-002
1.745336e+003;3.268423e-002
1.747265e+003;3.190956e-002
1.749193e+003;3.133379e-002
1.751122e+003;3.086085e-002
1.753050e+003;3.052118e-002
1.754979e+003;3.027779e-002
1.756907e+003;2.979291e-002
1.758836e+003;2.954667e-002
1.760764e+003;2.938823e-002
1.762693e+003;2.921284e-002
1.764621e+003;2.918761e-002
1.766550e+003;2.892464e-002
1.768479e+003;2.872320e-002
1.770407e+003;2.875113e-002
1.772336e+003;2.861383e-002
1.774264e+003;2.840575e-002
1.776193e+003;2.838272e-002
1.778121e+003;2.833985e-002
1.780050e+003;2.818521e-002
1.781978e+003;2.798960e-002
1.783907e+003;2.771676e-002
1.785835e+003;2.754126e-002
1.787764e+003;2.735571e-002
1.789693e+003;2.703721e-002
1.791621e+003;2.673653e-002
1.793550e+003;2.655189e-002
1.795478e+003;2.651159e-002
1.797407e+003;2.643253e-002
1.799335e+003;2.639919e-002
1.801264e+003;2.642141e-002
1.803192e+003;2.624094e-002
1.805121e+003;2.596068e-002
1.807049e+003;2.583572e-002
1.808978e+003;2.573625e-002
1.810907e+003;2.574954e-002
1.812835e+003;2.595270e-002
1.814764e+003;2.589973e-002
1.816692e+003;2.554838e-002
1.818621e+003;2.524023e-002
1.820549e+003;2.516993e-002
1.822478e+003;2.515852e-002
1.824406e+003;2.504436e-002
1.826335e+003;2.501217e-002
1.828264e+003;2.483770e-002
1.830192e+003;2.463380e-002
1.832121e+003;2.458088e-002
1.834049e+003;2.435408e-002
1.835978e+003;2.420065e-002
1.837906e+003;2.414589e-002
1.839835e+003;2.404930e-002
1.841763e+003;2.402240e-002
1.843692e+003;2.379533e-002
1.845620e+003;2.361816e-002
1.847549e+003;2.357954e-002
1.849478e+003;2.346082e-002
1.851406e+003;2.329428e-002
1.853335e+003;2.319350e-002
1.855263e+003;2.315998e-002
1.857192e+003;2.311242e-002
1.859120e+003;2.290916e-002
1.861049e+003;2.273588e-002
1.862977e+003;2.268438e-002
1.864906e+003;2.271004e-002
1.866834e+003;2.265425e-002
1.868763e+003;2.255533e-002
1.870692e+003;2.243620e-002
1.872620e+003;2.232767e-002
1.874549e+003;2.217599e-002
1.876477e+003;2.205780e-002
1.878406e+003;2.205804e-002
1.880334e+003;2.216651e-002
1.882263e+003;2.207237e-002
1.884191e+003;2.170164e-002
1.886120e+003;2.169624e-002
1.888048e+003;2.190737e-002
1.889977e+003;2.191260e-002
1.891906e+003;2.182385e-002
1.893834e+003;2.185851e-002
1.895763e+003;2.189915e-002
1.897691e+003;2.190824e-002
1.899620e+003;2.203950e-002
1.901548e+003;2.214472e-002
1.903477e+003;2.225017e-002
1.905405e+003;2.232216e-002
1.907334e+003;2.231912e-002
1.909262e+003;2.222206e-002
1.911191e+003;2.222579e-002
1.913120e+003;2.226520e-002
1.915048e+003;2.232551e-002
1.916977e+003;2.269538e-002
1.918905e+003;2.307231e-002
1.920834e+003;2.320622e-002
1.922762e+003;2.302098e-002
1.924691e+003;2.289386e-002
1.926619e+003;2.316142e-002
1.928548e+003;2.322985e-002
1.930477e+003;2.324390e-002
1.932405e+003;2.325422e-002
1.934334e+003;2.330655e-002
1.936262e+003;2.337347e-002
1.938191e+003;2.340242e-002
1.940119e+003;2.356621e-002
1.942048e+003;2.367285e-002
1.943976e+003;2.369115e-002
1.945905e+003;2.371197e-002
1.947833e+003;2.387657e-002
1.949762e+003;2.416435e-002
1.951691e+003;2.440637e-002
1.953619e+003;2.446957e-002
1.955548e+003;2.456584e-002
1.957476e+003;2.469338e-002
1.959405e+003;2.472281e-002
1.961333e+003;2.479872e-002
1.963262e+003;2.511383e-002
1.965190e+003;2.547375e-002
1.967119e+003;2.539224e-002
1.969047e+003;2.518159e-002
1.970976e+003;2.516263e-002
1.972905e+003;2.547684e-002
1.974833e+003;2.587951e-002
1.976762e+003;2.598246e-002
1.978690e+003;2.599808e-002
1.980619e+003;2.607456e-002
1.982547e+003;2.619463e-002
1.984476e+003;2.628171e-002
1.986404e+003;2.613420e-002
1.988333e+003;2.610503e-002
1.990261e+003;2.627290e-002
1.992190e+003;2.644176e-002
1.994119e+003;2.644905e-002
1.996047e+003;2.628371e-002
1.997976e+003;2.632595e-002
1.999904e+003;2.663259e-002
2.001833e+003;2.667293e-002
2.003761e+003;2.664295e-002
2.005690e+003;2.699233e-002
2.007618e+003;2.726115e-002
2.009547e+003;2.735713e-002
2.011476e+003;2.740999e-002
2.013404e+003;2.739799e-002
2.015333e+003;2.748217e-002
2.017261e+003;2.770655e-002
2.019190e+003;2.806633e-002
2.021118e+003;2.833427e-002
2.023047e+003;2.828221e-002
2.024975e+003;2.839266e-002
2.026904e+003;2.865935e-002
2.028833e+003;2.872168e-002
2.030761e+003;2.872104e-002
2.032690e+003;2.875223e-002
2.034618e+003;2.889567e-002
2.036547e+003;2.905683e-002
2.038475e+003;2.904560e-002
2.040404e+003;2.910058e-002
2.042332e+003;2.910027e-002
2.044261e+003;2.911231e-002
2.046189e+003;2.933771e-002
2.048118e+003;2.949234e-002
2.050047e+003;2.940546e-002
2.051975e+003;2.933654e-002
2.053904e+003;2.946074e-002
2.055832e+003;2.950943e-002
2.057761e+003;2.942230e-002
2.059689e+003;2.943886e-002
2.061618e+003;2.946152e-002
2.063546e+003;2.916713e-002
2.065475e+003;2.906445e-002
2.067404e+003;2.920639e-002
2.069332e+003;2.942932e-002
2.071260e+003;2.974504e-002
2.073189e+003;3.000873e-002
2.075118e+003;2.999523e-002
2.077046e+003;2.969792e-002
2.078975e+003;2.940582e-002
2.080903e+003;2.954497e-002
2.082832e+003;2.963112e-002
2.084760e+003;2.954447e-002
2.086689e+003;2.966078e-002
2.088617e+003;2.988572e-002
2.090546e+003;2.986893e-002
2.092475e+003;2.963765e-002
2.094403e+003;2.965326e-002
2.096332e+003;2.985821e-002
2.098260e+003;2.983404e-002
2.100189e+003;2.983280e-002
2.102117e+003;2.990322e-002
2.104046e+003;2.992413e-002
2.105974e+003;3.006326e-002
2.107903e+003;3.041303e-002
2.109832e+003;3.066424e-002
2.111760e+003;3.071968e-002
2.113688e+003;3.077249e-002
2.115617e+003;3.067303e-002
2.117546e+003;3.044999e-002
2.119474e+003;3.056473e-002
2.121403e+003;3.081233e-002
2.123331e+003;3.077399e-002
2.125260e+003;3.075130e-002
2.127188e+003;3.075443e-002
2.129117e+003;3.089938e-002
2.131045e+003;3.098143e-002
2.132974e+003;3.102495e-002
2.134903e+003;3.096065e-002
2.136831e+003;3.079199e-002
2.138760e+003;3.085420e-002
2.140688e+003;3.072964e-002
2.142617e+003;3.046801e-002
2.144545e+003;3.034366e-002
2.146474e+003;3.043520e-002
2.148402e+003;3.047142e-002
2.150331e+003;3.052701e-002
2.152260e+003;3.038129e-002
2.154188e+003;3.012768e-002
2.156117e+003;3.000340e-002
2.158045e+003;2.992835e-002
2.159974e+003;2.998057e-002
2.161902e+003;2.988636e-002
2.163831e+003;2.998909e-002
2.165759e+003;3.000010e-002
2.167688e+003;2.969831e-002
2.169616e+003;2.948354e-002
2.171545e+003;2.932867e-002
2.173474e+003;2.905846e-002
2.175402e+003;2.914186e-002
2.177331e+003;2.918531e-002
2.179259e+003;2.886836e-002
2.181188e+003;2.861815e-002
2.183116e+003;2.841035e-002
2.185045e+003;2.821463e-002
2.186973e+003;2.788730e-002
2.188902e+003;2.777984e-002
2.190831e+003;2.783438e-002
2.192759e+003;2.769599e-002
2.194688e+003;2.762794e-002
2.196616e+003;2.771725e-002
2.198545e+003;2.774900e-002
2.200473e+003;2.754765e-002
2.202402e+003;2.745016e-002
2.204330e+003;2.751225e-002
2.206259e+003;2.754878e-002
2.208188e+003;2.729181e-002
2.210116e+003;2.690391e-002
2.212044e+003;2.682840e-002
2.213973e+003;2.691903e-002
2.215902e+003;2.689122e-002
2.217830e+003;2.696327e-002
2.219759e+003;2.677505e-002
2.221687e+003;2.640137e-002
2.223616e+003;2.631328e-002
2.225544e+003;2.642725e-002
2.227473e+003;2.654495e-002
2.229401e+003;2.640176e-002
2.231330e+003;2.633050e-002
2.233259e+003;2.639912e-002
2.235187e+003;2.629072e-002
2.237116e+003;2.624661e-002
2.239044e+003;2.623517e-002
2.240973e+003;2.616978e-002
2.242901e+003;2.624397e-002
2.244830e+003;2.612023e-002
2.246758e+003;2.589262e-002
2.248687e+003;2.568897e-002
2.250615e+003;2.551356e-002
2.252544e+003;2.556483e-002
2.254473e+003;2.565231e-002
2.256401e+003;2.542839e-002
2.258330e+003;2.518643e-002
2.260258e+003;2.512088e-002
2.262187e+003;2.514644e-002
2.264115e+003;2.520838e-002
2.266044e+003;2.498992e-002
2.267972e+003;2.474585e-002
2.269901e+003;2.478633e-002
2.271830e+003;2.481177e-002
2.273758e+003;2.451143e-002
2.275687e+003;2.438131e-002
2.277615e+003;2.444556e-002
2.279544e+003;2.443154e-002
2.281472e+003;2.435731e-002
2.283401e+003;2.417900e-002
2.285329e+003;2.403777e-002
2.287258e+003;2.412449e-002
2.289187e+003;2.408782e-002
2.291115e+003;2.378522e-002
2.293043e+003;2.376681e-002
2.294972e+003;2.397422e-002
2.296901e+003;2.397114e-002
2.298829e+003;2.401127e-002
2.300758e+003;2.402405e-002
2.302686e+003;2.393612e-002
2.304615e+003;2.387524e-002
2.306543e+003;2.383677e-002
2.308472e+003;2.410593e-002
2.310400e+003;2.435874e-002
2.312329e+003;2.428536e-002
2.314258e+003;2.436369e-002
2.316186e+003;2.464916e-002
2.318115e+003;2.446203e-002
2.320043e+003;2.408632e-002
2.321972e+003;2.409269e-002
2.323900e+003;2.403774e-002
2.325829e+003;2.390784e-002
2.327757e+003;2.407021e-002
2.329686e+003;2.436943e-002
2.331615e+003;2.448945e-002
2.333543e+003;2.440343e-002
2.335472e+003;2.435370e-002
2.337400e+003;2.467521e-002
2.339329e+003;2.493226e-002
2.341257e+003;2.493363e-002
2.343186e+003;2.509164e-002
2.345114e+003;2.560570e-002
2.347043e+003;2.595815e-002
2.348971e+003;2.573966e-002
2.350900e+003;2.559217e-002
2.352829e+003;2.575232e-002
2.354757e+003;2.574810e-002
2.356686e+003;2.561164e-002
2.358614e+003;2.575236e-002
2.360543e+003;2.589917e-002
2.362471e+003;2.599723e-002
2.364400e+003;2.618766e-002
2.366328e+003;2.631483e-002
2.368257e+003;2.653318e-002
2.370186e+003;2.682848e-002
2.372114e+003;2.705449e-002
2.374042e+003;2.718174e-002
2.375971e+003;2.706750e-002
2.377900e+003;2.710926e-002
2.379828e+003;2.754073e-002
2.381757e+003;2.792087e-002
2.383685e+003;2.800451e-002
2.385614e+003;2.808736e-002
2.387542e+003;2.816828e-002
2.389471e+003;2.828666e-002
2.391399e+003;2.837490e-002
2.393328e+003;2.853899e-002
2.395257e+003;2.859391e-002
2.397185e+003;2.878948e-002
2.399114e+003;2.906292e-002
2.401042e+003;2.908181e-002
2.402971e+003;2.915118e-002
2.404899e+003;2.937419e-002
2.406828e+003;2.950071e-002
2.408756e+003;2.957029e-002
2.410685e+003;2.984175e-002
2.412614e+003;3.001881e-002
2.414542e+003;3.020191e-002
2.416471e+003;3.046115e-002
2.418399e+003;3.060295e-002
2.420328e+003;3.072967e-002
2.422256e+003;3.099086e-002
2.424185e+003;3.125847e-002
2.426113e+003;3.150262e-002
2.428042e+003;3.176691e-002
2.429970e+003;3.203528e-002
2.431899e+003;3.243223e-002
2.433828e+003;3.268637e-002
2.435756e+003;3.263521e-002
2.437685e+003;3.260174e-002
2.439613e+003;3.311842e-002
2.441542e+003;3.371719e-002
2.443470e+003;3.368565e-002
2.445399e+003;3.370294e-002
2.447327e+003;3.424935e-002
2.449256e+003;3.469208e-002
2.451185e+003;3.479164e-002
2.453113e+003;3.512418e-002
2.455042e+003;3.556931e-002
2.456970e+003;3.583680e-002
2.458899e+003;3.575865e-002
2.460827e+003;3.559474e-002
2.462756e+003;3.566973e-002
2.464684e+003;3.603628e-002
2.466613e+003;3.653380e-002
2.468542e+003;3.690256e-002
2.470470e+003;3.697034e-002
2.472398e+003;3.708483e-002
2.474327e+003;3.752049e-002
2.476256e+003;3.767469e-002
2.478184e+003;3.775004e-002
2.480113e+003;3.831507e-002
2.482041e+003;3.870422e-002
2.483970e+003;3.873102e-002
2.485898e+003;3.880685e-002
2.487827e+003;3.880442e-002
2.489755e+003;3.868734e-002
2.491684e+003;3.888232e-002
2.493613e+003;3.927220e-002
2.495541e+003;3.964710e-002
2.497470e+003;3.987125e-002
2.499398e+003;3.999032e-002
2.501327e+003;4.012258e-002
2.503255e+003;4.023052e-002
2.505184e+003;4.015445e-002
2.507112e+003;4.014366e-002
2.509041e+003;4.045054e-002
2.510969e+003;4.077648e-002
2.512898e+003;4.084116e-002
2.514827e+003;4.083617e-002
2.516755e+003;4.086883e-002
2.518684e+003;4.095234e-002
2.520612e+003;4.112649e-002
2.522541e+003;4.152703e-002
2.524469e+003;4.183977e-002
2.526398e+003;4.169262e-002
2.528326e+003;4.153235e-002
2.530255e+003;4.175875e-002
2.532184e+003;4.209273e-002
2.534112e+003;4.220255e-002
2.536041e+003;4.216527e-002
2.537969e+003;4.223932e-002
2.539898e+003;4.245524e-002
2.541826e+003;4.265649e-002
2.543755e+003;4.275794e-002
2.545683e+003;4.282580e-002
2.547612e+003;4.286128e-002
2.549541e+003;4.286190e-002
2.551469e+003;4.314710e-002
2.553397e+003;4.354236e-002
2.555326e+003;4.369256e-002
2.557255e+003;4.376310e-002
2.559183e+003;4.402733e-002
2.561112e+003;4.437429e-002
2.563040e+003;4.451237e-002
2.564969e+003;4.440445e-002
2.566897e+003;4.459530e-002
2.568826e+003;4.480788e-002
2.570754e+003;4.468707e-002
2.572683e+003;4.454148e-002
2.574612e+003;4.489888e-002
2.576540e+003;4.535683e-002
2.578469e+003;4.552679e-002
2.580397e+003;4.566752e-002
2.582326e+003;4.591601e-002
2.584254e+003;4.601594e-002
2.586183e+003;4.610944e-002
2.588111e+003;4.647407e-002
2.590040e+003;4.678557e-002
2.591969e+003;4.678808e-002
2.593897e+003;4.692959e-002
2.595826e+003;4.717972e-002
2.597754e+003;4.744405e-002
2.599683e+003;4.778416e-002
2.601611e+003;4.791656e-002
2.603540e+003;4.796503e-002
2.605468e+003;4.816093e-002
2.607397e+003;4.844582e-002
2.609325e+003;4.889803e-002
2.611254e+003;4.933282e-002
2.613183e+003;4.954955e-002
2.615111e+003;4.977589e-002
2.617040e+003;4.993771e-002
2.618968e+003;5.025616e-002
2.620897e+003;5.053789e-002
2.622825e+003;5.067392e-002
2.624754e+003;5.085894e-002
2.626682e+003;5.122713e-002
2.628611e+003;5.164389e-002
2.630540e+003;5.206123e-002
2.632468e+003;5.234386e-002
2.634396e+003;5.243680e-002
2.636325e+003;5.278227e-002
2.638254e+003;5.328528e-002
2.640182e+003;5.348746e-002
2.642111e+003;5.371973e-002
2.644039e+003;5.434476e-002
2.645968e+003;5.470581e-002
2.647896e+003;5.470461e-002
2.649825e+003;5.484414e-002
2.651753e+003;5.528583e-002
2.653682e+003;5.568860e-002
2.655611e+003;5.618210e-002
2.657539e+003;5.667087e-002
2.659468e+003;5.704682e-002
2.661396e+003;5.744791e-002
2.663325e+003;5.758627e-002
2.665253e+003;5.770444e-002
2.667182e+003;5.812083e-002
2.669110e+003;5.868149e-002
2.671039e+003;5.906948e-002
2.672968e+003;5.914916e-002
2.674896e+003;5.944690e-002
2.676825e+003;6.010120e-002
2.678753e+003;6.041757e-002
2.680682e+003;6.048018e-002
2.682610e+003;6.075958e-002
2.684539e+003;6.109999e-002
2.686467e+003;6.126330e-002
2.688396e+003;6.140167e-002
2.690324e+003;6.177116e-002
2.692253e+003;6.216807e-002
2.694182e+003;6.258953e-002
2.696110e+003;6.311376e-002
2.698039e+003;6.349783e-002
2.699967e+003;6.364673e-002
2.701896e+003;6.384420e-002
2.703824e+003;6.396189e-002
2.705753e+003;6.389414e-002
2.707681e+003;6.410032e-002
2.709610e+003;6.461670e-002
2.711539e+003;6.499743e-002
2.713467e+003;6.523813e-002
2.715396e+003;6.542546e-002
2.717324e+003;6.557491e-002
2.719253e+003;6.574893e-002
2.721181e+003;6.592375e-002
2.723110e+003;6.618091e-002
2.725038e+003;6.638875e-002
2.726967e+003;6.646060e-002
2.728896e+003;6.677993e-002
2.730824e+003;6.709924e-002
2.732752e+003;6.728586e-002
2.734681e+003;6.744593e-002
2.736610e+003;6.773660e-002
2.738538e+003;6.796495e-002
2.740467e+003;6.811768e-002
2.742395e+003;6.835961e-002
2.744324e+003;6.859450e-002
2.746252e+003;6.884936e-002
2.748181e+003;6.913447e-002
2.750109e+003;6.920166e-002
2.752038e+003;6.914644e-002
2.753967e+003;6.962226e-002
2.755895e+003;7.011849e-002
2.757824e+003;7.044244e-002
2.759752e+003;7.077918e-002
2.761681e+003;7.084697e-002
2.763609e+003;7.123216e-002
2.765538e+003;7.145068e-002
2.767466e+003;7.149732e-002
2.769395e+003;7.197795e-002
2.771323e+003;7.248170e-002
2.773252e+003;7.272855e-002
2.775181e+003;7.305712e-002
2.777109e+003;7.343540e-002
2.779038e+003;7.398477e-002
2.780966e+003;7.443847e-002
2.782895e+003;7.446403e-002
2.784823e+003;7.466892e-002
2.786752e+003;7.532167e-002
2.788680e+003;7.593483e-002
2.790609e+003;7.645707e-002
2.792538e+003;7.694635e-002
2.794466e+003;7.728367e-002
2.796395e+003;7.781470e-002
2.798323e+003;7.841905e-002
2.800252e+003;7.882417e-002
2.802180e+003;7.916700e-002
2.804109e+003;7.959574e-002
2.806037e+003;8.014471e-002
2.807966e+003;8.059441e-002
2.809895e+003;8.093955e-002
2.811823e+003;8.166870e-002
2.813751e+003;8.231977e-002
2.815680e+003;8.272967e-002
2.817609e+003;8.329652e-002
2.819537e+003;8.386775e-002
2.821466e+003;8.440924e-002
2.823394e+003;8.527818e-002
2.825323e+003;8.621928e-002
2.827251e+003;8.697108e-002
2.829180e+003;8.769580e-002
2.831108e+003;8.870675e-002
2.833037e+003;8.964481e-002
2.834966e+003;9.055005e-002
2.836894e+003;9.169468e-002
2.838823e+003;9.281270e-002
2.840751e+003;9.385045e-002
2.842680e+003;9.489847e-002
2.844608e+003;9.632762e-002
2.846537e+003;9.784528e-002
2.848465e+003;9.881841e-002
2.850394e+003;9.999304e-002
2.852323e+003;1.014927e-001
2.854251e+003;1.027507e-001
2.856180e+003;1.041466e-001
2.858108e+003;1.057269e-001
2.860037e+003;1.074218e-001
2.861965e+003;1.093955e-001
2.863894e+003;1.113907e-001
2.865822e+003;1.130175e-001
2.867751e+003;1.144904e-001
2.869679e+003;1.160000e-001
2.871608e+003;1.174256e-001
2.873536e+003;1.185857e-001
2.875465e+003;1.193897e-001
2.877394e+003;1.199301e-001
2.879322e+003;1.206577e-001
2.881251e+003;1.215402e-001
2.883179e+003;1.218225e-001
2.885108e+003;1.219876e-001
2.887036e+003;1.221553e-001
2.888965e+003;1.221100e-001
2.890893e+003;1.221250e-001
2.892822e+003;1.218985e-001
2.894750e+003;1.213090e-001
2.896679e+003;1.207146e-001
2.898608e+003;1.202600e-001
2.900536e+003;1.197376e-001
2.902465e+003;1.194136e-001
2.904393e+003;1.189754e-001
2.906322e+003;1.180994e-001
2.908250e+003;1.175480e-001
2.910179e+003;1.171584e-001
2.912107e+003;1.165027e-001
2.914036e+003;1.152682e-001
2.915965e+003;1.141054e-001
2.917893e+003;1.137388e-001
2.919822e+003;1.132239e-001
2.921750e+003;1.116382e-001
2.923679e+003;1.100970e-001
2.925607e+003;1.090633e-001
2.927536e+003;1.080300e-001
2.929464e+003;1.069635e-001
2.931393e+003;1.059515e-001
2.933322e+003;1.051902e-001
2.935250e+003;1.044408e-001
2.937178e+003;1.033601e-001
2.939107e+003;1.019339e-001
2.941036e+003;1.006667e-001
2.942964e+003;9.945048e-002
2.944893e+003;9.818826e-002
2.946821e+003;9.707829e-002
2.948750e+003;9.568760e-002
2.950678e+003;9.413082e-002
2.952607e+003;9.269140e-002
2.954535e+003;9.133381e-002
2.956464e+003;9.003152e-002
2.958393e+003;8.877117e-002
2.960321e+003;8.767553e-002
2.962250e+003;8.646371e-002
2.964178e+003;8.500503e-002
2.966107e+003;8.408279e-002
2.968035e+003;8.349557e-002
2.969964e+003;8.280344e-002
2.971892e+003;8.217042e-002
2.973821e+003;8.139634e-002
2.975750e+003;8.094402e-002
2.977678e+003;8.071545e-002
2.979607e+003;8.003956e-002
2.981535e+003;7.947119e-002
2.983464e+003;7.890955e-002
2.985392e+003;7.827143e-002
2.987321e+003;7.800566e-002
2.989249e+003;7.773036e-002
2.991178e+003;7.714877e-002
2.993106e+003;7.692911e-002
2.995035e+003;7.703627e-002
2.996964e+003;7.714956e-002
2.998892e+003;7.701934e-002
3.000821e+003;7.669820e-002
3.002749e+003;7.667416e-002
3.004678e+003;7.699802e-002
3.006606e+003;7.703849e-002
3.008535e+003;7.706108e-002
3.010463e+003;7.750984e-002
3.012392e+003;7.777534e-002
3.014321e+003;7.809787e-002
3.016249e+003;7.870500e-002
3.018177e+003;7.887832e-002
3.020106e+003;7.885957e-002
3.022035e+003;7.907142e-002
3.023963e+003;7.953254e-002
3.025892e+003;8.021286e-002
3.027820e+003;8.069825e-002
3.029749e+003;8.111041e-002
3.031677e+003;8.195608e-002
3.033606e+003;8.282092e-002
3.035534e+003;8.356878e-002
3.037463e+003;8.414324e-002
3.039392e+003;8.443479e-002
3.041320e+003;8.483727e-002
3.043249e+003;8.537335e-002
3.045177e+003;8.594167e-002
3.047106e+003;8.666014e-002
3.049034e+003;8.737178e-002
3.050963e+003;8.789960e-002
3.052891e+003;8.830429e-002
3.054820e+003;8.900671e-002
3.056749e+003;8.970974e-002
3.058677e+003;9.054059e-002
3.060606e+003;9.141641e-002
3.062534e+003;9.188747e-002
3.064463e+003;9.226618e-002
3.066391e+003;9.290954e-002
3.068320e+003;9.381599e-002
3.070248e+003;9.447706e-002
3.072177e+003;9.514169e-002
3.074105e+003;9.604475e-002
3.076034e+003;9.675079e-002
3.077963e+003;9.715855e-002
3.079891e+003;9.771977e-002
3.081820e+003;9.876796e-002
3.083748e+003;9.991308e-002
3.085677e+003;1.004647e-001
3.087605e+003;1.010221e-001
3.089534e+003;1.018129e-001
3.091462e+003;1.027234e-001
3.093391e+003;1.034505e-001
3.095320e+003;1.040788e-001
3.097248e+003;1.046298e-001
3.099177e+003;1.052440e-001
3.101105e+003;1.061133e-001
3.103034e+003;1.070140e-001
3.104962e+003;1.077231e-001
3.106891e+003;1.078998e-001
3.108819e+003;1.084101e-001
3.110748e+003;1.096378e-001
3.112677e+003;1.107528e-001
3.114605e+003;1.112778e-001
3.116533e+003;1.117908e-001
3.118462e+003;1.125737e-001
3.120391e+003;1.137294e-001
3.122319e+003;1.147565e-001
3.124248e+003;1.155394e-001
3.126176e+003;1.160761e-001
3.128105e+003;1.168634e-001
3.130033e+003;1.179728e-001
3.131962e+003;1.188535e-001
3.133890e+003;1.195830e-001
3.135819e+003;1.204178e-001
3.137748e+003;1.212469e-001
3.139676e+003;1.220652e-001
3.141605e+003;1.230252e-001
3.143533e+003;1.237848e-001
3.145462e+003;1.243569e-001
3.147390e+003;1.250567e-001
3.149319e+003;1.258175e-001
3.151247e+003;1.265388e-001
3.153176e+003;1.274081e-001
3.155104e+003;1.283987e-001
3.157033e+003;1.291225e-001
3.158962e+003;1.294717e-001
3.160890e+003;1.302524e-001
3.162819e+003;1.315453e-001
3.164747e+003;1.323483e-001
3.166676e+003;1.329780e-001
3.168604e+003;1.337667e-001
3.170533e+003;1.344233e-001
3.172461e+003;1.353384e-001
3.174390e+003;1.362570e-001
3.176319e+003;1.369283e-001
3.178247e+003;1.377277e-001
3.180176e+003;1.384413e-001
3.182104e+003;1.390140e-001
3.184033e+003;1.399145e-001
3.185961e+003;1.409546e-001
3.187890e+003;1.420641e-001
3.189818e+003;1.428386e-001
3.191747e+003;1.433316e-001
3.193676e+003;1.440491e-001
3.195604e+003;1.448877e-001
3.197532e+003;1.457351e-001
3.199461e+003;1.464137e-001
3.201390e+003;1.471050e-001
3.203318e+003;1.476215e-001
3.205247e+003;1.479715e-001
3.207175e+003;1.484315e-001
3.209104e+003;1.489732e-001
3.211032e+003;1.499888e-001
3.212961e+003;1.509888e-001
3.214889e+003;1.514194e-001
3.216818e+003;1.522628e-001
3.218747e+003;1.533625e-001
3.220675e+003;1.539433e-001
3.222604e+003;1.538657e-001
3.224532e+003;1.543329e-001
3.226461e+003;1.551231e-001
3.228389e+003;1.559042e-001
3.230318e+003;1.566969e-001
3.232246e+003;1.576238e-001
3.234175e+003;1.586589e-001
3.236104e+003;1.591244e-001
3.238032e+003;1.591129e-001
3.239961e+003;1.596268e-001
3.241889e+003;1.604484e-001
3.243818e+003;1.609252e-001
3.245746e+003;1.610857e-001
3.247675e+003;1.615808e-001
3.249603e+003;1.622255e-001
3.251532e+003;1.628391e-001
3.253460e+003;1.631947e-001
3.255389e+003;1.636156e-001
3.257318e+003;1.641874e-001
3.259246e+003;1.649524e-001
3.261175e+003;1.658481e-001
3.263103e+003;1.660689e-001
3.265032e+003;1.661588e-001
3.266960e+003;1.670621e-001
3.268889e+003;1.681095e-001
3.270817e+003;1.686802e-001
3.272746e+003;1.687282e-001
3.274675e+003;1.687059e-001
3.276603e+003;1.689525e-001
3.278531e+003;1.697006e-001
3.280460e+003;1.702454e-001
3.282389e+003;1.704729e-001
3.284317e+003;1.706739e-001
3.286246e+003;1.708861e-001
3.288174e+003;1.710372e-001
3.290103e+003;1.711767e-001
3.292031e+003;1.710567e-001
3.293960e+003;1.713115e-001
3.295888e+003;1.720421e-001
3.297817e+003;1.725169e-001
3.299746e+003;1.727120e-001
3.301674e+003;1.732778e-001
3.303603e+003;1.736384e-001
3.305531e+003;1.734856e-001
3.307460e+003;1.735568e-001
3.309388e+003;1.739045e-001
3.311317e+003;1.740356e-001
3.313245e+003;1.742525e-001
3.315174e+003;1.750626e-001
3.317103e+003;1.754124e-001
3.319031e+003;1.753717e-001
3.320960e+003;1.752200e-001
3.322888e+003;1.753160e-001
3.324817e+003;1.754806e-001
3.326745e+003;1.752618e-001
3.328674e+003;1.753628e-001
3.330602e+003;1.761088e-001
3.332531e+003;1.763202e-001
3.334459e+003;1.759784e-001
3.336388e+003;1.761316e-001
3.338317e+003;1.765326e-001
3.340245e+003;1.767698e-001
3.342174e+003;1.765835e-001
3.344102e+003;1.760806e-001
3.346031e+003;1.757214e-001
3.347959e+003;1.758312e-001
3.349888e+003;1.761127e-001
3.351816e+003;1.762351e-001
3.353745e+003;1.758536e-001
3.355674e+003;1.750740e-001
3.357602e+003;1.747638e-001
3.359531e+003;1.750257e-001
3.361459e+003;1.749031e-001
3.363388e+003;1.742356e-001
3.365316e+003;1.738791e-001
3.367245e+003;1.738516e-001
3.369173e+003;1.737518e-001
3.371102e+003;1.735999e-001
3.373031e+003;1.733497e-001
3.374959e+003;1.732656e-001
3.376887e+003;1.730450e-001
3.378816e+003;1.722525e-001
3.380745e+003;1.717706e-001
3.382673e+003;1.713424e-001
3.384602e+003;1.708492e-001
3.386530e+003;1.709384e-001
3.388459e+003;1.705547e-001
3.390387e+003;1.698050e-001
3.392316e+003;1.692988e-001
3.394244e+003;1.685820e-001
3.396173e+003;1.679346e-001
3.398102e+003;1.673913e-001
3.400030e+003;1.672513e-001
3.401959e+003;1.670867e-001
3.403887e+003;1.663151e-001
3.405816e+003;1.656462e-001
3.407744e+003;1.652282e-001
3.409673e+003;1.644377e-001
3.411601e+003;1.642588e-001
3.413530e+003;1.642196e-001
3.415458e+003;1.635422e-001
3.417387e+003;1.626047e-001
3.419316e+003;1.615840e-001
3.421244e+003;1.611255e-001
3.423173e+003;1.604186e-001
3.425101e+003;1.590650e-001
3.427030e+003;1.581109e-001
3.428958e+003;1.578306e-001
3.430887e+003;1.576166e-001
3.432815e+003;1.568433e-001
3.434744e+003;1.560947e-001
3.436673e+003;1.551169e-001
3.438601e+003;1.539104e-001
3.440530e+003;1.528910e-001
3.442458e+003;1.517790e-001
3.444387e+003;1.505930e-001
3.446315e+003;1.494517e-001
3.448244e+003;1.486686e-001
3.450172e+003;1.479454e-001
3.452101e+003;1.468491e-001
3.454030e+003;1.457074e-001
3.455958e+003;1.444382e-001
3.457886e+003;1.431391e-001
3.459815e+003;1.418091e-001
3.461744e+003;1.405518e-001
3.463672e+003;1.391715e-001
3.465601e+003;1.378269e-001
3.467529e+003;1.370822e-001
3.469458e+003;1.362309e-001
3.471386e+003;1.349253e-001
3.473315e+003;1.335555e-001
3.475243e+003;1.320682e-001
3.477172e+003;1.303539e-001
3.479101e+003;1.288367e-001
3.481029e+003;1.280556e-001
3.482958e+003;1.275906e-001
3.484886e+003;1.266517e-001
3.486815e+003;1.251335e-001
3.488743e+003;1.238877e-001
3.490672e+003;1.225178e-001
3.492600e+003;1.209394e-001
3.494529e+003;1.197769e-001
3.496458e+003;1.183067e-001
3.498386e+003;1.168266e-001
3.500315e+003;1.154547e-001
3.502243e+003;1.141242e-001
3.504172e+003;1.127399e-001
3.506100e+003;1.113571e-001
3.508029e+003;1.098426e-001
3.509957e+003;1.081354e-001
3.511886e+003;1.063960e-001
3.513814e+003;1.050686e-001
3.515743e+003;1.042788e-001
3.517672e+003;1.035219e-001
3.519600e+003;1.024264e-001
3.521529e+003;1.008466e-001
3.523457e+003;9.927563e-002
3.525386e+003;9.817605e-002
3.527314e+003;9.704754e-002
3.529243e+003;9.573691e-002
3.531171e+003;9.426932e-002
3.533100e+003;9.300234e-002
3.535029e+003;9.175046e-002
3.536957e+003;9.029099e-002
3.538885e+003;8.903750e-002
3.540814e+003;8.774633e-002
3.542743e+003;8.628298e-002
3.544671e+003;8.516166e-002
3.546600e+003;8.413970e-002
3.548528e+003;8.304010e-002
3.550457e+003;8.179841e-002
3.552385e+003;8.083413e-002
3.554314e+003;8.010288e-002
3.556242e+003;7.880872e-002
3.558171e+003;7.740177e-002
3.560100e+003;7.581811e-002
3.562028e+003;7.482603e-002
3.563957e+003;7.401349e-002
3.565885e+003;7.275057e-002
3.567814e+003;7.149638e-002
3.569742e+003;7.069944e-002
3.571671e+003;6.985040e-002
3.573599e+003;6.888054e-002
3.575528e+003;6.768610e-002
3.577457e+003;6.658790e-002
3.579385e+003;6.559780e-002
3.581314e+003;6.451754e-002
3.583242e+003;6.388738e-002
3.585171e+003;6.309986e-002
3.587099e+003;6.211386e-002
3.589028e+003;6.127772e-002
3.590956e+003;6.037306e-002
3.592885e+003;5.935132e-002
3.594813e+003;5.853110e-002
3.596742e+003;5.773313e-002
3.598671e+003;5.669537e-002
3.600599e+003;5.541293e-002
3.602528e+003;5.460341e-002
3.604456e+003;5.398379e-002
3.606385e+003;5.290108e-002
3.608313e+003;5.206788e-002
3.610242e+003;5.116637e-002
3.612170e+003;4.973666e-002
3.614099e+003;4.882462e-002
3.616028e+003;4.817467e-002
3.617956e+003;4.716591e-002
3.619885e+003;4.612462e-002
3.621813e+003;4.506646e-002
3.623742e+003;4.429840e-002
3.625670e+003;4.365266e-002
3.627599e+003;4.257769e-002
3.629527e+003;4.151438e-002
3.631456e+003;4.073281e-002
3.633385e+003;3.978405e-002
3.635313e+003;3.873352e-002
3.637241e+003;3.754964e-002
3.639170e+003;3.644760e-002
3.641099e+003;3.572645e-002
3.643027e+003;3.525853e-002
3.644956e+003;3.420798e-002
3.646884e+003;3.274764e-002
3.648813e+003;3.135975e-002
3.650741e+003;3.022848e-002
3.652670e+003;2.940986e-002
3.654598e+003;2.846734e-002
3.656527e+003;2.754356e-002
3.658456e+003;2.699582e-002
3.660384e+003;2.600244e-002
3.662313e+003;2.486040e-002
3.664241e+003;2.381955e-002
3.666170e+003;2.307811e-002
3.668098e+003;2.235732e-002
3.670027e+003;2.113641e-002
3.671955e+003;2.016094e-002
3.673884e+003;1.972779e-002
3.675813e+003;1.913298e-002
3.677741e+003;1.871044e-002
3.679669e+003;1.838895e-002
3.681598e+003;1.780315e-002
3.683527e+003;1.727390e-002
3.685455e+003;1.670362e-002
3.687384e+003;1.577395e-002
3.689312e+003;1.509221e-002
3.691241e+003;1.480530e-002
3.693169e+003;1.454253e-002
3.695098e+003;1.403951e-002
3.697026e+003;1.357816e-002
3.698955e+003;1.346403e-002
3.700884e+003;1.317758e-002
3.702812e+003;1.276484e-002
3.704741e+003;1.279269e-002
3.706669e+003;1.263376e-002
3.708598e+003;1.194664e-002
3.710526e+003;1.133263e-002
3.712455e+003;1.120919e-002
3.714383e+003;1.156080e-002
3.716312e+003;1.186682e-002
3.718240e+003;1.144553e-002
3.720169e+003;1.115575e-002
3.722098e+003;1.091706e-002
3.724026e+003;1.043098e-002
3.725955e+003;1.001582e-002
3.727883e+003;9.887098e-003
3.729812e+003;1.018875e-002
3.731740e+003;1.043810e-002
3.733669e+003;1.028415e-002
3.735597e+003;9.670584e-003
3.737526e+003;9.367971e-003
3.739455e+003;9.522722e-003
3.741383e+003;9.849813e-003
3.743312e+003;9.651002e-003
3.745240e+003;9.463490e-003
3.747169e+003;9.345931e-003
3.749097e+003;8.730244e-003
3.751026e+003;8.437068e-003
3.752954e+003;8.911926e-003
3.754883e+003;9.589415e-003
3.756812e+003;9.394617e-003
3.758740e+003;8.928904e-003
3.760668e+003;8.780686e-003
3.762597e+003;8.670815e-003
3.764526e+003;8.718243e-003
3.766454e+003;9.133442e-003
3.768383e+003;9.401693e-003
3.770311e+003;9.270441e-003
3.772240e+003;9.039348e-003
3.774168e+003;9.131953e-003
3.776097e+003;9.063470e-003
3.778025e+003;8.908239e-003
3.779954e+003;8.946357e-003
3.781883e+003;8.642321e-003
3.783811e+003;8.248527e-003
3.785740e+003;8.210875e-003
3.787668e+003;8.165395e-003
3.789597e+003;8.169683e-003
3.791525e+003;8.225260e-003
3.793454e+003;8.211888e-003
3.795382e+003;8.290673e-003
3.797311e+003;8.433892e-003
3.799240e+003;8.454164e-003
3.801168e+003;8.333397e-003
3.803097e+003;8.196930e-003
3.805025e+003;7.994014e-003
3.806954e+003;7.734085e-003
3.808882e+003;7.830832e-003
3.810811e+003;8.359743e-003
3.812739e+003;8.768075e-003
3.814668e+003;8.382510e-003
3.816596e+003;8.151552e-003
3.818525e+003;8.479537e-003
3.820454e+003;8.525524e-003
3.822382e+003;8.456798e-003
3.824311e+003;8.735315e-003
3.826239e+003;8.787618e-003
3.828168e+003;8.543569e-003
3.830096e+003;8.161984e-003
3.832025e+003;8.279764e-003
3.833953e+003;8.720406e-003
3.835882e+003;8.857409e-003
3.837811e+003;8.850275e-003
3.839739e+003;8.742820e-003
3.841667e+003;8.410582e-003
3.843596e+003;8.428115e-003
3.845525e+003;8.623630e-003
3.847453e+003;8.564250e-003
3.849382e+003;8.812706e-003
3.851310e+003;8.796037e-003
3.853239e+003;8.168433e-003
3.855167e+003;7.991212e-003
3.857096e+003;8.302798e-003
3.859024e+003;8.564115e-003
3.860953e+003;8.945850e-003
3.862882e+003;9.171207e-003
3.864810e+003;9.248948e-003
3.866739e+003;9.135236e-003
3.868667e+003;9.089590e-003
3.870596e+003;9.870828e-003
3.872524e+003;1.035031e-002
3.874453e+003;9.785724e-003
3.876381e+003;9.627796e-003
3.878310e+003;9.770373e-003
3.880239e+003;9.586570e-003
3.882167e+003;9.910454e-003
3.884096e+003;1.029151e-002
3.886024e+003;1.010453e-002
3.887953e+003;9.960627e-003
3.889881e+003;1.005580e-002
3.891810e+003;1.006787e-002
3.893738e+003;1.012468e-002
3.895667e+003;1.041530e-002
3.897595e+003;1.058108e-002
3.899524e+003;1.049021e-002
3.901453e+003;1.052388e-002
3.903381e+003;1.102549e-002
3.905310e+003;1.140603e-002
3.907238e+003;1.138202e-002
3.909167e+003;1.146570e-002
3.911095e+003;1.161987e-002
3.913024e+003;1.179725e-002
3.914952e+003;1.180005e-002
3.916881e+003;1.202842e-002
3.918810e+003;1.214811e-002
3.920738e+003;1.201330e-002
3.922667e+003;1.185762e-002
3.924595e+003;1.177175e-002
3.926524e+003;1.187097e-002
3.928452e+003;1.205918e-002
3.930381e+003;1.199344e-002
3.932309e+003;1.223524e-002
3.934238e+003;1.256722e-002
3.936167e+003;1.264062e-002
3.938095e+003;1.263881e-002
3.940023e+003;1.240224e-002
3.941952e+003;1.248540e-002
3.943881e+003;1.281217e-002
3.945809e+003;1.305235e-002
3.947738e+003;1.320381e-002
3.949666e+003;1.326639e-002
3.951595e+003;1.338713e-002
3.953523e+003;1.344916e-002
3.955452e+003;1.330366e-002
3.957380e+003;1.321102e-002
3.959309e+003;1.294918e-002
3.961238e+003;1.279224e-002
3.963166e+003;1.270660e-002
3.965095e+003;1.285350e-002
3.967023e+003;1.357105e-002
3.968952e+003;1.407449e-002
3.970880e+003;1.394267e-002
3.972809e+003;1.373244e-002
3.974737e+003;1.344540e-002
3.976666e+003;1.362103e-002
3.978594e+003;1.422671e-002
3.980523e+003;1.454421e-002
3.982452e+003;1.432800e-002
3.984380e+003;1.396248e-002
3.986309e+003;1.367543e-002
3.988237e+003;1.341656e-002
3.990166e+003;1.368329e-002
3.992094e+003;1.384414e-002
3.994023e+003;1.407373e-002
3.995951e+003;1.412196e-002
3.997880e+003;1.362657e-002
3.999809e+003;1.355095e-002
4.001737e+003;0.000000e+000
