3.992094e+002;0.000000e+000
4.011380e+002;0.000000e+000
4.030665e+002;0.000000e+000
4.049951e+002;0.000000e+000
4.069236e+002;0.000000e+000
4.088522e+002;0.000000e+000
4.107807e+002;0.000000e+000
4.127093e+002;0.000000e+000
4.146378e+002;0.000000e+000
4.165664e+002;0.000000e+000
4.184949e+002;0.000000e+000
4.204235e+002;0.000000e+000
4.223520e+002;0.000000e+000
4.242806e+002;0.000000e+000
4.262091e+002;0.000000e+000
4.281377e+002;0.000000e+000
4.300662e+002;0.000000e+000
4.319948e+002;0.000000e+000
4.339233e+002;0.000000e+000
4.358519e+002;0.000000e+000
4.377804e+002;0.000000e+000
4.397090e+002;0.000000e+000
4.416375e+002;0.000000e+000
4.435660e+002;0.000000e+000
4.454946e+002;0.000000e+000
4.474232e+002;0.000000e+000
4.493517e+002;0.000000e+000
4.512802e+002;0.000000e+000
4.532088e+002;0.000000e+000
4.551373e+002;0.000000e+000
4.570659e+002;0.000000e+000
4.589944e+002;0.000000e+000
4.609230e+002;0.000000e+000
4.628515e+002;0.000000e+000
4.647801e+002;0.000000e+000
4.667086e+002;0.000000e+000
4.686372e+002;0.000000e+000
4.705657e+002;0.000000e+000
4.724943e+002;0.000000e+000
4.744228e+002;0.000000e+000
4.763513e+002;0.000000e+000
4.782799e+002;0.000000e+000
4.802085e+002;0.000000e+000
4.821370e+002;0.000000e+000
4.840656e+002;0.000000e+000
4.859941e+002;0.000000e+000
4.879226e+002;0.000000e+000
4.898512e+002;0.000000e+000
4.917798e+002;0.000000e+000
4.937083e+002;0.000000e+000
4.956368e+002;0.000000e+000
4.975654e+002;0.000000e+000
4.994939e+002;0.000000e+000
5.014225e+002;0.000000e+000
5.033510e+002;0.000000e+000
5.052796e+002;0.000000e+000
5.072081e+002;0.000000e+000
5.091367e+002;0.000000e+000
5.110652e+002;0.000000e+000
5.129938e+002;0.000000e+000
5.149223e+002;0.000000e+000
5.168509e+002;0.000000e+000
5.187794e+002;0.000000e+000
5.207079e+002;0.000000e+000
5.226365e+002;0.000000e+000
5.245651e+002;0.000000e+000
5.264936e+002;0.000000e+000
5.284222e+002;0.000000e+000
5.303507e+002;0.000000e+000
5.322792e+002;0.000000e+000
5.342078e+002;0.000000e+000
5.361364e+002;0.000000e+000
5.380649e+002;0.000000e+000
5.399935e+002;0.000000e+000
5.419220e+002;0.000000e+000
5.438505e+002;0.000000e+000
5.457791e+002;0.000000e+000
5.477076e+002;0.000000e+000
5.496362e+002;0.000000e+000
5.515648e+002;0.000000e+000
5.534933e+002;0.000000e+000
5.554218e+002;0.000000e+000
5.573504e+002;0.000000e+000
5.592789e+002;0.000000e+000
5.612075e+002;0.000000e+000
5.631360e+002;0.000000e+000
5.650646e+002;0.000000e+000
5.669931e+002;0.000000e+000
5.689217e+002;0.000000e+000
5.708502e+002;0.000000e+000
5.727787e+002;0.000000e+000
5.747073e+002;0.000000e+000
5.766359e+002;0.000000e+000
5.785644e+002;0.000000e+000
5.804930e+002;0.000000e+000
5.824215e+002;0.000000e+000
5.843500e+002;0.000000e+000
5.862786e+002;0.000000e+000
5.882072e+002;0.000000e+000
5.901357e+002;0.000000e+000
5.920643e+002;0.000000e+000
5.939928e+002;0.000000e+000
5.959213e+002;0.000000e+000
5.978499e+002;0.000000e+000
5.997784e+002;3.142382e-001
6.017070e+002;3.079307e-001
6.036355e+002;3.064727e-001
6.055641e+002;3.061157e-001
6.074926e+002;3.013947e-001
6.094211e+002;2.985244e-001
6.113497e+002;2.909395e-001
6.132783e+002;2.888184e-001
6.152068e+002;2.982043e-001
6.171354e+002;2.991105e-001
6.190639e+002;2.922678e-001
6.209924e+002;2.889727e-001
6.229210e+002;2.859568e-001
6.248495e+002;2.848741e-001
6.267781e+002;2.826905e-001
6.287067e+002;2.800453e-001
6.306352e+002;2.783335e-001
6.325637e+002;2.743739e-001
6.344923e+002;2.712213e-001
6.364208e+002;2.718583e-001
6.383494e+002;2.719977e-001
6.402780e+002;2.705285e-001
6.422065e+002;2.668657e-001
6.441350e+002;2.612405e-001
6.460636e+002;2.609853e-001
6.479921e+002;2.657183e-001
6.499207e+002;2.659073e-001
6.518492e+002;2.649802e-001
6.537778e+002;2.652170e-001
6.557063e+002;2.686933e-001
6.576349e+002;2.732728e-001
6.595634e+002;2.743478e-001
6.614919e+002;2.727626e-001
6.634205e+002;2.711782e-001
6.653491e+002;2.689984e-001
6.672776e+002;2.674077e-001
6.692062e+002;2.658329e-001
6.711347e+002;2.599226e-001
6.730632e+002;2.517633e-001
6.749918e+002;2.446832e-001
6.769203e+002;2.370538e-001
6.788489e+002;2.303014e-001
6.807775e+002;2.230261e-001
6.827060e+002;2.163795e-001
6.846345e+002;2.127758e-001
6.865631e+002;2.130577e-001
6.884916e+002;2.116489e-001
6.904202e+002;2.087073e-001
6.923488e+002;2.068448e-001
6.942773e+002;2.069559e-001
6.962058e+002;2.061281e-001
6.981344e+002;2.049809e-001
7.000629e+002;2.053915e-001
7.019915e+002;2.048949e-001
7.039200e+002;2.039176e-001
7.058486e+002;2.023953e-001
7.077771e+002;2.006898e-001
7.097057e+002;1.989221e-001
7.116342e+002;1.986985e-001
7.135627e+002;1.980881e-001
7.154913e+002;1.963586e-001
7.174199e+002;1.950290e-001
7.193484e+002;1.949297e-001
7.212770e+002;1.938023e-001
7.232055e+002;1.914859e-001
7.251340e+002;1.888369e-001
7.270626e+002;1.877646e-001
7.289911e+002;1.869059e-001
7.309197e+002;1.843618e-001
7.328483e+002;1.817286e-001
7.347768e+002;1.801751e-001
7.367053e+002;1.791849e-001
7.386339e+002;1.775751e-001
7.405624e+002;1.763881e-001
7.424910e+002;1.749347e-001
7.444196e+002;1.739638e-001
7.463481e+002;1.726331e-001
7.482766e+002;1.702689e-001
7.502052e+002;1.686380e-001
7.521337e+002;1.673417e-001
7.540623e+002;1.661312e-001
7.559908e+002;1.646507e-001
7.579194e+002;1.630325e-001
7.598479e+002;1.621117e-001
7.617765e+002;1.611520e-001
7.637050e+002;1.597612e-001
7.656335e+002;1.583401e-001
7.675621e+002;1.574429e-001
7.694907e+002;1.557986e-001
7.714192e+002;1.538465e-001
7.733478e+002;1.522653e-001
7.752763e+002;1.508821e-001
7.772048e+002;1.502724e-001
7.791334e+002;1.496139e-001
7.810620e+002;1.490249e-001
7.829905e+002;1.479795e-001
7.849191e+002;1.463415e-001
7.868476e+002;1.444552e-001
7.887761e+002;1.430013e-001
7.907047e+002;1.414588e-001
7.926332e+002;1.398939e-001
7.945618e+002;1.388599e-001
7.964903e+002;1.377663e-001
7.984189e+002;1.369354e-001
8.003474e+002;1.365798e-001
8.022759e+002;1.369493e-001
8.042045e+002;1.364084e-001
8.061331e+002;1.349290e-001
8.080616e+002;1.336598e-001
8.099902e+002;1.333164e-001
8.119187e+002;1.330854e-001
8.138472e+002;1.328108e-001
8.157758e+002;1.326211e-001
8.177043e+002;1.323496e-001
8.196329e+002;1.322118e-001
8.215615e+002;1.320775e-001
8.234900e+002;1.317866e-001
8.254185e+002;1.315816e-001
8.273471e+002;1.320413e-001
8.292756e+002;1.326085e-001
8.312042e+002;1.323175e-001
8.331328e+002;1.313743e-001
8.350613e+002;1.302595e-001
8.369898e+002;1.292154e-001
8.389184e+002;1.286524e-001
8.408469e+002;1.279488e-001
8.427755e+002;1.269733e-001
8.447040e+002;1.263043e-001
8.466326e+002;1.257898e-001
8.485611e+002;1.257168e-001
8.504897e+002;1.253334e-001
8.524182e+002;1.245524e-001
8.543467e+002;1.245302e-001
8.562753e+002;1.248545e-001
8.582039e+002;1.253020e-001
8.601324e+002;1.257357e-001
8.620610e+002;1.263267e-001
8.639895e+002;1.271640e-001
8.659180e+002;1.284897e-001
8.678466e+002;1.304545e-001
8.697751e+002;1.325274e-001
8.717037e+002;1.351220e-001
8.736323e+002;1.387877e-001
8.755608e+002;1.433244e-001
8.774893e+002;1.485357e-001
8.794179e+002;1.545401e-001
8.813464e+002;1.608274e-001
8.832750e+002;1.673328e-001
8.852036e+002;1.742935e-001
8.871321e+002;1.814109e-001
8.890606e+002;1.881519e-001
8.909892e+002;1.939150e-001
8.929177e+002;1.983979e-001
8.948463e+002;2.003959e-001
8.967748e+002;1.997969e-001
8.987034e+002;1.976743e-001
9.006319e+002;1.946547e-001
9.025605e+002;1.911904e-001
9.044890e+002;1.868379e-001
9.064175e+002;1.822691e-001
9.083461e+002;1.779193e-001
9.102747e+002;1.736668e-001
9.122032e+002;1.703262e-001
9.141318e+002;1.682237e-001
9.160603e+002;1.667314e-001
9.179888e+002;1.660150e-001
9.199174e+002;1.658544e-001
9.218459e+002;1.664993e-001
9.237745e+002;1.679401e-001
9.257031e+002;1.692962e-001
9.276316e+002;1.707066e-001
9.295601e+002;1.727750e-001
9.314887e+002;1.745693e-001
9.334172e+002;1.763755e-001
9.353458e+002;1.787343e-001
9.372744e+002;1.808289e-001
9.392029e+002;1.827312e-001
9.411314e+002;1.857099e-001
9.430600e+002;1.896931e-001
9.449885e+002;1.938818e-001
9.469171e+002;1.983415e-001
9.488456e+002;2.035962e-001
9.507742e+002;2.095817e-001
9.527027e+002;2.161299e-001
9.546313e+002;2.226740e-001
9.565598e+002;2.295302e-001
9.584883e+002;2.370437e-001
9.604169e+002;2.452802e-001
9.623455e+002;2.532873e-001
9.642740e+002;2.607334e-001
9.662026e+002;2.684371e-001
9.681311e+002;2.771475e-001
9.700596e+002;2.867552e-001
9.719882e+002;2.971378e-001
9.739167e+002;3.095396e-001
9.758453e+002;3.241831e-001
9.777739e+002;3.406231e-001
9.797024e+002;3.591037e-001
9.816309e+002;3.797951e-001
9.835595e+002;4.020895e-001
9.854880e+002;4.246618e-001
9.874166e+002;4.465622e-001
9.893452e+002;4.658303e-001
9.912737e+002;4.813369e-001
9.932022e+002;4.929964e-001
9.951307e+002;5.002767e-001
9.970593e+002;5.034277e-001
9.989879e+002;5.046500e-001
1.000916e+003;5.061060e-001
1.002845e+003;5.086987e-001
1.004773e+003;5.129038e-001
1.006702e+003;5.205805e-001
1.008631e+003;5.307856e-001
1.010559e+003;5.415154e-001
1.012488e+003;5.528215e-001
1.014416e+003;5.627682e-001
1.016345e+003;5.705871e-001
1.018273e+003;5.766253e-001
1.020202e+003;5.791550e-001
1.022130e+003;5.787894e-001
1.024059e+003;5.755560e-001
1.025988e+003;5.700565e-001
1.027916e+003;5.636557e-001
1.029845e+003;5.562451e-001
1.031773e+003;5.485648e-001
1.033702e+003;5.415155e-001
1.035630e+003;5.348130e-001
1.037559e+003;5.284978e-001
1.039487e+003;5.235677e-001
1.041416e+003;5.198798e-001
1.043344e+003;5.158767e-001
1.045273e+003;5.111699e-001
1.047202e+003;5.064401e-001
1.049130e+003;5.019268e-001
1.051059e+003;4.966923e-001
1.052987e+003;4.911925e-001
1.054916e+003;4.863960e-001
1.056844e+003;4.807234e-001
1.058773e+003;4.741808e-001
1.060701e+003;4.663257e-001
1.062630e+003;4.566425e-001
1.064558e+003;4.470424e-001
1.066487e+003;4.375066e-001
1.068416e+003;4.280818e-001
1.070344e+003;4.193697e-001
1.072273e+003;4.094749e-001
1.074201e+003;3.995945e-001
1.076130e+003;3.902658e-001
1.078058e+003;3.809260e-001
1.079987e+003;3.723848e-001
1.081915e+003;3.652337e-001
1.083844e+003;3.579440e-001
1.085773e+003;3.507476e-001
1.087701e+003;3.436702e-001
1.089630e+003;3.366074e-001
1.091558e+003;3.299660e-001
1.093487e+003;3.237893e-001
1.095415e+003;3.169806e-001
1.097344e+003;3.098367e-001
1.099272e+003;3.033341e-001
1.101201e+003;2.963829e-001
1.103129e+003;2.893733e-001
1.105058e+003;2.830751e-001
1.106987e+003;2.776410e-001
1.108915e+003;2.722969e-001
1.110844e+003;2.672114e-001
1.112772e+003;2.625086e-001
1.114701e+003;2.576276e-001
1.116629e+003;2.523922e-001
1.118558e+003;2.466009e-001
1.120486e+003;2.399772e-001
1.122415e+003;2.328987e-001
1.124344e+003;2.259715e-001
1.126272e+003;2.195135e-001
1.128201e+003;2.126744e-001
1.130129e+003;2.053016e-001
1.132058e+003;1.991579e-001
1.133986e+003;1.944704e-001
1.135915e+003;1.897066e-001
1.137843e+003;1.851756e-001
1.139772e+003;1.821673e-001
1.141700e+003;1.802642e-001
1.143629e+003;1.790508e-001
1.145557e+003;1.790116e-001
1.147486e+003;1.795186e-001
1.149415e+003;1.804606e-001
1.151343e+003;1.819153e-001
1.153272e+003;1.832352e-001
1.155200e+003;1.837565e-001
1.157129e+003;1.829816e-001
1.159057e+003;1.806541e-001
1.160986e+003;1.767428e-001
1.162914e+003;1.712697e-001
1.164843e+003;1.646595e-001
1.166771e+003;1.572010e-001
1.168700e+003;1.491366e-001
1.170629e+003;1.414543e-001
1.172557e+003;1.342903e-001
1.174486e+003;1.280198e-001
1.176414e+003;1.228912e-001
1.178343e+003;1.184601e-001
1.180271e+003;1.144253e-001
1.182200e+003;1.113169e-001
1.184128e+003;1.097258e-001
1.186057e+003;1.091615e-001
1.187986e+003;1.097339e-001
1.189914e+003;1.121285e-001
1.191843e+003;1.153873e-001
1.193771e+003;1.183795e-001
1.195700e+003;1.209703e-001
1.197628e+003;1.230691e-001
1.199557e+003;1.237786e-001
1.201485e+003;1.232321e-001
1.203414e+003;1.218181e-001
1.205343e+003;1.196955e-001
1.207271e+003;1.177042e-001
1.209200e+003;1.156879e-001
1.211128e+003;1.141993e-001
1.213057e+003;1.136844e-001
1.214985e+003;1.137661e-001
1.216914e+003;1.149448e-001
1.218842e+003;1.170266e-001
1.220771e+003;1.194732e-001
1.222699e+003;1.220362e-001
1.224628e+003;1.245166e-001
1.226557e+003;1.265557e-001
1.228485e+003;1.280549e-001
1.230414e+003;1.286893e-001
1.232342e+003;1.289462e-001
1.234271e+003;1.296145e-001
1.236199e+003;1.302446e-001
1.238128e+003;1.302025e-001
1.240056e+003;1.300575e-001
1.241985e+003;1.298160e-001
1.243913e+003;1.296004e-001
1.245842e+003;1.298825e-001
1.247771e+003;1.303420e-001
1.249699e+003;1.308587e-001
1.251628e+003;1.319878e-001
1.253556e+003;1.335229e-001
1.255485e+003;1.348601e-001
1.257413e+003;1.357173e-001
1.259342e+003;1.362848e-001
1.261270e+003;1.362415e-001
1.263199e+003;1.359073e-001
1.265127e+003;1.354223e-001
1.267056e+003;1.344517e-001
1.268985e+003;1.331531e-001
1.270913e+003;1.321020e-001
1.272842e+003;1.314909e-001
1.274770e+003;1.306642e-001
1.276699e+003;1.295550e-001
1.278627e+003;1.285276e-001
1.280556e+003;1.277364e-001
1.282484e+003;1.269515e-001
1.284413e+003;1.264614e-001
1.286342e+003;1.267649e-001
1.288270e+003;1.276805e-001
1.290199e+003;1.292578e-001
1.292127e+003;1.314456e-001
1.294056e+003;1.335445e-001
1.295984e+003;1.356532e-001
1.297913e+003;1.377542e-001
1.299841e+003;1.395127e-001
1.301770e+003;1.413384e-001
1.303698e+003;1.434563e-001
1.305627e+003;1.455434e-001
1.307556e+003;1.477571e-001
1.309484e+003;1.496840e-001
1.311413e+003;1.512075e-001
1.313341e+003;1.522751e-001
1.315270e+003;1.528004e-001
1.317198e+003;1.527668e-001
1.319127e+003;1.522801e-001
1.321055e+003;1.517380e-001
1.322984e+003;1.512932e-001
1.324912e+003;1.510278e-001
1.326841e+003;1.510084e-001
1.328770e+003;1.510783e-001
1.330698e+003;1.511046e-001
1.332627e+003;1.511226e-001
1.334555e+003;1.513414e-001
1.336484e+003;1.516356e-001
1.338412e+003;1.515633e-001
1.340341e+003;1.510153e-001
1.342269e+003;1.507344e-001
1.344198e+003;1.506659e-001
1.346126e+003;1.504147e-001
1.348055e+003;1.504316e-001
1.349984e+003;1.507288e-001
1.351912e+003;1.509940e-001
1.353841e+003;1.516510e-001
1.355769e+003;1.526435e-001
1.357698e+003;1.537560e-001
1.359626e+003;1.547932e-001
1.361555e+003;1.554893e-001
1.363483e+003;1.558896e-001
1.365412e+003;1.558737e-001
1.367341e+003;1.554669e-001
1.369269e+003;1.546688e-001
1.371198e+003;1.533066e-001
1.373126e+003;1.515837e-001
1.375055e+003;1.497111e-001
1.376983e+003;1.478861e-001
1.378912e+003;1.458903e-001
1.380840e+003;1.432073e-001
1.382769e+003;1.404462e-001
1.384698e+003;1.380285e-001
1.386626e+003;1.361261e-001
1.388555e+003;1.344079e-001
1.390483e+003;1.329938e-001
1.392412e+003;1.322351e-001
1.394340e+003;1.319068e-001
1.396269e+003;1.314865e-001
1.398197e+003;1.311634e-001
1.400126e+003;1.308994e-001
1.402054e+003;1.304832e-001
1.403983e+003;1.305761e-001
1.405911e+003;1.309622e-001
1.407840e+003;1.309165e-001
1.409769e+003;1.306272e-001
1.411697e+003;1.307016e-001
1.413626e+003;1.309325e-001
1.415554e+003;1.308563e-001
1.417483e+003;1.306030e-001
1.419411e+003;1.302759e-001
1.421340e+003;1.300193e-001
1.423268e+003;1.298305e-001
1.425197e+003;1.295309e-001
1.427125e+003;1.287928e-001
1.429054e+003;1.279598e-001
1.430983e+003;1.271789e-001
1.432911e+003;1.263583e-001
1.434840e+003;1.253090e-001
1.436768e+003;1.241259e-001
1.438697e+003;1.233297e-001
1.440625e+003;1.225191e-001
1.442554e+003;1.212809e-001
1.444482e+003;1.199661e-001
1.446411e+003;1.187668e-001
1.448340e+003;1.174942e-001
1.450268e+003;1.162143e-001
1.452197e+003;1.148517e-001
1.454125e+003;1.133028e-001
1.456054e+003;1.116517e-001
1.457982e+003;1.100123e-001
1.459911e+003;1.085582e-001
1.461839e+003;1.070760e-001
1.463768e+003;1.054357e-001
1.465697e+003;1.034867e-001
1.467625e+003;1.013111e-001
1.469554e+003;9.917703e-002
1.471482e+003;9.683331e-002
1.473411e+003;9.428830e-002
1.475339e+003;9.161169e-002
1.477268e+003;8.848660e-002
1.479196e+003;8.549690e-002
1.481125e+003;8.297792e-002
1.483053e+003;8.045704e-002
1.484982e+003;7.810069e-002
1.486911e+003;7.599763e-002
1.488839e+003;7.361648e-002
1.490768e+003;7.129303e-002
1.492696e+003;6.947666e-002
1.494625e+003;6.790853e-002
1.496553e+003;6.631459e-002
1.498482e+003;6.499882e-002
1.500410e+003;6.372209e-002
1.502339e+003;6.250194e-002
1.504267e+003;6.133508e-002
1.506196e+003;5.996938e-002
1.508125e+003;5.892600e-002
1.510053e+003;5.825574e-002
1.511982e+003;5.747835e-002
1.513910e+003;5.654611e-002
1.515839e+003;5.569979e-002
1.517767e+003;5.528594e-002
1.519696e+003;5.487873e-002
1.521624e+003;5.430293e-002
1.523553e+003;5.393903e-002
1.525481e+003;5.364407e-002
1.527410e+003;5.329011e-002
1.529339e+003;5.291280e-002
1.531267e+003;5.261868e-002
1.533196e+003;5.239485e-002
1.535124e+003;5.233527e-002
1.537053e+003;5.200535e-002
1.538981e+003;5.146763e-002
1.540910e+003;5.133814e-002
1.542838e+003;5.154102e-002
1.544767e+003;5.160803e-002
1.546695e+003;5.190348e-002
1.548624e+003;5.218907e-002
1.550553e+003;5.230458e-002
1.552481e+003;5.242319e-002
1.554410e+003;5.230866e-002
1.556338e+003;5.218735e-002
1.558267e+003;5.235119e-002
1.560195e+003;5.242936e-002
1.562124e+003;5.250844e-002
1.564052e+003;5.289139e-002
1.565981e+003;5.329869e-002
1.567910e+003;5.377125e-002
1.569838e+003;5.408957e-002
1.571767e+003;5.434934e-002
1.573695e+003;5.467466e-002
1.575624e+003;5.507251e-002
1.577552e+003;5.561011e-002
1.579481e+003;5.626760e-002
1.581409e+003;5.687731e-002
1.583338e+003;5.750555e-002
1.585266e+003;5.823766e-002
1.587195e+003;5.894342e-002
1.589124e+003;5.961533e-002
1.591052e+003;6.037199e-002
1.592981e+003;6.115992e-002
1.594909e+003;6.206794e-002
1.596838e+003;6.306392e-002
1.598766e+003;6.389080e-002
1.600695e+003;6.462789e-002
1.602623e+003;6.540127e-002
1.604552e+003;6.638373e-002
1.606480e+003;6.731882e-002
1.608409e+003;6.819769e-002
1.610338e+003;6.920651e-002
1.612266e+003;7.007886e-002
1.614195e+003;7.096837e-002
1.616123e+003;7.187777e-002
1.618052e+003;7.261911e-002
1.619980e+003;7.366430e-002
1.621909e+003;7.457881e-002
1.623837e+003;7.531698e-002
1.625766e+003;7.609292e-002
1.627694e+003;7.684257e-002
1.629623e+003;7.739963e-002
1.631552e+003;7.776306e-002
1.633480e+003;7.813091e-002
1.635409e+003;7.848788e-002
1.637337e+003;7.882794e-002
1.639266e+003;7.901308e-002
1.641194e+003;7.905629e-002
1.643123e+003;7.913734e-002
1.645051e+003;7.889087e-002
1.646980e+003;7.852480e-002
1.648909e+003;7.807408e-002
1.650837e+003;7.747336e-002
1.652766e+003;7.662720e-002
1.654694e+003;7.618369e-002
1.656623e+003;7.580651e-002
1.658551e+003;7.486130e-002
1.660480e+003;7.371561e-002
1.662408e+003;7.275300e-002
1.664337e+003;7.191691e-002
1.666266e+003;7.085056e-002
1.668194e+003;6.958625e-002
1.670123e+003;6.834763e-002
1.672051e+003;6.737407e-002
1.673980e+003;6.620807e-002
1.675908e+003;6.477086e-002
1.677837e+003;6.344250e-002
1.679765e+003;6.205545e-002
1.681694e+003;6.069263e-002
1.683622e+003;5.948988e-002
1.685551e+003;5.838477e-002
1.687479e+003;5.744461e-002
1.689408e+003;5.668106e-002
1.691337e+003;5.606397e-002
1.693265e+003;5.527126e-002
1.695194e+003;5.444192e-002
1.697122e+003;5.422466e-002
1.699051e+003;5.421767e-002
1.700979e+003;5.380347e-002
1.702908e+003;5.339112e-002
1.704836e+003;5.311334e-002
1.706765e+003;5.284768e-002
1.708693e+003;5.257698e-002
1.710622e+003;5.230511e-002
1.712551e+003;5.186483e-002
1.714479e+003;5.126960e-002
1.716408e+003;5.059637e-002
1.718336e+003;4.998418e-002
1.720265e+003;4.962770e-002
1.722193e+003;4.893516e-002
1.724122e+003;4.784257e-002
1.726050e+003;4.695454e-002
1.727979e+003;4.619412e-002
1.729908e+003;4.521826e-002
1.731836e+003;4.409738e-002
1.733765e+003;4.294620e-002
1.735693e+003;4.175448e-002
1.737622e+003;4.047057e-002
1.739550e+003;3.908824e-002
1.741479e+003;3.803726e-002
1.743407e+003;3.706849e-002
1.745336e+003;3.601698e-002
1.747265e+003;3.511653e-002
1.749193e+003;3.462016e-002
1.751122e+003;3.422444e-002
1.753050e+003;3.386504e-002
1.754979e+003;3.353403e-002
1.756907e+003;3.308838e-002
1.758836e+003;3.286442e-002
1.760764e+003;3.260882e-002
1.762693e+003;3.238450e-002
1.764621e+003;3.250378e-002
1.766550e+003;3.250471e-002
1.768479e+003;3.236304e-002
1.770407e+003;3.211059e-002
1.772336e+003;3.177401e-002
1.774264e+003;3.148581e-002
1.776193e+003;3.131049e-002
1.778121e+003;3.131520e-002
1.780050e+003;3.124045e-002
1.781978e+003;3.100346e-002
1.783907e+003;3.081020e-002
1.785835e+003;3.071381e-002
1.787764e+003;3.044505e-002
1.789693e+003;3.010439e-002
1.791621e+003;2.991763e-002
1.793550e+003;2.967330e-002
1.795478e+003;2.954702e-002
1.797407e+003;2.951067e-002
1.799335e+003;2.937019e-002
1.801264e+003;2.909821e-002
1.803192e+003;2.903582e-002
1.805121e+003;2.911724e-002
1.807049e+003;2.914385e-002
1.808978e+003;2.902041e-002
1.810907e+003;2.887548e-002
1.812835e+003;2.887212e-002
1.814764e+003;2.896413e-002
1.816692e+003;2.868940e-002
1.818621e+003;2.836405e-002
1.820549e+003;2.824812e-002
1.822478e+003;2.806940e-002
1.824406e+003;2.790239e-002
1.826335e+003;2.789603e-002
1.828264e+003;2.770895e-002
1.830192e+003;2.745319e-002
1.832121e+003;2.741356e-002
1.834049e+003;2.725671e-002
1.835978e+003;2.708567e-002
1.837906e+003;2.706856e-002
1.839835e+003;2.694674e-002
1.841763e+003;2.685332e-002
1.843692e+003;2.672705e-002
1.845620e+003;2.668354e-002
1.847549e+003;2.659810e-002
1.849478e+003;2.627519e-002
1.851406e+003;2.614025e-002
1.853335e+003;2.631099e-002
1.855263e+003;2.625861e-002
1.857192e+003;2.615208e-002
1.859120e+003;2.602137e-002
1.861049e+003;2.584434e-002
1.862977e+003;2.572135e-002
1.864906e+003;2.579796e-002
1.866834e+003;2.568155e-002
1.868763e+003;2.544153e-002
1.870692e+003;2.552336e-002
1.872620e+003;2.543724e-002
1.874549e+003;2.508377e-002
1.876477e+003;2.494584e-002
1.878406e+003;2.494770e-002
1.880334e+003;2.505819e-002
1.882263e+003;2.503870e-002
1.884191e+003;2.483706e-002
1.886120e+003;2.479749e-002
1.888048e+003;2.487555e-002
1.889977e+003;2.504042e-002
1.891906e+003;2.496258e-002
1.893834e+003;2.485148e-002
1.895763e+003;2.487166e-002
1.897691e+003;2.486608e-002
1.899620e+003;2.485124e-002
1.901548e+003;2.488008e-002
1.903477e+003;2.501368e-002
1.905405e+003;2.504074e-002
1.907334e+003;2.497581e-002
1.909262e+003;2.502586e-002
1.911191e+003;2.525118e-002
1.913120e+003;2.549395e-002
1.915048e+003;2.551430e-002
1.916977e+003;2.569811e-002
1.918905e+003;2.612305e-002
1.920834e+003;2.630262e-002
1.922762e+003;2.619899e-002
1.924691e+003;2.604740e-002
1.926619e+003;2.621395e-002
1.928548e+003;2.645898e-002
1.930477e+003;2.659388e-002
1.932405e+003;2.658986e-002
1.934334e+003;2.666962e-002
1.936262e+003;2.679700e-002
1.938191e+003;2.687158e-002
1.940119e+003;2.719934e-002
1.942048e+003;2.741200e-002
1.943976e+003;2.723406e-002
1.945905e+003;2.710566e-002
1.947833e+003;2.739584e-002
1.949762e+003;2.771524e-002
1.951691e+003;2.780955e-002
1.953619e+003;2.803198e-002
1.955548e+003;2.843051e-002
1.957476e+003;2.854854e-002
1.959405e+003;2.843656e-002
1.961333e+003;2.845825e-002
1.963262e+003;2.872635e-002
1.965190e+003;2.891610e-002
1.967119e+003;2.894798e-002
1.969047e+003;2.885629e-002
1.970976e+003;2.902300e-002
1.972905e+003;2.934466e-002
1.974833e+003;2.951695e-002
1.976762e+003;2.955908e-002
1.978690e+003;2.974795e-002
1.980619e+003;2.988387e-002
1.982547e+003;3.006106e-002
1.984476e+003;3.033556e-002
1.986404e+003;3.022930e-002
1.988333e+003;3.004391e-002
1.990261e+003;3.024468e-002
1.992190e+003;3.057116e-002
1.994119e+003;3.078067e-002
1.996047e+003;3.069258e-002
1.997976e+003;3.056953e-002
1.999904e+003;3.074276e-002
2.001833e+003;3.080589e-002
2.003761e+003;3.073298e-002
2.005690e+003;3.093083e-002
2.007618e+003;3.112799e-002
2.009547e+003;3.137624e-002
2.011476e+003;3.155528e-002
2.013404e+003;3.182937e-002
2.015333e+003;3.214384e-002
2.017261e+003;3.232938e-002
2.019190e+003;3.258135e-002
2.021118e+003;3.291034e-002
2.023047e+003;3.295731e-002
2.024975e+003;3.289440e-002
2.026904e+003;3.295674e-002
2.028833e+003;3.294991e-002
2.030761e+003;3.315346e-002
2.032690e+003;3.348010e-002
2.034618e+003;3.352913e-002
2.036547e+003;3.352186e-002
2.038475e+003;3.358150e-002
2.040404e+003;3.368543e-002
2.042332e+003;3.387979e-002
2.044261e+003;3.392776e-002
2.046189e+003;3.391669e-002
2.048118e+003;3.418798e-002
2.050047e+003;3.431690e-002
2.051975e+003;3.417081e-002
2.053904e+003;3.432028e-002
2.055832e+003;3.448397e-002
2.057761e+003;3.426757e-002
2.059689e+003;3.415485e-002
2.061618e+003;3.427933e-002
2.063546e+003;3.417468e-002
2.065475e+003;3.395793e-002
2.067404e+003;3.392447e-002
2.069332e+003;3.419723e-002
2.071260e+003;3.444074e-002
2.073189e+003;3.446789e-002
2.075118e+003;3.448354e-002
2.077046e+003;3.444616e-002
2.078975e+003;3.432365e-002
2.080903e+003;3.455852e-002
2.082832e+003;3.467941e-002
2.084760e+003;3.453674e-002
2.086689e+003;3.449433e-002
2.088617e+003;3.459048e-002
2.090546e+003;3.446854e-002
2.092475e+003;3.445147e-002
2.094403e+003;3.467833e-002
2.096332e+003;3.480949e-002
2.098260e+003;3.474552e-002
2.100189e+003;3.467072e-002
2.102117e+003;3.469003e-002
2.104046e+003;3.491616e-002
2.105974e+003;3.519510e-002
2.107903e+003;3.541096e-002
2.109832e+003;3.555669e-002
2.111760e+003;3.559905e-002
2.113688e+003;3.566577e-002
2.115617e+003;3.551400e-002
2.117546e+003;3.542351e-002
2.119474e+003;3.568487e-002
2.121403e+003;3.587995e-002
2.123331e+003;3.578985e-002
2.125260e+003;3.558366e-002
2.127188e+003;3.552335e-002
2.129117e+003;3.576509e-002
2.131045e+003;3.610011e-002
2.132974e+003;3.626663e-002
2.134903e+003;3.619528e-002
2.136831e+003;3.604974e-002
2.138760e+003;3.582648e-002
2.140688e+003;3.575854e-002
2.142617e+003;3.564063e-002
2.144545e+003;3.547513e-002
2.146474e+003;3.551328e-002
2.148402e+003;3.556571e-002
2.150331e+003;3.552152e-002
2.152260e+003;3.530061e-002
2.154188e+003;3.510410e-002
2.156117e+003;3.511646e-002
2.158045e+003;3.510913e-002
2.159974e+003;3.504882e-002
2.161902e+003;3.499326e-002
2.163831e+003;3.502102e-002
2.165759e+003;3.494402e-002
2.167688e+003;3.464592e-002
2.169616e+003;3.441517e-002
2.171545e+003;3.439645e-002
2.173474e+003;3.427585e-002
2.175402e+003;3.431181e-002
2.177331e+003;3.419629e-002
2.179259e+003;3.382019e-002
2.181188e+003;3.354148e-002
2.183116e+003;3.350694e-002
2.185045e+003;3.348017e-002
2.186973e+003;3.318647e-002
2.188902e+003;3.297558e-002
2.190831e+003;3.280652e-002
2.192759e+003;3.269376e-002
2.194688e+003;3.259960e-002
2.196616e+003;3.256928e-002
2.198545e+003;3.278126e-002
2.200473e+003;3.279766e-002
2.202402e+003;3.254746e-002
2.204330e+003;3.243905e-002
2.206259e+003;3.249161e-002
2.208188e+003;3.228423e-002
2.210116e+003;3.207171e-002
2.212044e+003;3.203899e-002
2.213973e+003;3.204552e-002
2.215902e+003;3.189955e-002
2.217830e+003;3.169056e-002
2.219759e+003;3.152560e-002
2.221687e+003;3.136940e-002
2.223616e+003;3.132894e-002
2.225544e+003;3.142201e-002
2.227473e+003;3.139305e-002
2.229401e+003;3.116953e-002
2.231330e+003;3.104524e-002
2.233259e+003;3.101766e-002
2.235187e+003;3.106004e-002
2.237116e+003;3.113287e-002
2.239044e+003;3.109560e-002
2.240973e+003;3.098826e-002
2.242901e+003;3.089949e-002
2.244830e+003;3.059395e-002
2.246758e+003;3.025449e-002
2.248687e+003;3.009742e-002
2.250615e+003;3.025214e-002
2.252544e+003;3.036946e-002
2.254473e+003;3.015975e-002
2.256401e+003;2.987245e-002
2.258330e+003;2.962757e-002
2.260258e+003;2.957416e-002
2.262187e+003;2.955288e-002
2.264115e+003;2.937543e-002
2.266044e+003;2.929620e-002
2.267972e+003;2.938993e-002
2.269901e+003;2.933867e-002
2.271830e+003;2.905913e-002
2.273758e+003;2.883030e-002
2.275687e+003;2.876406e-002
2.277615e+003;2.898630e-002
2.279544e+003;2.884506e-002
2.281472e+003;2.867223e-002
2.283401e+003;2.873704e-002
2.285329e+003;2.874204e-002
2.287258e+003;2.862041e-002
2.289187e+003;2.839560e-002
2.291115e+003;2.827121e-002
2.293043e+003;2.834233e-002
2.294972e+003;2.854918e-002
2.296901e+003;2.859083e-002
2.298829e+003;2.863269e-002
2.300758e+003;2.864781e-002
2.302686e+003;2.836465e-002
2.304615e+003;2.825257e-002
2.306543e+003;2.832549e-002
2.308472e+003;2.846727e-002
2.310400e+003;2.879047e-002
2.312329e+003;2.890141e-002
2.314258e+003;2.884687e-002
2.316186e+003;2.884931e-002
2.318115e+003;2.876200e-002
2.320043e+003;2.883632e-002
2.321972e+003;2.908414e-002
2.323900e+003;2.890969e-002
2.325829e+003;2.866264e-002
2.327757e+003;2.887279e-002
2.329686e+003;2.930187e-002
2.331615e+003;2.941819e-002
2.333543e+003;2.927033e-002
2.335472e+003;2.921238e-002
2.337400e+003;2.949283e-002
2.339329e+003;2.992892e-002
2.341257e+003;3.007878e-002
2.343186e+003;3.003841e-002
2.345114e+003;3.025683e-002
2.347043e+003;3.042891e-002
2.348971e+003;3.036036e-002
2.350900e+003;3.055861e-002
2.352829e+003;3.074607e-002
2.354757e+003;3.069276e-002
2.356686e+003;3.067889e-002
2.358614e+003;3.095368e-002
2.360543e+003;3.117534e-002
2.362471e+003;3.120513e-002
2.364400e+003;3.134799e-002
2.366328e+003;3.133809e-002
2.368257e+003;3.134863e-002
2.370186e+003;3.176452e-002
2.372114e+003;3.213032e-002
2.374042e+003;3.214142e-002
2.375971e+003;3.195004e-002
2.377900e+003;3.201834e-002
2.379828e+003;3.233980e-002
2.381757e+003;3.248307e-002
2.383685e+003;3.264321e-002
2.385614e+003;3.285530e-002
2.387542e+003;3.291885e-002
2.389471e+003;3.304161e-002
2.391399e+003;3.295234e-002
2.393328e+003;3.298194e-002
2.395257e+003;3.329339e-002
2.397185e+003;3.347437e-002
2.399114e+003;3.379082e-002
2.401042e+003;3.406378e-002
2.402971e+003;3.421816e-002
2.404899e+003;3.438329e-002
2.406828e+003;3.445452e-002
2.408756e+003;3.454277e-002
2.410685e+003;3.478978e-002
2.412614e+003;3.514373e-002
2.414542e+003;3.552407e-002
2.416471e+003;3.566983e-002
2.418399e+003;3.562009e-002
2.420328e+003;3.582039e-002
2.422256e+003;3.601705e-002
2.424185e+003;3.620497e-002
2.426113e+003;3.667839e-002
2.428042e+003;3.690270e-002
2.429970e+003;3.704828e-002
2.431899e+003;3.744077e-002
2.433828e+003;3.755932e-002
2.435756e+003;3.746515e-002
2.437685e+003;3.777043e-002
2.439613e+003;3.846811e-002
2.441542e+003;3.893128e-002
2.443470e+003;3.891451e-002
2.445399e+003;3.891787e-002
2.447327e+003;3.925221e-002
2.449256e+003;3.972693e-002
2.451185e+003;4.019305e-002
2.453113e+003;4.051218e-002
2.455042e+003;4.065097e-002
2.456970e+003;4.086031e-002
2.458899e+003;4.098501e-002
2.460827e+003;4.095810e-002
2.462756e+003;4.110245e-002
2.464684e+003;4.146465e-002
2.466613e+003;4.190370e-002
2.468542e+003;4.232135e-002
2.470470e+003;4.245034e-002
2.472398e+003;4.264465e-002
2.474327e+003;4.301212e-002
2.476256e+003;4.300908e-002
2.478184e+003;4.302262e-002
2.480113e+003;4.357613e-002
2.482041e+003;4.404160e-002
2.483970e+003;4.413578e-002
2.485898e+003;4.440545e-002
2.487827e+003;4.471535e-002
2.489755e+003;4.491574e-002
2.491684e+003;4.507528e-002
2.493613e+003;4.508822e-002
2.495541e+003;4.530883e-002
2.497470e+003;4.557043e-002
2.499398e+003;4.562196e-002
2.501327e+003;4.593049e-002
2.503255e+003;4.629393e-002
2.505184e+003;4.635417e-002
2.507112e+003;4.635350e-002
2.509041e+003;4.663171e-002
2.510969e+003;4.685938e-002
2.512898e+003;4.694553e-002
2.514827e+003;4.705785e-002
2.516755e+003;4.715660e-002
2.518684e+003;4.735450e-002
2.520612e+003;4.749113e-002
2.522541e+003;4.771959e-002
2.524469e+003;4.778135e-002
2.526398e+003;4.779363e-002
2.528326e+003;4.792544e-002
2.530255e+003;4.805018e-002
2.532184e+003;4.813620e-002
2.534112e+003;4.826890e-002
2.536041e+003;4.839700e-002
2.537969e+003;4.864276e-002
2.539898e+003;4.893620e-002
2.541826e+003;4.904305e-002
2.543755e+003;4.906709e-002
2.545683e+003;4.910133e-002
2.547612e+003;4.912200e-002
2.549541e+003;4.927978e-002
2.551469e+003;4.949255e-002
2.553397e+003;4.959831e-002
2.555326e+003;4.998443e-002
2.557255e+003;5.034020e-002
2.559183e+003;5.030132e-002
2.561112e+003;5.039460e-002
2.563040e+003;5.072829e-002
2.564969e+003;5.084483e-002
2.566897e+003;5.072006e-002
2.568826e+003;5.079864e-002
2.570754e+003;5.088289e-002
2.572683e+003;5.089817e-002
2.574612e+003;5.122814e-002
2.576540e+003;5.134049e-002
2.578469e+003;5.132460e-002
2.580397e+003;5.169815e-002
2.582326e+003;5.213404e-002
2.584254e+003;5.246289e-002
2.586183e+003;5.257530e-002
2.588111e+003;5.272701e-002
2.590040e+003;5.295640e-002
2.591969e+003;5.307107e-002
2.593897e+003;5.310357e-002
2.595826e+003;5.336227e-002
2.597754e+003;5.365423e-002
2.599683e+003;5.398438e-002
2.601611e+003;5.423535e-002
2.603540e+003;5.440992e-002
2.605468e+003;5.481357e-002
2.607397e+003;5.517893e-002
2.609325e+003;5.518612e-002
2.611254e+003;5.505110e-002
2.613183e+003;5.526498e-002
2.615111e+003;5.572096e-002
2.617040e+003;5.629800e-002
2.618968e+003;5.673056e-002
2.620897e+003;5.696797e-002
2.622825e+003;5.715577e-002
2.624754e+003;5.729722e-002
2.626682e+003;5.759932e-002
2.628611e+003;5.810750e-002
2.630540e+003;5.845725e-002
2.632468e+003;5.860375e-002
2.634396e+003;5.890669e-002
2.636325e+003;5.944394e-002
2.638254e+003;5.994598e-002
2.640182e+003;6.017792e-002
2.642111e+003;6.025527e-002
2.644039e+003;6.083665e-002
2.645968e+003;6.144762e-002
2.647896e+003;6.146728e-002
2.649825e+003;6.158013e-002
2.651753e+003;6.200045e-002
2.653682e+003;6.221659e-002
2.655611e+003;6.248016e-002
2.657539e+003;6.310867e-002
2.659468e+003;6.369235e-002
2.661396e+003;6.420460e-002
2.663325e+003;6.433241e-002
2.665253e+003;6.449367e-002
2.667182e+003;6.506367e-002
2.669110e+003;6.572375e-002
2.671039e+003;6.622721e-002
2.672968e+003;6.631321e-002
2.674896e+003;6.645346e-002
2.676825e+003;6.699078e-002
2.678753e+003;6.744546e-002
2.680682e+003;6.753286e-002
2.682610e+003;6.759670e-002
2.684539e+003;6.772869e-002
2.686467e+003;6.806353e-002
2.688396e+003;6.849619e-002
2.690324e+003;6.917908e-002
2.692253e+003;6.971601e-002
2.694182e+003;7.005160e-002
2.696110e+003;7.051181e-002
2.698039e+003;7.078698e-002
2.699967e+003;7.100040e-002
2.701896e+003;7.130349e-002
2.703824e+003;7.131063e-002
2.705753e+003;7.148275e-002
2.707681e+003;7.217459e-002
2.709610e+003;7.280114e-002
2.711539e+003;7.290193e-002
2.713467e+003;7.287858e-002
2.715396e+003;7.296100e-002
2.717324e+003;7.311949e-002
2.719253e+003;7.343312e-002
2.721181e+003;7.383998e-002
2.723110e+003;7.423884e-002
2.725038e+003;7.453110e-002
2.726967e+003;7.477175e-002
2.728896e+003;7.499340e-002
2.730824e+003;7.543353e-002
2.732752e+003;7.582538e-002
2.734681e+003;7.603864e-002
2.736610e+003;7.640436e-002
2.738538e+003;7.657716e-002
2.740467e+003;7.651283e-002
2.742395e+003;7.641824e-002
2.744324e+003;7.669931e-002
2.746252e+003;7.722242e-002
2.748181e+003;7.763562e-002
2.750109e+003;7.783380e-002
2.752038e+003;7.792252e-002
2.753967e+003;7.797331e-002
2.755895e+003;7.811013e-002
2.757824e+003;7.842024e-002
2.759752e+003;7.869329e-002
2.761681e+003;7.913098e-002
2.763609e+003;7.956351e-002
2.765538e+003;7.951523e-002
2.767466e+003;7.958619e-002
2.769395e+003;8.026484e-002
2.771323e+003;8.086479e-002
2.773252e+003;8.121526e-002
2.775181e+003;8.157062e-002
2.777109e+003;8.197621e-002
2.779038e+003;8.255393e-002
2.780966e+003;8.296032e-002
2.782895e+003;8.303168e-002
2.784823e+003;8.320460e-002
2.786752e+003;8.384190e-002
2.788680e+003;8.453707e-002
2.790609e+003;8.513904e-002
2.792538e+003;8.565108e-002
2.794466e+003;8.584068e-002
2.796395e+003;8.635928e-002
2.798323e+003;8.704124e-002
2.800252e+003;8.737162e-002
2.802180e+003;8.789263e-002
2.804109e+003;8.848964e-002
2.806037e+003;8.934237e-002
2.807966e+003;8.996732e-002
2.809895e+003;9.001387e-002
2.811823e+003;9.044970e-002
2.813751e+003;9.146450e-002
2.815680e+003;9.224602e-002
2.817609e+003;9.273369e-002
2.819537e+003;9.324873e-002
2.821466e+003;9.374592e-002
2.823394e+003;9.467413e-002
2.825323e+003;9.544543e-002
2.827251e+003;9.613752e-002
2.829180e+003;9.679824e-002
2.831108e+003;9.762169e-002
2.833037e+003;9.871002e-002
2.834966e+003;9.978611e-002
2.836894e+003;1.009316e-001
2.838823e+003;1.019422e-001
2.840751e+003;1.029890e-001
2.842680e+003;1.040319e-001
2.844608e+003;1.052335e-001
2.846537e+003;1.066743e-001
2.848465e+003;1.081928e-001
2.850394e+003;1.095132e-001
2.852323e+003;1.104400e-001
2.854251e+003;1.113747e-001
2.856180e+003;1.127919e-001
2.858108e+003;1.144867e-001
2.860037e+003;1.163050e-001
2.861965e+003;1.181197e-001
2.863894e+003;1.201741e-001
2.865822e+003;1.219567e-001
2.867751e+003;1.231734e-001
2.869679e+003;1.246024e-001
2.871608e+003;1.263768e-001
2.873536e+003;1.278983e-001
2.875465e+003;1.285653e-001
2.877394e+003;1.290298e-001
2.879322e+003;1.297980e-001
2.881251e+003;1.306313e-001
2.883179e+003;1.312979e-001
2.885108e+003;1.317647e-001
2.887036e+003;1.319143e-001
2.888965e+003;1.318482e-001
2.890893e+003;1.320128e-001
2.892822e+003;1.319751e-001
2.894750e+003;1.316070e-001
2.896679e+003;1.312442e-001
2.898608e+003;1.304820e-001
2.900536e+003;1.298574e-001
2.902465e+003;1.295006e-001
2.904393e+003;1.288688e-001
2.906322e+003;1.281347e-001
2.908250e+003;1.277905e-001
2.910179e+003;1.271060e-001
2.912107e+003;1.259591e-001
2.914036e+003;1.249529e-001
2.915965e+003;1.241242e-001
2.917893e+003;1.233631e-001
2.919822e+003;1.226154e-001
2.921750e+003;1.214160e-001
2.923679e+003;1.200866e-001
2.925607e+003;1.189270e-001
2.927536e+003;1.176304e-001
2.929464e+003;1.166082e-001
2.931393e+003;1.159059e-001
2.933322e+003;1.154011e-001
2.935250e+003;1.146499e-001
2.937178e+003;1.131747e-001
2.939107e+003;1.115695e-001
2.941036e+003;1.103727e-001
2.942964e+003;1.090897e-001
2.944893e+003;1.077747e-001
2.946821e+003;1.066603e-001
2.948750e+003;1.051935e-001
2.950678e+003;1.037702e-001
2.952607e+003;1.027049e-001
2.954535e+003;1.013965e-001
2.956464e+003;1.000814e-001
2.958393e+003;9.878426e-002
2.960321e+003;9.754466e-002
2.962250e+003;9.620252e-002
2.964178e+003;9.512651e-002
2.966107e+003;9.433284e-002
2.968035e+003;9.334320e-002
2.969964e+003;9.218927e-002
2.971892e+003;9.140524e-002
2.973821e+003;9.097209e-002
2.975750e+003;9.059247e-002
2.977678e+003;9.022214e-002
2.979607e+003;8.964583e-002
2.981535e+003;8.922569e-002
2.983464e+003;8.886020e-002
2.985392e+003;8.843050e-002
2.987321e+003;8.793494e-002
2.989249e+003;8.721468e-002
2.991178e+003;8.668676e-002
2.993106e+003;8.666285e-002
2.995035e+003;8.669534e-002
2.996964e+003;8.643132e-002
2.998892e+003;8.610801e-002
3.000821e+003;8.599430e-002
3.002749e+003;8.614089e-002
3.004678e+003;8.667705e-002
3.006606e+003;8.694335e-002
3.008535e+003;8.700282e-002
3.010463e+003;8.738142e-002
3.012392e+003;8.756793e-002
3.014321e+003;8.768193e-002
3.016249e+003;8.839643e-002
3.018177e+003;8.893896e-002
3.020106e+003;8.903648e-002
3.022035e+003;8.903534e-002
3.023963e+003;8.925711e-002
3.025892e+003;9.016126e-002
3.027820e+003;9.107322e-002
3.029749e+003;9.161165e-002
3.031677e+003;9.234945e-002
3.033606e+003;9.326175e-002
3.035534e+003;9.395110e-002
3.037463e+003;9.455820e-002
3.039392e+003;9.511773e-002
3.041320e+003;9.558390e-002
3.043249e+003;9.609700e-002
3.045177e+003;9.645478e-002
3.047106e+003;9.700003e-002
3.049034e+003;9.791996e-002
3.050963e+003;9.888544e-002
3.052891e+003;9.983656e-002
3.054820e+003;1.004886e-001
3.056749e+003;1.009481e-001
3.058677e+003;1.016237e-001
3.060606e+003;1.023109e-001
3.062534e+003;1.028100e-001
3.064463e+003;1.035710e-001
3.066391e+003;1.043535e-001
3.068320e+003;1.050296e-001
3.070248e+003;1.056995e-001
3.072177e+003;1.064301e-001
3.074105e+003;1.074527e-001
3.076034e+003;1.085485e-001
3.077963e+003;1.092382e-001
3.079891e+003;1.098691e-001
3.081820e+003;1.106768e-001
3.083748e+003;1.114060e-001
3.085677e+003;1.122181e-001
3.087605e+003;1.131622e-001
3.089534e+003;1.141786e-001
3.091462e+003;1.154599e-001
3.093391e+003;1.161319e-001
3.095320e+003;1.167400e-001
3.097248e+003;1.174881e-001
3.099177e+003;1.179045e-001
3.101105e+003;1.185994e-001
3.103034e+003;1.196449e-001
3.104962e+003;1.203755e-001
3.106891e+003;1.207492e-001
3.108819e+003;1.215216e-001
3.110748e+003;1.226083e-001
3.112677e+003;1.238172e-001
3.114605e+003;1.246639e-001
3.116533e+003;1.251540e-001
3.118462e+003;1.255722e-001
3.120391e+003;1.263071e-001
3.122319e+003;1.276673e-001
3.124248e+003;1.287611e-001
3.126176e+003;1.292964e-001
3.128105e+003;1.297556e-001
3.130033e+003;1.303240e-001
3.131962e+003;1.310201e-001
3.133890e+003;1.319481e-001
3.135819e+003;1.328994e-001
3.137748e+003;1.337970e-001
3.139676e+003;1.345420e-001
3.141605e+003;1.353188e-001
3.143533e+003;1.363091e-001
3.145462e+003;1.371167e-001
3.147390e+003;1.375816e-001
3.149319e+003;1.382516e-001
3.151247e+003;1.390431e-001
3.153176e+003;1.397753e-001
3.155104e+003;1.404736e-001
3.157033e+003;1.411748e-001
3.158962e+003;1.418231e-001
3.160890e+003;1.426206e-001
3.162819e+003;1.436198e-001
3.164747e+003;1.445886e-001
3.166676e+003;1.455156e-001
3.168604e+003;1.462502e-001
3.170533e+003;1.467840e-001
3.172461e+003;1.471931e-001
3.174390e+003;1.478567e-001
3.176319e+003;1.486965e-001
3.178247e+003;1.495446e-001
3.180176e+003;1.503969e-001
3.182104e+003;1.510289e-001
3.184033e+003;1.517829e-001
3.185961e+003;1.523330e-001
3.187890e+003;1.528192e-001
3.189818e+003;1.535781e-001
3.191747e+003;1.543165e-001
3.193676e+003;1.553175e-001
3.195604e+003;1.560910e-001
3.197532e+003;1.567289e-001
3.199461e+003;1.576515e-001
3.201390e+003;1.586585e-001
3.203318e+003;1.593781e-001
3.205247e+003;1.597087e-001
3.207175e+003;1.601204e-001
3.209104e+003;1.602622e-001
3.211032e+003;1.607715e-001
3.212961e+003;1.618517e-001
3.214889e+003;1.626147e-001
3.216818e+003;1.634562e-001
3.218747e+003;1.645454e-001
3.220675e+003;1.654263e-001
3.222604e+003;1.658530e-001
3.224532e+003;1.659307e-001
3.226461e+003;1.658726e-001
3.228389e+003;1.663775e-001
3.230318e+003;1.671387e-001
3.232246e+003;1.676950e-001
3.234175e+003;1.682888e-001
3.236104e+003;1.693748e-001
3.238032e+003;1.702438e-001
3.239961e+003;1.705459e-001
3.241889e+003;1.708450e-001
3.243818e+003;1.713517e-001
3.245746e+003;1.716941e-001
3.247675e+003;1.718903e-001
3.249603e+003;1.724942e-001
3.251532e+003;1.732857e-001
3.253460e+003;1.739244e-001
3.255389e+003;1.744282e-001
3.257318e+003;1.744727e-001
3.259246e+003;1.747577e-001
3.261175e+003;1.756628e-001
3.263103e+003;1.758511e-001
3.265032e+003;1.760662e-001
3.266960e+003;1.768104e-001
3.268889e+003;1.775484e-001
3.270817e+003;1.782542e-001
3.272746e+003;1.784936e-001
3.274675e+003;1.785927e-001
3.276603e+003;1.786503e-001
3.278531e+003;1.791909e-001
3.280460e+003;1.799396e-001
3.282389e+003;1.797658e-001
3.284317e+003;1.798998e-001
3.286246e+003;1.804764e-001
3.288174e+003;1.808237e-001
3.290103e+003;1.810253e-001
3.292031e+003;1.809416e-001
3.293960e+003;1.810607e-001
3.295888e+003;1.815165e-001
3.297817e+003;1.817802e-001
3.299746e+003;1.820179e-001
3.301674e+003;1.823640e-001
3.303603e+003;1.827336e-001
3.305531e+003;1.825050e-001
3.307460e+003;1.824117e-001
3.309388e+003;1.830494e-001
3.311317e+003;1.832512e-001
3.313245e+003;1.833388e-001
3.315174e+003;1.835761e-001
3.317103e+003;1.834047e-001
3.319031e+003;1.833068e-001
3.320960e+003;1.833194e-001
3.322888e+003;1.835775e-001
3.324817e+003;1.838384e-001
3.326745e+003;1.839146e-001
3.328674e+003;1.839087e-001
3.330602e+003;1.838094e-001
3.332531e+003;1.837382e-001
3.334459e+003;1.837851e-001
3.336388e+003;1.838070e-001
3.338317e+003;1.839695e-001
3.340245e+003;1.840851e-001
3.342174e+003;1.837357e-001
3.344102e+003;1.836373e-001
3.346031e+003;1.837742e-001
3.347959e+003;1.832644e-001
3.349888e+003;1.827920e-001
3.351816e+003;1.830321e-001
3.353745e+003;1.829456e-001
3.355674e+003;1.824973e-001
3.357602e+003;1.821559e-001
3.359531e+003;1.820419e-001
3.361459e+003;1.819304e-001
3.363388e+003;1.814800e-001
3.365316e+003;1.810641e-001
3.367245e+003;1.808234e-001
3.369173e+003;1.804273e-001
3.371102e+003;1.798403e-001
3.373031e+003;1.799142e-001
3.374959e+003;1.799359e-001
3.376887e+003;1.793614e-001
3.378816e+003;1.785574e-001
3.380745e+003;1.782457e-001
3.382673e+003;1.778135e-001
3.384602e+003;1.773530e-001
3.386530e+003;1.767977e-001
3.388459e+003;1.763203e-001
3.390387e+003;1.764991e-001
3.392316e+003;1.760991e-001
3.394244e+003;1.751757e-001
3.396173e+003;1.746761e-001
3.398102e+003;1.743376e-001
3.400030e+003;1.741746e-001
3.401959e+003;1.736629e-001
3.403887e+003;1.728359e-001
3.405816e+003;1.723155e-001
3.407744e+003;1.719408e-001
3.409673e+003;1.712241e-001
3.411601e+003;1.707641e-001
3.413530e+003;1.703160e-001
3.415458e+003;1.693849e-001
3.417387e+003;1.684913e-001
3.419316e+003;1.677194e-001
3.421244e+003;1.672096e-001
3.423173e+003;1.668220e-001
3.425101e+003;1.663798e-001
3.427030e+003;1.654920e-001
3.428958e+003;1.646671e-001
3.430887e+003;1.639586e-001
3.432815e+003;1.633223e-001
3.434744e+003;1.628057e-001
3.436673e+003;1.620309e-001
3.438601e+003;1.611712e-001
3.440530e+003;1.604295e-001
3.442458e+003;1.594620e-001
3.444387e+003;1.579659e-001
3.446315e+003;1.564535e-001
3.448244e+003;1.554267e-001
3.450172e+003;1.546147e-001
3.452101e+003;1.533716e-001
3.454030e+003;1.521986e-001
3.455958e+003;1.511507e-001
3.457886e+003;1.500572e-001
3.459815e+003;1.484895e-001
3.461744e+003;1.470471e-001
3.463672e+003;1.459600e-001
3.465601e+003;1.444219e-001
3.467529e+003;1.429097e-001
3.469458e+003;1.416898e-001
3.471386e+003;1.406279e-001
3.473315e+003;1.393879e-001
3.475243e+003;1.381250e-001
3.477172e+003;1.372310e-001
3.479101e+003;1.361384e-001
3.481029e+003;1.348776e-001
3.482958e+003;1.338473e-001
3.484886e+003;1.328618e-001
3.486815e+003;1.318956e-001
3.488743e+003;1.308544e-001
3.490672e+003;1.292620e-001
3.492600e+003;1.277229e-001
3.494529e+003;1.264793e-001
3.496458e+003;1.247288e-001
3.498386e+003;1.227747e-001
3.500315e+003;1.213609e-001
3.502243e+003;1.199113e-001
3.504172e+003;1.183516e-001
3.506100e+003;1.167753e-001
3.508029e+003;1.156318e-001
3.509957e+003;1.144034e-001
3.511886e+003;1.127687e-001
3.513814e+003;1.113408e-001
3.515743e+003;1.100659e-001
3.517672e+003;1.090332e-001
3.519600e+003;1.078238e-001
3.521529e+003;1.063119e-001
3.523457e+003;1.049058e-001
3.525386e+003;1.035264e-001
3.527314e+003;1.021877e-001
3.529243e+003;1.010167e-001
3.531171e+003;9.987330e-002
3.533100e+003;9.871863e-002
3.535029e+003;9.739110e-002
3.536957e+003;9.618539e-002
3.538885e+003;9.496646e-002
3.540814e+003;9.334037e-002
3.542743e+003;9.192161e-002
3.544671e+003;9.089994e-002
3.546600e+003;8.987553e-002
3.548528e+003;8.885150e-002
3.550457e+003;8.768266e-002
3.552385e+003;8.647674e-002
3.554314e+003;8.523063e-002
3.556242e+003;8.408786e-002
3.558171e+003;8.289979e-002
3.560100e+003;8.166602e-002
3.562028e+003;8.087070e-002
3.563957e+003;7.981401e-002
3.565885e+003;7.835504e-002
3.567814e+003;7.730932e-002
3.569742e+003;7.650283e-002
3.571671e+003;7.551655e-002
3.573599e+003;7.462945e-002
3.575528e+003;7.359913e-002
3.577457e+003;7.254118e-002
3.579385e+003;7.134886e-002
3.581314e+003;7.012083e-002
3.583242e+003;6.966104e-002
3.585171e+003;6.901984e-002
3.587099e+003;6.812058e-002
3.589028e+003;6.736215e-002
3.590956e+003;6.653873e-002
3.592885e+003;6.553576e-002
3.594813e+003;6.426153e-002
3.596742e+003;6.274831e-002
3.598671e+003;6.157272e-002
3.600599e+003;6.089489e-002
3.602528e+003;6.007986e-002
3.604456e+003;5.910706e-002
3.606385e+003;5.802383e-002
3.608313e+003;5.689476e-002
3.610242e+003;5.601674e-002
3.612170e+003;5.489076e-002
3.614099e+003;5.375854e-002
3.616028e+003;5.268668e-002
3.617956e+003;5.157314e-002
3.619885e+003;5.067124e-002
3.621813e+003;4.985817e-002
3.623742e+003;4.889099e-002
3.625670e+003;4.817285e-002
3.627599e+003;4.714493e-002
3.629527e+003;4.581533e-002
3.631456e+003;4.474562e-002
3.633385e+003;4.345549e-002
3.635313e+003;4.218363e-002
3.637241e+003;4.131095e-002
3.639170e+003;4.042279e-002
3.641099e+003;3.962463e-002
3.643027e+003;3.891099e-002
3.644956e+003;3.766952e-002
3.646884e+003;3.605798e-002
3.648813e+003;3.458833e-002
3.650741e+003;3.390193e-002
3.652670e+003;3.322589e-002
3.654598e+003;3.203603e-002
3.656527e+003;3.092304e-002
3.658456e+003;3.024081e-002
3.660384e+003;2.929351e-002
3.662313e+003;2.803130e-002
3.664241e+003;2.724387e-002
3.666170e+003;2.674615e-002
3.668098e+003;2.547171e-002
3.670027e+003;2.403820e-002
3.671955e+003;2.356303e-002
3.673884e+003;2.318606e-002
3.675813e+003;2.243634e-002
3.677741e+003;2.170672e-002
3.679669e+003;2.143303e-002
3.681598e+003;2.118121e-002
3.683527e+003;2.068198e-002
3.685455e+003;1.980546e-002
3.687384e+003;1.878575e-002
3.689312e+003;1.828678e-002
3.691241e+003;1.816114e-002
3.693169e+003;1.794398e-002
3.695098e+003;1.726465e-002
3.697026e+003;1.673537e-002
3.698955e+003;1.670610e-002
3.700884e+003;1.658263e-002
3.702812e+003;1.628494e-002
3.704741e+003;1.622048e-002
3.706669e+003;1.613268e-002
3.708598e+003;1.562331e-002
3.710526e+003;1.505066e-002
3.712455e+003;1.477475e-002
3.714383e+003;1.452132e-002
3.716312e+003;1.437591e-002
3.718240e+003;1.406877e-002
3.720169e+003;1.395964e-002
3.722098e+003;1.372358e-002
3.724026e+003;1.346324e-002
3.725955e+003;1.343002e-002
3.727883e+003;1.347243e-002
3.729812e+003;1.368757e-002
3.731740e+003;1.355966e-002
3.733669e+003;1.306898e-002
3.735597e+003;1.262346e-002
3.737526e+003;1.245880e-002
3.739455e+003;1.263376e-002
3.741383e+003;1.275508e-002
3.743312e+003;1.254389e-002
3.745240e+003;1.246037e-002
3.747169e+003;1.263424e-002
3.749097e+003;1.248704e-002
3.751026e+003;1.210668e-002
3.752954e+003;1.190625e-002
3.754883e+003;1.219029e-002
3.756812e+003;1.211172e-002
3.758740e+003;1.203554e-002
3.760668e+003;1.206027e-002
3.762597e+003;1.190199e-002
3.764526e+003;1.168859e-002
3.766454e+003;1.182752e-002
3.768383e+003;1.238195e-002
3.770311e+003;1.245062e-002
3.772240e+003;1.197856e-002
3.774168e+003;1.189760e-002
3.776097e+003;1.197399e-002
3.778025e+003;1.194443e-002
3.779954e+003;1.171273e-002
3.781883e+003;1.120593e-002
3.783811e+003;1.105364e-002
3.785740e+003;1.157911e-002
3.787668e+003;1.173546e-002
3.789597e+003;1.134909e-002
3.791525e+003;1.100881e-002
3.793454e+003;1.118743e-002
3.795382e+003;1.166381e-002
3.797311e+003;1.209782e-002
3.799240e+003;1.194433e-002
3.801168e+003;1.140484e-002
3.803097e+003;1.111057e-002
3.805025e+003;1.103008e-002
3.806954e+003;1.115524e-002
3.808882e+003;1.132978e-002
3.810811e+003;1.145288e-002
3.812739e+003;1.181142e-002
3.814668e+003;1.179395e-002
3.816596e+003;1.158942e-002
3.818525e+003;1.153283e-002
3.820454e+003;1.162226e-002
3.822382e+003;1.151952e-002
3.824311e+003;1.168689e-002
3.826239e+003;1.206177e-002
3.828168e+003;1.188970e-002
3.830096e+003;1.162335e-002
3.832025e+003;1.159894e-002
3.833953e+003;1.133920e-002
3.835882e+003;1.144097e-002
3.837811e+003;1.192975e-002
3.839739e+003;1.204368e-002
3.841667e+003;1.177421e-002
3.843596e+003;1.178013e-002
3.845525e+003;1.200506e-002
3.847453e+003;1.198305e-002
3.849382e+003;1.199106e-002
3.851310e+003;1.177802e-002
3.853239e+003;1.159704e-002
3.855167e+003;1.186692e-002
3.857096e+003;1.205315e-002
3.859024e+003;1.210341e-002
3.860953e+003;1.219527e-002
3.862882e+003;1.223306e-002
3.864810e+003;1.234343e-002
3.866739e+003;1.244643e-002
3.868667e+003;1.227631e-002
3.870596e+003;1.230218e-002
3.872524e+003;1.285988e-002
3.874453e+003;1.313062e-002
3.876381e+003;1.305628e-002
3.878310e+003;1.294808e-002
3.880239e+003;1.273171e-002
3.882167e+003;1.288268e-002
3.884096e+003;1.343060e-002
3.886024e+003;1.359327e-002
3.887953e+003;1.345794e-002
3.889881e+003;1.367170e-002
3.891810e+003;1.359891e-002
3.893738e+003;1.352422e-002
3.895667e+003;1.373572e-002
3.897595e+003;1.357594e-002
3.899524e+003;1.356763e-002
3.901453e+003;1.386699e-002
3.903381e+003;1.420942e-002
3.905310e+003;1.444760e-002
3.907238e+003;1.444250e-002
3.909167e+003;1.452718e-002
3.911095e+003;1.522012e-002
3.913024e+003;1.559288e-002
3.914952e+003;1.524294e-002
3.916881e+003;1.518374e-002
3.918810e+003;1.555143e-002
3.920738e+003;1.570524e-002
3.922667e+003;1.556468e-002
3.924595e+003;1.524980e-002
3.926524e+003;1.540982e-002
3.928452e+003;1.559549e-002
3.930381e+003;1.518824e-002
3.932309e+003;1.543090e-002
3.934238e+003;1.585305e-002
3.936167e+003;1.572637e-002
3.938095e+003;1.576072e-002
3.940023e+003;1.613268e-002
3.941952e+003;1.650705e-002
3.943881e+003;1.631686e-002
3.945809e+003;1.640938e-002
3.947738e+003;1.671987e-002
3.949666e+003;1.663176e-002
3.951595e+003;1.672369e-002
3.953523e+003;1.665142e-002
3.955452e+003;1.611500e-002
3.957380e+003;1.613367e-002
3.959309e+003;1.630929e-002
3.961238e+003;1.659706e-002
3.963166e+003;1.703030e-002
3.965095e+003;1.722239e-002
3.967023e+003;1.713442e-002
3.968952e+003;1.739959e-002
3.970880e+003;1.761533e-002
3.972809e+003;1.734965e-002
3.974737e+003;1.690317e-002
3.976666e+003;1.693686e-002
3.978594e+003;1.742694e-002
3.980523e+003;1.752870e-002
3.982452e+003;1.704750e-002
3.984380e+003;1.703664e-002
3.986309e+003;1.713387e-002
3.988237e+003;1.708348e-002
3.990166e+003;1.747695e-002
3.992094e+003;1.752811e-002
3.994023e+003;1.737179e-002
3.995951e+003;1.722380e-002
3.997880e+003;1.705739e-002
3.999809e+003;1.726462e-002
4.001737e+003;0.000000e+000
