3.992094e+002;0.000000e+000
4.011380e+002;0.000000e+000
4.030665e+002;0.000000e+000
4.049951e+002;0.000000e+000
4.069236e+002;0.000000e+000
4.088522e+002;0.000000e+000
4.107807e+002;0.000000e+000
4.127093e+002;0.000000e+000
4.146378e+002;0.000000e+000
4.165664e+002;0.000000e+000
4.184949e+002;0.000000e+000
4.204235e+002;0.000000e+000
4.223520e+002;0.000000e+000
4.242806e+002;0.000000e+000
4.262091e+002;0.000000e+000
4.281377e+002;0.000000e+000
4.300662e+002;0.000000e+000
4.319948e+002;0.000000e+000
4.339233e+002;0.000000e+000
4.358519e+002;0.000000e+000
4.377804e+002;0.000000e+000
4.397090e+002;0.000000e+000
4.416375e+002;0.000000e+000
4.435660e+002;0.000000e+000
4.454946e+002;0.000000e+000
4.474232e+002;0.000000e+000
4.493517e+002;0.000000e+000
4.512802e+002;0.000000e+000
4.532088e+002;0.000000e+000
4.551373e+002;0.000000e+000
4.570659e+002;0.000000e+000
4.589944e+002;0.000000e+000
4.609230e+002;0.000000e+000
4.628515e+002;0.000000e+000
4.647801e+002;0.000000e+000
4.667086e+002;0.000000e+000
4.686372e+002;0.000000e+000
4.705657e+002;0.000000e+000
4.724943e+002;0.000000e+000
4.744228e+002;0.000000e+000
4.763513e+002;0.000000e+000
4.782799e+002;0.000000e+000
4.802085e+002;0.000000e+000
4.821370e+002;0.000000e+000
4.840656e+002;0.000000e+000
4.859941e+002;0.000000e+000
4.879226e+002;0.000000e+000
4.898512e+002;0.000000e+000
4.917798e+002;0.000000e+000
4.937083e+002;0.000000e+000
4.956368e+002;0.000000e+000
4.975654e+002;0.000000e+000
4.994939e+002;0.000000e+000
5.014225e+002;0.000000e+000
5.033510e+002;0.000000e+000
5.052796e+002;0.000000e+000
5.072081e+002;0.000000e+000
5.091367e+002;0.000000e+000
5.110652e+002;0.000000e+000
5.129938e+002;0.000000e+000
5.149223e+002;0.000000e+000
5.168509e+002;0.000000e+000
5.187794e+002;0.000000e+000
5.207079e+002;0.000000e+000
5.226365e+002;0.000000e+000
5.245651e+002;0.000000e+000
5.264936e+002;0.000000e+000
5.284222e+002;0.000000e+000
5.303507e+002;0.000000e+000
5.322792e+002;0.000000e+000
5.342078e+002;0.000000e+000
5.361364e+002;0.000000e+000
5.380649e+002;0.000000e+000
5.399935e+002;0.000000e+000
5.419220e+002;0.000000e+000
5.438505e+002;0.000000e+000
5.457791e+002;0.000000e+000
5.477076e+002;0.000000e+000
5.496362e+002;0.000000e+000
5.515648e+002;0.000000e+000
5.534933e+002;0.000000e+000
5.554218e+002;0.000000e+000
5.573504e+002;0.000000e+000
5.592789e+002;0.000000e+000
5.612075e+002;0.000000e+000
5.631360e+002;0.000000e+000
5.650646e+002;0.000000e+000
5.669931e+002;0.000000e+000
5.689217e+002;0.000000e+000
5.708502e+002;0.000000e+000
5.727787e+002;0.000000e+000
5.747073e+002;0.000000e+000
5.766359e+002;0.000000e+000
5.785644e+002;0.000000e+000
5.804930e+002;0.000000e+000
5.824215e+002;0.000000e+000
5.843500e+002;0.000000e+000
5.862786e+002;0.000000e+000
5.882072e+002;0.000000e+000
5.901357e+002;0.000000e+000
5.920643e+002;0.000000e+000
5.939928e+002;0.000000e+000
5.959213e+002;0.000000e+000
5.978499e+002;0.000000e+000
5.997784e+002;2.907543e-001
6.017070e+002;2.913152e-001
6.036355e+002;2.974022e-001
6.055641e+002;2.967362e-001
6.074926e+002;2.956274e-001
6.094211e+002;3.000861e-001
6.113497e+002;2.944617e-001
6.132783e+002;2.866129e-001
6.152068e+002;2.855064e-001
6.171354e+002;2.800754e-001
6.190639e+002;2.729254e-001
6.209924e+002;2.675101e-001
6.229210e+002;2.654017e-001
6.248495e+002;2.715019e-001
6.267781e+002;2.720725e-001
6.287067e+002;2.636836e-001
6.306352e+002;2.621268e-001
6.325637e+002;2.641082e-001
6.344923e+002;2.627717e-001
6.364208e+002;2.562902e-001
6.383494e+002;2.527034e-001
6.402780e+002;2.547264e-001
6.422065e+002;2.546413e-001
6.441350e+002;2.530998e-001
6.460636e+002;2.504655e-001
6.479921e+002;2.495257e-001
6.499207e+002;2.526787e-001
6.518492e+002;2.536168e-001
6.537778e+002;2.565312e-001
6.557063e+002;2.586996e-001
6.576349e+002;2.567393e-001
6.595634e+002;2.590644e-001
6.614919e+002;2.628588e-001
6.634205e+002;2.614374e-001
6.653491e+002;2.583852e-001
6.672776e+002;2.574868e-001
6.692062e+002;2.546639e-001
6.711347e+002;2.482830e-001
6.730632e+002;2.422694e-001
6.749918e+002;2.349499e-001
6.769203e+002;2.259462e-001
6.788489e+002;2.173529e-001
6.807775e+002;2.109204e-001
6.827060e+002;2.079740e-001
6.846345e+002;2.069403e-001
6.865631e+002;2.043003e-001
6.884916e+002;2.013829e-001
6.904202e+002;1.993157e-001
6.923488e+002;1.985909e-001
6.942773e+002;1.988475e-001
6.962058e+002;1.977517e-001
6.981344e+002;1.967598e-001
7.000629e+002;1.965492e-001
7.019915e+002;1.950632e-001
7.039200e+002;1.935926e-001
7.058486e+002;1.925420e-001
7.077771e+002;1.925285e-001
7.097057e+002;1.919790e-001
7.116342e+002;1.907840e-001
7.135627e+002;1.895793e-001
7.154913e+002;1.881850e-001
7.174199e+002;1.866372e-001
7.193484e+002;1.851789e-001
7.212770e+002;1.831243e-001
7.232055e+002;1.806732e-001
7.251340e+002;1.789681e-001
7.270626e+002;1.785253e-001
7.289911e+002;1.777331e-001
7.309197e+002;1.757746e-001
7.328483e+002;1.737081e-001
7.347768e+002;1.721303e-001
7.367053e+002;1.704308e-001
7.386339e+002;1.685696e-001
7.405624e+002;1.668277e-001
7.424910e+002;1.652150e-001
7.444196e+002;1.646356e-001
7.463481e+002;1.644319e-001
7.482766e+002;1.621654e-001
7.502052e+002;1.601609e-001
7.521337e+002;1.592786e-001
7.540623e+002;1.582542e-001
7.559908e+002;1.576106e-001
7.579194e+002;1.564939e-001
7.598479e+002;1.549499e-001
7.617765e+002;1.535040e-001
7.637050e+002;1.524740e-001
7.656335e+002;1.511405e-001
7.675621e+002;1.501967e-001
7.694907e+002;1.492240e-001
7.714192e+002;1.482989e-001
7.733478e+002;1.471184e-001
7.752763e+002;1.455047e-001
7.772048e+002;1.442279e-001
7.791334e+002;1.432221e-001
7.810620e+002;1.422750e-001
7.829905e+002;1.411570e-001
7.849191e+002;1.403331e-001
7.868476e+002;1.394494e-001
7.887761e+002;1.377812e-001
7.907047e+002;1.358553e-001
7.926332e+002;1.351687e-001
7.945618e+002;1.343346e-001
7.964903e+002;1.329608e-001
7.984189e+002;1.321684e-001
8.003474e+002;1.316238e-001
8.022759e+002;1.318602e-001
8.042045e+002;1.316265e-001
8.061331e+002;1.304449e-001
8.080616e+002;1.297220e-001
8.099902e+002;1.292926e-001
8.119187e+002;1.285720e-001
8.138472e+002;1.279462e-001
8.157758e+002;1.277372e-001
8.177043e+002;1.277081e-001
8.196329e+002;1.275899e-001
8.215615e+002;1.276607e-001
8.234900e+002;1.275275e-001
8.254185e+002;1.274378e-001
8.273471e+002;1.275330e-001
8.292756e+002;1.271264e-001
8.312042e+002;1.269048e-001
8.331328e+002;1.263336e-001
8.350613e+002;1.248845e-001
8.369898e+002;1.238310e-001
8.389184e+002;1.233646e-001
8.408469e+002;1.227399e-001
8.427755e+002;1.220790e-001
8.447040e+002;1.218069e-001
8.466326e+002;1.216513e-001
8.485611e+002;1.211837e-001
8.504897e+002;1.209280e-001
8.524182e+002;1.208521e-001
8.543467e+002;1.211240e-001
8.562753e+002;1.213301e-001
8.582039e+002;1.215915e-001
8.601324e+002;1.223283e-001
8.620610e+002;1.233932e-001
8.639895e+002;1.239670e-001
8.659180e+002;1.249121e-001
8.678466e+002;1.269502e-001
8.697751e+002;1.289127e-001
8.717037e+002;1.311496e-001
8.736323e+002;1.349200e-001
8.755608e+002;1.393991e-001
8.774893e+002;1.442513e-001
8.794179e+002;1.498849e-001
8.813464e+002;1.559610e-001
8.832750e+002;1.617826e-001
8.852036e+002;1.678723e-001
8.871321e+002;1.744005e-001
8.890606e+002;1.806130e-001
8.909892e+002;1.858805e-001
8.929177e+002;1.891645e-001
8.948463e+002;1.899781e-001
8.967748e+002;1.892957e-001
8.987034e+002;1.868813e-001
9.006319e+002;1.835675e-001
9.025605e+002;1.803355e-001
9.044890e+002;1.763947e-001
9.064175e+002;1.720687e-001
9.083461e+002;1.683841e-001
9.102747e+002;1.649196e-001
9.122032e+002;1.620903e-001
9.141318e+002;1.606087e-001
9.160603e+002;1.597773e-001
9.179888e+002;1.591078e-001
9.199174e+002;1.592242e-001
9.218459e+002;1.603471e-001
9.237745e+002;1.621073e-001
9.257031e+002;1.634360e-001
9.276316e+002;1.648181e-001
9.295601e+002;1.671254e-001
9.314887e+002;1.691867e-001
9.334172e+002;1.709819e-001
9.353458e+002;1.729004e-001
9.372744e+002;1.749469e-001
9.392029e+002;1.772040e-001
9.411314e+002;1.803785e-001
9.430600e+002;1.841494e-001
9.449885e+002;1.881923e-001
9.469171e+002;1.928847e-001
9.488456e+002;1.980813e-001
9.507742e+002;2.035030e-001
9.527027e+002;2.091693e-001
9.546313e+002;2.147178e-001
9.565598e+002;2.210699e-001
9.584883e+002;2.277559e-001
9.604169e+002;2.344400e-001
9.623455e+002;2.411978e-001
9.642740e+002;2.483400e-001
9.662026e+002;2.557198e-001
9.681311e+002;2.630964e-001
9.700596e+002;2.713278e-001
9.719882e+002;2.809366e-001
9.739167e+002;2.920361e-001
9.758453e+002;3.050419e-001
9.777739e+002;3.201867e-001
9.797024e+002;3.370947e-001
9.816309e+002;3.550355e-001
9.835595e+002;3.751088e-001
9.854880e+002;3.962463e-001
9.874166e+002;4.160854e-001
9.893452e+002;4.337171e-001
9.912737e+002;4.484319e-001
9.932022e+002;4.590616e-001
9.951307e+002;4.656072e-001
9.970593e+002;4.695807e-001
9.989879e+002;4.720908e-001
1.000916e+003;4.735115e-001
1.002845e+003;4.758761e-001
1.004773e+003;4.810472e-001
1.006702e+003;4.887040e-001
1.008631e+003;4.977584e-001
1.010559e+003;5.086673e-001
1.012488e+003;5.201167e-001
1.014416e+003;5.306168e-001
1.016345e+003;5.393519e-001
1.018273e+003;5.450892e-001
1.020202e+003;5.472007e-001
1.022130e+003;5.472773e-001
1.024059e+003;5.448076e-001
1.025988e+003;5.394253e-001
1.027916e+003;5.329325e-001
1.029845e+003;5.268251e-001
1.031773e+003;5.194206e-001
1.033702e+003;5.113232e-001
1.035630e+003;5.044993e-001
1.037559e+003;4.989451e-001
1.039487e+003;4.948298e-001
1.041416e+003;4.916449e-001
1.043344e+003;4.877927e-001
1.045273e+003;4.837008e-001
1.047202e+003;4.794036e-001
1.049130e+003;4.747466e-001
1.051059e+003;4.701675e-001
1.052987e+003;4.660186e-001
1.054916e+003;4.609605e-001
1.056844e+003;4.551637e-001
1.058773e+003;4.488489e-001
1.060701e+003;4.417102e-001
1.062630e+003;4.337787e-001
1.064558e+003;4.250856e-001
1.066487e+003;4.153198e-001
1.068416e+003;4.064800e-001
1.070344e+003;3.989995e-001
1.072273e+003;3.895344e-001
1.074201e+003;3.794273e-001
1.076130e+003;3.701685e-001
1.078058e+003;3.617905e-001
1.079987e+003;3.539200e-001
1.081915e+003;3.461813e-001
1.083844e+003;3.396341e-001
1.085773e+003;3.340423e-001
1.087701e+003;3.283601e-001
1.089630e+003;3.217489e-001
1.091558e+003;3.154905e-001
1.093487e+003;3.097153e-001
1.095415e+003;3.029915e-001
1.097344e+003;2.952670e-001
1.099272e+003;2.881779e-001
1.101201e+003;2.812370e-001
1.103129e+003;2.742209e-001
1.105058e+003;2.684771e-001
1.106987e+003;2.644066e-001
1.108915e+003;2.603889e-001
1.110844e+003;2.557030e-001
1.112772e+003;2.513289e-001
1.114701e+003;2.464635e-001
1.116629e+003;2.406346e-001
1.118558e+003;2.347989e-001
1.120486e+003;2.284924e-001
1.122415e+003;2.215177e-001
1.124344e+003;2.143651e-001
1.126272e+003;2.074196e-001
1.128201e+003;2.004787e-001
1.130129e+003;1.943466e-001
1.132058e+003;1.887849e-001
1.133986e+003;1.835340e-001
1.135915e+003;1.789086e-001
1.137843e+003;1.754125e-001
1.139772e+003;1.725770e-001
1.141700e+003;1.707832e-001
1.143629e+003;1.701332e-001
1.145557e+003;1.701801e-001
1.147486e+003;1.711093e-001
1.149415e+003;1.729250e-001
1.151343e+003;1.751102e-001
1.153272e+003;1.765717e-001
1.155200e+003;1.769975e-001
1.157129e+003;1.765589e-001
1.159057e+003;1.742253e-001
1.160986e+003;1.699817e-001
1.162914e+003;1.640069e-001
1.164843e+003;1.565561e-001
1.166771e+003;1.488321e-001
1.168700e+003;1.410977e-001
1.170629e+003;1.337017e-001
1.172557e+003;1.269330e-001
1.174486e+003;1.212945e-001
1.176414e+003;1.166403e-001
1.178343e+003;1.124985e-001
1.180271e+003;1.089468e-001
1.182200e+003;1.063138e-001
1.184128e+003;1.051522e-001
1.186057e+003;1.052127e-001
1.187986e+003;1.059911e-001
1.189914e+003;1.081502e-001
1.191843e+003;1.113828e-001
1.193771e+003;1.144757e-001
1.195700e+003;1.171185e-001
1.197628e+003;1.188183e-001
1.199557e+003;1.194713e-001
1.201485e+003;1.192119e-001
1.203414e+003;1.176654e-001
1.205343e+003;1.150065e-001
1.207271e+003;1.124913e-001
1.209200e+003;1.108461e-001
1.211128e+003;1.099899e-001
1.213057e+003;1.096794e-001
1.214985e+003;1.097657e-001
1.216914e+003;1.109061e-001
1.218842e+003;1.130716e-001
1.220771e+003;1.156422e-001
1.222699e+003;1.182862e-001
1.224628e+003;1.208774e-001
1.226557e+003;1.227934e-001
1.228485e+003;1.237263e-001
1.230414e+003;1.244376e-001
1.232342e+003;1.250996e-001
1.234271e+003;1.255224e-001
1.236199e+003;1.258818e-001
1.238128e+003;1.257604e-001
1.240056e+003;1.254205e-001
1.241985e+003;1.252005e-001
1.243913e+003;1.251815e-001
1.245842e+003;1.253552e-001
1.247771e+003;1.255879e-001
1.249699e+003;1.261661e-001
1.251628e+003;1.273757e-001
1.253556e+003;1.289855e-001
1.255485e+003;1.304021e-001
1.257413e+003;1.313224e-001
1.259342e+003;1.319634e-001
1.261270e+003;1.318700e-001
1.263199e+003;1.310997e-001
1.265127e+003;1.302239e-001
1.267056e+003;1.293441e-001
1.268985e+003;1.281174e-001
1.270913e+003;1.268146e-001
1.272842e+003;1.256978e-001
1.274770e+003;1.248522e-001
1.276699e+003;1.240840e-001
1.278627e+003;1.233475e-001
1.280556e+003;1.224254e-001
1.282484e+003;1.214877e-001
1.284413e+003;1.210711e-001
1.286342e+003;1.215181e-001
1.288270e+003;1.227457e-001
1.290199e+003;1.242407e-001
1.292127e+003;1.260827e-001
1.294056e+003;1.278637e-001
1.295984e+003;1.298876e-001
1.297913e+003;1.319619e-001
1.299841e+003;1.336280e-001
1.301770e+003;1.350723e-001
1.303698e+003;1.369035e-001
1.305627e+003;1.390572e-001
1.307556e+003;1.413186e-001
1.309484e+003;1.432449e-001
1.311413e+003;1.443904e-001
1.313341e+003;1.450405e-001
1.315270e+003;1.454355e-001
1.317198e+003;1.452361e-001
1.319127e+003;1.445542e-001
1.321055e+003;1.439426e-001
1.322984e+003;1.436175e-001
1.324912e+003;1.433218e-001
1.326841e+003;1.432388e-001
1.328770e+003;1.435066e-001
1.330698e+003;1.437663e-001
1.332627e+003;1.438038e-001
1.334555e+003;1.440421e-001
1.336484e+003;1.441486e-001
1.338412e+003;1.435645e-001
1.340341e+003;1.428049e-001
1.342269e+003;1.425892e-001
1.344198e+003;1.425050e-001
1.346126e+003;1.424274e-001
1.348055e+003;1.424561e-001
1.349984e+003;1.425164e-001
1.351912e+003;1.430272e-001
1.353841e+003;1.439893e-001
1.355769e+003;1.448723e-001
1.357698e+003;1.457144e-001
1.359626e+003;1.463553e-001
1.361555e+003;1.469214e-001
1.363483e+003;1.471592e-001
1.365412e+003;1.470942e-001
1.367341e+003;1.466903e-001
1.369269e+003;1.457676e-001
1.371198e+003;1.446345e-001
1.373126e+003;1.430611e-001
1.375055e+003;1.411767e-001
1.376983e+003;1.391619e-001
1.378912e+003;1.369173e-001
1.380840e+003;1.343731e-001
1.382769e+003;1.317960e-001
1.384698e+003;1.295557e-001
1.386626e+003;1.276546e-001
1.388555e+003;1.261503e-001
1.390483e+003;1.250136e-001
1.392412e+003;1.242091e-001
1.394340e+003;1.239086e-001
1.396269e+003;1.239135e-001
1.398197e+003;1.238894e-001
1.400126e+003;1.234324e-001
1.402054e+003;1.228988e-001
1.403983e+003;1.230879e-001
1.405911e+003;1.233868e-001
1.407840e+003;1.232702e-001
1.409769e+003;1.231377e-001
1.411697e+003;1.232620e-001
1.413626e+003;1.237236e-001
1.415554e+003;1.238730e-001
1.417483e+003;1.233371e-001
1.419411e+003;1.227638e-001
1.421340e+003;1.224026e-001
1.423268e+003;1.221644e-001
1.425197e+003;1.219436e-001
1.427125e+003;1.214196e-001
1.429054e+003;1.206015e-001
1.430983e+003;1.198269e-001
1.432911e+003;1.189434e-001
1.434840e+003;1.178841e-001
1.436768e+003;1.168109e-001
1.438697e+003;1.160139e-001
1.440625e+003;1.153966e-001
1.442554e+003;1.142790e-001
1.444482e+003;1.128687e-001
1.446411e+003;1.116992e-001
1.448340e+003;1.105561e-001
1.450268e+003;1.093464e-001
1.452197e+003;1.080704e-001
1.454125e+003;1.068109e-001
1.456054e+003;1.051435e-001
1.457982e+003;1.036494e-001
1.459911e+003;1.026708e-001
1.461839e+003;1.013612e-001
1.463768e+003;9.975813e-002
1.465697e+003;9.810439e-002
1.467625e+003;9.644171e-002
1.469554e+003;9.442187e-002
1.471482e+003;9.198963e-002
1.473411e+003;8.959700e-002
1.475339e+003;8.728107e-002
1.477268e+003;8.480327e-002
1.479196e+003;8.259124e-002
1.481125e+003;8.058004e-002
1.483053e+003;7.840599e-002
1.484982e+003;7.633073e-002
1.486911e+003;7.442580e-002
1.488839e+003;7.260035e-002
1.490768e+003;7.094473e-002
1.492696e+003;6.965345e-002
1.494625e+003;6.840514e-002
1.496553e+003;6.694392e-002
1.498482e+003;6.593952e-002
1.500410e+003;6.518058e-002
1.502339e+003;6.442472e-002
1.504267e+003;6.352261e-002
1.506196e+003;6.240308e-002
1.508125e+003;6.161912e-002
1.510053e+003;6.121920e-002
1.511982e+003;6.072650e-002
1.513910e+003;6.013142e-002
1.515839e+003;5.953738e-002
1.517767e+003;5.897375e-002
1.519696e+003;5.865013e-002
1.521624e+003;5.833971e-002
1.523553e+003;5.809484e-002
1.525481e+003;5.798691e-002
1.527410e+003;5.768510e-002
1.529339e+003;5.750366e-002
1.531267e+003;5.755476e-002
1.533196e+003;5.729703e-002
1.535124e+003;5.716805e-002
1.537053e+003;5.698334e-002
1.538981e+003;5.649437e-002
1.540910e+003;5.651090e-002
1.542838e+003;5.683652e-002
1.544767e+003;5.706805e-002
1.546695e+003;5.726939e-002
1.548624e+003;5.749110e-002
1.550553e+003;5.745286e-002
1.552481e+003;5.746795e-002
1.554410e+003;5.761257e-002
1.556338e+003;5.745354e-002
1.558267e+003;5.722951e-002
1.560195e+003;5.728705e-002
1.562124e+003;5.771416e-002
1.564052e+003;5.813924e-002
1.565981e+003;5.836036e-002
1.567910e+003;5.860341e-002
1.569838e+003;5.880265e-002
1.571767e+003;5.918205e-002
1.573695e+003;5.958887e-002
1.575624e+003;5.989151e-002
1.577552e+003;6.030540e-002
1.579481e+003;6.085490e-002
1.581409e+003;6.137434e-002
1.583338e+003;6.198753e-002
1.585266e+003;6.255268e-002
1.587195e+003;6.306970e-002
1.589124e+003;6.366212e-002
1.591052e+003;6.435950e-002
1.592981e+003;6.500086e-002
1.594909e+003;6.573066e-002
1.596838e+003;6.657847e-002
1.598766e+003;6.712325e-002
1.600695e+003;6.759585e-002
1.602623e+003;6.835597e-002
1.604552e+003;6.919975e-002
1.606480e+003;6.991252e-002
1.608409e+003;7.072116e-002
1.610338e+003;7.146134e-002
1.612266e+003;7.213625e-002
1.614195e+003;7.287317e-002
1.616123e+003;7.376591e-002
1.618052e+003;7.449377e-002
1.619980e+003;7.525705e-002
1.621909e+003;7.598239e-002
1.623837e+003;7.664455e-002
1.625766e+003;7.741603e-002
1.627694e+003;7.806190e-002
1.629623e+003;7.865155e-002
1.631552e+003;7.907047e-002
1.633480e+003;7.926641e-002
1.635409e+003;7.939997e-002
1.637337e+003;7.966738e-002
1.639266e+003;7.998104e-002
1.641194e+003;8.015388e-002
1.643123e+003;7.999168e-002
1.645051e+003;7.964469e-002
1.646980e+003;7.939305e-002
1.648909e+003;7.924449e-002
1.650837e+003;7.866326e-002
1.652766e+003;7.775180e-002
1.654694e+003;7.740874e-002
1.656623e+003;7.740679e-002
1.658551e+003;7.698057e-002
1.660480e+003;7.608715e-002
1.662408e+003;7.516934e-002
1.664337e+003;7.434680e-002
1.666266e+003;7.340554e-002
1.668194e+003;7.231084e-002
1.670123e+003;7.122061e-002
1.672051e+003;7.025660e-002
1.673980e+003;6.930332e-002
1.675908e+003;6.815621e-002
1.677837e+003;6.722694e-002
1.679765e+003;6.619421e-002
1.681694e+003;6.499205e-002
1.683622e+003;6.387855e-002
1.685551e+003;6.293368e-002
1.687479e+003;6.220967e-002
1.689408e+003;6.146316e-002
1.691337e+003;6.090488e-002
1.693265e+003;6.027506e-002
1.695194e+003;5.933852e-002
1.697122e+003;5.899424e-002
1.699051e+003;5.886248e-002
1.700979e+003;5.856188e-002
1.702908e+003;5.845152e-002
1.704836e+003;5.811193e-002
1.706765e+003;5.775072e-002
1.708693e+003;5.758680e-002
1.710622e+003;5.747298e-002
1.712551e+003;5.728111e-002
1.714479e+003;5.665305e-002
1.716408e+003;5.589435e-002
1.718336e+003;5.533050e-002
1.720265e+003;5.500458e-002
1.722193e+003;5.452399e-002
1.724122e+003;5.355223e-002
1.726050e+003;5.256782e-002
1.727979e+003;5.171719e-002
1.729908e+003;5.078232e-002
1.731836e+003;4.990611e-002
1.733765e+003;4.897020e-002
1.735693e+003;4.778531e-002
1.737622e+003;4.664908e-002
1.739550e+003;4.547436e-002
1.741479e+003;4.448355e-002
1.743407e+003;4.334124e-002
1.745336e+003;4.218517e-002
1.747265e+003;4.135745e-002
1.749193e+003;4.082624e-002
1.751122e+003;4.037340e-002
1.753050e+003;4.008668e-002
1.754979e+003;3.970290e-002
1.756907e+003;3.934942e-002
1.758836e+003;3.920144e-002
1.760764e+003;3.890639e-002
1.762693e+003;3.863348e-002
1.764621e+003;3.877794e-002
1.766550e+003;3.882989e-002
1.768479e+003;3.870697e-002
1.770407e+003;3.855512e-002
1.772336e+003;3.821393e-002
1.774264e+003;3.787931e-002
1.776193e+003;3.767935e-002
1.778121e+003;3.762743e-002
1.780050e+003;3.764679e-002
1.781978e+003;3.761796e-002
1.783907e+003;3.744929e-002
1.785835e+003;3.729340e-002
1.787764e+003;3.714987e-002
1.789693e+003;3.684982e-002
1.791621e+003;3.652425e-002
1.793550e+003;3.635770e-002
1.795478e+003;3.639873e-002
1.797407e+003;3.631054e-002
1.799335e+003;3.612275e-002
1.801264e+003;3.603422e-002
1.803192e+003;3.601835e-002
1.805121e+003;3.591029e-002
1.807049e+003;3.574167e-002
1.808978e+003;3.552335e-002
1.810907e+003;3.547035e-002
1.812835e+003;3.543836e-002
1.814764e+003;3.530956e-002
1.816692e+003;3.508111e-002
1.818621e+003;3.500636e-002
1.820549e+003;3.500996e-002
1.822478e+003;3.492118e-002
1.824406e+003;3.468892e-002
1.826335e+003;3.470065e-002
1.828264e+003;3.456533e-002
1.830192e+003;3.427474e-002
1.832121e+003;3.432411e-002
1.834049e+003;3.426316e-002
1.835978e+003;3.414389e-002
1.837906e+003;3.407539e-002
1.839835e+003;3.385562e-002
1.841763e+003;3.373685e-002
1.843692e+003;3.366556e-002
1.845620e+003;3.359170e-002
1.847549e+003;3.342913e-002
1.849478e+003;3.334802e-002
1.851406e+003;3.332955e-002
1.853335e+003;3.329793e-002
1.855263e+003;3.326599e-002
1.857192e+003;3.328570e-002
1.859120e+003;3.322696e-002
1.861049e+003;3.301480e-002
1.862977e+003;3.284262e-002
1.864906e+003;3.291763e-002
1.866834e+003;3.285101e-002
1.868763e+003;3.266479e-002
1.870692e+003;3.265065e-002
1.872620e+003;3.261264e-002
1.874549e+003;3.230232e-002
1.876477e+003;3.209257e-002
1.878406e+003;3.211398e-002
1.880334e+003;3.237211e-002
1.882263e+003;3.249536e-002
1.884191e+003;3.227359e-002
1.886120e+003;3.200736e-002
1.888048e+003;3.189876e-002
1.889977e+003;3.195974e-002
1.891906e+003;3.196905e-002
1.893834e+003;3.203011e-002
1.895763e+003;3.213742e-002
1.897691e+003;3.204791e-002
1.899620e+003;3.201645e-002
1.901548e+003;3.210192e-002
1.903477e+003;3.224643e-002
1.905405e+003;3.242009e-002
1.907334e+003;3.239257e-002
1.909262e+003;3.228598e-002
1.911191e+003;3.242141e-002
1.913120e+003;3.256539e-002
1.915048e+003;3.270155e-002
1.916977e+003;3.300139e-002
1.918905e+003;3.326394e-002
1.920834e+003;3.334279e-002
1.922762e+003;3.333646e-002
1.924691e+003;3.341743e-002
1.926619e+003;3.355999e-002
1.928548e+003;3.374899e-002
1.930477e+003;3.393801e-002
1.932405e+003;3.383251e-002
1.934334e+003;3.382273e-002
1.936262e+003;3.395825e-002
1.938191e+003;3.397334e-002
1.940119e+003;3.413116e-002
1.942048e+003;3.429206e-002
1.943976e+003;3.431949e-002
1.945905e+003;3.437141e-002
1.947833e+003;3.465245e-002
1.949762e+003;3.508129e-002
1.951691e+003;3.516733e-002
1.953619e+003;3.516607e-002
1.955548e+003;3.545992e-002
1.957476e+003;3.547064e-002
1.959405e+003;3.542013e-002
1.961333e+003;3.556632e-002
1.963262e+003;3.590180e-002
1.965190e+003;3.620807e-002
1.967119e+003;3.618336e-002
1.969047e+003;3.610227e-002
1.970976e+003;3.624340e-002
1.972905e+003;3.649275e-002
1.974833e+003;3.679403e-002
1.976762e+003;3.696067e-002
1.978690e+003;3.705394e-002
1.980619e+003;3.718636e-002
1.982547e+003;3.721419e-002
1.984476e+003;3.727708e-002
1.986404e+003;3.726607e-002
1.988333e+003;3.718957e-002
1.990261e+003;3.731152e-002
1.992190e+003;3.751919e-002
1.994119e+003;3.760763e-002
1.996047e+003;3.755705e-002
1.997976e+003;3.764614e-002
1.999904e+003;3.783434e-002
2.001833e+003;3.768929e-002
2.003761e+003;3.759809e-002
2.005690e+003;3.806876e-002
2.007618e+003;3.846123e-002
2.009547e+003;3.845454e-002
2.011476e+003;3.828945e-002
2.013404e+003;3.848520e-002
2.015333e+003;3.882612e-002
2.017261e+003;3.905195e-002
2.019190e+003;3.945518e-002
2.021118e+003;3.968217e-002
2.023047e+003;3.958884e-002
2.024975e+003;3.967186e-002
2.026904e+003;3.994429e-002
2.028833e+003;4.003613e-002
2.030761e+003;4.014805e-002
2.032690e+003;4.033864e-002
2.034618e+003;4.038380e-002
2.036547e+003;4.045723e-002
2.038475e+003;4.051287e-002
2.040404e+003;4.062968e-002
2.042332e+003;4.071188e-002
2.044261e+003;4.076884e-002
2.046189e+003;4.090815e-002
2.048118e+003;4.100398e-002
2.050047e+003;4.096775e-002
2.051975e+003;4.093844e-002
2.053904e+003;4.109062e-002
2.055832e+003;4.114708e-002
2.057761e+003;4.111826e-002
2.059689e+003;4.109273e-002
2.061618e+003;4.100649e-002
2.063546e+003;4.099109e-002
2.065475e+003;4.093774e-002
2.067404e+003;4.093614e-002
2.069332e+003;4.117083e-002
2.071260e+003;4.127612e-002
2.073189e+003;4.116328e-002
2.075118e+003;4.116966e-002
2.077046e+003;4.109408e-002
2.078975e+003;4.088510e-002
2.080903e+003;4.107674e-002
2.082832e+003;4.113232e-002
2.084760e+003;4.109743e-002
2.086689e+003;4.112103e-002
2.088617e+003;4.124289e-002
2.090546e+003;4.131544e-002
2.092475e+003;4.122405e-002
2.094403e+003;4.149764e-002
2.096332e+003;4.173551e-002
2.098260e+003;4.149276e-002
2.100189e+003;4.130112e-002
2.102117e+003;4.128381e-002
2.104046e+003;4.132149e-002
2.105974e+003;4.168157e-002
2.107903e+003;4.214285e-002
2.109832e+003;4.212011e-002
2.111760e+003;4.203341e-002
2.113688e+003;4.227478e-002
2.115617e+003;4.240628e-002
2.117546e+003;4.239390e-002
2.119474e+003;4.239298e-002
2.121403e+003;4.248772e-002
2.123331e+003;4.251480e-002
2.125260e+003;4.247921e-002
2.127188e+003;4.253383e-002
2.129117e+003;4.270259e-002
2.131045e+003;4.292952e-002
2.132974e+003;4.310030e-002
2.134903e+003;4.316119e-002
2.136831e+003;4.302950e-002
2.138760e+003;4.291325e-002
2.140688e+003;4.286362e-002
2.142617e+003;4.268910e-002
2.144545e+003;4.256928e-002
2.146474e+003;4.262191e-002
2.148402e+003;4.257528e-002
2.150331e+003;4.254710e-002
2.152260e+003;4.233629e-002
2.154188e+003;4.207082e-002
2.156117e+003;4.209152e-002
2.158045e+003;4.197818e-002
2.159974e+003;4.186495e-002
2.161902e+003;4.196497e-002
2.163831e+003;4.207491e-002
2.165759e+003;4.218747e-002
2.167688e+003;4.217235e-002
2.169616e+003;4.195917e-002
2.171545e+003;4.177739e-002
2.173474e+003;4.163729e-002
2.175402e+003;4.162934e-002
2.177331e+003;4.134357e-002
2.179259e+003;4.092220e-002
2.181188e+003;4.088157e-002
2.183116e+003;4.090363e-002
2.185045e+003;4.063918e-002
2.186973e+003;4.035410e-002
2.188902e+003;4.028749e-002
2.190831e+003;4.027102e-002
2.192759e+003;4.021024e-002
2.194688e+003;4.013461e-002
2.196616e+003;4.009758e-002
2.198545e+003;4.001673e-002
2.200473e+003;3.991774e-002
2.202402e+003;3.997560e-002
2.204330e+003;3.996637e-002
2.206259e+003;3.984840e-002
2.208188e+003;3.969509e-002
2.210116e+003;3.951589e-002
2.212044e+003;3.926734e-002
2.213973e+003;3.918015e-002
2.215902e+003;3.905311e-002
2.217830e+003;3.913900e-002
2.219759e+003;3.923564e-002
2.221687e+003;3.894053e-002
2.223616e+003;3.864580e-002
2.225544e+003;3.862345e-002
2.227473e+003;3.869386e-002
2.229401e+003;3.847159e-002
2.231330e+003;3.835796e-002
2.233259e+003;3.834066e-002
2.235187e+003;3.831833e-002
2.237116e+003;3.850312e-002
2.239044e+003;3.868611e-002
2.240973e+003;3.861755e-002
2.242901e+003;3.850319e-002
2.244830e+003;3.813105e-002
2.246758e+003;3.763765e-002
2.248687e+003;3.742614e-002
2.250615e+003;3.764192e-002
2.252544e+003;3.773609e-002
2.254473e+003;3.752634e-002
2.256401e+003;3.722592e-002
2.258330e+003;3.695516e-002
2.260258e+003;3.693005e-002
2.262187e+003;3.691569e-002
2.264115e+003;3.678945e-002
2.266044e+003;3.679565e-002
2.267972e+003;3.682919e-002
2.269901e+003;3.680059e-002
2.271830e+003;3.666112e-002
2.273758e+003;3.647044e-002
2.275687e+003;3.641560e-002
2.277615e+003;3.654166e-002
2.279544e+003;3.645257e-002
2.281472e+003;3.620187e-002
2.283401e+003;3.609003e-002
2.285329e+003;3.610536e-002
2.287258e+003;3.608923e-002
2.289187e+003;3.594502e-002
2.291115e+003;3.583853e-002
2.293043e+003;3.582788e-002
2.294972e+003;3.586764e-002
2.296901e+003;3.582270e-002
2.298829e+003;3.582457e-002
2.300758e+003;3.593487e-002
2.302686e+003;3.595747e-002
2.304615e+003;3.576758e-002
2.306543e+003;3.573257e-002
2.308472e+003;3.598757e-002
2.310400e+003;3.630254e-002
2.312329e+003;3.635154e-002
2.314258e+003;3.625172e-002
2.316186e+003;3.644623e-002
2.318115e+003;3.646861e-002
2.320043e+003;3.627254e-002
2.321972e+003;3.621682e-002
2.323900e+003;3.606817e-002
2.325829e+003;3.582194e-002
2.327757e+003;3.599282e-002
2.329686e+003;3.636912e-002
2.331615e+003;3.651041e-002
2.333543e+003;3.642320e-002
2.335472e+003;3.632783e-002
2.337400e+003;3.650954e-002
2.339329e+003;3.680236e-002
2.341257e+003;3.705889e-002
2.343186e+003;3.714186e-002
2.345114e+003;3.742502e-002
2.347043e+003;3.773652e-002
2.348971e+003;3.767093e-002
2.350900e+003;3.775756e-002
2.352829e+003;3.812193e-002
2.354757e+003;3.811604e-002
2.356686e+003;3.796757e-002
2.358614e+003;3.814798e-002
2.360543e+003;3.826300e-002
2.362471e+003;3.840932e-002
2.364400e+003;3.860335e-002
2.366328e+003;3.866727e-002
2.368257e+003;3.885555e-002
2.370186e+003;3.915890e-002
2.372114e+003;3.932399e-002
2.374042e+003;3.925860e-002
2.375971e+003;3.920691e-002
2.377900e+003;3.934344e-002
2.379828e+003;3.956456e-002
2.381757e+003;3.977323e-002
2.383685e+003;3.997895e-002
2.385614e+003;4.025942e-002
2.387542e+003;4.017008e-002
2.389471e+003;4.011346e-002
2.391399e+003;4.021315e-002
2.393328e+003;4.042097e-002
2.395257e+003;4.061230e-002
2.397185e+003;4.076309e-002
2.399114e+003;4.090509e-002
2.401042e+003;4.108217e-002
2.402971e+003;4.136857e-002
2.404899e+003;4.146268e-002
2.406828e+003;4.140104e-002
2.408756e+003;4.156775e-002
2.410685e+003;4.196253e-002
2.412614e+003;4.224338e-002
2.414542e+003;4.240577e-002
2.416471e+003;4.270475e-002
2.418399e+003;4.288227e-002
2.420328e+003;4.289043e-002
2.422256e+003;4.300170e-002
2.424185e+003;4.311369e-002
2.426113e+003;4.337701e-002
2.428042e+003;4.372136e-002
2.429970e+003;4.392405e-002
2.431899e+003;4.420540e-002
2.433828e+003;4.438141e-002
2.435756e+003;4.440174e-002
2.437685e+003;4.456586e-002
2.439613e+003;4.516715e-002
2.441542e+003;4.559233e-002
2.443470e+003;4.536062e-002
2.445399e+003;4.549621e-002
2.447327e+003;4.592570e-002
2.449256e+003;4.633964e-002
2.451185e+003;4.666742e-002
2.453113e+003;4.684557e-002
2.455042e+003;4.716114e-002
2.456970e+003;4.739873e-002
2.458899e+003;4.723646e-002
2.460827e+003;4.723794e-002
2.462756e+003;4.739803e-002
2.464684e+003;4.770169e-002
2.466613e+003;4.820721e-002
2.468542e+003;4.867600e-002
2.470470e+003;4.889600e-002
2.472398e+003;4.897469e-002
2.474327e+003;4.895259e-002
2.476256e+003;4.888357e-002
2.478184e+003;4.916875e-002
2.480113e+003;4.973524e-002
2.482041e+003;5.006206e-002
2.483970e+003;5.017601e-002
2.485898e+003;5.039021e-002
2.487827e+003;5.047435e-002
2.489755e+003;5.050852e-002
2.491684e+003;5.079145e-002
2.493613e+003;5.093516e-002
2.495541e+003;5.115228e-002
2.497470e+003;5.120037e-002
2.499398e+003;5.100473e-002
2.501327e+003;5.118310e-002
2.503255e+003;5.149386e-002
2.505184e+003;5.163426e-002
2.507112e+003;5.171468e-002
2.509041e+003;5.203105e-002
2.510969e+003;5.232107e-002
2.512898e+003;5.231807e-002
2.514827e+003;5.224755e-002
2.516755e+003;5.243553e-002
2.518684e+003;5.284154e-002
2.520612e+003;5.291894e-002
2.522541e+003;5.309398e-002
2.524469e+003;5.324887e-002
2.526398e+003;5.315169e-002
2.528326e+003;5.317595e-002
2.530255e+003;5.333421e-002
2.532184e+003;5.352074e-002
2.534112e+003;5.358315e-002
2.536041e+003;5.365520e-002
2.537969e+003;5.375550e-002
2.539898e+003;5.399654e-002
2.541826e+003;5.408957e-002
2.543755e+003;5.416189e-002
2.545683e+003;5.426437e-002
2.547612e+003;5.414331e-002
2.549541e+003;5.420453e-002
2.551469e+003;5.448831e-002
2.553397e+003;5.475963e-002
2.555326e+003;5.519560e-002
2.557255e+003;5.541425e-002
2.559183e+003;5.533897e-002
2.561112e+003;5.545923e-002
2.563040e+003;5.576511e-002
2.564969e+003;5.585855e-002
2.566897e+003;5.580833e-002
2.568826e+003;5.568638e-002
2.570754e+003;5.561463e-002
2.572683e+003;5.566036e-002
2.574612e+003;5.570122e-002
2.576540e+003;5.601040e-002
2.578469e+003;5.638616e-002
2.580397e+003;5.656744e-002
2.582326e+003;5.655083e-002
2.584254e+003;5.678388e-002
2.586183e+003;5.733779e-002
2.588111e+003;5.757292e-002
2.590040e+003;5.754598e-002
2.591969e+003;5.766565e-002
2.593897e+003;5.780390e-002
2.595826e+003;5.791346e-002
2.597754e+003;5.805977e-002
2.599683e+003;5.826070e-002
2.601611e+003;5.844030e-002
2.603540e+003;5.873095e-002
2.605468e+003;5.894908e-002
2.607397e+003;5.906534e-002
2.609325e+003;5.921094e-002
2.611254e+003;5.938167e-002
2.613183e+003;5.954323e-002
2.615111e+003;5.981956e-002
2.617040e+003;6.018085e-002
2.618968e+003;6.040196e-002
2.620897e+003;6.056812e-002
2.622825e+003;6.088265e-002
2.624754e+003;6.103493e-002
2.626682e+003;6.122546e-002
2.628611e+003;6.170905e-002
2.630540e+003;6.217216e-002
2.632468e+003;6.223326e-002
2.634396e+003;6.236169e-002
2.636325e+003;6.277047e-002
2.638254e+003;6.311882e-002
2.640182e+003;6.310584e-002
2.642111e+003;6.332433e-002
2.644039e+003;6.407608e-002
2.645968e+003;6.440412e-002
2.647896e+003;6.422611e-002
2.649825e+003;6.429295e-002
2.651753e+003;6.462369e-002
2.653682e+003;6.493460e-002
2.655611e+003;6.537581e-002
2.657539e+003;6.598997e-002
2.659468e+003;6.646524e-002
2.661396e+003;6.668393e-002
2.663325e+003;6.671333e-002
2.665253e+003;6.682005e-002
2.667182e+003;6.720025e-002
2.669110e+003;6.777436e-002
2.671039e+003;6.822936e-002
2.672968e+003;6.815156e-002
2.674896e+003;6.816194e-002
2.676825e+003;6.859035e-002
2.678753e+003;6.896209e-002
2.680682e+003;6.914912e-002
2.682610e+003;6.921709e-002
2.684539e+003;6.957570e-002
2.686467e+003;7.006157e-002
2.688396e+003;7.036205e-002
2.690324e+003;7.068825e-002
2.692253e+003;7.103880e-002
2.694182e+003;7.135800e-002
2.696110e+003;7.173900e-002
2.698039e+003;7.197607e-002
2.699967e+003;7.201803e-002
2.701896e+003;7.214579e-002
2.703824e+003;7.230133e-002
2.705753e+003;7.233925e-002
2.707681e+003;7.258511e-002
2.709610e+003;7.278030e-002
2.711539e+003;7.281075e-002
2.713467e+003;7.313835e-002
2.715396e+003;7.355183e-002
2.717324e+003;7.370065e-002
2.719253e+003;7.379226e-002
2.721181e+003;7.391296e-002
2.723110e+003;7.419926e-002
2.725038e+003;7.434554e-002
2.726967e+003;7.443752e-002
2.728896e+003;7.465813e-002
2.730824e+003;7.486413e-002
2.732752e+003;7.510801e-002
2.734681e+003;7.535044e-002
2.736610e+003;7.562870e-002
2.738538e+003;7.559554e-002
2.740467e+003;7.566801e-002
2.742395e+003;7.603987e-002
2.744324e+003;7.619526e-002
2.746252e+003;7.632409e-002
2.748181e+003;7.654247e-002
2.750109e+003;7.643554e-002
2.752038e+003;7.650583e-002
2.753967e+003;7.697748e-002
2.755895e+003;7.712245e-002
2.757824e+003;7.708723e-002
2.759752e+003;7.704952e-002
2.761681e+003;7.741714e-002
2.763609e+003;7.811556e-002
2.765538e+003;7.840270e-002
2.767466e+003;7.853762e-002
2.769395e+003;7.887451e-002
2.771323e+003;7.920954e-002
2.773252e+003;7.939555e-002
2.775181e+003;7.966802e-002
2.777109e+003;8.016200e-002
2.779038e+003;8.064192e-002
2.780966e+003;8.092310e-002
2.782895e+003;8.109879e-002
2.784823e+003;8.128701e-002
2.786752e+003;8.168822e-002
2.788680e+003;8.240561e-002
2.790609e+003;8.296417e-002
2.792538e+003;8.322511e-002
2.794466e+003;8.341056e-002
2.796395e+003;8.371420e-002
2.798323e+003;8.423446e-002
2.800252e+003;8.467194e-002
2.802180e+003;8.518564e-002
2.804109e+003;8.561896e-002
2.806037e+003;8.598045e-002
2.807966e+003;8.645187e-002
2.809895e+003;8.682833e-002
2.811823e+003;8.748488e-002
2.813751e+003;8.826376e-002
2.815680e+003;8.844781e-002
2.817609e+003;8.855855e-002
2.819537e+003;8.908037e-002
2.821466e+003;8.950651e-002
2.823394e+003;9.012815e-002
2.825323e+003;9.102941e-002
2.827251e+003;9.182041e-002
2.829180e+003;9.242516e-002
2.831108e+003;9.307315e-002
2.833037e+003;9.376681e-002
2.834966e+003;9.483297e-002
2.836894e+003;9.596664e-002
2.838823e+003;9.677891e-002
2.840751e+003;9.780933e-002
2.842680e+003;9.858834e-002
2.844608e+003;9.951144e-002
2.846537e+003;1.008578e-001
2.848465e+003;1.023324e-001
2.850394e+003;1.036993e-001
2.852323e+003;1.048707e-001
2.854251e+003;1.057832e-001
2.856180e+003;1.069697e-001
2.858108e+003;1.082411e-001
2.860037e+003;1.096136e-001
2.861965e+003;1.113952e-001
2.863894e+003;1.134719e-001
2.865822e+003;1.151793e-001
2.867751e+003;1.163979e-001
2.869679e+003;1.174385e-001
2.871608e+003;1.185322e-001
2.873536e+003;1.198652e-001
2.875465e+003;1.208600e-001
2.877394e+003;1.213517e-001
2.879322e+003;1.219472e-001
2.881251e+003;1.226932e-001
2.883179e+003;1.228697e-001
2.885108e+003;1.228491e-001
2.887036e+003;1.231680e-001
2.888965e+003;1.234700e-001
2.890893e+003;1.235458e-001
2.892822e+003;1.231550e-001
2.894750e+003;1.225716e-001
2.896679e+003;1.223012e-001
2.898608e+003;1.220227e-001
2.900536e+003;1.216011e-001
2.902465e+003;1.211411e-001
2.904393e+003;1.205111e-001
2.906322e+003;1.197268e-001
2.908250e+003;1.193158e-001
2.910179e+003;1.187904e-001
2.912107e+003;1.179818e-001
2.914036e+003;1.170312e-001
2.915965e+003;1.162468e-001
2.917893e+003;1.155339e-001
2.919822e+003;1.146632e-001
2.921750e+003;1.132562e-001
2.923679e+003;1.117580e-001
2.925607e+003;1.104748e-001
2.927536e+003;1.091335e-001
2.929464e+003;1.074306e-001
2.931393e+003;1.062745e-001
2.933322e+003;1.057699e-001
2.935250e+003;1.049202e-001
2.937178e+003;1.039634e-001
2.939107e+003;1.028424e-001
2.941036e+003;1.015969e-001
2.942964e+003;1.003576e-001
2.944893e+003;9.898409e-002
2.946821e+003;9.793278e-002
2.948750e+003;9.682868e-002
2.950678e+003;9.534654e-002
2.952607e+003;9.399512e-002
2.954535e+003;9.280655e-002
2.956464e+003;9.184223e-002
2.958393e+003;9.082446e-002
2.960321e+003;8.957130e-002
2.962250e+003;8.823676e-002
2.964178e+003;8.733349e-002
2.966107e+003;8.685605e-002
2.968035e+003;8.646258e-002
2.969964e+003;8.579252e-002
2.971892e+003;8.526535e-002
2.973821e+003;8.472192e-002
2.975750e+003;8.418885e-002
2.977678e+003;8.384424e-002
2.979607e+003;8.343987e-002
2.981535e+003;8.308792e-002
2.983464e+003;8.289314e-002
2.985392e+003;8.280060e-002
2.987321e+003;8.242176e-002
2.989249e+003;8.178709e-002
2.991178e+003;8.139179e-002
2.993106e+003;8.140146e-002
2.995035e+003;8.168218e-002
2.996964e+003;8.179857e-002
2.998892e+003;8.150726e-002
3.000821e+003;8.119585e-002
3.002749e+003;8.115455e-002
3.004678e+003;8.137264e-002
3.006606e+003;8.156110e-002
3.008535e+003;8.160008e-002
3.010463e+003;8.197405e-002
3.012392e+003;8.223119e-002
3.014321e+003;8.253257e-002
3.016249e+003;8.311480e-002
3.018177e+003;8.310389e-002
3.020106e+003;8.321749e-002
3.022035e+003;8.391936e-002
3.023963e+003;8.454045e-002
3.025892e+003;8.480117e-002
3.027820e+003;8.504868e-002
3.029749e+003;8.571820e-002
3.031677e+003;8.663049e-002
3.033606e+003;8.727313e-002
3.035534e+003;8.768019e-002
3.037463e+003;8.818196e-002
3.039392e+003;8.869463e-002
3.041320e+003;8.931100e-002
3.043249e+003;8.995378e-002
3.045177e+003;9.018894e-002
3.047106e+003;9.050961e-002
3.049034e+003;9.108420e-002
3.050963e+003;9.162773e-002
3.052891e+003;9.233117e-002
3.054820e+003;9.281627e-002
3.056749e+003;9.315321e-002
3.058677e+003;9.366575e-002
3.060606e+003;9.427018e-002
3.062534e+003;9.465778e-002
3.064463e+003;9.516537e-002
3.066391e+003;9.607600e-002
3.068320e+003;9.683406e-002
3.070248e+003;9.727705e-002
3.072177e+003;9.766804e-002
3.074105e+003;9.832121e-002
3.076034e+003;9.928059e-002
3.077963e+003;1.000456e-001
3.079891e+003;1.004244e-001
3.081820e+003;1.011557e-001
3.083748e+003;1.020015e-001
3.085677e+003;1.026919e-001
3.087605e+003;1.033963e-001
3.089534e+003;1.040935e-001
3.091462e+003;1.049020e-001
3.093391e+003;1.055678e-001
3.095320e+003;1.059546e-001
3.097248e+003;1.064290e-001
3.099177e+003;1.068632e-001
3.101105e+003;1.076534e-001
3.103034e+003;1.088181e-001
3.104962e+003;1.093879e-001
3.106891e+003;1.095988e-001
3.108819e+003;1.105131e-001
3.110748e+003;1.116808e-001
3.112677e+003;1.125582e-001
3.114605e+003;1.128625e-001
3.116533e+003;1.133164e-001
3.118462e+003;1.141767e-001
3.120391e+003;1.148258e-001
3.122319e+003;1.154782e-001
3.124248e+003;1.162817e-001
3.126176e+003;1.169763e-001
3.128105e+003;1.178188e-001
3.130033e+003;1.185305e-001
3.131962e+003;1.189492e-001
3.133890e+003;1.197653e-001
3.135819e+003;1.206139e-001
3.137748e+003;1.214051e-001
3.139676e+003;1.224432e-001
3.141605e+003;1.233538e-001
3.143533e+003;1.239695e-001
3.145462e+003;1.244770e-001
3.147390e+003;1.251064e-001
3.149319e+003;1.257956e-001
3.151247e+003;1.265316e-001
3.153176e+003;1.272618e-001
3.155104e+003;1.281029e-001
3.157033e+003;1.289300e-001
3.158962e+003;1.294798e-001
3.160890e+003;1.302031e-001
3.162819e+003;1.310016e-001
3.164747e+003;1.316652e-001
3.166676e+003;1.324068e-001
3.168604e+003;1.330174e-001
3.170533e+003;1.335901e-001
3.172461e+003;1.342730e-001
3.174390e+003;1.349994e-001
3.176319e+003;1.357939e-001
3.178247e+003;1.364925e-001
3.180176e+003;1.369865e-001
3.182104e+003;1.377881e-001
3.184033e+003;1.386627e-001
3.185961e+003;1.394607e-001
3.187890e+003;1.402284e-001
3.189818e+003;1.406883e-001
3.191747e+003;1.411045e-001
3.193676e+003;1.415988e-001
3.195604e+003;1.422071e-001
3.197532e+003;1.432370e-001
3.199461e+003;1.441841e-001
3.201390e+003;1.447618e-001
3.203318e+003;1.452507e-001
3.205247e+003;1.457655e-001
3.207175e+003;1.465308e-001
3.209104e+003;1.472758e-001
3.211032e+003;1.477223e-001
3.212961e+003;1.482481e-001
3.214889e+003;1.488933e-001
3.216818e+003;1.498977e-001
3.218747e+003;1.509545e-001
3.220675e+003;1.515266e-001
3.222604e+003;1.516496e-001
3.224532e+003;1.518772e-001
3.226461e+003;1.522493e-001
3.228389e+003;1.529774e-001
3.230318e+003;1.535561e-001
3.232246e+003;1.541575e-001
3.234175e+003;1.551917e-001
3.236104e+003;1.562143e-001
3.238032e+003;1.567363e-001
3.239961e+003;1.566971e-001
3.241889e+003;1.570393e-001
3.243818e+003;1.577486e-001
3.245746e+003;1.578009e-001
3.247675e+003;1.580797e-001
3.249603e+003;1.592099e-001
3.251532e+003;1.596500e-001
3.253460e+003;1.597242e-001
3.255389e+003;1.601719e-001
3.257318e+003;1.606329e-001
3.259246e+003;1.611045e-001
3.261175e+003;1.618613e-001
3.263103e+003;1.620107e-001
3.265032e+003;1.619920e-001
3.266960e+003;1.625917e-001
3.268889e+003;1.637322e-001
3.270817e+003;1.645289e-001
3.272746e+003;1.645616e-001
3.274675e+003;1.647336e-001
3.276603e+003;1.647355e-001
3.278531e+003;1.653022e-001
3.280460e+003;1.663468e-001
3.282389e+003;1.665605e-001
3.284317e+003;1.663716e-001
3.286246e+003;1.665748e-001
3.288174e+003;1.667338e-001
3.290103e+003;1.665104e-001
3.292031e+003;1.664438e-001
3.293960e+003;1.670116e-001
3.295888e+003;1.677054e-001
3.297817e+003;1.680159e-001
3.299746e+003;1.683181e-001
3.301674e+003;1.688480e-001
3.303603e+003;1.692569e-001
3.305531e+003;1.692015e-001
3.307460e+003;1.692247e-001
3.309388e+003;1.697621e-001
3.311317e+003;1.703982e-001
3.313245e+003;1.707543e-001
3.315174e+003;1.707475e-001
3.317103e+003;1.708620e-001
3.319031e+003;1.712254e-001
3.320960e+003;1.708930e-001
3.322888e+003;1.704092e-001
3.324817e+003;1.703218e-001
3.326745e+003;1.707101e-001
3.328674e+003;1.709151e-001
3.330602e+003;1.709276e-001
3.332531e+003;1.708401e-001
3.334459e+003;1.705279e-001
3.336388e+003;1.707189e-001
3.338317e+003;1.713694e-001
3.340245e+003;1.719238e-001
3.342174e+003;1.719913e-001
3.344102e+003;1.718171e-001
3.346031e+003;1.714579e-001
3.347959e+003;1.707112e-001
3.349888e+003;1.703945e-001
3.351816e+003;1.706251e-001
3.353745e+003;1.704210e-001
3.355674e+003;1.703083e-001
3.357602e+003;1.701833e-001
3.359531e+003;1.700169e-001
3.361459e+003;1.697591e-001
3.363388e+003;1.693324e-001
3.365316e+003;1.690464e-001
3.367245e+003;1.687182e-001
3.369173e+003;1.685052e-001
3.371102e+003;1.686216e-001
3.373031e+003;1.685830e-001
3.374959e+003;1.683549e-001
3.376887e+003;1.680669e-001
3.378816e+003;1.672461e-001
3.380745e+003;1.667317e-001
3.382673e+003;1.662915e-001
3.384602e+003;1.659968e-001
3.386530e+003;1.657247e-001
3.388459e+003;1.653374e-001
3.390387e+003;1.655196e-001
3.392316e+003;1.654451e-001
3.394244e+003;1.643540e-001
3.396173e+003;1.632479e-001
3.398102e+003;1.626882e-001
3.400030e+003;1.623683e-001
3.401959e+003;1.620053e-001
3.403887e+003;1.619532e-001
3.405816e+003;1.619141e-001
3.407744e+003;1.616173e-001
3.409673e+003;1.607938e-001
3.411601e+003;1.598456e-001
3.413530e+003;1.592548e-001
3.415458e+003;1.586233e-001
3.417387e+003;1.581649e-001
3.419316e+003;1.572401e-001
3.421244e+003;1.565873e-001
3.423173e+003;1.565974e-001
3.425101e+003;1.559402e-001
3.427030e+003;1.545502e-001
3.428958e+003;1.539894e-001
3.430887e+003;1.537775e-001
3.432815e+003;1.530139e-001
3.434744e+003;1.522263e-001
3.436673e+003;1.517180e-001
3.438601e+003;1.506229e-001
3.440530e+003;1.497401e-001
3.442458e+003;1.492774e-001
3.444387e+003;1.482338e-001
3.446315e+003;1.472399e-001
3.448244e+003;1.466921e-001
3.450172e+003;1.456557e-001
3.452101e+003;1.441817e-001
3.454030e+003;1.430991e-001
3.455958e+003;1.418956e-001
3.457886e+003;1.406018e-001
3.459815e+003;1.392437e-001
3.461744e+003;1.375378e-001
3.463672e+003;1.364490e-001
3.465601e+003;1.355549e-001
3.467529e+003;1.344779e-001
3.469458e+003;1.334955e-001
3.471386e+003;1.323138e-001
3.473315e+003;1.309947e-001
3.475243e+003;1.296421e-001
3.477172e+003;1.287313e-001
3.479101e+003;1.278767e-001
3.481029e+003;1.266780e-001
3.482958e+003;1.254946e-001
3.484886e+003;1.245034e-001
3.486815e+003;1.235966e-001
3.488743e+003;1.223485e-001
3.490672e+003;1.208637e-001
3.492600e+003;1.199133e-001
3.494529e+003;1.190740e-001
3.496458e+003;1.173800e-001
3.498386e+003;1.154689e-001
3.500315e+003;1.139526e-001
3.502243e+003;1.128596e-001
3.504172e+003;1.116647e-001
3.506100e+003;1.101669e-001
3.508029e+003;1.085696e-001
3.509957e+003;1.069073e-001
3.511886e+003;1.051605e-001
3.513814e+003;1.036084e-001
3.515743e+003;1.027116e-001
3.517672e+003;1.021247e-001
3.519600e+003;1.011645e-001
3.521529e+003;9.974442e-002
3.523457e+003;9.821904e-002
3.525386e+003;9.696729e-002
3.527314e+003;9.567294e-002
3.529243e+003;9.427311e-002
3.531171e+003;9.309347e-002
3.533100e+003;9.228769e-002
3.535029e+003;9.104600e-002
3.536957e+003;8.965609e-002
3.538885e+003;8.874577e-002
3.540814e+003;8.765108e-002
3.542743e+003;8.631915e-002
3.544671e+003;8.524366e-002
3.546600e+003;8.399550e-002
3.548528e+003;8.306228e-002
3.550457e+003;8.225242e-002
3.552385e+003;8.123891e-002
3.554314e+003;8.020584e-002
3.556242e+003;7.907532e-002
3.558171e+003;7.815610e-002
3.560100e+003;7.690398e-002
3.562028e+003;7.580735e-002
3.563957e+003;7.528955e-002
3.565885e+003;7.430740e-002
3.567814e+003;7.291659e-002
3.569742e+003;7.213014e-002
3.571671e+003;7.113094e-002
3.573599e+003;7.025749e-002
3.575528e+003;6.931852e-002
3.577457e+003;6.839661e-002
3.579385e+003;6.760487e-002
3.581314e+003;6.677070e-002
3.583242e+003;6.615910e-002
3.585171e+003;6.533086e-002
3.587099e+003;6.460612e-002
3.589028e+003;6.402094e-002
3.590956e+003;6.323574e-002
3.592885e+003;6.270206e-002
3.594813e+003;6.229123e-002
3.596742e+003;6.100493e-002
3.598671e+003;5.984789e-002
3.600599e+003;5.925010e-002
3.602528e+003;5.855931e-002
3.604456e+003;5.787439e-002
3.606385e+003;5.715070e-002
3.608313e+003;5.642234e-002
3.610242e+003;5.580818e-002
3.612170e+003;5.529313e-002
3.614099e+003;5.473137e-002
3.616028e+003;5.393768e-002
3.617956e+003;5.269480e-002
3.619885e+003;5.169416e-002
3.621813e+003;5.115996e-002
3.623742e+003;5.074974e-002
3.625670e+003;5.039542e-002
3.627599e+003;4.934689e-002
3.629527e+003;4.815305e-002
3.631456e+003;4.759464e-002
3.633385e+003;4.710586e-002
3.635313e+003;4.628464e-002
3.637241e+003;4.536275e-002
3.639170e+003;4.445327e-002
3.641099e+003;4.390366e-002
3.643027e+003;4.329153e-002
3.644956e+003;4.234893e-002
3.646884e+003;4.137458e-002
3.648813e+003;4.017851e-002
3.650741e+003;3.917087e-002
3.652670e+003;3.853057e-002
3.654598e+003;3.780950e-002
3.656527e+003;3.690260e-002
3.658456e+003;3.649953e-002
3.660384e+003;3.579348e-002
3.662313e+003;3.474408e-002
3.664241e+003;3.377234e-002
3.666170e+003;3.285820e-002
3.668098e+003;3.208302e-002
3.670027e+003;3.113895e-002
3.671955e+003;3.016806e-002
3.673884e+003;2.962782e-002
3.675813e+003;2.917209e-002
3.677741e+003;2.875552e-002
3.679669e+003;2.818507e-002
3.681598e+003;2.758077e-002
3.683527e+003;2.721885e-002
3.685455e+003;2.671327e-002
3.687384e+003;2.555513e-002
3.689312e+003;2.490843e-002
3.691241e+003;2.480430e-002
3.693169e+003;2.439842e-002
3.695098e+003;2.383033e-002
3.697026e+003;2.362509e-002
3.698955e+003;2.349653e-002
3.700884e+003;2.310138e-002
3.702812e+003;2.253645e-002
3.704741e+003;2.227517e-002
3.706669e+003;2.212495e-002
3.708598e+003;2.164229e-002
3.710526e+003;2.127015e-002
3.712455e+003;2.103815e-002
3.714383e+003;2.093671e-002
3.716312e+003;2.087868e-002
3.718240e+003;2.057733e-002
3.720169e+003;2.043696e-002
3.722098e+003;2.030771e-002
3.724026e+003;2.001880e-002
3.725955e+003;1.961622e-002
3.727883e+003;1.970598e-002
3.729812e+003;2.016049e-002
3.731740e+003;1.996228e-002
3.733669e+003;1.935562e-002
3.735597e+003;1.882907e-002
3.737526e+003;1.899568e-002
3.739455e+003;1.906339e-002
3.741383e+003;1.886793e-002
3.743312e+003;1.883315e-002
3.745240e+003;1.882059e-002
3.747169e+003;1.879405e-002
3.749097e+003;1.840367e-002
3.751026e+003;1.797030e-002
3.752954e+003;1.801122e-002
3.754883e+003;1.854245e-002
3.756812e+003;1.856534e-002
3.758740e+003;1.839849e-002
3.760668e+003;1.857575e-002
3.762597e+003;1.852641e-002
3.764526e+003;1.809298e-002
3.766454e+003;1.779942e-002
3.768383e+003;1.821442e-002
3.770311e+003;1.846728e-002
3.772240e+003;1.825381e-002
3.774168e+003;1.825184e-002
3.776097e+003;1.798860e-002
3.778025e+003;1.783540e-002
3.779954e+003;1.818408e-002
3.781883e+003;1.828384e-002
3.783811e+003;1.777157e-002
3.785740e+003;1.761512e-002
3.787668e+003;1.751369e-002
3.789597e+003;1.742476e-002
3.791525e+003;1.763531e-002
3.793454e+003;1.761126e-002
3.795382e+003;1.741007e-002
3.797311e+003;1.770095e-002
3.799240e+003;1.774955e-002
3.801168e+003;1.732869e-002
3.803097e+003;1.748068e-002
3.805025e+003;1.763286e-002
3.806954e+003;1.743808e-002
3.808882e+003;1.729824e-002
3.810811e+003;1.740479e-002
3.812739e+003;1.777143e-002
3.814668e+003;1.740183e-002
3.816596e+003;1.713466e-002
3.818525e+003;1.731072e-002
3.820454e+003;1.753446e-002
3.822382e+003;1.772393e-002
3.824311e+003;1.806773e-002
3.826239e+003;1.816041e-002
3.828168e+003;1.816625e-002
3.830096e+003;1.810459e-002
3.832025e+003;1.787634e-002
3.833953e+003;1.772390e-002
3.835882e+003;1.795838e-002
3.837811e+003;1.792119e-002
3.839739e+003;1.787375e-002
3.841667e+003;1.784668e-002
3.843596e+003;1.797462e-002
3.845525e+003;1.804618e-002
3.847453e+003;1.797721e-002
3.849382e+003;1.810901e-002
3.851310e+003;1.803505e-002
3.853239e+003;1.749941e-002
3.855167e+003;1.768977e-002
3.857096e+003;1.838210e-002
3.859024e+003;1.861435e-002
3.860953e+003;1.869400e-002
3.862882e+003;1.868089e-002
3.864810e+003;1.880177e-002
3.866739e+003;1.873099e-002
3.868667e+003;1.870919e-002
3.870596e+003;1.889492e-002
3.872524e+003;1.913873e-002
3.874453e+003;1.917063e-002
3.876381e+003;1.955425e-002
3.878310e+003;1.971167e-002
3.880239e+003;1.940818e-002
3.882167e+003;1.932704e-002
3.884096e+003;1.953154e-002
3.886024e+003;1.953366e-002
3.887953e+003;1.969325e-002
3.889881e+003;1.987251e-002
3.891810e+003;1.982194e-002
3.893738e+003;1.994202e-002
3.895667e+003;2.008046e-002
3.897595e+003;1.998556e-002
3.899524e+003;2.011593e-002
3.901453e+003;2.052880e-002
3.903381e+003;2.101116e-002
3.905310e+003;2.115871e-002
3.907238e+003;2.092989e-002
3.909167e+003;2.101738e-002
3.911095e+003;2.142269e-002
3.913024e+003;2.164333e-002
3.914952e+003;2.168673e-002
3.916881e+003;2.190956e-002
3.918810e+003;2.245382e-002
3.920738e+003;2.260828e-002
3.922667e+003;2.220009e-002
3.924595e+003;2.211780e-002
3.926524e+003;2.236081e-002
3.928452e+003;2.250061e-002
3.930381e+003;2.230681e-002
3.932309e+003;2.270393e-002
3.934238e+003;2.282080e-002
3.936167e+003;2.251695e-002
3.938095e+003;2.265450e-002
3.940023e+003;2.279792e-002
3.941952e+003;2.301591e-002
3.943881e+003;2.312958e-002
3.945809e+003;2.340281e-002
3.947738e+003;2.361172e-002
3.949666e+003;2.321521e-002
3.951595e+003;2.300840e-002
3.953523e+003;2.343323e-002
3.955452e+003;2.365112e-002
3.957380e+003;2.327218e-002
3.959309e+003;2.287381e-002
3.961238e+003;2.331424e-002
3.963166e+003;2.393560e-002
3.965095e+003;2.401792e-002
3.967023e+003;2.390983e-002
3.968952e+003;2.401354e-002
3.970880e+003;2.408117e-002
3.972809e+003;2.385893e-002
3.974737e+003;2.344711e-002
3.976666e+003;2.348282e-002
3.978594e+003;2.398879e-002
3.980523e+003;2.448889e-002
3.982452e+003;2.394026e-002
3.984380e+003;2.356065e-002
3.986309e+003;2.386240e-002
3.988237e+003;2.388585e-002
3.990166e+003;2.437048e-002
3.992094e+003;2.463254e-002
3.994023e+003;2.424468e-002
3.995951e+003;2.389348e-002
3.997880e+003;2.407756e-002
3.999809e+003;2.401753e-002
4.001737e+003;0.000000e+000
