3.992094e+002;0.000000e+000
4.011380e+002;0.000000e+000
4.030665e+002;0.000000e+000
4.049951e+002;0.000000e+000
4.069236e+002;0.000000e+000
4.088522e+002;0.000000e+000
4.107807e+002;0.000000e+000
4.127093e+002;0.000000e+000
4.146378e+002;0.000000e+000
4.165664e+002;0.000000e+000
4.184949e+002;0.000000e+000
4.204235e+002;0.000000e+000
4.223520e+002;0.000000e+000
4.242806e+002;0.000000e+000
4.262091e+002;0.000000e+000
4.281377e+002;0.000000e+000
4.300662e+002;0.000000e+000
4.319948e+002;0.000000e+000
4.339233e+002;0.000000e+000
4.358519e+002;0.000000e+000
4.377804e+002;0.000000e+000
4.397090e+002;0.000000e+000
4.416375e+002;0.000000e+000
4.435660e+002;0.000000e+000
4.454946e+002;0.000000e+000
4.474232e+002;0.000000e+000
4.493517e+002;0.000000e+000
4.512802e+002;0.000000e+000
4.532088e+002;0.000000e+000
4.551373e+002;0.000000e+000
4.570659e+002;0.000000e+000
4.589944e+002;0.000000e+000
4.609230e+002;0.000000e+000
4.628515e+002;0.000000e+000
4.647801e+002;0.000000e+000
4.667086e+002;0.000000e+000
4.686372e+002;0.000000e+000
4.705657e+002;0.000000e+000
4.724943e+002;0.000000e+000
4.744228e+002;0.000000e+000
4.763513e+002;0.000000e+000
4.782799e+002;0.000000e+000
4.802085e+002;0.000000e+000
4.821370e+002;0.000000e+000
4.840656e+002;0.000000e+000
4.859941e+002;0.000000e+000
4.879226e+002;0.000000e+000
4.898512e+002;0.000000e+000
4.917798e+002;0.000000e+000
4.937083e+002;0.000000e+000
4.956368e+002;0.000000e+000
4.975654e+002;0.000000e+000
4.994939e+002;0.000000e+000
5.014225e+002;0.000000e+000
5.033510e+002;0.000000e+000
5.052796e+002;0.000000e+000
5.072081e+002;0.000000e+000
5.091367e+002;0.000000e+000
5.110652e+002;0.000000e+000
5.129938e+002;0.000000e+000
5.149223e+002;0.000000e+000
5.168509e+002;0.000000e+000
5.187794e+002;0.000000e+000
5.207079e+002;0.000000e+000
5.226365e+002;0.000000e+000
5.245651e+002;0.000000e+000
5.264936e+002;0.000000e+000
5.284222e+002;0.000000e+000
5.303507e+002;0.000000e+000
5.322792e+002;0.000000e+000
5.342078e+002;0.000000e+000
5.361364e+002;0.000000e+000
5.380649e+002;0.000000e+000
5.399935e+002;0.000000e+000
5.419220e+002;0.000000e+000
5.438505e+002;0.000000e+000
5.457791e+002;0.000000e+000
5.477076e+002;0.000000e+000
5.496362e+002;0.000000e+000
5.515648e+002;0.000000e+000
5.534933e+002;0.000000e+000
5.554218e+002;0.000000e+000
5.573504e+002;0.000000e+000
5.592789e+002;0.000000e+000
5.612075e+002;0.000000e+000
5.631360e+002;0.000000e+000
5.650646e+002;0.000000e+000
5.669931e+002;0.000000e+000
5.689217e+002;0.000000e+000
5.708502e+002;0.000000e+000
5.727787e+002;0.000000e+000
5.747073e+002;0.000000e+000
5.766359e+002;0.000000e+000
5.785644e+002;0.000000e+000
5.804930e+002;0.000000e+000
5.824215e+002;0.000000e+000
5.843500e+002;0.000000e+000
5.862786e+002;0.000000e+000
5.882072e+002;0.000000e+000
5.901357e+002;0.000000e+000
5.920643e+002;0.000000e+000
5.939928e+002;0.000000e+000
5.959213e+002;0.000000e+000
5.978499e+002;0.000000e+000
5.997784e+002;2.856294e-001
6.017070e+002;2.865551e-001
6.036355e+002;2.876987e-001
6.055641e+002;2.869692e-001
6.074926e+002;2.874525e-001
6.094211e+002;2.912336e-001
6.113497e+002;2.902709e-001
6.132783e+002;2.878122e-001
6.152068e+002;2.830041e-001
6.171354e+002;2.775338e-001
6.190639e+002;2.728851e-001
6.209924e+002;2.691559e-001
6.229210e+002;2.665934e-001
6.248495e+002;2.655227e-001
6.267781e+002;2.620229e-001
6.287067e+002;2.556567e-001
6.306352e+002;2.535906e-001
6.325637e+002;2.550191e-001
6.344923e+002;2.556269e-001
6.364208e+002;2.515388e-001
6.383494e+002;2.524803e-001
6.402780e+002;2.566402e-001
6.422065e+002;2.544952e-001
6.441350e+002;2.518632e-001
6.460636e+002;2.512703e-001
6.479921e+002;2.482115e-001
6.499207e+002;2.467919e-001
6.518492e+002;2.473996e-001
6.537778e+002;2.507712e-001
6.557063e+002;2.557855e-001
6.576349e+002;2.593703e-001
6.595634e+002;2.610341e-001
6.614919e+002;2.648951e-001
6.634205e+002;2.672736e-001
6.653491e+002;2.647556e-001
6.672776e+002;2.621063e-001
6.692062e+002;2.622468e-001
6.711347e+002;2.596797e-001
6.730632e+002;2.524715e-001
6.749918e+002;2.405354e-001
6.769203e+002;2.278972e-001
6.788489e+002;2.189573e-001
6.807775e+002;2.120826e-001
6.827060e+002;2.077437e-001
6.846345e+002;2.056993e-001
6.865631e+002;2.029057e-001
6.884916e+002;1.979143e-001
6.904202e+002;1.943821e-001
6.923488e+002;1.958788e-001
6.942773e+002;1.971758e-001
6.962058e+002;1.958266e-001
6.981344e+002;1.944480e-001
7.000629e+002;1.940192e-001
7.019915e+002;1.934785e-001
7.039200e+002;1.920373e-001
7.058486e+002;1.912216e-001
7.077771e+002;1.911952e-001
7.097057e+002;1.905476e-001
7.116342e+002;1.894772e-001
7.135627e+002;1.877142e-001
7.154913e+002;1.862416e-001
7.174199e+002;1.861888e-001
7.193484e+002;1.856246e-001
7.212770e+002;1.834260e-001
7.232055e+002;1.810003e-001
7.251340e+002;1.799570e-001
7.270626e+002;1.795613e-001
7.289911e+002;1.785549e-001
7.309197e+002;1.771260e-001
7.328483e+002;1.757081e-001
7.347768e+002;1.743366e-001
7.367053e+002;1.732278e-001
7.386339e+002;1.716702e-001
7.405624e+002;1.692978e-001
7.424910e+002;1.678694e-001
7.444196e+002;1.669730e-001
7.463481e+002;1.665553e-001
7.482766e+002;1.660090e-001
7.502052e+002;1.650815e-001
7.521337e+002;1.636977e-001
7.540623e+002;1.620023e-001
7.559908e+002;1.610686e-001
7.579194e+002;1.600539e-001
7.598479e+002;1.587445e-001
7.617765e+002;1.566948e-001
7.637050e+002;1.538952e-001
7.656335e+002;1.531268e-001
7.675621e+002;1.532150e-001
7.694907e+002;1.522221e-001
7.714192e+002;1.508284e-001
7.733478e+002;1.501856e-001
7.752763e+002;1.499575e-001
7.772048e+002;1.487603e-001
7.791334e+002;1.479564e-001
7.810620e+002;1.477782e-001
7.829905e+002;1.466078e-001
7.849191e+002;1.451231e-001
7.868476e+002;1.442512e-001
7.887761e+002;1.436976e-001
7.907047e+002;1.437622e-001
7.926332e+002;1.431898e-001
7.945618e+002;1.421204e-001
7.964903e+002;1.417249e-001
7.984189e+002;1.414870e-001
8.003474e+002;1.416193e-001
8.022759e+002;1.413591e-001
8.042045e+002;1.407054e-001
8.061331e+002;1.402760e-001
8.080616e+002;1.399375e-001
8.099902e+002;1.392696e-001
8.119187e+002;1.386863e-001
8.138472e+002;1.382720e-001
8.157758e+002;1.379221e-001
8.177043e+002;1.380863e-001
8.196329e+002;1.385613e-001
8.215615e+002;1.384776e-001
8.234900e+002;1.381896e-001
8.254185e+002;1.377695e-001
8.273471e+002;1.373721e-001
8.292756e+002;1.380129e-001
8.312042e+002;1.388436e-001
8.331328e+002;1.386002e-001
8.350613e+002;1.376066e-001
8.369898e+002;1.368892e-001
8.389184e+002;1.360057e-001
8.408469e+002;1.349752e-001
8.427755e+002;1.347533e-001
8.447040e+002;1.345755e-001
8.466326e+002;1.343347e-001
8.485611e+002;1.349047e-001
8.504897e+002;1.355936e-001
8.524182e+002;1.354017e-001
8.543467e+002;1.355000e-001
8.562753e+002;1.360316e-001
8.582039e+002;1.365595e-001
8.601324e+002;1.375658e-001
8.620610e+002;1.386227e-001
8.639895e+002;1.395016e-001
8.659180e+002;1.413409e-001
8.678466e+002;1.433536e-001
8.697751e+002;1.454868e-001
8.717037e+002;1.486960e-001
8.736323e+002;1.522705e-001
8.755608e+002;1.561919e-001
8.774893e+002;1.607730e-001
8.794179e+002;1.658029e-001
8.813464e+002;1.716196e-001
8.832750e+002;1.777429e-001
8.852036e+002;1.840405e-001
8.871321e+002;1.910603e-001
8.890606e+002;1.974787e-001
8.909892e+002;2.028746e-001
8.929177e+002;2.069387e-001
8.948463e+002;2.079781e-001
8.967748e+002;2.059017e-001
8.987034e+002;2.019477e-001
9.006319e+002;1.975514e-001
9.025605e+002;1.935100e-001
9.044890e+002;1.890609e-001
9.064175e+002;1.844150e-001
9.083461e+002;1.804059e-001
9.102747e+002;1.765717e-001
9.122032e+002;1.736507e-001
9.141318e+002;1.723128e-001
9.160603e+002;1.717763e-001
9.179888e+002;1.718678e-001
9.199174e+002;1.725805e-001
9.218459e+002;1.740001e-001
9.237745e+002;1.756511e-001
9.257031e+002;1.776580e-001
9.276316e+002;1.795980e-001
9.295601e+002;1.814963e-001
9.314887e+002;1.839645e-001
9.334172e+002;1.867050e-001
9.353458e+002;1.892541e-001
9.372744e+002;1.915143e-001
9.392029e+002;1.941402e-001
9.411314e+002;1.972592e-001
9.430600e+002;2.005698e-001
9.449885e+002;2.045077e-001
9.469171e+002;2.093738e-001
9.488456e+002;2.146435e-001
9.507742e+002;2.202750e-001
9.527027e+002;2.261092e-001
9.546313e+002;2.324002e-001
9.565598e+002;2.392065e-001
9.584883e+002;2.459586e-001
9.604169e+002;2.522129e-001
9.623455e+002;2.587688e-001
9.642740e+002;2.658693e-001
9.662026e+002;2.730859e-001
9.681311e+002;2.800813e-001
9.700596e+002;2.879294e-001
9.719882e+002;2.976250e-001
9.739167e+002;3.084645e-001
9.758453e+002;3.205563e-001
9.777739e+002;3.347321e-001
9.797024e+002;3.508623e-001
9.816309e+002;3.690680e-001
9.835595e+002;3.891104e-001
9.854880e+002;4.092787e-001
9.874166e+002;4.282962e-001
9.893452e+002;4.459878e-001
9.912737e+002;4.607805e-001
9.932022e+002;4.718278e-001
9.951307e+002;4.797472e-001
9.970593e+002;4.845588e-001
9.989879e+002;4.871967e-001
1.000916e+003;4.891032e-001
1.002845e+003;4.920530e-001
1.004773e+003;4.969876e-001
1.006702e+003;5.041614e-001
1.008631e+003;5.135456e-001
1.010559e+003;5.239199e-001
1.012488e+003;5.344942e-001
1.014416e+003;5.447445e-001
1.016345e+003;5.540242e-001
1.018273e+003;5.604352e-001
1.020202e+003;5.634477e-001
1.022130e+003;5.645803e-001
1.024059e+003;5.634207e-001
1.025988e+003;5.599244e-001
1.027916e+003;5.540157e-001
1.029845e+003;5.470038e-001
1.031773e+003;5.397760e-001
1.033702e+003;5.326298e-001
1.035630e+003;5.266865e-001
1.037559e+003;5.219812e-001
1.039487e+003;5.180804e-001
1.041416e+003;5.144796e-001
1.043344e+003;5.108738e-001
1.045273e+003;5.075604e-001
1.047202e+003;5.038071e-001
1.049130e+003;4.997747e-001
1.051059e+003;4.948706e-001
1.052987e+003;4.893768e-001
1.054916e+003;4.836190e-001
1.056844e+003;4.781420e-001
1.058773e+003;4.708462e-001
1.060701e+003;4.614874e-001
1.062630e+003;4.515637e-001
1.064558e+003;4.410546e-001
1.066487e+003;4.303909e-001
1.068416e+003;4.208771e-001
1.070344e+003;4.117814e-001
1.072273e+003;4.027446e-001
1.074201e+003;3.948655e-001
1.076130e+003;3.868037e-001
1.078058e+003;3.781770e-001
1.079987e+003;3.701917e-001
1.081915e+003;3.633768e-001
1.083844e+003;3.570354e-001
1.085773e+003;3.504480e-001
1.087701e+003;3.443985e-001
1.089630e+003;3.387861e-001
1.091558e+003;3.329713e-001
1.093487e+003;3.268451e-001
1.095415e+003;3.207729e-001
1.097344e+003;3.137046e-001
1.099272e+003;3.053015e-001
1.101201e+003;2.966474e-001
1.103129e+003;2.894262e-001
1.105058e+003;2.832706e-001
1.106987e+003;2.775934e-001
1.108915e+003;2.731193e-001
1.110844e+003;2.688100e-001
1.112772e+003;2.633074e-001
1.114701e+003;2.564672e-001
1.116629e+003;2.498413e-001
1.118558e+003;2.437509e-001
1.120486e+003;2.373376e-001
1.122415e+003;2.301121e-001
1.124344e+003;2.230223e-001
1.126272e+003;2.164160e-001
1.128201e+003;2.103324e-001
1.130129e+003;2.045961e-001
1.132058e+003;1.989598e-001
1.133986e+003;1.941361e-001
1.135915e+003;1.895476e-001
1.137843e+003;1.853969e-001
1.139772e+003;1.826420e-001
1.141700e+003;1.815761e-001
1.143629e+003;1.815710e-001
1.145557e+003;1.819180e-001
1.147486e+003;1.829001e-001
1.149415e+003;1.841730e-001
1.151343e+003;1.853687e-001
1.153272e+003;1.864403e-001
1.155200e+003;1.864834e-001
1.157129e+003;1.850128e-001
1.159057e+003;1.818523e-001
1.160986e+003;1.769111e-001
1.162914e+003;1.706685e-001
1.164843e+003;1.636206e-001
1.166771e+003;1.563341e-001
1.168700e+003;1.494749e-001
1.170629e+003;1.426427e-001
1.172557e+003;1.364371e-001
1.174486e+003;1.313061e-001
1.176414e+003;1.272319e-001
1.178343e+003;1.236244e-001
1.180271e+003;1.207179e-001
1.182200e+003;1.190732e-001
1.184128e+003;1.181046e-001
1.186057e+003;1.182078e-001
1.187986e+003;1.198058e-001
1.189914e+003;1.224550e-001
1.191843e+003;1.258197e-001
1.193771e+003;1.292243e-001
1.195700e+003;1.319050e-001
1.197628e+003;1.334888e-001
1.199557e+003;1.338824e-001
1.201485e+003;1.327510e-001
1.203414e+003;1.302106e-001
1.205343e+003;1.276156e-001
1.207271e+003;1.253012e-001
1.209200e+003;1.231809e-001
1.211128e+003;1.218490e-001
1.213057e+003;1.217875e-001
1.214985e+003;1.228535e-001
1.216914e+003;1.245526e-001
1.218842e+003;1.270060e-001
1.220771e+003;1.299731e-001
1.222699e+003;1.324460e-001
1.224628e+003;1.346867e-001
1.226557e+003;1.364278e-001
1.228485e+003;1.370630e-001
1.230414e+003;1.374046e-001
1.232342e+003;1.379880e-001
1.234271e+003;1.385086e-001
1.236199e+003;1.385623e-001
1.238128e+003;1.384150e-001
1.240056e+003;1.382025e-001
1.241985e+003;1.379629e-001
1.243913e+003;1.376818e-001
1.245842e+003;1.378172e-001
1.247771e+003;1.383090e-001
1.249699e+003;1.388188e-001
1.251628e+003;1.398047e-001
1.253556e+003;1.415179e-001
1.255485e+003;1.432353e-001
1.257413e+003;1.444743e-001
1.259342e+003;1.447676e-001
1.261270e+003;1.443208e-001
1.263199e+003;1.438349e-001
1.265127e+003;1.433063e-001
1.267056e+003;1.421007e-001
1.268985e+003;1.407782e-001
1.270913e+003;1.395518e-001
1.272842e+003;1.382895e-001
1.274770e+003;1.375592e-001
1.276699e+003;1.368991e-001
1.278627e+003;1.358979e-001
1.280556e+003;1.349917e-001
1.282484e+003;1.342097e-001
1.284413e+003;1.336369e-001
1.286342e+003;1.337645e-001
1.288270e+003;1.350478e-001
1.290199e+003;1.369532e-001
1.292127e+003;1.390119e-001
1.294056e+003;1.410047e-001
1.295984e+003;1.428604e-001
1.297913e+003;1.449068e-001
1.299841e+003;1.469958e-001
1.301770e+003;1.487524e-001
1.303698e+003;1.506122e-001
1.305627e+003;1.529488e-001
1.307556e+003;1.554749e-001
1.309484e+003;1.577882e-001
1.311413e+003;1.594930e-001
1.313341e+003;1.604631e-001
1.315270e+003;1.607794e-001
1.317198e+003;1.601014e-001
1.319127e+003;1.589253e-001
1.321055e+003;1.577234e-001
1.322984e+003;1.565299e-001
1.324912e+003;1.560535e-001
1.326841e+003;1.559624e-001
1.328770e+003;1.560149e-001
1.330698e+003;1.564369e-001
1.332627e+003;1.567459e-001
1.334555e+003;1.568784e-001
1.336484e+003;1.568998e-001
1.338412e+003;1.563129e-001
1.340341e+003;1.555724e-001
1.342269e+003;1.552792e-001
1.344198e+003;1.550380e-001
1.346126e+003;1.548920e-001
1.348055e+003;1.550341e-001
1.349984e+003;1.553319e-001
1.351912e+003;1.559624e-001
1.353841e+003;1.568835e-001
1.355769e+003;1.579913e-001
1.357698e+003;1.592259e-001
1.359626e+003;1.604055e-001
1.361555e+003;1.615319e-001
1.363483e+003;1.623501e-001
1.365412e+003;1.623513e-001
1.367341e+003;1.616891e-001
1.369269e+003;1.604708e-001
1.371198e+003;1.590011e-001
1.373126e+003;1.575446e-001
1.375055e+003;1.555637e-001
1.376983e+003;1.528863e-001
1.378912e+003;1.501570e-001
1.380840e+003;1.473024e-001
1.382769e+003;1.442490e-001
1.384698e+003;1.414936e-001
1.386626e+003;1.393251e-001
1.388555e+003;1.377387e-001
1.390483e+003;1.366993e-001
1.392412e+003;1.357462e-001
1.394340e+003;1.351431e-001
1.396269e+003;1.349293e-001
1.398197e+003;1.346250e-001
1.400126e+003;1.342698e-001
1.402054e+003;1.339504e-001
1.403983e+003;1.338657e-001
1.405911e+003;1.340039e-001
1.407840e+003;1.340672e-001
1.409769e+003;1.342728e-001
1.411697e+003;1.345308e-001
1.413626e+003;1.345918e-001
1.415554e+003;1.345797e-001
1.417483e+003;1.345984e-001
1.419411e+003;1.344947e-001
1.421340e+003;1.345888e-001
1.423268e+003;1.343063e-001
1.425197e+003;1.337108e-001
1.427125e+003;1.331110e-001
1.429054e+003;1.324454e-001
1.430983e+003;1.318408e-001
1.432911e+003;1.312861e-001
1.434840e+003;1.304772e-001
1.436768e+003;1.295749e-001
1.438697e+003;1.290924e-001
1.440625e+003;1.284451e-001
1.442554e+003;1.274823e-001
1.444482e+003;1.263244e-001
1.446411e+003;1.251149e-001
1.448340e+003;1.238060e-001
1.450268e+003;1.226254e-001
1.452197e+003;1.214269e-001
1.454125e+003;1.199516e-001
1.456054e+003;1.183028e-001
1.457982e+003;1.172203e-001
1.459911e+003;1.165746e-001
1.461839e+003;1.154885e-001
1.463768e+003;1.139963e-001
1.465697e+003;1.126168e-001
1.467625e+003;1.113820e-001
1.469554e+003;1.096603e-001
1.471482e+003;1.074227e-001
1.473411e+003;1.054352e-001
1.475339e+003;1.035091e-001
1.477268e+003;1.013300e-001
1.479196e+003;9.919835e-002
1.481125e+003;9.694750e-002
1.483053e+003;9.484509e-002
1.484982e+003;9.313227e-002
1.486911e+003;9.160036e-002
1.488839e+003;9.016538e-002
1.490768e+003;8.882219e-002
1.492696e+003;8.742592e-002
1.494625e+003;8.581815e-002
1.496553e+003;8.478168e-002
1.498482e+003;8.449242e-002
1.500410e+003;8.409791e-002
1.502339e+003;8.349766e-002
1.504267e+003;8.244715e-002
1.506196e+003;8.159441e-002
1.508125e+003;8.150594e-002
1.510053e+003;8.136393e-002
1.511982e+003;8.092762e-002
1.513910e+003;8.056345e-002
1.515839e+003;8.000359e-002
1.517767e+003;7.961676e-002
1.519696e+003;7.920732e-002
1.521624e+003;7.887352e-002
1.523553e+003;7.900151e-002
1.525481e+003;7.897965e-002
1.527410e+003;7.906177e-002
1.529339e+003;7.924064e-002
1.531267e+003;7.924915e-002
1.533196e+003;7.900986e-002
1.535124e+003;7.906523e-002
1.537053e+003;7.929532e-002
1.538981e+003;7.879958e-002
1.540910e+003;7.845966e-002
1.542838e+003;7.874734e-002
1.544767e+003;7.890530e-002
1.546695e+003;7.912378e-002
1.548624e+003;7.927174e-002
1.550553e+003;7.930908e-002
1.552481e+003;7.936636e-002
1.554410e+003;7.932499e-002
1.556338e+003;7.901431e-002
1.558267e+003;7.833678e-002
1.560195e+003;7.858547e-002
1.562124e+003;7.951921e-002
1.564052e+003;7.986423e-002
1.565981e+003;7.999276e-002
1.567910e+003;8.009526e-002
1.569838e+003;8.023904e-002
1.571767e+003;8.062584e-002
1.573695e+003;8.083832e-002
1.575624e+003;8.073660e-002
1.577552e+003;8.106086e-002
1.579481e+003;8.152801e-002
1.581409e+003;8.174081e-002
1.583338e+003;8.191159e-002
1.585266e+003;8.217887e-002
1.587195e+003;8.243557e-002
1.589124e+003;8.268779e-002
1.591052e+003;8.299316e-002
1.592981e+003;8.345208e-002
1.594909e+003;8.388998e-002
1.596838e+003;8.411469e-002
1.598766e+003;8.432055e-002
1.600695e+003;8.456130e-002
1.602623e+003;8.503009e-002
1.604552e+003;8.558466e-002
1.606480e+003;8.595552e-002
1.608409e+003;8.643205e-002
1.610338e+003;8.688754e-002
1.612266e+003;8.727572e-002
1.614195e+003;8.748662e-002
1.616123e+003;8.765821e-002
1.618052e+003;8.821456e-002
1.619980e+003;8.896653e-002
1.621909e+003;8.951449e-002
1.623837e+003;9.005247e-002
1.625766e+003;9.045737e-002
1.627694e+003;9.058793e-002
1.629623e+003;9.096783e-002
1.631552e+003;9.149899e-002
1.633480e+003;9.160748e-002
1.635409e+003;9.166031e-002
1.637337e+003;9.178333e-002
1.639266e+003;9.184649e-002
1.641194e+003;9.199278e-002
1.643123e+003;9.191654e-002
1.645051e+003;9.132624e-002
1.646980e+003;9.098120e-002
1.648909e+003;9.103991e-002
1.650837e+003;9.024331e-002
1.652766e+003;8.901054e-002
1.654694e+003;8.884130e-002
1.656623e+003;8.893090e-002
1.658551e+003;8.846381e-002
1.660480e+003;8.780728e-002
1.662408e+003;8.702926e-002
1.664337e+003;8.643945e-002
1.666266e+003;8.585712e-002
1.668194e+003;8.478317e-002
1.670123e+003;8.400439e-002
1.672051e+003;8.368946e-002
1.673980e+003;8.280380e-002
1.675908e+003;8.204737e-002
1.677837e+003;8.187858e-002
1.679765e+003;8.125325e-002
1.681694e+003;8.028229e-002
1.683622e+003;7.947333e-002
1.685551e+003;7.926220e-002
1.687479e+003;7.921455e-002
1.689408e+003;7.859059e-002
1.691337e+003;7.816522e-002
1.693265e+003;7.771412e-002
1.695194e+003;7.677463e-002
1.697122e+003;7.632911e-002
1.699051e+003;7.586116e-002
1.700979e+003;7.551383e-002
1.702908e+003;7.571203e-002
1.704836e+003;7.545702e-002
1.706765e+003;7.530386e-002
1.708693e+003;7.531071e-002
1.710622e+003;7.527903e-002
1.712551e+003;7.519251e-002
1.714479e+003;7.500084e-002
1.716408e+003;7.450384e-002
1.718336e+003;7.426243e-002
1.720265e+003;7.474452e-002
1.722193e+003;7.507508e-002
1.724122e+003;7.529148e-002
1.726050e+003;7.556501e-002
1.727979e+003;7.559159e-002
1.729908e+003;7.538316e-002
1.731836e+003;7.493056e-002
1.733765e+003;7.442348e-002
1.735693e+003;7.429946e-002
1.737622e+003;7.398842e-002
1.739550e+003;7.358214e-002
1.741479e+003;7.333457e-002
1.743407e+003;7.286847e-002
1.745336e+003;7.237569e-002
1.747265e+003;7.181072e-002
1.749193e+003;7.119507e-002
1.751122e+003;7.084236e-002
1.753050e+003;7.117680e-002
1.754979e+003;7.129904e-002
1.756907e+003;7.117595e-002
1.758836e+003;7.136839e-002
1.760764e+003;7.147118e-002
1.762693e+003;7.140182e-002
1.764621e+003;7.152303e-002
1.766550e+003;7.144767e-002
1.768479e+003;7.123614e-002
1.770407e+003;7.110745e-002
1.772336e+003;7.091039e-002
1.774264e+003;7.102174e-002
1.776193e+003;7.132360e-002
1.778121e+003;7.137503e-002
1.780050e+003;7.125902e-002
1.781978e+003;7.147263e-002
1.783907e+003;7.158241e-002
1.785835e+003;7.155576e-002
1.787764e+003;7.164399e-002
1.789693e+003;7.136285e-002
1.791621e+003;7.098987e-002
1.793550e+003;7.095081e-002
1.795478e+003;7.084693e-002
1.797407e+003;7.065448e-002
1.799335e+003;7.065152e-002
1.801264e+003;7.078838e-002
1.803192e+003;7.099346e-002
1.805121e+003;7.103045e-002
1.807049e+003;7.097048e-002
1.808978e+003;7.096927e-002
1.810907e+003;7.076639e-002
1.812835e+003;7.061585e-002
1.814764e+003;7.071222e-002
1.816692e+003;7.069004e-002
1.818621e+003;7.060017e-002
1.820549e+003;7.073274e-002
1.822478e+003;7.077555e-002
1.824406e+003;7.067191e-002
1.826335e+003;7.049197e-002
1.828264e+003;7.029466e-002
1.830192e+003;7.022041e-002
1.832121e+003;7.020355e-002
1.834049e+003;7.035980e-002
1.835978e+003;7.042795e-002
1.837906e+003;7.032434e-002
1.839835e+003;7.030915e-002
1.841763e+003;7.014377e-002
1.843692e+003;6.985663e-002
1.845620e+003;7.001559e-002
1.847549e+003;7.006430e-002
1.849478e+003;6.985784e-002
1.851406e+003;6.998079e-002
1.853335e+003;7.005394e-002
1.855263e+003;6.990030e-002
1.857192e+003;6.971698e-002
1.859120e+003;6.983300e-002
1.861049e+003;6.997534e-002
1.862977e+003;6.989118e-002
1.864906e+003;6.993882e-002
1.866834e+003;6.984235e-002
1.868763e+003;6.969683e-002
1.870692e+003;6.961367e-002
1.872620e+003;6.967847e-002
1.874549e+003;6.995665e-002
1.876477e+003;6.997324e-002
1.878406e+003;6.984733e-002
1.880334e+003;6.993665e-002
1.882263e+003;7.010327e-002
1.884191e+003;7.003346e-002
1.886120e+003;6.991836e-002
1.888048e+003;6.988481e-002
1.889977e+003;6.978577e-002
1.891906e+003;6.975709e-002
1.893834e+003;6.984098e-002
1.895763e+003;6.998554e-002
1.897691e+003;7.014303e-002
1.899620e+003;7.014607e-002
1.901548e+003;6.983258e-002
1.903477e+003;6.972273e-002
1.905405e+003;6.984301e-002
1.907334e+003;6.994155e-002
1.909262e+003;7.003416e-002
1.911191e+003;7.006647e-002
1.913120e+003;7.026201e-002
1.915048e+003;7.032719e-002
1.916977e+003;7.015335e-002
1.918905e+003;7.017963e-002
1.920834e+003;7.035228e-002
1.922762e+003;7.047556e-002
1.924691e+003;7.066333e-002
1.926619e+003;7.074736e-002
1.928548e+003;7.063885e-002
1.930477e+003;7.055812e-002
1.932405e+003;7.060899e-002
1.934334e+003;7.074736e-002
1.936262e+003;7.097360e-002
1.938191e+003;7.097086e-002
1.940119e+003;7.078874e-002
1.942048e+003;7.089654e-002
1.943976e+003;7.112899e-002
1.945905e+003;7.112009e-002
1.947833e+003;7.109859e-002
1.949762e+003;7.120358e-002
1.951691e+003;7.134242e-002
1.953619e+003;7.146888e-002
1.955548e+003;7.141412e-002
1.957476e+003;7.154424e-002
1.959405e+003;7.160796e-002
1.961333e+003;7.159769e-002
1.963262e+003;7.170757e-002
1.965190e+003;7.178195e-002
1.967119e+003;7.180658e-002
1.969047e+003;7.184145e-002
1.970976e+003;7.190306e-002
1.972905e+003;7.194491e-002
1.974833e+003;7.192117e-002
1.976762e+003;7.223093e-002
1.978690e+003;7.247575e-002
1.980619e+003;7.236152e-002
1.982547e+003;7.217333e-002
1.984476e+003;7.220632e-002
1.986404e+003;7.235917e-002
1.988333e+003;7.247763e-002
1.990261e+003;7.258214e-002
1.992190e+003;7.263345e-002
1.994119e+003;7.260559e-002
1.996047e+003;7.260160e-002
1.997976e+003;7.273940e-002
1.999904e+003;7.274535e-002
2.001833e+003;7.253706e-002
2.003761e+003;7.269721e-002
2.005690e+003;7.295919e-002
2.007618e+003;7.293411e-002
2.009547e+003;7.300368e-002
2.011476e+003;7.307291e-002
2.013404e+003;7.300509e-002
2.015333e+003;7.304743e-002
2.017261e+003;7.321521e-002
2.019190e+003;7.338012e-002
2.021118e+003;7.335886e-002
2.023047e+003;7.344756e-002
2.024975e+003;7.356270e-002
2.026904e+003;7.362022e-002
2.028833e+003;7.382741e-002
2.030761e+003;7.376987e-002
2.032690e+003;7.387938e-002
2.034618e+003;7.402803e-002
2.036547e+003;7.396445e-002
2.038475e+003;7.386036e-002
2.040404e+003;7.380071e-002
2.042332e+003;7.384343e-002
2.044261e+003;7.368612e-002
2.046189e+003;7.363097e-002
2.048118e+003;7.370191e-002
2.050047e+003;7.374059e-002
2.051975e+003;7.413444e-002
2.053904e+003;7.425378e-002
2.055832e+003;7.418526e-002
2.057761e+003;7.399286e-002
2.059689e+003;7.373344e-002
2.061618e+003;7.373862e-002
2.063546e+003;7.389261e-002
2.065475e+003;7.395012e-002
2.067404e+003;7.411361e-002
2.069332e+003;7.419018e-002
2.071260e+003;7.403054e-002
2.073189e+003;7.407251e-002
2.075118e+003;7.427382e-002
2.077046e+003;7.426254e-002
2.078975e+003;7.403372e-002
2.080903e+003;7.395126e-002
2.082832e+003;7.398422e-002
2.084760e+003;7.397966e-002
2.086689e+003;7.401388e-002
2.088617e+003;7.409456e-002
2.090546e+003;7.404001e-002
2.092475e+003;7.409397e-002
2.094403e+003;7.408630e-002
2.096332e+003;7.413676e-002
2.098260e+003;7.412446e-002
2.100189e+003;7.398316e-002
2.102117e+003;7.394470e-002
2.104046e+003;7.425928e-002
2.105974e+003;7.431086e-002
2.107903e+003;7.407699e-002
2.109832e+003;7.423168e-002
2.111760e+003;7.448995e-002
2.113688e+003;7.453448e-002
2.115617e+003;7.466963e-002
2.117546e+003;7.482493e-002
2.119474e+003;7.475483e-002
2.121403e+003;7.470563e-002
2.123331e+003;7.470992e-002
2.125260e+003;7.465605e-002
2.127188e+003;7.460341e-002
2.129117e+003;7.465487e-002
2.131045e+003;7.482193e-002
2.132974e+003;7.487256e-002
2.134903e+003;7.479069e-002
2.136831e+003;7.471724e-002
2.138760e+003;7.463024e-002
2.140688e+003;7.466837e-002
2.142617e+003;7.468852e-002
2.144545e+003;7.445507e-002
2.146474e+003;7.424737e-002
2.148402e+003;7.444511e-002
2.150331e+003;7.470658e-002
2.152260e+003;7.452091e-002
2.154188e+003;7.444862e-002
2.156117e+003;7.468088e-002
2.158045e+003;7.460187e-002
2.159974e+003;7.452299e-002
2.161902e+003;7.441090e-002
2.163831e+003;7.429513e-002
2.165759e+003;7.430107e-002
2.167688e+003;7.415228e-002
2.169616e+003;7.396438e-002
2.171545e+003;7.405872e-002
2.173474e+003;7.421046e-002
2.175402e+003;7.422748e-002
2.177331e+003;7.410973e-002
2.179259e+003;7.390160e-002
2.181188e+003;7.386071e-002
2.183116e+003;7.415315e-002
2.185045e+003;7.424776e-002
2.186973e+003;7.402056e-002
2.188902e+003;7.391378e-002
2.190831e+003;7.399400e-002
2.192759e+003;7.392388e-002
2.194688e+003;7.385443e-002
2.196616e+003;7.380483e-002
2.198545e+003;7.375963e-002
2.200473e+003;7.403023e-002
2.202402e+003;7.412658e-002
2.204330e+003;7.385781e-002
2.206259e+003;7.362237e-002
2.208188e+003;7.359148e-002
2.210116e+003;7.374118e-002
2.212044e+003;7.381461e-002
2.213973e+003;7.371345e-002
2.215902e+003;7.352915e-002
2.217830e+003;7.348528e-002
2.219759e+003;7.354356e-002
2.221687e+003;7.344619e-002
2.223616e+003;7.320756e-002
2.225544e+003;7.302316e-002
2.227473e+003;7.312506e-002
2.229401e+003;7.332296e-002
2.231330e+003;7.335595e-002
2.233259e+003;7.329099e-002
2.235187e+003;7.321905e-002
2.237116e+003;7.299349e-002
2.239044e+003;7.296252e-002
2.240973e+003;7.303336e-002
2.242901e+003;7.301854e-002
2.244830e+003;7.286736e-002
2.246758e+003;7.279907e-002
2.248687e+003;7.284299e-002
2.250615e+003;7.283931e-002
2.252544e+003;7.285349e-002
2.254473e+003;7.277180e-002
2.256401e+003;7.272824e-002
2.258330e+003;7.270473e-002
2.260258e+003;7.248096e-002
2.262187e+003;7.247657e-002
2.264115e+003;7.269580e-002
2.266044e+003;7.282270e-002
2.267972e+003;7.262126e-002
2.269901e+003;7.244118e-002
2.271830e+003;7.264221e-002
2.273758e+003;7.253797e-002
2.275687e+003;7.230156e-002
2.277615e+003;7.229209e-002
2.279544e+003;7.216746e-002
2.281472e+003;7.224787e-002
2.283401e+003;7.257940e-002
2.285329e+003;7.262632e-002
2.287258e+003;7.242509e-002
2.289187e+003;7.225202e-002
2.291115e+003;7.214837e-002
2.293043e+003;7.202735e-002
2.294972e+003;7.211418e-002
2.296901e+003;7.229859e-002
2.298829e+003;7.220585e-002
2.300758e+003;7.212024e-002
2.302686e+003;7.219419e-002
2.304615e+003;7.232344e-002
2.306543e+003;7.246365e-002
2.308472e+003;7.265750e-002
2.310400e+003;7.282881e-002
2.312329e+003;7.263286e-002
2.314258e+003;7.255860e-002
2.316186e+003;7.251494e-002
2.318115e+003;7.214966e-002
2.320043e+003;7.194103e-002
2.321972e+003;7.212204e-002
2.323900e+003;7.249650e-002
2.325829e+003;7.247090e-002
2.327757e+003;7.223362e-002
2.329686e+003;7.224255e-002
2.331615e+003;7.221837e-002
2.333543e+003;7.223108e-002
2.335472e+003;7.240853e-002
2.337400e+003;7.267218e-002
2.339329e+003;7.298996e-002
2.341257e+003;7.313706e-002
2.343186e+003;7.296899e-002
2.345114e+003;7.305633e-002
2.347043e+003;7.344756e-002
2.348971e+003;7.354866e-002
2.350900e+003;7.340315e-002
2.352829e+003;7.330060e-002
2.354757e+003;7.309707e-002
2.356686e+003;7.297624e-002
2.358614e+003;7.314674e-002
2.360543e+003;7.326040e-002
2.362471e+003;7.319246e-002
2.364400e+003;7.335144e-002
2.366328e+003;7.351710e-002
2.368257e+003;7.343116e-002
2.370186e+003;7.355474e-002
2.372114e+003;7.385220e-002
2.374042e+003;7.405553e-002
2.375971e+003;7.419819e-002
2.377900e+003;7.421215e-002
2.379828e+003;7.432804e-002
2.381757e+003;7.442120e-002
2.383685e+003;7.423098e-002
2.385614e+003;7.405204e-002
2.387542e+003;7.405098e-002
2.389471e+003;7.414281e-002
2.391399e+003;7.425539e-002
2.393328e+003;7.421203e-002
2.395257e+003;7.434940e-002
2.397185e+003;7.478435e-002
2.399114e+003;7.509679e-002
2.401042e+003;7.526331e-002
2.402971e+003;7.532163e-002
2.404899e+003;7.525326e-002
2.406828e+003;7.517301e-002
2.408756e+003;7.514846e-002
2.410685e+003;7.517128e-002
2.412614e+003;7.532530e-002
2.414542e+003;7.553564e-002
2.416471e+003;7.578119e-002
2.418399e+003;7.588121e-002
2.420328e+003;7.592157e-002
2.422256e+003;7.585063e-002
2.424185e+003;7.586049e-002
2.426113e+003;7.614820e-002
2.428042e+003;7.645897e-002
2.429970e+003;7.639583e-002
2.431899e+003;7.630924e-002
2.433828e+003;7.643708e-002
2.435756e+003;7.644747e-002
2.437685e+003;7.657032e-002
2.439613e+003;7.685340e-002
2.441542e+003;7.695489e-002
2.443470e+003;7.682940e-002
2.445399e+003;7.696462e-002
2.447327e+003;7.722551e-002
2.449256e+003;7.735469e-002
2.451185e+003;7.750248e-002
2.453113e+003;7.761043e-002
2.455042e+003;7.775156e-002
2.456970e+003;7.774740e-002
2.458899e+003;7.778113e-002
2.460827e+003;7.799599e-002
2.462756e+003;7.816938e-002
2.464684e+003;7.803128e-002
2.466613e+003;7.798271e-002
2.468542e+003;7.826428e-002
2.470470e+003;7.836091e-002
2.472398e+003;7.823234e-002
2.474327e+003;7.818113e-002
2.476256e+003;7.825762e-002
2.478184e+003;7.847089e-002
2.480113e+003;7.885154e-002
2.482041e+003;7.899018e-002
2.483970e+003;7.909194e-002
2.485898e+003;7.901272e-002
2.487827e+003;7.887514e-002
2.489755e+003;7.898267e-002
2.491684e+003;7.911710e-002
2.493613e+003;7.917781e-002
2.495541e+003;7.926343e-002
2.497470e+003;7.957998e-002
2.499398e+003;7.968410e-002
2.501327e+003;7.949840e-002
2.503255e+003;7.931095e-002
2.505184e+003;7.918696e-002
2.507112e+003;7.939747e-002
2.509041e+003;7.965795e-002
2.510969e+003;7.989843e-002
2.512898e+003;8.019078e-002
2.514827e+003;8.021545e-002
2.516755e+003;8.023020e-002
2.518684e+003;8.050067e-002
2.520612e+003;8.064897e-002
2.522541e+003;8.065021e-002
2.524469e+003;8.057266e-002
2.526398e+003;8.050247e-002
2.528326e+003;8.049628e-002
2.530255e+003;8.071034e-002
2.532184e+003;8.086730e-002
2.534112e+003;8.077662e-002
2.536041e+003;8.074402e-002
2.537969e+003;8.091117e-002
2.539898e+003;8.122537e-002
2.541826e+003;8.122481e-002
2.543755e+003;8.096742e-002
2.545683e+003;8.087812e-002
2.547612e+003;8.119401e-002
2.549541e+003;8.144814e-002
2.551469e+003;8.138547e-002
2.553397e+003;8.133053e-002
2.555326e+003;8.139171e-002
2.557255e+003;8.158913e-002
2.559183e+003;8.182057e-002
2.561112e+003;8.204797e-002
2.563040e+003;8.226071e-002
2.564969e+003;8.217686e-002
2.566897e+003;8.201807e-002
2.568826e+003;8.224104e-002
2.570754e+003;8.237465e-002
2.572683e+003;8.226824e-002
2.574612e+003;8.233336e-002
2.576540e+003;8.236640e-002
2.578469e+003;8.247484e-002
2.580397e+003;8.300644e-002
2.582326e+003;8.312086e-002
2.584254e+003;8.272422e-002
2.586183e+003;8.265772e-002
2.588111e+003;8.304660e-002
2.590040e+003;8.319858e-002
2.591969e+003;8.269656e-002
2.593897e+003;8.253754e-002
2.595826e+003;8.301523e-002
2.597754e+003;8.342671e-002
2.599683e+003;8.352521e-002
2.601611e+003;8.334327e-002
2.603540e+003;8.349754e-002
2.605468e+003;8.377765e-002
2.607397e+003;8.381566e-002
2.609325e+003;8.388093e-002
2.611254e+003;8.406482e-002
2.613183e+003;8.428189e-002
2.615111e+003;8.429746e-002
2.617040e+003;8.441210e-002
2.618968e+003;8.455482e-002
2.620897e+003;8.458650e-002
2.622825e+003;8.451203e-002
2.624754e+003;8.468071e-002
2.626682e+003;8.499838e-002
2.628611e+003;8.513344e-002
2.630540e+003;8.521741e-002
2.632468e+003;8.528797e-002
2.634396e+003;8.529749e-002
2.636325e+003;8.550751e-002
2.638254e+003;8.571009e-002
2.640182e+003;8.563429e-002
2.642111e+003;8.554064e-002
2.644039e+003;8.560217e-002
2.645968e+003;8.590089e-002
2.647896e+003;8.630343e-002
2.649825e+003;8.656088e-002
2.651753e+003;8.659554e-002
2.653682e+003;8.674603e-002
2.655611e+003;8.695105e-002
2.657539e+003;8.700728e-002
2.659468e+003;8.716057e-002
2.661396e+003;8.728893e-002
2.663325e+003;8.753794e-002
2.665253e+003;8.766880e-002
2.667182e+003;8.773327e-002
2.669110e+003;8.797710e-002
2.671039e+003;8.816958e-002
2.672968e+003;8.815334e-002
2.674896e+003;8.834814e-002
2.676825e+003;8.878601e-002
2.678753e+003;8.908574e-002
2.680682e+003;8.910604e-002
2.682610e+003;8.918513e-002
2.684539e+003;8.950232e-002
2.686467e+003;8.953017e-002
2.688396e+003;8.953950e-002
2.690324e+003;9.003177e-002
2.692253e+003;9.043819e-002
2.694182e+003;9.043240e-002
2.696110e+003;9.022577e-002
2.698039e+003;9.024115e-002
2.699967e+003;9.038503e-002
2.701896e+003;9.047785e-002
2.703824e+003;9.074299e-002
2.705753e+003;9.108474e-002
2.707681e+003;9.127714e-002
2.709610e+003;9.137351e-002
2.711539e+003;9.152938e-002
2.713467e+003;9.157888e-002
2.715396e+003;9.179438e-002
2.717324e+003;9.187236e-002
2.719253e+003;9.185852e-002
2.721181e+003;9.217218e-002
2.723110e+003;9.228007e-002
2.725038e+003;9.216588e-002
2.726967e+003;9.227323e-002
2.728896e+003;9.265756e-002
2.730824e+003;9.309909e-002
2.732752e+003;9.336637e-002
2.734681e+003;9.326425e-002
2.736610e+003;9.315834e-002
2.738538e+003;9.331346e-002
2.740467e+003;9.349078e-002
2.742395e+003;9.358604e-002
2.744324e+003;9.347336e-002
2.746252e+003;9.350824e-002
2.748181e+003;9.391996e-002
2.750109e+003;9.403112e-002
2.752038e+003;9.399487e-002
2.753967e+003;9.417152e-002
2.755895e+003;9.431695e-002
2.757824e+003;9.449242e-002
2.759752e+003;9.466676e-002
2.761681e+003;9.481409e-002
2.763609e+003;9.499722e-002
2.765538e+003;9.528134e-002
2.767466e+003;9.553584e-002
2.769395e+003;9.563717e-002
2.771323e+003;9.580148e-002
2.773252e+003;9.609973e-002
2.775181e+003;9.608655e-002
2.777109e+003;9.615678e-002
2.779038e+003;9.647791e-002
2.780966e+003;9.677940e-002
2.782895e+003;9.716273e-002
2.784823e+003;9.766799e-002
2.786752e+003;9.794831e-002
2.788680e+003;9.810165e-002
2.790609e+003;9.840523e-002
2.792538e+003;9.870860e-002
2.794466e+003;9.899183e-002
2.796395e+003;9.948273e-002
2.798323e+003;1.000254e-001
2.800252e+003;1.003086e-001
2.802180e+003;1.005398e-001
2.804109e+003;1.010270e-001
2.806037e+003;1.015236e-001
2.807966e+003;1.019965e-001
2.809895e+003;1.024803e-001
2.811823e+003;1.028401e-001
2.813751e+003;1.031224e-001
2.815680e+003;1.035469e-001
2.817609e+003;1.039368e-001
2.819537e+003;1.043550e-001
2.821466e+003;1.049317e-001
2.823394e+003;1.053031e-001
2.825323e+003;1.055715e-001
2.827251e+003;1.060133e-001
2.829180e+003;1.065262e-001
2.831108e+003;1.070447e-001
2.833037e+003;1.080497e-001
2.834966e+003;1.091431e-001
2.836894e+003;1.099218e-001
2.838823e+003;1.106025e-001
2.840751e+003;1.113713e-001
2.842680e+003;1.125587e-001
2.844608e+003;1.138734e-001
2.846537e+003;1.150455e-001
2.848465e+003;1.156847e-001
2.850394e+003;1.164802e-001
2.852323e+003;1.176828e-001
2.854251e+003;1.186733e-001
2.856180e+003;1.198364e-001
2.858108e+003;1.213441e-001
2.860037e+003;1.230678e-001
2.861965e+003;1.249513e-001
2.863894e+003;1.265447e-001
2.865822e+003;1.279520e-001
2.867751e+003;1.292389e-001
2.869679e+003;1.305447e-001
2.871608e+003;1.317237e-001
2.873536e+003;1.324433e-001
2.875465e+003;1.332618e-001
2.877394e+003;1.343227e-001
2.879322e+003;1.353587e-001
2.881251e+003;1.359763e-001
2.883179e+003;1.362786e-001
2.885108e+003;1.364594e-001
2.887036e+003;1.369616e-001
2.888965e+003;1.377247e-001
2.890893e+003;1.380051e-001
2.892822e+003;1.381164e-001
2.894750e+003;1.380624e-001
2.896679e+003;1.375653e-001
2.898608e+003;1.368328e-001
2.900536e+003;1.360763e-001
2.902465e+003;1.355698e-001
2.904393e+003;1.349900e-001
2.906322e+003;1.342344e-001
2.908250e+003;1.332557e-001
2.910179e+003;1.321758e-001
2.912107e+003;1.314359e-001
2.914036e+003;1.308329e-001
2.915965e+003;1.298659e-001
2.917893e+003;1.289730e-001
2.919822e+003;1.279511e-001
2.921750e+003;1.265977e-001
2.923679e+003;1.247658e-001
2.925607e+003;1.234188e-001
2.927536e+003;1.224000e-001
2.929464e+003;1.211679e-001
2.931393e+003;1.200445e-001
2.933322e+003;1.190218e-001
2.935250e+003;1.181453e-001
2.937178e+003;1.170348e-001
2.939107e+003;1.157881e-001
2.941036e+003;1.148724e-001
2.942964e+003;1.136900e-001
2.944893e+003;1.123422e-001
2.946821e+003;1.111490e-001
2.948750e+003;1.096917e-001
2.950678e+003;1.082927e-001
2.952607e+003;1.072666e-001
2.954535e+003;1.063491e-001
2.956464e+003;1.054102e-001
2.958393e+003;1.044252e-001
2.960321e+003;1.035867e-001
2.962250e+003;1.028422e-001
2.964178e+003;1.018697e-001
2.966107e+003;1.008855e-001
2.968035e+003;1.002840e-001
2.969964e+003;9.986375e-002
2.971892e+003;9.958073e-002
2.973821e+003;9.927884e-002
2.975750e+003;9.869933e-002
2.977678e+003;9.835565e-002
2.979607e+003;9.789189e-002
2.981535e+003;9.738189e-002
2.983464e+003;9.720957e-002
2.985392e+003;9.689175e-002
2.987321e+003;9.656307e-002
2.989249e+003;9.613504e-002
2.991178e+003;9.598846e-002
2.993106e+003;9.608551e-002
2.995035e+003;9.600189e-002
2.996964e+003;9.581941e-002
2.998892e+003;9.568302e-002
3.000821e+003;9.572275e-002
3.002749e+003;9.609316e-002
3.004678e+003;9.616162e-002
3.006606e+003;9.625350e-002
3.008535e+003;9.644403e-002
3.010463e+003;9.672190e-002
3.012392e+003;9.702940e-002
3.014321e+003;9.706669e-002
3.016249e+003;9.703802e-002
3.018177e+003;9.736352e-002
3.020106e+003;9.777360e-002
3.022035e+003;9.811906e-002
3.023963e+003;9.874325e-002
3.025892e+003;9.917066e-002
3.027820e+003;9.946623e-002
3.029749e+003;9.987338e-002
3.031677e+003;1.002114e-001
3.033606e+003;1.002225e-001
3.035534e+003;1.005499e-001
3.037463e+003;1.010490e-001
3.039392e+003;1.013955e-001
3.041320e+003;1.018769e-001
3.043249e+003;1.024795e-001
3.045177e+003;1.032028e-001
3.047106e+003;1.038624e-001
3.049034e+003;1.040695e-001
3.050963e+003;1.043854e-001
3.052891e+003;1.052157e-001
3.054820e+003;1.059855e-001
3.056749e+003;1.063348e-001
3.058677e+003;1.067725e-001
3.060606e+003;1.072805e-001
3.062534e+003;1.077849e-001
3.064463e+003;1.082873e-001
3.066391e+003;1.087785e-001
3.068320e+003;1.094229e-001
3.070248e+003;1.101939e-001
3.072177e+003;1.106085e-001
3.074105e+003;1.110057e-001
3.076034e+003;1.118033e-001
3.077963e+003;1.123241e-001
3.079891e+003;1.127575e-001
3.081820e+003;1.136317e-001
3.083748e+003;1.145509e-001
3.085677e+003;1.150939e-001
3.087605e+003;1.155811e-001
3.089534e+003;1.160528e-001
3.091462e+003;1.165190e-001
3.093391e+003;1.172104e-001
3.095320e+003;1.179994e-001
3.097248e+003;1.186733e-001
3.099177e+003;1.193259e-001
3.101105e+003;1.201982e-001
3.103034e+003;1.208681e-001
3.104962e+003;1.214350e-001
3.106891e+003;1.222050e-001
3.108819e+003;1.227918e-001
3.110748e+003;1.234966e-001
3.112677e+003;1.241731e-001
3.114605e+003;1.249667e-001
3.116533e+003;1.261280e-001
3.118462e+003;1.268476e-001
3.120391e+003;1.273317e-001
3.122319e+003;1.276372e-001
3.124248e+003;1.284082e-001
3.126176e+003;1.294292e-001
3.128105e+003;1.301054e-001
3.130033e+003;1.307763e-001
3.131962e+003;1.315690e-001
3.133890e+003;1.322250e-001
3.135819e+003;1.328076e-001
3.137748e+003;1.334075e-001
3.139676e+003;1.340998e-001
3.141605e+003;1.347655e-001
3.143533e+003;1.356518e-001
3.145462e+003;1.361315e-001
3.147390e+003;1.368320e-001
3.149319e+003;1.381371e-001
3.151247e+003;1.391855e-001
3.153176e+003;1.395123e-001
3.155104e+003;1.396489e-001
3.157033e+003;1.402796e-001
3.158962e+003;1.410036e-001
3.160890e+003;1.417278e-001
3.162819e+003;1.423689e-001
3.164747e+003;1.430427e-001
3.166676e+003;1.436621e-001
3.168604e+003;1.443456e-001
3.170533e+003;1.448446e-001
3.172461e+003;1.456772e-001
3.174390e+003;1.462712e-001
3.176319e+003;1.465118e-001
3.178247e+003;1.472133e-001
3.180176e+003;1.479791e-001
3.182104e+003;1.483793e-001
3.184033e+003;1.487983e-001
3.185961e+003;1.493457e-001
3.187890e+003;1.499465e-001
3.189818e+003;1.506781e-001
3.191747e+003;1.515610e-001
3.193676e+003;1.525113e-001
3.195604e+003;1.532066e-001
3.197532e+003;1.535577e-001
3.199461e+003;1.539849e-001
3.201390e+003;1.545850e-001
3.203318e+003;1.552723e-001
3.205247e+003;1.561199e-001
3.207175e+003;1.567719e-001
3.209104e+003;1.573128e-001
3.211032e+003;1.577049e-001
3.212961e+003;1.580824e-001
3.214889e+003;1.584623e-001
3.216818e+003;1.587476e-001
3.218747e+003;1.594440e-001
3.220675e+003;1.605232e-001
3.222604e+003;1.611817e-001
3.224532e+003;1.612575e-001
3.226461e+003;1.619036e-001
3.228389e+003;1.631345e-001
3.230318e+003;1.639713e-001
3.232246e+003;1.644502e-001
3.234175e+003;1.649155e-001
3.236104e+003;1.653326e-001
3.238032e+003;1.656158e-001
3.239961e+003;1.662050e-001
3.241889e+003;1.670207e-001
3.243818e+003;1.675402e-001
3.245746e+003;1.678593e-001
3.247675e+003;1.689278e-001
3.249603e+003;1.697026e-001
3.251532e+003;1.698148e-001
3.253460e+003;1.702816e-001
3.255389e+003;1.706937e-001
3.257318e+003;1.707641e-001
3.259246e+003;1.710823e-001
3.261175e+003;1.717853e-001
3.263103e+003;1.721607e-001
3.265032e+003;1.721229e-001
3.266960e+003;1.725612e-001
3.268889e+003;1.735356e-001
3.270817e+003;1.741588e-001
3.272746e+003;1.744486e-001
3.274675e+003;1.747509e-001
3.276603e+003;1.750325e-001
3.278531e+003;1.751841e-001
3.280460e+003;1.755582e-001
3.282389e+003;1.760011e-001
3.284317e+003;1.763868e-001
3.286246e+003;1.765722e-001
3.288174e+003;1.767049e-001
3.290103e+003;1.774672e-001
3.292031e+003;1.778588e-001
3.293960e+003;1.775885e-001
3.295888e+003;1.777313e-001
3.297817e+003;1.780242e-001
3.299746e+003;1.782777e-001
3.301674e+003;1.785706e-001
3.303603e+003;1.790410e-001
3.305531e+003;1.794968e-001
3.307460e+003;1.793246e-001
3.309388e+003;1.794350e-001
3.311317e+003;1.798712e-001
3.313245e+003;1.803168e-001
3.315174e+003;1.806125e-001
3.317103e+003;1.805232e-001
3.319031e+003;1.803883e-001
3.320960e+003;1.803372e-001
3.322888e+003;1.804847e-001
3.324817e+003;1.811185e-001
3.326745e+003;1.817243e-001
3.328674e+003;1.814728e-001
3.330602e+003;1.809893e-001
3.332531e+003;1.808324e-001
3.334459e+003;1.808900e-001
3.336388e+003;1.810224e-001
3.338317e+003;1.810399e-001
3.340245e+003;1.811207e-001
3.342174e+003;1.814773e-001
3.344102e+003;1.814317e-001
3.346031e+003;1.811355e-001
3.347959e+003;1.809152e-001
3.349888e+003;1.806219e-001
3.351816e+003;1.805800e-001
3.353745e+003;1.805858e-001
3.355674e+003;1.806146e-001
3.357602e+003;1.806208e-001
3.359531e+003;1.799568e-001
3.361459e+003;1.795053e-001
3.363388e+003;1.797982e-001
3.365316e+003;1.798367e-001
3.367245e+003;1.795804e-001
3.369173e+003;1.791748e-001
3.371102e+003;1.787814e-001
3.373031e+003;1.787334e-001
3.374959e+003;1.783257e-001
3.376887e+003;1.778729e-001
3.378816e+003;1.777006e-001
3.380745e+003;1.771657e-001
3.382673e+003;1.768742e-001
3.384602e+003;1.766877e-001
3.386530e+003;1.760092e-001
3.388459e+003;1.756150e-001
3.390387e+003;1.756191e-001
3.392316e+003;1.751404e-001
3.394244e+003;1.746635e-001
3.396173e+003;1.743761e-001
3.398102e+003;1.740776e-001
3.400030e+003;1.734843e-001
3.401959e+003;1.728563e-001
3.403887e+003;1.722147e-001
3.405816e+003;1.716533e-001
3.407744e+003;1.713215e-001
3.409673e+003;1.707650e-001
3.411601e+003;1.705239e-001
3.413530e+003;1.704429e-001
3.415458e+003;1.699653e-001
3.417387e+003;1.691788e-001
3.419316e+003;1.684150e-001
3.421244e+003;1.678314e-001
3.423173e+003;1.670362e-001
3.425101e+003;1.664627e-001
3.427030e+003;1.662639e-001
3.428958e+003;1.660259e-001
3.430887e+003;1.657845e-001
3.432815e+003;1.657442e-001
3.434744e+003;1.656124e-001
3.436673e+003;1.646868e-001
3.438601e+003;1.636865e-001
3.440530e+003;1.630624e-001
3.442458e+003;1.622784e-001
3.444387e+003;1.608436e-001
3.446315e+003;1.597041e-001
3.448244e+003;1.586963e-001
3.450172e+003;1.574856e-001
3.452101e+003;1.562775e-001
3.454030e+003;1.547700e-001
3.455958e+003;1.532914e-001
3.457886e+003;1.522109e-001
3.459815e+003;1.510487e-001
3.461744e+003;1.495073e-001
3.463672e+003;1.482568e-001
3.465601e+003;1.470768e-001
3.467529e+003;1.456847e-001
3.469458e+003;1.446816e-001
3.471386e+003;1.437602e-001
3.473315e+003;1.425069e-001
3.475243e+003;1.410492e-001
3.477172e+003;1.401884e-001
3.479101e+003;1.396925e-001
3.481029e+003;1.386786e-001
3.482958e+003;1.376478e-001
3.484886e+003;1.364025e-001
3.486815e+003;1.350649e-001
3.488743e+003;1.334831e-001
3.490672e+003;1.318207e-001
3.492600e+003;1.304053e-001
3.494529e+003;1.289025e-001
3.496458e+003;1.272665e-001
3.498386e+003;1.254247e-001
3.500315e+003;1.235916e-001
3.502243e+003;1.221410e-001
3.504172e+003;1.209363e-001
3.506100e+003;1.193858e-001
3.508029e+003;1.177383e-001
3.509957e+003;1.162810e-001
3.511886e+003;1.152347e-001
3.513814e+003;1.138307e-001
3.515743e+003;1.120442e-001
3.517672e+003;1.107163e-001
3.519600e+003;1.096370e-001
3.521529e+003;1.083400e-001
3.523457e+003;1.067509e-001
3.525386e+003;1.054307e-001
3.527314e+003;1.046952e-001
3.529243e+003;1.034386e-001
3.531171e+003;1.019245e-001
3.533100e+003;1.010235e-001
3.535029e+003;1.002971e-001
3.536957e+003;9.899513e-002
3.538885e+003;9.769550e-002
3.540814e+003;9.687307e-002
3.542743e+003;9.596027e-002
3.544671e+003;9.524211e-002
3.546600e+003;9.410123e-002
3.548528e+003;9.300722e-002
3.550457e+003;9.184890e-002
3.552385e+003;9.062757e-002
3.554314e+003;8.981457e-002
3.556242e+003;8.905776e-002
3.558171e+003;8.820843e-002
3.560100e+003;8.733527e-002
3.562028e+003;8.629680e-002
3.563957e+003;8.514771e-002
3.565885e+003;8.443563e-002
3.567814e+003;8.385336e-002
3.569742e+003;8.294792e-002
3.571671e+003;8.203872e-002
3.573599e+003;8.113777e-002
3.575528e+003;8.039922e-002
3.577457e+003;8.013124e-002
3.579385e+003;7.939091e-002
3.581314e+003;7.819124e-002
3.583242e+003;7.732800e-002
3.585171e+003;7.646359e-002
3.587099e+003;7.556052e-002
3.589028e+003;7.518364e-002
3.590956e+003;7.485335e-002
3.592885e+003;7.402311e-002
3.594813e+003;7.332457e-002
3.596742e+003;7.325745e-002
3.598671e+003;7.254611e-002
3.600599e+003;7.138163e-002
3.602528e+003;7.082742e-002
3.604456e+003;7.054931e-002
3.606385e+003;7.033428e-002
3.608313e+003;6.985430e-002
3.610242e+003;6.917263e-002
3.612170e+003;6.864262e-002
3.614099e+003;6.813427e-002
3.616028e+003;6.779055e-002
3.617956e+003;6.719151e-002
3.619885e+003;6.636401e-002
3.621813e+003;6.612422e-002
3.623742e+003;6.613584e-002
3.625670e+003;6.594674e-002
3.627599e+003;6.524703e-002
3.629527e+003;6.458467e-002
3.631456e+003;6.442083e-002
3.633385e+003;6.431901e-002
3.635313e+003;6.405028e-002
3.637241e+003;6.359898e-002
3.639170e+003;6.327312e-002
3.641099e+003;6.309829e-002
3.643027e+003;6.290384e-002
3.644956e+003;6.254445e-002
3.646884e+003;6.195107e-002
3.648813e+003;6.177211e-002
3.650741e+003;6.181448e-002
3.652670e+003;6.168576e-002
3.654598e+003;6.112822e-002
3.656527e+003;6.063563e-002
3.658456e+003;6.039784e-002
3.660384e+003;6.006939e-002
3.662313e+003;5.995648e-002
3.664241e+003;5.985063e-002
3.666170e+003;6.004037e-002
3.668098e+003;6.011833e-002
3.670027e+003;5.930042e-002
3.671955e+003;5.902696e-002
3.673884e+003;5.894164e-002
3.675813e+003;5.842544e-002
3.677741e+003;5.834210e-002
3.679669e+003;5.861786e-002
3.681598e+003;5.876176e-002
3.683527e+003;5.879635e-002
3.685455e+003;5.833486e-002
3.687384e+003;5.770103e-002
3.689312e+003;5.754250e-002
3.691241e+003;5.772866e-002
3.693169e+003;5.783267e-002
3.695098e+003;5.752703e-002
3.697026e+003;5.689087e-002
3.698955e+003;5.665807e-002
3.700884e+003;5.689937e-002
3.702812e+003;5.714776e-002
3.704741e+003;5.743289e-002
3.706669e+003;5.733038e-002
3.708598e+003;5.695822e-002
3.710526e+003;5.670247e-002
3.712455e+003;5.640880e-002
3.714383e+003;5.643747e-002
3.716312e+003;5.632889e-002
3.718240e+003;5.634817e-002
3.720169e+003;5.686383e-002
3.722098e+003;5.649996e-002
3.724026e+003;5.588761e-002
3.725955e+003;5.596830e-002
3.727883e+003;5.590377e-002
3.729812e+003;5.571821e-002
3.731740e+003;5.583093e-002
3.733669e+003;5.573934e-002
3.735597e+003;5.557125e-002
3.737526e+003;5.584770e-002
3.739455e+003;5.599110e-002
3.741383e+003;5.597840e-002
3.743312e+003;5.536291e-002
3.745240e+003;5.480557e-002
3.747169e+003;5.536915e-002
3.749097e+003;5.535338e-002
3.751026e+003;5.509914e-002
3.752954e+003;5.548585e-002
3.754883e+003;5.608817e-002
3.756812e+003;5.597674e-002
3.758740e+003;5.589492e-002
3.760668e+003;5.620737e-002
3.762597e+003;5.620439e-002
3.764526e+003;5.579081e-002
3.766454e+003;5.580750e-002
3.768383e+003;5.560842e-002
3.770311e+003;5.530562e-002
3.772240e+003;5.559524e-002
3.774168e+003;5.584819e-002
3.776097e+003;5.604606e-002
3.778025e+003;5.557641e-002
3.779954e+003;5.529358e-002
3.781883e+003;5.568352e-002
3.783811e+003;5.602035e-002
3.785740e+003;5.584812e-002
3.787668e+003;5.560145e-002
3.789597e+003;5.555607e-002
3.791525e+003;5.586632e-002
3.793454e+003;5.647203e-002
3.795382e+003;5.632576e-002
3.797311e+003;5.582106e-002
3.799240e+003;5.570092e-002
3.801168e+003;5.508255e-002
3.803097e+003;5.513138e-002
3.805025e+003;5.598944e-002
3.806954e+003;5.607694e-002
3.808882e+003;5.624700e-002
3.810811e+003;5.641932e-002
3.812739e+003;5.618108e-002
3.814668e+003;5.578583e-002
3.816596e+003;5.510572e-002
3.818525e+003;5.500511e-002
3.820454e+003;5.511580e-002
3.822382e+003;5.548160e-002
3.824311e+003;5.594071e-002
3.826239e+003;5.584559e-002
3.828168e+003;5.572198e-002
3.830096e+003;5.583591e-002
3.832025e+003;5.623135e-002
3.833953e+003;5.647264e-002
3.835882e+003;5.633372e-002
3.837811e+003;5.570183e-002
3.839739e+003;5.551149e-002
3.841667e+003;5.577393e-002
3.843596e+003;5.593434e-002
3.845525e+003;5.596611e-002
3.847453e+003;5.601266e-002
3.849382e+003;5.658401e-002
3.851310e+003;5.660926e-002
3.853239e+003;5.586990e-002
3.855167e+003;5.591960e-002
3.857096e+003;5.642619e-002
3.859024e+003;5.693590e-002
3.860953e+003;5.673475e-002
3.862882e+003;5.598092e-002
3.864810e+003;5.606265e-002
3.866739e+003;5.660398e-002
3.868667e+003;5.684188e-002
3.870596e+003;5.707353e-002
3.872524e+003;5.748785e-002
3.874453e+003;5.728198e-002
3.876381e+003;5.767254e-002
3.878310e+003;5.782586e-002
3.880239e+003;5.736660e-002
3.882167e+003;5.732168e-002
3.884096e+003;5.736925e-002
3.886024e+003;5.757931e-002
3.887953e+003;5.804220e-002
3.889881e+003;5.771890e-002
3.891810e+003;5.755578e-002
3.893738e+003;5.800327e-002
3.895667e+003;5.783645e-002
3.897595e+003;5.776056e-002
3.899524e+003;5.778993e-002
3.901453e+003;5.781276e-002
3.903381e+003;5.785572e-002
3.905310e+003;5.798354e-002
3.907238e+003;5.838466e-002
3.909167e+003;5.873801e-002
3.911095e+003;5.863101e-002
3.913024e+003;5.860458e-002
3.914952e+003;5.886920e-002
3.916881e+003;5.876213e-002
3.918810e+003;5.859927e-002
3.920738e+003;5.858369e-002
3.922667e+003;5.880667e-002
3.924595e+003;5.882576e-002
3.926524e+003;5.829082e-002
3.928452e+003;5.820209e-002
3.930381e+003;5.872606e-002
3.932309e+003;5.907616e-002
3.934238e+003;5.936993e-002
3.936167e+003;5.927953e-002
3.938095e+003;5.919784e-002
3.940023e+003;5.933020e-002
3.941952e+003;5.908424e-002
3.943881e+003;5.906610e-002
3.945809e+003;5.925781e-002
3.947738e+003;5.924220e-002
3.949666e+003;5.953711e-002
3.951595e+003;5.952222e-002
3.953523e+003;5.963642e-002
3.955452e+003;6.006129e-002
3.957380e+003;5.990087e-002
3.959309e+003;5.934376e-002
3.961238e+003;5.932887e-002
3.963166e+003;5.949383e-002
3.965095e+003;5.951055e-002
3.967023e+003;5.953844e-002
3.968952e+003;5.942669e-002
3.970880e+003;5.938471e-002
3.972809e+003;5.935284e-002
3.974737e+003;5.929833e-002
3.976666e+003;5.938873e-002
3.978594e+003;5.954684e-002
3.980523e+003;5.973633e-002
3.982452e+003;5.978404e-002
3.984380e+003;5.957747e-002
3.986309e+003;5.937555e-002
3.988237e+003;5.947718e-002
3.990166e+003;5.954194e-002
3.992094e+003;5.925952e-002
3.994023e+003;5.967557e-002
3.995951e+003;5.993050e-002
3.997880e+003;5.965577e-002
3.999809e+003;5.992654e-002
4.001737e+003;0.000000e+000
