3.992094e+002;0.000000e+000
4.011380e+002;0.000000e+000
4.030665e+002;0.000000e+000
4.049951e+002;0.000000e+000
4.069236e+002;0.000000e+000
4.088522e+002;0.000000e+000
4.107807e+002;0.000000e+000
4.127093e+002;0.000000e+000
4.146378e+002;0.000000e+000
4.165664e+002;0.000000e+000
4.184949e+002;0.000000e+000
4.204235e+002;0.000000e+000
4.223520e+002;0.000000e+000
4.242806e+002;0.000000e+000
4.262091e+002;0.000000e+000
4.281377e+002;0.000000e+000
4.300662e+002;0.000000e+000
4.319948e+002;0.000000e+000
4.339233e+002;0.000000e+000
4.358519e+002;0.000000e+000
4.377804e+002;0.000000e+000
4.397090e+002;0.000000e+000
4.416375e+002;0.000000e+000
4.435660e+002;0.000000e+000
4.454946e+002;0.000000e+000
4.474232e+002;0.000000e+000
4.493517e+002;0.000000e+000
4.512802e+002;0.000000e+000
4.532088e+002;0.000000e+000
4.551373e+002;0.000000e+000
4.570659e+002;0.000000e+000
4.589944e+002;0.000000e+000
4.609230e+002;0.000000e+000
4.628515e+002;0.000000e+000
4.647801e+002;0.000000e+000
4.667086e+002;0.000000e+000
4.686372e+002;0.000000e+000
4.705657e+002;0.000000e+000
4.724943e+002;0.000000e+000
4.744228e+002;0.000000e+000
4.763513e+002;0.000000e+000
4.782799e+002;0.000000e+000
4.802085e+002;0.000000e+000
4.821370e+002;0.000000e+000
4.840656e+002;0.000000e+000
4.859941e+002;0.000000e+000
4.879226e+002;0.000000e+000
4.898512e+002;0.000000e+000
4.917798e+002;0.000000e+000
4.937083e+002;0.000000e+000
4.956368e+002;0.000000e+000
4.975654e+002;0.000000e+000
4.994939e+002;0.000000e+000
5.014225e+002;0.000000e+000
5.033510e+002;0.000000e+000
5.052796e+002;0.000000e+000
5.072081e+002;0.000000e+000
5.091367e+002;0.000000e+000
5.110652e+002;0.000000e+000
5.129938e+002;0.000000e+000
5.149223e+002;0.000000e+000
5.168509e+002;0.000000e+000
5.187794e+002;0.000000e+000
5.207079e+002;0.000000e+000
5.226365e+002;0.000000e+000
5.245651e+002;0.000000e+000
5.264936e+002;0.000000e+000
5.284222e+002;0.000000e+000
5.303507e+002;0.000000e+000
5.322792e+002;0.000000e+000
5.342078e+002;0.000000e+000
5.361364e+002;0.000000e+000
5.380649e+002;0.000000e+000
5.399935e+002;0.000000e+000
5.419220e+002;0.000000e+000
5.438505e+002;0.000000e+000
5.457791e+002;0.000000e+000
5.477076e+002;0.000000e+000
5.496362e+002;0.000000e+000
5.515648e+002;0.000000e+000
5.534933e+002;0.000000e+000
5.554218e+002;0.000000e+000
5.573504e+002;0.000000e+000
5.592789e+002;0.000000e+000
5.612075e+002;0.000000e+000
5.631360e+002;0.000000e+000
5.650646e+002;0.000000e+000
5.669931e+002;0.000000e+000
5.689217e+002;0.000000e+000
5.708502e+002;0.000000e+000
5.727787e+002;0.000000e+000
5.747073e+002;0.000000e+000
5.766359e+002;0.000000e+000
5.785644e+002;0.000000e+000
5.804930e+002;0.000000e+000
5.824215e+002;0.000000e+000
5.843500e+002;0.000000e+000
5.862786e+002;0.000000e+000
5.882072e+002;0.000000e+000
5.901357e+002;0.000000e+000
5.920643e+002;0.000000e+000
5.939928e+002;0.000000e+000
5.959213e+002;0.000000e+000
5.978499e+002;0.000000e+000
5.997784e+002;2.682772e-001
6.017070e+002;2.656984e-001
6.036355e+002;2.715826e-001
6.055641e+002;2.798290e-001
6.074926e+002;2.822813e-001
6.094211e+002;2.791277e-001
6.113497e+002;2.714989e-001
6.132783e+002;2.693256e-001
6.152068e+002;2.709030e-001
6.171354e+002;2.691000e-001
6.190639e+002;2.637326e-001
6.209924e+002;2.595538e-001
6.229210e+002;2.581872e-001
6.248495e+002;2.528082e-001
6.267781e+002;2.504749e-001
6.287067e+002;2.515892e-001
6.306352e+002;2.517717e-001
6.325637e+002;2.530123e-001
6.344923e+002;2.526046e-001
6.364208e+002;2.515461e-001
6.383494e+002;2.488353e-001
6.402780e+002;2.486993e-001
6.422065e+002;2.453161e-001
6.441350e+002;2.395155e-001
6.460636e+002;2.396612e-001
6.479921e+002;2.437230e-001
6.499207e+002;2.456454e-001
6.518492e+002;2.471910e-001
6.537778e+002;2.454482e-001
6.557063e+002;2.438523e-001
6.576349e+002;2.456093e-001
6.595634e+002;2.485254e-001
6.614919e+002;2.495987e-001
6.634205e+002;2.475956e-001
6.653491e+002;2.474128e-001
6.672776e+002;2.481564e-001
6.692062e+002;2.457265e-001
6.711347e+002;2.404237e-001
6.730632e+002;2.314984e-001
6.749918e+002;2.209853e-001
6.769203e+002;2.114698e-001
6.788489e+002;2.044066e-001
6.807775e+002;2.002773e-001
6.827060e+002;1.973769e-001
6.846345e+002;1.928999e-001
6.865631e+002;1.894984e-001
6.884916e+002;1.889175e-001
6.904202e+002;1.882178e-001
6.923488e+002;1.869060e-001
6.942773e+002;1.860615e-001
6.962058e+002;1.856458e-001
6.981344e+002;1.850317e-001
7.000629e+002;1.838833e-001
7.019915e+002;1.829707e-001
7.039200e+002;1.822522e-001
7.058486e+002;1.812996e-001
7.077771e+002;1.808852e-001
7.097057e+002;1.798813e-001
7.116342e+002;1.786734e-001
7.135627e+002;1.777717e-001
7.154913e+002;1.763435e-001
7.174199e+002;1.756012e-001
7.193484e+002;1.740038e-001
7.212770e+002;1.720294e-001
7.232055e+002;1.711493e-001
7.251340e+002;1.705479e-001
7.270626e+002;1.690371e-001
7.289911e+002;1.677215e-001
7.309197e+002;1.668361e-001
7.328483e+002;1.648008e-001
7.347768e+002;1.624685e-001
7.367053e+002;1.613653e-001
7.386339e+002;1.602755e-001
7.405624e+002;1.584086e-001
7.424910e+002;1.574512e-001
7.444196e+002;1.571518e-001
7.463481e+002;1.564091e-001
7.482766e+002;1.555572e-001
7.502052e+002;1.540600e-001
7.521337e+002;1.519527e-001
7.540623e+002;1.510065e-001
7.559908e+002;1.497920e-001
7.579194e+002;1.473748e-001
7.598479e+002;1.463861e-001
7.617765e+002;1.455010e-001
7.637050e+002;1.445867e-001
7.656335e+002;1.442023e-001
7.675621e+002;1.434537e-001
7.694907e+002;1.418211e-001
7.714192e+002;1.402560e-001
7.733478e+002;1.395759e-001
7.752763e+002;1.384830e-001
7.772048e+002;1.370905e-001
7.791334e+002;1.363735e-001
7.810620e+002;1.355739e-001
7.829905e+002;1.347041e-001
7.849191e+002;1.338825e-001
7.868476e+002;1.331115e-001
7.887761e+002;1.322797e-001
7.907047e+002;1.309649e-001
7.926332e+002;1.298193e-001
7.945618e+002;1.293639e-001
7.964903e+002;1.288985e-001
7.984189e+002;1.280142e-001
8.003474e+002;1.275695e-001
8.022759e+002;1.276315e-001
8.042045e+002;1.272601e-001
8.061331e+002;1.264870e-001
8.080616e+002;1.260729e-001
8.099902e+002;1.255818e-001
8.119187e+002;1.251103e-001
8.138472e+002;1.253245e-001
8.157758e+002;1.253952e-001
8.177043e+002;1.245926e-001
8.196329e+002;1.240449e-001
8.215615e+002;1.248495e-001
8.234900e+002;1.253292e-001
8.254185e+002;1.250093e-001
8.273471e+002;1.249737e-001
8.292756e+002;1.252591e-001
8.312042e+002;1.251577e-001
8.331328e+002;1.243698e-001
8.350613e+002;1.231134e-001
8.369898e+002;1.231981e-001
8.389184e+002;1.231921e-001
8.408469e+002;1.217633e-001
8.427755e+002;1.207887e-001
8.447040e+002;1.204569e-001
8.466326e+002;1.203354e-001
8.485611e+002;1.204870e-001
8.504897e+002;1.204399e-001
8.524182e+002;1.199378e-001
8.543467e+002;1.200809e-001
8.562753e+002;1.202244e-001
8.582039e+002;1.205247e-001
8.601324e+002;1.215041e-001
8.620610e+002;1.229529e-001
8.639895e+002;1.243149e-001
8.659180e+002;1.257727e-001
8.678466e+002;1.274628e-001
8.697751e+002;1.294424e-001
8.717037e+002;1.321424e-001
8.736323e+002;1.347798e-001
8.755608e+002;1.378625e-001
8.774893e+002;1.416138e-001
8.794179e+002;1.458637e-001
8.813464e+002;1.514018e-001
8.832750e+002;1.574682e-001
8.852036e+002;1.631786e-001
8.871321e+002;1.689568e-001
8.890606e+002;1.745202e-001
8.909892e+002;1.791455e-001
8.929177e+002;1.821554e-001
8.948463e+002;1.836258e-001
8.967748e+002;1.834181e-001
8.987034e+002;1.811906e-001
9.006319e+002;1.771453e-001
9.025605e+002;1.725737e-001
9.044890e+002;1.686789e-001
9.064175e+002;1.650426e-001
9.083461e+002;1.613630e-001
9.102747e+002;1.580157e-001
9.122032e+002;1.555929e-001
9.141318e+002;1.539558e-001
9.160603e+002;1.528722e-001
9.179888e+002;1.523205e-001
9.199174e+002;1.529706e-001
9.218459e+002;1.549752e-001
9.237745e+002;1.566996e-001
9.257031e+002;1.577862e-001
9.276316e+002;1.589599e-001
9.295601e+002;1.606525e-001
9.314887e+002;1.623174e-001
9.334172e+002;1.639058e-001
9.353458e+002;1.657882e-001
9.372744e+002;1.678838e-001
9.392029e+002;1.702891e-001
9.411314e+002;1.730386e-001
9.430600e+002;1.759517e-001
9.449885e+002;1.795952e-001
9.469171e+002;1.836532e-001
9.488456e+002;1.880577e-001
9.507742e+002;1.931264e-001
9.527027e+002;1.986194e-001
9.546313e+002;2.042707e-001
9.565598e+002;2.102176e-001
9.584883e+002;2.164840e-001
9.604169e+002;2.228443e-001
9.623455e+002;2.291773e-001
9.642740e+002;2.356655e-001
9.662026e+002;2.421755e-001
9.681311e+002;2.494101e-001
9.700596e+002;2.576908e-001
9.719882e+002;2.667977e-001
9.739167e+002;2.775160e-001
9.758453e+002;2.897771e-001
9.777739e+002;3.032289e-001
9.797024e+002;3.193313e-001
9.816309e+002;3.377292e-001
9.835595e+002;3.566284e-001
9.854880e+002;3.755348e-001
9.874166e+002;3.932743e-001
9.893452e+002;4.086213e-001
9.912737e+002;4.207965e-001
9.932022e+002;4.289993e-001
9.951307e+002;4.343870e-001
9.970593e+002;4.378813e-001
9.989879e+002;4.395573e-001
1.000916e+003;4.404866e-001
1.002845e+003;4.426862e-001
1.004773e+003;4.475162e-001
1.006702e+003;4.548370e-001
1.008631e+003;4.632060e-001
1.010559e+003;4.726323e-001
1.012488e+003;4.825020e-001
1.014416e+003;4.914866e-001
1.016345e+003;4.983486e-001
1.018273e+003;5.020370e-001
1.020202e+003;5.029070e-001
1.022130e+003;5.015390e-001
1.024059e+003;4.984131e-001
1.025988e+003;4.935398e-001
1.027916e+003;4.876573e-001
1.029845e+003;4.812742e-001
1.031773e+003;4.753282e-001
1.033702e+003;4.696607e-001
1.035630e+003;4.643696e-001
1.037559e+003;4.593941e-001
1.039487e+003;4.548201e-001
1.041416e+003;4.509903e-001
1.043344e+003;4.472363e-001
1.045273e+003;4.432599e-001
1.047202e+003;4.389085e-001
1.049130e+003;4.344696e-001
1.051059e+003;4.308944e-001
1.052987e+003;4.271843e-001
1.054916e+003;4.232745e-001
1.056844e+003;4.183566e-001
1.058773e+003;4.116066e-001
1.060701e+003;4.052328e-001
1.062630e+003;3.984501e-001
1.064558e+003;3.900360e-001
1.066487e+003;3.816213e-001
1.068416e+003;3.734051e-001
1.070344e+003;3.649315e-001
1.072273e+003;3.566056e-001
1.074201e+003;3.484154e-001
1.076130e+003;3.406219e-001
1.078058e+003;3.327714e-001
1.079987e+003;3.253812e-001
1.081915e+003;3.189446e-001
1.083844e+003;3.132911e-001
1.085773e+003;3.073029e-001
1.087701e+003;3.017486e-001
1.089630e+003;2.966227e-001
1.091558e+003;2.919837e-001
1.093487e+003;2.874274e-001
1.095415e+003;2.812734e-001
1.097344e+003;2.748513e-001
1.099272e+003;2.683996e-001
1.101201e+003;2.619849e-001
1.103129e+003;2.569206e-001
1.105058e+003;2.523228e-001
1.106987e+003;2.477693e-001
1.108915e+003;2.436875e-001
1.110844e+003;2.389356e-001
1.112772e+003;2.340604e-001
1.114701e+003;2.296775e-001
1.116629e+003;2.241884e-001
1.118558e+003;2.180428e-001
1.120486e+003;2.120553e-001
1.122415e+003;2.060237e-001
1.124344e+003;1.990332e-001
1.126272e+003;1.923584e-001
1.128201e+003;1.872922e-001
1.130129e+003;1.822717e-001
1.132058e+003;1.771821e-001
1.133986e+003;1.724350e-001
1.135915e+003;1.679588e-001
1.137843e+003;1.643968e-001
1.139772e+003;1.625779e-001
1.141700e+003;1.616905e-001
1.143629e+003;1.615359e-001
1.145557e+003;1.623519e-001
1.147486e+003;1.639103e-001
1.149415e+003;1.658460e-001
1.151343e+003;1.676210e-001
1.153272e+003;1.688289e-001
1.155200e+003;1.689519e-001
1.157129e+003;1.677658e-001
1.159057e+003;1.649922e-001
1.160986e+003;1.608202e-001
1.162914e+003;1.549115e-001
1.164843e+003;1.477545e-001
1.166771e+003;1.402268e-001
1.168700e+003;1.331943e-001
1.170629e+003;1.266397e-001
1.172557e+003;1.205528e-001
1.174486e+003;1.151090e-001
1.176414e+003;1.100188e-001
1.178343e+003;1.059021e-001
1.180271e+003;1.030636e-001
1.182200e+003;1.011269e-001
1.184128e+003;9.986362e-002
1.186057e+003;9.978223e-002
1.187986e+003;1.009874e-001
1.189914e+003;1.031999e-001
1.191843e+003;1.063348e-001
1.193771e+003;1.096876e-001
1.195700e+003;1.123066e-001
1.197628e+003;1.140172e-001
1.199557e+003;1.144760e-001
1.201485e+003;1.134628e-001
1.203414e+003;1.115112e-001
1.205343e+003;1.095244e-001
1.207271e+003;1.073550e-001
1.209200e+003;1.050402e-001
1.211128e+003;1.035464e-001
1.213057e+003;1.032141e-001
1.214985e+003;1.042022e-001
1.216914e+003;1.059978e-001
1.218842e+003;1.079584e-001
1.220771e+003;1.099028e-001
1.222699e+003;1.118422e-001
1.224628e+003;1.139396e-001
1.226557e+003;1.154456e-001
1.228485e+003;1.163519e-001
1.230414e+003;1.174956e-001
1.232342e+003;1.184289e-001
1.234271e+003;1.187361e-001
1.236199e+003;1.187659e-001
1.238128e+003;1.186534e-001
1.240056e+003;1.185527e-001
1.241985e+003;1.184768e-001
1.243913e+003;1.186271e-001
1.245842e+003;1.190217e-001
1.247771e+003;1.194834e-001
1.249699e+003;1.201698e-001
1.251628e+003;1.213150e-001
1.253556e+003;1.225056e-001
1.255485e+003;1.232207e-001
1.257413e+003;1.237451e-001
1.259342e+003;1.241519e-001
1.261270e+003;1.241600e-001
1.263199e+003;1.238263e-001
1.265127e+003;1.231622e-001
1.267056e+003;1.222064e-001
1.268985e+003;1.208550e-001
1.270913e+003;1.193323e-001
1.272842e+003;1.182683e-001
1.274770e+003;1.174256e-001
1.276699e+003;1.166501e-001
1.278627e+003;1.157536e-001
1.280556e+003;1.147125e-001
1.282484e+003;1.141516e-001
1.284413e+003;1.141819e-001
1.286342e+003;1.146978e-001
1.288270e+003;1.158351e-001
1.290199e+003;1.174492e-001
1.292127e+003;1.193711e-001
1.294056e+003;1.210551e-001
1.295984e+003;1.227545e-001
1.297913e+003;1.245742e-001
1.299841e+003;1.263416e-001
1.301770e+003;1.281357e-001
1.303698e+003;1.297089e-001
1.305627e+003;1.314541e-001
1.307556e+003;1.333945e-001
1.309484e+003;1.351926e-001
1.311413e+003;1.368603e-001
1.313341e+003;1.380004e-001
1.315270e+003;1.382257e-001
1.317198e+003;1.375977e-001
1.319127e+003;1.366912e-001
1.321055e+003;1.359050e-001
1.322984e+003;1.353079e-001
1.324912e+003;1.352397e-001
1.326841e+003;1.352577e-001
1.328770e+003;1.350535e-001
1.330698e+003;1.348875e-001
1.332627e+003;1.350113e-001
1.334555e+003;1.349897e-001
1.336484e+003;1.347462e-001
1.338412e+003;1.341960e-001
1.340341e+003;1.336734e-001
1.342269e+003;1.334326e-001
1.344198e+003;1.331293e-001
1.346126e+003;1.328213e-001
1.348055e+003;1.326853e-001
1.349984e+003;1.329398e-001
1.351912e+003;1.333891e-001
1.353841e+003;1.341409e-001
1.355769e+003;1.351590e-001
1.357698e+003;1.360407e-001
1.359626e+003;1.368912e-001
1.361555e+003;1.374260e-001
1.363483e+003;1.377240e-001
1.365412e+003;1.380692e-001
1.367341e+003;1.377325e-001
1.369269e+003;1.367211e-001
1.371198e+003;1.354443e-001
1.373126e+003;1.337597e-001
1.375055e+003;1.317288e-001
1.376983e+003;1.296749e-001
1.378912e+003;1.275174e-001
1.380840e+003;1.252788e-001
1.382769e+003;1.229780e-001
1.384698e+003;1.207814e-001
1.386626e+003;1.187310e-001
1.388555e+003;1.175477e-001
1.390483e+003;1.168987e-001
1.392412e+003;1.161764e-001
1.394340e+003;1.153953e-001
1.396269e+003;1.151345e-001
1.398197e+003;1.148778e-001
1.400126e+003;1.148099e-001
1.402054e+003;1.149651e-001
1.403983e+003;1.147855e-001
1.405911e+003;1.148954e-001
1.407840e+003;1.150380e-001
1.409769e+003;1.150727e-001
1.411697e+003;1.152174e-001
1.413626e+003;1.150411e-001
1.415554e+003;1.144638e-001
1.417483e+003;1.133702e-001
1.419411e+003;1.127066e-001
1.421340e+003;1.133159e-001
1.423268e+003;1.133992e-001
1.425197e+003;1.132306e-001
1.427125e+003;1.128841e-001
1.429054e+003;1.121046e-001
1.430983e+003;1.115756e-001
1.432911e+003;1.111046e-001
1.434840e+003;1.095471e-001
1.436768e+003;1.080304e-001
1.438697e+003;1.082336e-001
1.440625e+003;1.079764e-001
1.442554e+003;1.068706e-001
1.444482e+003;1.055617e-001
1.446411e+003;1.042307e-001
1.448340e+003;1.029355e-001
1.450268e+003;1.020455e-001
1.452197e+003;1.008083e-001
1.454125e+003;9.861537e-002
1.456054e+003;9.536734e-002
1.457982e+003;9.445399e-002
1.459911e+003;9.523679e-002
1.461839e+003;9.448105e-002
1.463768e+003;9.218939e-002
1.465697e+003;9.040208e-002
1.467625e+003;8.954609e-002
1.469554e+003;8.777686e-002
1.471482e+003;8.457813e-002
1.473411e+003;8.237950e-002
1.475339e+003;8.149575e-002
1.477268e+003;8.026061e-002
1.479196e+003;7.871985e-002
1.481125e+003;7.677811e-002
1.483053e+003;7.504728e-002
1.484982e+003;7.348712e-002
1.486911e+003;7.157326e-002
1.488839e+003;6.957380e-002
1.490768e+003;6.861146e-002
1.492696e+003;6.816695e-002
1.494625e+003;6.660307e-002
1.496553e+003;6.502233e-002
1.498482e+003;6.495049e-002
1.500410e+003;6.525935e-002
1.502339e+003;6.486388e-002
1.504267e+003;6.259393e-002
1.506196e+003;6.018089e-002
1.508125e+003;6.084301e-002
1.510053e+003;6.213550e-002
1.511982e+003;6.216849e-002
1.513910e+003;6.199368e-002
1.515839e+003;6.131100e-002
1.517767e+003;6.070394e-002
1.519696e+003;5.951739e-002
1.521624e+003;5.890616e-002
1.523553e+003;6.002389e-002
1.525481e+003;6.036293e-002
1.527410e+003;6.076930e-002
1.529339e+003;6.134416e-002
1.531267e+003;6.099021e-002
1.533196e+003;5.999863e-002
1.535124e+003;6.051533e-002
1.537053e+003;5.981142e-002
1.538981e+003;5.708631e-002
1.540910e+003;5.672218e-002
1.542838e+003;5.840513e-002
1.544767e+003;5.949991e-002
1.546695e+003;6.053971e-002
1.548624e+003;6.084465e-002
1.550553e+003;6.072791e-002
1.552481e+003;6.048505e-002
1.554410e+003;5.996002e-002
1.556338e+003;5.890908e-002
1.558267e+003;5.665467e-002
1.560195e+003;5.766921e-002
1.562124e+003;6.092082e-002
1.564052e+003;6.227104e-002
1.565981e+003;6.237737e-002
1.567910e+003;6.169775e-002
1.569838e+003;6.156154e-002
1.571767e+003;6.259477e-002
1.573695e+003;6.223257e-002
1.575624e+003;6.093447e-002
1.577552e+003;6.219063e-002
1.579481e+003;6.411798e-002
1.581409e+003;6.482445e-002
1.583338e+003;6.535813e-002
1.585266e+003;6.583653e-002
1.587195e+003;6.635810e-002
1.589124e+003;6.701038e-002
1.591052e+003;6.753816e-002
1.592981e+003;6.777947e-002
1.594909e+003;6.807500e-002
1.596838e+003;6.847271e-002
1.598766e+003;6.881100e-002
1.600695e+003;6.926185e-002
1.602623e+003;6.996869e-002
1.604552e+003;7.059834e-002
1.606480e+003;7.087279e-002
1.608409e+003;7.117204e-002
1.610338e+003;7.167967e-002
1.612266e+003;7.221179e-002
1.614195e+003;7.190788e-002
1.616123e+003;7.091769e-002
1.618052e+003;7.203591e-002
1.619980e+003;7.382407e-002
1.621909e+003;7.400657e-002
1.623837e+003;7.407212e-002
1.625766e+003;7.475703e-002
1.627694e+003;7.520740e-002
1.629623e+003;7.574588e-002
1.631552e+003;7.593109e-002
1.633480e+003;7.495528e-002
1.635409e+003;7.406209e-002
1.637337e+003;7.542679e-002
1.639266e+003;7.655349e-002
1.641194e+003;7.671568e-002
1.643123e+003;7.638556e-002
1.645051e+003;7.483500e-002
1.646980e+003;7.410548e-002
1.648909e+003;7.465487e-002
1.650837e+003;7.240199e-002
1.652766e+003;6.906241e-002
1.654694e+003;7.084642e-002
1.656623e+003;7.301297e-002
1.658551e+003;7.267194e-002
1.660480e+003;7.150470e-002
1.662408e+003;7.027070e-002
1.664337e+003;7.003498e-002
1.666266e+003;6.953207e-002
1.668194e+003;6.786840e-002
1.670123e+003;6.681580e-002
1.672051e+003;6.650281e-002
1.673980e+003;6.517957e-002
1.675908e+003;6.430010e-002
1.677837e+003;6.453561e-002
1.679765e+003;6.391954e-002
1.681694e+003;6.218133e-002
1.683622e+003;5.924041e-002
1.685551e+003;5.924026e-002
1.687479e+003;6.076027e-002
1.689408e+003;6.046110e-002
1.691337e+003;5.994891e-002
1.693265e+003;5.872879e-002
1.695194e+003;5.618312e-002
1.697122e+003;5.565486e-002
1.699051e+003;5.459071e-002
1.700979e+003;5.401511e-002
1.702908e+003;5.542599e-002
1.704836e+003;5.518732e-002
1.706765e+003;5.487733e-002
1.708693e+003;5.485470e-002
1.710622e+003;5.466917e-002
1.712551e+003;5.404326e-002
1.714479e+003;5.290052e-002
1.716408e+003;5.131625e-002
1.718336e+003;5.126140e-002
1.720265e+003;5.259972e-002
1.722193e+003;5.286082e-002
1.724122e+003;5.244114e-002
1.726050e+003;5.202754e-002
1.727979e+003;5.145480e-002
1.729908e+003;5.082396e-002
1.731836e+003;4.902873e-002
1.733765e+003;4.710611e-002
1.735693e+003;4.802665e-002
1.737622e+003;4.838859e-002
1.739550e+003;4.718870e-002
1.741479e+003;4.715331e-002
1.743407e+003;4.727022e-002
1.745336e+003;4.709285e-002
1.747265e+003;4.676022e-002
1.749193e+003;4.646721e-002
1.751122e+003;4.675848e-002
1.753050e+003;4.794072e-002
1.754979e+003;4.841137e-002
1.756907e+003;4.854604e-002
1.758836e+003;4.888899e-002
1.760764e+003;4.875577e-002
1.762693e+003;4.892355e-002
1.764621e+003;4.924352e-002
1.766550e+003;4.888535e-002
1.768479e+003;4.869865e-002
1.770407e+003;4.844160e-002
1.772336e+003;4.812658e-002
1.774264e+003;4.885736e-002
1.776193e+003;4.928127e-002
1.778121e+003;4.915654e-002
1.780050e+003;4.906694e-002
1.781978e+003;4.917661e-002
1.783907e+003;4.907685e-002
1.785835e+003;4.914912e-002
1.787764e+003;4.913725e-002
1.789693e+003;4.846849e-002
1.791621e+003;4.773752e-002
1.793550e+003;4.789103e-002
1.795478e+003;4.841474e-002
1.797407e+003;4.828301e-002
1.799335e+003;4.791963e-002
1.801264e+003;4.787120e-002
1.803192e+003;4.831737e-002
1.805121e+003;4.857465e-002
1.807049e+003;4.845671e-002
1.808978e+003;4.808642e-002
1.810907e+003;4.778013e-002
1.812835e+003;4.761601e-002
1.814764e+003;4.771918e-002
1.816692e+003;4.804452e-002
1.818621e+003;4.826938e-002
1.820549e+003;4.808997e-002
1.822478e+003;4.764862e-002
1.824406e+003;4.729738e-002
1.826335e+003;4.742996e-002
1.828264e+003;4.720373e-002
1.830192e+003;4.668834e-002
1.832121e+003;4.682882e-002
1.834049e+003;4.718611e-002
1.835978e+003;4.731582e-002
1.837906e+003;4.740927e-002
1.839835e+003;4.725707e-002
1.841763e+003;4.658689e-002
1.843692e+003;4.581802e-002
1.845620e+003;4.615672e-002
1.847549e+003;4.681214e-002
1.849478e+003;4.694040e-002
1.851406e+003;4.688584e-002
1.853335e+003;4.666410e-002
1.855263e+003;4.660105e-002
1.857192e+003;4.663348e-002
1.859120e+003;4.660873e-002
1.861049e+003;4.662363e-002
1.862977e+003;4.679479e-002
1.864906e+003;4.673295e-002
1.866834e+003;4.619132e-002
1.868763e+003;4.579622e-002
1.870692e+003;4.594334e-002
1.872620e+003;4.617857e-002
1.874549e+003;4.630333e-002
1.876477e+003;4.624738e-002
1.878406e+003;4.613538e-002
1.880334e+003;4.612842e-002
1.882263e+003;4.616707e-002
1.884191e+003;4.632921e-002
1.886120e+003;4.632748e-002
1.888048e+003;4.600574e-002
1.889977e+003;4.600456e-002
1.891906e+003;4.632268e-002
1.893834e+003;4.624981e-002
1.895763e+003;4.616265e-002
1.897691e+003;4.622420e-002
1.899620e+003;4.645803e-002
1.901548e+003;4.660231e-002
1.903477e+003;4.657900e-002
1.905405e+003;4.662562e-002
1.907334e+003;4.671948e-002
1.909262e+003;4.661865e-002
1.911191e+003;4.674789e-002
1.913120e+003;4.697296e-002
1.915048e+003;4.702646e-002
1.916977e+003;4.677128e-002
1.918905e+003;4.706645e-002
1.920834e+003;4.745509e-002
1.922762e+003;4.740539e-002
1.924691e+003;4.750270e-002
1.926619e+003;4.758011e-002
1.928548e+003;4.748400e-002
1.930477e+003;4.762681e-002
1.932405e+003;4.783876e-002
1.934334e+003;4.790335e-002
1.936262e+003;4.771715e-002
1.938191e+003;4.772658e-002
1.940119e+003;4.787102e-002
1.942048e+003;4.789177e-002
1.943976e+003;4.815298e-002
1.945905e+003;4.835352e-002
1.947833e+003;4.840485e-002
1.949762e+003;4.848857e-002
1.951691e+003;4.851632e-002
1.953619e+003;4.849847e-002
1.955548e+003;4.861726e-002
1.957476e+003;4.877683e-002
1.959405e+003;4.888253e-002
1.961333e+003;4.897217e-002
1.963262e+003;4.901668e-002
1.965190e+003;4.895937e-002
1.967119e+003;4.897773e-002
1.969047e+003;4.905440e-002
1.970976e+003;4.910868e-002
1.972905e+003;4.925228e-002
1.974833e+003;4.938420e-002
1.976762e+003;4.956496e-002
1.978690e+003;4.940685e-002
1.980619e+003;4.943585e-002
1.982547e+003;4.940640e-002
1.984476e+003;4.931441e-002
1.986404e+003;4.948697e-002
1.988333e+003;4.941038e-002
1.990261e+003;4.937834e-002
1.992190e+003;4.954624e-002
1.994119e+003;4.964274e-002
1.996047e+003;4.962509e-002
1.997976e+003;4.969943e-002
1.999904e+003;4.987266e-002
2.001833e+003;5.003797e-002
2.003761e+003;5.004459e-002
2.005690e+003;5.007430e-002
2.007618e+003;5.028745e-002
2.009547e+003;5.052192e-002
2.011476e+003;5.063431e-002
2.013404e+003;5.072259e-002
2.015333e+003;5.079518e-002
2.017261e+003;5.083570e-002
2.019190e+003;5.092026e-002
2.021118e+003;5.105180e-002
2.023047e+003;5.108728e-002
2.024975e+003;5.117610e-002
2.026904e+003;5.131983e-002
2.028833e+003;5.114367e-002
2.030761e+003;5.126330e-002
2.032690e+003;5.136969e-002
2.034618e+003;5.129462e-002
2.036547e+003;5.128511e-002
2.038475e+003;5.147054e-002
2.040404e+003;5.168083e-002
2.042332e+003;5.165952e-002
2.044261e+003;5.154922e-002
2.046189e+003;5.142228e-002
2.048118e+003;5.137204e-002
2.050047e+003;5.147983e-002
2.051975e+003;5.170338e-002
2.053904e+003;5.169968e-002
2.055832e+003;5.147577e-002
2.057761e+003;5.148464e-002
2.059689e+003;5.168576e-002
2.061618e+003;5.190415e-002
2.063546e+003;5.173850e-002
2.065475e+003;5.136946e-002
2.067404e+003;5.146267e-002
2.069332e+003;5.183268e-002
2.071260e+003;5.190475e-002
2.073189e+003;5.171166e-002
2.075118e+003;5.153169e-002
2.077046e+003;5.154784e-002
2.078975e+003;5.163404e-002
2.080903e+003;5.178255e-002
2.082832e+003;5.190146e-002
2.084760e+003;5.181809e-002
2.086689e+003;5.180689e-002
2.088617e+003;5.195015e-002
2.090546e+003;5.183231e-002
2.092475e+003;5.181794e-002
2.094403e+003;5.183078e-002
2.096332e+003;5.171521e-002
2.098260e+003;5.158754e-002
2.100189e+003;5.145152e-002
2.102117e+003;5.155377e-002
2.104046e+003;5.182103e-002
2.105974e+003;5.216000e-002
2.107903e+003;5.231120e-002
2.109832e+003;5.200079e-002
2.111760e+003;5.199019e-002
2.113688e+003;5.208189e-002
2.115617e+003;5.194746e-002
2.117546e+003;5.193294e-002
2.119474e+003;5.201764e-002
2.121403e+003;5.204487e-002
2.123331e+003;5.208727e-002
2.125260e+003;5.198130e-002
2.127188e+003;5.191065e-002
2.129117e+003;5.196124e-002
2.131045e+003;5.200143e-002
2.132974e+003;5.214289e-002
2.134903e+003;5.215720e-002
2.136831e+003;5.196815e-002
2.138760e+003;5.195362e-002
2.140688e+003;5.198406e-002
2.142617e+003;5.175093e-002
2.144545e+003;5.164456e-002
2.146474e+003;5.161881e-002
2.148402e+003;5.170651e-002
2.150331e+003;5.208073e-002
2.152260e+003;5.216938e-002
2.154188e+003;5.204972e-002
2.156117e+003;5.184190e-002
2.158045e+003;5.149233e-002
2.159974e+003;5.145961e-002
2.161902e+003;5.159112e-002
2.163831e+003;5.154963e-002
2.165759e+003;5.138863e-002
2.167688e+003;5.140672e-002
2.169616e+003;5.147774e-002
2.171545e+003;5.122352e-002
2.173474e+003;5.092861e-002
2.175402e+003;5.069667e-002
2.177331e+003;5.079987e-002
2.179259e+003;5.097377e-002
2.181188e+003;5.091720e-002
2.183116e+003;5.076772e-002
2.185045e+003;5.065638e-002
2.186973e+003;5.077286e-002
2.188902e+003;5.087120e-002
2.190831e+003;5.074389e-002
2.192759e+003;5.054373e-002
2.194688e+003;5.028112e-002
2.196616e+003;5.009423e-002
2.198545e+003;5.019081e-002
2.200473e+003;5.043632e-002
2.202402e+003;5.049791e-002
2.204330e+003;5.047543e-002
2.206259e+003;5.046058e-002
2.208188e+003;5.027257e-002
2.210116e+003;4.996752e-002
2.212044e+003;4.981903e-002
2.213973e+003;4.984535e-002
2.215902e+003;5.009114e-002
2.217830e+003;5.022986e-002
2.219759e+003;5.002823e-002
2.221687e+003;4.988184e-002
2.223616e+003;4.989188e-002
2.225544e+003;4.989756e-002
2.227473e+003;4.986151e-002
2.229401e+003;4.962836e-002
2.231330e+003;4.942664e-002
2.233259e+003;4.968423e-002
2.235187e+003;4.985650e-002
2.237116e+003;4.957012e-002
2.239044e+003;4.937039e-002
2.240973e+003;4.927722e-002
2.242901e+003;4.913591e-002
2.244830e+003;4.919309e-002
2.246758e+003;4.916467e-002
2.248687e+003;4.896178e-002
2.250615e+003;4.893738e-002
2.252544e+003;4.881898e-002
2.254473e+003;4.878409e-002
2.256401e+003;4.897966e-002
2.258330e+003;4.920140e-002
2.260258e+003;4.910148e-002
2.262187e+003;4.881772e-002
2.264115e+003;4.861785e-002
2.266044e+003;4.862260e-002
2.267972e+003;4.881309e-002
2.269901e+003;4.879381e-002
2.271830e+003;4.864431e-002
2.273758e+003;4.836048e-002
2.275687e+003;4.817034e-002
2.277615e+003;4.825442e-002
2.279544e+003;4.816330e-002
2.281472e+003;4.812085e-002
2.283401e+003;4.809615e-002
2.285329e+003;4.821184e-002
2.287258e+003;4.832982e-002
2.289187e+003;4.824235e-002
2.291115e+003;4.805263e-002
2.293043e+003;4.800030e-002
2.294972e+003;4.808860e-002
2.296901e+003;4.811266e-002
2.298829e+003;4.807576e-002
2.300758e+003;4.832504e-002
2.302686e+003;4.846460e-002
2.304615e+003;4.827219e-002
2.306543e+003;4.809623e-002
2.308472e+003;4.808116e-002
2.310400e+003;4.815594e-002
2.312329e+003;4.819285e-002
2.314258e+003;4.835404e-002
2.316186e+003;4.834963e-002
2.318115e+003;4.821595e-002
2.320043e+003;4.827282e-002
2.321972e+003;4.844690e-002
2.323900e+003;4.866922e-002
2.325829e+003;4.859610e-002
2.327757e+003;4.839385e-002
2.329686e+003;4.850428e-002
2.331615e+003;4.864943e-002
2.333543e+003;4.853237e-002
2.335472e+003;4.836022e-002
2.337400e+003;4.852584e-002
2.339329e+003;4.891877e-002
2.341257e+003;4.912252e-002
2.343186e+003;4.896638e-002
2.345114e+003;4.893820e-002
2.347043e+003;4.922671e-002
2.348971e+003;4.940804e-002
2.350900e+003;4.929192e-002
2.352829e+003;4.919242e-002
2.354757e+003;4.932522e-002
2.356686e+003;4.962862e-002
2.358614e+003;4.978031e-002
2.360543e+003;4.974193e-002
2.362471e+003;4.995313e-002
2.364400e+003;5.007920e-002
2.366328e+003;4.996655e-002
2.368257e+003;5.005307e-002
2.370186e+003;5.011609e-002
2.372114e+003;4.989006e-002
2.374042e+003;4.972985e-002
2.375971e+003;5.002771e-002
2.377900e+003;5.021577e-002
2.379828e+003;5.038705e-002
2.381757e+003;5.047439e-002
2.383685e+003;5.052188e-002
2.385614e+003;5.075156e-002
2.387542e+003;5.082769e-002
2.389471e+003;5.089012e-002
2.391399e+003;5.092026e-002
2.393328e+003;5.099638e-002
2.395257e+003;5.111907e-002
2.397185e+003;5.108295e-002
2.399114e+003;5.114255e-002
2.401042e+003;5.110468e-002
2.402971e+003;5.109961e-002
2.404899e+003;5.154710e-002
2.406828e+003;5.182178e-002
2.408756e+003;5.189321e-002
2.410685e+003;5.191894e-002
2.412614e+003;5.178669e-002
2.414542e+003;5.170860e-002
2.416471e+003;5.183996e-002
2.418399e+003;5.202870e-002
2.420328e+003;5.219699e-002
2.422256e+003;5.237097e-002
2.424185e+003;5.265414e-002
2.426113e+003;5.288061e-002
2.428042e+003;5.284397e-002
2.429970e+003;5.291407e-002
2.431899e+003;5.314450e-002
2.433828e+003;5.308882e-002
2.435756e+003;5.289704e-002
2.437685e+003;5.320797e-002
2.439613e+003;5.356763e-002
2.441542e+003;5.355680e-002
2.443470e+003;5.355268e-002
2.445399e+003;5.376282e-002
2.447327e+003;5.396098e-002
2.449256e+003;5.430402e-002
2.451185e+003;5.448308e-002
2.453113e+003;5.444181e-002
2.455042e+003;5.437308e-002
2.456970e+003;5.440845e-002
2.458899e+003;5.478204e-002
2.460827e+003;5.506047e-002
2.462756e+003;5.485658e-002
2.464684e+003;5.480060e-002
2.466613e+003;5.499322e-002
2.468542e+003;5.508800e-002
2.470470e+003;5.531210e-002
2.472398e+003;5.552685e-002
2.474327e+003;5.559810e-002
2.476256e+003;5.571460e-002
2.478184e+003;5.595190e-002
2.480113e+003;5.609684e-002
2.482041e+003;5.612987e-002
2.483970e+003;5.617836e-002
2.485898e+003;5.624444e-002
2.487827e+003;5.635934e-002
2.489755e+003;5.634836e-002
2.491684e+003;5.632195e-002
2.493613e+003;5.626827e-002
2.495541e+003;5.603837e-002
2.497470e+003;5.609869e-002
2.499398e+003;5.646026e-002
2.501327e+003;5.658009e-002
2.503255e+003;5.649290e-002
2.505184e+003;5.676964e-002
2.507112e+003;5.689665e-002
2.509041e+003;5.681975e-002
2.510969e+003;5.693423e-002
2.512898e+003;5.712897e-002
2.514827e+003;5.726036e-002
2.516755e+003;5.726656e-002
2.518684e+003;5.717742e-002
2.520612e+003;5.730032e-002
2.522541e+003;5.759475e-002
2.524469e+003;5.765067e-002
2.526398e+003;5.749737e-002
2.528326e+003;5.751447e-002
2.530255e+003;5.767201e-002
2.532184e+003;5.768839e-002
2.534112e+003;5.743452e-002
2.536041e+003;5.742105e-002
2.537969e+003;5.745668e-002
2.539898e+003;5.752404e-002
2.541826e+003;5.782339e-002
2.543755e+003;5.772768e-002
2.545683e+003;5.749949e-002
2.547612e+003;5.768268e-002
2.549541e+003;5.791179e-002
2.551469e+003;5.810212e-002
2.553397e+003;5.843192e-002
2.555326e+003;5.856378e-002
2.557255e+003;5.854141e-002
2.559183e+003;5.843784e-002
2.561112e+003;5.830670e-002
2.563040e+003;5.835475e-002
2.564969e+003;5.851707e-002
2.566897e+003;5.872928e-002
2.568826e+003;5.881213e-002
2.570754e+003;5.872113e-002
2.572683e+003;5.866845e-002
2.574612e+003;5.869526e-002
2.576540e+003;5.898654e-002
2.578469e+003;5.936458e-002
2.580397e+003;5.950055e-002
2.582326e+003;5.928249e-002
2.584254e+003;5.913702e-002
2.586183e+003;5.914867e-002
2.588111e+003;5.917157e-002
2.590040e+003;5.933639e-002
2.591969e+003;5.955600e-002
2.593897e+003;5.970123e-002
2.595826e+003;5.993716e-002
2.597754e+003;6.001857e-002
2.599683e+003;5.990623e-002
2.601611e+003;6.001404e-002
2.603540e+003;6.025934e-002
2.605468e+003;6.044602e-002
2.607397e+003;6.059452e-002
2.609325e+003;6.086356e-002
2.611254e+003;6.100775e-002
2.613183e+003;6.094613e-002
2.615111e+003;6.098654e-002
2.617040e+003;6.108470e-002
2.618968e+003;6.109302e-002
2.620897e+003;6.125491e-002
2.622825e+003;6.149301e-002
2.624754e+003;6.168201e-002
2.626682e+003;6.196005e-002
2.628611e+003;6.202353e-002
2.630540e+003;6.198997e-002
2.632468e+003;6.196151e-002
2.634396e+003;6.208362e-002
2.636325e+003;6.242396e-002
2.638254e+003;6.277495e-002
2.640182e+003;6.280677e-002
2.642111e+003;6.272484e-002
2.644039e+003;6.282905e-002
2.645968e+003;6.317803e-002
2.647896e+003;6.329267e-002
2.649825e+003;6.334691e-002
2.651753e+003;6.360216e-002
2.653682e+003;6.387571e-002
2.655611e+003;6.406433e-002
2.657539e+003;6.397682e-002
2.659468e+003;6.389924e-002
2.661396e+003;6.392596e-002
2.663325e+003;6.429026e-002
2.665253e+003;6.486253e-002
2.667182e+003;6.497731e-002
2.669110e+003;6.495506e-002
2.671039e+003;6.511559e-002
2.672968e+003;6.528258e-002
2.674896e+003;6.543093e-002
2.676825e+003;6.546483e-002
2.678753e+003;6.568564e-002
2.680682e+003;6.591299e-002
2.682610e+003;6.586988e-002
2.684539e+003;6.575452e-002
2.686467e+003;6.594330e-002
2.688396e+003;6.635354e-002
2.690324e+003;6.656627e-002
2.692253e+003;6.666701e-002
2.694182e+003;6.674091e-002
2.696110e+003;6.690431e-002
2.698039e+003;6.697550e-002
2.699967e+003;6.697079e-002
2.701896e+003;6.706068e-002
2.703824e+003;6.732837e-002
2.705753e+003;6.762062e-002
2.707681e+003;6.778330e-002
2.709610e+003;6.796712e-002
2.711539e+003;6.804970e-002
2.713467e+003;6.814589e-002
2.715396e+003;6.835736e-002
2.717324e+003;6.834511e-002
2.719253e+003;6.821052e-002
2.721181e+003;6.828031e-002
2.723110e+003;6.845026e-002
2.725038e+003;6.860005e-002
2.726967e+003;6.868923e-002
2.728896e+003;6.891378e-002
2.730824e+003;6.907457e-002
2.732752e+003;6.915701e-002
2.734681e+003;6.938355e-002
2.736610e+003;6.936726e-002
2.738538e+003;6.918515e-002
2.740467e+003;6.945979e-002
2.742395e+003;6.994031e-002
2.744324e+003;6.997798e-002
2.746252e+003;6.978799e-002
2.748181e+003;6.985971e-002
2.750109e+003;7.002731e-002
2.752038e+003;7.003708e-002
2.753967e+003;7.013182e-002
2.755895e+003;7.031733e-002
2.757824e+003;7.040943e-002
2.759752e+003;7.064493e-002
2.761681e+003;7.106389e-002
2.763609e+003;7.154514e-002
2.765538e+003;7.200298e-002
2.767466e+003;7.217634e-002
2.769395e+003;7.197282e-002
2.771323e+003;7.207330e-002
2.773252e+003;7.223190e-002
2.775181e+003;7.262812e-002
2.777109e+003;7.310788e-002
2.779038e+003;7.319062e-002
2.780966e+003;7.313447e-002
2.782895e+003;7.330746e-002
2.784823e+003;7.351247e-002
2.786752e+003;7.370438e-002
2.788680e+003;7.430147e-002
2.790609e+003;7.466636e-002
2.792538e+003;7.477152e-002
2.794466e+003;7.521394e-002
2.796395e+003;7.565209e-002
2.798323e+003;7.584092e-002
2.800252e+003;7.620055e-002
2.802180e+003;7.664839e-002
2.804109e+003;7.701186e-002
2.806037e+003;7.724479e-002
2.807966e+003;7.748964e-002
2.809895e+003;7.770634e-002
2.811823e+003;7.790837e-002
2.813751e+003;7.837293e-002
2.815680e+003;7.899559e-002
2.817609e+003;7.942269e-002
2.819537e+003;7.974000e-002
2.821466e+003;8.026196e-002
2.823394e+003;8.054423e-002
2.825323e+003;8.076540e-002
2.827251e+003;8.138799e-002
2.829180e+003;8.222767e-002
2.831108e+003;8.280436e-002
2.833037e+003;8.309305e-002
2.834966e+003;8.364956e-002
2.836894e+003;8.442747e-002
2.838823e+003;8.503973e-002
2.840751e+003;8.574375e-002
2.842680e+003;8.633693e-002
2.844608e+003;8.664477e-002
2.846537e+003;8.682991e-002
2.848465e+003;8.706335e-002
2.850394e+003;8.753364e-002
2.852323e+003;8.834806e-002
2.854251e+003;8.967597e-002
2.856180e+003;9.142823e-002
2.858108e+003;9.338333e-002
2.860037e+003;9.502757e-002
2.861965e+003;9.661365e-002
2.863894e+003;9.833716e-002
2.865822e+003;1.001165e-001
2.867751e+003;1.015484e-001
2.869679e+003;1.025789e-001
2.871608e+003;1.035928e-001
2.873536e+003;1.045705e-001
2.875465e+003;1.052693e-001
2.877394e+003;1.062110e-001
2.879322e+003;1.068478e-001
2.881251e+003;1.071502e-001
2.883179e+003;1.078477e-001
2.885108e+003;1.082688e-001
2.887036e+003;1.083300e-001
2.888965e+003;1.085372e-001
2.890893e+003;1.082569e-001
2.892822e+003;1.080986e-001
2.894750e+003;1.077770e-001
2.896679e+003;1.069257e-001
2.898608e+003;1.063672e-001
2.900536e+003;1.058774e-001
2.902465e+003;1.049004e-001
2.904393e+003;1.037834e-001
2.906322e+003;1.032001e-001
2.908250e+003;1.025929e-001
2.910179e+003;1.013825e-001
2.912107e+003;9.990524e-002
2.914036e+003;9.833708e-002
2.915965e+003;9.676839e-002
2.917893e+003;9.528213e-002
2.919822e+003;9.401009e-002
2.921750e+003;9.312069e-002
2.923679e+003;9.242138e-002
2.925607e+003;9.156746e-002
2.927536e+003;9.031539e-002
2.929464e+003;8.915852e-002
2.931393e+003;8.880145e-002
2.933322e+003;8.854798e-002
2.935250e+003;8.795709e-002
2.937178e+003;8.713036e-002
2.939107e+003;8.643764e-002
2.941036e+003;8.580112e-002
2.942964e+003;8.497441e-002
2.944893e+003;8.454419e-002
2.946821e+003;8.377688e-002
2.948750e+003;8.256771e-002
2.950678e+003;8.145390e-002
2.952607e+003;8.060605e-002
2.954535e+003;7.962981e-002
2.956464e+003;7.818307e-002
2.958393e+003;7.709863e-002
2.960321e+003;7.652045e-002
2.962250e+003;7.582683e-002
2.964178e+003;7.501825e-002
2.966107e+003;7.470150e-002
2.968035e+003;7.447257e-002
2.969964e+003;7.409377e-002
2.971892e+003;7.394462e-002
2.973821e+003;7.401887e-002
2.975750e+003;7.388531e-002
2.977678e+003;7.376266e-002
2.979607e+003;7.372433e-002
2.981535e+003;7.367097e-002
2.983464e+003;7.343257e-002
2.985392e+003;7.311753e-002
2.987321e+003;7.258112e-002
2.989249e+003;7.231545e-002
2.991178e+003;7.232054e-002
2.993106e+003;7.221637e-002
2.995035e+003;7.222126e-002
2.996964e+003;7.225151e-002
2.998892e+003;7.233244e-002
3.000821e+003;7.242505e-002
3.002749e+003;7.245833e-002
3.004678e+003;7.243441e-002
3.006606e+003;7.269552e-002
3.008535e+003;7.304245e-002
3.010463e+003;7.310992e-002
3.012392e+003;7.307389e-002
3.014321e+003;7.366614e-002
3.016249e+003;7.413653e-002
3.018177e+003;7.400099e-002
3.020106e+003;7.434660e-002
3.022035e+003;7.494123e-002
3.023963e+003;7.540216e-002
3.025892e+003;7.566656e-002
3.027820e+003;7.587888e-002
3.029749e+003;7.640266e-002
3.031677e+003;7.690866e-002
3.033606e+003;7.738783e-002
3.035534e+003;7.779476e-002
3.037463e+003;7.798710e-002
3.039392e+003;7.857510e-002
3.041320e+003;7.915109e-002
3.043249e+003;7.937113e-002
3.045177e+003;7.970133e-002
3.047106e+003;8.028835e-002
3.049034e+003;8.099529e-002
3.050963e+003;8.134667e-002
3.052891e+003;8.168474e-002
3.054820e+003;8.233207e-002
3.056749e+003;8.253277e-002
3.058677e+003;8.271404e-002
3.060606e+003;8.326681e-002
3.062534e+003;8.407202e-002
3.064463e+003;8.465712e-002
3.066391e+003;8.497980e-002
3.068320e+003;8.569883e-002
3.070248e+003;8.627316e-002
3.072177e+003;8.644483e-002
3.074105e+003;8.670897e-002
3.076034e+003;8.736866e-002
3.077963e+003;8.817668e-002
3.079891e+003;8.858004e-002
3.081820e+003;8.905149e-002
3.083748e+003;8.948762e-002
3.085677e+003;8.982863e-002
3.087605e+003;9.065766e-002
3.089534e+003;9.139702e-002
3.091462e+003;9.232806e-002
3.093391e+003;9.301609e-002
3.095320e+003;9.337372e-002
3.097248e+003;9.399314e-002
3.099177e+003;9.462132e-002
3.101105e+003;9.488664e-002
3.103034e+003;9.532884e-002
3.104962e+003;9.605860e-002
3.106891e+003;9.662772e-002
3.108819e+003;9.733881e-002
3.110748e+003;9.819786e-002
3.112677e+003;9.891789e-002
3.114605e+003;9.934201e-002
3.116533e+003;9.994069e-002
3.118462e+003;1.003366e-001
3.120391e+003;1.009055e-001
3.122319e+003;1.017357e-001
3.124248e+003;1.024995e-001
3.126176e+003;1.032873e-001
3.128105e+003;1.040194e-001
3.130033e+003;1.046890e-001
3.131962e+003;1.054552e-001
3.133890e+003;1.059247e-001
3.135819e+003;1.063264e-001
3.137748e+003;1.070906e-001
3.139676e+003;1.077577e-001
3.141605e+003;1.083156e-001
3.143533e+003;1.090485e-001
3.145462e+003;1.099124e-001
3.147390e+003;1.105963e-001
3.149319e+003;1.111573e-001
3.151247e+003;1.117217e-001
3.153176e+003;1.123098e-001
3.155104e+003;1.127444e-001
3.157033e+003;1.133252e-001
3.158962e+003;1.140835e-001
3.160890e+003;1.148307e-001
3.162819e+003;1.154185e-001
3.164747e+003;1.157530e-001
3.166676e+003;1.163737e-001
3.168604e+003;1.174311e-001
3.170533e+003;1.182403e-001
3.172461e+003;1.186217e-001
3.174390e+003;1.192217e-001
3.176319e+003;1.198560e-001
3.178247e+003;1.201506e-001
3.180176e+003;1.209680e-001
3.182104e+003;1.221636e-001
3.184033e+003;1.227123e-001
3.185961e+003;1.229865e-001
3.187890e+003;1.236157e-001
3.189818e+003;1.243322e-001
3.191747e+003;1.247505e-001
3.193676e+003;1.251323e-001
3.195604e+003;1.260397e-001
3.197532e+003;1.270525e-001
3.199461e+003;1.276325e-001
3.201390e+003;1.282119e-001
3.203318e+003;1.288547e-001
3.205247e+003;1.295371e-001
3.207175e+003;1.300545e-001
3.209104e+003;1.307020e-001
3.211032e+003;1.314343e-001
3.212961e+003;1.321095e-001
3.214889e+003;1.327700e-001
3.216818e+003;1.334091e-001
3.218747e+003;1.339176e-001
3.220675e+003;1.344647e-001
3.222604e+003;1.348790e-001
3.224532e+003;1.348790e-001
3.226461e+003;1.352477e-001
3.228389e+003;1.360726e-001
3.230318e+003;1.368758e-001
3.232246e+003;1.374003e-001
3.234175e+003;1.375663e-001
3.236104e+003;1.378946e-001
3.238032e+003;1.387014e-001
3.239961e+003;1.395302e-001
3.241889e+003;1.404109e-001
3.243818e+003;1.411931e-001
3.245746e+003;1.414507e-001
3.247675e+003;1.414245e-001
3.249603e+003;1.417655e-001
3.251532e+003;1.423438e-001
3.253460e+003;1.427773e-001
3.255389e+003;1.430374e-001
3.257318e+003;1.435874e-001
3.259246e+003;1.443885e-001
3.261175e+003;1.450430e-001
3.263103e+003;1.452392e-001
3.265032e+003;1.454708e-001
3.266960e+003;1.458392e-001
3.268889e+003;1.465057e-001
3.270817e+003;1.470915e-001
3.272746e+003;1.472898e-001
3.274675e+003;1.473039e-001
3.276603e+003;1.477163e-001
3.278531e+003;1.480828e-001
3.280460e+003;1.481042e-001
3.282389e+003;1.486827e-001
3.284317e+003;1.491551e-001
3.286246e+003;1.492235e-001
3.288174e+003;1.489521e-001
3.290103e+003;1.494174e-001
3.292031e+003;1.504693e-001
3.293960e+003;1.505824e-001
3.295888e+003;1.501787e-001
3.297817e+003;1.506986e-001
3.299746e+003;1.517011e-001
3.301674e+003;1.522546e-001
3.303603e+003;1.519364e-001
3.305531e+003;1.516937e-001
3.307460e+003;1.521914e-001
3.309388e+003;1.530085e-001
3.311317e+003;1.534579e-001
3.313245e+003;1.536521e-001
3.315174e+003;1.534608e-001
3.317103e+003;1.533907e-001
3.319031e+003;1.533482e-001
3.320960e+003;1.533284e-001
3.322888e+003;1.536807e-001
3.324817e+003;1.538561e-001
3.326745e+003;1.537905e-001
3.328674e+003;1.541177e-001
3.330602e+003;1.542582e-001
3.332531e+003;1.538375e-001
3.334459e+003;1.538464e-001
3.336388e+003;1.543149e-001
3.338317e+003;1.545229e-001
3.340245e+003;1.545095e-001
3.342174e+003;1.544191e-001
3.344102e+003;1.541332e-001
3.346031e+003;1.539104e-001
3.347959e+003;1.540458e-001
3.349888e+003;1.542328e-001
3.351816e+003;1.541964e-001
3.353745e+003;1.536809e-001
3.355674e+003;1.533240e-001
3.357602e+003;1.532217e-001
3.359531e+003;1.534548e-001
3.361459e+003;1.532594e-001
3.363388e+003;1.527639e-001
3.365316e+003;1.529366e-001
3.367245e+003;1.530911e-001
3.369173e+003;1.528620e-001
3.371102e+003;1.520005e-001
3.373031e+003;1.514244e-001
3.374959e+003;1.515372e-001
3.376887e+003;1.513930e-001
3.378816e+003;1.513137e-001
3.380745e+003;1.512572e-001
3.382673e+003;1.505692e-001
3.384602e+003;1.500523e-001
3.386530e+003;1.498443e-001
3.388459e+003;1.495015e-001
3.390387e+003;1.490522e-001
3.392316e+003;1.487841e-001
3.394244e+003;1.485692e-001
3.396173e+003;1.480896e-001
3.398102e+003;1.479320e-001
3.400030e+003;1.477135e-001
3.401959e+003;1.473470e-001
3.403887e+003;1.472124e-001
3.405816e+003;1.468493e-001
3.407744e+003;1.461435e-001
3.409673e+003;1.455472e-001
3.411601e+003;1.451431e-001
3.413530e+003;1.446531e-001
3.415458e+003;1.439363e-001
3.417387e+003;1.433737e-001
3.419316e+003;1.431630e-001
3.421244e+003;1.422729e-001
3.423173e+003;1.413950e-001
3.425101e+003;1.408749e-001
3.427030e+003;1.405678e-001
3.428958e+003;1.404682e-001
3.430887e+003;1.397140e-001
3.432815e+003;1.392693e-001
3.434744e+003;1.389511e-001
3.436673e+003;1.377931e-001
3.438601e+003;1.369292e-001
3.440530e+003;1.363271e-001
3.442458e+003;1.355201e-001
3.444387e+003;1.346590e-001
3.446315e+003;1.334773e-001
3.448244e+003;1.324970e-001
3.450172e+003;1.317783e-001
3.452101e+003;1.309597e-001
3.454030e+003;1.301378e-001
3.455958e+003;1.290273e-001
3.457886e+003;1.276292e-001
3.459815e+003;1.262158e-001
3.461744e+003;1.251514e-001
3.463672e+003;1.244021e-001
3.465601e+003;1.235300e-001
3.467529e+003;1.226007e-001
3.469458e+003;1.215924e-001
3.471386e+003;1.205048e-001
3.473315e+003;1.192288e-001
3.475243e+003;1.184432e-001
3.477172e+003;1.178266e-001
3.479101e+003;1.167389e-001
3.481029e+003;1.156313e-001
3.482958e+003;1.141045e-001
3.484886e+003;1.124840e-001
3.486815e+003;1.113564e-001
3.488743e+003;1.106488e-001
3.490672e+003;1.094996e-001
3.492600e+003;1.081235e-001
3.494529e+003;1.068940e-001
3.496458e+003;1.059266e-001
3.498386e+003;1.049107e-001
3.500315e+003;1.033675e-001
3.502243e+003;1.015252e-001
3.504172e+003;1.001625e-001
3.506100e+003;9.929087e-002
3.508029e+003;9.793606e-002
3.509957e+003;9.659970e-002
3.511886e+003;9.581049e-002
3.513814e+003;9.491558e-002
3.515743e+003;9.358913e-002
3.517672e+003;9.227417e-002
3.519600e+003;9.123965e-002
3.521529e+003;8.988315e-002
3.523457e+003;8.838319e-002
3.525386e+003;8.731704e-002
3.527314e+003;8.636090e-002
3.529243e+003;8.528140e-002
3.531171e+003;8.451851e-002
3.533100e+003;8.358260e-002
3.535029e+003;8.237657e-002
3.536957e+003;8.146573e-002
3.538885e+003;8.082052e-002
3.540814e+003;7.986613e-002
3.542743e+003;7.858058e-002
3.544671e+003;7.730219e-002
3.546600e+003;7.636055e-002
3.548528e+003;7.541303e-002
3.550457e+003;7.446761e-002
3.552385e+003;7.364039e-002
3.554314e+003;7.294974e-002
3.556242e+003;7.196958e-002
3.558171e+003;7.093080e-002
3.560100e+003;7.000750e-002
3.562028e+003;6.915359e-002
3.563957e+003;6.783439e-002
3.565885e+003;6.637219e-002
3.567814e+003;6.591345e-002
3.569742e+003;6.578953e-002
3.571671e+003;6.491262e-002
3.573599e+003;6.388573e-002
3.575528e+003;6.295126e-002
3.577457e+003;6.202414e-002
3.579385e+003;6.169114e-002
3.581314e+003;6.106769e-002
3.583242e+003;5.975180e-002
3.585171e+003;5.851950e-002
3.587099e+003;5.767727e-002
3.589028e+003;5.706118e-002
3.590956e+003;5.659835e-002
3.592885e+003;5.611973e-002
3.594813e+003;5.562375e-002
3.596742e+003;5.500823e-002
3.598671e+003;5.428596e-002
3.600599e+003;5.390688e-002
3.602528e+003;5.380369e-002
3.604456e+003;5.328802e-002
3.606385e+003;5.225820e-002
3.608313e+003;5.133668e-002
3.610242e+003;5.091747e-002
3.612170e+003;5.027048e-002
3.614099e+003;4.990555e-002
3.616028e+003;4.920359e-002
3.617956e+003;4.795871e-002
3.619885e+003;4.795301e-002
3.621813e+003;4.847175e-002
3.623742e+003;4.831619e-002
3.625670e+003;4.719353e-002
3.627599e+003;4.493191e-002
3.629527e+003;4.430956e-002
3.631456e+003;4.564743e-002
3.633385e+003;4.590364e-002
3.635313e+003;4.564658e-002
3.637241e+003;4.532104e-002
3.639170e+003;4.501398e-002
3.641099e+003;4.456160e-002
3.643027e+003;4.402821e-002
3.644956e+003;4.359815e-002
3.646884e+003;4.247171e-002
3.648813e+003;4.125958e-002
3.650741e+003;4.136518e-002
3.652670e+003;4.200526e-002
3.654598e+003;4.140491e-002
3.656527e+003;4.106582e-002
3.658456e+003;4.186969e-002
3.660384e+003;4.185382e-002
3.662313e+003;4.114511e-002
3.664241e+003;4.086180e-002
3.666170e+003;4.039944e-002
3.668098e+003;3.867763e-002
3.670027e+003;3.737692e-002
3.671955e+003;3.797086e-002
3.673884e+003;3.696966e-002
3.675813e+003;3.617360e-002
3.677741e+003;3.750922e-002
3.679669e+003;3.793148e-002
3.681598e+003;3.766371e-002
3.683527e+003;3.735023e-002
3.685455e+003;3.681019e-002
3.687384e+003;3.534705e-002
3.689312e+003;3.485217e-002
3.691241e+003;3.549495e-002
3.693169e+003;3.590129e-002
3.695098e+003;3.623176e-002
3.697026e+003;3.591004e-002
3.698955e+003;3.512185e-002
3.700884e+003;3.462705e-002
3.702812e+003;3.481487e-002
3.704741e+003;3.503229e-002
3.706669e+003;3.489594e-002
3.708598e+003;3.427058e-002
3.710526e+003;3.366746e-002
3.712455e+003;3.346650e-002
3.714383e+003;3.401874e-002
3.716312e+003;3.415547e-002
3.718240e+003;3.384447e-002
3.720169e+003;3.363642e-002
3.722098e+003;3.368174e-002
3.724026e+003;3.359496e-002
3.725955e+003;3.312242e-002
3.727883e+003;3.316498e-002
3.729812e+003;3.288561e-002
3.731740e+003;3.210082e-002
3.733669e+003;3.158621e-002
3.735597e+003;3.105004e-002
3.737526e+003;3.175921e-002
3.739455e+003;3.272663e-002
3.741383e+003;3.214484e-002
3.743312e+003;2.968700e-002
3.745240e+003;2.999960e-002
3.747169e+003;3.108474e-002
3.749097e+003;2.994873e-002
3.751026e+003;2.976491e-002
3.752954e+003;3.110172e-002
3.754883e+003;3.216397e-002
3.756812e+003;3.195871e-002
3.758740e+003;3.207592e-002
3.760668e+003;3.241970e-002
3.762597e+003;3.233477e-002
3.764526e+003;3.193503e-002
3.766454e+003;3.213300e-002
3.768383e+003;3.179190e-002
3.770311e+003;3.177368e-002
3.772240e+003;3.231007e-002
3.774168e+003;3.285981e-002
3.776097e+003;3.266165e-002
3.778025e+003;3.188521e-002
3.779954e+003;3.182894e-002
3.781883e+003;3.230564e-002
3.783811e+003;3.233159e-002
3.785740e+003;3.250396e-002
3.787668e+003;3.246354e-002
3.789597e+003;3.242002e-002
3.791525e+003;3.237668e-002
3.793454e+003;3.214538e-002
3.795382e+003;3.156351e-002
3.797311e+003;3.159117e-002
3.799240e+003;3.115309e-002
3.801168e+003;3.045318e-002
3.803097e+003;3.124903e-002
3.805025e+003;3.151684e-002
3.806954e+003;3.090561e-002
3.808882e+003;3.186538e-002
3.810811e+003;3.270055e-002
3.812739e+003;3.270230e-002
3.814668e+003;3.151826e-002
3.816596e+003;3.112333e-002
3.818525e+003;3.114412e-002
3.820454e+003;3.013603e-002
3.822382e+003;3.107040e-002
3.824311e+003;3.213678e-002
3.826239e+003;3.199498e-002
3.828168e+003;3.201788e-002
3.830096e+003;3.155692e-002
3.832025e+003;3.132296e-002
3.833953e+003;3.180499e-002
3.835882e+003;3.100132e-002
3.837811e+003;3.010027e-002
3.839739e+003;3.122269e-002
3.841667e+003;3.169355e-002
3.843596e+003;3.188542e-002
3.845525e+003;3.255831e-002
3.847453e+003;3.278698e-002
3.849382e+003;3.162256e-002
3.851310e+003;2.909711e-002
3.853239e+003;2.804325e-002
3.855167e+003;3.021768e-002
3.857096e+003;3.225065e-002
3.859024e+003;3.274507e-002
3.860953e+003;3.249250e-002
3.862882e+003;3.185822e-002
3.864810e+003;3.156761e-002
3.866739e+003;3.182944e-002
3.868667e+003;3.125576e-002
3.870596e+003;3.157983e-002
3.872524e+003;3.226117e-002
3.874453e+003;3.224950e-002
3.876381e+003;3.292139e-002
3.878310e+003;3.268040e-002
3.880239e+003;3.226738e-002
3.882167e+003;3.296753e-002
3.884096e+003;3.284040e-002
3.886024e+003;3.276075e-002
3.887953e+003;3.333803e-002
3.889881e+003;3.286878e-002
3.891810e+003;3.266461e-002
3.893738e+003;3.366012e-002
3.895667e+003;3.409679e-002
3.897595e+003;3.354230e-002
3.899524e+003;3.304551e-002
3.901453e+003;3.272059e-002
3.903381e+003;3.316691e-002
3.905310e+003;3.424225e-002
3.907238e+003;3.461130e-002
3.909167e+003;3.470866e-002
3.911095e+003;3.492355e-002
3.913024e+003;3.453434e-002
3.914952e+003;3.455367e-002
3.916881e+003;3.473051e-002
3.918810e+003;3.456243e-002
3.920738e+003;3.443393e-002
3.922667e+003;3.487967e-002
3.924595e+003;3.510845e-002
3.926524e+003;3.497835e-002
3.928452e+003;3.511498e-002
3.930381e+003;3.516288e-002
3.932309e+003;3.495630e-002
3.934238e+003;3.511337e-002
3.936167e+003;3.523107e-002
3.938095e+003;3.534788e-002
3.940023e+003;3.530647e-002
3.941952e+003;3.500374e-002
3.943881e+003;3.516942e-002
3.945809e+003;3.549480e-002
3.947738e+003;3.552763e-002
3.949666e+003;3.570750e-002
3.951595e+003;3.615855e-002
3.953523e+003;3.601842e-002
3.955452e+003;3.584217e-002
3.957380e+003;3.642569e-002
3.959309e+003;3.646417e-002
3.961238e+003;3.589244e-002
3.963166e+003;3.574426e-002
3.965095e+003;3.607663e-002
3.967023e+003;3.621887e-002
3.968952e+003;3.616150e-002
3.970880e+003;3.604308e-002
3.972809e+003;3.604866e-002
3.974737e+003;3.582928e-002
3.976666e+003;3.587693e-002
3.978594e+003;3.611030e-002
3.980523e+003;3.606328e-002
3.982452e+003;3.603807e-002
3.984380e+003;3.583850e-002
3.986309e+003;3.565843e-002
3.988237e+003;3.618675e-002
3.990166e+003;3.665091e-002
3.992094e+003;3.624657e-002
3.994023e+003;3.571602e-002
3.995951e+003;3.552677e-002
3.997880e+003;3.561070e-002
3.999809e+003;3.590180e-002
4.001737e+003;0.000000e+000
