3.992094e+002;0.000000e+000
4.011380e+002;0.000000e+000
4.030665e+002;0.000000e+000
4.049951e+002;0.000000e+000
4.069236e+002;0.000000e+000
4.088522e+002;0.000000e+000
4.107807e+002;0.000000e+000
4.127093e+002;0.000000e+000
4.146378e+002;0.000000e+000
4.165664e+002;0.000000e+000
4.184949e+002;0.000000e+000
4.204235e+002;0.000000e+000
4.223520e+002;0.000000e+000
4.242806e+002;0.000000e+000
4.262091e+002;0.000000e+000
4.281377e+002;0.000000e+000
4.300662e+002;0.000000e+000
4.319948e+002;0.000000e+000
4.339233e+002;0.000000e+000
4.358519e+002;0.000000e+000
4.377804e+002;0.000000e+000
4.397090e+002;0.000000e+000
4.416375e+002;0.000000e+000
4.435660e+002;0.000000e+000
4.454946e+002;0.000000e+000
4.474232e+002;0.000000e+000
4.493517e+002;0.000000e+000
4.512802e+002;0.000000e+000
4.532088e+002;0.000000e+000
4.551373e+002;0.000000e+000
4.570659e+002;0.000000e+000
4.589944e+002;0.000000e+000
4.609230e+002;0.000000e+000
4.628515e+002;0.000000e+000
4.647801e+002;0.000000e+000
4.667086e+002;0.000000e+000
4.686372e+002;0.000000e+000
4.705657e+002;0.000000e+000
4.724943e+002;0.000000e+000
4.744228e+002;0.000000e+000
4.763513e+002;0.000000e+000
4.782799e+002;0.000000e+000
4.802085e+002;0.000000e+000
4.821370e+002;0.000000e+000
4.840656e+002;0.000000e+000
4.859941e+002;0.000000e+000
4.879226e+002;0.000000e+000
4.898512e+002;0.000000e+000
4.917798e+002;0.000000e+000
4.937083e+002;0.000000e+000
4.956368e+002;0.000000e+000
4.975654e+002;0.000000e+000
4.994939e+002;0.000000e+000
5.014225e+002;0.000000e+000
5.033510e+002;0.000000e+000
5.052796e+002;0.000000e+000
5.072081e+002;0.000000e+000
5.091367e+002;0.000000e+000
5.110652e+002;0.000000e+000
5.129938e+002;0.000000e+000
5.149223e+002;0.000000e+000
5.168509e+002;0.000000e+000
5.187794e+002;0.000000e+000
5.207079e+002;0.000000e+000
5.226365e+002;0.000000e+000
5.245651e+002;0.000000e+000
5.264936e+002;0.000000e+000
5.284222e+002;0.000000e+000
5.303507e+002;0.000000e+000
5.322792e+002;0.000000e+000
5.342078e+002;0.000000e+000
5.361364e+002;0.000000e+000
5.380649e+002;0.000000e+000
5.399935e+002;0.000000e+000
5.419220e+002;0.000000e+000
5.438505e+002;0.000000e+000
5.457791e+002;0.000000e+000
5.477076e+002;0.000000e+000
5.496362e+002;0.000000e+000
5.515648e+002;0.000000e+000
5.534933e+002;0.000000e+000
5.554218e+002;0.000000e+000
5.573504e+002;0.000000e+000
5.592789e+002;0.000000e+000
5.612075e+002;0.000000e+000
5.631360e+002;0.000000e+000
5.650646e+002;0.000000e+000
5.669931e+002;0.000000e+000
5.689217e+002;0.000000e+000
5.708502e+002;0.000000e+000
5.727787e+002;0.000000e+000
5.747073e+002;0.000000e+000
5.766359e+002;0.000000e+000
5.785644e+002;0.000000e+000
5.804930e+002;0.000000e+000
5.824215e+002;0.000000e+000
5.843500e+002;0.000000e+000
5.862786e+002;0.000000e+000
5.882072e+002;0.000000e+000
5.901357e+002;0.000000e+000
5.920643e+002;0.000000e+000
5.939928e+002;0.000000e+000
5.959213e+002;0.000000e+000
5.978499e+002;0.000000e+000
5.997784e+002;2.073583e-001
6.017070e+002;2.040123e-001
6.036355e+002;2.037094e-001
6.055641e+002;2.029065e-001
6.074926e+002;2.074497e-001
6.094211e+002;2.098474e-001
6.113497e+002;2.044847e-001
6.132783e+002;2.005597e-001
6.152068e+002;2.008295e-001
6.171354e+002;1.968737e-001
6.190639e+002;1.923600e-001
6.209924e+002;1.910160e-001
6.229210e+002;1.933261e-001
6.248495e+002;1.935416e-001
6.267781e+002;1.925132e-001
6.287067e+002;1.932693e-001
6.306352e+002;1.928629e-001
6.325637e+002;1.887317e-001
6.344923e+002;1.836549e-001
6.364208e+002;1.778961e-001
6.383494e+002;1.760504e-001
6.402780e+002;1.799814e-001
6.422065e+002;1.843288e-001
6.441350e+002;1.839795e-001
6.460636e+002;1.795803e-001
6.479921e+002;1.769688e-001
6.499207e+002;1.798424e-001
6.518492e+002;1.842032e-001
6.537778e+002;1.840383e-001
6.557063e+002;1.833764e-001
6.576349e+002;1.841681e-001
6.595634e+002;1.882344e-001
6.614919e+002;1.897154e-001
6.634205e+002;1.869199e-001
6.653491e+002;1.831472e-001
6.672776e+002;1.820554e-001
6.692062e+002;1.814844e-001
6.711347e+002;1.769926e-001
6.730632e+002;1.716325e-001
6.749918e+002;1.696626e-001
6.769203e+002;1.673419e-001
6.788489e+002;1.628042e-001
6.807775e+002;1.586790e-001
6.827060e+002;1.576817e-001
6.846345e+002;1.581286e-001
6.865631e+002;1.554970e-001
6.884916e+002;1.525534e-001
6.904202e+002;1.520794e-001
6.923488e+002;1.523861e-001
6.942773e+002;1.519877e-001
6.962058e+002;1.504564e-001
6.981344e+002;1.500974e-001
7.000629e+002;1.510594e-001
7.019915e+002;1.501932e-001
7.039200e+002;1.484211e-001
7.058486e+002;1.475275e-001
7.077771e+002;1.471438e-001
7.097057e+002;1.463345e-001
7.116342e+002;1.458778e-001
7.135627e+002;1.453405e-001
7.154913e+002;1.442128e-001
7.174199e+002;1.427494e-001
7.193484e+002;1.417695e-001
7.212770e+002;1.410156e-001
7.232055e+002;1.397794e-001
7.251340e+002;1.384070e-001
7.270626e+002;1.376161e-001
7.289911e+002;1.367220e-001
7.309197e+002;1.360555e-001
7.328483e+002;1.355431e-001
7.347768e+002;1.345332e-001
7.367053e+002;1.330611e-001
7.386339e+002;1.319888e-001
7.405624e+002;1.308398e-001
7.424910e+002;1.298922e-001
7.444196e+002;1.297823e-001
7.463481e+002;1.293210e-001
7.482766e+002;1.277460e-001
7.502052e+002;1.267737e-001
7.521337e+002;1.258032e-001
7.540623e+002;1.241872e-001
7.559908e+002;1.231424e-001
7.579194e+002;1.227667e-001
7.598479e+002;1.219731e-001
7.617765e+002;1.205176e-001
7.637050e+002;1.191884e-001
7.656335e+002;1.173917e-001
7.675621e+002;1.165361e-001
7.694907e+002;1.160169e-001
7.714192e+002;1.152290e-001
7.733478e+002;1.146736e-001
7.752763e+002;1.133362e-001
7.772048e+002;1.125258e-001
7.791334e+002;1.120615e-001
7.810620e+002;1.114530e-001
7.829905e+002;1.110704e-001
7.849191e+002;1.107449e-001
7.868476e+002;1.095718e-001
7.887761e+002;1.077171e-001
7.907047e+002;1.061235e-001
7.926332e+002;1.055684e-001
7.945618e+002;1.052024e-001
7.964903e+002;1.044921e-001
7.984189e+002;1.035634e-001
8.003474e+002;1.029736e-001
8.022759e+002;1.027272e-001
8.042045e+002;1.022074e-001
8.061331e+002;1.017103e-001
8.080616e+002;1.006424e-001
8.099902e+002;1.002752e-001
8.119187e+002;1.002720e-001
8.138472e+002;9.958486e-002
8.157758e+002;9.877885e-002
8.177043e+002;9.851397e-002
8.196329e+002;9.897203e-002
8.215615e+002;9.904998e-002
8.234900e+002;9.916712e-002
8.254185e+002;9.916454e-002
8.273471e+002;9.868793e-002
8.292756e+002;9.843885e-002
8.312042e+002;9.836371e-002
8.331328e+002;9.795022e-002
8.350613e+002;9.739835e-002
8.369898e+002;9.627323e-002
8.389184e+002;9.501887e-002
8.408469e+002;9.446083e-002
8.427755e+002;9.440631e-002
8.447040e+002;9.421128e-002
8.466326e+002;9.340610e-002
8.485611e+002;9.237081e-002
8.504897e+002;9.170777e-002
8.524182e+002;9.105070e-002
8.543467e+002;9.065031e-002
8.562753e+002;9.079902e-002
8.582039e+002;9.094100e-002
8.601324e+002;9.082989e-002
8.620610e+002;9.094406e-002
8.639895e+002;9.094708e-002
8.659180e+002;9.119374e-002
8.678466e+002;9.229277e-002
8.697751e+002;9.347923e-002
8.717037e+002;9.446371e-002
8.736323e+002;9.650920e-002
8.755608e+002;9.931340e-002
8.774893e+002;1.022528e-001
8.794179e+002;1.060434e-001
8.813464e+002;1.099201e-001
8.832750e+002;1.133138e-001
8.852036e+002;1.172326e-001
8.871321e+002;1.216288e-001
8.890606e+002;1.259695e-001
8.909892e+002;1.295345e-001
8.929177e+002;1.319489e-001
8.948463e+002;1.335993e-001
8.967748e+002;1.343686e-001
8.987034e+002;1.339688e-001
9.006319e+002;1.329793e-001
9.025605e+002;1.314431e-001
9.044890e+002;1.288258e-001
9.064175e+002;1.258546e-001
9.083461e+002;1.232507e-001
9.102747e+002;1.203357e-001
9.122032e+002;1.180107e-001
9.141318e+002;1.163424e-001
9.160603e+002;1.145773e-001
9.179888e+002;1.131025e-001
9.199174e+002;1.123405e-001
9.218459e+002;1.126975e-001
9.237745e+002;1.135713e-001
9.257031e+002;1.142135e-001
9.276316e+002;1.147322e-001
9.295601e+002;1.157636e-001
9.314887e+002;1.168285e-001
9.334172e+002;1.178660e-001
9.353458e+002;1.186425e-001
9.372744e+002;1.196346e-001
9.392029e+002;1.209166e-001
9.411314e+002;1.227819e-001
9.430600e+002;1.251541e-001
9.449885e+002;1.271160e-001
9.469171e+002;1.295247e-001
9.488456e+002;1.327069e-001
9.507742e+002;1.362443e-001
9.527027e+002;1.403980e-001
9.546313e+002;1.444069e-001
9.565598e+002;1.481882e-001
9.584883e+002;1.521393e-001
9.604169e+002;1.565801e-001
9.623455e+002;1.615205e-001
9.642740e+002;1.662195e-001
9.662026e+002;1.708191e-001
9.681311e+002;1.756140e-001
9.700596e+002;1.807356e-001
9.719882e+002;1.863556e-001
9.739167e+002;1.929436e-001
9.758453e+002;2.001467e-001
9.777739e+002;2.077980e-001
9.797024e+002;2.163953e-001
9.816309e+002;2.261362e-001
9.835595e+002;2.360321e-001
9.854880e+002;2.450037e-001
9.874166e+002;2.535193e-001
9.893452e+002;2.614634e-001
9.912737e+002;2.678728e-001
9.932022e+002;2.724598e-001
9.951307e+002;2.756428e-001
9.970593e+002;2.775228e-001
9.989879e+002;2.784174e-001
1.000916e+003;2.790154e-001
1.002845e+003;2.801133e-001
1.004773e+003;2.821332e-001
1.006702e+003;2.846796e-001
1.008631e+003;2.875300e-001
1.010559e+003;2.904724e-001
1.012488e+003;2.940660e-001
1.014416e+003;2.980344e-001
1.016345e+003;3.013279e-001
1.018273e+003;3.039639e-001
1.020202e+003;3.050629e-001
1.022130e+003;3.044246e-001
1.024059e+003;3.034411e-001
1.025988e+003;3.028172e-001
1.027916e+003;3.012528e-001
1.029845e+003;2.990696e-001
1.031773e+003;2.966371e-001
1.033702e+003;2.942064e-001
1.035630e+003;2.916422e-001
1.037559e+003;2.892511e-001
1.039487e+003;2.880063e-001
1.041416e+003;2.869741e-001
1.043344e+003;2.853194e-001
1.045273e+003;2.833596e-001
1.047202e+003;2.812130e-001
1.049130e+003;2.795155e-001
1.051059e+003;2.775382e-001
1.052987e+003;2.755716e-001
1.054916e+003;2.731288e-001
1.056844e+003;2.702021e-001
1.058773e+003;2.671899e-001
1.060701e+003;2.649767e-001
1.062630e+003;2.625393e-001
1.064558e+003;2.592150e-001
1.066487e+003;2.553378e-001
1.068416e+003;2.513071e-001
1.070344e+003;2.477317e-001
1.072273e+003;2.440568e-001
1.074201e+003;2.400914e-001
1.076130e+003;2.354557e-001
1.078058e+003;2.312355e-001
1.079987e+003;2.276114e-001
1.081915e+003;2.233994e-001
1.083844e+003;2.200312e-001
1.085773e+003;2.169870e-001
1.087701e+003;2.136516e-001
1.089630e+003;2.103214e-001
1.091558e+003;2.068347e-001
1.093487e+003;2.038289e-001
1.095415e+003;2.005843e-001
1.097344e+003;1.970510e-001
1.099272e+003;1.939301e-001
1.101201e+003;1.908709e-001
1.103129e+003;1.874540e-001
1.105058e+003;1.837239e-001
1.106987e+003;1.806492e-001
1.108915e+003;1.779798e-001
1.110844e+003;1.751474e-001
1.112772e+003;1.726719e-001
1.114701e+003;1.700653e-001
1.116629e+003;1.670871e-001
1.118558e+003;1.645030e-001
1.120486e+003;1.614526e-001
1.122415e+003;1.578706e-001
1.124344e+003;1.540891e-001
1.126272e+003;1.502688e-001
1.128201e+003;1.465108e-001
1.130129e+003;1.431615e-001
1.132058e+003;1.401807e-001
1.133986e+003;1.371855e-001
1.135915e+003;1.338714e-001
1.137843e+003;1.312104e-001
1.139772e+003;1.289611e-001
1.141700e+003;1.268556e-001
1.143629e+003;1.258664e-001
1.145557e+003;1.252518e-001
1.147486e+003;1.245993e-001
1.149415e+003;1.247107e-001
1.151343e+003;1.252306e-001
1.153272e+003;1.256790e-001
1.155200e+003;1.261052e-001
1.157129e+003;1.259751e-001
1.159057e+003;1.248544e-001
1.160986e+003;1.232346e-001
1.162914e+003;1.201762e-001
1.164843e+003;1.162945e-001
1.166771e+003;1.127048e-001
1.168700e+003;1.086453e-001
1.170629e+003;1.042843e-001
1.172557e+003;1.001254e-001
1.174486e+003;9.639297e-002
1.176414e+003;9.315875e-002
1.178343e+003;9.034190e-002
1.180271e+003;8.725040e-002
1.182200e+003;8.461589e-002
1.184128e+003;8.309791e-002
1.186057e+003;8.263837e-002
1.187986e+003;8.294026e-002
1.189914e+003;8.378384e-002
1.191843e+003;8.533677e-002
1.193771e+003;8.710347e-002
1.195700e+003;8.844407e-002
1.197628e+003;8.950610e-002
1.199557e+003;9.039661e-002
1.201485e+003;9.064855e-002
1.203414e+003;9.005724e-002
1.205343e+003;8.885365e-002
1.207271e+003;8.769633e-002
1.209200e+003;8.650241e-002
1.211128e+003;8.559063e-002
1.213057e+003;8.504368e-002
1.214985e+003;8.475619e-002
1.216914e+003;8.538266e-002
1.218842e+003;8.651782e-002
1.220771e+003;8.767606e-002
1.222699e+003;8.896503e-002
1.224628e+003;9.023972e-002
1.226557e+003;9.153973e-002
1.228485e+003;9.265022e-002
1.230414e+003;9.347743e-002
1.232342e+003;9.369966e-002
1.234271e+003;9.371463e-002
1.236199e+003;9.419300e-002
1.238128e+003;9.438514e-002
1.240056e+003;9.437517e-002
1.241985e+003;9.441227e-002
1.243913e+003;9.434878e-002
1.245842e+003;9.443785e-002
1.247771e+003;9.451549e-002
1.249699e+003;9.472651e-002
1.251628e+003;9.553560e-002
1.253556e+003;9.666236e-002
1.255485e+003;9.749340e-002
1.257413e+003;9.783038e-002
1.259342e+003;9.815992e-002
1.261270e+003;9.825867e-002
1.263199e+003;9.772127e-002
1.265127e+003;9.723012e-002
1.267056e+003;9.684221e-002
1.268985e+003;9.614442e-002
1.270913e+003;9.534889e-002
1.272842e+003;9.449951e-002
1.274770e+003;9.372392e-002
1.276699e+003;9.311712e-002
1.278627e+003;9.252466e-002
1.280556e+003;9.178877e-002
1.282484e+003;9.110632e-002
1.284413e+003;9.085432e-002
1.286342e+003;9.104890e-002
1.288270e+003;9.155593e-002
1.290199e+003;9.216313e-002
1.292127e+003;9.302130e-002
1.294056e+003;9.393559e-002
1.295984e+003;9.517956e-002
1.297913e+003;9.651458e-002
1.299841e+003;9.745960e-002
1.301770e+003;9.829141e-002
1.303698e+003;9.928562e-002
1.305627e+003;1.004809e-001
1.307556e+003;1.016914e-001
1.309484e+003;1.026831e-001
1.311413e+003;1.034929e-001
1.313341e+003;1.041381e-001
1.315270e+003;1.047224e-001
1.317198e+003;1.050496e-001
1.319127e+003;1.052245e-001
1.321055e+003;1.052790e-001
1.322984e+003;1.051731e-001
1.324912e+003;1.051614e-001
1.326841e+003;1.053025e-001
1.328770e+003;1.056601e-001
1.330698e+003;1.058287e-001
1.332627e+003;1.056086e-001
1.334555e+003;1.056194e-001
1.336484e+003;1.058558e-001
1.338412e+003;1.058009e-001
1.340341e+003;1.055096e-001
1.342269e+003;1.056432e-001
1.344198e+003;1.057973e-001
1.346126e+003;1.056672e-001
1.348055e+003;1.056184e-001
1.349984e+003;1.055517e-001
1.351912e+003;1.057341e-001
1.353841e+003;1.063079e-001
1.355769e+003;1.068759e-001
1.357698e+003;1.073464e-001
1.359626e+003;1.074571e-001
1.361555e+003;1.078346e-001
1.363483e+003;1.082075e-001
1.365412e+003;1.081805e-001
1.367341e+003;1.080813e-001
1.369269e+003;1.076653e-001
1.371198e+003;1.069186e-001
1.373126e+003;1.059896e-001
1.375055e+003;1.050209e-001
1.376983e+003;1.040425e-001
1.378912e+003;1.028351e-001
1.380840e+003;1.015297e-001
1.382769e+003;1.003032e-001
1.384698e+003;9.905822e-002
1.386626e+003;9.781273e-002
1.388555e+003;9.678843e-002
1.390483e+003;9.589783e-002
1.392412e+003;9.523035e-002
1.394340e+003;9.481009e-002
1.396269e+003;9.453831e-002
1.398197e+003;9.446042e-002
1.400126e+003;9.412999e-002
1.402054e+003;9.376311e-002
1.403983e+003;9.388591e-002
1.405911e+003;9.415724e-002
1.407840e+003;9.415288e-002
1.409769e+003;9.408440e-002
1.411697e+003;9.415004e-002
1.413626e+003;9.431724e-002
1.415554e+003;9.417596e-002
1.417483e+003;9.377470e-002
1.419411e+003;9.345996e-002
1.421340e+003;9.308977e-002
1.423268e+003;9.286518e-002
1.425197e+003;9.279568e-002
1.427125e+003;9.228359e-002
1.429054e+003;9.154734e-002
1.430983e+003;9.118716e-002
1.432911e+003;9.081609e-002
1.434840e+003;9.000930e-002
1.436768e+003;8.906825e-002
1.438697e+003;8.840463e-002
1.440625e+003;8.779711e-002
1.442554e+003;8.691218e-002
1.444482e+003;8.606070e-002
1.446411e+003;8.529931e-002
1.448340e+003;8.423647e-002
1.450268e+003;8.323286e-002
1.452197e+003;8.240309e-002
1.454125e+003;8.145449e-002
1.456054e+003;8.004765e-002
1.457982e+003;7.858182e-002
1.459911e+003;7.761478e-002
1.461839e+003;7.665811e-002
1.463768e+003;7.528313e-002
1.465697e+003;7.360961e-002
1.467625e+003;7.208085e-002
1.469554e+003;7.060926e-002
1.471482e+003;6.886256e-002
1.473411e+003;6.701185e-002
1.475339e+003;6.511213e-002
1.477268e+003;6.295153e-002
1.479196e+003;6.095250e-002
1.481125e+003;5.896426e-002
1.483053e+003;5.696363e-002
1.484982e+003;5.521211e-002
1.486911e+003;5.344931e-002
1.488839e+003;5.163635e-002
1.490768e+003;4.980172e-002
1.492696e+003;4.841289e-002
1.494625e+003;4.707206e-002
1.496553e+003;4.555115e-002
1.498482e+003;4.441521e-002
1.500410e+003;4.347870e-002
1.502339e+003;4.238275e-002
1.504267e+003;4.132349e-002
1.506196e+003;4.043213e-002
1.508125e+003;3.967788e-002
1.510053e+003;3.911974e-002
1.511982e+003;3.852043e-002
1.513910e+003;3.792780e-002
1.515839e+003;3.715875e-002
1.517767e+003;3.655290e-002
1.519696e+003;3.612074e-002
1.521624e+003;3.577125e-002
1.523553e+003;3.559243e-002
1.525481e+003;3.539813e-002
1.527410e+003;3.512188e-002
1.529339e+003;3.484912e-002
1.531267e+003;3.459824e-002
1.533196e+003;3.429335e-002
1.535124e+003;3.422039e-002
1.537053e+003;3.384258e-002
1.538981e+003;3.317549e-002
1.540910e+003;3.333764e-002
1.542838e+003;3.362424e-002
1.544767e+003;3.378559e-002
1.546695e+003;3.397259e-002
1.548624e+003;3.407865e-002
1.550553e+003;3.391985e-002
1.552481e+003;3.392952e-002
1.554410e+003;3.408041e-002
1.556338e+003;3.396478e-002
1.558267e+003;3.385633e-002
1.560195e+003;3.398545e-002
1.562124e+003;3.427456e-002
1.564052e+003;3.438307e-002
1.565981e+003;3.468680e-002
1.567910e+003;3.510184e-002
1.569838e+003;3.525903e-002
1.571767e+003;3.541161e-002
1.573695e+003;3.565512e-002
1.575624e+003;3.588895e-002
1.577552e+003;3.615048e-002
1.579481e+003;3.649787e-002
1.581409e+003;3.693170e-002
1.583338e+003;3.751174e-002
1.585266e+003;3.817866e-002
1.587195e+003;3.853828e-002
1.589124e+003;3.899913e-002
1.591052e+003;3.964485e-002
1.592981e+003;3.998879e-002
1.594909e+003;4.056264e-002
1.596838e+003;4.145295e-002
1.598766e+003;4.221668e-002
1.600695e+003;4.278229e-002
1.602623e+003;4.313568e-002
1.604552e+003;4.381664e-002
1.606480e+003;4.471366e-002
1.608409e+003;4.541999e-002
1.610338e+003;4.588143e-002
1.612266e+003;4.639564e-002
1.614195e+003;4.702857e-002
1.616123e+003;4.751967e-002
1.618052e+003;4.812873e-002
1.619980e+003;4.897614e-002
1.621909e+003;4.968527e-002
1.623837e+003;5.017783e-002
1.625766e+003;5.075261e-002
1.627694e+003;5.136387e-002
1.629623e+003;5.171342e-002
1.631552e+003;5.203307e-002
1.633480e+003;5.233617e-002
1.635409e+003;5.243033e-002
1.637337e+003;5.253076e-002
1.639266e+003;5.293174e-002
1.641194e+003;5.326562e-002
1.643123e+003;5.309754e-002
1.645051e+003;5.271384e-002
1.646980e+003;5.243949e-002
1.648909e+003;5.223384e-002
1.650837e+003;5.174567e-002
1.652766e+003;5.109752e-002
1.654694e+003;5.070505e-002
1.656623e+003;5.038682e-002
1.658551e+003;4.981313e-002
1.660480e+003;4.886481e-002
1.662408e+003;4.807865e-002
1.664337e+003;4.749416e-002
1.666266e+003;4.686588e-002
1.668194e+003;4.594028e-002
1.670123e+003;4.479950e-002
1.672051e+003;4.392295e-002
1.673980e+003;4.305943e-002
1.675908e+003;4.204607e-002
1.677837e+003;4.117993e-002
1.679765e+003;4.022831e-002
1.681694e+003;3.918331e-002
1.683622e+003;3.829061e-002
1.685551e+003;3.754787e-002
1.687479e+003;3.695869e-002
1.689408e+003;3.640479e-002
1.691337e+003;3.597040e-002
1.693265e+003;3.551487e-002
1.695194e+003;3.487816e-002
1.697122e+003;3.461581e-002
1.699051e+003;3.452701e-002
1.700979e+003;3.417712e-002
1.702908e+003;3.389427e-002
1.704836e+003;3.378298e-002
1.706765e+003;3.368998e-002
1.708693e+003;3.347562e-002
1.710622e+003;3.335828e-002
1.712551e+003;3.309757e-002
1.714479e+003;3.261157e-002
1.716408e+003;3.216251e-002
1.718336e+003;3.181575e-002
1.720265e+003;3.158375e-002
1.722193e+003;3.118100e-002
1.724122e+003;3.041974e-002
1.726050e+003;2.985328e-002
1.727979e+003;2.931527e-002
1.729908e+003;2.859274e-002
1.731836e+003;2.791380e-002
1.733765e+003;2.710841e-002
1.735693e+003;2.619294e-002
1.737622e+003;2.531475e-002
1.739550e+003;2.443764e-002
1.741479e+003;2.368149e-002
1.743407e+003;2.275075e-002
1.745336e+003;2.186329e-002
1.747265e+003;2.121681e-002
1.749193e+003;2.081965e-002
1.751122e+003;2.041279e-002
1.753050e+003;2.012228e-002
1.754979e+003;1.992919e-002
1.756907e+003;1.964545e-002
1.758836e+003;1.957092e-002
1.760764e+003;1.933133e-002
1.762693e+003;1.899184e-002
1.764621e+003;1.898789e-002
1.766550e+003;1.898654e-002
1.768479e+003;1.898941e-002
1.770407e+003;1.899852e-002
1.772336e+003;1.875413e-002
1.774264e+003;1.847202e-002
1.776193e+003;1.836119e-002
1.778121e+003;1.846109e-002
1.780050e+003;1.838801e-002
1.781978e+003;1.818840e-002
1.783907e+003;1.808313e-002
1.785835e+003;1.802196e-002
1.787764e+003;1.787182e-002
1.789693e+003;1.763562e-002
1.791621e+003;1.729996e-002
1.793550e+003;1.705549e-002
1.795478e+003;1.699395e-002
1.797407e+003;1.704981e-002
1.799335e+003;1.708355e-002
1.801264e+003;1.690920e-002
1.803192e+003;1.682294e-002
1.805121e+003;1.691826e-002
1.807049e+003;1.686452e-002
1.808978e+003;1.654443e-002
1.810907e+003;1.623733e-002
1.812835e+003;1.618443e-002
1.814764e+003;1.624177e-002
1.816692e+003;1.614279e-002
1.818621e+003;1.603767e-002
1.820549e+003;1.607532e-002
1.822478e+003;1.603846e-002
1.824406e+003;1.589203e-002
1.826335e+003;1.593757e-002
1.828264e+003;1.586560e-002
1.830192e+003;1.563217e-002
1.832121e+003;1.549525e-002
1.834049e+003;1.534364e-002
1.835978e+003;1.520258e-002
1.837906e+003;1.535205e-002
1.839835e+003;1.543622e-002
1.841763e+003;1.538874e-002
1.843692e+003;1.525684e-002
1.845620e+003;1.501643e-002
1.847549e+003;1.482481e-002
1.849478e+003;1.474833e-002
1.851406e+003;1.463923e-002
1.853335e+003;1.441297e-002
1.855263e+003;1.434834e-002
1.857192e+003;1.457327e-002
1.859120e+003;1.465160e-002
1.861049e+003;1.452184e-002
1.862977e+003;1.445336e-002
1.864906e+003;1.449230e-002
1.866834e+003;1.439379e-002
1.868763e+003;1.435088e-002
1.870692e+003;1.435331e-002
1.872620e+003;1.436639e-002
1.874549e+003;1.420162e-002
1.876477e+003;1.393227e-002
1.878406e+003;1.388584e-002
1.880334e+003;1.414411e-002
1.882263e+003;1.419590e-002
1.884191e+003;1.387288e-002
1.886120e+003;1.385242e-002
1.888048e+003;1.399745e-002
1.889977e+003;1.406874e-002
1.891906e+003;1.400234e-002
1.893834e+003;1.395461e-002
1.895763e+003;1.387609e-002
1.897691e+003;1.379311e-002
1.899620e+003;1.367752e-002
1.901548e+003;1.364312e-002
1.903477e+003;1.376280e-002
1.905405e+003;1.384743e-002
1.907334e+003;1.389884e-002
1.909262e+003;1.380409e-002
1.911191e+003;1.372536e-002
1.913120e+003;1.393983e-002
1.915048e+003;1.422832e-002
1.916977e+003;1.439139e-002
1.918905e+003;1.455281e-002
1.920834e+003;1.471206e-002
1.922762e+003;1.467268e-002
1.924691e+003;1.457933e-002
1.926619e+003;1.471586e-002
1.928548e+003;1.472683e-002
1.930477e+003;1.466466e-002
1.932405e+003;1.468752e-002
1.934334e+003;1.483410e-002
1.936262e+003;1.487336e-002
1.938191e+003;1.478514e-002
1.940119e+003;1.499424e-002
1.942048e+003;1.512559e-002
1.943976e+003;1.503718e-002
1.945905e+003;1.505818e-002
1.947833e+003;1.531168e-002
1.949762e+003;1.550345e-002
1.951691e+003;1.563939e-002
1.953619e+003;1.572994e-002
1.955548e+003;1.578141e-002
1.957476e+003;1.574519e-002
1.959405e+003;1.573093e-002
1.961333e+003;1.580089e-002
1.963262e+003;1.591536e-002
1.965190e+003;1.611758e-002
1.967119e+003;1.618285e-002
1.969047e+003;1.601869e-002
1.970976e+003;1.600952e-002
1.972905e+003;1.634724e-002
1.974833e+003;1.660174e-002
1.976762e+003;1.658611e-002
1.978690e+003;1.662370e-002
1.980619e+003;1.663004e-002
1.982547e+003;1.669453e-002
1.984476e+003;1.679866e-002
1.986404e+003;1.664457e-002
1.988333e+003;1.659613e-002
1.990261e+003;1.675710e-002
1.992190e+003;1.700491e-002
1.994119e+003;1.714421e-002
1.996047e+003;1.701500e-002
1.997976e+003;1.699802e-002
1.999904e+003;1.714945e-002
2.001833e+003;1.690289e-002
2.003761e+003;1.673578e-002
2.005690e+003;1.708996e-002
2.007618e+003;1.727069e-002
2.009547e+003;1.731924e-002
2.011476e+003;1.743991e-002
2.013404e+003;1.775600e-002
2.015333e+003;1.808531e-002
2.017261e+003;1.809996e-002
2.019190e+003;1.810607e-002
2.021118e+003;1.835894e-002
2.023047e+003;1.836641e-002
2.024975e+003;1.839503e-002
2.026904e+003;1.857693e-002
2.028833e+003;1.838203e-002
2.030761e+003;1.840958e-002
2.032690e+003;1.877195e-002
2.034618e+003;1.886118e-002
2.036547e+003;1.875693e-002
2.038475e+003;1.873067e-002
2.040404e+003;1.875032e-002
2.042332e+003;1.886835e-002
2.044261e+003;1.891745e-002
2.046189e+003;1.884821e-002
2.048118e+003;1.887554e-002
2.050047e+003;1.901340e-002
2.051975e+003;1.921121e-002
2.053904e+003;1.927681e-002
2.055832e+003;1.919338e-002
2.057761e+003;1.920886e-002
2.059689e+003;1.930300e-002
2.061618e+003;1.931949e-002
2.063546e+003;1.918891e-002
2.065475e+003;1.906682e-002
2.067404e+003;1.904650e-002
2.069332e+003;1.928457e-002
2.071260e+003;1.955761e-002
2.073189e+003;1.960690e-002
2.075118e+003;1.967640e-002
2.077046e+003;1.972123e-002
2.078975e+003;1.968285e-002
2.080903e+003;1.961972e-002
2.082832e+003;1.957684e-002
2.084760e+003;1.962343e-002
2.086689e+003;1.962926e-002
2.088617e+003;1.951193e-002
2.090546e+003;1.940180e-002
2.092475e+003;1.941535e-002
2.094403e+003;1.953158e-002
2.096332e+003;1.973992e-002
2.098260e+003;1.979676e-002
2.100189e+003;1.966826e-002
2.102117e+003;1.962458e-002
2.104046e+003;1.970726e-002
2.105974e+003;1.978695e-002
2.107903e+003;2.000874e-002
2.109832e+003;2.019669e-002
2.111760e+003;2.012492e-002
2.113688e+003;2.001481e-002
2.115617e+003;1.998629e-002
2.117546e+003;1.993335e-002
2.119474e+003;1.993838e-002
2.121403e+003;1.997120e-002
2.123331e+003;2.004187e-002
2.125260e+003;2.016115e-002
2.127188e+003;2.008726e-002
2.129117e+003;2.027182e-002
2.131045e+003;2.049861e-002
2.132974e+003;2.036119e-002
2.134903e+003;2.026046e-002
2.136831e+003;2.029546e-002
2.138760e+003;2.029063e-002
2.140688e+003;2.011499e-002
2.142617e+003;1.989914e-002
2.144545e+003;1.988992e-002
2.146474e+003;1.986987e-002
2.148402e+003;1.985236e-002
2.150331e+003;2.009587e-002
2.152260e+003;1.995708e-002
2.154188e+003;1.961054e-002
2.156117e+003;1.957116e-002
2.158045e+003;1.959612e-002
2.159974e+003;1.967249e-002
2.161902e+003;1.966732e-002
2.163831e+003;1.968732e-002
2.165759e+003;1.961958e-002
2.167688e+003;1.952569e-002
2.169616e+003;1.941130e-002
2.171545e+003;1.935399e-002
2.173474e+003;1.931879e-002
2.175402e+003;1.943285e-002
2.177331e+003;1.939221e-002
2.179259e+003;1.907842e-002
2.181188e+003;1.892666e-002
2.183116e+003;1.888084e-002
2.185045e+003;1.867377e-002
2.186973e+003;1.848837e-002
2.188902e+003;1.850449e-002
2.190831e+003;1.844471e-002
2.192759e+003;1.843026e-002
2.194688e+003;1.853730e-002
2.196616e+003;1.842262e-002
2.198545e+003;1.831028e-002
2.200473e+003;1.829521e-002
2.202402e+003;1.820892e-002
2.204330e+003;1.806362e-002
2.206259e+003;1.818716e-002
2.208188e+003;1.835981e-002
2.210116e+003;1.833492e-002
2.212044e+003;1.808068e-002
2.213973e+003;1.797886e-002
2.215902e+003;1.785103e-002
2.217830e+003;1.772787e-002
2.219759e+003;1.768525e-002
2.221687e+003;1.773778e-002
2.223616e+003;1.783284e-002
2.225544e+003;1.772704e-002
2.227473e+003;1.765132e-002
2.229401e+003;1.745160e-002
2.231330e+003;1.737900e-002
2.233259e+003;1.756106e-002
2.235187e+003;1.764701e-002
2.237116e+003;1.780840e-002
2.239044e+003;1.793255e-002
2.240973e+003;1.767645e-002
2.242901e+003;1.757727e-002
2.244830e+003;1.743001e-002
2.246758e+003;1.721170e-002
2.248687e+003;1.707331e-002
2.250615e+003;1.718195e-002
2.252544e+003;1.720294e-002
2.254473e+003;1.712921e-002
2.256401e+003;1.691839e-002
2.258330e+003;1.671667e-002
2.260258e+003;1.664553e-002
2.262187e+003;1.667600e-002
2.264115e+003;1.669979e-002
2.266044e+003;1.693452e-002
2.267972e+003;1.694868e-002
2.269901e+003;1.678640e-002
2.271830e+003;1.668757e-002
2.273758e+003;1.652808e-002
2.275687e+003;1.653086e-002
2.277615e+003;1.656594e-002
2.279544e+003;1.642628e-002
2.281472e+003;1.647322e-002
2.283401e+003;1.647793e-002
2.285329e+003;1.640319e-002
2.287258e+003;1.648973e-002
2.289187e+003;1.638629e-002
2.291115e+003;1.619950e-002
2.293043e+003;1.625333e-002
2.294972e+003;1.640663e-002
2.296901e+003;1.629856e-002
2.298829e+003;1.633300e-002
2.300758e+003;1.661210e-002
2.302686e+003;1.660184e-002
2.304615e+003;1.632591e-002
2.306543e+003;1.616789e-002
2.308472e+003;1.617463e-002
2.310400e+003;1.627923e-002
2.312329e+003;1.651689e-002
2.314258e+003;1.674910e-002
2.316186e+003;1.680955e-002
2.318115e+003;1.656284e-002
2.320043e+003;1.624700e-002
2.321972e+003;1.646912e-002
2.323900e+003;1.648172e-002
2.325829e+003;1.600178e-002
2.327757e+003;1.613866e-002
2.329686e+003;1.657775e-002
2.331615e+003;1.674535e-002
2.333543e+003;1.660990e-002
2.335472e+003;1.654856e-002
2.337400e+003;1.677135e-002
2.339329e+003;1.688016e-002
2.341257e+003;1.697610e-002
2.343186e+003;1.715648e-002
2.345114e+003;1.729807e-002
2.347043e+003;1.734641e-002
2.348971e+003;1.728641e-002
2.350900e+003;1.719739e-002
2.352829e+003;1.745305e-002
2.354757e+003;1.757638e-002
2.356686e+003;1.747409e-002
2.358614e+003;1.761440e-002
2.360543e+003;1.783225e-002
2.362471e+003;1.784258e-002
2.364400e+003;1.779314e-002
2.366328e+003;1.783529e-002
2.368257e+003;1.815229e-002
2.370186e+003;1.838383e-002
2.372114e+003;1.843638e-002
2.374042e+003;1.848633e-002
2.375971e+003;1.838985e-002
2.377900e+003;1.839558e-002
2.379828e+003;1.848613e-002
2.381757e+003;1.858616e-002
2.383685e+003;1.878973e-002
2.385614e+003;1.908634e-002
2.387542e+003;1.902856e-002
2.389471e+003;1.899499e-002
2.391399e+003;1.906907e-002
2.393328e+003;1.919493e-002
2.395257e+003;1.943028e-002
2.397185e+003;1.949678e-002
2.399114e+003;1.968594e-002
2.401042e+003;1.977796e-002
2.402971e+003;1.978192e-002
2.404899e+003;1.984982e-002
2.406828e+003;1.983678e-002
2.408756e+003;2.003611e-002
2.410685e+003;2.045332e-002
2.412614e+003;2.064925e-002
2.414542e+003;2.062879e-002
2.416471e+003;2.062757e-002
2.418399e+003;2.074058e-002
2.420328e+003;2.097767e-002
2.422256e+003;2.104774e-002
2.424185e+003;2.101791e-002
2.426113e+003;2.131239e-002
2.428042e+003;2.156449e-002
2.429970e+003;2.169154e-002
2.431899e+003;2.187806e-002
2.433828e+003;2.196390e-002
2.435756e+003;2.192559e-002
2.437685e+003;2.195842e-002
2.439613e+003;2.243749e-002
2.441542e+003;2.286232e-002
2.443470e+003;2.270040e-002
2.445399e+003;2.283515e-002
2.447327e+003;2.336078e-002
2.449256e+003;2.372320e-002
2.451185e+003;2.390644e-002
2.453113e+003;2.404457e-002
2.455042e+003;2.415560e-002
2.456970e+003;2.422062e-002
2.458899e+003;2.423736e-002
2.460827e+003;2.421722e-002
2.462756e+003;2.416012e-002
2.464684e+003;2.444661e-002
2.466613e+003;2.496205e-002
2.468542e+003;2.513847e-002
2.470470e+003;2.512724e-002
2.472398e+003;2.524451e-002
2.474327e+003;2.540169e-002
2.476256e+003;2.554585e-002
2.478184e+003;2.582166e-002
2.480113e+003;2.625031e-002
2.482041e+003;2.642964e-002
2.483970e+003;2.640486e-002
2.485898e+003;2.657284e-002
2.487827e+003;2.669210e-002
2.489755e+003;2.668893e-002
2.491684e+003;2.688473e-002
2.493613e+003;2.704497e-002
2.495541e+003;2.701588e-002
2.497470e+003;2.711533e-002
2.499398e+003;2.722510e-002
2.501327e+003;2.733878e-002
2.503255e+003;2.743177e-002
2.505184e+003;2.745662e-002
2.507112e+003;2.745725e-002
2.509041e+003;2.759567e-002
2.510969e+003;2.799448e-002
2.512898e+003;2.823415e-002
2.514827e+003;2.805947e-002
2.516755e+003;2.799734e-002
2.518684e+003;2.828479e-002
2.520612e+003;2.842613e-002
2.522541e+003;2.847887e-002
2.524469e+003;2.864409e-002
2.526398e+003;2.878919e-002
2.528326e+003;2.894741e-002
2.530255e+003;2.910834e-002
2.532184e+003;2.918580e-002
2.534112e+003;2.934831e-002
2.536041e+003;2.939812e-002
2.537969e+003;2.935147e-002
2.539898e+003;2.930662e-002
2.541826e+003;2.941117e-002
2.543755e+003;2.982070e-002
2.545683e+003;2.990489e-002
2.547612e+003;2.956245e-002
2.549541e+003;2.967479e-002
2.551469e+003;3.006071e-002
2.553397e+003;3.030732e-002
2.555326e+003;3.072619e-002
2.557255e+003;3.100136e-002
2.559183e+003;3.099808e-002
2.561112e+003;3.120919e-002
2.563040e+003;3.142525e-002
2.564969e+003;3.125049e-002
2.566897e+003;3.113148e-002
2.568826e+003;3.122949e-002
2.570754e+003;3.120481e-002
2.572683e+003;3.117687e-002
2.574612e+003;3.145577e-002
2.576540e+003;3.160438e-002
2.578469e+003;3.174531e-002
2.580397e+003;3.196634e-002
2.582326e+003;3.210039e-002
2.584254e+003;3.221164e-002
2.586183e+003;3.235351e-002
2.588111e+003;3.256200e-002
2.590040e+003;3.290530e-002
2.591969e+003;3.304776e-002
2.593897e+003;3.303535e-002
2.595826e+003;3.310061e-002
2.597754e+003;3.332419e-002
2.599683e+003;3.365868e-002
2.601611e+003;3.391372e-002
2.603540e+003;3.410847e-002
2.605468e+003;3.429869e-002
2.607397e+003;3.440028e-002
2.609325e+003;3.452429e-002
2.611254e+003;3.476145e-002
2.613183e+003;3.508937e-002
2.615111e+003;3.537656e-002
2.617040e+003;3.536153e-002
2.618968e+003;3.542653e-002
2.620897e+003;3.590604e-002
2.622825e+003;3.628644e-002
2.624754e+003;3.625579e-002
2.626682e+003;3.628702e-002
2.628611e+003;3.679075e-002
2.630540e+003;3.726217e-002
2.632468e+003;3.745121e-002
2.634396e+003;3.781641e-002
2.636325e+003;3.822540e-002
2.638254e+003;3.835304e-002
2.640182e+003;3.844559e-002
2.642111e+003;3.872407e-002
2.644039e+003;3.913512e-002
2.645968e+003;3.941977e-002
2.647896e+003;3.948490e-002
2.649825e+003;3.967015e-002
2.651753e+003;3.984328e-002
2.653682e+003;3.994534e-002
2.655611e+003;4.031268e-002
2.657539e+003;4.084342e-002
2.659468e+003;4.121294e-002
2.661396e+003;4.150362e-002
2.663325e+003;4.170214e-002
2.665253e+003;4.194085e-002
2.667182e+003;4.226346e-002
2.669110e+003;4.275505e-002
2.671039e+003;4.333301e-002
2.672968e+003;4.347145e-002
2.674896e+003;4.350599e-002
2.676825e+003;4.395539e-002
2.678753e+003;4.426949e-002
2.680682e+003;4.423482e-002
2.682610e+003;4.436442e-002
2.684539e+003;4.450767e-002
2.686467e+003;4.456414e-002
2.688396e+003;4.475175e-002
2.690324e+003;4.525959e-002
2.692253e+003;4.590297e-002
2.694182e+003;4.627425e-002
2.696110e+003;4.647097e-002
2.698039e+003;4.649509e-002
2.699967e+003;4.677472e-002
2.701896e+003;4.713747e-002
2.703824e+003;4.711191e-002
2.705753e+003;4.723919e-002
2.707681e+003;4.768286e-002
2.709610e+003;4.784227e-002
2.711539e+003;4.790228e-002
2.713467e+003;4.828104e-002
2.715396e+003;4.851910e-002
2.717324e+003;4.864946e-002
2.719253e+003;4.899583e-002
2.721181e+003;4.924297e-002
2.723110e+003;4.938101e-002
2.725038e+003;4.965184e-002
2.726967e+003;4.964549e-002
2.728896e+003;4.956723e-002
2.730824e+003;4.951976e-002
2.732752e+003;4.981238e-002
2.734681e+003;5.034831e-002
2.736610e+003;5.077298e-002
2.738538e+003;5.086445e-002
2.740467e+003;5.103976e-002
2.742395e+003;5.135854e-002
2.744324e+003;5.138688e-002
2.746252e+003;5.156049e-002
2.748181e+003;5.191613e-002
2.750109e+003;5.202343e-002
2.752038e+003;5.192088e-002
2.753967e+003;5.213475e-002
2.755895e+003;5.253592e-002
2.757824e+003;5.259770e-002
2.759752e+003;5.266536e-002
2.761681e+003;5.294626e-002
2.763609e+003;5.341379e-002
2.765538e+003;5.368576e-002
2.767466e+003;5.371793e-002
2.769395e+003;5.426648e-002
2.771323e+003;5.475373e-002
2.773252e+003;5.479707e-002
2.775181e+003;5.496412e-002
2.777109e+003;5.521780e-002
2.779038e+003;5.562039e-002
2.780966e+003;5.597527e-002
2.782895e+003;5.627126e-002
2.784823e+003;5.632063e-002
2.786752e+003;5.665936e-002
2.788680e+003;5.739371e-002
2.790609e+003;5.804023e-002
2.792538e+003;5.835017e-002
2.794466e+003;5.835187e-002
2.796395e+003;5.880398e-002
2.798323e+003;5.944572e-002
2.800252e+003;5.972865e-002
2.802180e+003;6.007887e-002
2.804109e+003;6.057011e-002
2.806037e+003;6.118811e-002
2.807966e+003;6.168514e-002
2.809895e+003;6.190231e-002
2.811823e+003;6.234065e-002
2.813751e+003;6.304400e-002
2.815680e+003;6.347942e-002
2.817609e+003;6.386481e-002
2.819537e+003;6.463727e-002
2.821466e+003;6.511721e-002
2.823394e+003;6.557252e-002
2.825323e+003;6.622914e-002
2.827251e+003;6.678376e-002
2.829180e+003;6.726779e-002
2.831108e+003;6.781998e-002
2.833037e+003;6.840859e-002
2.834966e+003;6.938961e-002
2.836894e+003;7.067975e-002
2.838823e+003;7.146224e-002
2.840751e+003;7.224474e-002
2.842680e+003;7.327467e-002
2.844608e+003;7.400776e-002
2.846537e+003;7.453704e-002
2.848465e+003;7.556525e-002
2.850394e+003;7.675075e-002
2.852323e+003;7.759248e-002
2.854251e+003;7.842445e-002
2.856180e+003;7.962611e-002
2.858108e+003;8.087620e-002
2.860037e+003;8.209856e-002
2.861965e+003;8.329828e-002
2.863894e+003;8.478067e-002
2.865822e+003;8.599530e-002
2.867751e+003;8.689195e-002
2.869679e+003;8.778891e-002
2.871608e+003;8.892745e-002
2.873536e+003;9.013891e-002
2.875465e+003;9.085105e-002
2.877394e+003;9.127955e-002
2.879322e+003;9.179029e-002
2.881251e+003;9.242995e-002
2.883179e+003;9.296203e-002
2.885108e+003;9.316611e-002
2.887036e+003;9.314755e-002
2.888965e+003;9.296992e-002
2.890893e+003;9.301978e-002
2.892822e+003;9.322368e-002
2.894750e+003;9.327736e-002
2.896679e+003;9.305858e-002
2.898608e+003;9.267110e-002
2.900536e+003;9.228339e-002
2.902465e+003;9.224782e-002
2.904393e+003;9.195765e-002
2.906322e+003;9.123948e-002
2.908250e+003;9.104445e-002
2.910179e+003;9.091808e-002
2.912107e+003;9.057638e-002
2.914036e+003;8.990984e-002
2.915965e+003;8.929512e-002
2.917893e+003;8.898605e-002
2.919822e+003;8.839038e-002
2.921750e+003;8.740667e-002
2.923679e+003;8.641018e-002
2.925607e+003;8.564942e-002
2.927536e+003;8.491775e-002
2.929464e+003;8.425381e-002
2.931393e+003;8.381844e-002
2.933322e+003;8.343859e-002
2.935250e+003;8.315208e-002
2.937178e+003;8.260494e-002
2.939107e+003;8.169718e-002
2.941036e+003;8.083717e-002
2.942964e+003;8.010244e-002
2.944893e+003;7.937273e-002
2.946821e+003;7.874916e-002
2.948750e+003;7.792895e-002
2.950678e+003;7.679123e-002
2.952607e+003;7.578786e-002
2.954535e+003;7.502302e-002
2.956464e+003;7.403506e-002
2.958393e+003;7.301454e-002
2.960321e+003;7.202817e-002
2.962250e+003;7.089818e-002
2.964178e+003;7.004724e-002
2.966107e+003;6.948976e-002
2.968035e+003;6.860731e-002
2.969964e+003;6.752926e-002
2.971892e+003;6.692003e-002
2.973821e+003;6.662694e-002
2.975750e+003;6.614023e-002
2.977678e+003;6.553572e-002
2.979607e+003;6.504139e-002
2.981535e+003;6.454615e-002
2.983464e+003;6.413522e-002
2.985392e+003;6.379388e-002
2.987321e+003;6.335443e-002
2.989249e+003;6.296999e-002
2.991178e+003;6.247645e-002
2.993106e+003;6.202113e-002
2.995035e+003;6.191519e-002
2.996964e+003;6.203225e-002
2.998892e+003;6.195489e-002
3.000821e+003;6.155310e-002
3.002749e+003;6.138587e-002
3.004678e+003;6.175489e-002
3.006606e+003;6.203549e-002
3.008535e+003;6.187794e-002
3.010463e+003;6.223735e-002
3.012392e+003;6.274459e-002
3.014321e+003;6.292065e-002
3.016249e+003;6.304496e-002
3.018177e+003;6.302262e-002
3.020106e+003;6.309733e-002
3.022035e+003;6.342570e-002
3.023963e+003;6.375509e-002
3.025892e+003;6.437875e-002
3.027820e+003;6.486607e-002
3.029749e+003;6.530934e-002
3.031677e+003;6.615297e-002
3.033606e+003;6.662501e-002
3.035534e+003;6.683686e-002
3.037463e+003;6.738099e-002
3.039392e+003;6.805315e-002
3.041320e+003;6.849661e-002
3.043249e+003;6.879745e-002
3.045177e+003;6.924992e-002
3.047106e+003;7.001080e-002
3.049034e+003;7.063370e-002
3.050963e+003;7.126441e-002
3.052891e+003;7.188450e-002
3.054820e+003;7.232329e-002
3.056749e+003;7.258543e-002
3.058677e+003;7.291040e-002
3.060606e+003;7.344498e-002
3.062534e+003;7.386951e-002
3.064463e+003;7.458696e-002
3.066391e+003;7.542904e-002
3.068320e+003;7.576478e-002
3.070248e+003;7.632165e-002
3.072177e+003;7.712349e-002
3.074105e+003;7.800170e-002
3.076034e+003;7.878957e-002
3.077963e+003;7.932400e-002
3.079891e+003;7.975250e-002
3.081820e+003;8.041852e-002
3.083748e+003;8.130512e-002
3.085677e+003;8.189454e-002
3.087605e+003;8.218022e-002
3.089534e+003;8.288929e-002
3.091462e+003;8.371445e-002
3.093391e+003;8.411782e-002
3.095320e+003;8.455474e-002
3.097248e+003;8.512727e-002
3.099177e+003;8.561222e-002
3.101105e+003;8.617411e-002
3.103034e+003;8.660258e-002
3.104962e+003;8.692627e-002
3.106891e+003;8.731308e-002
3.108819e+003;8.797113e-002
3.110748e+003;8.889228e-002
3.112677e+003;8.955237e-002
3.114605e+003;8.998867e-002
3.116533e+003;9.045382e-002
3.118462e+003;9.089720e-002
3.120391e+003;9.149199e-002
3.122319e+003;9.222217e-002
3.124248e+003;9.292321e-002
3.126176e+003;9.354433e-002
3.128105e+003;9.424413e-002
3.130033e+003;9.483565e-002
3.131962e+003;9.533705e-002
3.133890e+003;9.630669e-002
3.135819e+003;9.686209e-002
3.137748e+003;9.711152e-002
3.139676e+003;9.766036e-002
3.141605e+003;9.841670e-002
3.143533e+003;9.901311e-002
3.145462e+003;9.944453e-002
3.147390e+003;9.967097e-002
3.149319e+003;1.000472e-001
3.151247e+003;1.006842e-001
3.153176e+003;1.015665e-001
3.155104e+003;1.024995e-001
3.157033e+003;1.029892e-001
3.158962e+003;1.029316e-001
3.160890e+003;1.034884e-001
3.162819e+003;1.044448e-001
3.164747e+003;1.050733e-001
3.166676e+003;1.056760e-001
3.168604e+003;1.060521e-001
3.170533e+003;1.062400e-001
3.172461e+003;1.066236e-001
3.174390e+003;1.071365e-001
3.176319e+003;1.076565e-001
3.178247e+003;1.080247e-001
3.180176e+003;1.083743e-001
3.182104e+003;1.089325e-001
3.184033e+003;1.095576e-001
3.185961e+003;1.098955e-001
3.187890e+003;1.103976e-001
3.189818e+003;1.111359e-001
3.191747e+003;1.114454e-001
3.193676e+003;1.115424e-001
3.195604e+003;1.118694e-001
3.197532e+003;1.127118e-001
3.199461e+003;1.133192e-001
3.201390e+003;1.137300e-001
3.203318e+003;1.138576e-001
3.205247e+003;1.140353e-001
3.207175e+003;1.143635e-001
3.209104e+003;1.148290e-001
3.211032e+003;1.153226e-001
3.212961e+003;1.157539e-001
3.214889e+003;1.161762e-001
3.216818e+003;1.169546e-001
3.218747e+003;1.174114e-001
3.220675e+003;1.173440e-001
3.222604e+003;1.174695e-001
3.224532e+003;1.178809e-001
3.226461e+003;1.179537e-001
3.228389e+003;1.182834e-001
3.230318e+003;1.190151e-001
3.232246e+003;1.192032e-001
3.234175e+003;1.194299e-001
3.236104e+003;1.199709e-001
3.238032e+003;1.201777e-001
3.239961e+003;1.200996e-001
3.241889e+003;1.203249e-001
3.243818e+003;1.206739e-001
3.245746e+003;1.205424e-001
3.247675e+003;1.207374e-001
3.249603e+003;1.215953e-001
3.251532e+003;1.219344e-001
3.253460e+003;1.221575e-001
3.255389e+003;1.226489e-001
3.257318e+003;1.226364e-001
3.259246e+003;1.224686e-001
3.261175e+003;1.228738e-001
3.263103e+003;1.233045e-001
3.265032e+003;1.231797e-001
3.266960e+003;1.232486e-001
3.268889e+003;1.237415e-001
3.270817e+003;1.245674e-001
3.272746e+003;1.250381e-001
3.274675e+003;1.250397e-001
3.276603e+003;1.246571e-001
3.278531e+003;1.244018e-001
3.280460e+003;1.246022e-001
3.282389e+003;1.250259e-001
3.284317e+003;1.253619e-001
3.286246e+003;1.252654e-001
3.288174e+003;1.253979e-001
3.290103e+003;1.255490e-001
3.292031e+003;1.251298e-001
3.293960e+003;1.251922e-001
3.295888e+003;1.258750e-001
3.297817e+003;1.263099e-001
3.299746e+003;1.262023e-001
3.301674e+003;1.261428e-001
3.303603e+003;1.263516e-001
3.305531e+003;1.264890e-001
3.307460e+003;1.265995e-001
3.309388e+003;1.269780e-001
3.311317e+003;1.268532e-001
3.313245e+003;1.268199e-001
3.315174e+003;1.271737e-001
3.317103e+003;1.269876e-001
3.319031e+003;1.268221e-001
3.320960e+003;1.269404e-001
3.322888e+003;1.267552e-001
3.324817e+003;1.266574e-001
3.326745e+003;1.266921e-001
3.328674e+003;1.267055e-001
3.330602e+003;1.263702e-001
3.332531e+003;1.261248e-001
3.334459e+003;1.261379e-001
3.336388e+003;1.264640e-001
3.338317e+003;1.269973e-001
3.340245e+003;1.269649e-001
3.342174e+003;1.262489e-001
3.344102e+003;1.257844e-001
3.346031e+003;1.260606e-001
3.347959e+003;1.261224e-001
3.349888e+003;1.257642e-001
3.351816e+003;1.258426e-001
3.353745e+003;1.258453e-001
3.355674e+003;1.255040e-001
3.357602e+003;1.252424e-001
3.359531e+003;1.251362e-001
3.361459e+003;1.252208e-001
3.363388e+003;1.248210e-001
3.365316e+003;1.245889e-001
3.367245e+003;1.245244e-001
3.369173e+003;1.242144e-001
3.371102e+003;1.238362e-001
3.373031e+003;1.237105e-001
3.374959e+003;1.240209e-001
3.376887e+003;1.241582e-001
3.378816e+003;1.236750e-001
3.380745e+003;1.233652e-001
3.382673e+003;1.226287e-001
3.384602e+003;1.220751e-001
3.386530e+003;1.216758e-001
3.388459e+003;1.212163e-001
3.390387e+003;1.209904e-001
3.392316e+003;1.208064e-001
3.394244e+003;1.203475e-001
3.396173e+003;1.205003e-001
3.398102e+003;1.203583e-001
3.400030e+003;1.197427e-001
3.401959e+003;1.191242e-001
3.403887e+003;1.188840e-001
3.405816e+003;1.186613e-001
3.407744e+003;1.184307e-001
3.409673e+003;1.180197e-001
3.411601e+003;1.176212e-001
3.413530e+003;1.173327e-001
3.415458e+003;1.169154e-001
3.417387e+003;1.164741e-001
3.419316e+003;1.159072e-001
3.421244e+003;1.153017e-001
3.423173e+003;1.153729e-001
3.425101e+003;1.149832e-001
3.427030e+003;1.140060e-001
3.428958e+003;1.134634e-001
3.430887e+003;1.128969e-001
3.432815e+003;1.126579e-001
3.434744e+003;1.126033e-001
3.436673e+003;1.121079e-001
3.438601e+003;1.111951e-001
3.440530e+003;1.105122e-001
3.442458e+003;1.099910e-001
3.444387e+003;1.090422e-001
3.446315e+003;1.081262e-001
3.448244e+003;1.076133e-001
3.450172e+003;1.073464e-001
3.452101e+003;1.065255e-001
3.454030e+003;1.055741e-001
3.455958e+003;1.047533e-001
3.457886e+003;1.042880e-001
3.459815e+003;1.038598e-001
3.461744e+003;1.031260e-001
3.463672e+003;1.022192e-001
3.465601e+003;1.014011e-001
3.467529e+003;1.006875e-001
3.469458e+003;9.983084e-002
3.471386e+003;9.901935e-002
3.473315e+003;9.829523e-002
3.475243e+003;9.764738e-002
3.477172e+003;9.658848e-002
3.479101e+003;9.551718e-002
3.481029e+003;9.492758e-002
3.482958e+003;9.462296e-002
3.484886e+003;9.410407e-002
3.486815e+003;9.326894e-002
3.488743e+003;9.246525e-002
3.490672e+003;9.140393e-002
3.492600e+003;9.069171e-002
3.494529e+003;9.033648e-002
3.496458e+003;8.920010e-002
3.498386e+003;8.822589e-002
3.500315e+003;8.765623e-002
3.502243e+003;8.664914e-002
3.504172e+003;8.554286e-002
3.506100e+003;8.476287e-002
3.508029e+003;8.381418e-002
3.509957e+003;8.277060e-002
3.511886e+003;8.188066e-002
3.513814e+003;8.095317e-002
3.515743e+003;8.024586e-002
3.517672e+003;7.977878e-002
3.519600e+003;7.897902e-002
3.521529e+003;7.789223e-002
3.523457e+003;7.740284e-002
3.525386e+003;7.720992e-002
3.527314e+003;7.649552e-002
3.529243e+003;7.530843e-002
3.531171e+003;7.415712e-002
3.533100e+003;7.322901e-002
3.535029e+003;7.211825e-002
3.536957e+003;7.096798e-002
3.538885e+003;7.033502e-002
3.540814e+003;6.965295e-002
3.542743e+003;6.879594e-002
3.544671e+003;6.790594e-002
3.546600e+003;6.710913e-002
3.548528e+003;6.646987e-002
3.550457e+003;6.545047e-002
3.552385e+003;6.439793e-002
3.554314e+003;6.380125e-002
3.556242e+003;6.283097e-002
3.558171e+003;6.163118e-002
3.560100e+003;6.057807e-002
3.562028e+003;6.002716e-002
3.563957e+003;5.960944e-002
3.565885e+003;5.883387e-002
3.567814e+003;5.777608e-002
3.569742e+003;5.694451e-002
3.571671e+003;5.619055e-002
3.573599e+003;5.551379e-002
3.575528e+003;5.470108e-002
3.577457e+003;5.359747e-002
3.579385e+003;5.239164e-002
3.581314e+003;5.136350e-002
3.583242e+003;5.067683e-002
3.585171e+003;5.013141e-002
3.587099e+003;4.960983e-002
3.589028e+003;4.888461e-002
3.590956e+003;4.779648e-002
3.592885e+003;4.692412e-002
3.594813e+003;4.626304e-002
3.596742e+003;4.517263e-002
3.598671e+003;4.384952e-002
3.600599e+003;4.269001e-002
3.602528e+003;4.208145e-002
3.604456e+003;4.138855e-002
3.606385e+003;4.029116e-002
3.608313e+003;3.964274e-002
3.610242e+003;3.896017e-002
3.612170e+003;3.785693e-002
3.614099e+003;3.700184e-002
3.616028e+003;3.602720e-002
3.617956e+003;3.466555e-002
3.619885e+003;3.355784e-002
3.621813e+003;3.294476e-002
3.623742e+003;3.236993e-002
3.625670e+003;3.185654e-002
3.627599e+003;3.079508e-002
3.629527e+003;2.954085e-002
3.631456e+003;2.865326e-002
3.633385e+003;2.790857e-002
3.635313e+003;2.717324e-002
3.637241e+003;2.624323e-002
3.639170e+003;2.503418e-002
3.641099e+003;2.427797e-002
3.643027e+003;2.370591e-002
3.644956e+003;2.285544e-002
3.646884e+003;2.202761e-002
3.648813e+003;2.093803e-002
3.650741e+003;1.980786e-002
3.652670e+003;1.925769e-002
3.654598e+003;1.868387e-002
3.656527e+003;1.791108e-002
3.658456e+003;1.744746e-002
3.660384e+003;1.695633e-002
3.662313e+003;1.611376e-002
3.664241e+003;1.555386e-002
3.666170e+003;1.534999e-002
3.668098e+003;1.468114e-002
3.670027e+003;1.358715e-002
3.671955e+003;1.296054e-002
3.673884e+003;1.276041e-002
3.675813e+003;1.238390e-002
3.677741e+003;1.192164e-002
3.679669e+003;1.178806e-002
3.681598e+003;1.149731e-002
3.683527e+003;1.130893e-002
3.685455e+003;1.096939e-002
3.687384e+003;1.005136e-002
3.689312e+003;9.658049e-003
3.691241e+003;9.791079e-003
3.693169e+003;9.554018e-003
3.695098e+003;8.890315e-003
3.697026e+003;8.654286e-003
3.698955e+003;8.763004e-003
3.700884e+003;8.630694e-003
3.702812e+003;8.383558e-003
3.704741e+003;8.451291e-003
3.706669e+003;8.555734e-003
3.708598e+003;7.961447e-003
3.710526e+003;7.139169e-003
3.712455e+003;6.839021e-003
3.714383e+003;7.109495e-003
3.716312e+003;7.365040e-003
3.718240e+003;7.115086e-003
3.720169e+003;6.826230e-003
3.722098e+003;6.626477e-003
3.724026e+003;6.594180e-003
3.725955e+003;6.531713e-003
3.727883e+003;6.454189e-003
3.729812e+003;6.738523e-003
3.731740e+003;6.853730e-003
3.733669e+003;6.485567e-003
3.735597e+003;6.026691e-003
3.737526e+003;6.255951e-003
3.739455e+003;6.481968e-003
3.741383e+003;6.310376e-003
3.743312e+003;5.924132e-003
3.745240e+003;5.844063e-003
3.747169e+003;6.160798e-003
3.749097e+003;6.058576e-003
3.751026e+003;5.691388e-003
3.752954e+003;5.911469e-003
3.754883e+003;6.312124e-003
3.756812e+003;6.168023e-003
3.758740e+003;5.911099e-003
3.760668e+003;5.730903e-003
3.762597e+003;5.571555e-003
3.764526e+003;5.502725e-003
3.766454e+003;5.320719e-003
3.768383e+003;5.465446e-003
3.770311e+003;5.952650e-003
3.772240e+003;6.258572e-003
3.774168e+003;6.376375e-003
3.776097e+003;6.201364e-003
3.778025e+003;5.709147e-003
3.779954e+003;5.526450e-003
3.781883e+003;5.516987e-003
3.783811e+003;5.403913e-003
3.785740e+003;5.230734e-003
3.787668e+003;5.021087e-003
3.789597e+003;5.056150e-003
3.791525e+003;5.346145e-003
3.793454e+003;5.356611e-003
3.795382e+003;5.435752e-003
3.797311e+003;5.769447e-003
3.799240e+003;5.827976e-003
3.801168e+003;5.469640e-003
3.803097e+003;5.481250e-003
3.805025e+003;5.351244e-003
3.806954e+003;4.981938e-003
3.808882e+003;4.925568e-003
3.810811e+003;5.015356e-003
3.812739e+003;5.339806e-003
3.814668e+003;5.530511e-003
3.816596e+003;5.329105e-003
3.818525e+003;5.349500e-003
3.820454e+003;5.571622e-003
3.822382e+003;5.537592e-003
3.824311e+003;5.800843e-003
3.826239e+003;5.968606e-003
3.828168e+003;5.799634e-003
3.830096e+003;5.530176e-003
3.832025e+003;5.331118e-003
3.833953e+003;5.498263e-003
3.835882e+003;5.732514e-003
3.837811e+003;5.486485e-003
3.839739e+003;5.405087e-003
3.841667e+003;5.195356e-003
3.843596e+003;5.009154e-003
3.845525e+003;5.055781e-003
3.847453e+003;5.033121e-003
3.849382e+003;5.007445e-003
3.851310e+003;4.951842e-003
3.853239e+003;4.804707e-003
3.855167e+003;4.843538e-003
3.857096e+003;5.066006e-003
3.859024e+003;5.258067e-003
3.860953e+003;5.461654e-003
3.862882e+003;5.530075e-003
3.864810e+003;5.621029e-003
3.866739e+003;5.672118e-003
3.868667e+003;5.344871e-003
3.870596e+003;5.449877e-003
3.872524e+003;5.877982e-003
3.874453e+003;6.058576e-003
3.876381e+003;5.954900e-003
3.878310e+003;6.048630e-003
3.880239e+003;6.296694e-003
3.882167e+003;6.558757e-003
3.884096e+003;6.395811e-003
3.886024e+003;6.080685e-003
3.887953e+003;6.306914e-003
3.889881e+003;6.082399e-003
3.891810e+003;5.775794e-003
3.893738e+003;5.994607e-003
3.895667e+003;6.089623e-003
3.897595e+003;5.898672e-003
3.899524e+003;5.932731e-003
3.901453e+003;5.978046e-003
3.903381e+003;5.870258e-003
3.905310e+003;6.084784e-003
3.907238e+003;6.696292e-003
3.909167e+003;7.076893e-003
3.911095e+003;7.196670e-003
3.913024e+003;7.218163e-003
3.914952e+003;6.731524e-003
3.916881e+003;6.488358e-003
3.918810e+003;6.987284e-003
3.920738e+003;7.177772e-003
3.922667e+003;6.757571e-003
3.924595e+003;6.535985e-003
3.926524e+003;6.884262e-003
3.928452e+003;7.069215e-003
3.930381e+003;6.873019e-003
3.932309e+003;6.880121e-003
3.934238e+003;6.979944e-003
3.936167e+003;7.197277e-003
3.938095e+003;7.501415e-003
3.940023e+003;7.691858e-003
3.941952e+003;7.664878e-003
3.943881e+003;7.468312e-003
3.945809e+003;7.887143e-003
3.947738e+003;7.986521e-003
3.949666e+003;7.744811e-003
3.951595e+003;7.869800e-003
3.953523e+003;8.035933e-003
3.955452e+003;7.985070e-003
3.957380e+003;7.835251e-003
3.959309e+003;7.619758e-003
3.961238e+003;8.025301e-003
3.963166e+003;8.557559e-003
3.965095e+003;8.500891e-003
3.967023e+003;8.489808e-003
3.968952e+003;8.668179e-003
3.970880e+003;8.461292e-003
3.972809e+003;8.148209e-003
3.974737e+003;7.751659e-003
3.976666e+003;8.024423e-003
3.978594e+003;8.706952e-003
3.980523e+003;9.006161e-003
3.982452e+003;8.463015e-003
3.984380e+003;7.920514e-003
3.986309e+003;7.996242e-003
3.988237e+003;7.936340e-003
3.990166e+003;8.312051e-003
3.992094e+003;8.638366e-003
3.994023e+003;8.747655e-003
3.995951e+003;8.551612e-003
3.997880e+003;8.347279e-003
3.999809e+003;8.287566e-003
4.001737e+003;0.000000e+000
