3.992094e+002;0.000000e+000
4.011380e+002;0.000000e+000
4.030665e+002;0.000000e+000
4.049951e+002;0.000000e+000
4.069236e+002;0.000000e+000
4.088522e+002;0.000000e+000
4.107807e+002;0.000000e+000
4.127093e+002;0.000000e+000
4.146378e+002;0.000000e+000
4.165664e+002;0.000000e+000
4.184949e+002;0.000000e+000
4.204235e+002;0.000000e+000
4.223520e+002;0.000000e+000
4.242806e+002;0.000000e+000
4.262091e+002;0.000000e+000
4.281377e+002;0.000000e+000
4.300662e+002;0.000000e+000
4.319948e+002;0.000000e+000
4.339233e+002;0.000000e+000
4.358519e+002;0.000000e+000
4.377804e+002;0.000000e+000
4.397090e+002;0.000000e+000
4.416375e+002;0.000000e+000
4.435660e+002;0.000000e+000
4.454946e+002;0.000000e+000
4.474232e+002;0.000000e+000
4.493517e+002;0.000000e+000
4.512802e+002;0.000000e+000
4.532088e+002;0.000000e+000
4.551373e+002;0.000000e+000
4.570659e+002;0.000000e+000
4.589944e+002;0.000000e+000
4.609230e+002;0.000000e+000
4.628515e+002;0.000000e+000
4.647801e+002;0.000000e+000
4.667086e+002;0.000000e+000
4.686372e+002;0.000000e+000
4.705657e+002;0.000000e+000
4.724943e+002;0.000000e+000
4.744228e+002;0.000000e+000
4.763513e+002;0.000000e+000
4.782799e+002;0.000000e+000
4.802085e+002;0.000000e+000
4.821370e+002;0.000000e+000
4.840656e+002;0.000000e+000
4.859941e+002;0.000000e+000
4.879226e+002;0.000000e+000
4.898512e+002;0.000000e+000
4.917798e+002;0.000000e+000
4.937083e+002;0.000000e+000
4.956368e+002;0.000000e+000
4.975654e+002;0.000000e+000
4.994939e+002;0.000000e+000
5.014225e+002;0.000000e+000
5.033510e+002;0.000000e+000
5.052796e+002;0.000000e+000
5.072081e+002;0.000000e+000
5.091367e+002;0.000000e+000
5.110652e+002;0.000000e+000
5.129938e+002;0.000000e+000
5.149223e+002;0.000000e+000
5.168509e+002;0.000000e+000
5.187794e+002;0.000000e+000
5.207079e+002;0.000000e+000
5.226365e+002;0.000000e+000
5.245651e+002;0.000000e+000
5.264936e+002;0.000000e+000
5.284222e+002;0.000000e+000
5.303507e+002;0.000000e+000
5.322792e+002;0.000000e+000
5.342078e+002;0.000000e+000
5.361364e+002;0.000000e+000
5.380649e+002;0.000000e+000
5.399935e+002;0.000000e+000
5.419220e+002;0.000000e+000
5.438505e+002;0.000000e+000
5.457791e+002;0.000000e+000
5.477076e+002;0.000000e+000
5.496362e+002;0.000000e+000
5.515648e+002;0.000000e+000
5.534933e+002;0.000000e+000
5.554218e+002;0.000000e+000
5.573504e+002;0.000000e+000
5.592789e+002;0.000000e+000
5.612075e+002;0.000000e+000
5.631360e+002;0.000000e+000
5.650646e+002;0.000000e+000
5.669931e+002;0.000000e+000
5.689217e+002;0.000000e+000
5.708502e+002;0.000000e+000
5.727787e+002;0.000000e+000
5.747073e+002;0.000000e+000
5.766359e+002;0.000000e+000
5.785644e+002;0.000000e+000
5.804930e+002;0.000000e+000
5.824215e+002;0.000000e+000
5.843500e+002;0.000000e+000
5.862786e+002;0.000000e+000
5.882072e+002;0.000000e+000
5.901357e+002;0.000000e+000
5.920643e+002;0.000000e+000
5.939928e+002;0.000000e+000
5.959213e+002;0.000000e+000
5.978499e+002;0.000000e+000
5.997784e+002;2.793388e-001
6.017070e+002;2.741365e-001
6.036355e+002;2.728051e-001
6.055641e+002;2.716150e-001
6.074926e+002;2.725699e-001
6.094211e+002;2.737568e-001
6.113497e+002;2.727497e-001
6.132783e+002;2.676191e-001
6.152068e+002;2.609168e-001
6.171354e+002;2.571270e-001
6.190639e+002;2.574452e-001
6.209924e+002;2.601743e-001
6.229210e+002;2.585416e-001
6.248495e+002;2.546647e-001
6.267781e+002;2.559264e-001
6.287067e+002;2.535968e-001
6.306352e+002;2.474928e-001
6.325637e+002;2.473939e-001
6.344923e+002;2.479211e-001
6.364208e+002;2.437056e-001
6.383494e+002;2.411208e-001
6.402780e+002;2.420385e-001
6.422065e+002;2.413648e-001
6.441350e+002;2.403293e-001
6.460636e+002;2.393554e-001
6.479921e+002;2.380660e-001
6.499207e+002;2.367150e-001
6.518492e+002;2.389460e-001
6.537778e+002;2.420662e-001
6.557063e+002;2.447615e-001
6.576349e+002;2.470170e-001
6.595634e+002;2.465152e-001
6.614919e+002;2.466479e-001
6.634205e+002;2.453592e-001
6.653491e+002;2.447342e-001
6.672776e+002;2.449320e-001
6.692062e+002;2.428450e-001
6.711347e+002;2.390880e-001
6.730632e+002;2.304253e-001
6.749918e+002;2.205921e-001
6.769203e+002;2.158180e-001
6.788489e+002;2.112125e-001
6.807775e+002;2.053776e-001
6.827060e+002;2.016705e-001
6.846345e+002;1.985744e-001
6.865631e+002;1.954626e-001
6.884916e+002;1.936128e-001
6.904202e+002;1.925946e-001
6.923488e+002;1.923802e-001
6.942773e+002;1.932686e-001
6.962058e+002;1.931181e-001
6.981344e+002;1.908819e-001
7.000629e+002;1.899026e-001
7.019915e+002;1.895341e-001
7.039200e+002;1.883557e-001
7.058486e+002;1.870723e-001
7.077771e+002;1.864427e-001
7.097057e+002;1.855627e-001
7.116342e+002;1.840424e-001
7.135627e+002;1.825538e-001
7.154913e+002;1.813937e-001
7.174199e+002;1.803200e-001
7.193484e+002;1.783949e-001
7.212770e+002;1.765850e-001
7.232055e+002;1.757188e-001
7.251340e+002;1.746263e-001
7.270626e+002;1.737032e-001
7.289911e+002;1.725514e-001
7.309197e+002;1.717814e-001
7.328483e+002;1.713163e-001
7.347768e+002;1.703126e-001
7.367053e+002;1.687283e-001
7.386339e+002;1.664491e-001
7.405624e+002;1.654420e-001
7.424910e+002;1.648657e-001
7.444196e+002;1.637189e-001
7.463481e+002;1.632793e-001
7.482766e+002;1.617807e-001
7.502052e+002;1.586418e-001
7.521337e+002;1.566806e-001
7.540623e+002;1.556977e-001
7.559908e+002;1.549868e-001
7.579194e+002;1.546570e-001
7.598479e+002;1.543990e-001
7.617765e+002;1.537325e-001
7.637050e+002;1.523558e-001
7.656335e+002;1.511150e-001
7.675621e+002;1.496935e-001
7.694907e+002;1.484852e-001
7.714192e+002;1.476740e-001
7.733478e+002;1.466397e-001
7.752763e+002;1.454152e-001
7.772048e+002;1.445353e-001
7.791334e+002;1.437009e-001
7.810620e+002;1.431890e-001
7.829905e+002;1.428762e-001
7.849191e+002;1.423241e-001
7.868476e+002;1.414742e-001
7.887761e+002;1.409900e-001
7.907047e+002;1.412436e-001
7.926332e+002;1.412693e-001
7.945618e+002;1.409058e-001
7.964903e+002;1.410202e-001
7.984189e+002;1.409000e-001
8.003474e+002;1.400276e-001
8.022759e+002;1.391702e-001
8.042045e+002;1.393925e-001
8.061331e+002;1.400487e-001
8.080616e+002;1.402295e-001
8.099902e+002;1.402439e-001
8.119187e+002;1.396313e-001
8.138472e+002;1.384648e-001
8.157758e+002;1.380395e-001
8.177043e+002;1.379779e-001
8.196329e+002;1.381058e-001
8.215615e+002;1.379888e-001
8.234900e+002;1.381005e-001
8.254185e+002;1.370045e-001
8.273471e+002;1.356098e-001
8.292756e+002;1.355875e-001
8.312042e+002;1.353185e-001
8.331328e+002;1.344245e-001
8.350613e+002;1.338819e-001
8.369898e+002;1.332627e-001
8.389184e+002;1.325905e-001
8.408469e+002;1.313638e-001
8.427755e+002;1.307462e-001
8.447040e+002;1.307763e-001
8.466326e+002;1.300335e-001
8.485611e+002;1.293197e-001
8.504897e+002;1.292222e-001
8.524182e+002;1.295362e-001
8.543467e+002;1.297261e-001
8.562753e+002;1.305369e-001
8.582039e+002;1.315238e-001
8.601324e+002;1.323554e-001
8.620610e+002;1.336554e-001
8.639895e+002;1.348825e-001
8.659180e+002;1.361250e-001
8.678466e+002;1.379324e-001
8.697751e+002;1.400275e-001
8.717037e+002;1.427909e-001
8.736323e+002;1.466988e-001
8.755608e+002;1.509357e-001
8.774893e+002;1.555033e-001
8.794179e+002;1.604813e-001
8.813464e+002;1.655712e-001
8.832750e+002;1.712052e-001
8.852036e+002;1.769745e-001
8.871321e+002;1.826828e-001
8.890606e+002;1.877351e-001
8.909892e+002;1.917765e-001
8.929177e+002;1.952534e-001
8.948463e+002;1.971513e-001
8.967748e+002;1.965562e-001
8.987034e+002;1.951290e-001
9.006319e+002;1.930758e-001
9.025605e+002;1.898376e-001
9.044890e+002;1.863794e-001
9.064175e+002;1.828053e-001
9.083461e+002;1.788481e-001
9.102747e+002;1.755417e-001
9.122032e+002;1.734423e-001
9.141318e+002;1.718286e-001
9.160603e+002;1.705451e-001
9.179888e+002;1.704234e-001
9.199174e+002;1.714850e-001
9.218459e+002;1.728250e-001
9.237745e+002;1.742217e-001
9.257031e+002;1.760247e-001
9.276316e+002;1.778661e-001
9.295601e+002;1.797196e-001
9.314887e+002;1.819981e-001
9.334172e+002;1.844112e-001
9.353458e+002;1.865613e-001
9.372744e+002;1.885717e-001
9.392029e+002;1.910004e-001
9.411314e+002;1.942653e-001
9.430600e+002;1.983202e-001
9.449885e+002;2.026726e-001
9.469171e+002;2.074016e-001
9.488456e+002;2.131585e-001
9.507742e+002;2.193794e-001
9.527027e+002;2.259935e-001
9.546313e+002;2.328743e-001
9.565598e+002;2.392594e-001
9.584883e+002;2.460811e-001
9.604169e+002;2.536778e-001
9.623455e+002;2.609133e-001
9.642740e+002;2.677288e-001
9.662026e+002;2.754340e-001
9.681311e+002;2.844076e-001
9.700596e+002;2.939780e-001
9.719882e+002;3.040935e-001
9.739167e+002;3.157189e-001
9.758453e+002;3.291114e-001
9.777739e+002;3.445877e-001
9.797024e+002;3.617541e-001
9.816309e+002;3.801866e-001
9.835595e+002;3.989757e-001
9.854880e+002;4.173298e-001
9.874166e+002;4.339695e-001
9.893452e+002;4.478498e-001
9.912737e+002;4.579479e-001
9.932022e+002;4.645768e-001
9.951307e+002;4.683918e-001
9.970593e+002;4.696522e-001
9.989879e+002;4.700541e-001
1.000916e+003;4.705309e-001
1.002845e+003;4.726522e-001
1.004773e+003;4.781078e-001
1.006702e+003;4.852820e-001
1.008631e+003;4.933905e-001
1.010559e+003;5.027022e-001
1.012488e+003;5.115663e-001
1.014416e+003;5.189487e-001
1.016345e+003;5.238482e-001
1.018273e+003;5.266812e-001
1.020202e+003;5.272191e-001
1.022130e+003;5.254245e-001
1.024059e+003;5.205458e-001
1.025988e+003;5.139217e-001
1.027916e+003;5.072562e-001
1.029845e+003;5.008667e-001
1.031773e+003;4.944030e-001
1.033702e+003;4.887504e-001
1.035630e+003;4.837683e-001
1.037559e+003;4.788460e-001
1.039487e+003;4.748153e-001
1.041416e+003;4.713274e-001
1.043344e+003;4.676681e-001
1.045273e+003;4.641277e-001
1.047202e+003;4.607683e-001
1.049130e+003;4.573066e-001
1.051059e+003;4.530550e-001
1.052987e+003;4.477374e-001
1.054916e+003;4.425221e-001
1.056844e+003;4.371527e-001
1.058773e+003;4.319547e-001
1.060701e+003;4.257388e-001
1.062630e+003;4.178371e-001
1.064558e+003;4.093749e-001
1.066487e+003;4.003780e-001
1.068416e+003;3.908978e-001
1.070344e+003;3.822854e-001
1.072273e+003;3.729003e-001
1.074201e+003;3.628814e-001
1.076130e+003;3.540972e-001
1.078058e+003;3.459951e-001
1.079987e+003;3.392297e-001
1.081915e+003;3.328413e-001
1.083844e+003;3.264343e-001
1.085773e+003;3.204625e-001
1.087701e+003;3.152895e-001
1.089630e+003;3.095648e-001
1.091558e+003;3.040436e-001
1.093487e+003;2.988812e-001
1.095415e+003;2.935161e-001
1.097344e+003;2.876766e-001
1.099272e+003;2.813760e-001
1.101201e+003;2.747700e-001
1.103129e+003;2.685684e-001
1.105058e+003;2.635501e-001
1.106987e+003;2.590081e-001
1.108915e+003;2.541466e-001
1.110844e+003;2.492149e-001
1.112772e+003;2.442332e-001
1.114701e+003;2.384632e-001
1.116629e+003;2.327129e-001
1.118558e+003;2.271567e-001
1.120486e+003;2.208266e-001
1.122415e+003;2.142231e-001
1.124344e+003;2.078851e-001
1.126272e+003;2.016870e-001
1.128201e+003;1.960639e-001
1.130129e+003;1.907154e-001
1.132058e+003;1.854561e-001
1.133986e+003;1.810124e-001
1.135915e+003;1.770979e-001
1.137843e+003;1.736978e-001
1.139772e+003;1.710915e-001
1.141700e+003;1.694268e-001
1.143629e+003;1.685894e-001
1.145557e+003;1.688243e-001
1.147486e+003;1.699183e-001
1.149415e+003;1.710434e-001
1.151343e+003;1.716660e-001
1.153272e+003;1.724903e-001
1.155200e+003;1.726979e-001
1.157129e+003;1.716589e-001
1.159057e+003;1.690729e-001
1.160986e+003;1.652265e-001
1.162914e+003;1.598817e-001
1.164843e+003;1.532819e-001
1.166771e+003;1.462046e-001
1.168700e+003;1.394257e-001
1.170629e+003;1.331779e-001
1.172557e+003;1.271224e-001
1.174486e+003;1.217711e-001
1.176414e+003;1.171505e-001
1.178343e+003;1.131795e-001
1.180271e+003;1.099144e-001
1.182200e+003;1.074281e-001
1.184128e+003;1.060051e-001
1.186057e+003;1.057093e-001
1.187986e+003;1.067782e-001
1.189914e+003;1.087740e-001
1.191843e+003;1.111059e-001
1.193771e+003;1.137865e-001
1.195700e+003;1.167335e-001
1.197628e+003;1.184758e-001
1.199557e+003;1.189198e-001
1.201485e+003;1.182472e-001
1.203414e+003;1.165397e-001
1.205343e+003;1.141796e-001
1.207271e+003;1.120908e-001
1.209200e+003;1.105355e-001
1.211128e+003;1.095420e-001
1.213057e+003;1.095253e-001
1.214985e+003;1.102301e-001
1.216914e+003;1.110032e-001
1.218842e+003;1.126117e-001
1.220771e+003;1.147970e-001
1.222699e+003;1.169351e-001
1.224628e+003;1.189169e-001
1.226557e+003;1.207291e-001
1.228485e+003;1.220654e-001
1.230414e+003;1.229329e-001
1.232342e+003;1.236573e-001
1.234271e+003;1.239716e-001
1.236199e+003;1.242342e-001
1.238128e+003;1.244363e-001
1.240056e+003;1.244278e-001
1.241985e+003;1.244512e-001
1.243913e+003;1.244692e-001
1.245842e+003;1.243557e-001
1.247771e+003;1.250005e-001
1.249699e+003;1.259817e-001
1.251628e+003;1.273952e-001
1.253556e+003;1.290999e-001
1.255485e+003;1.308210e-001
1.257413e+003;1.323956e-001
1.259342e+003;1.333386e-001
1.261270e+003;1.333653e-001
1.263199e+003;1.321657e-001
1.265127e+003;1.304975e-001
1.267056e+003;1.288981e-001
1.268985e+003;1.272568e-001
1.270913e+003;1.256129e-001
1.272842e+003;1.242555e-001
1.274770e+003;1.232241e-001
1.276699e+003;1.222080e-001
1.278627e+003;1.212028e-001
1.280556e+003;1.206031e-001
1.282484e+003;1.199479e-001
1.284413e+003;1.194910e-001
1.286342e+003;1.201221e-001
1.288270e+003;1.216657e-001
1.290199e+003;1.229939e-001
1.292127e+003;1.242989e-001
1.294056e+003;1.257376e-001
1.295984e+003;1.272974e-001
1.297913e+003;1.289787e-001
1.299841e+003;1.306393e-001
1.301770e+003;1.321961e-001
1.303698e+003;1.337026e-001
1.305627e+003;1.351864e-001
1.307556e+003;1.365992e-001
1.309484e+003;1.380086e-001
1.311413e+003;1.391522e-001
1.313341e+003;1.398589e-001
1.315270e+003;1.403175e-001
1.317198e+003;1.403304e-001
1.319127e+003;1.401317e-001
1.321055e+003;1.399082e-001
1.322984e+003;1.397533e-001
1.324912e+003;1.394870e-001
1.326841e+003;1.394708e-001
1.328770e+003;1.396928e-001
1.330698e+003;1.395667e-001
1.332627e+003;1.395377e-001
1.334555e+003;1.396156e-001
1.336484e+003;1.396297e-001
1.338412e+003;1.395207e-001
1.340341e+003;1.387684e-001
1.342269e+003;1.379989e-001
1.344198e+003;1.377618e-001
1.346126e+003;1.379827e-001
1.348055e+003;1.382290e-001
1.349984e+003;1.384684e-001
1.351912e+003;1.385720e-001
1.353841e+003;1.389990e-001
1.355769e+003;1.396956e-001
1.357698e+003;1.402971e-001
1.359626e+003;1.409859e-001
1.361555e+003;1.416964e-001
1.363483e+003;1.420837e-001
1.365412e+003;1.418921e-001
1.367341e+003;1.415671e-001
1.369269e+003;1.408583e-001
1.371198e+003;1.395140e-001
1.373126e+003;1.380516e-001
1.375055e+003;1.364811e-001
1.376983e+003;1.351120e-001
1.378912e+003;1.334166e-001
1.380840e+003;1.310224e-001
1.382769e+003;1.287583e-001
1.384698e+003;1.267831e-001
1.386626e+003;1.250625e-001
1.388555e+003;1.238735e-001
1.390483e+003;1.230890e-001
1.392412e+003;1.225663e-001
1.394340e+003;1.220957e-001
1.396269e+003;1.216898e-001
1.398197e+003;1.215234e-001
1.400126e+003;1.213784e-001
1.402054e+003;1.212907e-001
1.403983e+003;1.211493e-001
1.405911e+003;1.209999e-001
1.407840e+003;1.210846e-001
1.409769e+003;1.213554e-001
1.411697e+003;1.214955e-001
1.413626e+003;1.213842e-001
1.415554e+003;1.212165e-001
1.417483e+003;1.207641e-001
1.419411e+003;1.202067e-001
1.421340e+003;1.200660e-001
1.423268e+003;1.197130e-001
1.425197e+003;1.189946e-001
1.427125e+003;1.186646e-001
1.429054e+003;1.181515e-001
1.430983e+003;1.172493e-001
1.432911e+003;1.165580e-001
1.434840e+003;1.159984e-001
1.436768e+003;1.150989e-001
1.438697e+003;1.141961e-001
1.440625e+003;1.134856e-001
1.442554e+003;1.125348e-001
1.444482e+003;1.113307e-001
1.446411e+003;1.097972e-001
1.448340e+003;1.083733e-001
1.450268e+003;1.075266e-001
1.452197e+003;1.064964e-001
1.454125e+003;1.052006e-001
1.456054e+003;1.037440e-001
1.457982e+003;1.023058e-001
1.459911e+003;1.013112e-001
1.461839e+003;1.003487e-001
1.463768e+003;9.884941e-002
1.465697e+003;9.711877e-002
1.467625e+003;9.509949e-002
1.469554e+003;9.293581e-002
1.471482e+003;9.100138e-002
1.473411e+003;8.899073e-002
1.475339e+003;8.663369e-002
1.477268e+003;8.418901e-002
1.479196e+003;8.191779e-002
1.481125e+003;7.977057e-002
1.483053e+003;7.785196e-002
1.484982e+003;7.601918e-002
1.486911e+003;7.415716e-002
1.488839e+003;7.254423e-002
1.490768e+003;7.133758e-002
1.492696e+003;7.024620e-002
1.494625e+003;6.948560e-002
1.496553e+003;6.848769e-002
1.498482e+003;6.734257e-002
1.500410e+003;6.635810e-002
1.502339e+003;6.561861e-002
1.504267e+003;6.487900e-002
1.506196e+003;6.394097e-002
1.508125e+003;6.309970e-002
1.510053e+003;6.232787e-002
1.511982e+003;6.137850e-002
1.513910e+003;6.059932e-002
1.515839e+003;5.996812e-002
1.517767e+003;5.941871e-002
1.519696e+003;5.886028e-002
1.521624e+003;5.816788e-002
1.523553e+003;5.768938e-002
1.525481e+003;5.735896e-002
1.527410e+003;5.727994e-002
1.529339e+003;5.732417e-002
1.531267e+003;5.734611e-002
1.533196e+003;5.737333e-002
1.535124e+003;5.739670e-002
1.537053e+003;5.747998e-002
1.538981e+003;5.735231e-002
1.540910e+003;5.735427e-002
1.542838e+003;5.751811e-002
1.544767e+003;5.762827e-002
1.546695e+003;5.775871e-002
1.548624e+003;5.775905e-002
1.550553e+003;5.773691e-002
1.552481e+003;5.803103e-002
1.554410e+003;5.860781e-002
1.556338e+003;5.898449e-002
1.558267e+003;5.892407e-002
1.560195e+003;5.899163e-002
1.562124e+003;5.939611e-002
1.564052e+003;5.985261e-002
1.565981e+003;6.028062e-002
1.567910e+003;6.049606e-002
1.569838e+003;6.101488e-002
1.571767e+003;6.168110e-002
1.573695e+003;6.207043e-002
1.575624e+003;6.218929e-002
1.577552e+003;6.245204e-002
1.579481e+003;6.328232e-002
1.581409e+003;6.390584e-002
1.583338e+003;6.436231e-002
1.585266e+003;6.480660e-002
1.587195e+003;6.540189e-002
1.589124e+003;6.630012e-002
1.591052e+003;6.703176e-002
1.592981e+003;6.764048e-002
1.594909e+003;6.821664e-002
1.596838e+003;6.879392e-002
1.598766e+003;6.934647e-002
1.600695e+003;6.984705e-002
1.602623e+003;7.018022e-002
1.604552e+003;7.030315e-002
1.606480e+003;7.068560e-002
1.608409e+003;7.138229e-002
1.610338e+003;7.214633e-002
1.612266e+003;7.277380e-002
1.614195e+003;7.326236e-002
1.616123e+003;7.368892e-002
1.618052e+003;7.412344e-002
1.619980e+003;7.492457e-002
1.621909e+003;7.581784e-002
1.623837e+003;7.649354e-002
1.625766e+003;7.693148e-002
1.627694e+003;7.761879e-002
1.629623e+003;7.816276e-002
1.631552e+003;7.836261e-002
1.633480e+003;7.874114e-002
1.635409e+003;7.900843e-002
1.637337e+003;7.913670e-002
1.639266e+003;7.944453e-002
1.641194e+003;7.953545e-002
1.643123e+003;7.934118e-002
1.645051e+003;7.918032e-002
1.646980e+003;7.885861e-002
1.648909e+003;7.830150e-002
1.650837e+003;7.757758e-002
1.652766e+003;7.671572e-002
1.654694e+003;7.629585e-002
1.656623e+003;7.555322e-002
1.658551e+003;7.432384e-002
1.660480e+003;7.322799e-002
1.662408e+003;7.228908e-002
1.664337e+003;7.149994e-002
1.666266e+003;7.047378e-002
1.668194e+003;6.937519e-002
1.670123e+003;6.829435e-002
1.672051e+003;6.716710e-002
1.673980e+003;6.613838e-002
1.675908e+003;6.486277e-002
1.677837e+003;6.358455e-002
1.679765e+003;6.254284e-002
1.681694e+003;6.145934e-002
1.683622e+003;6.021652e-002
1.685551e+003;5.903911e-002
1.687479e+003;5.797362e-002
1.689408e+003;5.684721e-002
1.691337e+003;5.573388e-002
1.693265e+003;5.480771e-002
1.695194e+003;5.378483e-002
1.697122e+003;5.273378e-002
1.699051e+003;5.186987e-002
1.700979e+003;5.103048e-002
1.702908e+003;5.031940e-002
1.704836e+003;4.964159e-002
1.706765e+003;4.911688e-002
1.708693e+003;4.851955e-002
1.710622e+003;4.776859e-002
1.712551e+003;4.713961e-002
1.714479e+003;4.676479e-002
1.716408e+003;4.618211e-002
1.718336e+003;4.549986e-002
1.720265e+003;4.522260e-002
1.722193e+003;4.514590e-002
1.724122e+003;4.501930e-002
1.726050e+003;4.500049e-002
1.727979e+003;4.491883e-002
1.729908e+003;4.465270e-002
1.731836e+003;4.428112e-002
1.733765e+003;4.387031e-002
1.735693e+003;4.362921e-002
1.737622e+003;4.332960e-002
1.739550e+003;4.305544e-002
1.741479e+003;4.278895e-002
1.743407e+003;4.223885e-002
1.745336e+003;4.152593e-002
1.747265e+003;4.076789e-002
1.749193e+003;4.011229e-002
1.751122e+003;3.957835e-002
1.753050e+003;3.934373e-002
1.754979e+003;3.931383e-002
1.756907e+003;3.898583e-002
1.758836e+003;3.860031e-002
1.760764e+003;3.837649e-002
1.762693e+003;3.832405e-002
1.764621e+003;3.821379e-002
1.766550e+003;3.808797e-002
1.768479e+003;3.793626e-002
1.770407e+003;3.776027e-002
1.772336e+003;3.763863e-002
1.774264e+003;3.752500e-002
1.776193e+003;3.756658e-002
1.778121e+003;3.764531e-002
1.780050e+003;3.750680e-002
1.781978e+003;3.723354e-002
1.783907e+003;3.699055e-002
1.785835e+003;3.680629e-002
1.787764e+003;3.666000e-002
1.789693e+003;3.648241e-002
1.791621e+003;3.631072e-002
1.793550e+003;3.618912e-002
1.795478e+003;3.612636e-002
1.797407e+003;3.594599e-002
1.799335e+003;3.562113e-002
1.801264e+003;3.556007e-002
1.803192e+003;3.552896e-002
1.805121e+003;3.521533e-002
1.807049e+003;3.511743e-002
1.808978e+003;3.519158e-002
1.810907e+003;3.525177e-002
1.812835e+003;3.528799e-002
1.814764e+003;3.514031e-002
1.816692e+003;3.479193e-002
1.818621e+003;3.443938e-002
1.820549e+003;3.442205e-002
1.822478e+003;3.444899e-002
1.824406e+003;3.436722e-002
1.826335e+003;3.432659e-002
1.828264e+003;3.416554e-002
1.830192e+003;3.396044e-002
1.832121e+003;3.384845e-002
1.834049e+003;3.382470e-002
1.835978e+003;3.380332e-002
1.837906e+003;3.356661e-002
1.839835e+003;3.341042e-002
1.841763e+003;3.320958e-002
1.843692e+003;3.291660e-002
1.845620e+003;3.297637e-002
1.847549e+003;3.309539e-002
1.849478e+003;3.299109e-002
1.851406e+003;3.284973e-002
1.853335e+003;3.267790e-002
1.855263e+003;3.253167e-002
1.857192e+003;3.253503e-002
1.859120e+003;3.259232e-002
1.861049e+003;3.273481e-002
1.862977e+003;3.272474e-002
1.864906e+003;3.268497e-002
1.866834e+003;3.263368e-002
1.868763e+003;3.250546e-002
1.870692e+003;3.226971e-002
1.872620e+003;3.209300e-002
1.874549e+003;3.231589e-002
1.876477e+003;3.259803e-002
1.878406e+003;3.238789e-002
1.880334e+003;3.204352e-002
1.882263e+003;3.191837e-002
1.884191e+003;3.205911e-002
1.886120e+003;3.210374e-002
1.888048e+003;3.213696e-002
1.889977e+003;3.233923e-002
1.891906e+003;3.240763e-002
1.893834e+003;3.225140e-002
1.895763e+003;3.215259e-002
1.897691e+003;3.221328e-002
1.899620e+003;3.234816e-002
1.901548e+003;3.230557e-002
1.903477e+003;3.241849e-002
1.905405e+003;3.260728e-002
1.907334e+003;3.273989e-002
1.909262e+003;3.285913e-002
1.911191e+003;3.299738e-002
1.913120e+003;3.324774e-002
1.915048e+003;3.349398e-002
1.916977e+003;3.353568e-002
1.918905e+003;3.337611e-002
1.920834e+003;3.341489e-002
1.922762e+003;3.354932e-002
1.924691e+003;3.368361e-002
1.926619e+003;3.395342e-002
1.928548e+003;3.415464e-002
1.930477e+003;3.415561e-002
1.932405e+003;3.425961e-002
1.934334e+003;3.450764e-002
1.936262e+003;3.452332e-002
1.938191e+003;3.451047e-002
1.940119e+003;3.473489e-002
1.942048e+003;3.498485e-002
1.943976e+003;3.508790e-002
1.945905e+003;3.538465e-002
1.947833e+003;3.568293e-002
1.949762e+003;3.584256e-002
1.951691e+003;3.590971e-002
1.953619e+003;3.604311e-002
1.955548e+003;3.616528e-002
1.957476e+003;3.620522e-002
1.959405e+003;3.611660e-002
1.961333e+003;3.610756e-002
1.963262e+003;3.637496e-002
1.965190e+003;3.667832e-002
1.967119e+003;3.697510e-002
1.969047e+003;3.712377e-002
1.970976e+003;3.708104e-002
1.972905e+003;3.715868e-002
1.974833e+003;3.742499e-002
1.976762e+003;3.764188e-002
1.978690e+003;3.774064e-002
1.980619e+003;3.781312e-002
1.982547e+003;3.782642e-002
1.984476e+003;3.776764e-002
1.986404e+003;3.777147e-002
1.988333e+003;3.793072e-002
1.990261e+003;3.800652e-002
1.992190e+003;3.815554e-002
1.994119e+003;3.839039e-002
1.996047e+003;3.827429e-002
1.997976e+003;3.803737e-002
1.999904e+003;3.820264e-002
2.001833e+003;3.844780e-002
2.003761e+003;3.869741e-002
2.005690e+003;3.890283e-002
2.007618e+003;3.901512e-002
2.009547e+003;3.914193e-002
2.011476e+003;3.927586e-002
2.013404e+003;3.946897e-002
2.015333e+003;3.982472e-002
2.017261e+003;4.012676e-002
2.019190e+003;4.025372e-002
2.021118e+003;4.020977e-002
2.023047e+003;4.036271e-002
2.024975e+003;4.049563e-002
2.026904e+003;4.056817e-002
2.028833e+003;4.078281e-002
2.030761e+003;4.104899e-002
2.032690e+003;4.123779e-002
2.034618e+003;4.138351e-002
2.036547e+003;4.147621e-002
2.038475e+003;4.149225e-002
2.040404e+003;4.145171e-002
2.042332e+003;4.160852e-002
2.044261e+003;4.179501e-002
2.046189e+003;4.198483e-002
2.048118e+003;4.201165e-002
2.050047e+003;4.175973e-002
2.051975e+003;4.185367e-002
2.053904e+003;4.198063e-002
2.055832e+003;4.188418e-002
2.057761e+003;4.178399e-002
2.059689e+003;4.183124e-002
2.061618e+003;4.196833e-002
2.063546e+003;4.196256e-002
2.065475e+003;4.205414e-002
2.067404e+003;4.217060e-002
2.069332e+003;4.208517e-002
2.071260e+003;4.187998e-002
2.073189e+003;4.191877e-002
2.075118e+003;4.217761e-002
2.077046e+003;4.225656e-002
2.078975e+003;4.233216e-002
2.080903e+003;4.224966e-002
2.082832e+003;4.211751e-002
2.084760e+003;4.217717e-002
2.086689e+003;4.208046e-002
2.088617e+003;4.203848e-002
2.090546e+003;4.231631e-002
2.092475e+003;4.258500e-002
2.094403e+003;4.272003e-002
2.096332e+003;4.280975e-002
2.098260e+003;4.286449e-002
2.100189e+003;4.296669e-002
2.102117e+003;4.321587e-002
2.104046e+003;4.342872e-002
2.105974e+003;4.342139e-002
2.107903e+003;4.340257e-002
2.109832e+003;4.341608e-002
2.111760e+003;4.347185e-002
2.113688e+003;4.337807e-002
2.115617e+003;4.324617e-002
2.117546e+003;4.319819e-002
2.119474e+003;4.334274e-002
2.121403e+003;4.332495e-002
2.123331e+003;4.331939e-002
2.125260e+003;4.371623e-002
2.127188e+003;4.378549e-002
2.129117e+003;4.382716e-002
2.131045e+003;4.400738e-002
2.132974e+003;4.385803e-002
2.134903e+003;4.368512e-002
2.136831e+003;4.369886e-002
2.138760e+003;4.367215e-002
2.140688e+003;4.366966e-002
2.142617e+003;4.364640e-002
2.144545e+003;4.359375e-002
2.146474e+003;4.348299e-002
2.148402e+003;4.333941e-002
2.150331e+003;4.324657e-002
2.152260e+003;4.300126e-002
2.154188e+003;4.313433e-002
2.156117e+003;4.327044e-002
2.158045e+003;4.297280e-002
2.159974e+003;4.274851e-002
2.161902e+003;4.268873e-002
2.163831e+003;4.261131e-002
2.165759e+003;4.272116e-002
2.167688e+003;4.278606e-002
2.169616e+003;4.259289e-002
2.171545e+003;4.235985e-002
2.173474e+003;4.219276e-002
2.175402e+003;4.194851e-002
2.177331e+003;4.162610e-002
2.179259e+003;4.140451e-002
2.181188e+003;4.117753e-002
2.183116e+003;4.110264e-002
2.185045e+003;4.131569e-002
2.186973e+003;4.118052e-002
2.188902e+003;4.082937e-002
2.190831e+003;4.084797e-002
2.192759e+003;4.089653e-002
2.194688e+003;4.041278e-002
2.196616e+003;4.022911e-002
2.198545e+003;4.050364e-002
2.200473e+003;4.062103e-002
2.202402e+003;4.034308e-002
2.204330e+003;4.005586e-002
2.206259e+003;4.003235e-002
2.208188e+003;4.006124e-002
2.210116e+003;4.002033e-002
2.212044e+003;3.992162e-002
2.213973e+003;3.969164e-002
2.215902e+003;3.960702e-002
2.217830e+003;3.954209e-002
2.219759e+003;3.935842e-002
2.221687e+003;3.914643e-002
2.223616e+003;3.909313e-002
2.225544e+003;3.919897e-002
2.227473e+003;3.931246e-002
2.229401e+003;3.929225e-002
2.231330e+003;3.915662e-002
2.233259e+003;3.916880e-002
2.235187e+003;3.924481e-002
2.237116e+003;3.911728e-002
2.239044e+003;3.877852e-002
2.240973e+003;3.866061e-002
2.242901e+003;3.858723e-002
2.244830e+003;3.837656e-002
2.246758e+003;3.838221e-002
2.248687e+003;3.833567e-002
2.250615e+003;3.806956e-002
2.252544e+003;3.802240e-002
2.254473e+003;3.819027e-002
2.256401e+003;3.803187e-002
2.258330e+003;3.778116e-002
2.260258e+003;3.758501e-002
2.262187e+003;3.743737e-002
2.264115e+003;3.737266e-002
2.266044e+003;3.710974e-002
2.267972e+003;3.693423e-002
2.269901e+003;3.691843e-002
2.271830e+003;3.692294e-002
2.273758e+003;3.696082e-002
2.275687e+003;3.686663e-002
2.277615e+003;3.680225e-002
2.279544e+003;3.680225e-002
2.281472e+003;3.666829e-002
2.283401e+003;3.659936e-002
2.285329e+003;3.679511e-002
2.287258e+003;3.682404e-002
2.289187e+003;3.656750e-002
2.291115e+003;3.653741e-002
2.293043e+003;3.665128e-002
2.294972e+003;3.650738e-002
2.296901e+003;3.641650e-002
2.298829e+003;3.653200e-002
2.300758e+003;3.655662e-002
2.302686e+003;3.644976e-002
2.304615e+003;3.665679e-002
2.306543e+003;3.684358e-002
2.308472e+003;3.674596e-002
2.310400e+003;3.661887e-002
2.312329e+003;3.650234e-002
2.314258e+003;3.643502e-002
2.316186e+003;3.643268e-002
2.318115e+003;3.650115e-002
2.320043e+003;3.662031e-002
2.321972e+003;3.675111e-002
2.323900e+003;3.671964e-002
2.325829e+003;3.679392e-002
2.327757e+003;3.703709e-002
2.329686e+003;3.710869e-002
2.331615e+003;3.704608e-002
2.333543e+003;3.716586e-002
2.335472e+003;3.732882e-002
2.337400e+003;3.747006e-002
2.339329e+003;3.752020e-002
2.341257e+003;3.760141e-002
2.343186e+003;3.780513e-002
2.345114e+003;3.808728e-002
2.347043e+003;3.803252e-002
2.348971e+003;3.781225e-002
2.350900e+003;3.782251e-002
2.352829e+003;3.806908e-002
2.354757e+003;3.851996e-002
2.356686e+003;3.875077e-002
2.358614e+003;3.890660e-002
2.360543e+003;3.894785e-002
2.362471e+003;3.891831e-002
2.364400e+003;3.893607e-002
2.366328e+003;3.894955e-002
2.368257e+003;3.892229e-002
2.370186e+003;3.902795e-002
2.372114e+003;3.933099e-002
2.374042e+003;3.940130e-002
2.375971e+003;3.938650e-002
2.377900e+003;3.960118e-002
2.379828e+003;3.986405e-002
2.381757e+003;3.996147e-002
2.383685e+003;4.015689e-002
2.385614e+003;4.038268e-002
2.387542e+003;4.055230e-002
2.389471e+003;4.064751e-002
2.391399e+003;4.048588e-002
2.393328e+003;4.042031e-002
2.395257e+003;4.064955e-002
2.397185e+003;4.084855e-002
2.399114e+003;4.092744e-002
2.401042e+003;4.115054e-002
2.402971e+003;4.147562e-002
2.404899e+003;4.173657e-002
2.406828e+003;4.202585e-002
2.408756e+003;4.201085e-002
2.410685e+003;4.205757e-002
2.412614e+003;4.252883e-002
2.414542e+003;4.290604e-002
2.416471e+003;4.300492e-002
2.418399e+003;4.301062e-002
2.420328e+003;4.305730e-002
2.422256e+003;4.332513e-002
2.424185e+003;4.351863e-002
2.426113e+003;4.375896e-002
2.428042e+003;4.405315e-002
2.429970e+003;4.426377e-002
2.431899e+003;4.456549e-002
2.433828e+003;4.489465e-002
2.435756e+003;4.513766e-002
2.437685e+003;4.528989e-002
2.439613e+003;4.527452e-002
2.441542e+003;4.538456e-002
2.443470e+003;4.574320e-002
2.445399e+003;4.603830e-002
2.447327e+003;4.623518e-002
2.449256e+003;4.652968e-002
2.451185e+003;4.702923e-002
2.453113e+003;4.722530e-002
2.455042e+003;4.731763e-002
2.456970e+003;4.757689e-002
2.458899e+003;4.774507e-002
2.460827e+003;4.777880e-002
2.462756e+003;4.804837e-002
2.464684e+003;4.843441e-002
2.466613e+003;4.863271e-002
2.468542e+003;4.872474e-002
2.470470e+003;4.904357e-002
2.472398e+003;4.954654e-002
2.474327e+003;4.992644e-002
2.476256e+003;5.006656e-002
2.478184e+003;5.028261e-002
2.480113e+003;5.039423e-002
2.482041e+003;5.030411e-002
2.483970e+003;5.034124e-002
2.485898e+003;5.051034e-002
2.487827e+003;5.051246e-002
2.489755e+003;5.065329e-002
2.491684e+003;5.099143e-002
2.493613e+003;5.124414e-002
2.495541e+003;5.157713e-002
2.497470e+003;5.171883e-002
2.499398e+003;5.167490e-002
2.501327e+003;5.180894e-002
2.503255e+003;5.214226e-002
2.505184e+003;5.218956e-002
2.507112e+003;5.220649e-002
2.509041e+003;5.243867e-002
2.510969e+003;5.250735e-002
2.512898e+003;5.256045e-002
2.514827e+003;5.268597e-002
2.516755e+003;5.279686e-002
2.518684e+003;5.303580e-002
2.520612e+003;5.327906e-002
2.522541e+003;5.338722e-002
2.524469e+003;5.362176e-002
2.526398e+003;5.380343e-002
2.528326e+003;5.376555e-002
2.530255e+003;5.372453e-002
2.532184e+003;5.375363e-002
2.534112e+003;5.379897e-002
2.536041e+003;5.412691e-002
2.537969e+003;5.455465e-002
2.539898e+003;5.476741e-002
2.541826e+003;5.463201e-002
2.543755e+003;5.445315e-002
2.545683e+003;5.454123e-002
2.547612e+003;5.466211e-002
2.549541e+003;5.485827e-002
2.551469e+003;5.489831e-002
2.553397e+003;5.507853e-002
2.555326e+003;5.534036e-002
2.557255e+003;5.563787e-002
2.559183e+003;5.583847e-002
2.561112e+003;5.583918e-002
2.563040e+003;5.592982e-002
2.564969e+003;5.593634e-002
2.566897e+003;5.590427e-002
2.568826e+003;5.596396e-002
2.570754e+003;5.637390e-002
2.572683e+003;5.687625e-002
2.574612e+003;5.688358e-002
2.576540e+003;5.686632e-002
2.578469e+003;5.715350e-002
2.580397e+003;5.740438e-002
2.582326e+003;5.742941e-002
2.584254e+003;5.751542e-002
2.586183e+003;5.779111e-002
2.588111e+003;5.803080e-002
2.590040e+003;5.816666e-002
2.591969e+003;5.843037e-002
2.593897e+003;5.855984e-002
2.595826e+003;5.867698e-002
2.597754e+003;5.868646e-002
2.599683e+003;5.864205e-002
2.601611e+003;5.887466e-002
2.603540e+003;5.924854e-002
2.605468e+003;5.945256e-002
2.607397e+003;5.970158e-002
2.609325e+003;5.987383e-002
2.611254e+003;5.996173e-002
2.613183e+003;6.027491e-002
2.615111e+003;6.062664e-002
2.617040e+003;6.098807e-002
2.618968e+003;6.114908e-002
2.620897e+003;6.119978e-002
2.622825e+003;6.152328e-002
2.624754e+003;6.198367e-002
2.626682e+003;6.209700e-002
2.628611e+003;6.229162e-002
2.630540e+003;6.280535e-002
2.632468e+003;6.334254e-002
2.634396e+003;6.360845e-002
2.636325e+003;6.354834e-002
2.638254e+003;6.364957e-002
2.640182e+003;6.409060e-002
2.642111e+003;6.451793e-002
2.644039e+003;6.460524e-002
2.645968e+003;6.462092e-002
2.647896e+003;6.509900e-002
2.649825e+003;6.547913e-002
2.651753e+003;6.586444e-002
2.653682e+003;6.625712e-002
2.655611e+003;6.630703e-002
2.657539e+003;6.648130e-002
2.659468e+003;6.679346e-002
2.661396e+003;6.695892e-002
2.663325e+003;6.701393e-002
2.665253e+003;6.735372e-002
2.667182e+003;6.762070e-002
2.669110e+003;6.796250e-002
2.671039e+003;6.834363e-002
2.672968e+003;6.852323e-002
2.674896e+003;6.885611e-002
2.676825e+003;6.915491e-002
2.678753e+003;6.948183e-002
2.680682e+003;6.969115e-002
2.682610e+003;6.975421e-002
2.684539e+003;7.041154e-002
2.686467e+003;7.079892e-002
2.688396e+003;7.079236e-002
2.690324e+003;7.109371e-002
2.692253e+003;7.134828e-002
2.694182e+003;7.146810e-002
2.696110e+003;7.161679e-002
2.698039e+003;7.175490e-002
2.699967e+003;7.200880e-002
2.701896e+003;7.237002e-002
2.703824e+003;7.271355e-002
2.705753e+003;7.279719e-002
2.707681e+003;7.288375e-002
2.709610e+003;7.298690e-002
2.711539e+003;7.333716e-002
2.713467e+003;7.371330e-002
2.715396e+003;7.371660e-002
2.717324e+003;7.383688e-002
2.719253e+003;7.411754e-002
2.721181e+003;7.439300e-002
2.723110e+003;7.452846e-002
2.725038e+003;7.473401e-002
2.726967e+003;7.515225e-002
2.728896e+003;7.531824e-002
2.730824e+003;7.528088e-002
2.732752e+003;7.541185e-002
2.734681e+003;7.565875e-002
2.736610e+003;7.598519e-002
2.738538e+003;7.624707e-002
2.740467e+003;7.623353e-002
2.742395e+003;7.635973e-002
2.744324e+003;7.661088e-002
2.746252e+003;7.654855e-002
2.748181e+003;7.649212e-002
2.750109e+003;7.691273e-002
2.752038e+003;7.734289e-002
2.753967e+003;7.743749e-002
2.755895e+003;7.758436e-002
2.757824e+003;7.782710e-002
2.759752e+003;7.803021e-002
2.761681e+003;7.824710e-002
2.763609e+003;7.843596e-002
2.765538e+003;7.860683e-002
2.767466e+003;7.885337e-002
2.769395e+003;7.932312e-002
2.771323e+003;7.970289e-002
2.773252e+003;8.003474e-002
2.775181e+003;8.038247e-002
2.777109e+003;8.060744e-002
2.779038e+003;8.073628e-002
2.780966e+003;8.096842e-002
2.782895e+003;8.128610e-002
2.784823e+003;8.166271e-002
2.786752e+003;8.205497e-002
2.788680e+003;8.256030e-002
2.790609e+003;8.282180e-002
2.792538e+003;8.299240e-002
2.794466e+003;8.352095e-002
2.796395e+003;8.393303e-002
2.798323e+003;8.440409e-002
2.800252e+003;8.501011e-002
2.802180e+003;8.529382e-002
2.804109e+003;8.555742e-002
2.806037e+003;8.605213e-002
2.807966e+003;8.655045e-002
2.809895e+003;8.705080e-002
2.811823e+003;8.739083e-002
2.813751e+003;8.778121e-002
2.815680e+003;8.813021e-002
2.817609e+003;8.866785e-002
2.819537e+003;8.929223e-002
2.821466e+003;8.981078e-002
2.823394e+003;9.014531e-002
2.825323e+003;9.087612e-002
2.827251e+003;9.190606e-002
2.829180e+003;9.268623e-002
2.831108e+003;9.320631e-002
2.833037e+003;9.388351e-002
2.834966e+003;9.460817e-002
2.836894e+003;9.519445e-002
2.838823e+003;9.598428e-002
2.840751e+003;9.714127e-002
2.842680e+003;9.838096e-002
2.844608e+003;9.973992e-002
2.846537e+003;1.012060e-001
2.848465e+003;1.026779e-001
2.850394e+003;1.038180e-001
2.852323e+003;1.045808e-001
2.854251e+003;1.054093e-001
2.856180e+003;1.067939e-001
2.858108e+003;1.083544e-001
2.860037e+003;1.096785e-001
2.861965e+003;1.110887e-001
2.863894e+003;1.125679e-001
2.865822e+003;1.138985e-001
2.867751e+003;1.152946e-001
2.869679e+003;1.165372e-001
2.871608e+003;1.171168e-001
2.873536e+003;1.177612e-001
2.875465e+003;1.185083e-001
2.877394e+003;1.191579e-001
2.879322e+003;1.198629e-001
2.881251e+003;1.198617e-001
2.883179e+003;1.198429e-001
2.885108e+003;1.204941e-001
2.887036e+003;1.210050e-001
2.888965e+003;1.212696e-001
2.890893e+003;1.214271e-001
2.892822e+003;1.211783e-001
2.894750e+003;1.207661e-001
2.896679e+003;1.205896e-001
2.898608e+003;1.200808e-001
2.900536e+003;1.193682e-001
2.902465e+003;1.188049e-001
2.904393e+003;1.184571e-001
2.906322e+003;1.181049e-001
2.908250e+003;1.174049e-001
2.910179e+003;1.167178e-001
2.912107e+003;1.166399e-001
2.914036e+003;1.164673e-001
2.915965e+003;1.157627e-001
2.917893e+003;1.146964e-001
2.919822e+003;1.136287e-001
2.921750e+003;1.127199e-001
2.923679e+003;1.118791e-001
2.925607e+003;1.110673e-001
2.927536e+003;1.101987e-001
2.929464e+003;1.094941e-001
2.931393e+003;1.084855e-001
2.933322e+003;1.074985e-001
2.935250e+003;1.067756e-001
2.937178e+003;1.056883e-001
2.939107e+003;1.039595e-001
2.941036e+003;1.022928e-001
2.942964e+003;1.011744e-001
2.944893e+003;1.001461e-001
2.946821e+003;9.882224e-002
2.948750e+003;9.751903e-002
2.950678e+003;9.647481e-002
2.952607e+003;9.566550e-002
2.954535e+003;9.460080e-002
2.956464e+003;9.319460e-002
2.958393e+003;9.224880e-002
2.960321e+003;9.155793e-002
2.962250e+003;9.070424e-002
2.964178e+003;8.988184e-002
2.966107e+003;8.900537e-002
2.968035e+003;8.818837e-002
2.969964e+003;8.776547e-002
2.971892e+003;8.743418e-002
2.973821e+003;8.696444e-002
2.975750e+003;8.602411e-002
2.977678e+003;8.507032e-002
2.979607e+003;8.447194e-002
2.981535e+003;8.436811e-002
2.983464e+003;8.409610e-002
2.985392e+003;8.370388e-002
2.987321e+003;8.353183e-002
2.989249e+003;8.303139e-002
2.991178e+003;8.265155e-002
2.993106e+003;8.240433e-002
2.995035e+003;8.219969e-002
2.996964e+003;8.220665e-002
2.998892e+003;8.214596e-002
3.000821e+003;8.228189e-002
3.002749e+003;8.230267e-002
3.004678e+003;8.218796e-002
3.006606e+003;8.244463e-002
3.008535e+003;8.272471e-002
3.010463e+003;8.295690e-002
3.012392e+003;8.328824e-002
3.014321e+003;8.346252e-002
3.016249e+003;8.359453e-002
3.018177e+003;8.389352e-002
3.020106e+003;8.419596e-002
3.022035e+003;8.469505e-002
3.023963e+003;8.509696e-002
3.025892e+003;8.531245e-002
3.027820e+003;8.577241e-002
3.029749e+003;8.641609e-002
3.031677e+003;8.690126e-002
3.033606e+003;8.707181e-002
3.035534e+003;8.753927e-002
3.037463e+003;8.829755e-002
3.039392e+003;8.901066e-002
3.041320e+003;8.953799e-002
3.043249e+003;9.009398e-002
3.045177e+003;9.045615e-002
3.047106e+003;9.057900e-002
3.049034e+003;9.075553e-002
3.050963e+003;9.162172e-002
3.052891e+003;9.229654e-002
3.054820e+003;9.255020e-002
3.056749e+003;9.333128e-002
3.058677e+003;9.418728e-002
3.060606e+003;9.486611e-002
3.062534e+003;9.535030e-002
3.064463e+003;9.594655e-002
3.066391e+003;9.645917e-002
3.068320e+003;9.682872e-002
3.070248e+003;9.714342e-002
3.072177e+003;9.752641e-002
3.074105e+003;9.819013e-002
3.076034e+003;9.901644e-002
3.077963e+003;9.947748e-002
3.079891e+003;9.971657e-002
3.081820e+003;1.004768e-001
3.083748e+003;1.015425e-001
3.085677e+003;1.023217e-001
3.087605e+003;1.029967e-001
3.089534e+003;1.034588e-001
3.091462e+003;1.038138e-001
3.093391e+003;1.044105e-001
3.095320e+003;1.051680e-001
3.097248e+003;1.062374e-001
3.099177e+003;1.071854e-001
3.101105e+003;1.076486e-001
3.103034e+003;1.081955e-001
3.104962e+003;1.086969e-001
3.106891e+003;1.091745e-001
3.108819e+003;1.099072e-001
3.110748e+003;1.107897e-001
3.112677e+003;1.116784e-001
3.114605e+003;1.122564e-001
3.116533e+003;1.126613e-001
3.118462e+003;1.132410e-001
3.120391e+003;1.138559e-001
3.122319e+003;1.143117e-001
3.124248e+003;1.148901e-001
3.126176e+003;1.158560e-001
3.128105e+003;1.168304e-001
3.130033e+003;1.176104e-001
3.131962e+003;1.183308e-001
3.133890e+003;1.189918e-001
3.135819e+003;1.196210e-001
3.137748e+003;1.205071e-001
3.139676e+003;1.211323e-001
3.141605e+003;1.212346e-001
3.143533e+003;1.220254e-001
3.145462e+003;1.230466e-001
3.147390e+003;1.233634e-001
3.149319e+003;1.238159e-001
3.151247e+003;1.248418e-001
3.153176e+003;1.256983e-001
3.155104e+003;1.260607e-001
3.157033e+003;1.264460e-001
3.158962e+003;1.270581e-001
3.160890e+003;1.279176e-001
3.162819e+003;1.286510e-001
3.164747e+003;1.291653e-001
3.166676e+003;1.301649e-001
3.168604e+003;1.314291e-001
3.170533e+003;1.323486e-001
3.172461e+003;1.325102e-001
3.174390e+003;1.328029e-001
3.176319e+003;1.335001e-001
3.178247e+003;1.342152e-001
3.180176e+003;1.350923e-001
3.182104e+003;1.359221e-001
3.184033e+003;1.365741e-001
3.185961e+003;1.373426e-001
3.187890e+003;1.380777e-001
3.189818e+003;1.388322e-001
3.191747e+003;1.392588e-001
3.193676e+003;1.395034e-001
3.195604e+003;1.398272e-001
3.197532e+003;1.404605e-001
3.199461e+003;1.416718e-001
3.201390e+003;1.424030e-001
3.203318e+003;1.426451e-001
3.205247e+003;1.436006e-001
3.207175e+003;1.447401e-001
3.209104e+003;1.453309e-001
3.211032e+003;1.459418e-001
3.212961e+003;1.467141e-001
3.214889e+003;1.473533e-001
3.216818e+003;1.474605e-001
3.218747e+003;1.475491e-001
3.220675e+003;1.482554e-001
3.222604e+003;1.490971e-001
3.224532e+003;1.496844e-001
3.226461e+003;1.500649e-001
3.228389e+003;1.501837e-001
3.230318e+003;1.509758e-001
3.232246e+003;1.517959e-001
3.234175e+003;1.523903e-001
3.236104e+003;1.530350e-001
3.238032e+003;1.537057e-001
3.239961e+003;1.543326e-001
3.241889e+003;1.546737e-001
3.243818e+003;1.546970e-001
3.245746e+003;1.552245e-001
3.247675e+003;1.562593e-001
3.249603e+003;1.566172e-001
3.251532e+003;1.567005e-001
3.253460e+003;1.571979e-001
3.255389e+003;1.578964e-001
3.257318e+003;1.582745e-001
3.259246e+003;1.588039e-001
3.261175e+003;1.591692e-001
3.263103e+003;1.589941e-001
3.265032e+003;1.591981e-001
3.266960e+003;1.600650e-001
3.268889e+003;1.607245e-001
3.270817e+003;1.605988e-001
3.272746e+003;1.605564e-001
3.274675e+003;1.610202e-001
3.276603e+003;1.615266e-001
3.278531e+003;1.621220e-001
3.280460e+003;1.624292e-001
3.282389e+003;1.623280e-001
3.284317e+003;1.626843e-001
3.286246e+003;1.632871e-001
3.288174e+003;1.634440e-001
3.290103e+003;1.635820e-001
3.292031e+003;1.641177e-001
3.293960e+003;1.646601e-001
3.295888e+003;1.649348e-001
3.297817e+003;1.648632e-001
3.299746e+003;1.649293e-001
3.301674e+003;1.651102e-001
3.303603e+003;1.652383e-001
3.305531e+003;1.655033e-001
3.307460e+003;1.657115e-001
3.309388e+003;1.659171e-001
3.311317e+003;1.662222e-001
3.313245e+003;1.662823e-001
3.315174e+003;1.660852e-001
3.317103e+003;1.661800e-001
3.319031e+003;1.663445e-001
3.320960e+003;1.662693e-001
3.322888e+003;1.663630e-001
3.324817e+003;1.669261e-001
3.326745e+003;1.674547e-001
3.328674e+003;1.674716e-001
3.330602e+003;1.676870e-001
3.332531e+003;1.676664e-001
3.334459e+003;1.672697e-001
3.336388e+003;1.669513e-001
3.338317e+003;1.669122e-001
3.340245e+003;1.670037e-001
3.342174e+003;1.670377e-001
3.344102e+003;1.669885e-001
3.346031e+003;1.673934e-001
3.347959e+003;1.675870e-001
3.349888e+003;1.674163e-001
3.351816e+003;1.670392e-001
3.353745e+003;1.667732e-001
3.355674e+003;1.666965e-001
3.357602e+003;1.665505e-001
3.359531e+003;1.664281e-001
3.361459e+003;1.662450e-001
3.363388e+003;1.659473e-001
3.365316e+003;1.654579e-001
3.367245e+003;1.649201e-001
3.369173e+003;1.646680e-001
3.371102e+003;1.648310e-001
3.373031e+003;1.644571e-001
3.374959e+003;1.640059e-001
3.376887e+003;1.638918e-001
3.378816e+003;1.637620e-001
3.380745e+003;1.635555e-001
3.382673e+003;1.629404e-001
3.384602e+003;1.622633e-001
3.386530e+003;1.621758e-001
3.388459e+003;1.623285e-001
3.390387e+003;1.618166e-001
3.392316e+003;1.608717e-001
3.394244e+003;1.604859e-001
3.396173e+003;1.600264e-001
3.398102e+003;1.594054e-001
3.400030e+003;1.592528e-001
3.401959e+003;1.589165e-001
3.403887e+003;1.579371e-001
3.405816e+003;1.570183e-001
3.407744e+003;1.565917e-001
3.409673e+003;1.563231e-001
3.411601e+003;1.559536e-001
3.413530e+003;1.559409e-001
3.415458e+003;1.557155e-001
3.417387e+003;1.546982e-001
3.419316e+003;1.539296e-001
3.421244e+003;1.534670e-001
3.423173e+003;1.528063e-001
3.425101e+003;1.517758e-001
3.427030e+003;1.508789e-001
3.428958e+003;1.504952e-001
3.430887e+003;1.500886e-001
3.432815e+003;1.494130e-001
3.434744e+003;1.485765e-001
3.436673e+003;1.476506e-001
3.438601e+003;1.466528e-001
3.440530e+003;1.457350e-001
3.442458e+003;1.447425e-001
3.444387e+003;1.443410e-001
3.446315e+003;1.437843e-001
3.448244e+003;1.424993e-001
3.450172e+003;1.412172e-001
3.452101e+003;1.399587e-001
3.454030e+003;1.383458e-001
3.455958e+003;1.372294e-001
3.457886e+003;1.366050e-001
3.459815e+003;1.356398e-001
3.461744e+003;1.342050e-001
3.463672e+003;1.327953e-001
3.465601e+003;1.314842e-001
3.467529e+003;1.304478e-001
3.469458e+003;1.293096e-001
3.471386e+003;1.283485e-001
3.473315e+003;1.275585e-001
3.475243e+003;1.265564e-001
3.477172e+003;1.255655e-001
3.479101e+003;1.244131e-001
3.481029e+003;1.228185e-001
3.482958e+003;1.218007e-001
3.484886e+003;1.207185e-001
3.486815e+003;1.192041e-001
3.488743e+003;1.179410e-001
3.490672e+003;1.167385e-001
3.492600e+003;1.157569e-001
3.494529e+003;1.147639e-001
3.496458e+003;1.132847e-001
3.498386e+003;1.119012e-001
3.500315e+003;1.105714e-001
3.502243e+003;1.088994e-001
3.504172e+003;1.074925e-001
3.506100e+003;1.067239e-001
3.508029e+003;1.056535e-001
3.509957e+003;1.043295e-001
3.511886e+003;1.030527e-001
3.513814e+003;1.018345e-001
3.515743e+003;1.006303e-001
3.517672e+003;9.924723e-002
3.519600e+003;9.779107e-002
3.521529e+003;9.649003e-002
3.523457e+003;9.520819e-002
3.525386e+003;9.410201e-002
3.527314e+003;9.307668e-002
3.529243e+003;9.210669e-002
3.531171e+003;9.118553e-002
3.533100e+003;9.000310e-002
3.535029e+003;8.879308e-002
3.536957e+003;8.791266e-002
3.538885e+003;8.693323e-002
3.540814e+003;8.537310e-002
3.542743e+003;8.394019e-002
3.544671e+003;8.300267e-002
3.546600e+003;8.230504e-002
3.548528e+003;8.145449e-002
3.550457e+003;8.031957e-002
3.552385e+003;7.927433e-002
3.554314e+003;7.795634e-002
3.556242e+003;7.647588e-002
3.558171e+003;7.542639e-002
3.560100e+003;7.468344e-002
3.562028e+003;7.387226e-002
3.563957e+003;7.280542e-002
3.565885e+003;7.139955e-002
3.567814e+003;7.047280e-002
3.569742e+003;6.995770e-002
3.571671e+003;6.951146e-002
3.573599e+003;6.874043e-002
3.575528e+003;6.741996e-002
3.577457e+003;6.656054e-002
3.579385e+003;6.599656e-002
3.581314e+003;6.506975e-002
3.583242e+003;6.410923e-002
3.585171e+003;6.338264e-002
3.587099e+003;6.239160e-002
3.589028e+003;6.153290e-002
3.590956e+003;6.087941e-002
3.592885e+003;6.035520e-002
3.594813e+003;5.987988e-002
3.596742e+003;5.899481e-002
3.598671e+003;5.793504e-002
3.600599e+003;5.684800e-002
3.602528e+003;5.600068e-002
3.604456e+003;5.552226e-002
3.606385e+003;5.541854e-002
3.608313e+003;5.507348e-002
3.610242e+003;5.440192e-002
3.612170e+003;5.365532e-002
3.614099e+003;5.301106e-002
3.616028e+003;5.246061e-002
3.617956e+003;5.142757e-002
3.619885e+003;5.008854e-002
3.621813e+003;4.949551e-002
3.623742e+003;4.923933e-002
3.625670e+003;4.881464e-002
3.627599e+003;4.781334e-002
3.629527e+003;4.667111e-002
3.631456e+003;4.621672e-002
3.633385e+003;4.563995e-002
3.635313e+003;4.481284e-002
3.637241e+003;4.386924e-002
3.639170e+003;4.270372e-002
3.641099e+003;4.181945e-002
3.643027e+003;4.149746e-002
3.644956e+003;4.129058e-002
3.646884e+003;4.008111e-002
3.648813e+003;3.841989e-002
3.650741e+003;3.732232e-002
3.652670e+003;3.663841e-002
3.654598e+003;3.582622e-002
3.656527e+003;3.498503e-002
3.658456e+003;3.397771e-002
3.660384e+003;3.285312e-002
3.662313e+003;3.192775e-002
3.664241e+003;3.133653e-002
3.666170e+003;3.078053e-002
3.668098e+003;2.983326e-002
3.670027e+003;2.882718e-002
3.671955e+003;2.802427e-002
3.673884e+003;2.720072e-002
3.675813e+003;2.633683e-002
3.677741e+003;2.560215e-002
3.679669e+003;2.512334e-002
3.681598e+003;2.486180e-002
3.683527e+003;2.409405e-002
3.685455e+003;2.341774e-002
3.687384e+003;2.307968e-002
3.689312e+003;2.238805e-002
3.691241e+003;2.161798e-002
3.693169e+003;2.116803e-002
3.695098e+003;2.099349e-002
3.697026e+003;2.073585e-002
3.698955e+003;2.063831e-002
3.700884e+003;2.033153e-002
3.702812e+003;1.989960e-002
3.704741e+003;1.949664e-002
3.706669e+003;1.911758e-002
3.708598e+003;1.895054e-002
3.710526e+003;1.888672e-002
3.712455e+003;1.878558e-002
3.714383e+003;1.857247e-002
3.716312e+003;1.815236e-002
3.718240e+003;1.786025e-002
3.720169e+003;1.759359e-002
3.722098e+003;1.721818e-002
3.724026e+003;1.702066e-002
3.725955e+003;1.695891e-002
3.727883e+003;1.679677e-002
3.729812e+003;1.651913e-002
3.731740e+003;1.632835e-002
3.733669e+003;1.642838e-002
3.735597e+003;1.635908e-002
3.737526e+003;1.627410e-002
3.739455e+003;1.626853e-002
3.741383e+003;1.607580e-002
3.743312e+003;1.593300e-002
3.745240e+003;1.585542e-002
3.747169e+003;1.579347e-002
3.749097e+003;1.555589e-002
3.751026e+003;1.543090e-002
3.752954e+003;1.519623e-002
3.754883e+003;1.519647e-002
3.756812e+003;1.531329e-002
3.758740e+003;1.500597e-002
3.760668e+003;1.453845e-002
3.762597e+003;1.448052e-002
3.764526e+003;1.474072e-002
3.766454e+003;1.506500e-002
3.768383e+003;1.508538e-002
3.770311e+003;1.494825e-002
3.772240e+003;1.474757e-002
3.774168e+003;1.436290e-002
3.776097e+003;1.447511e-002
3.778025e+003;1.475748e-002
3.779954e+003;1.475977e-002
3.781883e+003;1.457964e-002
3.783811e+003;1.432053e-002
3.785740e+003;1.416817e-002
3.787668e+003;1.445411e-002
3.789597e+003;1.469156e-002
3.791525e+003;1.492483e-002
3.793454e+003;1.506329e-002
3.795382e+003;1.464427e-002
3.797311e+003;1.421668e-002
3.799240e+003;1.401925e-002
3.801168e+003;1.380118e-002
3.803097e+003;1.385663e-002
3.805025e+003;1.381168e-002
3.806954e+003;1.347455e-002
3.808882e+003;1.352541e-002
3.810811e+003;1.346854e-002
3.812739e+003;1.355334e-002
3.814668e+003;1.386798e-002
3.816596e+003;1.412648e-002
3.818525e+003;1.438543e-002
3.820454e+003;1.442047e-002
3.822382e+003;1.426790e-002
3.824311e+003;1.439602e-002
3.826239e+003;1.438300e-002
3.828168e+003;1.420374e-002
3.830096e+003;1.419860e-002
3.832025e+003;1.413332e-002
3.833953e+003;1.396286e-002
3.835882e+003;1.380518e-002
3.837811e+003;1.400477e-002
3.839739e+003;1.414089e-002
3.841667e+003;1.392744e-002
3.843596e+003;1.410437e-002
3.845525e+003;1.442112e-002
3.847453e+003;1.439612e-002
3.849382e+003;1.466281e-002
3.851310e+003;1.496742e-002
3.853239e+003;1.475491e-002
3.855167e+003;1.432879e-002
3.857096e+003;1.415410e-002
3.859024e+003;1.454603e-002
3.860953e+003;1.495638e-002
3.862882e+003;1.499184e-002
3.864810e+003;1.521964e-002
3.866739e+003;1.572829e-002
3.868667e+003;1.621370e-002
3.870596e+003;1.628363e-002
3.872524e+003;1.595455e-002
3.874453e+003;1.562592e-002
3.876381e+003;1.555503e-002
3.878310e+003;1.579395e-002
3.880239e+003;1.589464e-002
3.882167e+003;1.585484e-002
3.884096e+003;1.620318e-002
3.886024e+003;1.671222e-002
3.887953e+003;1.710964e-002
3.889881e+003;1.704109e-002
3.891810e+003;1.650405e-002
3.893738e+003;1.631965e-002
3.895667e+003;1.645800e-002
3.897595e+003;1.682594e-002
3.899524e+003;1.719381e-002
3.901453e+003;1.713959e-002
3.903381e+003;1.698610e-002
3.905310e+003;1.720546e-002
3.907238e+003;1.747919e-002
3.909167e+003;1.777409e-002
3.911095e+003;1.768797e-002
3.913024e+003;1.757041e-002
3.914952e+003;1.796660e-002
3.916881e+003;1.832936e-002
3.918810e+003;1.860691e-002
3.920738e+003;1.898834e-002
3.922667e+003;1.883347e-002
3.924595e+003;1.852800e-002
3.926524e+003;1.864074e-002
3.928452e+003;1.924685e-002
3.930381e+003;1.996780e-002
3.932309e+003;2.045721e-002
3.934238e+003;2.059512e-002
3.936167e+003;2.001998e-002
3.938095e+003;1.959445e-002
3.940023e+003;1.949914e-002
3.941952e+003;1.962381e-002
3.943881e+003;1.964746e-002
3.945809e+003;1.977203e-002
3.947738e+003;2.040953e-002
3.949666e+003;2.045954e-002
3.951595e+003;2.006880e-002
3.953523e+003;1.982052e-002
3.955452e+003;1.977054e-002
3.957380e+003;1.975900e-002
3.959309e+003;2.019829e-002
3.961238e+003;2.053262e-002
3.963166e+003;2.022096e-002
3.965095e+003;2.004767e-002
3.967023e+003;2.014633e-002
3.968952e+003;2.055986e-002
3.970880e+003;2.082716e-002
3.972809e+003;2.085588e-002
3.974737e+003;2.085160e-002
3.976666e+003;2.089029e-002
3.978594e+003;2.097141e-002
3.980523e+003;2.073759e-002
3.982452e+003;2.077381e-002
3.984380e+003;2.061826e-002
3.986309e+003;2.051463e-002
3.988237e+003;2.092082e-002
3.990166e+003;2.103822e-002
3.992094e+003;2.132433e-002
3.994023e+003;2.160565e-002
3.995951e+003;2.123090e-002
3.997880e+003;2.081844e-002
3.999809e+003;2.110555e-002
4.001737e+003;0.000000e+000
