3.992094e+002;0.000000e+000
4.011380e+002;0.000000e+000
4.030665e+002;0.000000e+000
4.049951e+002;0.000000e+000
4.069236e+002;0.000000e+000
4.088522e+002;0.000000e+000
4.107807e+002;0.000000e+000
4.127093e+002;0.000000e+000
4.146378e+002;0.000000e+000
4.165664e+002;0.000000e+000
4.184949e+002;0.000000e+000
4.204235e+002;0.000000e+000
4.223520e+002;0.000000e+000
4.242806e+002;0.000000e+000
4.262091e+002;0.000000e+000
4.281377e+002;0.000000e+000
4.300662e+002;0.000000e+000
4.319948e+002;0.000000e+000
4.339233e+002;0.000000e+000
4.358519e+002;0.000000e+000
4.377804e+002;0.000000e+000
4.397090e+002;0.000000e+000
4.416375e+002;0.000000e+000
4.435660e+002;0.000000e+000
4.454946e+002;0.000000e+000
4.474232e+002;0.000000e+000
4.493517e+002;0.000000e+000
4.512802e+002;0.000000e+000
4.532088e+002;0.000000e+000
4.551373e+002;0.000000e+000
4.570659e+002;0.000000e+000
4.589944e+002;0.000000e+000
4.609230e+002;0.000000e+000
4.628515e+002;0.000000e+000
4.647801e+002;0.000000e+000
4.667086e+002;0.000000e+000
4.686372e+002;0.000000e+000
4.705657e+002;0.000000e+000
4.724943e+002;0.000000e+000
4.744228e+002;0.000000e+000
4.763513e+002;0.000000e+000
4.782799e+002;0.000000e+000
4.802085e+002;0.000000e+000
4.821370e+002;0.000000e+000
4.840656e+002;0.000000e+000
4.859941e+002;0.000000e+000
4.879226e+002;0.000000e+000
4.898512e+002;0.000000e+000
4.917798e+002;0.000000e+000
4.937083e+002;0.000000e+000
4.956368e+002;0.000000e+000
4.975654e+002;0.000000e+000
4.994939e+002;0.000000e+000
5.014225e+002;0.000000e+000
5.033510e+002;0.000000e+000
5.052796e+002;0.000000e+000
5.072081e+002;0.000000e+000
5.091367e+002;0.000000e+000
5.110652e+002;0.000000e+000
5.129938e+002;0.000000e+000
5.149223e+002;0.000000e+000
5.168509e+002;0.000000e+000
5.187794e+002;0.000000e+000
5.207079e+002;0.000000e+000
5.226365e+002;0.000000e+000
5.245651e+002;0.000000e+000
5.264936e+002;0.000000e+000
5.284222e+002;0.000000e+000
5.303507e+002;0.000000e+000
5.322792e+002;0.000000e+000
5.342078e+002;0.000000e+000
5.361364e+002;0.000000e+000
5.380649e+002;0.000000e+000
5.399935e+002;0.000000e+000
5.419220e+002;0.000000e+000
5.438505e+002;0.000000e+000
5.457791e+002;0.000000e+000
5.477076e+002;0.000000e+000
5.496362e+002;0.000000e+000
5.515648e+002;0.000000e+000
5.534933e+002;0.000000e+000
5.554218e+002;0.000000e+000
5.573504e+002;0.000000e+000
5.592789e+002;0.000000e+000
5.612075e+002;0.000000e+000
5.631360e+002;0.000000e+000
5.650646e+002;0.000000e+000
5.669931e+002;0.000000e+000
5.689217e+002;0.000000e+000
5.708502e+002;0.000000e+000
5.727787e+002;0.000000e+000
5.747073e+002;0.000000e+000
5.766359e+002;0.000000e+000
5.785644e+002;0.000000e+000
5.804930e+002;0.000000e+000
5.824215e+002;0.000000e+000
5.843500e+002;0.000000e+000
5.862786e+002;0.000000e+000
5.882072e+002;0.000000e+000
5.901357e+002;0.000000e+000
5.920643e+002;0.000000e+000
5.939928e+002;0.000000e+000
5.959213e+002;0.000000e+000
5.978499e+002;0.000000e+000
5.997784e+002;2.704100e-001
6.017070e+002;2.768619e-001
6.036355e+002;2.769336e-001
6.055641e+002;2.732553e-001
6.074926e+002;2.679493e-001
6.094211e+002;2.655278e-001
6.113497e+002;2.654349e-001
6.132783e+002;2.641034e-001
6.152068e+002;2.671145e-001
6.171354e+002;2.700876e-001
6.190639e+002;2.635579e-001
6.209924e+002;2.539590e-001
6.229210e+002;2.498245e-001
6.248495e+002;2.526959e-001
6.267781e+002;2.518361e-001
6.287067e+002;2.514207e-001
6.306352e+002;2.499496e-001
6.325637e+002;2.476777e-001
6.344923e+002;2.429430e-001
6.364208e+002;2.378673e-001
6.383494e+002;2.404995e-001
6.402780e+002;2.442288e-001
6.422065e+002;2.412899e-001
6.441350e+002;2.377083e-001
6.460636e+002;2.366413e-001
6.479921e+002;2.349967e-001
6.499207e+002;2.369677e-001
6.518492e+002;2.394899e-001
6.537778e+002;2.418762e-001
6.557063e+002;2.441746e-001
6.576349e+002;2.419102e-001
6.595634e+002;2.418839e-001
6.614919e+002;2.440133e-001
6.634205e+002;2.433949e-001
6.653491e+002;2.413124e-001
6.672776e+002;2.400738e-001
6.692062e+002;2.378879e-001
6.711347e+002;2.315986e-001
6.730632e+002;2.254902e-001
6.749918e+002;2.199162e-001
6.769203e+002;2.142436e-001
6.788489e+002;2.077102e-001
6.807775e+002;2.012607e-001
6.827060e+002;1.971181e-001
6.846345e+002;1.953983e-001
6.865631e+002;1.942472e-001
6.884916e+002;1.925213e-001
6.904202e+002;1.909240e-001
6.923488e+002;1.898554e-001
6.942773e+002;1.897078e-001
6.962058e+002;1.891297e-001
6.981344e+002;1.884610e-001
7.000629e+002;1.878305e-001
7.019915e+002;1.871597e-001
7.039200e+002;1.858801e-001
7.058486e+002;1.839137e-001
7.077771e+002;1.813489e-001
7.097057e+002;1.803407e-001
7.116342e+002;1.811178e-001
7.135627e+002;1.807001e-001
7.154913e+002;1.783336e-001
7.174199e+002;1.770172e-001
7.193484e+002;1.758428e-001
7.212770e+002;1.742371e-001
7.232055e+002;1.729296e-001
7.251340e+002;1.709762e-001
7.270626e+002;1.700006e-001
7.289911e+002;1.690168e-001
7.309197e+002;1.668170e-001
7.328483e+002;1.653099e-001
7.347768e+002;1.641360e-001
7.367053e+002;1.625723e-001
7.386339e+002;1.601643e-001
7.405624e+002;1.583848e-001
7.424910e+002;1.577491e-001
7.444196e+002;1.575424e-001
7.463481e+002;1.568550e-001
7.482766e+002;1.551125e-001
7.502052e+002;1.542346e-001
7.521337e+002;1.533548e-001
7.540623e+002;1.517087e-001
7.559908e+002;1.498976e-001
7.579194e+002;1.476886e-001
7.598479e+002;1.470291e-001
7.617765e+002;1.470169e-001
7.637050e+002;1.455276e-001
7.656335e+002;1.425858e-001
7.675621e+002;1.412149e-001
7.694907e+002;1.409649e-001
7.714192e+002;1.400742e-001
7.733478e+002;1.386701e-001
7.752763e+002;1.373877e-001
7.772048e+002;1.362564e-001
7.791334e+002;1.352609e-001
7.810620e+002;1.346199e-001
7.829905e+002;1.341661e-001
7.849191e+002;1.333936e-001
7.868476e+002;1.322744e-001
7.887761e+002;1.308658e-001
7.907047e+002;1.290047e-001
7.926332e+002;1.281125e-001
7.945618e+002;1.274393e-001
7.964903e+002;1.261927e-001
7.984189e+002;1.251722e-001
8.003474e+002;1.244092e-001
8.022759e+002;1.240497e-001
8.042045e+002;1.236760e-001
8.061331e+002;1.231474e-001
8.080616e+002;1.224852e-001
8.099902e+002;1.216448e-001
8.119187e+002;1.211533e-001
8.138472e+002;1.210929e-001
8.157758e+002;1.205996e-001
8.177043e+002;1.201480e-001
8.196329e+002;1.202260e-001
8.215615e+002;1.198957e-001
8.234900e+002;1.193698e-001
8.254185e+002;1.194687e-001
8.273471e+002;1.193592e-001
8.292756e+002;1.192651e-001
8.312042e+002;1.189452e-001
8.331328e+002;1.180878e-001
8.350613e+002;1.169339e-001
8.369898e+002;1.155876e-001
8.389184e+002;1.146869e-001
8.408469e+002;1.143779e-001
8.427755e+002;1.137717e-001
8.447040e+002;1.134674e-001
8.466326e+002;1.130240e-001
8.485611e+002;1.123180e-001
8.504897e+002;1.118923e-001
8.524182e+002;1.116681e-001
8.543467e+002;1.116716e-001
8.562753e+002;1.117728e-001
8.582039e+002;1.117589e-001
8.601324e+002;1.120408e-001
8.620610e+002;1.128749e-001
8.639895e+002;1.137619e-001
8.659180e+002;1.146916e-001
8.678466e+002;1.160881e-001
8.697751e+002;1.182510e-001
8.717037e+002;1.208157e-001
8.736323e+002;1.241437e-001
8.755608e+002;1.279953e-001
8.774893e+002;1.323948e-001
8.794179e+002;1.378340e-001
8.813464e+002;1.437109e-001
8.832750e+002;1.493487e-001
8.852036e+002;1.549163e-001
8.871321e+002;1.611259e-001
8.890606e+002;1.670317e-001
8.909892e+002;1.714554e-001
8.929177e+002;1.745891e-001
8.948463e+002;1.761722e-001
8.967748e+002;1.759543e-001
8.987034e+002;1.745912e-001
9.006319e+002;1.724263e-001
9.025605e+002;1.692710e-001
9.044890e+002;1.651691e-001
9.064175e+002;1.610368e-001
9.083461e+002;1.572513e-001
9.102747e+002;1.539738e-001
9.122032e+002;1.514250e-001
9.141318e+002;1.495071e-001
9.160603e+002;1.479404e-001
9.179888e+002;1.469407e-001
9.199174e+002;1.467405e-001
9.218459e+002;1.473669e-001
9.237745e+002;1.488089e-001
9.257031e+002;1.503671e-001
9.276316e+002;1.513405e-001
9.295601e+002;1.531513e-001
9.314887e+002;1.548730e-001
9.334172e+002;1.565186e-001
9.353458e+002;1.583862e-001
9.372744e+002;1.600527e-001
9.392029e+002;1.619025e-001
9.411314e+002;1.645043e-001
9.430600e+002;1.680912e-001
9.449885e+002;1.718282e-001
9.469171e+002;1.757757e-001
9.488456e+002;1.803907e-001
9.507742e+002;1.856179e-001
9.527027e+002;1.911898e-001
9.546313e+002;1.965365e-001
9.565598e+002;2.020594e-001
9.584883e+002;2.083246e-001
9.604169e+002;2.148101e-001
9.623455e+002;2.213515e-001
9.642740e+002;2.279853e-001
9.662026e+002;2.345439e-001
9.681311e+002;2.415612e-001
9.700596e+002;2.498703e-001
9.719882e+002;2.593211e-001
9.739167e+002;2.692609e-001
9.758453e+002;2.804672e-001
9.777739e+002;2.935815e-001
9.797024e+002;3.084528e-001
9.816309e+002;3.249842e-001
9.835595e+002;3.421059e-001
9.854880e+002;3.589588e-001
9.874166e+002;3.744175e-001
9.893452e+002;3.877143e-001
9.912737e+002;3.992501e-001
9.932022e+002;4.074000e-001
9.951307e+002;4.118989e-001
9.970593e+002;4.145119e-001
9.989879e+002;4.155388e-001
1.000916e+003;4.162651e-001
1.002845e+003;4.190888e-001
1.004773e+003;4.236401e-001
1.006702e+003;4.293069e-001
1.008631e+003;4.357782e-001
1.010559e+003;4.440002e-001
1.012488e+003;4.527304e-001
1.014416e+003;4.605889e-001
1.016345e+003;4.662384e-001
1.018273e+003;4.697325e-001
1.020202e+003;4.716556e-001
1.022130e+003;4.712531e-001
1.024059e+003;4.690878e-001
1.025988e+003;4.654412e-001
1.027916e+003;4.600217e-001
1.029845e+003;4.540394e-001
1.031773e+003;4.481034e-001
1.033702e+003;4.425899e-001
1.035630e+003;4.383419e-001
1.037559e+003;4.344874e-001
1.039487e+003;4.307696e-001
1.041416e+003;4.275112e-001
1.043344e+003;4.241553e-001
1.045273e+003;4.208096e-001
1.047202e+003;4.172649e-001
1.049130e+003;4.138219e-001
1.051059e+003;4.104629e-001
1.052987e+003;4.072628e-001
1.054916e+003;4.034638e-001
1.056844e+003;3.991848e-001
1.058773e+003;3.943118e-001
1.060701e+003;3.889221e-001
1.062630e+003;3.829407e-001
1.064558e+003;3.768336e-001
1.066487e+003;3.702251e-001
1.068416e+003;3.627832e-001
1.070344e+003;3.551450e-001
1.072273e+003;3.473004e-001
1.074201e+003;3.394755e-001
1.076130e+003;3.314246e-001
1.078058e+003;3.238956e-001
1.079987e+003;3.169793e-001
1.081915e+003;3.108553e-001
1.083844e+003;3.053123e-001
1.085773e+003;3.002216e-001
1.087701e+003;2.949032e-001
1.089630e+003;2.893029e-001
1.091558e+003;2.834267e-001
1.093487e+003;2.777850e-001
1.095415e+003;2.721816e-001
1.097344e+003;2.665594e-001
1.099272e+003;2.613294e-001
1.101201e+003;2.561704e-001
1.103129e+003;2.508919e-001
1.105058e+003;2.454085e-001
1.106987e+003;2.409550e-001
1.108915e+003;2.373781e-001
1.110844e+003;2.340947e-001
1.112772e+003;2.304498e-001
1.114701e+003;2.259581e-001
1.116629e+003;2.210794e-001
1.118558e+003;2.161994e-001
1.120486e+003;2.107510e-001
1.122415e+003;2.045855e-001
1.124344e+003;1.979432e-001
1.126272e+003;1.919622e-001
1.128201e+003;1.863694e-001
1.130129e+003;1.809369e-001
1.132058e+003;1.763208e-001
1.133986e+003;1.723795e-001
1.135915e+003;1.680929e-001
1.137843e+003;1.644832e-001
1.139772e+003;1.620505e-001
1.141700e+003;1.600508e-001
1.143629e+003;1.591718e-001
1.145557e+003;1.592466e-001
1.147486e+003;1.599015e-001
1.149415e+003;1.613711e-001
1.151343e+003;1.628195e-001
1.153272e+003;1.638220e-001
1.155200e+003;1.647162e-001
1.157129e+003;1.648511e-001
1.159057e+003;1.631378e-001
1.160986e+003;1.597275e-001
1.162914e+003;1.545524e-001
1.164843e+003;1.478538e-001
1.166771e+003;1.410305e-001
1.168700e+003;1.343151e-001
1.170629e+003;1.280491e-001
1.172557e+003;1.221791e-001
1.174486e+003;1.168652e-001
1.176414e+003;1.124437e-001
1.178343e+003;1.084791e-001
1.180271e+003;1.044882e-001
1.182200e+003;1.016297e-001
1.184128e+003;1.004163e-001
1.186057e+003;1.001053e-001
1.187986e+003;1.006931e-001
1.189914e+003;1.026127e-001
1.191843e+003;1.052801e-001
1.193771e+003;1.080162e-001
1.195700e+003;1.104482e-001
1.197628e+003;1.120050e-001
1.199557e+003;1.126057e-001
1.201485e+003;1.124425e-001
1.203414e+003;1.112560e-001
1.205343e+003;1.093682e-001
1.207271e+003;1.076889e-001
1.209200e+003;1.060814e-001
1.211128e+003;1.047510e-001
1.213057e+003;1.043444e-001
1.214985e+003;1.043993e-001
1.216914e+003;1.054345e-001
1.218842e+003;1.074658e-001
1.220771e+003;1.095813e-001
1.222699e+003;1.117152e-001
1.224628e+003;1.136369e-001
1.226557e+003;1.153996e-001
1.228485e+003;1.169224e-001
1.230414e+003;1.177104e-001
1.232342e+003;1.180350e-001
1.234271e+003;1.184859e-001
1.236199e+003;1.187535e-001
1.238128e+003;1.188568e-001
1.240056e+003;1.191303e-001
1.241985e+003;1.192077e-001
1.243913e+003;1.191030e-001
1.245842e+003;1.190073e-001
1.247771e+003;1.191010e-001
1.249699e+003;1.197160e-001
1.251628e+003;1.210703e-001
1.253556e+003;1.223550e-001
1.255485e+003;1.230819e-001
1.257413e+003;1.240067e-001
1.259342e+003;1.246957e-001
1.261270e+003;1.244729e-001
1.263199e+003;1.236773e-001
1.265127e+003;1.229198e-001
1.267056e+003;1.222573e-001
1.268985e+003;1.212533e-001
1.270913e+003;1.199434e-001
1.272842e+003;1.189225e-001
1.274770e+003;1.180492e-001
1.276699e+003;1.170671e-001
1.278627e+003;1.160549e-001
1.280556e+003;1.152504e-001
1.282484e+003;1.147932e-001
1.284413e+003;1.147754e-001
1.286342e+003;1.151792e-001
1.288270e+003;1.160786e-001
1.290199e+003;1.173639e-001
1.292127e+003;1.190741e-001
1.294056e+003;1.206587e-001
1.295984e+003;1.222249e-001
1.297913e+003;1.239085e-001
1.299841e+003;1.252213e-001
1.301770e+003;1.265065e-001
1.303698e+003;1.281726e-001
1.305627e+003;1.297894e-001
1.307556e+003;1.311961e-001
1.309484e+003;1.324870e-001
1.311413e+003;1.336533e-001
1.313341e+003;1.346223e-001
1.315270e+003;1.351921e-001
1.317198e+003;1.351693e-001
1.319127e+003;1.347267e-001
1.321055e+003;1.343612e-001
1.322984e+003;1.342514e-001
1.324912e+003;1.342073e-001
1.326841e+003;1.343245e-001
1.328770e+003;1.347864e-001
1.330698e+003;1.348940e-001
1.332627e+003;1.349503e-001
1.334555e+003;1.351635e-001
1.336484e+003;1.351044e-001
1.338412e+003;1.347356e-001
1.340341e+003;1.343279e-001
1.342269e+003;1.341502e-001
1.344198e+003;1.342395e-001
1.346126e+003;1.342690e-001
1.348055e+003;1.340843e-001
1.349984e+003;1.339487e-001
1.351912e+003;1.342715e-001
1.353841e+003;1.349293e-001
1.355769e+003;1.355868e-001
1.357698e+003;1.363342e-001
1.359626e+003;1.369251e-001
1.361555e+003;1.373023e-001
1.363483e+003;1.374478e-001
1.365412e+003;1.373538e-001
1.367341e+003;1.370663e-001
1.369269e+003;1.362852e-001
1.371198e+003;1.351907e-001
1.373126e+003;1.337391e-001
1.375055e+003;1.320437e-001
1.376983e+003;1.303520e-001
1.378912e+003;1.286726e-001
1.380840e+003;1.267811e-001
1.382769e+003;1.246954e-001
1.384698e+003;1.227573e-001
1.386626e+003;1.210176e-001
1.388555e+003;1.196604e-001
1.390483e+003;1.187506e-001
1.392412e+003;1.178646e-001
1.394340e+003;1.171777e-001
1.396269e+003;1.170278e-001
1.398197e+003;1.171748e-001
1.400126e+003;1.169948e-001
1.402054e+003;1.167225e-001
1.403983e+003;1.168599e-001
1.405911e+003;1.170877e-001
1.407840e+003;1.170918e-001
1.409769e+003;1.166740e-001
1.411697e+003;1.166479e-001
1.413626e+003;1.169938e-001
1.415554e+003;1.169968e-001
1.417483e+003;1.167322e-001
1.419411e+003;1.162764e-001
1.421340e+003;1.159027e-001
1.423268e+003;1.156143e-001
1.425197e+003;1.151891e-001
1.427125e+003;1.145593e-001
1.429054e+003;1.138041e-001
1.430983e+003;1.131550e-001
1.432911e+003;1.124238e-001
1.434840e+003;1.115271e-001
1.436768e+003;1.106251e-001
1.438697e+003;1.097608e-001
1.440625e+003;1.088949e-001
1.442554e+003;1.077106e-001
1.444482e+003;1.066661e-001
1.446411e+003;1.056900e-001
1.448340e+003;1.044970e-001
1.450268e+003;1.031314e-001
1.452197e+003;1.017016e-001
1.454125e+003;1.003880e-001
1.456054e+003;9.907062e-002
1.457982e+003;9.760887e-002
1.459911e+003;9.629568e-002
1.461839e+003;9.496468e-002
1.463768e+003;9.337993e-002
1.465697e+003;9.165494e-002
1.467625e+003;8.975777e-002
1.469554e+003;8.763624e-002
1.471482e+003;8.534298e-002
1.473411e+003;8.312034e-002
1.475339e+003;8.092713e-002
1.477268e+003;7.831789e-002
1.479196e+003;7.600840e-002
1.481125e+003;7.381822e-002
1.483053e+003;7.128561e-002
1.484982e+003;6.905530e-002
1.486911e+003;6.712069e-002
1.488839e+003;6.527483e-002
1.490768e+003;6.341424e-002
1.492696e+003;6.193350e-002
1.494625e+003;6.048178e-002
1.496553e+003;5.886112e-002
1.498482e+003;5.780689e-002
1.500410e+003;5.689816e-002
1.502339e+003;5.588154e-002
1.504267e+003;5.480805e-002
1.506196e+003;5.367125e-002
1.508125e+003;5.276843e-002
1.510053e+003;5.221669e-002
1.511982e+003;5.166359e-002
1.513910e+003;5.105127e-002
1.515839e+003;5.033042e-002
1.517767e+003;4.978511e-002
1.519696e+003;4.931976e-002
1.521624e+003;4.882877e-002
1.523553e+003;4.871296e-002
1.525481e+003;4.867030e-002
1.527410e+003;4.848102e-002
1.529339e+003;4.831848e-002
1.531267e+003;4.805933e-002
1.533196e+003;4.762899e-002
1.535124e+003;4.736980e-002
1.537053e+003;4.719080e-002
1.538981e+003;4.675660e-002
1.540910e+003;4.661817e-002
1.542838e+003;4.683461e-002
1.544767e+003;4.704762e-002
1.546695e+003;4.724880e-002
1.548624e+003;4.736496e-002
1.550553e+003;4.731544e-002
1.552481e+003;4.740494e-002
1.554410e+003;4.741252e-002
1.556338e+003;4.730503e-002
1.558267e+003;4.736474e-002
1.560195e+003;4.741167e-002
1.562124e+003;4.757168e-002
1.564052e+003;4.796148e-002
1.565981e+003;4.837696e-002
1.567910e+003;4.861270e-002
1.569838e+003;4.853526e-002
1.571767e+003;4.876678e-002
1.573695e+003;4.922742e-002
1.575624e+003;4.953681e-002
1.577552e+003;4.994659e-002
1.579481e+003;5.052061e-002
1.581409e+003;5.094261e-002
1.583338e+003;5.155370e-002
1.585266e+003;5.233228e-002
1.587195e+003;5.270438e-002
1.589124e+003;5.315315e-002
1.591052e+003;5.386265e-002
1.592981e+003;5.449135e-002
1.594909e+003;5.527341e-002
1.596838e+003;5.611558e-002
1.598766e+003;5.694292e-002
1.600695e+003;5.766100e-002
1.602623e+003;5.836976e-002
1.604552e+003;5.913087e-002
1.606480e+003;5.989064e-002
1.608409e+003;6.065651e-002
1.610338e+003;6.152347e-002
1.612266e+003;6.232382e-002
1.614195e+003;6.313270e-002
1.616123e+003;6.382869e-002
1.618052e+003;6.445408e-002
1.619980e+003;6.541976e-002
1.621909e+003;6.635238e-002
1.623837e+003;6.696248e-002
1.625766e+003;6.749722e-002
1.627694e+003;6.818098e-002
1.629623e+003;6.890123e-002
1.631552e+003;6.938510e-002
1.633480e+003;6.969271e-002
1.635409e+003;6.989212e-002
1.637337e+003;7.004362e-002
1.639266e+003;7.012582e-002
1.641194e+003;7.021648e-002
1.643123e+003;7.047895e-002
1.645051e+003;7.042424e-002
1.646980e+003;6.995042e-002
1.648909e+003;6.945489e-002
1.650837e+003;6.901126e-002
1.652766e+003;6.834720e-002
1.654694e+003;6.797796e-002
1.656623e+003;6.773376e-002
1.658551e+003;6.701382e-002
1.660480e+003;6.601527e-002
1.662408e+003;6.507352e-002
1.664337e+003;6.429096e-002
1.666266e+003;6.347041e-002
1.668194e+003;6.242545e-002
1.670123e+003;6.113157e-002
1.672051e+003;6.004847e-002
1.673980e+003;5.908880e-002
1.675908e+003;5.790910e-002
1.677837e+003;5.672153e-002
1.679765e+003;5.545622e-002
1.681694e+003;5.437522e-002
1.683622e+003;5.317715e-002
1.685551e+003;5.198966e-002
1.687479e+003;5.123720e-002
1.689408e+003;5.051023e-002
1.691337e+003;4.995841e-002
1.693265e+003;4.942356e-002
1.695194e+003;4.878202e-002
1.697122e+003;4.853074e-002
1.699051e+003;4.840704e-002
1.700979e+003;4.791405e-002
1.702908e+003;4.754270e-002
1.704836e+003;4.722460e-002
1.706765e+003;4.697666e-002
1.708693e+003;4.698670e-002
1.710622e+003;4.688654e-002
1.712551e+003;4.652533e-002
1.714479e+003;4.595240e-002
1.716408e+003;4.534785e-002
1.718336e+003;4.494393e-002
1.720265e+003;4.465652e-002
1.722193e+003;4.400463e-002
1.724122e+003;4.307926e-002
1.726050e+003;4.230839e-002
1.727979e+003;4.149648e-002
1.729908e+003;4.057271e-002
1.731836e+003;3.962811e-002
1.733765e+003;3.855482e-002
1.735693e+003;3.749267e-002
1.737622e+003;3.663404e-002
1.739550e+003;3.561833e-002
1.741479e+003;3.446962e-002
1.743407e+003;3.339772e-002
1.745336e+003;3.248736e-002
1.747265e+003;3.165673e-002
1.749193e+003;3.104602e-002
1.751122e+003;3.054873e-002
1.753050e+003;3.030110e-002
1.754979e+003;3.010325e-002
1.756907e+003;2.984125e-002
1.758836e+003;2.965102e-002
1.760764e+003;2.923588e-002
1.762693e+003;2.907284e-002
1.764621e+003;2.925845e-002
1.766550e+003;2.914594e-002
1.768479e+003;2.898648e-002
1.770407e+003;2.874182e-002
1.772336e+003;2.842298e-002
1.774264e+003;2.841215e-002
1.776193e+003;2.844286e-002
1.778121e+003;2.839164e-002
1.780050e+003;2.811515e-002
1.781978e+003;2.786582e-002
1.783907e+003;2.788133e-002
1.785835e+003;2.773159e-002
1.787764e+003;2.737569e-002
1.789693e+003;2.709166e-002
1.791621e+003;2.686950e-002
1.793550e+003;2.663389e-002
1.795478e+003;2.662181e-002
1.797407e+003;2.662653e-002
1.799335e+003;2.635862e-002
1.801264e+003;2.622071e-002
1.803192e+003;2.624939e-002
1.805121e+003;2.614757e-002
1.807049e+003;2.604332e-002
1.808978e+003;2.581160e-002
1.810907e+003;2.571270e-002
1.812835e+003;2.587659e-002
1.814764e+003;2.579683e-002
1.816692e+003;2.539839e-002
1.818621e+003;2.532761e-002
1.820549e+003;2.541616e-002
1.822478e+003;2.523521e-002
1.824406e+003;2.499946e-002
1.826335e+003;2.504864e-002
1.828264e+003;2.507479e-002
1.830192e+003;2.486338e-002
1.832121e+003;2.464362e-002
1.834049e+003;2.438787e-002
1.835978e+003;2.420818e-002
1.837906e+003;2.419665e-002
1.839835e+003;2.420009e-002
1.841763e+003;2.432829e-002
1.843692e+003;2.417150e-002
1.845620e+003;2.389408e-002
1.847549e+003;2.383285e-002
1.849478e+003;2.376023e-002
1.851406e+003;2.359836e-002
1.853335e+003;2.340676e-002
1.855263e+003;2.348135e-002
1.857192e+003;2.354025e-002
1.859120e+003;2.331609e-002
1.861049e+003;2.309858e-002
1.862977e+003;2.297252e-002
1.864906e+003;2.291412e-002
1.866834e+003;2.281793e-002
1.868763e+003;2.259882e-002
1.870692e+003;2.260318e-002
1.872620e+003;2.261397e-002
1.874549e+003;2.235596e-002
1.876477e+003;2.225540e-002
1.878406e+003;2.228208e-002
1.880334e+003;2.241139e-002
1.882263e+003;2.231298e-002
1.884191e+003;2.198997e-002
1.886120e+003;2.209015e-002
1.888048e+003;2.226234e-002
1.889977e+003;2.236541e-002
1.891906e+003;2.241516e-002
1.893834e+003;2.236419e-002
1.895763e+003;2.221693e-002
1.897691e+003;2.210120e-002
1.899620e+003;2.205742e-002
1.901548e+003;2.211222e-002
1.903477e+003;2.214977e-002
1.905405e+003;2.225181e-002
1.907334e+003;2.241603e-002
1.909262e+003;2.239416e-002
1.911191e+003;2.230325e-002
1.913120e+003;2.234923e-002
1.915048e+003;2.261460e-002
1.916977e+003;2.300847e-002
1.918905e+003;2.326792e-002
1.920834e+003;2.349227e-002
1.922762e+003;2.340987e-002
1.924691e+003;2.318403e-002
1.926619e+003;2.344023e-002
1.928548e+003;2.376520e-002
1.930477e+003;2.384129e-002
1.932405e+003;2.374266e-002
1.934334e+003;2.372408e-002
1.936262e+003;2.368709e-002
1.938191e+003;2.378609e-002
1.940119e+003;2.401526e-002
1.942048e+003;2.412271e-002
1.943976e+003;2.411346e-002
1.945905e+003;2.414603e-002
1.947833e+003;2.437571e-002
1.949762e+003;2.466298e-002
1.951691e+003;2.476830e-002
1.953619e+003;2.484061e-002
1.955548e+003;2.505966e-002
1.957476e+003;2.518159e-002
1.959405e+003;2.509729e-002
1.961333e+003;2.515164e-002
1.963262e+003;2.537872e-002
1.965190e+003;2.558026e-002
1.967119e+003;2.564359e-002
1.969047e+003;2.561280e-002
1.970976e+003;2.579719e-002
1.972905e+003;2.601644e-002
1.974833e+003;2.612438e-002
1.976762e+003;2.610545e-002
1.978690e+003;2.617358e-002
1.980619e+003;2.633514e-002
1.982547e+003;2.642570e-002
1.984476e+003;2.664749e-002
1.986404e+003;2.673664e-002
1.988333e+003;2.673043e-002
1.990261e+003;2.676349e-002
1.992190e+003;2.678731e-002
1.994119e+003;2.684141e-002
1.996047e+003;2.679743e-002
1.997976e+003;2.679996e-002
1.999904e+003;2.675404e-002
2.001833e+003;2.667645e-002
2.003761e+003;2.689044e-002
2.005690e+003;2.740971e-002
2.007618e+003;2.757413e-002
2.009547e+003;2.759818e-002
2.011476e+003;2.763038e-002
2.013404e+003;2.783763e-002
2.015333e+003;2.817761e-002
2.017261e+003;2.831230e-002
2.019190e+003;2.848432e-002
2.021118e+003;2.868763e-002
2.023047e+003;2.850067e-002
2.024975e+003;2.851797e-002
2.026904e+003;2.881164e-002
2.028833e+003;2.893491e-002
2.030761e+003;2.905275e-002
2.032690e+003;2.916886e-002
2.034618e+003;2.924311e-002
2.036547e+003;2.930439e-002
2.038475e+003;2.947017e-002
2.040404e+003;2.963836e-002
2.042332e+003;2.969232e-002
2.044261e+003;2.967781e-002
2.046189e+003;2.964503e-002
2.048118e+003;2.977581e-002
2.050047e+003;2.992068e-002
2.051975e+003;2.995363e-002
2.053904e+003;2.994447e-002
2.055832e+003;2.994933e-002
2.057761e+003;2.997010e-002
2.059689e+003;2.999023e-002
2.061618e+003;2.984852e-002
2.063546e+003;2.957504e-002
2.065475e+003;2.950181e-002
2.067404e+003;2.965436e-002
2.069332e+003;2.993417e-002
2.071260e+003;3.004839e-002
2.073189e+003;3.005542e-002
2.075118e+003;3.010506e-002
2.077046e+003;2.996346e-002
2.078975e+003;2.973209e-002
2.080903e+003;3.001512e-002
2.082832e+003;3.026721e-002
2.084760e+003;3.014313e-002
2.086689e+003;3.007697e-002
2.088617e+003;3.027047e-002
2.090546e+003;3.028866e-002
2.092475e+003;3.005251e-002
2.094403e+003;3.007488e-002
2.096332e+003;3.025395e-002
2.098260e+003;3.037671e-002
2.100189e+003;3.043829e-002
2.102117e+003;3.052751e-002
2.104046e+003;3.052538e-002
2.105974e+003;3.060927e-002
2.107903e+003;3.083638e-002
2.109832e+003;3.117224e-002
2.111760e+003;3.125288e-002
2.113688e+003;3.117630e-002
2.115617e+003;3.103324e-002
2.117546e+003;3.098598e-002
2.119474e+003;3.118103e-002
2.121403e+003;3.141100e-002
2.123331e+003;3.145285e-002
2.125260e+003;3.143554e-002
2.127188e+003;3.120260e-002
2.129117e+003;3.120834e-002
2.131045e+003;3.150145e-002
2.132974e+003;3.164494e-002
2.134903e+003;3.139850e-002
2.136831e+003;3.129856e-002
2.138760e+003;3.153761e-002
2.140688e+003;3.136117e-002
2.142617e+003;3.086039e-002
2.144545e+003;3.067167e-002
2.146474e+003;3.094200e-002
2.148402e+003;3.094553e-002
2.150331e+003;3.096076e-002
2.152260e+003;3.087718e-002
2.154188e+003;3.063302e-002
2.156117e+003;3.058492e-002
2.158045e+003;3.062769e-002
2.159974e+003;3.045681e-002
2.161902e+003;3.029467e-002
2.163831e+003;3.039284e-002
2.165759e+003;3.042529e-002
2.167688e+003;3.036278e-002
2.169616e+003;3.026074e-002
2.171545e+003;3.012250e-002
2.173474e+003;2.993872e-002
2.175402e+003;2.987404e-002
2.177331e+003;2.974178e-002
2.179259e+003;2.949219e-002
2.181188e+003;2.941103e-002
2.183116e+003;2.926629e-002
2.185045e+003;2.912319e-002
2.186973e+003;2.896643e-002
2.188902e+003;2.881734e-002
2.190831e+003;2.874363e-002
2.192759e+003;2.867489e-002
2.194688e+003;2.862845e-002
2.196616e+003;2.848294e-002
2.198545e+003;2.850980e-002
2.200473e+003;2.861383e-002
2.202402e+003;2.864342e-002
2.204330e+003;2.852055e-002
2.206259e+003;2.850477e-002
2.208188e+003;2.848369e-002
2.210116e+003;2.825668e-002
2.212044e+003;2.794469e-002
2.213973e+003;2.782827e-002
2.215902e+003;2.772223e-002
2.217830e+003;2.766678e-002
2.219759e+003;2.761583e-002
2.221687e+003;2.747892e-002
2.223616e+003;2.745746e-002
2.225544e+003;2.756757e-002
2.227473e+003;2.758148e-002
2.229401e+003;2.746060e-002
2.231330e+003;2.744511e-002
2.233259e+003;2.728963e-002
2.235187e+003;2.709173e-002
2.237116e+003;2.736514e-002
2.239044e+003;2.753304e-002
2.240973e+003;2.735977e-002
2.242901e+003;2.729410e-002
2.244830e+003;2.726817e-002
2.246758e+003;2.703362e-002
2.248687e+003;2.678942e-002
2.250615e+003;2.684687e-002
2.252544e+003;2.686309e-002
2.254473e+003;2.664725e-002
2.256401e+003;2.641799e-002
2.258330e+003;2.629765e-002
2.260258e+003;2.623739e-002
2.262187e+003;2.618157e-002
2.264115e+003;2.608751e-002
2.266044e+003;2.601700e-002
2.267972e+003;2.605496e-002
2.269901e+003;2.607724e-002
2.271830e+003;2.587128e-002
2.273758e+003;2.563094e-002
2.275687e+003;2.560802e-002
2.277615e+003;2.563797e-002
2.279544e+003;2.550558e-002
2.281472e+003;2.547013e-002
2.283401e+003;2.532202e-002
2.285329e+003;2.509231e-002
2.287258e+003;2.517074e-002
2.289187e+003;2.523780e-002
2.291115e+003;2.509768e-002
2.293043e+003;2.507079e-002
2.294972e+003;2.524606e-002
2.296901e+003;2.513528e-002
2.298829e+003;2.513296e-002
2.300758e+003;2.528300e-002
2.302686e+003;2.520880e-002
2.304615e+003;2.500666e-002
2.306543e+003;2.494022e-002
2.308472e+003;2.510459e-002
2.310400e+003;2.533407e-002
2.312329e+003;2.533583e-002
2.314258e+003;2.532799e-002
2.316186e+003;2.546033e-002
2.318115e+003;2.526074e-002
2.320043e+003;2.507033e-002
2.321972e+003;2.531570e-002
2.323900e+003;2.527499e-002
2.325829e+003;2.495149e-002
2.327757e+003;2.506029e-002
2.329686e+003;2.541188e-002
2.331615e+003;2.554473e-002
2.333543e+003;2.557523e-002
2.335472e+003;2.547972e-002
2.337400e+003;2.551500e-002
2.339329e+003;2.568633e-002
2.341257e+003;2.596424e-002
2.343186e+003;2.605345e-002
2.345114e+003;2.624964e-002
2.347043e+003;2.646098e-002
2.348971e+003;2.632159e-002
2.350900e+003;2.630814e-002
2.352829e+003;2.659824e-002
2.354757e+003;2.673198e-002
2.356686e+003;2.656080e-002
2.358614e+003;2.668079e-002
2.360543e+003;2.687183e-002
2.362471e+003;2.691981e-002
2.364400e+003;2.707004e-002
2.366328e+003;2.705893e-002
2.368257e+003;2.729463e-002
2.370186e+003;2.778199e-002
2.372114e+003;2.792490e-002
2.374042e+003;2.787133e-002
2.375971e+003;2.779708e-002
2.377900e+003;2.790359e-002
2.379828e+003;2.810295e-002
2.381757e+003;2.821361e-002
2.383685e+003;2.840398e-002
2.385614e+003;2.855042e-002
2.387542e+003;2.850845e-002
2.389471e+003;2.860297e-002
2.391399e+003;2.871736e-002
2.393328e+003;2.884967e-002
2.395257e+003;2.901078e-002
2.397185e+003;2.911217e-002
2.399114e+003;2.922929e-002
2.401042e+003;2.952596e-002
2.402971e+003;2.967745e-002
2.404899e+003;2.971041e-002
2.406828e+003;2.971307e-002
2.408756e+003;2.978826e-002
2.410685e+003;2.996158e-002
2.412614e+003;3.020969e-002
2.414542e+003;3.047632e-002
2.416471e+003;3.063875e-002
2.418399e+003;3.077413e-002
2.420328e+003;3.097531e-002
2.422256e+003;3.117822e-002
2.424185e+003;3.119175e-002
2.426113e+003;3.134411e-002
2.428042e+003;3.171555e-002
2.429970e+003;3.203589e-002
2.431899e+003;3.228351e-002
2.433828e+003;3.238860e-002
2.435756e+003;3.240806e-002
2.437685e+003;3.261246e-002
2.439613e+003;3.306825e-002
2.441542e+003;3.343060e-002
2.443470e+003;3.346678e-002
2.445399e+003;3.360115e-002
2.447327e+003;3.384412e-002
2.449256e+003;3.416805e-002
2.451185e+003;3.460236e-002
2.453113e+003;3.479024e-002
2.455042e+003;3.479258e-002
2.456970e+003;3.488423e-002
2.458899e+003;3.508093e-002
2.460827e+003;3.529745e-002
2.462756e+003;3.542592e-002
2.464684e+003;3.577574e-002
2.466613e+003;3.622186e-002
2.468542e+003;3.652540e-002
2.470470e+003;3.668293e-002
2.472398e+003;3.670204e-002
2.474327e+003;3.679940e-002
2.476256e+003;3.669959e-002
2.478184e+003;3.691969e-002
2.480113e+003;3.756843e-002
2.482041e+003;3.801180e-002
2.483970e+003;3.812454e-002
2.485898e+003;3.826191e-002
2.487827e+003;3.841664e-002
2.489755e+003;3.825135e-002
2.491684e+003;3.824328e-002
2.493613e+003;3.837450e-002
2.495541e+003;3.853096e-002
2.497470e+003;3.873077e-002
2.499398e+003;3.876011e-002
2.501327e+003;3.903430e-002
2.503255e+003;3.934354e-002
2.505184e+003;3.937786e-002
2.507112e+003;3.949375e-002
2.509041e+003;3.982755e-002
2.510969e+003;4.011833e-002
2.512898e+003;4.008032e-002
2.514827e+003;4.002022e-002
2.516755e+003;3.998283e-002
2.518684e+003;4.019839e-002
2.520612e+003;4.030799e-002
2.522541e+003;4.057089e-002
2.524469e+003;4.084437e-002
2.526398e+003;4.077204e-002
2.528326e+003;4.079759e-002
2.530255e+003;4.095154e-002
2.532184e+003;4.109240e-002
2.534112e+003;4.124857e-002
2.536041e+003;4.139434e-002
2.537969e+003;4.150001e-002
2.539898e+003;4.147063e-002
2.541826e+003;4.138953e-002
2.543755e+003;4.156710e-002
2.545683e+003;4.174583e-002
2.547612e+003;4.162311e-002
2.549541e+003;4.169448e-002
2.551469e+003;4.194541e-002
2.553397e+003;4.220423e-002
2.555326e+003;4.271297e-002
2.557255e+003;4.296117e-002
2.559183e+003;4.279841e-002
2.561112e+003;4.302613e-002
2.563040e+003;4.341312e-002
2.564969e+003;4.344098e-002
2.566897e+003;4.358434e-002
2.568826e+003;4.369938e-002
2.570754e+003;4.348559e-002
2.572683e+003;4.347127e-002
2.574612e+003;4.368816e-002
2.576540e+003;4.396342e-002
2.578469e+003;4.423496e-002
2.580397e+003;4.453197e-002
2.582326e+003;4.470676e-002
2.584254e+003;4.484252e-002
2.586183e+003;4.493606e-002
2.588111e+003;4.509083e-002
2.590040e+003;4.536599e-002
2.591969e+003;4.543297e-002
2.593897e+003;4.542179e-002
2.595826e+003;4.556974e-002
2.597754e+003;4.574181e-002
2.599683e+003;4.610097e-002
2.601611e+003;4.661467e-002
2.603540e+003;4.681494e-002
2.605468e+003;4.690888e-002
2.607397e+003;4.706582e-002
2.609325e+003;4.727916e-002
2.611254e+003;4.743066e-002
2.613183e+003;4.765683e-002
2.615111e+003;4.808368e-002
2.617040e+003;4.836382e-002
2.618968e+003;4.858257e-002
2.620897e+003;4.890423e-002
2.622825e+003;4.924234e-002
2.624754e+003;4.938725e-002
2.626682e+003;4.948430e-002
2.628611e+003;4.988593e-002
2.630540e+003;5.031635e-002
2.632468e+003;5.051503e-002
2.634396e+003;5.084404e-002
2.636325e+003;5.132579e-002
2.638254e+003;5.152288e-002
2.640182e+003;5.168460e-002
2.642111e+003;5.204651e-002
2.644039e+003;5.262889e-002
2.645968e+003;5.300072e-002
2.647896e+003;5.300518e-002
2.649825e+003;5.317588e-002
2.651753e+003;5.367237e-002
2.653682e+003;5.371549e-002
2.655611e+003;5.387552e-002
2.657539e+003;5.440162e-002
2.659468e+003;5.480959e-002
2.661396e+003;5.522385e-002
2.663325e+003;5.540397e-002
2.665253e+003;5.562111e-002
2.667182e+003;5.602702e-002
2.669110e+003;5.649411e-002
2.671039e+003;5.713888e-002
2.672968e+003;5.727435e-002
2.674896e+003;5.743554e-002
2.676825e+003;5.803220e-002
2.678753e+003;5.837196e-002
2.680682e+003;5.825566e-002
2.682610e+003;5.832428e-002
2.684539e+003;5.880523e-002
2.686467e+003;5.915140e-002
2.688396e+003;5.931968e-002
2.690324e+003;5.962148e-002
2.692253e+003;5.987824e-002
2.694182e+003;6.026615e-002
2.696110e+003;6.064630e-002
2.698039e+003;6.101999e-002
2.699967e+003;6.122805e-002
2.701896e+003;6.129051e-002
2.703824e+003;6.147461e-002
2.705753e+003;6.182712e-002
2.707681e+003;6.220443e-002
2.709610e+003;6.239348e-002
2.711539e+003;6.258096e-002
2.713467e+003;6.297991e-002
2.715396e+003;6.324598e-002
2.717324e+003;6.326016e-002
2.719253e+003;6.334265e-002
2.721181e+003;6.365050e-002
2.723110e+003;6.400624e-002
2.725038e+003;6.417982e-002
2.726967e+003;6.425042e-002
2.728896e+003;6.465726e-002
2.730824e+003;6.495318e-002
2.732752e+003;6.491444e-002
2.734681e+003;6.492721e-002
2.736610e+003;6.547612e-002
2.738538e+003;6.592491e-002
2.740467e+003;6.590836e-002
2.742395e+003;6.591835e-002
2.744324e+003;6.611114e-002
2.746252e+003;6.652969e-002
2.748181e+003;6.689205e-002
2.750109e+003;6.707708e-002
2.752038e+003;6.718977e-002
2.753967e+003;6.731506e-002
2.755895e+003;6.726013e-002
2.757824e+003;6.744879e-002
2.759752e+003;6.773055e-002
2.761681e+003;6.811338e-002
2.763609e+003;6.866334e-002
2.765538e+003;6.888974e-002
2.767466e+003;6.907173e-002
2.769395e+003;6.947942e-002
2.771323e+003;6.982584e-002
2.773252e+003;6.996246e-002
2.775181e+003;7.009930e-002
2.777109e+003;7.031640e-002
2.779038e+003;7.077505e-002
2.780966e+003;7.142072e-002
2.782895e+003;7.178833e-002
2.784823e+003;7.201275e-002
2.786752e+003;7.242897e-002
2.788680e+003;7.303516e-002
2.790609e+003;7.359784e-002
2.792538e+003;7.401734e-002
2.794466e+003;7.434444e-002
2.796395e+003;7.471417e-002
2.798323e+003;7.518959e-002
2.800252e+003;7.551478e-002
2.802180e+003;7.588586e-002
2.804109e+003;7.657989e-002
2.806037e+003;7.746433e-002
2.807966e+003;7.779710e-002
2.809895e+003;7.794024e-002
2.811823e+003;7.864499e-002
2.813751e+003;7.939958e-002
2.815680e+003;7.974059e-002
2.817609e+003;7.998001e-002
2.819537e+003;8.055755e-002
2.821466e+003;8.102439e-002
2.823394e+003;8.170290e-002
2.825323e+003;8.277794e-002
2.827251e+003;8.360871e-002
2.829180e+003;8.431609e-002
2.831108e+003;8.510926e-002
2.833037e+003;8.587807e-002
2.834966e+003;8.663964e-002
2.836894e+003;8.775108e-002
2.838823e+003;8.870670e-002
2.840751e+003;8.964518e-002
2.842680e+003;9.080212e-002
2.844608e+003;9.221422e-002
2.846537e+003;9.335791e-002
2.848465e+003;9.445984e-002
2.850394e+003;9.578677e-002
2.852323e+003;9.673435e-002
2.854251e+003;9.746756e-002
2.856180e+003;9.868178e-002
2.858108e+003;1.000347e-001
2.860037e+003;1.016942e-001
2.861965e+003;1.035160e-001
2.863894e+003;1.053355e-001
2.865822e+003;1.067140e-001
2.867751e+003;1.077516e-001
2.869679e+003;1.089184e-001
2.871608e+003;1.100963e-001
2.873536e+003;1.111246e-001
2.875465e+003;1.118302e-001
2.877394e+003;1.125048e-001
2.879322e+003;1.131905e-001
2.881251e+003;1.140409e-001
2.883179e+003;1.144862e-001
2.885108e+003;1.144009e-001
2.887036e+003;1.144092e-001
2.888965e+003;1.144006e-001
2.890893e+003;1.144593e-001
2.892822e+003;1.143921e-001
2.894750e+003;1.139595e-001
2.896679e+003;1.135771e-001
2.898608e+003;1.130536e-001
2.900536e+003;1.125321e-001
2.902465e+003;1.121645e-001
2.904393e+003;1.117622e-001
2.906322e+003;1.112517e-001
2.908250e+003;1.109318e-001
2.910179e+003;1.103511e-001
2.912107e+003;1.098859e-001
2.914036e+003;1.093209e-001
2.915965e+003;1.084346e-001
2.917893e+003;1.078827e-001
2.919822e+003;1.069288e-001
2.921750e+003;1.056050e-001
2.923679e+003;1.046894e-001
2.925607e+003;1.037498e-001
2.927536e+003;1.025670e-001
2.929464e+003;1.014426e-001
2.931393e+003;1.004218e-001
2.933322e+003;9.987784e-002
2.935250e+003;9.920730e-002
2.937178e+003;9.802338e-002
2.939107e+003;9.681021e-002
2.941036e+003;9.606120e-002
2.942964e+003;9.528547e-002
2.944893e+003;9.403745e-002
2.946821e+003;9.267249e-002
2.948750e+003;9.141375e-002
2.950678e+003;9.002227e-002
2.952607e+003;8.876865e-002
2.954535e+003;8.775493e-002
2.956464e+003;8.660938e-002
2.958393e+003;8.546095e-002
2.960321e+003;8.455136e-002
2.962250e+003;8.339350e-002
2.964178e+003;8.240341e-002
2.966107e+003;8.175821e-002
2.968035e+003;8.101441e-002
2.969964e+003;8.011722e-002
2.971892e+003;7.947178e-002
2.973821e+003;7.896221e-002
2.975750e+003;7.870925e-002
2.977678e+003;7.823718e-002
2.979607e+003;7.742216e-002
2.981535e+003;7.664950e-002
2.983464e+003;7.620095e-002
2.985392e+003;7.590177e-002
2.987321e+003;7.554968e-002
2.989249e+003;7.513610e-002
2.991178e+003;7.471023e-002
2.993106e+003;7.452712e-002
2.995035e+003;7.442887e-002
2.996964e+003;7.432108e-002
2.998892e+003;7.399369e-002
3.000821e+003;7.367930e-002
3.002749e+003;7.395644e-002
3.004678e+003;7.438054e-002
3.006606e+003;7.463448e-002
3.008535e+003;7.477100e-002
3.010463e+003;7.497584e-002
3.012392e+003;7.511522e-002
3.014321e+003;7.552361e-002
3.016249e+003;7.602451e-002
3.018177e+003;7.598863e-002
3.020106e+003;7.591459e-002
3.022035e+003;7.619712e-002
3.023963e+003;7.663032e-002
3.025892e+003;7.732262e-002
3.027820e+003;7.793085e-002
3.029749e+003;7.830698e-002
3.031677e+003;7.910291e-002
3.033606e+003;7.976057e-002
3.035534e+003;8.004187e-002
3.037463e+003;8.043200e-002
3.039392e+003;8.098431e-002
3.041320e+003;8.179113e-002
3.043249e+003;8.240052e-002
3.045177e+003;8.283471e-002
3.047106e+003;8.339081e-002
3.049034e+003;8.391149e-002
3.050963e+003;8.441330e-002
3.052891e+003;8.497598e-002
3.054820e+003;8.559603e-002
3.056749e+003;8.608644e-002
3.058677e+003;8.642927e-002
3.060606e+003;8.728107e-002
3.062534e+003;8.808674e-002
3.064463e+003;8.843944e-002
3.066391e+003;8.915030e-002
3.068320e+003;9.005064e-002
3.070248e+003;9.065802e-002
3.072177e+003;9.107705e-002
3.074105e+003;9.171224e-002
3.076034e+003;9.266917e-002
3.077963e+003;9.349386e-002
3.079891e+003;9.411082e-002
3.081820e+003;9.487130e-002
3.083748e+003;9.552345e-002
3.085677e+003;9.605798e-002
3.087605e+003;9.667271e-002
3.089534e+003;9.729131e-002
3.091462e+003;9.792344e-002
3.093391e+003;9.836853e-002
3.095320e+003;9.891015e-002
3.097248e+003;9.949477e-002
3.099177e+003;1.001530e-001
3.101105e+003;1.008670e-001
3.103034e+003;1.017251e-001
3.104962e+003;1.024708e-001
3.106891e+003;1.026985e-001
3.108819e+003;1.032781e-001
3.110748e+003;1.041770e-001
3.112677e+003;1.051146e-001
3.114605e+003;1.056751e-001
3.116533e+003;1.058228e-001
3.118462e+003;1.063327e-001
3.120391e+003;1.072881e-001
3.122319e+003;1.082188e-001
3.124248e+003;1.088472e-001
3.126176e+003;1.094287e-001
3.128105e+003;1.102957e-001
3.130033e+003;1.108968e-001
3.131962e+003;1.113327e-001
3.133890e+003;1.123137e-001
3.135819e+003;1.131983e-001
3.137748e+003;1.136658e-001
3.139676e+003;1.139592e-001
3.141605e+003;1.153028e-001
3.143533e+003;1.163925e-001
3.145462e+003;1.165767e-001
3.147390e+003;1.170702e-001
3.149319e+003;1.176949e-001
3.151247e+003;1.183384e-001
3.153176e+003;1.187416e-001
3.155104e+003;1.194698e-001
3.157033e+003;1.204558e-001
3.158962e+003;1.210604e-001
3.160890e+003;1.217957e-001
3.162819e+003;1.226720e-001
3.164747e+003;1.230782e-001
3.166676e+003;1.235856e-001
3.168604e+003;1.243315e-001
3.170533e+003;1.249685e-001
3.172461e+003;1.255030e-001
3.174390e+003;1.261845e-001
3.176319e+003;1.268525e-001
3.178247e+003;1.275697e-001
3.180176e+003;1.282083e-001
3.182104e+003;1.287668e-001
3.184033e+003;1.292570e-001
3.185961e+003;1.298954e-001
3.187890e+003;1.305916e-001
3.189818e+003;1.312801e-001
3.191747e+003;1.320784e-001
3.193676e+003;1.328885e-001
3.195604e+003;1.333400e-001
3.197532e+003;1.335385e-001
3.199461e+003;1.341302e-001
3.201390e+003;1.349600e-001
3.203318e+003;1.354900e-001
3.205247e+003;1.355895e-001
3.207175e+003;1.360044e-001
3.209104e+003;1.363075e-001
3.211032e+003;1.366605e-001
3.212961e+003;1.377815e-001
3.214889e+003;1.389594e-001
3.216818e+003;1.398090e-001
3.218747e+003;1.401021e-001
3.220675e+003;1.401837e-001
3.222604e+003;1.407220e-001
3.224532e+003;1.413751e-001
3.226461e+003;1.415891e-001
3.228389e+003;1.422293e-001
3.230318e+003;1.427128e-001
3.232246e+003;1.429324e-001
3.234175e+003;1.437873e-001
3.236104e+003;1.444980e-001
3.238032e+003;1.446825e-001
3.239961e+003;1.447592e-001
3.241889e+003;1.450705e-001
3.243818e+003;1.458935e-001
3.245746e+003;1.462946e-001
3.247675e+003;1.462007e-001
3.249603e+003;1.467560e-001
3.251532e+003;1.475272e-001
3.253460e+003;1.479360e-001
3.255389e+003;1.483796e-001
3.257318e+003;1.487837e-001
3.259246e+003;1.489925e-001
3.261175e+003;1.491837e-001
3.263103e+003;1.492202e-001
3.265032e+003;1.496346e-001
3.266960e+003;1.502874e-001
3.268889e+003;1.509161e-001
3.270817e+003;1.516793e-001
3.272746e+003;1.519617e-001
3.274675e+003;1.522533e-001
3.276603e+003;1.523756e-001
3.278531e+003;1.524149e-001
3.280460e+003;1.527138e-001
3.282389e+003;1.531015e-001
3.284317e+003;1.536538e-001
3.286246e+003;1.539291e-001
3.288174e+003;1.536623e-001
3.290103e+003;1.535756e-001
3.292031e+003;1.536953e-001
3.293960e+003;1.542722e-001
3.295888e+003;1.548875e-001
3.297817e+003;1.548119e-001
3.299746e+003;1.547333e-001
3.301674e+003;1.548588e-001
3.303603e+003;1.552289e-001
3.305531e+003;1.555363e-001
3.307460e+003;1.557013e-001
3.309388e+003;1.561842e-001
3.311317e+003;1.563124e-001
3.313245e+003;1.562464e-001
3.315174e+003;1.563989e-001
3.317103e+003;1.563759e-001
3.319031e+003;1.562858e-001
3.320960e+003;1.563483e-001
3.322888e+003;1.566589e-001
3.324817e+003;1.568224e-001
3.326745e+003;1.565493e-001
3.328674e+003;1.565183e-001
3.330602e+003;1.564158e-001
3.332531e+003;1.563864e-001
3.334459e+003;1.565484e-001
3.336388e+003;1.568562e-001
3.338317e+003;1.572785e-001
3.340245e+003;1.575354e-001
3.342174e+003;1.573914e-001
3.344102e+003;1.573051e-001
3.346031e+003;1.572529e-001
3.347959e+003;1.568456e-001
3.349888e+003;1.568431e-001
3.351816e+003;1.570940e-001
3.353745e+003;1.566930e-001
3.355674e+003;1.566792e-001
3.357602e+003;1.568436e-001
3.359531e+003;1.564361e-001
3.361459e+003;1.558151e-001
3.363388e+003;1.553065e-001
3.365316e+003;1.547883e-001
3.367245e+003;1.548394e-001
3.369173e+003;1.550100e-001
3.371102e+003;1.547619e-001
3.373031e+003;1.549214e-001
3.374959e+003;1.547412e-001
3.376887e+003;1.541646e-001
3.378816e+003;1.534850e-001
3.380745e+003;1.531476e-001
3.382673e+003;1.529037e-001
3.384602e+003;1.528548e-001
3.386530e+003;1.524719e-001
3.388459e+003;1.515883e-001
3.390387e+003;1.514691e-001
3.392316e+003;1.512223e-001
3.394244e+003;1.505585e-001
3.396173e+003;1.501676e-001
3.398102e+003;1.497492e-001
3.400030e+003;1.495490e-001
3.401959e+003;1.490469e-001
3.403887e+003;1.487225e-001
3.405816e+003;1.485504e-001
3.407744e+003;1.482188e-001
3.409673e+003;1.475606e-001
3.411601e+003;1.469428e-001
3.413530e+003;1.464539e-001
3.415458e+003;1.458509e-001
3.417387e+003;1.450957e-001
3.419316e+003;1.444429e-001
3.421244e+003;1.441614e-001
3.423173e+003;1.439535e-001
3.425101e+003;1.430223e-001
3.427030e+003;1.420216e-001
3.428958e+003;1.417418e-001
3.430887e+003;1.414733e-001
3.432815e+003;1.408641e-001
3.434744e+003;1.402283e-001
3.436673e+003;1.391842e-001
3.438601e+003;1.383216e-001
3.440530e+003;1.380393e-001
3.442458e+003;1.372017e-001
3.444387e+003;1.358546e-001
3.446315e+003;1.348744e-001
3.448244e+003;1.340555e-001
3.450172e+003;1.331831e-001
3.452101e+003;1.323967e-001
3.454030e+003;1.316886e-001
3.455958e+003;1.308594e-001
3.457886e+003;1.298149e-001
3.459815e+003;1.286550e-001
3.461744e+003;1.271962e-001
3.463672e+003;1.259278e-001
3.465601e+003;1.251410e-001
3.467529e+003;1.246964e-001
3.469458e+003;1.239523e-001
3.471386e+003;1.227683e-001
3.473315e+003;1.215801e-001
3.475243e+003;1.206739e-001
3.477172e+003;1.194047e-001
3.479101e+003;1.180157e-001
3.481029e+003;1.174119e-001
3.482958e+003;1.168829e-001
3.484886e+003;1.159675e-001
3.486815e+003;1.151114e-001
3.488743e+003;1.140568e-001
3.490672e+003;1.128181e-001
3.492600e+003;1.117280e-001
3.494529e+003;1.105699e-001
3.496458e+003;1.090525e-001
3.498386e+003;1.074999e-001
3.500315e+003;1.063271e-001
3.502243e+003;1.050491e-001
3.504172e+003;1.038138e-001
3.506100e+003;1.029193e-001
3.508029e+003;1.018720e-001
3.509957e+003;1.008925e-001
3.511886e+003;9.973428e-002
3.513814e+003;9.792477e-002
3.515743e+003;9.663641e-002
3.517672e+003;9.620500e-002
3.519600e+003;9.555021e-002
3.521529e+003;9.414744e-002
3.523457e+003;9.304675e-002
3.525386e+003;9.221451e-002
3.527314e+003;9.095186e-002
3.529243e+003;8.971980e-002
3.531171e+003;8.853690e-002
3.533100e+003;8.759927e-002
3.535029e+003;8.658835e-002
3.536957e+003;8.554879e-002
3.538885e+003;8.481157e-002
3.540814e+003;8.356429e-002
3.542743e+003;8.206410e-002
3.544671e+003;8.085329e-002
3.546600e+003;8.013387e-002
3.548528e+003;7.950138e-002
3.550457e+003;7.847383e-002
3.552385e+003;7.745994e-002
3.554314e+003;7.642325e-002
3.556242e+003;7.538658e-002
3.558171e+003;7.455809e-002
3.560100e+003;7.340267e-002
3.562028e+003;7.237976e-002
3.563957e+003;7.193560e-002
3.565885e+003;7.098101e-002
3.567814e+003;6.984628e-002
3.569742e+003;6.907232e-002
3.571671e+003;6.809272e-002
3.573599e+003;6.732067e-002
3.575528e+003;6.652421e-002
3.577457e+003;6.547558e-002
3.579385e+003;6.458817e-002
3.581314e+003;6.375052e-002
3.583242e+003;6.313159e-002
3.585171e+003;6.239684e-002
3.587099e+003;6.138232e-002
3.589028e+003;6.044571e-002
3.590956e+003;5.965205e-002
3.592885e+003;5.883129e-002
3.594813e+003;5.789032e-002
3.596742e+003;5.695826e-002
3.598671e+003;5.596969e-002
3.600599e+003;5.523792e-002
3.602528e+003;5.462088e-002
3.604456e+003;5.405951e-002
3.606385e+003;5.290442e-002
3.608313e+003;5.180427e-002
3.610242e+003;5.132546e-002
3.612170e+003;5.049616e-002
3.614099e+003;4.950806e-002
3.616028e+003;4.852959e-002
3.617956e+003;4.713776e-002
3.619885e+003;4.614209e-002
3.621813e+003;4.530305e-002
3.623742e+003;4.453730e-002
3.625670e+003;4.396658e-002
3.627599e+003;4.309433e-002
3.629527e+003;4.189961e-002
3.631456e+003;4.101028e-002
3.633385e+003;4.026982e-002
3.635313e+003;3.934231e-002
3.637241e+003;3.833121e-002
3.639170e+003;3.707347e-002
3.641099e+003;3.596590e-002
3.643027e+003;3.545324e-002
3.644956e+003;3.460477e-002
3.646884e+003;3.343389e-002
3.648813e+003;3.231550e-002
3.650741e+003;3.109143e-002
3.652670e+003;3.000400e-002
3.654598e+003;2.904422e-002
3.656527e+003;2.845064e-002
3.658456e+003;2.803975e-002
3.660384e+003;2.728130e-002
3.662313e+003;2.627843e-002
3.664241e+003;2.529445e-002
3.666170e+003;2.477525e-002
3.668098e+003;2.429062e-002
3.670027e+003;2.319686e-002
3.671955e+003;2.226768e-002
3.673884e+003;2.155070e-002
3.675813e+003;2.081381e-002
3.677741e+003;2.044332e-002
3.679669e+003;2.016962e-002
3.681598e+003;1.973722e-002
3.683527e+003;1.940509e-002
3.685455e+003;1.889503e-002
3.687384e+003;1.807664e-002
3.689312e+003;1.760156e-002
3.691241e+003;1.713690e-002
3.693169e+003;1.674856e-002
3.695098e+003;1.652109e-002
3.697026e+003;1.619042e-002
3.698955e+003;1.598411e-002
3.700884e+003;1.595596e-002
3.702812e+003;1.570726e-002
3.704741e+003;1.544100e-002
3.706669e+003;1.519740e-002
3.708598e+003;1.475648e-002
3.710526e+003;1.433889e-002
3.712455e+003;1.418491e-002
3.714383e+003;1.392936e-002
3.716312e+003;1.375487e-002
3.718240e+003;1.361566e-002
3.720169e+003;1.349219e-002
3.722098e+003;1.356312e-002
3.724026e+003;1.354288e-002
3.725955e+003;1.307567e-002
3.727883e+003;1.290091e-002
3.729812e+003;1.295887e-002
3.731740e+003;1.292996e-002
3.733669e+003;1.247292e-002
3.735597e+003;1.181091e-002
3.737526e+003;1.202015e-002
3.739455e+003;1.239624e-002
3.741383e+003;1.249908e-002
3.743312e+003;1.247797e-002
3.745240e+003;1.231994e-002
3.747169e+003;1.229332e-002
3.749097e+003;1.183729e-002
3.751026e+003;1.144053e-002
3.752954e+003;1.177036e-002
3.754883e+003;1.207693e-002
3.756812e+003;1.185061e-002
3.758740e+003;1.175477e-002
3.760668e+003;1.174758e-002
3.762597e+003;1.159017e-002
3.764526e+003;1.133886e-002
3.766454e+003;1.115905e-002
3.768383e+003;1.135457e-002
3.770311e+003;1.148210e-002
3.772240e+003;1.141358e-002
3.774168e+003;1.163890e-002
3.776097e+003;1.183597e-002
3.778025e+003;1.169271e-002
3.779954e+003;1.156005e-002
3.781883e+003;1.138025e-002
3.783811e+003;1.119508e-002
3.785740e+003;1.128087e-002
3.787668e+003;1.140957e-002
3.789597e+003;1.105000e-002
3.791525e+003;1.074564e-002
3.793454e+003;1.100487e-002
3.795382e+003;1.142294e-002
3.797311e+003;1.153963e-002
3.799240e+003;1.134960e-002
3.801168e+003;1.116874e-002
3.803097e+003;1.137923e-002
3.805025e+003;1.119338e-002
3.806954e+003;1.067368e-002
3.808882e+003;1.066186e-002
3.810811e+003;1.102108e-002
3.812739e+003;1.126673e-002
3.814668e+003;1.090449e-002
3.816596e+003;1.059286e-002
3.818525e+003;1.096069e-002
3.820454e+003;1.117860e-002
3.822382e+003;1.129604e-002
3.824311e+003;1.161259e-002
3.826239e+003;1.158009e-002
3.828168e+003;1.137256e-002
3.830096e+003;1.131328e-002
3.832025e+003;1.149149e-002
3.833953e+003;1.163356e-002
3.835882e+003;1.153068e-002
3.837811e+003;1.111135e-002
3.839739e+003;1.101238e-002
3.841667e+003;1.128057e-002
3.843596e+003;1.150244e-002
3.845525e+003;1.165292e-002
3.847453e+003;1.168655e-002
3.849382e+003;1.145029e-002
3.851310e+003;1.124755e-002
3.853239e+003;1.111941e-002
3.855167e+003;1.132403e-002
3.857096e+003;1.164874e-002
3.859024e+003;1.171899e-002
3.860953e+003;1.173346e-002
3.862882e+003;1.183924e-002
3.864810e+003;1.199450e-002
3.866739e+003;1.190768e-002
3.868667e+003;1.191742e-002
3.870596e+003;1.246303e-002
3.872524e+003;1.287429e-002
3.874453e+003;1.237745e-002
3.876381e+003;1.225620e-002
3.878310e+003;1.258853e-002
3.880239e+003;1.286797e-002
3.882167e+003;1.324231e-002
3.884096e+003;1.338662e-002
3.886024e+003;1.283842e-002
3.887953e+003;1.272236e-002
3.889881e+003;1.298529e-002
3.891810e+003;1.292535e-002
3.893738e+003;1.288248e-002
3.895667e+003;1.294668e-002
3.897595e+003;1.289743e-002
3.899524e+003;1.269339e-002
3.901453e+003;1.298895e-002
3.903381e+003;1.332990e-002
3.905310e+003;1.342278e-002
3.907238e+003;1.341502e-002
3.909167e+003;1.350039e-002
3.911095e+003;1.406620e-002
3.913024e+003;1.462347e-002
3.914952e+003;1.441825e-002
3.916881e+003;1.427818e-002
3.918810e+003;1.452410e-002
3.920738e+003;1.456227e-002
3.922667e+003;1.425167e-002
3.924595e+003;1.394092e-002
3.926524e+003;1.424500e-002
3.928452e+003;1.462895e-002
3.930381e+003;1.454003e-002
3.932309e+003;1.472872e-002
3.934238e+003;1.492623e-002
3.936167e+003;1.483118e-002
3.938095e+003;1.496615e-002
3.940023e+003;1.518875e-002
3.941952e+003;1.526387e-002
3.943881e+003;1.480328e-002
3.945809e+003;1.515461e-002
3.947738e+003;1.571121e-002
3.949666e+003;1.548045e-002
3.951595e+003;1.540278e-002
3.953523e+003;1.595362e-002
3.955452e+003;1.566048e-002
3.957380e+003;1.526610e-002
3.959309e+003;1.535709e-002
3.961238e+003;1.552866e-002
3.963166e+003;1.571778e-002
3.965095e+003;1.568387e-002
3.967023e+003;1.559858e-002
3.968952e+003;1.597758e-002
3.970880e+003;1.635894e-002
3.972809e+003;1.611094e-002
3.974737e+003;1.545047e-002
3.976666e+003;1.548931e-002
3.978594e+003;1.601931e-002
3.980523e+003;1.644837e-002
3.982452e+003;1.621841e-002
3.984380e+003;1.611895e-002
3.986309e+003;1.637604e-002
3.988237e+003;1.643106e-002
3.990166e+003;1.661592e-002
3.992094e+003;1.649486e-002
3.994023e+003;1.637126e-002
3.995951e+003;1.602509e-002
3.997880e+003;1.570012e-002
3.999809e+003;1.601643e-002
4.001737e+003;0.000000e+000
