3.992094e+002;0.000000e+000
4.011380e+002;0.000000e+000
4.030665e+002;0.000000e+000
4.049951e+002;0.000000e+000
4.069236e+002;0.000000e+000
4.088522e+002;0.000000e+000
4.107807e+002;0.000000e+000
4.127093e+002;0.000000e+000
4.146378e+002;0.000000e+000
4.165664e+002;0.000000e+000
4.184949e+002;0.000000e+000
4.204235e+002;0.000000e+000
4.223520e+002;0.000000e+000
4.242806e+002;0.000000e+000
4.262091e+002;0.000000e+000
4.281377e+002;0.000000e+000
4.300662e+002;0.000000e+000
4.319948e+002;0.000000e+000
4.339233e+002;0.000000e+000
4.358519e+002;0.000000e+000
4.377804e+002;0.000000e+000
4.397090e+002;0.000000e+000
4.416375e+002;0.000000e+000
4.435660e+002;0.000000e+000
4.454946e+002;0.000000e+000
4.474232e+002;0.000000e+000
4.493517e+002;0.000000e+000
4.512802e+002;0.000000e+000
4.532088e+002;0.000000e+000
4.551373e+002;0.000000e+000
4.570659e+002;0.000000e+000
4.589944e+002;0.000000e+000
4.609230e+002;0.000000e+000
4.628515e+002;0.000000e+000
4.647801e+002;0.000000e+000
4.667086e+002;0.000000e+000
4.686372e+002;0.000000e+000
4.705657e+002;0.000000e+000
4.724943e+002;0.000000e+000
4.744228e+002;0.000000e+000
4.763513e+002;0.000000e+000
4.782799e+002;0.000000e+000
4.802085e+002;0.000000e+000
4.821370e+002;0.000000e+000
4.840656e+002;0.000000e+000
4.859941e+002;0.000000e+000
4.879226e+002;0.000000e+000
4.898512e+002;0.000000e+000
4.917798e+002;0.000000e+000
4.937083e+002;0.000000e+000
4.956368e+002;0.000000e+000
4.975654e+002;0.000000e+000
4.994939e+002;0.000000e+000
5.014225e+002;0.000000e+000
5.033510e+002;0.000000e+000
5.052796e+002;0.000000e+000
5.072081e+002;0.000000e+000
5.091367e+002;0.000000e+000
5.110652e+002;0.000000e+000
5.129938e+002;0.000000e+000
5.149223e+002;0.000000e+000
5.168509e+002;0.000000e+000
5.187794e+002;0.000000e+000
5.207079e+002;0.000000e+000
5.226365e+002;0.000000e+000
5.245651e+002;0.000000e+000
5.264936e+002;0.000000e+000
5.284222e+002;0.000000e+000
5.303507e+002;0.000000e+000
5.322792e+002;0.000000e+000
5.342078e+002;0.000000e+000
5.361364e+002;0.000000e+000
5.380649e+002;0.000000e+000
5.399935e+002;0.000000e+000
5.419220e+002;0.000000e+000
5.438505e+002;0.000000e+000
5.457791e+002;0.000000e+000
5.477076e+002;0.000000e+000
5.496362e+002;0.000000e+000
5.515648e+002;0.000000e+000
5.534933e+002;0.000000e+000
5.554218e+002;0.000000e+000
5.573504e+002;0.000000e+000
5.592789e+002;0.000000e+000
5.612075e+002;0.000000e+000
5.631360e+002;0.000000e+000
5.650646e+002;0.000000e+000
5.669931e+002;0.000000e+000
5.689217e+002;0.000000e+000
5.708502e+002;0.000000e+000
5.727787e+002;0.000000e+000
5.747073e+002;0.000000e+000
5.766359e+002;0.000000e+000
5.785644e+002;0.000000e+000
5.804930e+002;0.000000e+000
5.824215e+002;0.000000e+000
5.843500e+002;0.000000e+000
5.862786e+002;0.000000e+000
5.882072e+002;0.000000e+000
5.901357e+002;0.000000e+000
5.920643e+002;0.000000e+000
5.939928e+002;0.000000e+000
5.959213e+002;0.000000e+000
5.978499e+002;0.000000e+000
5.997784e+002;2.887622e-001
6.017070e+002;2.797200e-001
6.036355e+002;2.722856e-001
6.055641e+002;2.742560e-001
6.074926e+002;2.774297e-001
6.094211e+002;2.833110e-001
6.113497e+002;2.851257e-001
6.132783e+002;2.794611e-001
6.152068e+002;2.810962e-001
6.171354e+002;2.821655e-001
6.190639e+002;2.761913e-001
6.209924e+002;2.745052e-001
6.229210e+002;2.745884e-001
6.248495e+002;2.742411e-001
6.267781e+002;2.687280e-001
6.287067e+002;2.595060e-001
6.306352e+002;2.577870e-001
6.325637e+002;2.638479e-001
6.344923e+002;2.654603e-001
6.364208e+002;2.598280e-001
6.383494e+002;2.563882e-001
6.402780e+002;2.591139e-001
6.422065e+002;2.620439e-001
6.441350e+002;2.611821e-001
6.460636e+002;2.551083e-001
6.479921e+002;2.529997e-001
6.499207e+002;2.534849e-001
6.518492e+002;2.552128e-001
6.537778e+002;2.580559e-001
6.557063e+002;2.596886e-001
6.576349e+002;2.609603e-001
6.595634e+002;2.618655e-001
6.614919e+002;2.598233e-001
6.634205e+002;2.565833e-001
6.653491e+002;2.555829e-001
6.672776e+002;2.573344e-001
6.692062e+002;2.568395e-001
6.711347e+002;2.521312e-001
6.730632e+002;2.427041e-001
6.749918e+002;2.316256e-001
6.769203e+002;2.238326e-001
6.788489e+002;2.174011e-001
6.807775e+002;2.117549e-001
6.827060e+002;2.092983e-001
6.846345e+002;2.081747e-001
6.865631e+002;2.053499e-001
6.884916e+002;2.021169e-001
6.904202e+002;2.001384e-001
6.923488e+002;1.992795e-001
6.942773e+002;1.988704e-001
6.962058e+002;1.986224e-001
6.981344e+002;1.981100e-001
7.000629e+002;1.971223e-001
7.019915e+002;1.956501e-001
7.039200e+002;1.949004e-001
7.058486e+002;1.943524e-001
7.077771e+002;1.927283e-001
7.097057e+002;1.912348e-001
7.116342e+002;1.902274e-001
7.135627e+002;1.891403e-001
7.154913e+002;1.878970e-001
7.174199e+002;1.864950e-001
7.193484e+002;1.845585e-001
7.212770e+002;1.827505e-001
7.232055e+002;1.820960e-001
7.251340e+002;1.816494e-001
7.270626e+002;1.797130e-001
7.289911e+002;1.783216e-001
7.309197e+002;1.771914e-001
7.328483e+002;1.763744e-001
7.347768e+002;1.749309e-001
7.367053e+002;1.726509e-001
7.386339e+002;1.711289e-001
7.405624e+002;1.708666e-001
7.424910e+002;1.705403e-001
7.444196e+002;1.694289e-001
7.463481e+002;1.675550e-001
7.482766e+002;1.658078e-001
7.502052e+002;1.632093e-001
7.521337e+002;1.604296e-001
7.540623e+002;1.592067e-001
7.559908e+002;1.586879e-001
7.579194e+002;1.573712e-001
7.598479e+002;1.565006e-001
7.617765e+002;1.563890e-001
7.637050e+002;1.559033e-001
7.656335e+002;1.542118e-001
7.675621e+002;1.523191e-001
7.694907e+002;1.511554e-001
7.714192e+002;1.505463e-001
7.733478e+002;1.495878e-001
7.752763e+002;1.481701e-001
7.772048e+002;1.472642e-001
7.791334e+002;1.467121e-001
7.810620e+002;1.464616e-001
7.829905e+002;1.460014e-001
7.849191e+002;1.453309e-001
7.868476e+002;1.448991e-001
7.887761e+002;1.450880e-001
7.907047e+002;1.451132e-001
7.926332e+002;1.451870e-001
7.945618e+002;1.454550e-001
7.964903e+002;1.457630e-001
7.984189e+002;1.453701e-001
8.003474e+002;1.443999e-001
8.022759e+002;1.439061e-001
8.042045e+002;1.438741e-001
8.061331e+002;1.440148e-001
8.080616e+002;1.438566e-001
8.099902e+002;1.436602e-001
8.119187e+002;1.423806e-001
8.138472e+002;1.412517e-001
8.157758e+002;1.416443e-001
8.177043e+002;1.414472e-001
8.196329e+002;1.412051e-001
8.215615e+002;1.410348e-001
8.234900e+002;1.407603e-001
8.254185e+002;1.398470e-001
8.273471e+002;1.382774e-001
8.292756e+002;1.375685e-001
8.312042e+002;1.370986e-001
8.331328e+002;1.357325e-001
8.350613e+002;1.341850e-001
8.369898e+002;1.335490e-001
8.389184e+002;1.327623e-001
8.408469e+002;1.315143e-001
8.427755e+002;1.313813e-001
8.447040e+002;1.317205e-001
8.466326e+002;1.313773e-001
8.485611e+002;1.304760e-001
8.504897e+002;1.299443e-001
8.524182e+002;1.297978e-001
8.543467e+002;1.296862e-001
8.562753e+002;1.302132e-001
8.582039e+002;1.317671e-001
8.601324e+002;1.332003e-001
8.620610e+002;1.340231e-001
8.639895e+002;1.349540e-001
8.659180e+002;1.364650e-001
8.678466e+002;1.384560e-001
8.697751e+002;1.406267e-001
8.717037e+002;1.436068e-001
8.736323e+002;1.470640e-001
8.755608e+002;1.507493e-001
8.774893e+002;1.552462e-001
8.794179e+002;1.602185e-001
8.813464e+002;1.655200e-001
8.832750e+002;1.709346e-001
8.852036e+002;1.764340e-001
8.871321e+002;1.819319e-001
8.890606e+002;1.873400e-001
8.909892e+002;1.920546e-001
8.929177e+002;1.954676e-001
8.948463e+002;1.972094e-001
8.967748e+002;1.968549e-001
8.987034e+002;1.953411e-001
9.006319e+002;1.930395e-001
9.025605e+002;1.901761e-001
9.044890e+002;1.867993e-001
9.064175e+002;1.829375e-001
9.083461e+002;1.787811e-001
9.102747e+002;1.747509e-001
9.122032e+002;1.716915e-001
9.141318e+002;1.701328e-001
9.160603e+002;1.692413e-001
9.179888e+002;1.689353e-001
9.199174e+002;1.695657e-001
9.218459e+002;1.708041e-001
9.237745e+002;1.725761e-001
9.257031e+002;1.742473e-001
9.276316e+002;1.755811e-001
9.295601e+002;1.770030e-001
9.314887e+002;1.786593e-001
9.334172e+002;1.806359e-001
9.353458e+002;1.828289e-001
9.372744e+002;1.850443e-001
9.392029e+002;1.876094e-001
9.411314e+002;1.904123e-001
9.430600e+002;1.935269e-001
9.449885e+002;1.975950e-001
9.469171e+002;2.025572e-001
9.488456e+002;2.079609e-001
9.507742e+002;2.134190e-001
9.527027e+002;2.191805e-001
9.546313e+002;2.251133e-001
9.565598e+002;2.307605e-001
9.584883e+002;2.369355e-001
9.604169e+002;2.439961e-001
9.623455e+002;2.507648e-001
9.642740e+002;2.574025e-001
9.662026e+002;2.648838e-001
9.681311e+002;2.728088e-001
9.700596e+002;2.816011e-001
9.719882e+002;2.917698e-001
9.739167e+002;3.035205e-001
9.758453e+002;3.168638e-001
9.777739e+002;3.323607e-001
9.797024e+002;3.495629e-001
9.816309e+002;3.684396e-001
9.835595e+002;3.884099e-001
9.854880e+002;4.090689e-001
9.874166e+002;4.287168e-001
9.893452e+002;4.453564e-001
9.912737e+002;4.583717e-001
9.932022e+002;4.681302e-001
9.951307e+002;4.749406e-001
9.970593e+002;4.789401e-001
9.989879e+002;4.817050e-001
1.000916e+003;4.846740e-001
1.002845e+003;4.881203e-001
1.004773e+003;4.930850e-001
1.006702e+003;5.015993e-001
1.008631e+003;5.121779e-001
1.010559e+003;5.239129e-001
1.012488e+003;5.354735e-001
1.014416e+003;5.456076e-001
1.016345e+003;5.532338e-001
1.018273e+003;5.578629e-001
1.020202e+003;5.593326e-001
1.022130e+003;5.582594e-001
1.024059e+003;5.547770e-001
1.025988e+003;5.491568e-001
1.027916e+003;5.417519e-001
1.029845e+003;5.340172e-001
1.031773e+003;5.266463e-001
1.033702e+003;5.201576e-001
1.035630e+003;5.141941e-001
1.037559e+003;5.084965e-001
1.039487e+003;5.024595e-001
1.041416e+003;4.970733e-001
1.043344e+003;4.929548e-001
1.045273e+003;4.889544e-001
1.047202e+003;4.840859e-001
1.049130e+003;4.789352e-001
1.051059e+003;4.741549e-001
1.052987e+003;4.694198e-001
1.054916e+003;4.635292e-001
1.056844e+003;4.573985e-001
1.058773e+003;4.516902e-001
1.060701e+003;4.449214e-001
1.062630e+003;4.366638e-001
1.064558e+003;4.278392e-001
1.066487e+003;4.190857e-001
1.068416e+003;4.099199e-001
1.070344e+003;4.009593e-001
1.072273e+003;3.918803e-001
1.074201e+003;3.821120e-001
1.076130e+003;3.728425e-001
1.078058e+003;3.647504e-001
1.079987e+003;3.575516e-001
1.081915e+003;3.507684e-001
1.083844e+003;3.445542e-001
1.085773e+003;3.385072e-001
1.087701e+003;3.319286e-001
1.089630e+003;3.257018e-001
1.091558e+003;3.203055e-001
1.093487e+003;3.144460e-001
1.095415e+003;3.079023e-001
1.097344e+003;3.012371e-001
1.099272e+003;2.944564e-001
1.101201e+003;2.871528e-001
1.103129e+003;2.806556e-001
1.105058e+003;2.749403e-001
1.106987e+003;2.694098e-001
1.108915e+003;2.642600e-001
1.110844e+003;2.599567e-001
1.112772e+003;2.558884e-001
1.114701e+003;2.496194e-001
1.116629e+003;2.429441e-001
1.118558e+003;2.373716e-001
1.120486e+003;2.311539e-001
1.122415e+003;2.242335e-001
1.124344e+003;2.174881e-001
1.126272e+003;2.112586e-001
1.128201e+003;2.050222e-001
1.130129e+003;1.987589e-001
1.132058e+003;1.930055e-001
1.133986e+003;1.883228e-001
1.135915e+003;1.840908e-001
1.137843e+003;1.803651e-001
1.139772e+003;1.777771e-001
1.141700e+003;1.760358e-001
1.143629e+003;1.755951e-001
1.145557e+003;1.757913e-001
1.147486e+003;1.761340e-001
1.149415e+003;1.775478e-001
1.151343e+003;1.794906e-001
1.153272e+003;1.807271e-001
1.155200e+003;1.807008e-001
1.157129e+003;1.798966e-001
1.159057e+003;1.774478e-001
1.160986e+003;1.733175e-001
1.162914e+003;1.680693e-001
1.164843e+003;1.615278e-001
1.166771e+003;1.537328e-001
1.168700e+003;1.460789e-001
1.170629e+003;1.392580e-001
1.172557e+003;1.329967e-001
1.174486e+003;1.272682e-001
1.176414e+003;1.223077e-001
1.178343e+003;1.181920e-001
1.180271e+003;1.150820e-001
1.182200e+003;1.126196e-001
1.184128e+003;1.113792e-001
1.186057e+003;1.115527e-001
1.187986e+003;1.124995e-001
1.189914e+003;1.145195e-001
1.191843e+003;1.174163e-001
1.193771e+003;1.201900e-001
1.195700e+003;1.228369e-001
1.197628e+003;1.245034e-001
1.199557e+003;1.246924e-001
1.201485e+003;1.238744e-001
1.203414e+003;1.221066e-001
1.205343e+003;1.195133e-001
1.207271e+003;1.172601e-001
1.209200e+003;1.155463e-001
1.211128e+003;1.142052e-001
1.213057e+003;1.139742e-001
1.214985e+003;1.147397e-001
1.216914e+003;1.159540e-001
1.218842e+003;1.175679e-001
1.220771e+003;1.200368e-001
1.222699e+003;1.226956e-001
1.224628e+003;1.247988e-001
1.226557e+003;1.266773e-001
1.228485e+003;1.279213e-001
1.230414e+003;1.287079e-001
1.232342e+003;1.294888e-001
1.234271e+003;1.298098e-001
1.236199e+003;1.297347e-001
1.238128e+003;1.301159e-001
1.240056e+003;1.304829e-001
1.241985e+003;1.303799e-001
1.243913e+003;1.301480e-001
1.245842e+003;1.302485e-001
1.247771e+003;1.312066e-001
1.249699e+003;1.322563e-001
1.251628e+003;1.333578e-001
1.253556e+003;1.350913e-001
1.255485e+003;1.371399e-001
1.257413e+003;1.392260e-001
1.259342e+003;1.406336e-001
1.261270e+003;1.409679e-001
1.263199e+003;1.401273e-001
1.265127e+003;1.382137e-001
1.267056e+003;1.356597e-001
1.268985e+003;1.331788e-001
1.270913e+003;1.310054e-001
1.272842e+003;1.292703e-001
1.274770e+003;1.281319e-001
1.276699e+003;1.271901e-001
1.278627e+003;1.261783e-001
1.280556e+003;1.254393e-001
1.282484e+003;1.248550e-001
1.284413e+003;1.248055e-001
1.286342e+003;1.255390e-001
1.288270e+003;1.268113e-001
1.290199e+003;1.283318e-001
1.292127e+003;1.301342e-001
1.294056e+003;1.320690e-001
1.295984e+003;1.337475e-001
1.297913e+003;1.352253e-001
1.299841e+003;1.368187e-001
1.301770e+003;1.384305e-001
1.303698e+003;1.398904e-001
1.305627e+003;1.414438e-001
1.307556e+003;1.430817e-001
1.309484e+003;1.445744e-001
1.311413e+003;1.456892e-001
1.313341e+003;1.462357e-001
1.315270e+003;1.464998e-001
1.317198e+003;1.466755e-001
1.319127e+003;1.463230e-001
1.321055e+003;1.459098e-001
1.322984e+003;1.456504e-001
1.324912e+003;1.453166e-001
1.326841e+003;1.453458e-001
1.328770e+003;1.455492e-001
1.330698e+003;1.455200e-001
1.332627e+003;1.456304e-001
1.334555e+003;1.455857e-001
1.336484e+003;1.452413e-001
1.338412e+003;1.449867e-001
1.340341e+003;1.444998e-001
1.342269e+003;1.438332e-001
1.344198e+003;1.433639e-001
1.346126e+003;1.432477e-001
1.348055e+003;1.435309e-001
1.349984e+003;1.439151e-001
1.351912e+003;1.439680e-001
1.353841e+003;1.442771e-001
1.355769e+003;1.450533e-001
1.357698e+003;1.458087e-001
1.359626e+003;1.465903e-001
1.361555e+003;1.473188e-001
1.363483e+003;1.475177e-001
1.365412e+003;1.473754e-001
1.367341e+003;1.469245e-001
1.369269e+003;1.460310e-001
1.371198e+003;1.447564e-001
1.373126e+003;1.432601e-001
1.375055e+003;1.417401e-001
1.376983e+003;1.401803e-001
1.378912e+003;1.381366e-001
1.380840e+003;1.358155e-001
1.382769e+003;1.335980e-001
1.384698e+003;1.313608e-001
1.386626e+003;1.296181e-001
1.388555e+003;1.285439e-001
1.390483e+003;1.278643e-001
1.392412e+003;1.272588e-001
1.394340e+003;1.266910e-001
1.396269e+003;1.264568e-001
1.398197e+003;1.264482e-001
1.400126e+003;1.263619e-001
1.402054e+003;1.262297e-001
1.403983e+003;1.260306e-001
1.405911e+003;1.259777e-001
1.407840e+003;1.261782e-001
1.409769e+003;1.264483e-001
1.411697e+003;1.264392e-001
1.413626e+003;1.262359e-001
1.415554e+003;1.262830e-001
1.417483e+003;1.263073e-001
1.419411e+003;1.259028e-001
1.421340e+003;1.254306e-001
1.423268e+003;1.251343e-001
1.425197e+003;1.245754e-001
1.427125e+003;1.238255e-001
1.429054e+003;1.232426e-001
1.430983e+003;1.225290e-001
1.432911e+003;1.218652e-001
1.434840e+003;1.213635e-001
1.436768e+003;1.204438e-001
1.438697e+003;1.193195e-001
1.440625e+003;1.184500e-001
1.442554e+003;1.175806e-001
1.444482e+003;1.163486e-001
1.446411e+003;1.148722e-001
1.448340e+003;1.133431e-001
1.450268e+003;1.121780e-001
1.452197e+003;1.112658e-001
1.454125e+003;1.100044e-001
1.456054e+003;1.086194e-001
1.457982e+003;1.074041e-001
1.459911e+003;1.064038e-001
1.461839e+003;1.053141e-001
1.463768e+003;1.038267e-001
1.465697e+003;1.020643e-001
1.467625e+003;1.003127e-001
1.469554e+003;9.825909e-002
1.471482e+003;9.584073e-002
1.473411e+003;9.335864e-002
1.475339e+003;9.089782e-002
1.477268e+003;8.845004e-002
1.479196e+003;8.583353e-002
1.481125e+003;8.353958e-002
1.483053e+003;8.168006e-002
1.484982e+003;7.978984e-002
1.486911e+003;7.811885e-002
1.488839e+003;7.669888e-002
1.490768e+003;7.538182e-002
1.492696e+003;7.433555e-002
1.494625e+003;7.357778e-002
1.496553e+003;7.257921e-002
1.498482e+003;7.152279e-002
1.500410e+003;7.067066e-002
1.502339e+003;7.004748e-002
1.504267e+003;6.944318e-002
1.506196e+003;6.861072e-002
1.508125e+003;6.775887e-002
1.510053e+003;6.707627e-002
1.511982e+003;6.637269e-002
1.513910e+003;6.568841e-002
1.515839e+003;6.520625e-002
1.517767e+003;6.473021e-002
1.519696e+003;6.414264e-002
1.521624e+003;6.370981e-002
1.523553e+003;6.350941e-002
1.525481e+003;6.333219e-002
1.527410e+003;6.309411e-002
1.529339e+003;6.292659e-002
1.531267e+003;6.303768e-002
1.533196e+003;6.323739e-002
1.535124e+003;6.344058e-002
1.537053e+003;6.369918e-002
1.538981e+003;6.370210e-002
1.540910e+003;6.366396e-002
1.542838e+003;6.389034e-002
1.544767e+003;6.410631e-002
1.546695e+003;6.405132e-002
1.548624e+003;6.379515e-002
1.550553e+003;6.385536e-002
1.552481e+003;6.415178e-002
1.554410e+003;6.464903e-002
1.556338e+003;6.484499e-002
1.558267e+003;6.484456e-002
1.560195e+003;6.503688e-002
1.562124e+003;6.534061e-002
1.564052e+003;6.572249e-002
1.565981e+003;6.610428e-002
1.567910e+003;6.650694e-002
1.569838e+003;6.698239e-002
1.571767e+003;6.740475e-002
1.573695e+003;6.778722e-002
1.575624e+003;6.815539e-002
1.577552e+003;6.846255e-002
1.579481e+003;6.906447e-002
1.581409e+003;6.957652e-002
1.583338e+003;7.001602e-002
1.585266e+003;7.034674e-002
1.587195e+003;7.071780e-002
1.589124e+003;7.130408e-002
1.591052e+003;7.186072e-002
1.592981e+003;7.256863e-002
1.594909e+003;7.314450e-002
1.596838e+003;7.358253e-002
1.598766e+003;7.397456e-002
1.600695e+003;7.430245e-002
1.602623e+003;7.459172e-002
1.604552e+003;7.471079e-002
1.606480e+003;7.507796e-002
1.608409e+003;7.574182e-002
1.610338e+003;7.648204e-002
1.612266e+003;7.709613e-002
1.614195e+003;7.755028e-002
1.616123e+003;7.790361e-002
1.618052e+003;7.822143e-002
1.619980e+003;7.892052e-002
1.621909e+003;7.980669e-002
1.623837e+003;8.048045e-002
1.625766e+003;8.094271e-002
1.627694e+003;8.151933e-002
1.629623e+003;8.208259e-002
1.631552e+003;8.238699e-002
1.633480e+003;8.266995e-002
1.635409e+003;8.284197e-002
1.637337e+003;8.305157e-002
1.639266e+003;8.341406e-002
1.641194e+003;8.355401e-002
1.643123e+003;8.355304e-002
1.645051e+003;8.354846e-002
1.646980e+003;8.328547e-002
1.648909e+003;8.267135e-002
1.650837e+003;8.186430e-002
1.652766e+003;8.103725e-002
1.654694e+003;8.023573e-002
1.656623e+003;7.944779e-002
1.658551e+003;7.850888e-002
1.660480e+003;7.746481e-002
1.662408e+003;7.636739e-002
1.664337e+003;7.569046e-002
1.666266e+003;7.508863e-002
1.668194e+003;7.409550e-002
1.670123e+003;7.295190e-002
1.672051e+003;7.199989e-002
1.673980e+003;7.091641e-002
1.675908e+003;6.959830e-002
1.677837e+003;6.871299e-002
1.679765e+003;6.787305e-002
1.681694e+003;6.665561e-002
1.683622e+003;6.552073e-002
1.685551e+003;6.451716e-002
1.687479e+003;6.364654e-002
1.689408e+003;6.274076e-002
1.691337e+003;6.189436e-002
1.693265e+003;6.118132e-002
1.695194e+003;6.039415e-002
1.697122e+003;5.940705e-002
1.699051e+003;5.849811e-002
1.700979e+003;5.780458e-002
1.702908e+003;5.729866e-002
1.704836e+003;5.683187e-002
1.706765e+003;5.642178e-002
1.708693e+003;5.576195e-002
1.710622e+003;5.493975e-002
1.712551e+003;5.440827e-002
1.714479e+003;5.418321e-002
1.716408e+003;5.374714e-002
1.718336e+003;5.312809e-002
1.720265e+003;5.269929e-002
1.722193e+003;5.250462e-002
1.724122e+003;5.257739e-002
1.726050e+003;5.265889e-002
1.727979e+003;5.245762e-002
1.729908e+003;5.206179e-002
1.731836e+003;5.171084e-002
1.733765e+003;5.153534e-002
1.735693e+003;5.133482e-002
1.737622e+003;5.106871e-002
1.739550e+003;5.081685e-002
1.741479e+003;5.061699e-002
1.743407e+003;4.999793e-002
1.745336e+003;4.912697e-002
1.747265e+003;4.831037e-002
1.749193e+003;4.787309e-002
1.751122e+003;4.761379e-002
1.753050e+003;4.744234e-002
1.754979e+003;4.745288e-002
1.756907e+003;4.731271e-002
1.758836e+003;4.697477e-002
1.760764e+003;4.673088e-002
1.762693e+003;4.663521e-002
1.764621e+003;4.645884e-002
1.766550e+003;4.639638e-002
1.768479e+003;4.640420e-002
1.770407e+003;4.649804e-002
1.772336e+003;4.630056e-002
1.774264e+003;4.611751e-002
1.776193e+003;4.607960e-002
1.778121e+003;4.599634e-002
1.780050e+003;4.588047e-002
1.781978e+003;4.584913e-002
1.783907e+003;4.571008e-002
1.785835e+003;4.550324e-002
1.787764e+003;4.536738e-002
1.789693e+003;4.524149e-002
1.791621e+003;4.510763e-002
1.793550e+003;4.523190e-002
1.795478e+003;4.523881e-002
1.797407e+003;4.506811e-002
1.799335e+003;4.491751e-002
1.801264e+003;4.467360e-002
1.803192e+003;4.444604e-002
1.805121e+003;4.428475e-002
1.807049e+003;4.422183e-002
1.808978e+003;4.422642e-002
1.810907e+003;4.417267e-002
1.812835e+003;4.413970e-002
1.814764e+003;4.402693e-002
1.816692e+003;4.380664e-002
1.818621e+003;4.371751e-002
1.820549e+003;4.360921e-002
1.822478e+003;4.357456e-002
1.824406e+003;4.358298e-002
1.826335e+003;4.361811e-002
1.828264e+003;4.354287e-002
1.830192e+003;4.334439e-002
1.832121e+003;4.330156e-002
1.834049e+003;4.331467e-002
1.835978e+003;4.323011e-002
1.837906e+003;4.297876e-002
1.839835e+003;4.272368e-002
1.841763e+003;4.249386e-002
1.843692e+003;4.218867e-002
1.845620e+003;4.212387e-002
1.847549e+003;4.227394e-002
1.849478e+003;4.223742e-002
1.851406e+003;4.211948e-002
1.853335e+003;4.197377e-002
1.855263e+003;4.171064e-002
1.857192e+003;4.183127e-002
1.859120e+003;4.211449e-002
1.861049e+003;4.206118e-002
1.862977e+003;4.195552e-002
1.864906e+003;4.194041e-002
1.866834e+003;4.178542e-002
1.868763e+003;4.164827e-002
1.870692e+003;4.174398e-002
1.872620e+003;4.170021e-002
1.874549e+003;4.159266e-002
1.876477e+003;4.157899e-002
1.878406e+003;4.155580e-002
1.880334e+003;4.140881e-002
1.882263e+003;4.143859e-002
1.884191e+003;4.157530e-002
1.886120e+003;4.151893e-002
1.888048e+003;4.148106e-002
1.889977e+003;4.162179e-002
1.891906e+003;4.175601e-002
1.893834e+003;4.171447e-002
1.895763e+003;4.170491e-002
1.897691e+003;4.169463e-002
1.899620e+003;4.177761e-002
1.901548e+003;4.186634e-002
1.903477e+003;4.205681e-002
1.905405e+003;4.216322e-002
1.907334e+003;4.225196e-002
1.909262e+003;4.243116e-002
1.911191e+003;4.250804e-002
1.913120e+003;4.265726e-002
1.915048e+003;4.279469e-002
1.916977e+003;4.280182e-002
1.918905e+003;4.283385e-002
1.920834e+003;4.292499e-002
1.922762e+003;4.299054e-002
1.924691e+003;4.311325e-002
1.926619e+003;4.320265e-002
1.928548e+003;4.342655e-002
1.930477e+003;4.352862e-002
1.932405e+003;4.363723e-002
1.934334e+003;4.383801e-002
1.936262e+003;4.385513e-002
1.938191e+003;4.387507e-002
1.940119e+003;4.400621e-002
1.942048e+003;4.410155e-002
1.943976e+003;4.427598e-002
1.945905e+003;4.457607e-002
1.947833e+003;4.465299e-002
1.949762e+003;4.468237e-002
1.951691e+003;4.502761e-002
1.953619e+003;4.544151e-002
1.955548e+003;4.574880e-002
1.957476e+003;4.582395e-002
1.959405e+003;4.579401e-002
1.961333e+003;4.571262e-002
1.963262e+003;4.574965e-002
1.965190e+003;4.589292e-002
1.967119e+003;4.606302e-002
1.969047e+003;4.625427e-002
1.970976e+003;4.632766e-002
1.972905e+003;4.642496e-002
1.974833e+003;4.656966e-002
1.976762e+003;4.660545e-002
1.978690e+003;4.665883e-002
1.980619e+003;4.679915e-002
1.982547e+003;4.683280e-002
1.984476e+003;4.688588e-002
1.986404e+003;4.687606e-002
1.988333e+003;4.688496e-002
1.990261e+003;4.712798e-002
1.992190e+003;4.737523e-002
1.994119e+003;4.748585e-002
1.996047e+003;4.763905e-002
1.997976e+003;4.749804e-002
1.999904e+003;4.745602e-002
2.001833e+003;4.765961e-002
2.003761e+003;4.778475e-002
2.005690e+003;4.785781e-002
2.007618e+003;4.801736e-002
2.009547e+003;4.812636e-002
2.011476e+003;4.834933e-002
2.013404e+003;4.866355e-002
2.015333e+003;4.892381e-002
2.017261e+003;4.912322e-002
2.019190e+003;4.919799e-002
2.021118e+003;4.919120e-002
2.023047e+003;4.927188e-002
2.024975e+003;4.940462e-002
2.026904e+003;4.957889e-002
2.028833e+003;4.964181e-002
2.030761e+003;4.974858e-002
2.032690e+003;5.009683e-002
2.034618e+003;5.031855e-002
2.036547e+003;5.037983e-002
2.038475e+003;5.032640e-002
2.040404e+003;5.028871e-002
2.042332e+003;5.040253e-002
2.044261e+003;5.055419e-002
2.046189e+003;5.082452e-002
2.048118e+003;5.085972e-002
2.050047e+003;5.056245e-002
2.051975e+003;5.055426e-002
2.053904e+003;5.075235e-002
2.055832e+003;5.087664e-002
2.057761e+003;5.080650e-002
2.059689e+003;5.067291e-002
2.061618e+003;5.059242e-002
2.063546e+003;5.051153e-002
2.065475e+003;5.061904e-002
2.067404e+003;5.063073e-002
2.069332e+003;5.060318e-002
2.071260e+003;5.070755e-002
2.073189e+003;5.071689e-002
2.075118e+003;5.085283e-002
2.077046e+003;5.105783e-002
2.078975e+003;5.094779e-002
2.080903e+003;5.079264e-002
2.082832e+003;5.075391e-002
2.084760e+003;5.075000e-002
2.086689e+003;5.062127e-002
2.088617e+003;5.059119e-002
2.090546e+003;5.084665e-002
2.092475e+003;5.102522e-002
2.094403e+003;5.121233e-002
2.096332e+003;5.144865e-002
2.098260e+003;5.149886e-002
2.100189e+003;5.161978e-002
2.102117e+003;5.195340e-002
2.104046e+003;5.209175e-002
2.105974e+003;5.204666e-002
2.107903e+003;5.193663e-002
2.109832e+003;5.197338e-002
2.111760e+003;5.214536e-002
2.113688e+003;5.222864e-002
2.115617e+003;5.207953e-002
2.117546e+003;5.201095e-002
2.119474e+003;5.230343e-002
2.121403e+003;5.235489e-002
2.123331e+003;5.236005e-002
2.125260e+003;5.240734e-002
2.127188e+003;5.221654e-002
2.129117e+003;5.214248e-002
2.131045e+003;5.236263e-002
2.132974e+003;5.239990e-002
2.134903e+003;5.224598e-002
2.136831e+003;5.217099e-002
2.138760e+003;5.207849e-002
2.140688e+003;5.218347e-002
2.142617e+003;5.226007e-002
2.144545e+003;5.215205e-002
2.146474e+003;5.204382e-002
2.148402e+003;5.194328e-002
2.150331e+003;5.203844e-002
2.152260e+003;5.199202e-002
2.154188e+003;5.193200e-002
2.156117e+003;5.196834e-002
2.158045e+003;5.168490e-002
2.159974e+003;5.153777e-002
2.161902e+003;5.174074e-002
2.163831e+003;5.179416e-002
2.165759e+003;5.165333e-002
2.167688e+003;5.149755e-002
2.169616e+003;5.118344e-002
2.171545e+003;5.090398e-002
2.173474e+003;5.089075e-002
2.175402e+003;5.083287e-002
2.177331e+003;5.065374e-002
2.179259e+003;5.052947e-002
2.181188e+003;5.021357e-002
2.183116e+003;4.993919e-002
2.185045e+003;5.012528e-002
2.186973e+003;5.011483e-002
2.188902e+003;4.999455e-002
2.190831e+003;5.010940e-002
2.192759e+003;5.007366e-002
2.194688e+003;4.985404e-002
2.196616e+003;4.952325e-002
2.198545e+003;4.941709e-002
2.200473e+003;4.952081e-002
2.202402e+003;4.935205e-002
2.204330e+003;4.933368e-002
2.206259e+003;4.951501e-002
2.208188e+003;4.940447e-002
2.210116e+003;4.917569e-002
2.212044e+003;4.904261e-002
2.213973e+003;4.875247e-002
2.215902e+003;4.851080e-002
2.217830e+003;4.853892e-002
2.219759e+003;4.854956e-002
2.221687e+003;4.851043e-002
2.223616e+003;4.859869e-002
2.225544e+003;4.866637e-002
2.227473e+003;4.878962e-002
2.229401e+003;4.864617e-002
2.231330e+003;4.823583e-002
2.233259e+003;4.805707e-002
2.235187e+003;4.800200e-002
2.237116e+003;4.814661e-002
2.239044e+003;4.812444e-002
2.240973e+003;4.789247e-002
2.242901e+003;4.779714e-002
2.244830e+003;4.783369e-002
2.246758e+003;4.802913e-002
2.248687e+003;4.810359e-002
2.250615e+003;4.800459e-002
2.252544e+003;4.774252e-002
2.254473e+003;4.745443e-002
2.256401e+003;4.720890e-002
2.258330e+003;4.710412e-002
2.260258e+003;4.707993e-002
2.262187e+003;4.696779e-002
2.264115e+003;4.670598e-002
2.266044e+003;4.655012e-002
2.267972e+003;4.647658e-002
2.269901e+003;4.615112e-002
2.271830e+003;4.608221e-002
2.273758e+003;4.632242e-002
2.275687e+003;4.638897e-002
2.277615e+003;4.627274e-002
2.279544e+003;4.608829e-002
2.281472e+003;4.590227e-002
2.283401e+003;4.587992e-002
2.285329e+003;4.610027e-002
2.287258e+003;4.624388e-002
2.289187e+003;4.590739e-002
2.291115e+003;4.570713e-002
2.293043e+003;4.588556e-002
2.294972e+003;4.594002e-002
2.296901e+003;4.587215e-002
2.298829e+003;4.588357e-002
2.300758e+003;4.603325e-002
2.302686e+003;4.600065e-002
2.304615e+003;4.599527e-002
2.306543e+003;4.624041e-002
2.308472e+003;4.628980e-002
2.310400e+003;4.623289e-002
2.312329e+003;4.632220e-002
2.314258e+003;4.621413e-002
2.316186e+003;4.603458e-002
2.318115e+003;4.606479e-002
2.320043e+003;4.621723e-002
2.321972e+003;4.632924e-002
2.323900e+003;4.629124e-002
2.325829e+003;4.638956e-002
2.327757e+003;4.655421e-002
2.329686e+003;4.655569e-002
2.331615e+003;4.651659e-002
2.333543e+003;4.658073e-002
2.335472e+003;4.668834e-002
2.337400e+003;4.708211e-002
2.339329e+003;4.741111e-002
2.341257e+003;4.729073e-002
2.343186e+003;4.735406e-002
2.345114e+003;4.756188e-002
2.347043e+003;4.744611e-002
2.348971e+003;4.731271e-002
2.350900e+003;4.741629e-002
2.352829e+003;4.772550e-002
2.354757e+003;4.811862e-002
2.356686e+003;4.837848e-002
2.358614e+003;4.848024e-002
2.360543e+003;4.861470e-002
2.362471e+003;4.861433e-002
2.364400e+003;4.844582e-002
2.366328e+003;4.862949e-002
2.368257e+003;4.872359e-002
2.370186e+003;4.869290e-002
2.372114e+003;4.861541e-002
2.374042e+003;4.855886e-002
2.375971e+003;4.876560e-002
2.377900e+003;4.904862e-002
2.379828e+003;4.932666e-002
2.381757e+003;4.939571e-002
2.383685e+003;4.952081e-002
2.385614e+003;4.972313e-002
2.387542e+003;4.976162e-002
2.389471e+003;4.962565e-002
2.391399e+003;4.958424e-002
2.393328e+003;4.963308e-002
2.395257e+003;4.993715e-002
2.397185e+003;5.007935e-002
2.399114e+003;5.000522e-002
2.401042e+003;5.008638e-002
2.402971e+003;5.036193e-002
2.404899e+003;5.064983e-002
2.406828e+003;5.096925e-002
2.408756e+003;5.108098e-002
2.410685e+003;5.107132e-002
2.412614e+003;5.126539e-002
2.414542e+003;5.161430e-002
2.416471e+003;5.181006e-002
2.418399e+003;5.204872e-002
2.420328e+003;5.228350e-002
2.422256e+003;5.240813e-002
2.424185e+003;5.256367e-002
2.426113e+003;5.265455e-002
2.428042e+003;5.275129e-002
2.429970e+003;5.295318e-002
2.431899e+003;5.321677e-002
2.433828e+003;5.346554e-002
2.435756e+003;5.369869e-002
2.437685e+003;5.408825e-002
2.439613e+003;5.428829e-002
2.441542e+003;5.435070e-002
2.443470e+003;5.460950e-002
2.445399e+003;5.473644e-002
2.447327e+003;5.480557e-002
2.449256e+003;5.498773e-002
2.451185e+003;5.524278e-002
2.453113e+003;5.558281e-002
2.455042e+003;5.587374e-002
2.456970e+003;5.595480e-002
2.458899e+003;5.604881e-002
2.460827e+003;5.635960e-002
2.462756e+003;5.659348e-002
2.464684e+003;5.654136e-002
2.466613e+003;5.677383e-002
2.468542e+003;5.720517e-002
2.470470e+003;5.742211e-002
2.472398e+003;5.763485e-002
2.474327e+003;5.786087e-002
2.476256e+003;5.811200e-002
2.478184e+003;5.827624e-002
2.480113e+003;5.851851e-002
2.482041e+003;5.869981e-002
2.483970e+003;5.862582e-002
2.485898e+003;5.846490e-002
2.487827e+003;5.865384e-002
2.489755e+003;5.895462e-002
2.491684e+003;5.901648e-002
2.493613e+003;5.907570e-002
2.495541e+003;5.924011e-002
2.497470e+003;5.940994e-002
2.499398e+003;5.951636e-002
2.501327e+003;5.961008e-002
2.503255e+003;5.975104e-002
2.505184e+003;5.981584e-002
2.507112e+003;5.998337e-002
2.509041e+003;6.022211e-002
2.510969e+003;6.038029e-002
2.512898e+003;6.043764e-002
2.514827e+003;6.042191e-002
2.516755e+003;6.044480e-002
2.518684e+003;6.043943e-002
2.520612e+003;6.045005e-002
2.522541e+003;6.078554e-002
2.524469e+003;6.119597e-002
2.526398e+003;6.132027e-002
2.528326e+003;6.137400e-002
2.530255e+003;6.137442e-002
2.532184e+003;6.129863e-002
2.534112e+003;6.119551e-002
2.536041e+003;6.147072e-002
2.537969e+003;6.181967e-002
2.539898e+003;6.189628e-002
2.541826e+003;6.186506e-002
2.543755e+003;6.196991e-002
2.545683e+003;6.197197e-002
2.547612e+003;6.199827e-002
2.549541e+003;6.217235e-002
2.551469e+003;6.215713e-002
2.553397e+003;6.234922e-002
2.555326e+003;6.266940e-002
2.557255e+003;6.277973e-002
2.559183e+003;6.276526e-002
2.561112e+003;6.258428e-002
2.563040e+003;6.274869e-002
2.564969e+003;6.295823e-002
2.566897e+003;6.302312e-002
2.568826e+003;6.303135e-002
2.570754e+003;6.323560e-002
2.572683e+003;6.350128e-002
2.574612e+003;6.350289e-002
2.576540e+003;6.383545e-002
2.578469e+003;6.425358e-002
2.580397e+003;6.441803e-002
2.582326e+003;6.444190e-002
2.584254e+003;6.436404e-002
2.586183e+003;6.444955e-002
2.588111e+003;6.468417e-002
2.590040e+003;6.486423e-002
2.591969e+003;6.508349e-002
2.593897e+003;6.510150e-002
2.595826e+003;6.516214e-002
2.597754e+003;6.514343e-002
2.599683e+003;6.505093e-002
2.601611e+003;6.530718e-002
2.603540e+003;6.555618e-002
2.605468e+003;6.559738e-002
2.607397e+003;6.570117e-002
2.609325e+003;6.589352e-002
2.611254e+003;6.615667e-002
2.613183e+003;6.649281e-002
2.615111e+003;6.662586e-002
2.617040e+003;6.690461e-002
2.618968e+003;6.718153e-002
2.620897e+003;6.737422e-002
2.622825e+003;6.782277e-002
2.624754e+003;6.821854e-002
2.626682e+003;6.817459e-002
2.628611e+003;6.819412e-002
2.630540e+003;6.863812e-002
2.632468e+003;6.894104e-002
2.634396e+003;6.893478e-002
2.636325e+003;6.903747e-002
2.638254e+003;6.925248e-002
2.640182e+003;6.943841e-002
2.642111e+003;6.964397e-002
2.644039e+003;6.982476e-002
2.645968e+003;6.995895e-002
2.647896e+003;7.039198e-002
2.649825e+003;7.064138e-002
2.651753e+003;7.102920e-002
2.653682e+003;7.146853e-002
2.655611e+003;7.174333e-002
2.657539e+003;7.184978e-002
2.659468e+003;7.186995e-002
2.661396e+003;7.216050e-002
2.663325e+003;7.220361e-002
2.665253e+003;7.240470e-002
2.667182e+003;7.270062e-002
2.669110e+003;7.283480e-002
2.671039e+003;7.303198e-002
2.672968e+003;7.310930e-002
2.674896e+003;7.334501e-002
2.676825e+003;7.369637e-002
2.678753e+003;7.403349e-002
2.680682e+003;7.423840e-002
2.682610e+003;7.440823e-002
2.684539e+003;7.482843e-002
2.686467e+003;7.501695e-002
2.688396e+003;7.504487e-002
2.690324e+003;7.529279e-002
2.692253e+003;7.537149e-002
2.694182e+003;7.537436e-002
2.696110e+003;7.557467e-002
2.698039e+003;7.572012e-002
2.699967e+003;7.596806e-002
2.701896e+003;7.641479e-002
2.703824e+003;7.662112e-002
2.705753e+003;7.661436e-002
2.707681e+003;7.680801e-002
2.709610e+003;7.699734e-002
2.711539e+003;7.727345e-002
2.713467e+003;7.749476e-002
2.715396e+003;7.754304e-002
2.717324e+003;7.776115e-002
2.719253e+003;7.793370e-002
2.721181e+003;7.805639e-002
2.723110e+003;7.831194e-002
2.725038e+003;7.854517e-002
2.726967e+003;7.873940e-002
2.728896e+003;7.881070e-002
2.730824e+003;7.895891e-002
2.732752e+003;7.923336e-002
2.734681e+003;7.922163e-002
2.736610e+003;7.930841e-002
2.738538e+003;7.962368e-002
2.740467e+003;7.970930e-002
2.742395e+003;7.969051e-002
2.744324e+003;7.983503e-002
2.746252e+003;8.007646e-002
2.748181e+003;8.021852e-002
2.750109e+003;8.024905e-002
2.752038e+003;8.033814e-002
2.753967e+003;8.077522e-002
2.755895e+003;8.093085e-002
2.757824e+003;8.087756e-002
2.759752e+003;8.112267e-002
2.761681e+003;8.153228e-002
2.763609e+003;8.196913e-002
2.765538e+003;8.217286e-002
2.767466e+003;8.217570e-002
2.769395e+003;8.228942e-002
2.771323e+003;8.259793e-002
2.773252e+003;8.282930e-002
2.775181e+003;8.323398e-002
2.777109e+003;8.374904e-002
2.779038e+003;8.396346e-002
2.780966e+003;8.392579e-002
2.782895e+003;8.408722e-002
2.784823e+003;8.457270e-002
2.786752e+003;8.498512e-002
2.788680e+003;8.539166e-002
2.790609e+003;8.592051e-002
2.792538e+003;8.643177e-002
2.794466e+003;8.678585e-002
2.796395e+003;8.689579e-002
2.798323e+003;8.725381e-002
2.800252e+003;8.773161e-002
2.802180e+003;8.803833e-002
2.804109e+003;8.854563e-002
2.806037e+003;8.894306e-002
2.807966e+003;8.925996e-002
2.809895e+003;8.970974e-002
2.811823e+003;9.022255e-002
2.813751e+003;9.084006e-002
2.815680e+003;9.134100e-002
2.817609e+003;9.180858e-002
2.819537e+003;9.230072e-002
2.821466e+003;9.269657e-002
2.823394e+003;9.314907e-002
2.825323e+003;9.369958e-002
2.827251e+003;9.446116e-002
2.829180e+003;9.529451e-002
2.831108e+003;9.598267e-002
2.833037e+003;9.647266e-002
2.834966e+003;9.729160e-002
2.836894e+003;9.823400e-002
2.838823e+003;9.908078e-002
2.840751e+003;1.004465e-001
2.842680e+003;1.020217e-001
2.844608e+003;1.037200e-001
2.846537e+003;1.054552e-001
2.848465e+003;1.070585e-001
2.850394e+003;1.081373e-001
2.852323e+003;1.087882e-001
2.854251e+003;1.095987e-001
2.856180e+003;1.107677e-001
2.858108e+003;1.122535e-001
2.860037e+003;1.137224e-001
2.861965e+003;1.151901e-001
2.863894e+003;1.165530e-001
2.865822e+003;1.178387e-001
2.867751e+003;1.193177e-001
2.869679e+003;1.206520e-001
2.871608e+003;1.216690e-001
2.873536e+003;1.226374e-001
2.875465e+003;1.232575e-001
2.877394e+003;1.235608e-001
2.879322e+003;1.242339e-001
2.881251e+003;1.247916e-001
2.883179e+003;1.248507e-001
2.885108e+003;1.251166e-001
2.887036e+003;1.254268e-001
2.888965e+003;1.257947e-001
2.890893e+003;1.261027e-001
2.892822e+003;1.258730e-001
2.894750e+003;1.256701e-001
2.896679e+003;1.256526e-001
2.898608e+003;1.250371e-001
2.900536e+003;1.241643e-001
2.902465e+003;1.235754e-001
2.904393e+003;1.231814e-001
2.906322e+003;1.227547e-001
2.908250e+003;1.222385e-001
2.910179e+003;1.217161e-001
2.912107e+003;1.216986e-001
2.914036e+003;1.219084e-001
2.915965e+003;1.217759e-001
2.917893e+003;1.210795e-001
2.919822e+003;1.199615e-001
2.921750e+003;1.187354e-001
2.923679e+003;1.175541e-001
2.925607e+003;1.160796e-001
2.927536e+003;1.142667e-001
2.929464e+003;1.128446e-001
2.931393e+003;1.118585e-001
2.933322e+003;1.108036e-001
2.935250e+003;1.096166e-001
2.937178e+003;1.081861e-001
2.939107e+003;1.066100e-001
2.941036e+003;1.052314e-001
2.942964e+003;1.039636e-001
2.944893e+003;1.029358e-001
2.946821e+003;1.015002e-001
2.948750e+003;9.986216e-002
2.950678e+003;9.850715e-002
2.952607e+003;9.749966e-002
2.954535e+003;9.687282e-002
2.956464e+003;9.581788e-002
2.958393e+003;9.463128e-002
2.960321e+003;9.361346e-002
2.962250e+003;9.264817e-002
2.964178e+003;9.211381e-002
2.966107e+003;9.166861e-002
2.968035e+003;9.088679e-002
2.969964e+003;8.993617e-002
2.971892e+003;8.919632e-002
2.973821e+003;8.870057e-002
2.975750e+003;8.807229e-002
2.977678e+003;8.730477e-002
2.979607e+003;8.677819e-002
2.981535e+003;8.655886e-002
2.983464e+003;8.610599e-002
2.985392e+003;8.566456e-002
2.987321e+003;8.556182e-002
2.989249e+003;8.531833e-002
2.991178e+003;8.498323e-002
2.993106e+003;8.492763e-002
2.995035e+003;8.486293e-002
2.996964e+003;8.439270e-002
2.998892e+003;8.424564e-002
3.000821e+003;8.445105e-002
3.002749e+003;8.481551e-002
3.004678e+003;8.509998e-002
3.006606e+003;8.499355e-002
3.008535e+003;8.455469e-002
3.010463e+003;8.466956e-002
3.012392e+003;8.538557e-002
3.014321e+003;8.586539e-002
3.016249e+003;8.615253e-002
3.018177e+003;8.640739e-002
3.020106e+003;8.665537e-002
3.022035e+003;8.689661e-002
3.023963e+003;8.741939e-002
3.025892e+003;8.823758e-002
3.027820e+003;8.853535e-002
3.029749e+003;8.862060e-002
3.031677e+003;8.904523e-002
3.033606e+003;8.948836e-002
3.035534e+003;9.003339e-002
3.037463e+003;9.083569e-002
3.039392e+003;9.118916e-002
3.041320e+003;9.160507e-002
3.043249e+003;9.224438e-002
3.045177e+003;9.233581e-002
3.047106e+003;9.269649e-002
3.049034e+003;9.348186e-002
3.050963e+003;9.417243e-002
3.052891e+003;9.466182e-002
3.054820e+003;9.506052e-002
3.056749e+003;9.577356e-002
3.058677e+003;9.639575e-002
3.060606e+003;9.685112e-002
3.062534e+003;9.734196e-002
3.064463e+003;9.776787e-002
3.066391e+003;9.806527e-002
3.068320e+003;9.872582e-002
3.070248e+003;9.975059e-002
3.072177e+003;1.004417e-001
3.074105e+003;1.007504e-001
3.076034e+003;1.012729e-001
3.077963e+003;1.019027e-001
3.079891e+003;1.023015e-001
3.081820e+003;1.029264e-001
3.083748e+003;1.038470e-001
3.085677e+003;1.047737e-001
3.087605e+003;1.055219e-001
3.089534e+003;1.060849e-001
3.091462e+003;1.066077e-001
3.093391e+003;1.072044e-001
3.095320e+003;1.079300e-001
3.097248e+003;1.086867e-001
3.099177e+003;1.092666e-001
3.101105e+003;1.097627e-001
3.103034e+003;1.104058e-001
3.104962e+003;1.111791e-001
3.106891e+003;1.120599e-001
3.108819e+003;1.126266e-001
3.110748e+003;1.131293e-001
3.112677e+003;1.138914e-001
3.114605e+003;1.146187e-001
3.116533e+003;1.153960e-001
3.118462e+003;1.162956e-001
3.120391e+003;1.169427e-001
3.122319e+003;1.174074e-001
3.124248e+003;1.180988e-001
3.126176e+003;1.191312e-001
3.128105e+003;1.202125e-001
3.130033e+003;1.206542e-001
3.131962e+003;1.207676e-001
3.133890e+003;1.213591e-001
3.135819e+003;1.224814e-001
3.137748e+003;1.235649e-001
3.139676e+003;1.243122e-001
3.141605e+003;1.247512e-001
3.143533e+003;1.254764e-001
3.145462e+003;1.263330e-001
3.147390e+003;1.269192e-001
3.149319e+003;1.277074e-001
3.151247e+003;1.282311e-001
3.153176e+003;1.288892e-001
3.155104e+003;1.296073e-001
3.157033e+003;1.301403e-001
3.158962e+003;1.307331e-001
3.160890e+003;1.317542e-001
3.162819e+003;1.327577e-001
3.164747e+003;1.331707e-001
3.166676e+003;1.337993e-001
3.168604e+003;1.347344e-001
3.170533e+003;1.356707e-001
3.172461e+003;1.364589e-001
3.174390e+003;1.368368e-001
3.176319e+003;1.374815e-001
3.178247e+003;1.380984e-001
3.180176e+003;1.388736e-001
3.182104e+003;1.398180e-001
3.184033e+003;1.406007e-001
3.185961e+003;1.412226e-001
3.187890e+003;1.417851e-001
3.189818e+003;1.424981e-001
3.191747e+003;1.432316e-001
3.193676e+003;1.438683e-001
3.195604e+003;1.445993e-001
3.197532e+003;1.453232e-001
3.199461e+003;1.459896e-001
3.201390e+003;1.466651e-001
3.203318e+003;1.474318e-001
3.205247e+003;1.481287e-001
3.207175e+003;1.487682e-001
3.209104e+003;1.494574e-001
3.211032e+003;1.501334e-001
3.212961e+003;1.506868e-001
3.214889e+003;1.512261e-001
3.216818e+003;1.514782e-001
3.218747e+003;1.519978e-001
3.220675e+003;1.530002e-001
3.222604e+003;1.540458e-001
3.224532e+003;1.546777e-001
3.226461e+003;1.550385e-001
3.228389e+003;1.552970e-001
3.230318e+003;1.557893e-001
3.232246e+003;1.564018e-001
3.234175e+003;1.570292e-001
3.236104e+003;1.577494e-001
3.238032e+003;1.584400e-001
3.239961e+003;1.594756e-001
3.241889e+003;1.603586e-001
3.243818e+003;1.604086e-001
3.245746e+003;1.601826e-001
3.247675e+003;1.607639e-001
3.249603e+003;1.613760e-001
3.251532e+003;1.616002e-001
3.253460e+003;1.621140e-001
3.255389e+003;1.628856e-001
3.257318e+003;1.636059e-001
3.259246e+003;1.644439e-001
3.261175e+003;1.647945e-001
3.263103e+003;1.647063e-001
3.265032e+003;1.649698e-001
3.266960e+003;1.657093e-001
3.268889e+003;1.663888e-001
3.270817e+003;1.668314e-001
3.272746e+003;1.671956e-001
3.274675e+003;1.675799e-001
3.276603e+003;1.679354e-001
3.278531e+003;1.681663e-001
3.280460e+003;1.682891e-001
3.282389e+003;1.681736e-001
3.284317e+003;1.685317e-001
3.286246e+003;1.691780e-001
3.288174e+003;1.693231e-001
3.290103e+003;1.695091e-001
3.292031e+003;1.698106e-001
3.293960e+003;1.702866e-001
3.295888e+003;1.707145e-001
3.297817e+003;1.709404e-001
3.299746e+003;1.712994e-001
3.301674e+003;1.714037e-001
3.303603e+003;1.719190e-001
3.305531e+003;1.725057e-001
3.307460e+003;1.725058e-001
3.309388e+003;1.728667e-001
3.311317e+003;1.730946e-001
3.313245e+003;1.725984e-001
3.315174e+003;1.725579e-001
3.317103e+003;1.731142e-001
3.319031e+003;1.730564e-001
3.320960e+003;1.730059e-001
3.322888e+003;1.732130e-001
3.324817e+003;1.733212e-001
3.326745e+003;1.733442e-001
3.328674e+003;1.736481e-001
3.330602e+003;1.741074e-001
3.332531e+003;1.739207e-001
3.334459e+003;1.736173e-001
3.336388e+003;1.733728e-001
3.338317e+003;1.728415e-001
3.340245e+003;1.727289e-001
3.342174e+003;1.731947e-001
3.344102e+003;1.732434e-001
3.346031e+003;1.733004e-001
3.347959e+003;1.735230e-001
3.349888e+003;1.732970e-001
3.351816e+003;1.730547e-001
3.353745e+003;1.729067e-001
3.355674e+003;1.727019e-001
3.357602e+003;1.725090e-001
3.359531e+003;1.727320e-001
3.361459e+003;1.723923e-001
3.363388e+003;1.719331e-001
3.365316e+003;1.719902e-001
3.367245e+003;1.715417e-001
3.369173e+003;1.710549e-001
3.371102e+003;1.709063e-001
3.373031e+003;1.707872e-001
3.374959e+003;1.703491e-001
3.376887e+003;1.700154e-001
3.378816e+003;1.702233e-001
3.380745e+003;1.700206e-001
3.382673e+003;1.693048e-001
3.384602e+003;1.686972e-001
3.386530e+003;1.681926e-001
3.388459e+003;1.679243e-001
3.390387e+003;1.674075e-001
3.392316e+003;1.674085e-001
3.394244e+003;1.675694e-001
3.396173e+003;1.669199e-001
3.398102e+003;1.660873e-001
3.400030e+003;1.654321e-001
3.401959e+003;1.648840e-001
3.403887e+003;1.642843e-001
3.405816e+003;1.636948e-001
3.407744e+003;1.633601e-001
3.409673e+003;1.624270e-001
3.411601e+003;1.615912e-001
3.413530e+003;1.613652e-001
3.415458e+003;1.611035e-001
3.417387e+003;1.605699e-001
3.419316e+003;1.597743e-001
3.421244e+003;1.591930e-001
3.423173e+003;1.583476e-001
3.425101e+003;1.573893e-001
3.427030e+003;1.570622e-001
3.428958e+003;1.566757e-001
3.430887e+003;1.557424e-001
3.432815e+003;1.551396e-001
3.434744e+003;1.546255e-001
3.436673e+003;1.537249e-001
3.438601e+003;1.526370e-001
3.440530e+003;1.515488e-001
3.442458e+003;1.508688e-001
3.444387e+003;1.502571e-001
3.446315e+003;1.491718e-001
3.448244e+003;1.475655e-001
3.450172e+003;1.463322e-001
3.452101e+003;1.455258e-001
3.454030e+003;1.446940e-001
3.455958e+003;1.433921e-001
3.457886e+003;1.421986e-001
3.459815e+003;1.413803e-001
3.461744e+003;1.403167e-001
3.463672e+003;1.388701e-001
3.465601e+003;1.376358e-001
3.467529e+003;1.367290e-001
3.469458e+003;1.356182e-001
3.471386e+003;1.344680e-001
3.473315e+003;1.334831e-001
3.475243e+003;1.324195e-001
3.477172e+003;1.310126e-001
3.479101e+003;1.295440e-001
3.481029e+003;1.284499e-001
3.482958e+003;1.273905e-001
3.484886e+003;1.261839e-001
3.486815e+003;1.250230e-001
3.488743e+003;1.241919e-001
3.490672e+003;1.229051e-001
3.492600e+003;1.213724e-001
3.494529e+003;1.200779e-001
3.496458e+003;1.187055e-001
3.498386e+003;1.174884e-001
3.500315e+003;1.163724e-001
3.502243e+003;1.149427e-001
3.504172e+003;1.131137e-001
3.506100e+003;1.120751e-001
3.508029e+003;1.108989e-001
3.509957e+003;1.096234e-001
3.511886e+003;1.086012e-001
3.513814e+003;1.075820e-001
3.515743e+003;1.059519e-001
3.517672e+003;1.041368e-001
3.519600e+003;1.030347e-001
3.521529e+003;1.020910e-001
3.523457e+003;1.009087e-001
3.525386e+003;9.991858e-002
3.527314e+003;9.868415e-002
3.529243e+003;9.744599e-002
3.531171e+003;9.685232e-002
3.533100e+003;9.591275e-002
3.535029e+003;9.420622e-002
3.536957e+003;9.259137e-002
3.538885e+003;9.171547e-002
3.540814e+003;9.084149e-002
3.542743e+003;8.951902e-002
3.544671e+003;8.843692e-002
3.546600e+003;8.743957e-002
3.548528e+003;8.669049e-002
3.550457e+003;8.564478e-002
3.552385e+003;8.407403e-002
3.554314e+003;8.281791e-002
3.556242e+003;8.198710e-002
3.558171e+003;8.089919e-002
3.560100e+003;8.020190e-002
3.562028e+003;7.965325e-002
3.563957e+003;7.850856e-002
3.565885e+003;7.688037e-002
3.567814e+003;7.582459e-002
3.569742e+003;7.527407e-002
3.571671e+003;7.444330e-002
3.573599e+003;7.322964e-002
3.575528e+003;7.207596e-002
3.577457e+003;7.151634e-002
3.579385e+003;7.068832e-002
3.581314e+003;6.973402e-002
3.583242e+003;6.917710e-002
3.585171e+003;6.843653e-002
3.587099e+003;6.736769e-002
3.589028e+003;6.662659e-002
3.590956e+003;6.571894e-002
3.592885e+003;6.515613e-002
3.594813e+003;6.489377e-002
3.596742e+003;6.433579e-002
3.598671e+003;6.340899e-002
3.600599e+003;6.222909e-002
3.602528e+003;6.126368e-002
3.604456e+003;6.069983e-002
3.606385e+003;6.065723e-002
3.608313e+003;6.049507e-002
3.610242e+003;6.002115e-002
3.612170e+003;5.904936e-002
3.614099e+003;5.818322e-002
3.616028e+003;5.772661e-002
3.617956e+003;5.678259e-002
3.619885e+003;5.566167e-002
3.621813e+003;5.515688e-002
3.623742e+003;5.502053e-002
3.625670e+003;5.484226e-002
3.627599e+003;5.403095e-002
3.629527e+003;5.289416e-002
3.631456e+003;5.262519e-002
3.633385e+003;5.258076e-002
3.635313e+003;5.200520e-002
3.637241e+003;5.100637e-002
3.639170e+003;5.007883e-002
3.641099e+003;4.987314e-002
3.643027e+003;4.966945e-002
3.644956e+003;4.926067e-002
3.646884e+003;4.847350e-002
3.648813e+003;4.714748e-002
3.650741e+003;4.606855e-002
3.652670e+003;4.566634e-002
3.654598e+003;4.521532e-002
3.656527e+003;4.445705e-002
3.658456e+003;4.372946e-002
3.660384e+003;4.292795e-002
3.662313e+003;4.211415e-002
3.664241e+003;4.157866e-002
3.666170e+003;4.110355e-002
3.668098e+003;4.041242e-002
3.670027e+003;3.971023e-002
3.671955e+003;3.891012e-002
3.673884e+003;3.784453e-002
3.675813e+003;3.699358e-002
3.677741e+003;3.656170e-002
3.679669e+003;3.630251e-002
3.681598e+003;3.600546e-002
3.683527e+003;3.521027e-002
3.685455e+003;3.464190e-002
3.687384e+003;3.424150e-002
3.689312e+003;3.399229e-002
3.691241e+003;3.360942e-002
3.693169e+003;3.297032e-002
3.695098e+003;3.254239e-002
3.697026e+003;3.234858e-002
3.698955e+003;3.222538e-002
3.700884e+003;3.199847e-002
3.702812e+003;3.160556e-002
3.704741e+003;3.120011e-002
3.706669e+003;3.063171e-002
3.708598e+003;3.040720e-002
3.710526e+003;3.040542e-002
3.712455e+003;3.001032e-002
3.714383e+003;2.978010e-002
3.716312e+003;2.997383e-002
3.718240e+003;2.957781e-002
3.720169e+003;2.892570e-002
3.722098e+003;2.861719e-002
3.724026e+003;2.849943e-002
3.725955e+003;2.842050e-002
3.727883e+003;2.830519e-002
3.729812e+003;2.820024e-002
3.731740e+003;2.798600e-002
3.733669e+003;2.787247e-002
3.735597e+003;2.809072e-002
3.737526e+003;2.802512e-002
3.739455e+003;2.769808e-002
3.741383e+003;2.743240e-002
3.743312e+003;2.715367e-002
3.745240e+003;2.715832e-002
3.747169e+003;2.737304e-002
3.749097e+003;2.745383e-002
3.751026e+003;2.733458e-002
3.752954e+003;2.690028e-002
3.754883e+003;2.691124e-002
3.756812e+003;2.705481e-002
3.758740e+003;2.673875e-002
3.760668e+003;2.615503e-002
3.762597e+003;2.579508e-002
3.764526e+003;2.582911e-002
3.766454e+003;2.629681e-002
3.768383e+003;2.654319e-002
3.770311e+003;2.619012e-002
3.772240e+003;2.606393e-002
3.774168e+003;2.634740e-002
3.776097e+003;2.641891e-002
3.778025e+003;2.631779e-002
3.779954e+003;2.631680e-002
3.781883e+003;2.617932e-002
3.783811e+003;2.593824e-002
3.785740e+003;2.598485e-002
3.787668e+003;2.635285e-002
3.789597e+003;2.668139e-002
3.791525e+003;2.650677e-002
3.793454e+003;2.633028e-002
3.795382e+003;2.601778e-002
3.797311e+003;2.588774e-002
3.799240e+003;2.578477e-002
3.801168e+003;2.550295e-002
3.803097e+003;2.572996e-002
3.805025e+003;2.592720e-002
3.806954e+003;2.563572e-002
3.808882e+003;2.563895e-002
3.810811e+003;2.575580e-002
3.812739e+003;2.573407e-002
3.814668e+003;2.578400e-002
3.816596e+003;2.593335e-002
3.818525e+003;2.610651e-002
3.820454e+003;2.598566e-002
3.822382e+003;2.573791e-002
3.824311e+003;2.594063e-002
3.826239e+003;2.595379e-002
3.828168e+003;2.553099e-002
3.830096e+003;2.550421e-002
3.832025e+003;2.561009e-002
3.833953e+003;2.579585e-002
3.835882e+003;2.588907e-002
3.837811e+003;2.570496e-002
3.839739e+003;2.556065e-002
3.841667e+003;2.565973e-002
3.843596e+003;2.591601e-002
3.845525e+003;2.606802e-002
3.847453e+003;2.613702e-002
3.849382e+003;2.627632e-002
3.851310e+003;2.634680e-002
3.853239e+003;2.618600e-002
3.855167e+003;2.639577e-002
3.857096e+003;2.671035e-002
3.859024e+003;2.674333e-002
3.860953e+003;2.705883e-002
3.862882e+003;2.729093e-002
3.864810e+003;2.714047e-002
3.866739e+003;2.727802e-002
3.868667e+003;2.774992e-002
3.870596e+003;2.789098e-002
3.872524e+003;2.780972e-002
3.874453e+003;2.754063e-002
3.876381e+003;2.694963e-002
3.878310e+003;2.699857e-002
3.880239e+003;2.770175e-002
3.882167e+003;2.808828e-002
3.884096e+003;2.826208e-002
3.886024e+003;2.849455e-002
3.887953e+003;2.895956e-002
3.889881e+003;2.871389e-002
3.891810e+003;2.843037e-002
3.893738e+003;2.832938e-002
3.895667e+003;2.844173e-002
3.897595e+003;2.881398e-002
3.899524e+003;2.886971e-002
3.901453e+003;2.877230e-002
3.903381e+003;2.874841e-002
3.905310e+003;2.894348e-002
3.907238e+003;2.940167e-002
3.909167e+003;2.992182e-002
3.911095e+003;2.991639e-002
3.913024e+003;2.979501e-002
3.914952e+003;3.012058e-002
3.916881e+003;3.031424e-002
3.918810e+003;3.028024e-002
3.920738e+003;3.020362e-002
3.922667e+003;3.014423e-002
3.924595e+003;3.035681e-002
3.926524e+003;3.071417e-002
3.928452e+003;3.066894e-002
3.930381e+003;3.069529e-002
3.932309e+003;3.118886e-002
3.934238e+003;3.155411e-002
3.936167e+003;3.137966e-002
3.938095e+003;3.121514e-002
3.940023e+003;3.117163e-002
3.941952e+003;3.133606e-002
3.943881e+003;3.145809e-002
3.945809e+003;3.156800e-002
3.947738e+003;3.190849e-002
3.949666e+003;3.214374e-002
3.951595e+003;3.192005e-002
3.953523e+003;3.174214e-002
3.955452e+003;3.156754e-002
3.957380e+003;3.152140e-002
3.959309e+003;3.174018e-002
3.961238e+003;3.192237e-002
3.963166e+003;3.203478e-002
3.965095e+003;3.191181e-002
3.967023e+003;3.180235e-002
3.968952e+003;3.190065e-002
3.970880e+003;3.213478e-002
3.972809e+003;3.241288e-002
3.974737e+003;3.246322e-002
3.976666e+003;3.277101e-002
3.978594e+003;3.292460e-002
3.980523e+003;3.271159e-002
3.982452e+003;3.270287e-002
3.984380e+003;3.262668e-002
3.986309e+003;3.238639e-002
3.988237e+003;3.239128e-002
3.990166e+003;3.256657e-002
3.992094e+003;3.275068e-002
3.994023e+003;3.278884e-002
3.995951e+003;3.288364e-002
3.997880e+003;3.294652e-002
3.999809e+003;3.309145e-002
4.001737e+003;0.000000e+000
