3.992094e+002;0.000000e+000
4.011380e+002;0.000000e+000
4.030665e+002;0.000000e+000
4.049951e+002;0.000000e+000
4.069236e+002;0.000000e+000
4.088522e+002;0.000000e+000
4.107807e+002;0.000000e+000
4.127093e+002;0.000000e+000
4.146378e+002;0.000000e+000
4.165664e+002;0.000000e+000
4.184949e+002;0.000000e+000
4.204235e+002;0.000000e+000
4.223520e+002;0.000000e+000
4.242806e+002;0.000000e+000
4.262091e+002;0.000000e+000
4.281377e+002;0.000000e+000
4.300662e+002;0.000000e+000
4.319948e+002;0.000000e+000
4.339233e+002;0.000000e+000
4.358519e+002;0.000000e+000
4.377804e+002;0.000000e+000
4.397090e+002;0.000000e+000
4.416375e+002;0.000000e+000
4.435660e+002;0.000000e+000
4.454946e+002;0.000000e+000
4.474232e+002;0.000000e+000
4.493517e+002;0.000000e+000
4.512802e+002;0.000000e+000
4.532088e+002;0.000000e+000
4.551373e+002;0.000000e+000
4.570659e+002;0.000000e+000
4.589944e+002;0.000000e+000
4.609230e+002;0.000000e+000
4.628515e+002;0.000000e+000
4.647801e+002;0.000000e+000
4.667086e+002;0.000000e+000
4.686372e+002;0.000000e+000
4.705657e+002;0.000000e+000
4.724943e+002;0.000000e+000
4.744228e+002;0.000000e+000
4.763513e+002;0.000000e+000
4.782799e+002;0.000000e+000
4.802085e+002;0.000000e+000
4.821370e+002;0.000000e+000
4.840656e+002;0.000000e+000
4.859941e+002;0.000000e+000
4.879226e+002;0.000000e+000
4.898512e+002;0.000000e+000
4.917798e+002;0.000000e+000
4.937083e+002;0.000000e+000
4.956368e+002;0.000000e+000
4.975654e+002;0.000000e+000
4.994939e+002;0.000000e+000
5.014225e+002;0.000000e+000
5.033510e+002;0.000000e+000
5.052796e+002;0.000000e+000
5.072081e+002;0.000000e+000
5.091367e+002;0.000000e+000
5.110652e+002;0.000000e+000
5.129938e+002;0.000000e+000
5.149223e+002;0.000000e+000
5.168509e+002;0.000000e+000
5.187794e+002;0.000000e+000
5.207079e+002;0.000000e+000
5.226365e+002;0.000000e+000
5.245651e+002;0.000000e+000
5.264936e+002;0.000000e+000
5.284222e+002;0.000000e+000
5.303507e+002;0.000000e+000
5.322792e+002;0.000000e+000
5.342078e+002;0.000000e+000
5.361364e+002;0.000000e+000
5.380649e+002;0.000000e+000
5.399935e+002;0.000000e+000
5.419220e+002;0.000000e+000
5.438505e+002;0.000000e+000
5.457791e+002;0.000000e+000
5.477076e+002;0.000000e+000
5.496362e+002;0.000000e+000
5.515648e+002;0.000000e+000
5.534933e+002;0.000000e+000
5.554218e+002;0.000000e+000
5.573504e+002;0.000000e+000
5.592789e+002;0.000000e+000
5.612075e+002;0.000000e+000
5.631360e+002;0.000000e+000
5.650646e+002;0.000000e+000
5.669931e+002;0.000000e+000
5.689217e+002;0.000000e+000
5.708502e+002;0.000000e+000
5.727787e+002;0.000000e+000
5.747073e+002;0.000000e+000
5.766359e+002;0.000000e+000
5.785644e+002;0.000000e+000
5.804930e+002;0.000000e+000
5.824215e+002;0.000000e+000
5.843500e+002;0.000000e+000
5.862786e+002;0.000000e+000
5.882072e+002;0.000000e+000
5.901357e+002;0.000000e+000
5.920643e+002;0.000000e+000
5.939928e+002;0.000000e+000
5.959213e+002;0.000000e+000
5.978499e+002;0.000000e+000
5.997784e+002;2.064115e-001
6.017070e+002;2.110885e-001
6.036355e+002;2.154606e-001
6.055641e+002;2.220744e-001
6.074926e+002;2.216027e-001
6.094211e+002;2.159457e-001
6.113497e+002;2.117475e-001
6.132783e+002;2.099452e-001
6.152068e+002;2.100048e-001
6.171354e+002;2.048798e-001
6.190639e+002;2.038251e-001
6.209924e+002;2.035413e-001
6.229210e+002;1.985440e-001
6.248495e+002;1.971470e-001
6.267781e+002;1.976499e-001
6.287067e+002;1.938221e-001
6.306352e+002;1.954432e-001
6.325637e+002;1.966457e-001
6.344923e+002;1.924156e-001
6.364208e+002;1.897303e-001
6.383494e+002;1.902172e-001
6.402780e+002;1.932198e-001
6.422065e+002;1.921580e-001
6.441350e+002;1.871959e-001
6.460636e+002;1.849838e-001
6.479921e+002;1.894494e-001
6.499207e+002;1.928488e-001
6.518492e+002;1.905957e-001
6.537778e+002;1.907988e-001
6.557063e+002;1.939979e-001
6.576349e+002;1.963291e-001
6.595634e+002;1.995962e-001
6.614919e+002;2.029475e-001
6.634205e+002;2.034210e-001
6.653491e+002;2.017953e-001
6.672776e+002;2.028968e-001
6.692062e+002;2.066343e-001
6.711347e+002;2.049811e-001
6.730632e+002;1.960080e-001
6.749918e+002;1.850046e-001
6.769203e+002;1.739875e-001
6.788489e+002;1.650183e-001
6.807775e+002;1.604879e-001
6.827060e+002;1.577169e-001
6.846345e+002;1.546662e-001
6.865631e+002;1.521599e-001
6.884916e+002;1.517342e-001
6.904202e+002;1.512337e-001
6.923488e+002;1.501648e-001
6.942773e+002;1.499500e-001
6.962058e+002;1.503214e-001
6.981344e+002;1.500805e-001
7.000629e+002;1.495001e-001
7.019915e+002;1.489455e-001
7.039200e+002;1.490152e-001
7.058486e+002;1.494189e-001
7.077771e+002;1.493837e-001
7.097057e+002;1.496730e-001
7.116342e+002;1.488720e-001
7.135627e+002;1.473696e-001
7.154913e+002;1.463961e-001
7.174199e+002;1.451937e-001
7.193484e+002;1.433378e-001
7.212770e+002;1.425788e-001
7.232055e+002;1.432514e-001
7.251340e+002;1.426453e-001
7.270626e+002;1.399882e-001
7.289911e+002;1.380346e-001
7.309197e+002;1.376966e-001
7.328483e+002;1.370724e-001
7.347768e+002;1.361612e-001
7.367053e+002;1.359245e-001
7.386339e+002;1.350990e-001
7.405624e+002;1.343391e-001
7.424910e+002;1.340268e-001
7.444196e+002;1.335691e-001
7.463481e+002;1.333227e-001
7.482766e+002;1.325221e-001
7.502052e+002;1.312340e-001
7.521337e+002;1.299700e-001
7.540623e+002;1.294379e-001
7.559908e+002;1.290320e-001
7.579194e+002;1.276343e-001
7.598479e+002;1.267901e-001
7.617765e+002;1.272901e-001
7.637050e+002;1.270066e-001
7.656335e+002;1.259962e-001
7.675621e+002;1.254088e-001
7.694907e+002;1.247218e-001
7.714192e+002;1.244858e-001
7.733478e+002;1.237427e-001
7.752763e+002;1.221867e-001
7.772048e+002;1.214892e-001
7.791334e+002;1.216271e-001
7.810620e+002;1.217628e-001
7.829905e+002;1.214376e-001
7.849191e+002;1.212797e-001
7.868476e+002;1.204115e-001
7.887761e+002;1.197525e-001
7.907047e+002;1.194946e-001
7.926332e+002;1.192219e-001
7.945618e+002;1.192060e-001
7.964903e+002;1.189760e-001
7.984189e+002;1.187039e-001
8.003474e+002;1.187593e-001
8.022759e+002;1.189347e-001
8.042045e+002;1.181696e-001
8.061331e+002;1.172572e-001
8.080616e+002;1.173679e-001
8.099902e+002;1.178990e-001
8.119187e+002;1.186882e-001
8.138472e+002;1.190465e-001
8.157758e+002;1.190952e-001
8.177043e+002;1.189532e-001
8.196329e+002;1.180343e-001
8.215615e+002;1.176469e-001
8.234900e+002;1.181781e-001
8.254185e+002;1.186189e-001
8.273471e+002;1.186356e-001
8.292756e+002;1.183556e-001
8.312042e+002;1.177376e-001
8.331328e+002;1.174634e-001
8.350613e+002;1.174658e-001
8.369898e+002;1.172584e-001
8.389184e+002;1.173319e-001
8.408469e+002;1.172698e-001
8.427755e+002;1.172069e-001
8.447040e+002;1.169827e-001
8.466326e+002;1.165875e-001
8.485611e+002;1.164362e-001
8.504897e+002;1.165939e-001
8.524182e+002;1.173371e-001
8.543467e+002;1.177799e-001
8.562753e+002;1.180232e-001
8.582039e+002;1.183521e-001
8.601324e+002;1.184483e-001
8.620610e+002;1.186437e-001
8.639895e+002;1.189796e-001
8.659180e+002;1.193540e-001
8.678466e+002;1.201938e-001
8.697751e+002;1.215420e-001
8.717037e+002;1.232300e-001
8.736323e+002;1.250444e-001
8.755608e+002;1.270044e-001
8.774893e+002;1.293841e-001
8.794179e+002;1.324482e-001
8.813464e+002;1.362332e-001
8.832750e+002;1.400008e-001
8.852036e+002;1.440839e-001
8.871321e+002;1.484246e-001
8.890606e+002;1.533138e-001
8.909892e+002;1.578052e-001
8.929177e+002;1.604444e-001
8.948463e+002;1.606925e-001
8.967748e+002;1.585657e-001
8.987034e+002;1.547436e-001
9.006319e+002;1.504833e-001
9.025605e+002;1.465712e-001
9.044890e+002;1.435186e-001
9.064175e+002;1.407797e-001
9.083461e+002;1.382342e-001
9.102747e+002;1.361076e-001
9.122032e+002;1.347088e-001
9.141318e+002;1.337155e-001
9.160603e+002;1.329740e-001
9.179888e+002;1.330098e-001
9.199174e+002;1.332317e-001
9.218459e+002;1.338330e-001
9.237745e+002;1.350772e-001
9.257031e+002;1.361175e-001
9.276316e+002;1.367438e-001
9.295601e+002;1.379703e-001
9.314887e+002;1.393152e-001
9.334172e+002;1.406176e-001
9.353458e+002;1.419685e-001
9.372744e+002;1.429549e-001
9.392029e+002;1.440612e-001
9.411314e+002;1.454130e-001
9.430600e+002;1.472566e-001
9.449885e+002;1.493436e-001
9.469171e+002;1.516077e-001
9.488456e+002;1.545238e-001
9.507742e+002;1.576528e-001
9.527027e+002;1.608980e-001
9.546313e+002;1.643282e-001
9.565598e+002;1.680988e-001
9.584883e+002;1.721105e-001
9.604169e+002;1.760062e-001
9.623455e+002;1.793992e-001
9.642740e+002;1.825461e-001
9.662026e+002;1.856490e-001
9.681311e+002;1.890776e-001
9.700596e+002;1.923336e-001
9.719882e+002;1.959006e-001
9.739167e+002;2.007157e-001
9.758453e+002;2.066562e-001
9.777739e+002;2.136947e-001
9.797024e+002;2.219710e-001
9.816309e+002;2.310499e-001
9.835595e+002;2.410800e-001
9.854880e+002;2.515593e-001
9.874166e+002;2.616908e-001
9.893452e+002;2.712521e-001
9.912737e+002;2.798578e-001
9.932022e+002;2.865269e-001
9.951307e+002;2.912810e-001
9.970593e+002;2.942620e-001
9.989879e+002;2.953125e-001
1.000916e+003;2.949727e-001
1.002845e+003;2.952167e-001
1.004773e+003;2.976887e-001
1.006702e+003;3.016266e-001
1.008631e+003;3.060426e-001
1.010559e+003;3.110403e-001
1.012488e+003;3.171736e-001
1.014416e+003;3.234996e-001
1.016345e+003;3.284671e-001
1.018273e+003;3.321209e-001
1.020202e+003;3.352158e-001
1.022130e+003;3.369985e-001
1.024059e+003;3.370812e-001
1.025988e+003;3.359304e-001
1.027916e+003;3.334820e-001
1.029845e+003;3.296292e-001
1.031773e+003;3.244754e-001
1.033702e+003;3.193653e-001
1.035630e+003;3.153941e-001
1.037559e+003;3.115346e-001
1.039487e+003;3.089526e-001
1.041416e+003;3.078015e-001
1.043344e+003;3.065895e-001
1.045273e+003;3.048303e-001
1.047202e+003;3.031916e-001
1.049130e+003;3.014192e-001
1.051059e+003;3.000937e-001
1.052987e+003;2.990870e-001
1.054916e+003;2.975363e-001
1.056844e+003;2.946430e-001
1.058773e+003;2.916637e-001
1.060701e+003;2.873065e-001
1.062630e+003;2.804823e-001
1.064558e+003;2.731751e-001
1.066487e+003;2.668796e-001
1.068416e+003;2.621810e-001
1.070344e+003;2.587341e-001
1.072273e+003;2.560143e-001
1.074201e+003;2.536147e-001
1.076130e+003;2.514452e-001
1.078058e+003;2.488746e-001
1.079987e+003;2.452005e-001
1.081915e+003;2.415738e-001
1.083844e+003;2.380546e-001
1.085773e+003;2.334879e-001
1.087701e+003;2.284471e-001
1.089630e+003;2.239134e-001
1.091558e+003;2.196335e-001
1.093487e+003;2.150562e-001
1.095415e+003;2.109839e-001
1.097344e+003;2.063798e-001
1.099272e+003;2.001781e-001
1.101201e+003;1.941840e-001
1.103129e+003;1.891630e-001
1.105058e+003;1.853483e-001
1.106987e+003;1.827171e-001
1.108915e+003;1.816233e-001
1.110844e+003;1.802250e-001
1.112772e+003;1.775091e-001
1.114701e+003;1.740098e-001
1.116629e+003;1.707026e-001
1.118558e+003;1.676290e-001
1.120486e+003;1.643132e-001
1.122415e+003;1.605131e-001
1.124344e+003;1.564297e-001
1.126272e+003;1.518211e-001
1.128201e+003;1.470489e-001
1.130129e+003;1.429676e-001
1.132058e+003;1.395127e-001
1.133986e+003;1.360730e-001
1.135915e+003;1.327950e-001
1.137843e+003;1.307276e-001
1.139772e+003;1.292227e-001
1.141700e+003;1.286908e-001
1.143629e+003;1.295924e-001
1.145557e+003;1.307891e-001
1.147486e+003;1.324017e-001
1.149415e+003;1.345731e-001
1.151343e+003;1.371513e-001
1.153272e+003;1.395859e-001
1.155200e+003;1.412220e-001
1.157129e+003;1.421259e-001
1.159057e+003;1.410715e-001
1.160986e+003;1.379433e-001
1.162914e+003;1.336070e-001
1.164843e+003;1.283070e-001
1.166771e+003;1.228563e-001
1.168700e+003;1.179013e-001
1.170629e+003;1.134520e-001
1.172557e+003;1.098168e-001
1.174486e+003;1.067596e-001
1.176414e+003;1.042142e-001
1.178343e+003;1.025930e-001
1.180271e+003;1.015543e-001
1.182200e+003;1.008322e-001
1.184128e+003;1.004060e-001
1.186057e+003;1.002337e-001
1.187986e+003;1.009682e-001
1.189914e+003;1.029122e-001
1.191843e+003;1.050563e-001
1.193771e+003;1.070428e-001
1.195700e+003;1.092713e-001
1.197628e+003;1.101660e-001
1.199557e+003;1.095169e-001
1.201485e+003;1.081725e-001
1.203414e+003;1.062297e-001
1.205343e+003;1.042303e-001
1.207271e+003;1.026668e-001
1.209200e+003;1.014507e-001
1.211128e+003;1.011733e-001
1.213057e+003;1.018041e-001
1.214985e+003;1.024816e-001
1.216914e+003;1.034199e-001
1.218842e+003;1.051173e-001
1.220771e+003;1.072682e-001
1.222699e+003;1.092768e-001
1.224628e+003;1.104428e-001
1.226557e+003;1.108271e-001
1.228485e+003;1.107280e-001
1.230414e+003;1.103034e-001
1.232342e+003;1.096602e-001
1.234271e+003;1.088853e-001
1.236199e+003;1.082813e-001
1.238128e+003;1.078963e-001
1.240056e+003;1.076042e-001
1.241985e+003;1.071057e-001
1.243913e+003;1.065623e-001
1.245842e+003;1.061909e-001
1.247771e+003;1.065774e-001
1.249699e+003;1.072798e-001
1.251628e+003;1.078731e-001
1.253556e+003;1.087561e-001
1.255485e+003;1.098655e-001
1.257413e+003;1.108443e-001
1.259342e+003;1.112247e-001
1.261270e+003;1.109361e-001
1.263199e+003;1.105010e-001
1.265127e+003;1.100047e-001
1.267056e+003;1.091070e-001
1.268985e+003;1.084411e-001
1.270913e+003;1.082493e-001
1.272842e+003;1.078757e-001
1.274770e+003;1.078340e-001
1.276699e+003;1.080000e-001
1.278627e+003;1.075783e-001
1.280556e+003;1.067653e-001
1.282484e+003;1.058991e-001
1.284413e+003;1.055358e-001
1.286342e+003;1.059377e-001
1.288270e+003;1.069972e-001
1.290199e+003;1.085083e-001
1.292127e+003;1.098373e-001
1.294056e+003;1.108640e-001
1.295984e+003;1.117901e-001
1.297913e+003;1.127970e-001
1.299841e+003;1.142614e-001
1.301770e+003;1.156759e-001
1.303698e+003;1.171290e-001
1.305627e+003;1.190900e-001
1.307556e+003;1.214758e-001
1.309484e+003;1.236922e-001
1.311413e+003;1.249578e-001
1.313341e+003;1.255163e-001
1.315270e+003;1.250976e-001
1.317198e+003;1.234676e-001
1.319127e+003;1.210395e-001
1.321055e+003;1.185770e-001
1.322984e+003;1.171579e-001
1.324912e+003;1.165751e-001
1.326841e+003;1.163785e-001
1.328770e+003;1.164935e-001
1.330698e+003;1.165853e-001
1.332627e+003;1.169838e-001
1.334555e+003;1.174088e-001
1.336484e+003;1.172386e-001
1.338412e+003;1.167134e-001
1.340341e+003;1.160573e-001
1.342269e+003;1.155320e-001
1.344198e+003;1.150341e-001
1.346126e+003;1.142813e-001
1.348055e+003;1.139098e-001
1.349984e+003;1.141161e-001
1.351912e+003;1.147805e-001
1.353841e+003;1.156776e-001
1.355769e+003;1.167152e-001
1.357698e+003;1.180611e-001
1.359626e+003;1.194640e-001
1.361555e+003;1.203098e-001
1.363483e+003;1.206484e-001
1.365412e+003;1.207526e-001
1.367341e+003;1.202945e-001
1.369269e+003;1.194969e-001
1.371198e+003;1.187019e-001
1.373126e+003;1.175683e-001
1.375055e+003;1.160711e-001
1.376983e+003;1.142853e-001
1.378912e+003;1.121294e-001
1.380840e+003;1.097053e-001
1.382769e+003;1.073346e-001
1.384698e+003;1.055290e-001
1.386626e+003;1.041271e-001
1.388555e+003;1.030108e-001
1.390483e+003;1.025374e-001
1.392412e+003;1.024787e-001
1.394340e+003;1.022237e-001
1.396269e+003;1.018742e-001
1.398197e+003;1.016473e-001
1.400126e+003;1.013111e-001
1.402054e+003;1.005936e-001
1.403983e+003;1.001934e-001
1.405911e+003;1.002739e-001
1.407840e+003;1.003660e-001
1.409769e+003;1.005112e-001
1.411697e+003;1.005350e-001
1.413626e+003;1.007055e-001
1.415554e+003;1.009058e-001
1.417483e+003;1.007680e-001
1.419411e+003;1.006414e-001
1.421340e+003;1.009112e-001
1.423268e+003;1.009586e-001
1.425197e+003;1.006400e-001
1.427125e+003;1.003224e-001
1.429054e+003;1.000451e-001
1.430983e+003;9.993944e-002
1.432911e+003;9.985557e-002
1.434840e+003;9.955040e-002
1.436768e+003;9.915175e-002
1.438697e+003;9.877419e-002
1.440625e+003;9.835328e-002
1.442554e+003;9.794038e-002
1.444482e+003;9.731568e-002
1.446411e+003;9.650361e-002
1.448340e+003;9.583573e-002
1.450268e+003;9.548791e-002
1.452197e+003;9.533338e-002
1.454125e+003;9.489851e-002
1.456054e+003;9.408580e-002
1.457982e+003;9.372240e-002
1.459911e+003;9.364281e-002
1.461839e+003;9.324002e-002
1.463768e+003;9.274837e-002
1.465697e+003;9.230109e-002
1.467625e+003;9.201023e-002
1.469554e+003;9.150120e-002
1.471482e+003;9.061124e-002
1.473411e+003;8.979436e-002
1.475339e+003;8.901595e-002
1.477268e+003;8.793181e-002
1.479196e+003;8.682270e-002
1.481125e+003;8.597644e-002
1.483053e+003;8.510148e-002
1.484982e+003;8.417654e-002
1.486911e+003;8.329623e-002
1.488839e+003;8.248053e-002
1.490768e+003;8.179221e-002
1.492696e+003;8.102084e-002
1.494625e+003;8.012635e-002
1.496553e+003;7.946510e-002
1.498482e+003;7.912354e-002
1.500410e+003;7.879195e-002
1.502339e+003;7.852662e-002
1.504267e+003;7.808463e-002
1.506196e+003;7.723917e-002
1.508125e+003;7.708055e-002
1.510053e+003;7.712582e-002
1.511982e+003;7.682501e-002
1.513910e+003;7.657646e-002
1.515839e+003;7.635214e-002
1.517767e+003;7.622421e-002
1.519696e+003;7.591191e-002
1.521624e+003;7.549021e-002
1.523553e+003;7.549448e-002
1.525481e+003;7.542379e-002
1.527410e+003;7.532357e-002
1.529339e+003;7.523254e-002
1.531267e+003;7.507059e-002
1.533196e+003;7.508473e-002
1.535124e+003;7.530477e-002
1.537053e+003;7.529653e-002
1.538981e+003;7.468297e-002
1.540910e+003;7.426310e-002
1.542838e+003;7.420684e-002
1.544767e+003;7.418774e-002
1.546695e+003;7.435989e-002
1.548624e+003;7.458602e-002
1.550553e+003;7.468690e-002
1.552481e+003;7.453999e-002
1.554410e+003;7.431357e-002
1.556338e+003;7.420680e-002
1.558267e+003;7.380985e-002
1.560195e+003;7.404272e-002
1.562124e+003;7.505314e-002
1.564052e+003;7.569867e-002
1.565981e+003;7.576722e-002
1.567910e+003;7.580336e-002
1.569838e+003;7.581894e-002
1.571767e+003;7.599842e-002
1.573695e+003;7.624096e-002
1.575624e+003;7.624182e-002
1.577552e+003;7.657725e-002
1.579481e+003;7.706278e-002
1.581409e+003;7.715297e-002
1.583338e+003;7.740985e-002
1.585266e+003;7.773801e-002
1.587195e+003;7.781763e-002
1.589124e+003;7.812084e-002
1.591052e+003;7.868395e-002
1.592981e+003;7.896344e-002
1.594909e+003;7.907178e-002
1.596838e+003;7.944548e-002
1.598766e+003;7.971659e-002
1.600695e+003;7.998746e-002
1.602623e+003;8.028177e-002
1.604552e+003;8.057904e-002
1.606480e+003;8.093636e-002
1.608409e+003;8.095109e-002
1.610338e+003;8.098319e-002
1.612266e+003;8.140114e-002
1.614195e+003;8.156382e-002
1.616123e+003;8.139250e-002
1.618052e+003;8.171230e-002
1.619980e+003;8.231021e-002
1.621909e+003;8.243249e-002
1.623837e+003;8.267492e-002
1.625766e+003;8.324638e-002
1.627694e+003;8.379682e-002
1.629623e+003;8.394022e-002
1.631552e+003;8.399370e-002
1.633480e+003;8.405440e-002
1.635409e+003;8.379211e-002
1.637337e+003;8.379666e-002
1.639266e+003;8.412361e-002
1.641194e+003;8.387784e-002
1.643123e+003;8.336207e-002
1.645051e+003;8.293537e-002
1.646980e+003;8.293609e-002
1.648909e+003;8.273982e-002
1.650837e+003;8.204997e-002
1.652766e+003;8.120124e-002
1.654694e+003;8.107024e-002
1.656623e+003;8.109807e-002
1.658551e+003;8.072255e-002
1.660480e+003;8.033272e-002
1.662408e+003;7.992058e-002
1.664337e+003;7.936008e-002
1.666266e+003;7.901996e-002
1.668194e+003;7.851615e-002
1.670123e+003;7.758697e-002
1.672051e+003;7.687230e-002
1.673980e+003;7.622350e-002
1.675908e+003;7.564605e-002
1.677837e+003;7.522229e-002
1.679765e+003;7.458444e-002
1.681694e+003;7.384112e-002
1.683622e+003;7.322522e-002
1.685551e+003;7.289401e-002
1.687479e+003;7.249274e-002
1.689408e+003;7.185545e-002
1.691337e+003;7.141147e-002
1.693265e+003;7.092272e-002
1.695194e+003;7.036693e-002
1.697122e+003;7.001606e-002
1.699051e+003;6.954697e-002
1.700979e+003;6.926189e-002
1.702908e+003;6.907306e-002
1.704836e+003;6.863672e-002
1.706765e+003;6.852718e-002
1.708693e+003;6.844048e-002
1.710622e+003;6.816245e-002
1.712551e+003;6.791295e-002
1.714479e+003;6.748506e-002
1.716408e+003;6.693333e-002
1.718336e+003;6.675540e-002
1.720265e+003;6.679110e-002
1.722193e+003;6.671336e-002
1.724122e+003;6.648242e-002
1.726050e+003;6.635150e-002
1.727979e+003;6.625021e-002
1.729908e+003;6.587767e-002
1.731836e+003;6.540975e-002
1.733765e+003;6.503803e-002
1.735693e+003;6.496542e-002
1.737622e+003;6.477883e-002
1.739550e+003;6.418923e-002
1.741479e+003;6.362579e-002
1.743407e+003;6.346040e-002
1.745336e+003;6.352472e-002
1.747265e+003;6.353227e-002
1.749193e+003;6.348518e-002
1.751122e+003;6.338276e-002
1.753050e+003;6.341960e-002
1.754979e+003;6.366837e-002
1.756907e+003;6.368157e-002
1.758836e+003;6.356350e-002
1.760764e+003;6.351294e-002
1.762693e+003;6.359767e-002
1.764621e+003;6.378709e-002
1.766550e+003;6.382443e-002
1.768479e+003;6.381434e-002
1.770407e+003;6.385322e-002
1.772336e+003;6.378295e-002
1.774264e+003;6.378540e-002
1.776193e+003;6.380279e-002
1.778121e+003;6.366070e-002
1.780050e+003;6.371852e-002
1.781978e+003;6.386435e-002
1.783907e+003;6.383361e-002
1.785835e+003;6.373625e-002
1.787764e+003;6.374346e-002
1.789693e+003;6.376710e-002
1.791621e+003;6.364520e-002
1.793550e+003;6.356702e-002
1.795478e+003;6.368890e-002
1.797407e+003;6.378095e-002
1.799335e+003;6.379469e-002
1.801264e+003;6.392565e-002
1.803192e+003;6.399722e-002
1.805121e+003;6.386895e-002
1.807049e+003;6.377354e-002
1.808978e+003;6.377868e-002
1.810907e+003;6.359199e-002
1.812835e+003;6.346987e-002
1.814764e+003;6.347060e-002
1.816692e+003;6.347045e-002
1.818621e+003;6.362878e-002
1.820549e+003;6.376860e-002
1.822478e+003;6.376134e-002
1.824406e+003;6.363365e-002
1.826335e+003;6.369619e-002
1.828264e+003;6.360047e-002
1.830192e+003;6.340680e-002
1.832121e+003;6.355900e-002
1.834049e+003;6.358068e-002
1.835978e+003;6.349829e-002
1.837906e+003;6.351282e-002
1.839835e+003;6.342739e-002
1.841763e+003;6.328569e-002
1.843692e+003;6.316883e-002
1.845620e+003;6.316411e-002
1.847549e+003;6.326737e-002
1.849478e+003;6.345404e-002
1.851406e+003;6.348456e-002
1.853335e+003;6.336719e-002
1.855263e+003;6.322398e-002
1.857192e+003;6.312258e-002
1.859120e+003;6.310634e-002
1.861049e+003;6.313775e-002
1.862977e+003;6.315308e-002
1.864906e+003;6.328891e-002
1.866834e+003;6.333744e-002
1.868763e+003;6.310380e-002
1.870692e+003;6.280033e-002
1.872620e+003;6.288083e-002
1.874549e+003;6.309047e-002
1.876477e+003;6.300925e-002
1.878406e+003;6.301044e-002
1.880334e+003;6.311564e-002
1.882263e+003;6.311488e-002
1.884191e+003;6.313783e-002
1.886120e+003;6.328044e-002
1.888048e+003;6.323766e-002
1.889977e+003;6.306671e-002
1.891906e+003;6.310327e-002
1.893834e+003;6.327998e-002
1.895763e+003;6.333434e-002
1.897691e+003;6.338682e-002
1.899620e+003;6.327794e-002
1.901548e+003;6.316098e-002
1.903477e+003;6.326641e-002
1.905405e+003;6.340872e-002
1.907334e+003;6.340653e-002
1.909262e+003;6.344272e-002
1.911191e+003;6.352559e-002
1.913120e+003;6.360465e-002
1.915048e+003;6.357481e-002
1.916977e+003;6.351996e-002
1.918905e+003;6.367382e-002
1.920834e+003;6.389125e-002
1.922762e+003;6.405001e-002
1.924691e+003;6.411806e-002
1.926619e+003;6.421062e-002
1.928548e+003;6.409045e-002
1.930477e+003;6.388431e-002
1.932405e+003;6.391713e-002
1.934334e+003;6.397629e-002
1.936262e+003;6.393509e-002
1.938191e+003;6.403726e-002
1.940119e+003;6.423494e-002
1.942048e+003;6.418366e-002
1.943976e+003;6.417222e-002
1.945905e+003;6.414479e-002
1.947833e+003;6.406733e-002
1.949762e+003;6.424704e-002
1.951691e+003;6.445696e-002
1.953619e+003;6.471337e-002
1.955548e+003;6.488969e-002
1.957476e+003;6.480899e-002
1.959405e+003;6.473148e-002
1.961333e+003;6.470302e-002
1.963262e+003;6.463522e-002
1.965190e+003;6.469229e-002
1.967119e+003;6.489223e-002
1.969047e+003;6.498039e-002
1.970976e+003;6.512568e-002
1.972905e+003;6.516044e-002
1.974833e+003;6.517241e-002
1.976762e+003;6.530268e-002
1.978690e+003;6.537443e-002
1.980619e+003;6.534704e-002
1.982547e+003;6.526729e-002
1.984476e+003;6.530760e-002
1.986404e+003;6.534966e-002
1.988333e+003;6.540343e-002
1.990261e+003;6.560520e-002
1.992190e+003;6.564455e-002
1.994119e+003;6.539580e-002
1.996047e+003;6.525843e-002
1.997976e+003;6.529501e-002
1.999904e+003;6.533895e-002
2.001833e+003;6.547415e-002
2.003761e+003;6.576076e-002
2.005690e+003;6.575491e-002
2.007618e+003;6.561822e-002
2.009547e+003;6.579230e-002
2.011476e+003;6.593131e-002
2.013404e+003;6.610775e-002
2.015333e+003;6.607295e-002
2.017261e+003;6.590023e-002
2.019190e+003;6.611647e-002
2.021118e+003;6.622401e-002
2.023047e+003;6.597771e-002
2.024975e+003;6.606967e-002
2.026904e+003;6.606774e-002
2.028833e+003;6.612164e-002
2.030761e+003;6.646509e-002
2.032690e+003;6.666975e-002
2.034618e+003;6.653185e-002
2.036547e+003;6.644848e-002
2.038475e+003;6.654170e-002
2.040404e+003;6.650659e-002
2.042332e+003;6.644902e-002
2.044261e+003;6.642153e-002
2.046189e+003;6.652521e-002
2.048118e+003;6.664892e-002
2.050047e+003;6.663301e-002
2.051975e+003;6.668319e-002
2.053904e+003;6.666294e-002
2.055832e+003;6.650513e-002
2.057761e+003;6.660129e-002
2.059689e+003;6.679837e-002
2.061618e+003;6.669980e-002
2.063546e+003;6.642346e-002
2.065475e+003;6.636061e-002
2.067404e+003;6.648172e-002
2.069332e+003;6.663436e-002
2.071260e+003;6.676178e-002
2.073189e+003;6.689546e-002
2.075118e+003;6.671707e-002
2.077046e+003;6.649540e-002
2.078975e+003;6.656174e-002
2.080903e+003;6.652351e-002
2.082832e+003;6.631610e-002
2.084760e+003;6.616605e-002
2.086689e+003;6.633814e-002
2.088617e+003;6.650571e-002
2.090546e+003;6.636011e-002
2.092475e+003;6.629691e-002
2.094403e+003;6.632243e-002
2.096332e+003;6.624678e-002
2.098260e+003;6.637439e-002
2.100189e+003;6.649694e-002
2.102117e+003;6.643829e-002
2.104046e+003;6.639057e-002
2.105974e+003;6.641690e-002
2.107903e+003;6.650072e-002
2.109832e+003;6.668787e-002
2.111760e+003;6.690647e-002
2.113688e+003;6.707909e-002
2.115617e+003;6.706064e-002
2.117546e+003;6.697373e-002
2.119474e+003;6.674373e-002
2.121403e+003;6.663193e-002
2.123331e+003;6.660940e-002
2.125260e+003;6.674628e-002
2.127188e+003;6.687431e-002
2.129117e+003;6.681646e-002
2.131045e+003;6.683423e-002
2.132974e+003;6.680359e-002
2.134903e+003;6.677855e-002
2.136831e+003;6.666816e-002
2.138760e+003;6.657854e-002
2.140688e+003;6.661466e-002
2.142617e+003;6.654081e-002
2.144545e+003;6.650694e-002
2.146474e+003;6.667635e-002
2.148402e+003;6.676363e-002
2.150331e+003;6.675861e-002
2.152260e+003;6.657584e-002
2.154188e+003;6.650289e-002
2.156117e+003;6.644686e-002
2.158045e+003;6.655950e-002
2.159974e+003;6.666878e-002
2.161902e+003;6.657661e-002
2.163831e+003;6.638674e-002
2.165759e+003;6.649826e-002
2.167688e+003;6.661218e-002
2.169616e+003;6.636810e-002
2.171545e+003;6.632351e-002
2.173474e+003;6.655359e-002
2.175402e+003;6.659716e-002
2.177331e+003;6.645887e-002
2.179259e+003;6.629340e-002
2.181188e+003;6.610582e-002
2.183116e+003;6.608842e-002
2.185045e+003;6.622316e-002
2.186973e+003;6.629696e-002
2.188902e+003;6.632382e-002
2.190831e+003;6.637292e-002
2.192759e+003;6.621151e-002
2.194688e+003;6.583252e-002
2.196616e+003;6.574180e-002
2.198545e+003;6.578583e-002
2.200473e+003;6.585673e-002
2.202402e+003;6.568491e-002
2.204330e+003;6.549454e-002
2.206259e+003;6.572796e-002
2.208188e+003;6.585723e-002
2.210116e+003;6.571659e-002
2.212044e+003;6.565588e-002
2.213973e+003;6.567515e-002
2.215902e+003;6.573914e-002
2.217830e+003;6.566174e-002
2.219759e+003;6.546087e-002
2.221687e+003;6.544600e-002
2.223616e+003;6.546707e-002
2.225544e+003;6.551646e-002
2.227473e+003;6.549866e-002
2.229401e+003;6.539126e-002
2.231330e+003;6.540755e-002
2.233259e+003;6.537411e-002
2.235187e+003;6.531557e-002
2.237116e+003;6.518651e-002
2.239044e+003;6.522100e-002
2.240973e+003;6.530810e-002
2.242901e+003;6.515975e-002
2.244830e+003;6.499043e-002
2.246758e+003;6.499509e-002
2.248687e+003;6.503153e-002
2.250615e+003;6.492032e-002
2.252544e+003;6.477156e-002
2.254473e+003;6.460673e-002
2.256401e+003;6.442180e-002
2.258330e+003;6.442795e-002
2.260258e+003;6.457290e-002
2.262187e+003;6.457763e-002
2.264115e+003;6.453942e-002
2.266044e+003;6.450532e-002
2.267972e+003;6.440915e-002
2.269901e+003;6.435935e-002
2.271830e+003;6.439294e-002
2.273758e+003;6.434813e-002
2.275687e+003;6.429292e-002
2.277615e+003;6.413918e-002
2.279544e+003;6.407716e-002
2.281472e+003;6.434286e-002
2.283401e+003;6.434029e-002
2.285329e+003;6.401860e-002
2.287258e+003;6.374599e-002
2.289187e+003;6.364428e-002
2.291115e+003;6.369860e-002
2.293043e+003;6.383890e-002
2.294972e+003;6.384558e-002
2.296901e+003;6.397521e-002
2.298829e+003;6.420360e-002
2.300758e+003;6.407589e-002
2.302686e+003;6.391053e-002
2.304615e+003;6.388742e-002
2.306543e+003;6.378908e-002
2.308472e+003;6.359337e-002
2.310400e+003;6.362828e-002
2.312329e+003;6.367666e-002
2.314258e+003;6.366123e-002
2.316186e+003;6.366538e-002
2.318115e+003;6.376030e-002
2.320043e+003;6.391037e-002
2.321972e+003;6.370271e-002
2.323900e+003;6.361017e-002
2.325829e+003;6.357136e-002
2.327757e+003;6.335251e-002
2.329686e+003;6.338180e-002
2.331615e+003;6.376173e-002
2.333543e+003;6.403358e-002
2.335472e+003;6.421930e-002
2.337400e+003;6.419192e-002
2.339329e+003;6.398980e-002
2.341257e+003;6.393275e-002
2.343186e+003;6.386515e-002
2.345114e+003;6.392657e-002
2.347043e+003;6.405988e-002
2.348971e+003;6.429718e-002
2.350900e+003;6.439428e-002
2.352829e+003;6.452911e-002
2.354757e+003;6.459451e-002
2.356686e+003;6.441688e-002
2.358614e+003;6.438906e-002
2.360543e+003;6.463038e-002
2.362471e+003;6.471559e-002
2.364400e+003;6.469022e-002
2.366328e+003;6.472386e-002
2.368257e+003;6.463588e-002
2.370186e+003;6.464776e-002
2.372114e+003;6.468002e-002
2.374042e+003;6.454357e-002
2.375971e+003;6.443271e-002
2.377900e+003;6.446619e-002
2.379828e+003;6.452000e-002
2.381757e+003;6.445858e-002
2.383685e+003;6.455487e-002
2.385614e+003;6.461300e-002
2.387542e+003;6.472260e-002
2.389471e+003;6.479529e-002
2.391399e+003;6.479052e-002
2.393328e+003;6.509262e-002
2.395257e+003;6.521076e-002
2.397185e+003;6.506202e-002
2.399114e+003;6.509069e-002
2.401042e+003;6.518608e-002
2.402971e+003;6.526043e-002
2.404899e+003;6.512691e-002
2.406828e+003;6.502595e-002
2.408756e+003;6.521065e-002
2.410685e+003;6.537631e-002
2.412614e+003;6.540775e-002
2.414542e+003;6.543528e-002
2.416471e+003;6.560327e-002
2.418399e+003;6.571435e-002
2.420328e+003;6.583861e-002
2.422256e+003;6.601713e-002
2.424185e+003;6.604633e-002
2.426113e+003;6.616246e-002
2.428042e+003;6.626372e-002
2.429970e+003;6.618669e-002
2.431899e+003;6.628159e-002
2.433828e+003;6.654475e-002
2.435756e+003;6.658229e-002
2.437685e+003;6.653783e-002
2.439613e+003;6.670034e-002
2.441542e+003;6.672789e-002
2.443470e+003;6.655421e-002
2.445399e+003;6.663193e-002
2.447327e+003;6.673998e-002
2.449256e+003;6.690276e-002
2.451185e+003;6.732660e-002
2.453113e+003;6.756755e-002
2.455042e+003;6.771305e-002
2.456970e+003;6.765237e-002
2.458899e+003;6.748541e-002
2.460827e+003;6.728334e-002
2.462756e+003;6.728388e-002
2.464684e+003;6.734536e-002
2.466613e+003;6.750778e-002
2.468542e+003;6.764533e-002
2.470470e+003;6.797386e-002
2.472398e+003;6.829461e-002
2.474327e+003;6.839948e-002
2.476256e+003;6.836151e-002
2.478184e+003;6.824200e-002
2.480113e+003;6.813055e-002
2.482041e+003;6.806838e-002
2.483970e+003;6.835853e-002
2.485898e+003;6.844727e-002
2.487827e+003;6.846415e-002
2.489755e+003;6.859578e-002
2.491684e+003;6.857227e-002
2.493613e+003;6.853910e-002
2.495541e+003;6.869408e-002
2.497470e+003;6.882991e-002
2.499398e+003;6.874714e-002
2.501327e+003;6.875005e-002
2.503255e+003;6.904602e-002
2.505184e+003;6.938572e-002
2.507112e+003;6.911656e-002
2.509041e+003;6.897082e-002
2.510969e+003;6.919140e-002
2.512898e+003;6.921195e-002
2.514827e+003;6.925827e-002
2.516755e+003;6.935995e-002
2.518684e+003;6.928536e-002
2.520612e+003;6.923414e-002
2.522541e+003;6.910405e-002
2.524469e+003;6.909831e-002
2.526398e+003;6.927040e-002
2.528326e+003;6.939501e-002
2.530255e+003;6.939101e-002
2.532184e+003;6.923414e-002
2.534112e+003;6.934798e-002
2.536041e+003;6.957917e-002
2.537969e+003;6.944431e-002
2.539898e+003;6.924763e-002
2.541826e+003;6.940512e-002
2.543755e+003;6.947514e-002
2.545683e+003;6.941655e-002
2.547612e+003;6.949782e-002
2.549541e+003;6.978869e-002
2.551469e+003;6.999901e-002
2.553397e+003;6.991470e-002
2.555326e+003;6.976148e-002
2.557255e+003;6.982600e-002
2.559183e+003;6.980760e-002
2.561112e+003;6.985079e-002
2.563040e+003;7.022910e-002
2.564969e+003;7.016083e-002
2.566897e+003;6.982573e-002
2.568826e+003;6.983566e-002
2.570754e+003;6.997016e-002
2.572683e+003;7.009311e-002
2.574612e+003;7.024067e-002
2.576540e+003;7.038707e-002
2.578469e+003;7.038750e-002
2.580397e+003;7.037916e-002
2.582326e+003;7.049610e-002
2.584254e+003;7.050304e-002
2.586183e+003;7.037710e-002
2.588111e+003;7.023716e-002
2.590040e+003;7.027424e-002
2.591969e+003;7.049637e-002
2.593897e+003;7.083285e-002
2.595826e+003;7.116872e-002
2.597754e+003;7.121303e-002
2.599683e+003;7.106572e-002
2.601611e+003;7.103700e-002
2.603540e+003;7.138675e-002
2.605468e+003;7.159913e-002
2.607397e+003;7.149947e-002
2.609325e+003;7.137253e-002
2.611254e+003;7.142650e-002
2.613183e+003;7.151794e-002
2.615111e+003;7.158834e-002
2.617040e+003;7.168482e-002
2.618968e+003;7.177097e-002
2.620897e+003;7.177808e-002
2.622825e+003;7.169772e-002
2.624754e+003;7.171820e-002
2.626682e+003;7.166708e-002
2.628611e+003;7.172922e-002
2.630540e+003;7.179774e-002
2.632468e+003;7.179501e-002
2.634396e+003;7.186643e-002
2.636325e+003;7.218651e-002
2.638254e+003;7.262866e-002
2.640182e+003;7.274351e-002
2.642111e+003;7.273180e-002
2.644039e+003;7.276729e-002
2.645968e+003;7.294794e-002
2.647896e+003;7.299682e-002
2.649825e+003;7.292662e-002
2.651753e+003;7.314239e-002
2.653682e+003;7.334712e-002
2.655611e+003;7.325396e-002
2.657539e+003;7.350431e-002
2.659468e+003;7.378429e-002
2.661396e+003;7.391209e-002
2.663325e+003;7.364055e-002
2.665253e+003;7.360946e-002
2.667182e+003;7.394061e-002
2.669110e+003;7.401396e-002
2.671039e+003;7.396261e-002
2.672968e+003;7.418872e-002
2.674896e+003;7.432895e-002
2.676825e+003;7.441813e-002
2.678753e+003;7.445224e-002
2.680682e+003;7.456587e-002
2.682610e+003;7.481977e-002
2.684539e+003;7.503124e-002
2.686467e+003;7.508465e-002
2.688396e+003;7.528616e-002
2.690324e+003;7.551561e-002
2.692253e+003;7.548214e-002
2.694182e+003;7.560606e-002
2.696110e+003;7.579914e-002
2.698039e+003;7.576734e-002
2.699967e+003;7.587237e-002
2.701896e+003;7.591104e-002
2.703824e+003;7.600268e-002
2.705753e+003;7.639382e-002
2.707681e+003;7.663752e-002
2.709610e+003;7.659681e-002
2.711539e+003;7.642119e-002
2.713467e+003;7.649354e-002
2.715396e+003;7.679357e-002
2.717324e+003;7.702393e-002
2.719253e+003;7.699513e-002
2.721181e+003;7.685210e-002
2.723110e+003;7.700232e-002
2.725038e+003;7.712606e-002
2.726967e+003;7.716290e-002
2.728896e+003;7.731014e-002
2.730824e+003;7.757156e-002
2.732752e+003;7.762761e-002
2.734681e+003;7.755377e-002
2.736610e+003;7.756039e-002
2.738538e+003;7.755017e-002
2.740467e+003;7.773948e-002
2.742395e+003;7.787082e-002
2.744324e+003;7.781735e-002
2.746252e+003;7.772295e-002
2.748181e+003;7.768744e-002
2.750109e+003;7.776614e-002
2.752038e+003;7.773393e-002
2.753967e+003;7.786127e-002
2.755895e+003;7.820850e-002
2.757824e+003;7.846636e-002
2.759752e+003;7.851575e-002
2.761681e+003;7.836865e-002
2.763609e+003;7.834023e-002
2.765538e+003;7.841766e-002
2.767466e+003;7.869491e-002
2.769395e+003;7.893542e-002
2.771323e+003;7.913312e-002
2.773252e+003;7.938052e-002
2.775181e+003;7.971022e-002
2.777109e+003;8.001614e-002
2.779038e+003;8.000252e-002
2.780966e+003;7.975890e-002
2.782895e+003;7.999244e-002
2.784823e+003;8.052377e-002
2.786752e+003;8.098275e-002
2.788680e+003;8.146700e-002
2.790609e+003;8.181817e-002
2.792538e+003;8.166502e-002
2.794466e+003;8.146013e-002
2.796395e+003;8.156674e-002
2.798323e+003;8.196897e-002
2.800252e+003;8.223625e-002
2.802180e+003;8.236211e-002
2.804109e+003;8.268855e-002
2.806037e+003;8.301599e-002
2.807966e+003;8.332634e-002
2.809895e+003;8.359232e-002
2.811823e+003;8.376467e-002
2.813751e+003;8.373867e-002
2.815680e+003;8.398264e-002
2.817609e+003;8.431584e-002
2.819537e+003;8.472259e-002
2.821466e+003;8.496989e-002
2.823394e+003;8.492090e-002
2.825323e+003;8.514880e-002
2.827251e+003;8.562537e-002
2.829180e+003;8.606232e-002
2.831108e+003;8.638403e-002
2.833037e+003;8.681218e-002
2.834966e+003;8.734082e-002
2.836894e+003;8.782995e-002
2.838823e+003;8.831472e-002
2.840751e+003;8.889793e-002
2.842680e+003;8.932158e-002
2.844608e+003;8.937852e-002
2.846537e+003;8.928328e-002
2.848465e+003;8.943962e-002
2.850394e+003;8.998725e-002
2.852323e+003;9.046137e-002
2.854251e+003;9.145387e-002
2.856180e+003;9.271425e-002
2.858108e+003;9.369527e-002
2.860037e+003;9.448002e-002
2.861965e+003;9.542149e-002
2.863894e+003;9.625234e-002
2.865822e+003;9.719369e-002
2.867751e+003;9.818539e-002
2.869679e+003;9.888440e-002
2.871608e+003;9.969293e-002
2.873536e+003;1.003451e-001
2.875465e+003;1.004499e-001
2.877394e+003;1.006155e-001
2.879322e+003;1.009584e-001
2.881251e+003;1.012090e-001
2.883179e+003;1.016004e-001
2.885108e+003;1.022100e-001
2.887036e+003;1.029497e-001
2.888965e+003;1.032995e-001
2.890893e+003;1.033331e-001
2.892822e+003;1.032452e-001
2.894750e+003;1.030202e-001
2.896679e+003;1.027020e-001
2.898608e+003;1.022795e-001
2.900536e+003;1.021568e-001
2.902465e+003;1.018101e-001
2.904393e+003;1.008395e-001
2.906322e+003;1.002835e-001
2.908250e+003;9.970106e-002
2.910179e+003;9.864635e-002
2.912107e+003;9.728430e-002
2.914036e+003;9.599020e-002
2.915965e+003;9.501998e-002
2.917893e+003;9.411210e-002
2.919822e+003;9.341850e-002
2.921750e+003;9.297623e-002
2.923679e+003;9.226225e-002
2.925607e+003;9.159778e-002
2.927536e+003;9.117477e-002
2.929464e+003;9.069689e-002
2.931393e+003;8.987843e-002
2.933322e+003;8.950366e-002
2.935250e+003;8.920681e-002
2.937178e+003;8.816491e-002
2.939107e+003;8.710400e-002
2.941036e+003;8.644944e-002
2.942964e+003;8.594858e-002
2.944893e+003;8.556226e-002
2.946821e+003;8.495454e-002
2.948750e+003;8.443652e-002
2.950678e+003;8.376624e-002
2.952607e+003;8.323675e-002
2.954535e+003;8.284871e-002
2.956464e+003;8.213314e-002
2.958393e+003;8.162168e-002
2.960321e+003;8.114907e-002
2.962250e+003;8.051914e-002
2.964178e+003;8.028720e-002
2.966107e+003;8.018867e-002
2.968035e+003;8.031506e-002
2.969964e+003;8.036027e-002
2.971892e+003;7.997753e-002
2.973821e+003;7.971516e-002
2.975750e+003;8.000602e-002
2.977678e+003;8.026611e-002
2.979607e+003;8.008833e-002
2.981535e+003;7.985351e-002
2.983464e+003;7.992297e-002
2.985392e+003;7.979438e-002
2.987321e+003;7.931274e-002
2.989249e+003;7.891790e-002
2.991178e+003;7.916171e-002
2.993106e+003;7.952952e-002
2.995035e+003;7.953047e-002
2.996964e+003;7.924505e-002
2.998892e+003;7.903196e-002
3.000821e+003;7.925412e-002
3.002749e+003;7.938494e-002
3.004678e+003;7.945456e-002
3.006606e+003;7.969099e-002
3.008535e+003;7.995284e-002
3.010463e+003;8.000709e-002
3.012392e+003;8.023506e-002
3.014321e+003;8.048504e-002
3.016249e+003;8.064511e-002
3.018177e+003;8.093268e-002
3.020106e+003;8.092447e-002
3.022035e+003;8.118746e-002
3.023963e+003;8.159745e-002
3.025892e+003;8.203620e-002
3.027820e+003;8.261408e-002
3.029749e+003;8.264718e-002
3.031677e+003;8.278395e-002
3.033606e+003;8.338471e-002
3.035534e+003;8.336479e-002
3.037463e+003;8.351336e-002
3.039392e+003;8.415972e-002
3.041320e+003;8.415148e-002
3.043249e+003;8.415888e-002
3.045177e+003;8.435713e-002
3.047106e+003;8.459516e-002
3.049034e+003;8.508467e-002
3.050963e+003;8.558457e-002
3.052891e+003;8.608494e-002
3.054820e+003;8.643197e-002
3.056749e+003;8.688223e-002
3.058677e+003;8.724526e-002
3.060606e+003;8.773302e-002
3.062534e+003;8.827075e-002
3.064463e+003;8.829921e-002
3.066391e+003;8.810521e-002
3.068320e+003;8.835777e-002
3.070248e+003;8.894107e-002
3.072177e+003;8.972066e-002
3.074105e+003;9.031893e-002
3.076034e+003;9.059548e-002
3.077963e+003;9.073878e-002
3.079891e+003;9.050516e-002
3.081820e+003;9.064418e-002
3.083748e+003;9.129198e-002
3.085677e+003;9.177662e-002
3.087605e+003;9.262356e-002
3.089534e+003;9.310784e-002
3.091462e+003;9.341756e-002
3.093391e+003;9.414958e-002
3.095320e+003;9.447813e-002
3.097248e+003;9.457880e-002
3.099177e+003;9.509780e-002
3.101105e+003;9.554423e-002
3.103034e+003;9.589358e-002
3.104962e+003;9.634317e-002
3.106891e+003;9.653895e-002
3.108819e+003;9.691246e-002
3.110748e+003;9.732550e-002
3.112677e+003;9.776683e-002
3.114605e+003;9.840519e-002
3.116533e+003;9.905955e-002
3.118462e+003;9.935696e-002
3.120391e+003;9.957932e-002
3.122319e+003;9.993714e-002
3.124248e+003;1.001876e-001
3.126176e+003;1.006648e-001
3.128105e+003;1.014998e-001
3.130033e+003;1.020158e-001
3.131962e+003;1.021799e-001
3.133890e+003;1.025344e-001
3.135819e+003;1.028118e-001
3.137748e+003;1.032101e-001
3.139676e+003;1.036715e-001
3.141605e+003;1.040724e-001
3.143533e+003;1.046063e-001
3.145462e+003;1.051689e-001
3.147390e+003;1.055473e-001
3.149319e+003;1.058793e-001
3.151247e+003;1.064879e-001
3.153176e+003;1.065259e-001
3.155104e+003;1.063798e-001
3.157033e+003;1.070068e-001
3.158962e+003;1.072736e-001
3.160890e+003;1.075203e-001
3.162819e+003;1.077859e-001
3.164747e+003;1.079198e-001
3.166676e+003;1.082974e-001
3.168604e+003;1.084901e-001
3.170533e+003;1.085506e-001
3.172461e+003;1.086393e-001
3.174390e+003;1.089902e-001
3.176319e+003;1.093767e-001
3.178247e+003;1.098277e-001
3.180176e+003;1.100074e-001
3.182104e+003;1.102664e-001
3.184033e+003;1.109350e-001
3.185961e+003;1.112095e-001
3.187890e+003;1.111617e-001
3.189818e+003;1.113642e-001
3.191747e+003;1.114161e-001
3.193676e+003;1.112881e-001
3.195604e+003;1.115285e-001
3.197532e+003;1.121161e-001
3.199461e+003;1.126580e-001
3.201390e+003;1.131499e-001
3.203318e+003;1.134876e-001
3.205247e+003;1.137057e-001
3.207175e+003;1.135060e-001
3.209104e+003;1.131406e-001
3.211032e+003;1.136579e-001
3.212961e+003;1.142247e-001
3.214889e+003;1.143592e-001
3.216818e+003;1.144562e-001
3.218747e+003;1.148813e-001
3.220675e+003;1.148798e-001
3.222604e+003;1.149787e-001
3.224532e+003;1.153425e-001
3.226461e+003;1.156850e-001
3.228389e+003;1.162680e-001
3.230318e+003;1.166418e-001
3.232246e+003;1.169726e-001
3.234175e+003;1.171296e-001
3.236104e+003;1.172137e-001
3.238032e+003;1.176858e-001
3.239961e+003;1.181590e-001
3.241889e+003;1.180974e-001
3.243818e+003;1.182806e-001
3.245746e+003;1.189597e-001
3.247675e+003;1.194328e-001
3.249603e+003;1.192582e-001
3.251532e+003;1.191245e-001
3.253460e+003;1.192752e-001
3.255389e+003;1.194742e-001
3.257318e+003;1.197513e-001
3.259246e+003;1.199159e-001
3.261175e+003;1.200667e-001
3.263103e+003;1.206264e-001
3.265032e+003;1.209454e-001
3.266960e+003;1.211436e-001
3.268889e+003;1.216091e-001
3.270817e+003;1.219059e-001
3.272746e+003;1.220033e-001
3.274675e+003;1.221460e-001
3.276603e+003;1.222965e-001
3.278531e+003;1.225394e-001
3.280460e+003;1.227388e-001
3.282389e+003;1.225169e-001
3.284317e+003;1.223441e-001
3.286246e+003;1.225373e-001
3.288174e+003;1.230279e-001
3.290103e+003;1.235638e-001
3.292031e+003;1.237005e-001
3.293960e+003;1.234909e-001
3.295888e+003;1.234494e-001
3.297817e+003;1.235337e-001
3.299746e+003;1.237604e-001
3.301674e+003;1.239469e-001
3.303603e+003;1.238583e-001
3.305531e+003;1.235707e-001
3.307460e+003;1.238898e-001
3.309388e+003;1.242452e-001
3.311317e+003;1.243037e-001
3.313245e+003;1.245944e-001
3.315174e+003;1.245499e-001
3.317103e+003;1.246342e-001
3.319031e+003;1.249475e-001
3.320960e+003;1.249554e-001
3.322888e+003;1.248430e-001
3.324817e+003;1.248152e-001
3.326745e+003;1.249206e-001
3.328674e+003;1.247991e-001
3.330602e+003;1.252139e-001
3.332531e+003;1.254705e-001
3.334459e+003;1.252727e-001
3.336388e+003;1.249328e-001
3.338317e+003;1.246464e-001
3.340245e+003;1.244543e-001
3.342174e+003;1.243468e-001
3.344102e+003;1.241371e-001
3.346031e+003;1.236261e-001
3.347959e+003;1.234165e-001
3.349888e+003;1.236885e-001
3.351816e+003;1.240515e-001
3.353745e+003;1.239426e-001
3.355674e+003;1.233632e-001
3.357602e+003;1.229831e-001
3.359531e+003;1.226113e-001
3.361459e+003;1.224598e-001
3.363388e+003;1.224656e-001
3.365316e+003;1.218379e-001
3.367245e+003;1.212577e-001
3.369173e+003;1.214248e-001
3.371102e+003;1.214191e-001
3.373031e+003;1.209683e-001
3.374959e+003;1.204905e-001
3.376887e+003;1.201377e-001
3.378816e+003;1.200944e-001
3.380745e+003;1.202072e-001
3.382673e+003;1.196546e-001
3.384602e+003;1.192420e-001
3.386530e+003;1.190841e-001
3.388459e+003;1.188526e-001
3.390387e+003;1.185592e-001
3.392316e+003;1.182501e-001
3.394244e+003;1.178104e-001
3.396173e+003;1.177643e-001
3.398102e+003;1.177458e-001
3.400030e+003;1.176578e-001
3.401959e+003;1.176377e-001
3.403887e+003;1.174023e-001
3.405816e+003;1.168094e-001
3.407744e+003;1.157193e-001
3.409673e+003;1.151899e-001
3.411601e+003;1.148001e-001
3.413530e+003;1.146219e-001
3.415458e+003;1.144122e-001
3.417387e+003;1.140391e-001
3.419316e+003;1.139420e-001
3.421244e+003;1.139112e-001
3.423173e+003;1.137583e-001
3.425101e+003;1.133677e-001
3.427030e+003;1.130700e-001
3.428958e+003;1.131997e-001
3.430887e+003;1.135173e-001
3.432815e+003;1.137135e-001
3.434744e+003;1.137414e-001
3.436673e+003;1.133641e-001
3.438601e+003;1.125312e-001
3.440530e+003;1.120105e-001
3.442458e+003;1.117048e-001
3.444387e+003;1.112193e-001
3.446315e+003;1.108061e-001
3.448244e+003;1.099808e-001
3.450172e+003;1.085939e-001
3.452101e+003;1.073687e-001
3.454030e+003;1.065299e-001
3.455958e+003;1.057503e-001
3.457886e+003;1.046424e-001
3.459815e+003;1.038534e-001
3.461744e+003;1.032486e-001
3.463672e+003;1.022666e-001
3.465601e+003;1.017583e-001
3.467529e+003;1.017459e-001
3.469458e+003;1.009224e-001
3.471386e+003;1.000369e-001
3.473315e+003;9.976914e-002
3.475243e+003;9.929441e-002
3.477172e+003;9.891406e-002
3.479101e+003;9.853546e-002
3.481029e+003;9.777658e-002
3.482958e+003;9.713849e-002
3.484886e+003;9.666841e-002
3.486815e+003;9.596424e-002
3.488743e+003;9.516083e-002
3.490672e+003;9.430238e-002
3.492600e+003;9.327924e-002
3.494529e+003;9.232228e-002
3.496458e+003;9.112385e-002
3.498386e+003;8.979803e-002
3.500315e+003;8.877430e-002
3.502243e+003;8.797202e-002
3.504172e+003;8.691546e-002
3.506100e+003;8.555056e-002
3.508029e+003;8.447266e-002
3.509957e+003;8.362683e-002
3.511886e+003;8.248132e-002
3.513814e+003;8.176749e-002
3.515743e+003;8.109803e-002
3.517672e+003;8.018648e-002
3.519600e+003;7.986841e-002
3.521529e+003;7.916763e-002
3.523457e+003;7.827575e-002
3.525386e+003;7.748181e-002
3.527314e+003;7.672074e-002
3.529243e+003;7.616087e-002
3.531171e+003;7.535612e-002
3.533100e+003;7.454420e-002
3.535029e+003;7.420106e-002
3.536957e+003;7.381237e-002
3.538885e+003;7.305206e-002
3.540814e+003;7.239147e-002
3.542743e+003;7.208242e-002
3.544671e+003;7.176691e-002
3.546600e+003;7.111783e-002
3.548528e+003;7.072627e-002
3.550457e+003;7.014638e-002
3.552385e+003;6.942639e-002
3.554314e+003;6.919555e-002
3.556242e+003;6.871501e-002
3.558171e+003;6.825914e-002
3.560100e+003;6.770987e-002
3.562028e+003;6.712622e-002
3.563957e+003;6.674389e-002
3.565885e+003;6.643431e-002
3.567814e+003;6.570483e-002
3.569742e+003;6.533198e-002
3.571671e+003;6.518770e-002
3.573599e+003;6.440850e-002
3.575528e+003;6.372792e-002
3.577457e+003;6.314473e-002
3.579385e+003;6.265497e-002
3.581314e+003;6.256346e-002
3.583242e+003;6.252658e-002
3.585171e+003;6.209218e-002
3.587099e+003;6.135709e-002
3.589028e+003;6.089127e-002
3.590956e+003;6.093389e-002
3.592885e+003;6.057288e-002
3.594813e+003;5.987927e-002
3.596742e+003;5.946533e-002
3.598671e+003;5.902419e-002
3.600599e+003;5.882943e-002
3.602528e+003;5.869132e-002
3.604456e+003;5.840149e-002
3.606385e+003;5.814541e-002
3.608313e+003;5.761325e-002
3.610242e+003;5.689536e-002
3.612170e+003;5.689714e-002
3.614099e+003;5.697568e-002
3.616028e+003;5.687372e-002
3.617956e+003;5.670673e-002
3.619885e+003;5.623543e-002
3.621813e+003;5.554395e-002
3.623742e+003;5.536640e-002
3.625670e+003;5.563075e-002
3.627599e+003;5.546481e-002
3.629527e+003;5.506645e-002
3.631456e+003;5.473708e-002
3.633385e+003;5.412837e-002
3.635313e+003;5.389255e-002
3.637241e+003;5.421861e-002
3.639170e+003;5.417690e-002
3.641099e+003;5.352190e-002
3.643027e+003;5.323176e-002
3.644956e+003;5.299451e-002
3.646884e+003;5.247344e-002
3.648813e+003;5.238798e-002
3.650741e+003;5.280457e-002
3.652670e+003;5.291486e-002
3.654598e+003;5.213957e-002
3.656527e+003;5.160284e-002
3.658456e+003;5.157086e-002
3.660384e+003;5.124294e-002
3.662313e+003;5.084445e-002
3.664241e+003;5.100000e-002
3.666170e+003;5.123317e-002
3.668098e+003;5.059827e-002
3.670027e+003;4.968241e-002
3.671955e+003;4.981532e-002
3.673884e+003;5.008411e-002
3.675813e+003;4.939371e-002
3.677741e+003;4.938988e-002
3.679669e+003;4.986389e-002
3.681598e+003;4.949540e-002
3.683527e+003;4.919996e-002
3.685455e+003;4.929392e-002
3.687384e+003;4.892978e-002
3.689312e+003;4.885098e-002
3.691241e+003;4.874343e-002
3.693169e+003;4.857679e-002
3.695098e+003;4.880015e-002
3.697026e+003;4.847446e-002
3.698955e+003;4.795582e-002
3.700884e+003;4.805044e-002
3.702812e+003;4.822339e-002
3.704741e+003;4.796921e-002
3.706669e+003;4.762555e-002
3.708598e+003;4.726601e-002
3.710526e+003;4.672431e-002
3.712455e+003;4.620765e-002
3.714383e+003;4.630204e-002
3.716312e+003;4.680575e-002
3.718240e+003;4.712801e-002
3.720169e+003;4.691327e-002
3.722098e+003;4.684259e-002
3.724026e+003;4.673966e-002
3.725955e+003;4.649797e-002
3.727883e+003;4.645807e-002
3.729812e+003;4.620216e-002
3.731740e+003;4.624609e-002
3.733669e+003;4.663846e-002
3.735597e+003;4.641917e-002
3.737526e+003;4.627945e-002
3.739455e+003;4.643395e-002
3.741383e+003;4.642215e-002
3.743312e+003;4.628663e-002
3.745240e+003;4.657332e-002
3.747169e+003;4.664337e-002
3.749097e+003;4.641419e-002
3.751026e+003;4.631468e-002
3.752954e+003;4.635675e-002
3.754883e+003;4.647484e-002
3.756812e+003;4.644280e-002
3.758740e+003;4.632589e-002
3.760668e+003;4.615480e-002
3.762597e+003;4.644560e-002
3.764526e+003;4.686879e-002
3.766454e+003;4.683893e-002
3.768383e+003;4.637669e-002
3.770311e+003;4.633757e-002
3.772240e+003;4.650457e-002
3.774168e+003;4.650984e-002
3.776097e+003;4.676343e-002
3.778025e+003;4.679284e-002
3.779954e+003;4.641467e-002
3.781883e+003;4.620463e-002
3.783811e+003;4.645987e-002
3.785740e+003;4.670306e-002
3.787668e+003;4.673365e-002
3.789597e+003;4.662348e-002
3.791525e+003;4.633507e-002
3.793454e+003;4.622279e-002
3.795382e+003;4.619316e-002
3.797311e+003;4.636799e-002
3.799240e+003;4.680203e-002
3.801168e+003;4.649155e-002
3.803097e+003;4.630772e-002
3.805025e+003;4.636154e-002
3.806954e+003;4.625865e-002
3.808882e+003;4.636895e-002
3.810811e+003;4.647462e-002
3.812739e+003;4.655004e-002
3.814668e+003;4.667609e-002
3.816596e+003;4.648123e-002
3.818525e+003;4.625398e-002
3.820454e+003;4.612230e-002
3.822382e+003;4.616317e-002
3.824311e+003;4.656436e-002
3.826239e+003;4.706353e-002
3.828168e+003;4.721980e-002
3.830096e+003;4.684724e-002
3.832025e+003;4.629386e-002
3.833953e+003;4.604530e-002
3.835882e+003;4.636427e-002
3.837811e+003;4.637234e-002
3.839739e+003;4.603830e-002
3.841667e+003;4.597645e-002
3.843596e+003;4.573235e-002
3.845525e+003;4.603498e-002
3.847453e+003;4.676693e-002
3.849382e+003;4.697880e-002
3.851310e+003;4.652755e-002
3.853239e+003;4.597925e-002
3.855167e+003;4.607776e-002
3.857096e+003;4.660526e-002
3.859024e+003;4.706243e-002
3.860953e+003;4.719313e-002
3.862882e+003;4.700435e-002
3.864810e+003;4.627432e-002
3.866739e+003;4.634126e-002
3.868667e+003;4.686178e-002
3.870596e+003;4.739061e-002
3.872524e+003;4.733418e-002
3.874453e+003;4.672243e-002
3.876381e+003;4.704795e-002
3.878310e+003;4.777754e-002
3.880239e+003;4.763306e-002
3.882167e+003;4.713824e-002
3.884096e+003;4.690341e-002
3.886024e+003;4.715442e-002
3.887953e+003;4.718208e-002
3.889881e+003;4.740099e-002
3.891810e+003;4.777029e-002
3.893738e+003;4.764877e-002
3.895667e+003;4.752569e-002
3.897595e+003;4.764707e-002
3.899524e+003;4.756152e-002
3.901453e+003;4.751446e-002
3.903381e+003;4.772783e-002
3.905310e+003;4.769595e-002
3.907238e+003;4.748707e-002
3.909167e+003;4.796451e-002
3.911095e+003;4.829137e-002
3.913024e+003;4.841296e-002
3.914952e+003;4.857416e-002
3.916881e+003;4.814002e-002
3.918810e+003;4.798627e-002
3.920738e+003;4.828553e-002
3.922667e+003;4.862060e-002
3.924595e+003;4.839637e-002
3.926524e+003;4.829649e-002
3.928452e+003;4.836578e-002
3.930381e+003;4.805241e-002
3.932309e+003;4.839626e-002
3.934238e+003;4.894992e-002
3.936167e+003;4.913443e-002
3.938095e+003;4.920626e-002
3.940023e+003;4.864798e-002
3.941952e+003;4.834096e-002
3.943881e+003;4.844634e-002
3.945809e+003;4.842386e-002
3.947738e+003;4.852018e-002
3.949666e+003;4.845168e-002
3.951595e+003;4.837744e-002
3.953523e+003;4.859165e-002
3.955452e+003;4.873738e-002
3.957380e+003;4.839582e-002
3.959309e+003;4.825783e-002
3.961238e+003;4.858235e-002
3.963166e+003;4.861141e-002
3.965095e+003;4.861426e-002
3.967023e+003;4.845894e-002
3.968952e+003;4.843486e-002
3.970880e+003;4.859532e-002
3.972809e+003;4.856842e-002
3.974737e+003;4.845197e-002
3.976666e+003;4.886585e-002
3.978594e+003;4.910411e-002
3.980523e+003;4.858302e-002
3.982452e+003;4.808835e-002
3.984380e+003;4.805196e-002
3.986309e+003;4.801277e-002
3.988237e+003;4.804685e-002
3.990166e+003;4.778742e-002
3.992094e+003;4.799397e-002
3.994023e+003;4.823842e-002
3.995951e+003;4.834926e-002
3.997880e+003;4.816112e-002
3.999809e+003;4.839570e-002
4.001737e+003;0.000000e+000
