3.992094e+002;0.000000e+000
4.011380e+002;0.000000e+000
4.030665e+002;0.000000e+000
4.049951e+002;0.000000e+000
4.069236e+002;0.000000e+000
4.088522e+002;0.000000e+000
4.107807e+002;0.000000e+000
4.127093e+002;0.000000e+000
4.146378e+002;0.000000e+000
4.165664e+002;0.000000e+000
4.184949e+002;0.000000e+000
4.204235e+002;0.000000e+000
4.223520e+002;0.000000e+000
4.242806e+002;0.000000e+000
4.262091e+002;0.000000e+000
4.281377e+002;0.000000e+000
4.300662e+002;0.000000e+000
4.319948e+002;0.000000e+000
4.339233e+002;0.000000e+000
4.358519e+002;0.000000e+000
4.377804e+002;0.000000e+000
4.397090e+002;0.000000e+000
4.416375e+002;0.000000e+000
4.435660e+002;0.000000e+000
4.454946e+002;0.000000e+000
4.474232e+002;0.000000e+000
4.493517e+002;0.000000e+000
4.512802e+002;0.000000e+000
4.532088e+002;0.000000e+000
4.551373e+002;0.000000e+000
4.570659e+002;0.000000e+000
4.589944e+002;0.000000e+000
4.609230e+002;0.000000e+000
4.628515e+002;0.000000e+000
4.647801e+002;0.000000e+000
4.667086e+002;0.000000e+000
4.686372e+002;0.000000e+000
4.705657e+002;0.000000e+000
4.724943e+002;0.000000e+000
4.744228e+002;0.000000e+000
4.763513e+002;0.000000e+000
4.782799e+002;0.000000e+000
4.802085e+002;0.000000e+000
4.821370e+002;0.000000e+000
4.840656e+002;0.000000e+000
4.859941e+002;0.000000e+000
4.879226e+002;0.000000e+000
4.898512e+002;0.000000e+000
4.917798e+002;0.000000e+000
4.937083e+002;0.000000e+000
4.956368e+002;0.000000e+000
4.975654e+002;0.000000e+000
4.994939e+002;0.000000e+000
5.014225e+002;0.000000e+000
5.033510e+002;0.000000e+000
5.052796e+002;0.000000e+000
5.072081e+002;0.000000e+000
5.091367e+002;0.000000e+000
5.110652e+002;0.000000e+000
5.129938e+002;0.000000e+000
5.149223e+002;0.000000e+000
5.168509e+002;0.000000e+000
5.187794e+002;0.000000e+000
5.207079e+002;0.000000e+000
5.226365e+002;0.000000e+000
5.245651e+002;0.000000e+000
5.264936e+002;0.000000e+000
5.284222e+002;0.000000e+000
5.303507e+002;0.000000e+000
5.322792e+002;0.000000e+000
5.342078e+002;0.000000e+000
5.361364e+002;0.000000e+000
5.380649e+002;0.000000e+000
5.399935e+002;0.000000e+000
5.419220e+002;0.000000e+000
5.438505e+002;0.000000e+000
5.457791e+002;0.000000e+000
5.477076e+002;0.000000e+000
5.496362e+002;0.000000e+000
5.515648e+002;0.000000e+000
5.534933e+002;0.000000e+000
5.554218e+002;0.000000e+000
5.573504e+002;0.000000e+000
5.592789e+002;0.000000e+000
5.612075e+002;0.000000e+000
5.631360e+002;0.000000e+000
5.650646e+002;0.000000e+000
5.669931e+002;0.000000e+000
5.689217e+002;0.000000e+000
5.708502e+002;0.000000e+000
5.727787e+002;0.000000e+000
5.747073e+002;0.000000e+000
5.766359e+002;0.000000e+000
5.785644e+002;0.000000e+000
5.804930e+002;0.000000e+000
5.824215e+002;0.000000e+000
5.843500e+002;0.000000e+000
5.862786e+002;0.000000e+000
5.882072e+002;0.000000e+000
5.901357e+002;0.000000e+000
5.920643e+002;0.000000e+000
5.939928e+002;0.000000e+000
5.959213e+002;0.000000e+000
5.978499e+002;0.000000e+000
5.997784e+002;2.657605e-001
6.017070e+002;2.742769e-001
6.036355e+002;2.886937e-001
6.055641e+002;2.913699e-001
6.074926e+002;2.922472e-001
6.094211e+002;2.964911e-001
6.113497e+002;2.918987e-001
6.132783e+002;2.827624e-001
6.152068e+002;2.762975e-001
6.171354e+002;2.759998e-001
6.190639e+002;2.753367e-001
6.209924e+002;2.697550e-001
6.229210e+002;2.634810e-001
6.248495e+002;2.578118e-001
6.267781e+002;2.550600e-001
6.287067e+002;2.541766e-001
6.306352e+002;2.531945e-001
6.325637e+002;2.544813e-001
6.344923e+002;2.571871e-001
6.364208e+002;2.555415e-001
6.383494e+002;2.526252e-001
6.402780e+002;2.524091e-001
6.422065e+002;2.491218e-001
6.441350e+002;2.493975e-001
6.460636e+002;2.528713e-001
6.479921e+002;2.529426e-001
6.499207e+002;2.529642e-001
6.518492e+002;2.518266e-001
6.537778e+002;2.502443e-001
6.557063e+002;2.522844e-001
6.576349e+002;2.585394e-001
6.595634e+002;2.642381e-001
6.614919e+002;2.688337e-001
6.634205e+002;2.733148e-001
6.653491e+002;2.733850e-001
6.672776e+002;2.702842e-001
6.692062e+002;2.700215e-001
6.711347e+002;2.673988e-001
6.730632e+002;2.578958e-001
6.749918e+002;2.447265e-001
6.769203e+002;2.304525e-001
6.788489e+002;2.199096e-001
6.807775e+002;2.116859e-001
6.827060e+002;2.050833e-001
6.846345e+002;2.009496e-001
6.865631e+002;1.985622e-001
6.884916e+002;1.955055e-001
6.904202e+002;1.938514e-001
6.923488e+002;1.944927e-001
6.942773e+002;1.954585e-001
6.962058e+002;1.954382e-001
6.981344e+002;1.943009e-001
7.000629e+002;1.929139e-001
7.019915e+002;1.914450e-001
7.039200e+002;1.904331e-001
7.058486e+002;1.908696e-001
7.077771e+002;1.905781e-001
7.097057e+002;1.885233e-001
7.116342e+002;1.877333e-001
7.135627e+002;1.876435e-001
7.154913e+002;1.875601e-001
7.174199e+002;1.864377e-001
7.193484e+002;1.845213e-001
7.212770e+002;1.828914e-001
7.232055e+002;1.812762e-001
7.251340e+002;1.807386e-001
7.270626e+002;1.808859e-001
7.289911e+002;1.795411e-001
7.309197e+002;1.775610e-001
7.328483e+002;1.763674e-001
7.347768e+002;1.743422e-001
7.367053e+002;1.723890e-001
7.386339e+002;1.711818e-001
7.405624e+002;1.699522e-001
7.424910e+002;1.689323e-001
7.444196e+002;1.676128e-001
7.463481e+002;1.671536e-001
7.482766e+002;1.670941e-001
7.502052e+002;1.663481e-001
7.521337e+002;1.652887e-001
7.540623e+002;1.644407e-001
7.559908e+002;1.624393e-001
7.579194e+002;1.609054e-001
7.598479e+002;1.598830e-001
7.617765e+002;1.581791e-001
7.637050e+002;1.563264e-001
7.656335e+002;1.556921e-001
7.675621e+002;1.554258e-001
7.694907e+002;1.541019e-001
7.714192e+002;1.531218e-001
7.733478e+002;1.533417e-001
7.752763e+002;1.529536e-001
7.772048e+002;1.518384e-001
7.791334e+002;1.507500e-001
7.810620e+002;1.496895e-001
7.829905e+002;1.484246e-001
7.849191e+002;1.476466e-001
7.868476e+002;1.475045e-001
7.887761e+002;1.467990e-001
7.907047e+002;1.467681e-001
7.926332e+002;1.463366e-001
7.945618e+002;1.452025e-001
7.964903e+002;1.446761e-001
7.984189e+002;1.441592e-001
8.003474e+002;1.440111e-001
8.022759e+002;1.435910e-001
8.042045e+002;1.434102e-001
8.061331e+002;1.437290e-001
8.080616e+002;1.434476e-001
8.099902e+002;1.428527e-001
8.119187e+002;1.422442e-001
8.138472e+002;1.419929e-001
8.157758e+002;1.420518e-001
8.177043e+002;1.427006e-001
8.196329e+002;1.433562e-001
8.215615e+002;1.430942e-001
8.234900e+002;1.423859e-001
8.254185e+002;1.418154e-001
8.273471e+002;1.415616e-001
8.292756e+002;1.420209e-001
8.312042e+002;1.417644e-001
8.331328e+002;1.410884e-001
8.350613e+002;1.405525e-001
8.369898e+002;1.396943e-001
8.389184e+002;1.389426e-001
8.408469e+002;1.385853e-001
8.427755e+002;1.384845e-001
8.447040e+002;1.387440e-001
8.466326e+002;1.391839e-001
8.485611e+002;1.394316e-001
8.504897e+002;1.398798e-001
8.524182e+002;1.404924e-001
8.543467e+002;1.407436e-001
8.562753e+002;1.409807e-001
8.582039e+002;1.413209e-001
8.601324e+002;1.419616e-001
8.620610e+002;1.427177e-001
8.639895e+002;1.436639e-001
8.659180e+002;1.452517e-001
8.678466e+002;1.472505e-001
8.697751e+002;1.494124e-001
8.717037e+002;1.519049e-001
8.736323e+002;1.550564e-001
8.755608e+002;1.587798e-001
8.774893e+002;1.630077e-001
8.794179e+002;1.677493e-001
8.813464e+002;1.729232e-001
8.832750e+002;1.788747e-001
8.852036e+002;1.855465e-001
8.871321e+002;1.929190e-001
8.890606e+002;2.003380e-001
8.909892e+002;2.065734e-001
8.929177e+002;2.104153e-001
8.948463e+002;2.109249e-001
8.967748e+002;2.086567e-001
8.987034e+002;2.043946e-001
9.006319e+002;1.990018e-001
9.025605e+002;1.938201e-001
9.044890e+002;1.887757e-001
9.064175e+002;1.844471e-001
9.083461e+002;1.807787e-001
9.102747e+002;1.773099e-001
9.122032e+002;1.745761e-001
9.141318e+002;1.732110e-001
9.160603e+002;1.724411e-001
9.179888e+002;1.722364e-001
9.199174e+002;1.727380e-001
9.218459e+002;1.740873e-001
9.237745e+002;1.757050e-001
9.257031e+002;1.771901e-001
9.276316e+002;1.785761e-001
9.295601e+002;1.806464e-001
9.314887e+002;1.831481e-001
9.334172e+002;1.851213e-001
9.353458e+002;1.868644e-001
9.372744e+002;1.887570e-001
9.392029e+002;1.911933e-001
9.411314e+002;1.943539e-001
9.430600e+002;1.975081e-001
9.449885e+002;2.006310e-001
9.469171e+002;2.045283e-001
9.488456e+002;2.089314e-001
9.507742e+002;2.139859e-001
9.527027e+002;2.197210e-001
9.546313e+002;2.254306e-001
9.565598e+002;2.312530e-001
9.584883e+002;2.372802e-001
9.604169e+002;2.431791e-001
9.623455e+002;2.494583e-001
9.642740e+002;2.557678e-001
9.662026e+002;2.615600e-001
9.681311e+002;2.675970e-001
9.700596e+002;2.741789e-001
9.719882e+002;2.821474e-001
9.739167e+002;2.910462e-001
9.758453e+002;3.011175e-001
9.777739e+002;3.130912e-001
9.797024e+002;3.268191e-001
9.816309e+002;3.427878e-001
9.835595e+002;3.596418e-001
9.854880e+002;3.765632e-001
9.874166e+002;3.937073e-001
9.893452e+002;4.104130e-001
9.912737e+002;4.252775e-001
9.932022e+002;4.368404e-001
9.951307e+002;4.451021e-001
9.970593e+002;4.512029e-001
9.989879e+002;4.553562e-001
1.000916e+003;4.579220e-001
1.002845e+003;4.607744e-001
1.004773e+003;4.650032e-001
1.006702e+003;4.704450e-001
1.008631e+003;4.773037e-001
1.010559e+003;4.858173e-001
1.012488e+003;4.955316e-001
1.014416e+003;5.056484e-001
1.016345e+003;5.149366e-001
1.018273e+003;5.216849e-001
1.020202e+003;5.260425e-001
1.022130e+003;5.278335e-001
1.024059e+003;5.278775e-001
1.025988e+003;5.260968e-001
1.027916e+003;5.212325e-001
1.029845e+003;5.143428e-001
1.031773e+003;5.070184e-001
1.033702e+003;4.992871e-001
1.035630e+003;4.916511e-001
1.037559e+003;4.850171e-001
1.039487e+003;4.807188e-001
1.041416e+003;4.776331e-001
1.043344e+003;4.746244e-001
1.045273e+003;4.710912e-001
1.047202e+003;4.669840e-001
1.049130e+003;4.632673e-001
1.051059e+003;4.600025e-001
1.052987e+003;4.561881e-001
1.054916e+003;4.511921e-001
1.056844e+003;4.451301e-001
1.058773e+003;4.380451e-001
1.060701e+003;4.299037e-001
1.062630e+003;4.197900e-001
1.064558e+003;4.085596e-001
1.066487e+003;3.986859e-001
1.068416e+003;3.910753e-001
1.070344e+003;3.851120e-001
1.072273e+003;3.799999e-001
1.074201e+003;3.745670e-001
1.076130e+003;3.688212e-001
1.078058e+003;3.634592e-001
1.079987e+003;3.586331e-001
1.081915e+003;3.537947e-001
1.083844e+003;3.488543e-001
1.085773e+003;3.427605e-001
1.087701e+003;3.352624e-001
1.089630e+003;3.275129e-001
1.091558e+003;3.206536e-001
1.093487e+003;3.139814e-001
1.095415e+003;3.069270e-001
1.097344e+003;2.993211e-001
1.099272e+003;2.907120e-001
1.101201e+003;2.818145e-001
1.103129e+003;2.737953e-001
1.105058e+003;2.673743e-001
1.106987e+003;2.626786e-001
1.108915e+003;2.592289e-001
1.110844e+003;2.560650e-001
1.112772e+003;2.520232e-001
1.114701e+003;2.469734e-001
1.116629e+003;2.413713e-001
1.118558e+003;2.360874e-001
1.120486e+003;2.305395e-001
1.122415e+003;2.241893e-001
1.124344e+003;2.175561e-001
1.126272e+003;2.108168e-001
1.128201e+003;2.043536e-001
1.130129e+003;1.985443e-001
1.132058e+003;1.931285e-001
1.133986e+003;1.879679e-001
1.135915e+003;1.833188e-001
1.137843e+003;1.795370e-001
1.139772e+003;1.770879e-001
1.141700e+003;1.758203e-001
1.143629e+003;1.755314e-001
1.145557e+003;1.758334e-001
1.147486e+003;1.768939e-001
1.149415e+003;1.786960e-001
1.151343e+003;1.807572e-001
1.153272e+003;1.823590e-001
1.155200e+003;1.828668e-001
1.157129e+003;1.824193e-001
1.159057e+003;1.799988e-001
1.160986e+003;1.755166e-001
1.162914e+003;1.692447e-001
1.164843e+003;1.620953e-001
1.166771e+003;1.544704e-001
1.168700e+003;1.472721e-001
1.170629e+003;1.407951e-001
1.172557e+003;1.351196e-001
1.174486e+003;1.302962e-001
1.176414e+003;1.264095e-001
1.178343e+003;1.231644e-001
1.180271e+003;1.205865e-001
1.182200e+003;1.189784e-001
1.184128e+003;1.181725e-001
1.186057e+003;1.185793e-001
1.187986e+003;1.207172e-001
1.189914e+003;1.238332e-001
1.191843e+003;1.273825e-001
1.193771e+003;1.311640e-001
1.195700e+003;1.341661e-001
1.197628e+003;1.355549e-001
1.199557e+003;1.354128e-001
1.201485e+003;1.341790e-001
1.203414e+003;1.316816e-001
1.205343e+003;1.285484e-001
1.207271e+003;1.258415e-001
1.209200e+003;1.238525e-001
1.211128e+003;1.227330e-001
1.213057e+003;1.227085e-001
1.214985e+003;1.236847e-001
1.216914e+003;1.256021e-001
1.218842e+003;1.283382e-001
1.220771e+003;1.315168e-001
1.222699e+003;1.345688e-001
1.224628e+003;1.369843e-001
1.226557e+003;1.386132e-001
1.228485e+003;1.391208e-001
1.230414e+003;1.391880e-001
1.232342e+003;1.392091e-001
1.234271e+003;1.390259e-001
1.236199e+003;1.388887e-001
1.238128e+003;1.386953e-001
1.240056e+003;1.381836e-001
1.241985e+003;1.377329e-001
1.243913e+003;1.374130e-001
1.245842e+003;1.375533e-001
1.247771e+003;1.379571e-001
1.249699e+003;1.385770e-001
1.251628e+003;1.398013e-001
1.253556e+003;1.413041e-001
1.255485e+003;1.427356e-001
1.257413e+003;1.442427e-001
1.259342e+003;1.453508e-001
1.261270e+003;1.454747e-001
1.263199e+003;1.448546e-001
1.265127e+003;1.438145e-001
1.267056e+003;1.424046e-001
1.268985e+003;1.412026e-001
1.270913e+003;1.401762e-001
1.272842e+003;1.392634e-001
1.274770e+003;1.387879e-001
1.276699e+003;1.384866e-001
1.278627e+003;1.378342e-001
1.280556e+003;1.367580e-001
1.282484e+003;1.359135e-001
1.284413e+003;1.356846e-001
1.286342e+003;1.360422e-001
1.288270e+003;1.370946e-001
1.290199e+003;1.390518e-001
1.292127e+003;1.416331e-001
1.294056e+003;1.438397e-001
1.295984e+003;1.454618e-001
1.297913e+003;1.472733e-001
1.299841e+003;1.495060e-001
1.301770e+003;1.518894e-001
1.303698e+003;1.545804e-001
1.305627e+003;1.575276e-001
1.307556e+003;1.608634e-001
1.309484e+003;1.639716e-001
1.311413e+003;1.660060e-001
1.313341e+003;1.670230e-001
1.315270e+003;1.670715e-001
1.317198e+003;1.659409e-001
1.319127e+003;1.636318e-001
1.321055e+003;1.609274e-001
1.322984e+003;1.588149e-001
1.324912e+003;1.576512e-001
1.326841e+003;1.571168e-001
1.328770e+003;1.570976e-001
1.330698e+003;1.573427e-001
1.332627e+003;1.576024e-001
1.334555e+003;1.580789e-001
1.336484e+003;1.581842e-001
1.338412e+003;1.575028e-001
1.340341e+003;1.565164e-001
1.342269e+003;1.556434e-001
1.344198e+003;1.552390e-001
1.346126e+003;1.550249e-001
1.348055e+003;1.545919e-001
1.349984e+003;1.544021e-001
1.351912e+003;1.551591e-001
1.353841e+003;1.563682e-001
1.355769e+003;1.577824e-001
1.357698e+003;1.594542e-001
1.359626e+003;1.612628e-001
1.361555e+003;1.627889e-001
1.363483e+003;1.637500e-001
1.365412e+003;1.640560e-001
1.367341e+003;1.635835e-001
1.369269e+003;1.623455e-001
1.371198e+003;1.606961e-001
1.373126e+003;1.590502e-001
1.375055e+003;1.572327e-001
1.376983e+003;1.548131e-001
1.378912e+003;1.519248e-001
1.380840e+003;1.486612e-001
1.382769e+003;1.449834e-001
1.384698e+003;1.415423e-001
1.386626e+003;1.390547e-001
1.388555e+003;1.376203e-001
1.390483e+003;1.365284e-001
1.392412e+003;1.356222e-001
1.394340e+003;1.352319e-001
1.396269e+003;1.351022e-001
1.398197e+003;1.348523e-001
1.400126e+003;1.343289e-001
1.402054e+003;1.338270e-001
1.403983e+003;1.333973e-001
1.405911e+003;1.332392e-001
1.407840e+003;1.333393e-001
1.409769e+003;1.335316e-001
1.411697e+003;1.340480e-001
1.413626e+003;1.343671e-001
1.415554e+003;1.344517e-001
1.417483e+003;1.344850e-001
1.419411e+003;1.344032e-001
1.421340e+003;1.345458e-001
1.423268e+003;1.343525e-001
1.425197e+003;1.340302e-001
1.427125e+003;1.335576e-001
1.429054e+003;1.328185e-001
1.430983e+003;1.324595e-001
1.432911e+003;1.322512e-001
1.434840e+003;1.315574e-001
1.436768e+003;1.306617e-001
1.438697e+003;1.302191e-001
1.440625e+003;1.298878e-001
1.442554e+003;1.291553e-001
1.444482e+003;1.282611e-001
1.446411e+003;1.272697e-001
1.448340e+003;1.259399e-001
1.450268e+003;1.245781e-001
1.452197e+003;1.234175e-001
1.454125e+003;1.222141e-001
1.456054e+003;1.208588e-001
1.457982e+003;1.199748e-001
1.459911e+003;1.195177e-001
1.461839e+003;1.186175e-001
1.463768e+003;1.174337e-001
1.465697e+003;1.163017e-001
1.467625e+003;1.151568e-001
1.469554e+003;1.136685e-001
1.471482e+003;1.118179e-001
1.473411e+003;1.100058e-001
1.475339e+003;1.081039e-001
1.477268e+003;1.058504e-001
1.479196e+003;1.036257e-001
1.481125e+003;1.015994e-001
1.483053e+003;9.968635e-002
1.484982e+003;9.787993e-002
1.486911e+003;9.625635e-002
1.488839e+003;9.472544e-002
1.490768e+003;9.314890e-002
1.492696e+003;9.180723e-002
1.494625e+003;9.045693e-002
1.496553e+003;8.927005e-002
1.498482e+003;8.877015e-002
1.500410e+003;8.816101e-002
1.502339e+003;8.743653e-002
1.504267e+003;8.645348e-002
1.506196e+003;8.540493e-002
1.508125e+003;8.501878e-002
1.510053e+003;8.498190e-002
1.511982e+003;8.466698e-002
1.513910e+003;8.435286e-002
1.515839e+003;8.384890e-002
1.517767e+003;8.356790e-002
1.519696e+003;8.311231e-002
1.521624e+003;8.250649e-002
1.523553e+003;8.263303e-002
1.525481e+003;8.270258e-002
1.527410e+003;8.275653e-002
1.529339e+003;8.293930e-002
1.531267e+003;8.284153e-002
1.533196e+003;8.250304e-002
1.535124e+003;8.263031e-002
1.537053e+003;8.280308e-002
1.538981e+003;8.229635e-002
1.540910e+003;8.210144e-002
1.542838e+003;8.214191e-002
1.544767e+003;8.232078e-002
1.546695e+003;8.259925e-002
1.548624e+003;8.261167e-002
1.550553e+003;8.269484e-002
1.552481e+003;8.271388e-002
1.554410e+003;8.273192e-002
1.556338e+003;8.251578e-002
1.558267e+003;8.179761e-002
1.560195e+003;8.197625e-002
1.562124e+003;8.295229e-002
1.564052e+003;8.333907e-002
1.565981e+003;8.341221e-002
1.567910e+003;8.341526e-002
1.569838e+003;8.344469e-002
1.571767e+003;8.378219e-002
1.573695e+003;8.389633e-002
1.575624e+003;8.381647e-002
1.577552e+003;8.422058e-002
1.579481e+003;8.462109e-002
1.581409e+003;8.494797e-002
1.583338e+003;8.532286e-002
1.585266e+003;8.560209e-002
1.587195e+003;8.580297e-002
1.589124e+003;8.595750e-002
1.591052e+003;8.630848e-002
1.592981e+003;8.684970e-002
1.594909e+003;8.698634e-002
1.596838e+003;8.698509e-002
1.598766e+003;8.724676e-002
1.600695e+003;8.770456e-002
1.602623e+003;8.824655e-002
1.604552e+003;8.869228e-002
1.606480e+003;8.903644e-002
1.608409e+003;8.937188e-002
1.610338e+003;9.011779e-002
1.612266e+003;9.084868e-002
1.614195e+003;9.110084e-002
1.616123e+003;9.121079e-002
1.618052e+003;9.184489e-002
1.619980e+003;9.262963e-002
1.621909e+003;9.314196e-002
1.623837e+003;9.369025e-002
1.625766e+003;9.421754e-002
1.627694e+003;9.474069e-002
1.629623e+003;9.540816e-002
1.631552e+003;9.582226e-002
1.633480e+003;9.562082e-002
1.635409e+003;9.549827e-002
1.637337e+003;9.597912e-002
1.639266e+003;9.628287e-002
1.641194e+003;9.614690e-002
1.643123e+003;9.593233e-002
1.645051e+003;9.556421e-002
1.646980e+003;9.523901e-002
1.648909e+003;9.505071e-002
1.650837e+003;9.415860e-002
1.652766e+003;9.312709e-002
1.654694e+003;9.307212e-002
1.656623e+003;9.300357e-002
1.658551e+003;9.250313e-002
1.660480e+003;9.196448e-002
1.662408e+003;9.101348e-002
1.664337e+003;9.025799e-002
1.666266e+003;8.980043e-002
1.668194e+003;8.891631e-002
1.670123e+003;8.830100e-002
1.672051e+003;8.786610e-002
1.673980e+003;8.702533e-002
1.675908e+003;8.620384e-002
1.677837e+003;8.587097e-002
1.679765e+003;8.535649e-002
1.681694e+003;8.438678e-002
1.683622e+003;8.318073e-002
1.685551e+003;8.288772e-002
1.687479e+003;8.282698e-002
1.689408e+003;8.212094e-002
1.691337e+003;8.152429e-002
1.693265e+003;8.094347e-002
1.695194e+003;8.009534e-002
1.697122e+003;7.964724e-002
1.699051e+003;7.908077e-002
1.700979e+003;7.854135e-002
1.702908e+003;7.844318e-002
1.704836e+003;7.810315e-002
1.706765e+003;7.796372e-002
1.708693e+003;7.790401e-002
1.710622e+003;7.774360e-002
1.712551e+003;7.750981e-002
1.714479e+003;7.720885e-002
1.716408e+003;7.666326e-002
1.718336e+003;7.653709e-002
1.720265e+003;7.679424e-002
1.722193e+003;7.681900e-002
1.724122e+003;7.694410e-002
1.726050e+003;7.701629e-002
1.727979e+003;7.675490e-002
1.729908e+003;7.633594e-002
1.731836e+003;7.569456e-002
1.733765e+003;7.507441e-002
1.735693e+003;7.515004e-002
1.737622e+003;7.499678e-002
1.739550e+003;7.440410e-002
1.741479e+003;7.421970e-002
1.743407e+003;7.399530e-002
1.745336e+003;7.386614e-002
1.747265e+003;7.346958e-002
1.749193e+003;7.295308e-002
1.751122e+003;7.283449e-002
1.753050e+003;7.321019e-002
1.754979e+003;7.321643e-002
1.756907e+003;7.306930e-002
1.758836e+003;7.334599e-002
1.760764e+003;7.358465e-002
1.762693e+003;7.367325e-002
1.764621e+003;7.365385e-002
1.766550e+003;7.336152e-002
1.768479e+003;7.309306e-002
1.770407e+003;7.293376e-002
1.772336e+003;7.291968e-002
1.774264e+003;7.317984e-002
1.776193e+003;7.342571e-002
1.778121e+003;7.345012e-002
1.780050e+003;7.334191e-002
1.781978e+003;7.324377e-002
1.783907e+003;7.322145e-002
1.785835e+003;7.333347e-002
1.787764e+003;7.344796e-002
1.789693e+003;7.325079e-002
1.791621e+003;7.292219e-002
1.793550e+003;7.274022e-002
1.795478e+003;7.266826e-002
1.797407e+003;7.262408e-002
1.799335e+003;7.266650e-002
1.801264e+003;7.266470e-002
1.803192e+003;7.254795e-002
1.805121e+003;7.258222e-002
1.807049e+003;7.276659e-002
1.808978e+003;7.285032e-002
1.810907e+003;7.269188e-002
1.812835e+003;7.243484e-002
1.814764e+003;7.230806e-002
1.816692e+003;7.221242e-002
1.818621e+003;7.221746e-002
1.820549e+003;7.230293e-002
1.822478e+003;7.229968e-002
1.824406e+003;7.213929e-002
1.826335e+003;7.199918e-002
1.828264e+003;7.201624e-002
1.830192e+003;7.203203e-002
1.832121e+003;7.195413e-002
1.834049e+003;7.196105e-002
1.835978e+003;7.187468e-002
1.837906e+003;7.178289e-002
1.839835e+003;7.178226e-002
1.841763e+003;7.171617e-002
1.843692e+003;7.146615e-002
1.845620e+003;7.151411e-002
1.847549e+003;7.137452e-002
1.849478e+003;7.104219e-002
1.851406e+003;7.117677e-002
1.853335e+003;7.130986e-002
1.855263e+003;7.112435e-002
1.857192e+003;7.096341e-002
1.859120e+003;7.105070e-002
1.861049e+003;7.124238e-002
1.862977e+003;7.116412e-002
1.864906e+003;7.114390e-002
1.866834e+003;7.110963e-002
1.868763e+003;7.083273e-002
1.870692e+003;7.077794e-002
1.872620e+003;7.099666e-002
1.874549e+003;7.098155e-002
1.876477e+003;7.078581e-002
1.878406e+003;7.078601e-002
1.880334e+003;7.090045e-002
1.882263e+003;7.093372e-002
1.884191e+003;7.075820e-002
1.886120e+003;7.078300e-002
1.888048e+003;7.072701e-002
1.889977e+003;7.058622e-002
1.891906e+003;7.072814e-002
1.893834e+003;7.088340e-002
1.895763e+003;7.090420e-002
1.897691e+003;7.093345e-002
1.899620e+003;7.104219e-002
1.901548e+003;7.086756e-002
1.903477e+003;7.078897e-002
1.905405e+003;7.084864e-002
1.907334e+003;7.078932e-002
1.909262e+003;7.077438e-002
1.911191e+003;7.086729e-002
1.913120e+003;7.116181e-002
1.915048e+003;7.137776e-002
1.916977e+003;7.113273e-002
1.918905e+003;7.103993e-002
1.920834e+003;7.133137e-002
1.922762e+003;7.151056e-002
1.924691e+003;7.164962e-002
1.926619e+003;7.169084e-002
1.928548e+003;7.165927e-002
1.930477e+003;7.159245e-002
1.932405e+003;7.172934e-002
1.934334e+003;7.194346e-002
1.936262e+003;7.192782e-002
1.938191e+003;7.192696e-002
1.940119e+003;7.182468e-002
1.942048e+003;7.193181e-002
1.943976e+003;7.221860e-002
1.945905e+003;7.232469e-002
1.947833e+003;7.245112e-002
1.949762e+003;7.252137e-002
1.951691e+003;7.248695e-002
1.953619e+003;7.254470e-002
1.955548e+003;7.265592e-002
1.957476e+003;7.272644e-002
1.959405e+003;7.277807e-002
1.961333e+003;7.270434e-002
1.963262e+003;7.277059e-002
1.965190e+003;7.309957e-002
1.967119e+003;7.323502e-002
1.969047e+003;7.324894e-002
1.970976e+003;7.338761e-002
1.972905e+003;7.341865e-002
1.974833e+003;7.329629e-002
1.976762e+003;7.348806e-002
1.978690e+003;7.381053e-002
1.980619e+003;7.390078e-002
1.982547e+003;7.391461e-002
1.984476e+003;7.393318e-002
1.986404e+003;7.391461e-002
1.988333e+003;7.393511e-002
1.990261e+003;7.408076e-002
1.992190e+003;7.409970e-002
1.994119e+003;7.404578e-002
1.996047e+003;7.423420e-002
1.997976e+003;7.431633e-002
1.999904e+003;7.426742e-002
2.001833e+003;7.428727e-002
2.003761e+003;7.445880e-002
2.005690e+003;7.454140e-002
2.007618e+003;7.458547e-002
2.009547e+003;7.471570e-002
2.011476e+003;7.471441e-002
2.013404e+003;7.448039e-002
2.015333e+003;7.448783e-002
2.017261e+003;7.479974e-002
2.019190e+003;7.508721e-002
2.021118e+003;7.522119e-002
2.023047e+003;7.540259e-002
2.024975e+003;7.545608e-002
2.026904e+003;7.530453e-002
2.028833e+003;7.536881e-002
2.030761e+003;7.545545e-002
2.032690e+003;7.550453e-002
2.034618e+003;7.546707e-002
2.036547e+003;7.557806e-002
2.038475e+003;7.569958e-002
2.040404e+003;7.571799e-002
2.042332e+003;7.578592e-002
2.044261e+003;7.592525e-002
2.046189e+003;7.596613e-002
2.048118e+003;7.579003e-002
2.050047e+003;7.569342e-002
2.051975e+003;7.579160e-002
2.053904e+003;7.581665e-002
2.055832e+003;7.575200e-002
2.057761e+003;7.575819e-002
2.059689e+003;7.572600e-002
2.061618e+003;7.583303e-002
2.063546e+003;7.616106e-002
2.065475e+003;7.608562e-002
2.067404e+003;7.582656e-002
2.069332e+003;7.580127e-002
2.071260e+003;7.561655e-002
2.073189e+003;7.547784e-002
2.075118e+003;7.565513e-002
2.077046e+003;7.581271e-002
2.078975e+003;7.572789e-002
2.080903e+003;7.567126e-002
2.082832e+003;7.566664e-002
2.084760e+003;7.577156e-002
2.086689e+003;7.594403e-002
2.088617e+003;7.585505e-002
2.090546e+003;7.571578e-002
2.092475e+003;7.577898e-002
2.094403e+003;7.569480e-002
2.096332e+003;7.585670e-002
2.098260e+003;7.602403e-002
2.100189e+003;7.598105e-002
2.102117e+003;7.594435e-002
2.104046e+003;7.624479e-002
2.105974e+003;7.631181e-002
2.107903e+003;7.601863e-002
2.109832e+003;7.598086e-002
2.111760e+003;7.600217e-002
2.113688e+003;7.608234e-002
2.115617e+003;7.629146e-002
2.117546e+003;7.645387e-002
2.119474e+003;7.657029e-002
2.121403e+003;7.655930e-002
2.123331e+003;7.656835e-002
2.125260e+003;7.664669e-002
2.127188e+003;7.678392e-002
2.129117e+003;7.687856e-002
2.131045e+003;7.688619e-002
2.132974e+003;7.676482e-002
2.134903e+003;7.664626e-002
2.136831e+003;7.663270e-002
2.138760e+003;7.664274e-002
2.140688e+003;7.664116e-002
2.142617e+003;7.668266e-002
2.144545e+003;7.672339e-002
2.146474e+003;7.668211e-002
2.148402e+003;7.667373e-002
2.150331e+003;7.670303e-002
2.152260e+003;7.654452e-002
2.154188e+003;7.634231e-002
2.156117e+003;7.641041e-002
2.158045e+003;7.632733e-002
2.159974e+003;7.625691e-002
2.161902e+003;7.618137e-002
2.163831e+003;7.617840e-002
2.165759e+003;7.631477e-002
2.167688e+003;7.619669e-002
2.169616e+003;7.614382e-002
2.171545e+003;7.612052e-002
2.173474e+003;7.593942e-002
2.175402e+003;7.587975e-002
2.177331e+003;7.594782e-002
2.179259e+003;7.583366e-002
2.181188e+003;7.573333e-002
2.183116e+003;7.592028e-002
2.185045e+003;7.593827e-002
2.186973e+003;7.580806e-002
2.188902e+003;7.573570e-002
2.190831e+003;7.578482e-002
2.192759e+003;7.559829e-002
2.194688e+003;7.536790e-002
2.196616e+003;7.524581e-002
2.198545e+003;7.522060e-002
2.200473e+003;7.537626e-002
2.202402e+003;7.557696e-002
2.204330e+003;7.545123e-002
2.206259e+003;7.520898e-002
2.208188e+003;7.507831e-002
2.210116e+003;7.497095e-002
2.212044e+003;7.510348e-002
2.213973e+003;7.535147e-002
2.215902e+003;7.509793e-002
2.217830e+003;7.485946e-002
2.219759e+003;7.483969e-002
2.221687e+003;7.475931e-002
2.223616e+003;7.472374e-002
2.225544e+003;7.476152e-002
2.227473e+003;7.478525e-002
2.229401e+003;7.474259e-002
2.231330e+003;7.460494e-002
2.233259e+003;7.452299e-002
2.235187e+003;7.452641e-002
2.237116e+003;7.430611e-002
2.239044e+003;7.419249e-002
2.240973e+003;7.435718e-002
2.242901e+003;7.441967e-002
2.244830e+003;7.424977e-002
2.246758e+003;7.411078e-002
2.248687e+003;7.390817e-002
2.250615e+003;7.400441e-002
2.252544e+003;7.438943e-002
2.254473e+003;7.433249e-002
2.256401e+003;7.392871e-002
2.258330e+003;7.362799e-002
2.260258e+003;7.346189e-002
2.262187e+003;7.350392e-002
2.264115e+003;7.368872e-002
2.266044e+003;7.386088e-002
2.267972e+003;7.385867e-002
2.269901e+003;7.390561e-002
2.271830e+003;7.383185e-002
2.273758e+003;7.333296e-002
2.275687e+003;7.313152e-002
2.277615e+003;7.322078e-002
2.279544e+003;7.312031e-002
2.281472e+003;7.330205e-002
2.283401e+003;7.361633e-002
2.285329e+003;7.357240e-002
2.287258e+003;7.341782e-002
2.289187e+003;7.317941e-002
2.291115e+003;7.313592e-002
2.293043e+003;7.317933e-002
2.294972e+003;7.318980e-002
2.296901e+003;7.334238e-002
2.298829e+003;7.346942e-002
2.300758e+003;7.353712e-002
2.302686e+003;7.342642e-002
2.304615e+003;7.310745e-002
2.306543e+003;7.320015e-002
2.308472e+003;7.350536e-002
2.310400e+003;7.362806e-002
2.312329e+003;7.342963e-002
2.314258e+003;7.333453e-002
2.316186e+003;7.326043e-002
2.318115e+003;7.304904e-002
2.320043e+003;7.301952e-002
2.321972e+003;7.321302e-002
2.323900e+003;7.336858e-002
2.325829e+003;7.333131e-002
2.327757e+003;7.333645e-002
2.329686e+003;7.327706e-002
2.331615e+003;7.316145e-002
2.333543e+003;7.329918e-002
2.335472e+003;7.345502e-002
2.337400e+003;7.366591e-002
2.339329e+003;7.400080e-002
2.341257e+003;7.399251e-002
2.343186e+003;7.374471e-002
2.345114e+003;7.383228e-002
2.347043e+003;7.423259e-002
2.348971e+003;7.450116e-002
2.350900e+003;7.441176e-002
2.352829e+003;7.444677e-002
2.354757e+003;7.453216e-002
2.356686e+003;7.443795e-002
2.358614e+003;7.444240e-002
2.360543e+003;7.441955e-002
2.362471e+003;7.443217e-002
2.364400e+003;7.453845e-002
2.366328e+003;7.466034e-002
2.368257e+003;7.466223e-002
2.370186e+003;7.477840e-002
2.372114e+003;7.502069e-002
2.374042e+003;7.519822e-002
2.375971e+003;7.533897e-002
2.377900e+003;7.527206e-002
2.379828e+003;7.518692e-002
2.381757e+003;7.528238e-002
2.383685e+003;7.541879e-002
2.385614e+003;7.545707e-002
2.387542e+003;7.536124e-002
2.389471e+003;7.542415e-002
2.391399e+003;7.582285e-002
2.393328e+003;7.591984e-002
2.395257e+003;7.587651e-002
2.397185e+003;7.598026e-002
2.399114e+003;7.621363e-002
2.401042e+003;7.633622e-002
2.402971e+003;7.633591e-002
2.404899e+003;7.640891e-002
2.406828e+003;7.644589e-002
2.408756e+003;7.661147e-002
2.410685e+003;7.689493e-002
2.412614e+003;7.696336e-002
2.414542e+003;7.696320e-002
2.416471e+003;7.724954e-002
2.418399e+003;7.754577e-002
2.420328e+003;7.761110e-002
2.422256e+003;7.761482e-002
2.424185e+003;7.775216e-002
2.426113e+003;7.792906e-002
2.428042e+003;7.808038e-002
2.429970e+003;7.819632e-002
2.431899e+003;7.821131e-002
2.433828e+003;7.823814e-002
2.435756e+003;7.853814e-002
2.437685e+003;7.876438e-002
2.439613e+003;7.886287e-002
2.441542e+003;7.894249e-002
2.443470e+003;7.883891e-002
2.445399e+003;7.889537e-002
2.447327e+003;7.911631e-002
2.449256e+003;7.943327e-002
2.451185e+003;7.974322e-002
2.453113e+003;7.983500e-002
2.455042e+003;7.976682e-002
2.456970e+003;7.976273e-002
2.458899e+003;7.981887e-002
2.460827e+003;7.991982e-002
2.462756e+003;8.024052e-002
2.464684e+003;8.034113e-002
2.466613e+003;8.032738e-002
2.468542e+003;8.050825e-002
2.470470e+003;8.068313e-002
2.472398e+003;8.086762e-002
2.474327e+003;8.092438e-002
2.476256e+003;8.094087e-002
2.478184e+003;8.128474e-002
2.480113e+003;8.162292e-002
2.482041e+003;8.174941e-002
2.483970e+003;8.163823e-002
2.485898e+003;8.142528e-002
2.487827e+003;8.155723e-002
2.489755e+003;8.184077e-002
2.491684e+003;8.197193e-002
2.493613e+003;8.207310e-002
2.495541e+003;8.221967e-002
2.497470e+003;8.227132e-002
2.499398e+003;8.222311e-002
2.501327e+003;8.224313e-002
2.503255e+003;8.242704e-002
2.505184e+003;8.237982e-002
2.507112e+003;8.224001e-002
2.509041e+003;8.237962e-002
2.510969e+003;8.273821e-002
2.512898e+003;8.295318e-002
2.514827e+003;8.289695e-002
2.516755e+003;8.275677e-002
2.518684e+003;8.284293e-002
2.520612e+003;8.314305e-002
2.522541e+003;8.336151e-002
2.524469e+003;8.328816e-002
2.526398e+003;8.334705e-002
2.528326e+003;8.344276e-002
2.530255e+003;8.359851e-002
2.532184e+003;8.359127e-002
2.534112e+003;8.365458e-002
2.536041e+003;8.389098e-002
2.537969e+003;8.375655e-002
2.539898e+003;8.378059e-002
2.541826e+003;8.388680e-002
2.543755e+003;8.392097e-002
2.545683e+003;8.404145e-002
2.547612e+003;8.405851e-002
2.549541e+003;8.392841e-002
2.551469e+003;8.376696e-002
2.553397e+003;8.386011e-002
2.555326e+003;8.403997e-002
2.557255e+003;8.430760e-002
2.559183e+003;8.478937e-002
2.561112e+003;8.493020e-002
2.563040e+003;8.489479e-002
2.564969e+003;8.493750e-002
2.566897e+003;8.477109e-002
2.568826e+003;8.482289e-002
2.570754e+003;8.490402e-002
2.572683e+003;8.478647e-002
2.574612e+003;8.492678e-002
2.576540e+003;8.518975e-002
2.578469e+003;8.540437e-002
2.580397e+003;8.564261e-002
2.582326e+003;8.567392e-002
2.584254e+003;8.566024e-002
2.586183e+003;8.570915e-002
2.588111e+003;8.596223e-002
2.590040e+003;8.604410e-002
2.591969e+003;8.587205e-002
2.593897e+003;8.601219e-002
2.595826e+003;8.624822e-002
2.597754e+003;8.639066e-002
2.599683e+003;8.637618e-002
2.601611e+003;8.629958e-002
2.603540e+003;8.668696e-002
2.605468e+003;8.693837e-002
2.607397e+003;8.682761e-002
2.609325e+003;8.684371e-002
2.611254e+003;8.706541e-002
2.613183e+003;8.725774e-002
2.615111e+003;8.744561e-002
2.617040e+003;8.769568e-002
2.618968e+003;8.755261e-002
2.620897e+003;8.736834e-002
2.622825e+003;8.743966e-002
2.624754e+003;8.767606e-002
2.626682e+003;8.807367e-002
2.628611e+003;8.836853e-002
2.630540e+003;8.864156e-002
2.632468e+003;8.862868e-002
2.634396e+003;8.847831e-002
2.636325e+003;8.876548e-002
2.638254e+003;8.909839e-002
2.640182e+003;8.912878e-002
2.642111e+003;8.894221e-002
2.644039e+003;8.900191e-002
2.645968e+003;8.919542e-002
2.647896e+003;8.940392e-002
2.649825e+003;8.978707e-002
2.651753e+003;9.016313e-002
2.653682e+003;9.031380e-002
2.655611e+003;9.035969e-002
2.657539e+003;9.059842e-002
2.659468e+003;9.090158e-002
2.661396e+003;9.105483e-002
2.663325e+003;9.110149e-002
2.665253e+003;9.118896e-002
2.667182e+003;9.143968e-002
2.669110e+003;9.174326e-002
2.671039e+003;9.188730e-002
2.672968e+003;9.178292e-002
2.674896e+003;9.180838e-002
2.676825e+003;9.203067e-002
2.678753e+003;9.224340e-002
2.680682e+003;9.233560e-002
2.682610e+003;9.252720e-002
2.684539e+003;9.282358e-002
2.686467e+003;9.295161e-002
2.688396e+003;9.324906e-002
2.690324e+003;9.376027e-002
2.692253e+003;9.414358e-002
2.694182e+003;9.410576e-002
2.696110e+003;9.404202e-002
2.698039e+003;9.420034e-002
2.699967e+003;9.430502e-002
2.701896e+003;9.446371e-002
2.703824e+003;9.485853e-002
2.705753e+003;9.516574e-002
2.707681e+003;9.537985e-002
2.709610e+003;9.556933e-002
2.711539e+003;9.560195e-002
2.713467e+003;9.561925e-002
2.715396e+003;9.590531e-002
2.717324e+003;9.589316e-002
2.719253e+003;9.559662e-002
2.721181e+003;9.594300e-002
2.723110e+003;9.616753e-002
2.725038e+003;9.615505e-002
2.726967e+003;9.633072e-002
2.728896e+003;9.660976e-002
2.730824e+003;9.686574e-002
2.732752e+003;9.699447e-002
2.734681e+003;9.706913e-002
2.736610e+003;9.721521e-002
2.738538e+003;9.736016e-002
2.740467e+003;9.748171e-002
2.742395e+003;9.777626e-002
2.744324e+003;9.793702e-002
2.746252e+003;9.765559e-002
2.748181e+003;9.760714e-002
2.750109e+003;9.781481e-002
2.752038e+003;9.787778e-002
2.753967e+003;9.813322e-002
2.755895e+003;9.838433e-002
2.757824e+003;9.859782e-002
2.759752e+003;9.883709e-002
2.761681e+003;9.893112e-002
2.763609e+003;9.895459e-002
2.765538e+003;9.935817e-002
2.767466e+003;9.979928e-002
2.769395e+003;9.979628e-002
2.771323e+003;9.971344e-002
2.773252e+003;9.997018e-002
2.775181e+003;1.003084e-001
2.777109e+003;1.004971e-001
2.779038e+003;1.007926e-001
2.780966e+003;1.011726e-001
2.782895e+003;1.016185e-001
2.784823e+003;1.019854e-001
2.786752e+003;1.020279e-001
2.788680e+003;1.023235e-001
2.790609e+003;1.027645e-001
2.792538e+003;1.029418e-001
2.794466e+003;1.031708e-001
2.796395e+003;1.037868e-001
2.798323e+003;1.043954e-001
2.800252e+003;1.047604e-001
2.802180e+003;1.050598e-001
2.804109e+003;1.056054e-001
2.806037e+003;1.059973e-001
2.807966e+003;1.062346e-001
2.809895e+003;1.068734e-001
2.811823e+003;1.075333e-001
2.813751e+003;1.078605e-001
2.815680e+003;1.081187e-001
2.817609e+003;1.085446e-001
2.819537e+003;1.089038e-001
2.821466e+003;1.093723e-001
2.823394e+003;1.098622e-001
2.825323e+003;1.104406e-001
2.827251e+003;1.109924e-001
2.829180e+003;1.113854e-001
2.831108e+003;1.117212e-001
2.833037e+003;1.124929e-001
2.834966e+003;1.136979e-001
2.836894e+003;1.146119e-001
2.838823e+003;1.151550e-001
2.840751e+003;1.159948e-001
2.842680e+003;1.171464e-001
2.844608e+003;1.181411e-001
2.846537e+003;1.191348e-001
2.848465e+003;1.199784e-001
2.850394e+003;1.207568e-001
2.852323e+003;1.216534e-001
2.854251e+003;1.226232e-001
2.856180e+003;1.240466e-001
2.858108e+003;1.256988e-001
2.860037e+003;1.272889e-001
2.861965e+003;1.288685e-001
2.863894e+003;1.302767e-001
2.865822e+003;1.319078e-001
2.867751e+003;1.337058e-001
2.869679e+003;1.353762e-001
2.871608e+003;1.367782e-001
2.873536e+003;1.375998e-001
2.875465e+003;1.383360e-001
2.877394e+003;1.395034e-001
2.879322e+003;1.405889e-001
2.881251e+003;1.412915e-001
2.883179e+003;1.417817e-001
2.885108e+003;1.421193e-001
2.887036e+003;1.429446e-001
2.888965e+003;1.438316e-001
2.890893e+003;1.441949e-001
2.892822e+003;1.441588e-001
2.894750e+003;1.438841e-001
2.896679e+003;1.435853e-001
2.898608e+003;1.430665e-001
2.900536e+003;1.422900e-001
2.902465e+003;1.419571e-001
2.904393e+003;1.416426e-001
2.906322e+003;1.408927e-001
2.908250e+003;1.397345e-001
2.910179e+003;1.382998e-001
2.912107e+003;1.369366e-001
2.914036e+003;1.356707e-001
2.915965e+003;1.344102e-001
2.917893e+003;1.333939e-001
2.919822e+003;1.320613e-001
2.921750e+003;1.302338e-001
2.923679e+003;1.284489e-001
2.925607e+003;1.270973e-001
2.927536e+003;1.258094e-001
2.929464e+003;1.246955e-001
2.931393e+003;1.238126e-001
2.933322e+003;1.229149e-001
2.935250e+003;1.220208e-001
2.937178e+003;1.208467e-001
2.939107e+003;1.193955e-001
2.941036e+003;1.180070e-001
2.942964e+003;1.167753e-001
2.944893e+003;1.156703e-001
2.946821e+003;1.142414e-001
2.948750e+003;1.127812e-001
2.950678e+003;1.116276e-001
2.952607e+003;1.104884e-001
2.954535e+003;1.093314e-001
2.956464e+003;1.084687e-001
2.958393e+003;1.077208e-001
2.960321e+003;1.067326e-001
2.962250e+003;1.057169e-001
2.964178e+003;1.046945e-001
2.966107e+003;1.038118e-001
2.968035e+003;1.035376e-001
2.969964e+003;1.032904e-001
2.971892e+003;1.029510e-001
2.973821e+003;1.025445e-001
2.975750e+003;1.019753e-001
2.977678e+003;1.018682e-001
2.979607e+003;1.017595e-001
2.981535e+003;1.013823e-001
2.983464e+003;1.011230e-001
2.985392e+003;1.006193e-001
2.987321e+003;1.000146e-001
2.989249e+003;9.960312e-002
2.991178e+003;9.975980e-002
2.993106e+003;9.998978e-002
2.995035e+003;9.967576e-002
2.996964e+003;9.948453e-002
2.998892e+003;9.967234e-002
3.000821e+003;1.000653e-001
3.002749e+003;1.005316e-001
3.004678e+003;1.006743e-001
3.006606e+003;1.004549e-001
3.008535e+003;1.003133e-001
3.010463e+003;1.005675e-001
3.012392e+003;1.011204e-001
3.014321e+003;1.014220e-001
3.016249e+003;1.015951e-001
3.018177e+003;1.020125e-001
3.020106e+003;1.025136e-001
3.022035e+003;1.028846e-001
3.023963e+003;1.033786e-001
3.025892e+003;1.037762e-001
3.027820e+003;1.042521e-001
3.029749e+003;1.049342e-001
3.031677e+003;1.054077e-001
3.033606e+003;1.054117e-001
3.035534e+003;1.059148e-001
3.037463e+003;1.064228e-001
3.039392e+003;1.067589e-001
3.041320e+003;1.074823e-001
3.043249e+003;1.081496e-001
3.045177e+003;1.084726e-001
3.047106e+003;1.087341e-001
3.049034e+003;1.089890e-001
3.050963e+003;1.095182e-001
3.052891e+003;1.103509e-001
3.054820e+003;1.109267e-001
3.056749e+003;1.114476e-001
3.058677e+003;1.122299e-001
3.060606e+003;1.129147e-001
3.062534e+003;1.133665e-001
3.064463e+003;1.139976e-001
3.066391e+003;1.147277e-001
3.068320e+003;1.151194e-001
3.070248e+003;1.157700e-001
3.072177e+003;1.163915e-001
3.074105e+003;1.170532e-001
3.076034e+003;1.182850e-001
3.077963e+003;1.189619e-001
3.079891e+003;1.193018e-001
3.081820e+003;1.200819e-001
3.083748e+003;1.207568e-001
3.085677e+003;1.214090e-001
3.087605e+003;1.222741e-001
3.089534e+003;1.230065e-001
3.091462e+003;1.238137e-001
3.093391e+003;1.245207e-001
3.095320e+003;1.251468e-001
3.097248e+003;1.259147e-001
3.099177e+003;1.266056e-001
3.101105e+003;1.271666e-001
3.103034e+003;1.280024e-001
3.104962e+003;1.289844e-001
3.106891e+003;1.297595e-001
3.108819e+003;1.301263e-001
3.110748e+003;1.306368e-001
3.112677e+003;1.315377e-001
3.114605e+003;1.323839e-001
3.116533e+003;1.333865e-001
3.118462e+003;1.342191e-001
3.120391e+003;1.347024e-001
3.122319e+003;1.350348e-001
3.124248e+003;1.357855e-001
3.126176e+003;1.368465e-001
3.128105e+003;1.374447e-001
3.130033e+003;1.380440e-001
3.131962e+003;1.388915e-001
3.133890e+003;1.397173e-001
3.135819e+003;1.403147e-001
3.137748e+003;1.409469e-001
3.139676e+003;1.418216e-001
3.141605e+003;1.424453e-001
3.143533e+003;1.429683e-001
3.145462e+003;1.435193e-001
3.147390e+003;1.439742e-001
3.149319e+003;1.446296e-001
3.151247e+003;1.454448e-001
3.153176e+003;1.458754e-001
3.155104e+003;1.464075e-001
3.157033e+003;1.473007e-001
3.158962e+003;1.479422e-001
3.160890e+003;1.485315e-001
3.162819e+003;1.491472e-001
3.164747e+003;1.496198e-001
3.166676e+003;1.499797e-001
3.168604e+003;1.505083e-001
3.170533e+003;1.510695e-001
3.172461e+003;1.517457e-001
3.174390e+003;1.521966e-001
3.176319e+003;1.525660e-001
3.178247e+003;1.532843e-001
3.180176e+003;1.537060e-001
3.182104e+003;1.540013e-001
3.184033e+003;1.545169e-001
3.185961e+003;1.551532e-001
3.187890e+003;1.556254e-001
3.189818e+003;1.561880e-001
3.191747e+003;1.569823e-001
3.193676e+003;1.576118e-001
3.195604e+003;1.576715e-001
3.197532e+003;1.579150e-001
3.199461e+003;1.584921e-001
3.201390e+003;1.589436e-001
3.203318e+003;1.599959e-001
3.205247e+003;1.606751e-001
3.207175e+003;1.612000e-001
3.209104e+003;1.616369e-001
3.211032e+003;1.620031e-001
3.212961e+003;1.623208e-001
3.214889e+003;1.627846e-001
3.216818e+003;1.634117e-001
3.218747e+003;1.639356e-001
3.220675e+003;1.643016e-001
3.222604e+003;1.649306e-001
3.224532e+003;1.654821e-001
3.226461e+003;1.659571e-001
3.228389e+003;1.667037e-001
3.230318e+003;1.672215e-001
3.232246e+003;1.678191e-001
3.234175e+003;1.682412e-001
3.236104e+003;1.685302e-001
3.238032e+003;1.692210e-001
3.239961e+003;1.701011e-001
3.241889e+003;1.705584e-001
3.243818e+003;1.707813e-001
3.245746e+003;1.709997e-001
3.247675e+003;1.718045e-001
3.249603e+003;1.728309e-001
3.251532e+003;1.734591e-001
3.253460e+003;1.738801e-001
3.255389e+003;1.740331e-001
3.257318e+003;1.739979e-001
3.259246e+003;1.744408e-001
3.261175e+003;1.751150e-001
3.263103e+003;1.756251e-001
3.265032e+003;1.757306e-001
3.266960e+003;1.759253e-001
3.268889e+003;1.763147e-001
3.270817e+003;1.768825e-001
3.272746e+003;1.773156e-001
3.274675e+003;1.776361e-001
3.276603e+003;1.783652e-001
3.278531e+003;1.786411e-001
3.280460e+003;1.785712e-001
3.282389e+003;1.786798e-001
3.284317e+003;1.788086e-001
3.286246e+003;1.789880e-001
3.288174e+003;1.794807e-001
3.290103e+003;1.801869e-001
3.292031e+003;1.803108e-001
3.293960e+003;1.803406e-001
3.295888e+003;1.805389e-001
3.297817e+003;1.807327e-001
3.299746e+003;1.810249e-001
3.301674e+003;1.813311e-001
3.303603e+003;1.813745e-001
3.305531e+003;1.813217e-001
3.307460e+003;1.813906e-001
3.309388e+003;1.816121e-001
3.311317e+003;1.816238e-001
3.313245e+003;1.816887e-001
3.315174e+003;1.823605e-001
3.317103e+003;1.823744e-001
3.319031e+003;1.819875e-001
3.320960e+003;1.823882e-001
3.322888e+003;1.824716e-001
3.324817e+003;1.821831e-001
3.326745e+003;1.823046e-001
3.328674e+003;1.824172e-001
3.330602e+003;1.824494e-001
3.332531e+003;1.824080e-001
3.334459e+003;1.820830e-001
3.336388e+003;1.821287e-001
3.338317e+003;1.826903e-001
3.340245e+003;1.828658e-001
3.342174e+003;1.823270e-001
3.344102e+003;1.819247e-001
3.346031e+003;1.819638e-001
3.347959e+003;1.815190e-001
3.349888e+003;1.810029e-001
3.351816e+003;1.810500e-001
3.353745e+003;1.810088e-001
3.355674e+003;1.805776e-001
3.357602e+003;1.801023e-001
3.359531e+003;1.797695e-001
3.361459e+003;1.796023e-001
3.363388e+003;1.793443e-001
3.365316e+003;1.792824e-001
3.367245e+003;1.787853e-001
3.369173e+003;1.782037e-001
3.371102e+003;1.781300e-001
3.373031e+003;1.779368e-001
3.374959e+003;1.776333e-001
3.376887e+003;1.770265e-001
3.378816e+003;1.764560e-001
3.380745e+003;1.761434e-001
3.382673e+003;1.757719e-001
3.384602e+003;1.753249e-001
3.386530e+003;1.750983e-001
3.388459e+003;1.747408e-001
3.390387e+003;1.740222e-001
3.392316e+003;1.734858e-001
3.394244e+003;1.734492e-001
3.396173e+003;1.732942e-001
3.398102e+003;1.726456e-001
3.400030e+003;1.717558e-001
3.401959e+003;1.711031e-001
3.403887e+003;1.705721e-001
3.405816e+003;1.701235e-001
3.407744e+003;1.696612e-001
3.409673e+003;1.695817e-001
3.411601e+003;1.693956e-001
3.413530e+003;1.685867e-001
3.415458e+003;1.682246e-001
3.417387e+003;1.681268e-001
3.419316e+003;1.675324e-001
3.421244e+003;1.670022e-001
3.423173e+003;1.665708e-001
3.425101e+003;1.660129e-001
3.427030e+003;1.655224e-001
3.428958e+003;1.654295e-001
3.430887e+003;1.649719e-001
3.432815e+003;1.642994e-001
3.434744e+003;1.644572e-001
3.436673e+003;1.643120e-001
3.438601e+003;1.639869e-001
3.440530e+003;1.635776e-001
3.442458e+003;1.630158e-001
3.444387e+003;1.617152e-001
3.446315e+003;1.600760e-001
3.448244e+003;1.587905e-001
3.450172e+003;1.575875e-001
3.452101e+003;1.559413e-001
3.454030e+003;1.541288e-001
3.455958e+003;1.526442e-001
3.457886e+003;1.511699e-001
3.459815e+003;1.496065e-001
3.461744e+003;1.483525e-001
3.463672e+003;1.474850e-001
3.465601e+003;1.461409e-001
3.467529e+003;1.447191e-001
3.469458e+003;1.440539e-001
3.471386e+003;1.434169e-001
3.473315e+003;1.421449e-001
3.475243e+003;1.407537e-001
3.477172e+003;1.400301e-001
3.479101e+003;1.393805e-001
3.481029e+003;1.386248e-001
3.482958e+003;1.379390e-001
3.484886e+003;1.372545e-001
3.486815e+003;1.361331e-001
3.488743e+003;1.341731e-001
3.490672e+003;1.326731e-001
3.492600e+003;1.313520e-001
3.494529e+003;1.297860e-001
3.496458e+003;1.281338e-001
3.498386e+003;1.262078e-001
3.500315e+003;1.243104e-001
3.502243e+003;1.227538e-001
3.504172e+003;1.210624e-001
3.506100e+003;1.192087e-001
3.508029e+003;1.175015e-001
3.509957e+003;1.159194e-001
3.511886e+003;1.148068e-001
3.513814e+003;1.136108e-001
3.515743e+003;1.119874e-001
3.517672e+003;1.106500e-001
3.519600e+003;1.095757e-001
3.521529e+003;1.084699e-001
3.523457e+003;1.070882e-001
3.525386e+003;1.055809e-001
3.527314e+003;1.043664e-001
3.529243e+003;1.031057e-001
3.531171e+003;1.021158e-001
3.533100e+003;1.013408e-001
3.535029e+003;1.003355e-001
3.536957e+003;9.937650e-002
3.538885e+003;9.850540e-002
3.540814e+003;9.760062e-002
3.542743e+003;9.650774e-002
3.544671e+003;9.565790e-002
3.546600e+003;9.456491e-002
3.548528e+003;9.375118e-002
3.550457e+003;9.285345e-002
3.552385e+003;9.144541e-002
3.554314e+003;9.028630e-002
3.556242e+003;8.996128e-002
3.558171e+003;8.924975e-002
3.560100e+003;8.845139e-002
3.562028e+003;8.766766e-002
3.563957e+003;8.647006e-002
3.565885e+003;8.528712e-002
3.567814e+003;8.444043e-002
3.569742e+003;8.388957e-002
3.571671e+003;8.354051e-002
3.573599e+003;8.319642e-002
3.575528e+003;8.244199e-002
3.577457e+003;8.177849e-002
3.579385e+003;8.067986e-002
3.581314e+003;7.970811e-002
3.583242e+003;7.892580e-002
3.585171e+003;7.803489e-002
3.587099e+003;7.725940e-002
3.589028e+003;7.662523e-002
3.590956e+003;7.623452e-002
3.592885e+003;7.567997e-002
3.594813e+003;7.534603e-002
3.596742e+003;7.487658e-002
3.598671e+003;7.387674e-002
3.600599e+003;7.304206e-002
3.602528e+003;7.307040e-002
3.604456e+003;7.294445e-002
3.606385e+003;7.207385e-002
3.608313e+003;7.142572e-002
3.610242e+003;7.110690e-002
3.612170e+003;7.059967e-002
3.614099e+003;6.994976e-002
3.616028e+003;6.929625e-002
3.617956e+003;6.873674e-002
3.619885e+003;6.835023e-002
3.621813e+003;6.827229e-002
3.623742e+003;6.807876e-002
3.625670e+003;6.744969e-002
3.627599e+003;6.673141e-002
3.629527e+003;6.639662e-002
3.631456e+003;6.634142e-002
3.633385e+003;6.578173e-002
3.635313e+003;6.528604e-002
3.637241e+003;6.549207e-002
3.639170e+003;6.570186e-002
3.641099e+003;6.535964e-002
3.643027e+003;6.463196e-002
3.644956e+003;6.407870e-002
3.646884e+003;6.371288e-002
3.648813e+003;6.350125e-002
3.650741e+003;6.313718e-002
3.652670e+003;6.272832e-002
3.654598e+003;6.256756e-002
3.656527e+003;6.245583e-002
3.658456e+003;6.224542e-002
3.660384e+003;6.191118e-002
3.662313e+003;6.158827e-002
3.664241e+003;6.108264e-002
3.666170e+003;6.085971e-002
3.668098e+003;6.075531e-002
3.670027e+003;5.993845e-002
3.671955e+003;5.961913e-002
3.673884e+003;5.964874e-002
3.675813e+003;5.919067e-002
3.677741e+003;5.883638e-002
3.679669e+003;5.856052e-002
3.681598e+003;5.863136e-002
3.683527e+003;5.867201e-002
3.685455e+003;5.840585e-002
3.687384e+003;5.793329e-002
3.689312e+003;5.773592e-002
3.691241e+003;5.827457e-002
3.693169e+003;5.846979e-002
3.695098e+003;5.795030e-002
3.697026e+003;5.740400e-002
3.698955e+003;5.706435e-002
3.700884e+003;5.681911e-002
3.702812e+003;5.661673e-002
3.704741e+003;5.650298e-002
3.706669e+003;5.628385e-002
3.708598e+003;5.626213e-002
3.710526e+003;5.619243e-002
3.712455e+003;5.597188e-002
3.714383e+003;5.588090e-002
3.716312e+003;5.570431e-002
3.718240e+003;5.558383e-002
3.720169e+003;5.548115e-002
3.722098e+003;5.511505e-002
3.724026e+003;5.476294e-002
3.725955e+003;5.473178e-002
3.727883e+003;5.493509e-002
3.729812e+003;5.460112e-002
3.731740e+003;5.416527e-002
3.733669e+003;5.431896e-002
3.735597e+003;5.421932e-002
3.737526e+003;5.433691e-002
3.739455e+003;5.457185e-002
3.741383e+003;5.428502e-002
3.743312e+003;5.374211e-002
3.745240e+003;5.361063e-002
3.747169e+003;5.402543e-002
3.749097e+003;5.396488e-002
3.751026e+003;5.370754e-002
3.752954e+003;5.360077e-002
3.754883e+003;5.399970e-002
3.756812e+003;5.445326e-002
3.758740e+003;5.482933e-002
3.760668e+003;5.500725e-002
3.762597e+003;5.479294e-002
3.764526e+003;5.424271e-002
3.766454e+003;5.421377e-002
3.768383e+003;5.389945e-002
3.770311e+003;5.379942e-002
3.772240e+003;5.448748e-002
3.774168e+003;5.480583e-002
3.776097e+003;5.469326e-002
3.778025e+003;5.444139e-002
3.779954e+003;5.458666e-002
3.781883e+003;5.488696e-002
3.783811e+003;5.478839e-002
3.785740e+003;5.466012e-002
3.787668e+003;5.457602e-002
3.789597e+003;5.440098e-002
3.791525e+003;5.407568e-002
3.793454e+003;5.415776e-002
3.795382e+003;5.435013e-002
3.797311e+003;5.442457e-002
3.799240e+003;5.418104e-002
3.801168e+003;5.338284e-002
3.803097e+003;5.367474e-002
3.805025e+003;5.420247e-002
3.806954e+003;5.407797e-002
3.808882e+003;5.436598e-002
3.810811e+003;5.454018e-002
3.812739e+003;5.453755e-002
3.814668e+003;5.419365e-002
3.816596e+003;5.371894e-002
3.818525e+003;5.366525e-002
3.820454e+003;5.370642e-002
3.822382e+003;5.410424e-002
3.824311e+003;5.440631e-002
3.826239e+003;5.444136e-002
3.828168e+003;5.476392e-002
3.830096e+003;5.472118e-002
3.832025e+003;5.464561e-002
3.833953e+003;5.444868e-002
3.835882e+003;5.400495e-002
3.837811e+003;5.369431e-002
3.839739e+003;5.411689e-002
3.841667e+003;5.482959e-002
3.843596e+003;5.534224e-002
3.845525e+003;5.512720e-002
3.847453e+003;5.466436e-002
3.849382e+003;5.484034e-002
3.851310e+003;5.453286e-002
3.853239e+003;5.408735e-002
3.855167e+003;5.431938e-002
3.857096e+003;5.443309e-002
3.859024e+003;5.491388e-002
3.860953e+003;5.570461e-002
3.862882e+003;5.556447e-002
3.864810e+003;5.538353e-002
3.866739e+003;5.590947e-002
3.868667e+003;5.605308e-002
3.870596e+003;5.599087e-002
3.872524e+003;5.593532e-002
3.874453e+003;5.576907e-002
3.876381e+003;5.644690e-002
3.878310e+003;5.654811e-002
3.880239e+003;5.597889e-002
3.882167e+003;5.576462e-002
3.884096e+003;5.571448e-002
3.886024e+003;5.569467e-002
3.887953e+003;5.637537e-002
3.889881e+003;5.662436e-002
3.891810e+003;5.670239e-002
3.893738e+003;5.694893e-002
3.895667e+003;5.682024e-002
3.897595e+003;5.664372e-002
3.899524e+003;5.645460e-002
3.901453e+003;5.620412e-002
3.903381e+003;5.646524e-002
3.905310e+003;5.699827e-002
3.907238e+003;5.735110e-002
3.909167e+003;5.780379e-002
3.911095e+003;5.756675e-002
3.913024e+003;5.724951e-002
3.914952e+003;5.734539e-002
3.916881e+003;5.725574e-002
3.918810e+003;5.747086e-002
3.920738e+003;5.747461e-002
3.922667e+003;5.722044e-002
3.924595e+003;5.725586e-002
3.926524e+003;5.758809e-002
3.928452e+003;5.805977e-002
3.930381e+003;5.820360e-002
3.932309e+003;5.823816e-002
3.934238e+003;5.875986e-002
3.936167e+003;5.877522e-002
3.938095e+003;5.840702e-002
3.940023e+003;5.851950e-002
3.941952e+003;5.854956e-002
3.943881e+003;5.836567e-002
3.945809e+003;5.826608e-002
3.947738e+003;5.804978e-002
3.949666e+003;5.826305e-002
3.951595e+003;5.852405e-002
3.953523e+003;5.876953e-002
3.955452e+003;5.920848e-002
3.957380e+003;5.897621e-002
3.959309e+003;5.870994e-002
3.961238e+003;5.890855e-002
3.963166e+003;5.912285e-002
3.965095e+003;5.878725e-002
3.967023e+003;5.842950e-002
3.968952e+003;5.847366e-002
3.970880e+003;5.854054e-002
3.972809e+003;5.857231e-002
3.974737e+003;5.869697e-002
3.976666e+003;5.891766e-002
3.978594e+003;5.912042e-002
3.980523e+003;5.925826e-002
3.982452e+003;5.880622e-002
3.984380e+003;5.832883e-002
3.986309e+003;5.854137e-002
3.988237e+003;5.895276e-002
3.990166e+003;5.904533e-002
3.992094e+003;5.886332e-002
3.994023e+003;5.893473e-002
3.995951e+003;5.905847e-002
3.997880e+003;5.901888e-002
3.999809e+003;5.908671e-002
4.001737e+003;0.000000e+000
