3.992094e+002;0.000000e+000
4.011380e+002;0.000000e+000
4.030665e+002;0.000000e+000
4.049951e+002;0.000000e+000
4.069236e+002;0.000000e+000
4.088522e+002;0.000000e+000
4.107807e+002;0.000000e+000
4.127093e+002;0.000000e+000
4.146378e+002;0.000000e+000
4.165664e+002;0.000000e+000
4.184949e+002;0.000000e+000
4.204235e+002;0.000000e+000
4.223520e+002;0.000000e+000
4.242806e+002;0.000000e+000
4.262091e+002;0.000000e+000
4.281377e+002;0.000000e+000
4.300662e+002;0.000000e+000
4.319948e+002;0.000000e+000
4.339233e+002;0.000000e+000
4.358519e+002;0.000000e+000
4.377804e+002;0.000000e+000
4.397090e+002;0.000000e+000
4.416375e+002;0.000000e+000
4.435660e+002;0.000000e+000
4.454946e+002;0.000000e+000
4.474232e+002;0.000000e+000
4.493517e+002;0.000000e+000
4.512802e+002;0.000000e+000
4.532088e+002;0.000000e+000
4.551373e+002;0.000000e+000
4.570659e+002;0.000000e+000
4.589944e+002;0.000000e+000
4.609230e+002;0.000000e+000
4.628515e+002;0.000000e+000
4.647801e+002;0.000000e+000
4.667086e+002;0.000000e+000
4.686372e+002;0.000000e+000
4.705657e+002;0.000000e+000
4.724943e+002;0.000000e+000
4.744228e+002;0.000000e+000
4.763513e+002;0.000000e+000
4.782799e+002;0.000000e+000
4.802085e+002;0.000000e+000
4.821370e+002;0.000000e+000
4.840656e+002;0.000000e+000
4.859941e+002;0.000000e+000
4.879226e+002;0.000000e+000
4.898512e+002;0.000000e+000
4.917798e+002;0.000000e+000
4.937083e+002;0.000000e+000
4.956368e+002;0.000000e+000
4.975654e+002;0.000000e+000
4.994939e+002;0.000000e+000
5.014225e+002;0.000000e+000
5.033510e+002;0.000000e+000
5.052796e+002;0.000000e+000
5.072081e+002;0.000000e+000
5.091367e+002;0.000000e+000
5.110652e+002;0.000000e+000
5.129938e+002;0.000000e+000
5.149223e+002;0.000000e+000
5.168509e+002;0.000000e+000
5.187794e+002;0.000000e+000
5.207079e+002;0.000000e+000
5.226365e+002;0.000000e+000
5.245651e+002;0.000000e+000
5.264936e+002;0.000000e+000
5.284222e+002;0.000000e+000
5.303507e+002;0.000000e+000
5.322792e+002;0.000000e+000
5.342078e+002;0.000000e+000
5.361364e+002;0.000000e+000
5.380649e+002;0.000000e+000
5.399935e+002;0.000000e+000
5.419220e+002;0.000000e+000
5.438505e+002;0.000000e+000
5.457791e+002;0.000000e+000
5.477076e+002;0.000000e+000
5.496362e+002;0.000000e+000
5.515648e+002;0.000000e+000
5.534933e+002;0.000000e+000
5.554218e+002;0.000000e+000
5.573504e+002;0.000000e+000
5.592789e+002;0.000000e+000
5.612075e+002;0.000000e+000
5.631360e+002;0.000000e+000
5.650646e+002;0.000000e+000
5.669931e+002;0.000000e+000
5.689217e+002;0.000000e+000
5.708502e+002;0.000000e+000
5.727787e+002;0.000000e+000
5.747073e+002;0.000000e+000
5.766359e+002;0.000000e+000
5.785644e+002;0.000000e+000
5.804930e+002;0.000000e+000
5.824215e+002;0.000000e+000
5.843500e+002;0.000000e+000
5.862786e+002;0.000000e+000
5.882072e+002;0.000000e+000
5.901357e+002;0.000000e+000
5.920643e+002;0.000000e+000
5.939928e+002;0.000000e+000
5.959213e+002;0.000000e+000
5.978499e+002;0.000000e+000
5.997784e+002;3.020302e-001
6.017070e+002;2.864642e-001
6.036355e+002;2.784883e-001
6.055641e+002;2.841220e-001
6.074926e+002;2.857316e-001
6.094211e+002;2.832494e-001
6.113497e+002;2.783346e-001
6.132783e+002;2.749579e-001
6.152068e+002;2.751621e-001
6.171354e+002;2.793398e-001
6.190639e+002;2.809468e-001
6.209924e+002;2.788976e-001
6.229210e+002;2.745324e-001
6.248495e+002;2.705884e-001
6.267781e+002;2.692649e-001
6.287067e+002;2.666737e-001
6.306352e+002;2.610779e-001
6.325637e+002;2.613428e-001
6.344923e+002;2.604823e-001
6.364208e+002;2.571404e-001
6.383494e+002;2.550174e-001
6.402780e+002;2.547050e-001
6.422065e+002;2.561492e-001
6.441350e+002;2.553402e-001
6.460636e+002;2.558177e-001
6.479921e+002;2.576024e-001
6.499207e+002;2.559839e-001
6.518492e+002;2.538902e-001
6.537778e+002;2.538334e-001
6.557063e+002;2.562082e-001
6.576349e+002;2.587078e-001
6.595634e+002;2.612900e-001
6.614919e+002;2.614159e-001
6.634205e+002;2.598181e-001
6.653491e+002;2.597409e-001
6.672776e+002;2.603094e-001
6.692062e+002;2.566026e-001
6.711347e+002;2.486921e-001
6.730632e+002;2.396545e-001
6.749918e+002;2.316758e-001
6.769203e+002;2.253382e-001
6.788489e+002;2.188377e-001
6.807775e+002;2.137223e-001
6.827060e+002;2.098288e-001
6.846345e+002;2.070848e-001
6.865631e+002;2.051520e-001
6.884916e+002;2.033330e-001
6.904202e+002;2.016163e-001
6.923488e+002;2.001305e-001
6.942773e+002;1.992144e-001
6.962058e+002;1.998314e-001
6.981344e+002;1.993853e-001
7.000629e+002;1.982015e-001
7.019915e+002;1.974532e-001
7.039200e+002;1.957550e-001
7.058486e+002;1.945665e-001
7.077771e+002;1.938326e-001
7.097057e+002;1.924622e-001
7.116342e+002;1.915419e-001
7.135627e+002;1.907357e-001
7.154913e+002;1.893869e-001
7.174199e+002;1.876775e-001
7.193484e+002;1.861673e-001
7.212770e+002;1.852512e-001
7.232055e+002;1.839896e-001
7.251340e+002;1.822684e-001
7.270626e+002;1.796185e-001
7.289911e+002;1.776056e-001
7.309197e+002;1.768788e-001
7.328483e+002;1.766734e-001
7.347768e+002;1.757089e-001
7.367053e+002;1.743049e-001
7.386339e+002;1.722100e-001
7.405624e+002;1.705768e-001
7.424910e+002;1.699812e-001
7.444196e+002;1.690170e-001
7.463481e+002;1.675735e-001
7.482766e+002;1.659561e-001
7.502052e+002;1.636920e-001
7.521337e+002;1.617246e-001
7.540623e+002;1.599072e-001
7.559908e+002;1.586085e-001
7.579194e+002;1.580068e-001
7.598479e+002;1.575203e-001
7.617765e+002;1.570978e-001
7.637050e+002;1.560084e-001
7.656335e+002;1.545122e-001
7.675621e+002;1.534643e-001
7.694907e+002;1.521581e-001
7.714192e+002;1.510025e-001
7.733478e+002;1.504320e-001
7.752763e+002;1.492592e-001
7.772048e+002;1.477995e-001
7.791334e+002;1.471095e-001
7.810620e+002;1.468542e-001
7.829905e+002;1.462989e-001
7.849191e+002;1.459049e-001
7.868476e+002;1.457891e-001
7.887761e+002;1.452966e-001
7.907047e+002;1.451993e-001
7.926332e+002;1.462349e-001
7.945618e+002;1.466301e-001
7.964903e+002;1.465275e-001
7.984189e+002;1.458856e-001
8.003474e+002;1.451851e-001
8.022759e+002;1.446841e-001
8.042045e+002;1.446217e-001
8.061331e+002;1.446345e-001
8.080616e+002;1.440317e-001
8.099902e+002;1.437467e-001
8.119187e+002;1.430432e-001
8.138472e+002;1.420651e-001
8.157758e+002;1.418232e-001
8.177043e+002;1.414962e-001
8.196329e+002;1.409210e-001
8.215615e+002;1.397247e-001
8.234900e+002;1.390643e-001
8.254185e+002;1.383290e-001
8.273471e+002;1.372647e-001
8.292756e+002;1.365100e-001
8.312042e+002;1.354282e-001
8.331328e+002;1.342064e-001
8.350613e+002;1.337417e-001
8.369898e+002;1.328357e-001
8.389184e+002;1.316714e-001
8.408469e+002;1.305816e-001
8.427755e+002;1.299377e-001
8.447040e+002;1.297334e-001
8.466326e+002;1.292987e-001
8.485611e+002;1.293014e-001
8.504897e+002;1.288932e-001
8.524182e+002;1.280522e-001
8.543467e+002;1.278719e-001
8.562753e+002;1.287030e-001
8.582039e+002;1.297877e-001
8.601324e+002;1.306988e-001
8.620610e+002;1.318519e-001
8.639895e+002;1.329731e-001
8.659180e+002;1.336977e-001
8.678466e+002;1.351731e-001
8.697751e+002;1.375013e-001
8.717037e+002;1.403108e-001
8.736323e+002;1.436379e-001
8.755608e+002;1.472013e-001
8.774893e+002;1.513540e-001
8.794179e+002;1.563258e-001
8.813464e+002;1.607865e-001
8.832750e+002;1.656464e-001
8.852036e+002;1.714843e-001
8.871321e+002;1.772984e-001
8.890606e+002;1.826697e-001
8.909892e+002;1.874122e-001
8.929177e+002;1.912354e-001
8.948463e+002;1.935893e-001
8.967748e+002;1.938611e-001
8.987034e+002;1.923433e-001
9.006319e+002;1.900074e-001
9.025605e+002;1.873259e-001
9.044890e+002;1.836853e-001
9.064175e+002;1.792955e-001
9.083461e+002;1.752889e-001
9.102747e+002;1.719748e-001
9.122032e+002;1.690865e-001
9.141318e+002;1.669663e-001
9.160603e+002;1.653963e-001
9.179888e+002;1.649234e-001
9.199174e+002;1.658585e-001
9.218459e+002;1.669345e-001
9.237745e+002;1.678295e-001
9.257031e+002;1.690536e-001
9.276316e+002;1.706208e-001
9.295601e+002;1.721527e-001
9.314887e+002;1.736996e-001
9.334172e+002;1.752817e-001
9.353458e+002;1.771263e-001
9.372744e+002;1.790753e-001
9.392029e+002;1.813858e-001
9.411314e+002;1.843236e-001
9.430600e+002;1.875050e-001
9.449885e+002;1.909659e-001
9.469171e+002;1.950610e-001
9.488456e+002;1.998362e-001
9.507742e+002;2.050299e-001
9.527027e+002;2.108350e-001
9.546313e+002;2.171244e-001
9.565598e+002;2.231569e-001
9.584883e+002;2.293171e-001
9.604169e+002;2.362050e-001
9.623455e+002;2.432344e-001
9.642740e+002;2.498070e-001
9.662026e+002;2.565434e-001
9.681311e+002;2.639702e-001
9.700596e+002;2.724510e-001
9.719882e+002;2.822647e-001
9.739167e+002;2.934025e-001
9.758453e+002;3.054132e-001
9.777739e+002;3.195924e-001
9.797024e+002;3.366570e-001
9.816309e+002;3.551822e-001
9.835595e+002;3.747569e-001
9.854880e+002;3.946595e-001
9.874166e+002;4.142498e-001
9.893452e+002;4.312288e-001
9.912737e+002;4.445685e-001
9.932022e+002;4.548072e-001
9.951307e+002;4.619913e-001
9.970593e+002;4.662524e-001
9.989879e+002;4.690351e-001
1.000916e+003;4.716231e-001
1.002845e+003;4.760406e-001
1.004773e+003;4.825973e-001
1.006702e+003;4.910096e-001
1.008631e+003;5.017738e-001
1.010559e+003;5.134741e-001
1.012488e+003;5.247835e-001
1.014416e+003;5.357606e-001
1.016345e+003;5.456020e-001
1.018273e+003;5.523556e-001
1.020202e+003;5.549521e-001
1.022130e+003;5.547323e-001
1.024059e+003;5.517841e-001
1.025988e+003;5.470883e-001
1.027916e+003;5.415723e-001
1.029845e+003;5.342081e-001
1.031773e+003;5.252361e-001
1.033702e+003;5.181237e-001
1.035630e+003;5.127990e-001
1.037559e+003;5.073486e-001
1.039487e+003;5.023898e-001
1.041416e+003;4.974060e-001
1.043344e+003;4.913686e-001
1.045273e+003;4.865223e-001
1.047202e+003;4.826573e-001
1.049130e+003;4.782449e-001
1.051059e+003;4.734090e-001
1.052987e+003;4.684731e-001
1.054916e+003;4.635072e-001
1.056844e+003;4.587076e-001
1.058773e+003;4.535123e-001
1.060701e+003;4.473079e-001
1.062630e+003;4.399439e-001
1.064558e+003;4.322545e-001
1.066487e+003;4.240888e-001
1.068416e+003;4.152838e-001
1.070344e+003;4.068249e-001
1.072273e+003;3.984692e-001
1.074201e+003;3.892406e-001
1.076130e+003;3.799480e-001
1.078058e+003;3.708514e-001
1.079987e+003;3.626249e-001
1.081915e+003;3.557622e-001
1.083844e+003;3.491652e-001
1.085773e+003;3.431393e-001
1.087701e+003;3.374376e-001
1.089630e+003;3.305960e-001
1.091558e+003;3.238856e-001
1.093487e+003;3.175503e-001
1.095415e+003;3.117167e-001
1.097344e+003;3.055143e-001
1.099272e+003;2.981413e-001
1.101201e+003;2.908343e-001
1.103129e+003;2.845159e-001
1.105058e+003;2.787915e-001
1.106987e+003;2.735406e-001
1.108915e+003;2.690732e-001
1.110844e+003;2.649974e-001
1.112772e+003;2.604261e-001
1.114701e+003;2.551010e-001
1.116629e+003;2.491962e-001
1.118558e+003;2.429957e-001
1.120486e+003;2.362564e-001
1.122415e+003;2.296067e-001
1.124344e+003;2.228706e-001
1.126272e+003;2.155659e-001
1.128201e+003;2.090053e-001
1.130129e+003;2.029366e-001
1.132058e+003;1.969320e-001
1.133986e+003;1.918363e-001
1.135915e+003;1.873896e-001
1.137843e+003;1.832452e-001
1.139772e+003;1.802170e-001
1.141700e+003;1.784442e-001
1.143629e+003;1.777636e-001
1.145557e+003;1.779397e-001
1.147486e+003;1.786227e-001
1.149415e+003;1.804228e-001
1.151343e+003;1.828977e-001
1.153272e+003;1.847839e-001
1.155200e+003;1.853887e-001
1.157129e+003;1.854316e-001
1.159057e+003;1.839213e-001
1.160986e+003;1.799995e-001
1.162914e+003;1.745505e-001
1.164843e+003;1.681355e-001
1.166771e+003;1.607183e-001
1.168700e+003;1.528926e-001
1.170629e+003;1.453993e-001
1.172557e+003;1.386300e-001
1.174486e+003;1.325797e-001
1.176414e+003;1.270282e-001
1.178343e+003;1.226162e-001
1.180271e+003;1.192563e-001
1.182200e+003;1.166758e-001
1.184128e+003;1.150149e-001
1.186057e+003;1.143875e-001
1.187986e+003;1.150583e-001
1.189914e+003;1.169992e-001
1.191843e+003;1.198127e-001
1.193771e+003;1.227466e-001
1.195700e+003;1.253156e-001
1.197628e+003;1.272901e-001
1.199557e+003;1.279777e-001
1.201485e+003;1.274087e-001
1.203414e+003;1.257588e-001
1.205343e+003;1.230976e-001
1.207271e+003;1.204720e-001
1.209200e+003;1.188166e-001
1.211128e+003;1.178583e-001
1.213057e+003;1.177963e-001
1.214985e+003;1.184123e-001
1.216914e+003;1.192211e-001
1.218842e+003;1.210307e-001
1.220771e+003;1.234505e-001
1.222699e+003;1.258063e-001
1.224628e+003;1.279264e-001
1.226557e+003;1.298524e-001
1.228485e+003;1.312893e-001
1.230414e+003;1.322040e-001
1.232342e+003;1.331270e-001
1.234271e+003;1.336605e-001
1.236199e+003;1.337698e-001
1.238128e+003;1.341013e-001
1.240056e+003;1.343239e-001
1.241985e+003;1.342906e-001
1.243913e+003;1.341949e-001
1.245842e+003;1.340726e-001
1.247771e+003;1.345486e-001
1.249699e+003;1.356555e-001
1.251628e+003;1.373832e-001
1.253556e+003;1.395148e-001
1.255485e+003;1.415371e-001
1.257413e+003;1.436529e-001
1.259342e+003;1.452285e-001
1.261270e+003;1.453747e-001
1.263199e+003;1.441276e-001
1.265127e+003;1.420619e-001
1.267056e+003;1.393156e-001
1.268985e+003;1.365153e-001
1.270913e+003;1.343423e-001
1.272842e+003;1.327151e-001
1.274770e+003;1.311658e-001
1.276699e+003;1.298581e-001
1.278627e+003;1.289925e-001
1.280556e+003;1.282288e-001
1.282484e+003;1.274878e-001
1.284413e+003;1.273108e-001
1.286342e+003;1.279762e-001
1.288270e+003;1.293178e-001
1.290199e+003;1.307108e-001
1.292127e+003;1.323601e-001
1.294056e+003;1.343238e-001
1.295984e+003;1.361120e-001
1.297913e+003;1.376892e-001
1.299841e+003;1.390048e-001
1.301770e+003;1.403136e-001
1.303698e+003;1.419874e-001
1.305627e+003;1.437036e-001
1.307556e+003;1.454813e-001
1.309484e+003;1.471094e-001
1.311413e+003;1.482241e-001
1.313341e+003;1.486920e-001
1.315270e+003;1.489857e-001
1.317198e+003;1.492395e-001
1.319127e+003;1.489987e-001
1.321055e+003;1.482818e-001
1.322984e+003;1.479132e-001
1.324912e+003;1.477275e-001
1.326841e+003;1.475650e-001
1.328770e+003;1.473862e-001
1.330698e+003;1.472927e-001
1.332627e+003;1.475777e-001
1.334555e+003;1.478577e-001
1.336484e+003;1.478088e-001
1.338412e+003;1.473551e-001
1.340341e+003;1.466362e-001
1.342269e+003;1.460393e-001
1.344198e+003;1.455554e-001
1.346126e+003;1.454653e-001
1.348055e+003;1.457230e-001
1.349984e+003;1.460470e-001
1.351912e+003;1.462479e-001
1.353841e+003;1.466977e-001
1.355769e+003;1.473210e-001
1.357698e+003;1.480542e-001
1.359626e+003;1.488940e-001
1.361555e+003;1.496553e-001
1.363483e+003;1.501955e-001
1.365412e+003;1.503619e-001
1.367341e+003;1.500901e-001
1.369269e+003;1.492768e-001
1.371198e+003;1.480809e-001
1.373126e+003;1.465839e-001
1.375055e+003;1.450744e-001
1.376983e+003;1.436029e-001
1.378912e+003;1.416667e-001
1.380840e+003;1.395243e-001
1.382769e+003;1.373759e-001
1.384698e+003;1.352755e-001
1.386626e+003;1.334225e-001
1.388555e+003;1.320521e-001
1.390483e+003;1.313104e-001
1.392412e+003;1.307618e-001
1.394340e+003;1.303870e-001
1.396269e+003;1.302925e-001
1.398197e+003;1.303758e-001
1.400126e+003;1.302775e-001
1.402054e+003;1.300383e-001
1.403983e+003;1.299105e-001
1.405911e+003;1.300171e-001
1.407840e+003;1.301027e-001
1.409769e+003;1.301608e-001
1.411697e+003;1.303243e-001
1.413626e+003;1.303327e-001
1.415554e+003;1.304733e-001
1.417483e+003;1.304426e-001
1.419411e+003;1.298463e-001
1.421340e+003;1.293116e-001
1.423268e+003;1.286580e-001
1.425197e+003;1.276953e-001
1.427125e+003;1.271257e-001
1.429054e+003;1.267042e-001
1.430983e+003;1.260667e-001
1.432911e+003;1.254751e-001
1.434840e+003;1.247322e-001
1.436768e+003;1.237279e-001
1.438697e+003;1.229977e-001
1.440625e+003;1.222997e-001
1.442554e+003;1.211798e-001
1.444482e+003;1.199670e-001
1.446411e+003;1.186816e-001
1.448340e+003;1.173020e-001
1.450268e+003;1.162051e-001
1.452197e+003;1.152590e-001
1.454125e+003;1.140298e-001
1.456054e+003;1.125060e-001
1.457982e+003;1.112030e-001
1.459911e+003;1.103703e-001
1.461839e+003;1.095260e-001
1.463768e+003;1.082124e-001
1.465697e+003;1.064358e-001
1.467625e+003;1.046975e-001
1.469554e+003;1.024172e-001
1.471482e+003;9.958120e-002
1.473411e+003;9.694758e-002
1.475339e+003;9.420828e-002
1.477268e+003;9.140242e-002
1.479196e+003;8.901476e-002
1.481125e+003;8.676141e-002
1.483053e+003;8.459749e-002
1.484982e+003;8.253317e-002
1.486911e+003;8.097768e-002
1.488839e+003;7.987788e-002
1.490768e+003;7.895020e-002
1.492696e+003;7.825044e-002
1.494625e+003;7.760254e-002
1.496553e+003;7.664990e-002
1.498482e+003;7.573073e-002
1.500410e+003;7.498261e-002
1.502339e+003;7.451442e-002
1.504267e+003;7.412312e-002
1.506196e+003;7.343187e-002
1.508125e+003;7.279649e-002
1.510053e+003;7.237651e-002
1.511982e+003;7.176468e-002
1.513910e+003;7.122783e-002
1.515839e+003;7.066988e-002
1.517767e+003;7.018556e-002
1.519696e+003;6.978519e-002
1.521624e+003;6.922819e-002
1.523553e+003;6.883767e-002
1.525481e+003;6.864841e-002
1.527410e+003;6.848315e-002
1.529339e+003;6.853262e-002
1.531267e+003;6.876698e-002
1.533196e+003;6.886186e-002
1.535124e+003;6.891141e-002
1.537053e+003;6.912667e-002
1.538981e+003;6.914042e-002
1.540910e+003;6.911319e-002
1.542838e+003;6.926131e-002
1.544767e+003;6.921848e-002
1.546695e+003;6.920146e-002
1.548624e+003;6.907434e-002
1.550553e+003;6.892531e-002
1.552481e+003;6.920504e-002
1.554410e+003;6.959375e-002
1.556338e+003;6.937531e-002
1.558267e+003;6.881950e-002
1.560195e+003;6.879602e-002
1.562124e+003;6.901770e-002
1.564052e+003;6.918024e-002
1.565981e+003;6.932466e-002
1.567910e+003;6.953946e-002
1.569838e+003;6.984550e-002
1.571767e+003;7.015459e-002
1.573695e+003;7.045327e-002
1.575624e+003;7.064430e-002
1.577552e+003;7.097945e-002
1.579481e+003;7.144580e-002
1.581409e+003;7.191996e-002
1.583338e+003;7.231229e-002
1.585266e+003;7.262866e-002
1.587195e+003;7.319937e-002
1.589124e+003;7.393071e-002
1.591052e+003;7.444692e-002
1.592981e+003;7.514507e-002
1.594909e+003;7.590587e-002
1.596838e+003;7.658333e-002
1.598766e+003;7.717798e-002
1.600695e+003;7.765975e-002
1.602623e+003;7.799793e-002
1.604552e+003;7.821500e-002
1.606480e+003;7.872188e-002
1.608409e+003;7.962415e-002
1.610338e+003;8.060976e-002
1.612266e+003;8.136349e-002
1.614195e+003;8.191883e-002
1.616123e+003;8.248758e-002
1.618052e+003;8.336576e-002
1.619980e+003;8.478530e-002
1.621909e+003;8.607972e-002
1.623837e+003;8.719382e-002
1.625766e+003;8.828309e-002
1.627694e+003;8.920722e-002
1.629623e+003;9.005227e-002
1.631552e+003;9.083414e-002
1.633480e+003;9.154521e-002
1.635409e+003;9.201809e-002
1.637337e+003;9.276281e-002
1.639266e+003;9.382319e-002
1.641194e+003;9.454638e-002
1.643123e+003;9.485601e-002
1.645051e+003;9.504391e-002
1.646980e+003;9.465947e-002
1.648909e+003;9.355690e-002
1.650837e+003;9.213589e-002
1.652766e+003;9.058720e-002
1.654694e+003;8.917862e-002
1.656623e+003;8.770217e-002
1.658551e+003;8.616158e-002
1.660480e+003;8.478591e-002
1.662408e+003;8.343409e-002
1.664337e+003;8.209760e-002
1.666266e+003;8.072758e-002
1.668194e+003;7.936075e-002
1.670123e+003;7.792601e-002
1.672051e+003;7.644226e-002
1.673980e+003;7.485827e-002
1.675908e+003;7.323267e-002
1.677837e+003;7.190917e-002
1.679765e+003;7.048695e-002
1.681694e+003;6.885305e-002
1.683622e+003;6.720868e-002
1.685551e+003;6.571717e-002
1.687479e+003;6.447545e-002
1.689408e+003;6.308373e-002
1.691337e+003;6.168285e-002
1.693265e+003;6.046445e-002
1.695194e+003;5.924140e-002
1.697122e+003;5.805901e-002
1.699051e+003;5.682621e-002
1.700979e+003;5.566363e-002
1.702908e+003;5.484568e-002
1.704836e+003;5.408442e-002
1.706765e+003;5.337085e-002
1.708693e+003;5.255656e-002
1.710622e+003;5.163072e-002
1.712551e+003;5.103979e-002
1.714479e+003;5.066439e-002
1.716408e+003;4.991771e-002
1.718336e+003;4.919777e-002
1.720265e+003;4.884264e-002
1.722193e+003;4.867163e-002
1.724122e+003;4.868112e-002
1.726050e+003;4.868497e-002
1.727979e+003;4.866929e-002
1.729908e+003;4.849821e-002
1.731836e+003;4.803264e-002
1.733765e+003;4.755475e-002
1.735693e+003;4.746005e-002
1.737622e+003;4.741706e-002
1.739550e+003;4.725515e-002
1.741479e+003;4.695093e-002
1.743407e+003;4.631465e-002
1.745336e+003;4.540836e-002
1.747265e+003;4.439888e-002
1.749193e+003;4.353254e-002
1.751122e+003;4.294756e-002
1.753050e+003;4.274949e-002
1.754979e+003;4.261837e-002
1.756907e+003;4.227351e-002
1.758836e+003;4.180833e-002
1.760764e+003;4.162022e-002
1.762693e+003;4.157756e-002
1.764621e+003;4.130279e-002
1.766550e+003;4.111378e-002
1.768479e+003;4.090425e-002
1.770407e+003;4.076869e-002
1.772336e+003;4.055151e-002
1.774264e+003;4.049305e-002
1.776193e+003;4.067331e-002
1.778121e+003;4.055481e-002
1.780050e+003;4.051913e-002
1.781978e+003;4.057115e-002
1.783907e+003;4.044577e-002
1.785835e+003;4.018480e-002
1.787764e+003;3.994596e-002
1.789693e+003;3.965712e-002
1.791621e+003;3.934637e-002
1.793550e+003;3.924768e-002
1.795478e+003;3.940769e-002
1.797407e+003;3.936081e-002
1.799335e+003;3.904075e-002
1.801264e+003;3.877841e-002
1.803192e+003;3.858731e-002
1.805121e+003;3.841580e-002
1.807049e+003;3.853632e-002
1.808978e+003;3.870871e-002
1.810907e+003;3.848571e-002
1.812835e+003;3.822464e-002
1.814764e+003;3.807657e-002
1.816692e+003;3.794732e-002
1.818621e+003;3.787595e-002
1.820549e+003;3.785364e-002
1.822478e+003;3.787841e-002
1.824406e+003;3.778987e-002
1.826335e+003;3.765521e-002
1.828264e+003;3.754856e-002
1.830192e+003;3.739255e-002
1.832121e+003;3.737067e-002
1.834049e+003;3.726581e-002
1.835978e+003;3.718535e-002
1.837906e+003;3.708686e-002
1.839835e+003;3.681714e-002
1.841763e+003;3.650630e-002
1.843692e+003;3.643772e-002
1.845620e+003;3.661155e-002
1.847549e+003;3.665499e-002
1.849478e+003;3.647776e-002
1.851406e+003;3.622003e-002
1.853335e+003;3.608250e-002
1.855263e+003;3.595021e-002
1.857192e+003;3.590539e-002
1.859120e+003;3.603494e-002
1.861049e+003;3.603743e-002
1.862977e+003;3.596194e-002
1.864906e+003;3.593070e-002
1.866834e+003;3.580241e-002
1.868763e+003;3.546251e-002
1.870692e+003;3.538709e-002
1.872620e+003;3.557470e-002
1.874549e+003;3.562444e-002
1.876477e+003;3.551037e-002
1.878406e+003;3.548700e-002
1.880334e+003;3.549149e-002
1.882263e+003;3.551149e-002
1.884191e+003;3.555309e-002
1.886120e+003;3.538130e-002
1.888048e+003;3.525968e-002
1.889977e+003;3.541247e-002
1.891906e+003;3.552529e-002
1.893834e+003;3.548193e-002
1.895763e+003;3.562689e-002
1.897691e+003;3.579920e-002
1.899620e+003;3.586966e-002
1.901548e+003;3.590399e-002
1.903477e+003;3.598505e-002
1.905405e+003;3.597097e-002
1.907334e+003;3.599469e-002
1.909262e+003;3.621729e-002
1.911191e+003;3.640255e-002
1.913120e+003;3.655842e-002
1.915048e+003;3.668610e-002
1.916977e+003;3.675977e-002
1.918905e+003;3.676215e-002
1.920834e+003;3.693185e-002
1.922762e+003;3.722827e-002
1.924691e+003;3.739674e-002
1.926619e+003;3.753945e-002
1.928548e+003;3.774433e-002
1.930477e+003;3.761225e-002
1.932405e+003;3.756875e-002
1.934334e+003;3.778225e-002
1.936262e+003;3.796696e-002
1.938191e+003;3.809180e-002
1.940119e+003;3.806254e-002
1.942048e+003;3.807589e-002
1.943976e+003;3.834851e-002
1.945905e+003;3.878895e-002
1.947833e+003;3.901135e-002
1.949762e+003;3.914675e-002
1.951691e+003;3.931362e-002
1.953619e+003;3.941247e-002
1.955548e+003;3.966605e-002
1.957476e+003;3.982007e-002
1.959405e+003;3.961472e-002
1.961333e+003;3.968747e-002
1.963262e+003;4.005201e-002
1.965190e+003;4.032904e-002
1.967119e+003;4.052335e-002
1.969047e+003;4.059403e-002
1.970976e+003;4.052917e-002
1.972905e+003;4.069820e-002
1.974833e+003;4.091939e-002
1.976762e+003;4.091343e-002
1.978690e+003;4.097882e-002
1.980619e+003;4.110296e-002
1.982547e+003;4.117906e-002
1.984476e+003;4.121731e-002
1.986404e+003;4.120318e-002
1.988333e+003;4.123637e-002
1.990261e+003;4.135257e-002
1.992190e+003;4.160746e-002
1.994119e+003;4.171563e-002
1.996047e+003;4.179833e-002
1.997976e+003;4.184306e-002
1.999904e+003;4.202859e-002
2.001833e+003;4.214895e-002
2.003761e+003;4.214321e-002
2.005690e+003;4.220507e-002
2.007618e+003;4.228340e-002
2.009547e+003;4.247870e-002
2.011476e+003;4.278997e-002
2.013404e+003;4.318992e-002
2.015333e+003;4.327088e-002
2.017261e+003;4.333037e-002
2.019190e+003;4.358097e-002
2.021118e+003;4.369754e-002
2.023047e+003;4.381987e-002
2.024975e+003;4.387841e-002
2.026904e+003;4.399132e-002
2.028833e+003;4.410610e-002
2.030761e+003;4.425650e-002
2.032690e+003;4.458396e-002
2.034618e+003;4.481449e-002
2.036547e+003;4.502584e-002
2.038475e+003;4.499564e-002
2.040404e+003;4.483190e-002
2.042332e+003;4.496682e-002
2.044261e+003;4.512763e-002
2.046189e+003;4.532788e-002
2.048118e+003;4.544651e-002
2.050047e+003;4.530350e-002
2.051975e+003;4.517663e-002
2.053904e+003;4.534947e-002
2.055832e+003;4.568508e-002
2.057761e+003;4.572189e-002
2.059689e+003;4.563175e-002
2.061618e+003;4.563981e-002
2.063546e+003;4.566149e-002
2.065475e+003;4.568103e-002
2.067404e+003;4.564743e-002
2.069332e+003;4.563786e-002
2.071260e+003;4.568622e-002
2.073189e+003;4.574026e-002
2.075118e+003;4.576552e-002
2.077046e+003;4.572870e-002
2.078975e+003;4.574667e-002
2.080903e+003;4.581618e-002
2.082832e+003;4.571920e-002
2.084760e+003;4.566406e-002
2.086689e+003;4.572090e-002
2.088617e+003;4.571460e-002
2.090546e+003;4.588810e-002
2.092475e+003;4.617684e-002
2.094403e+003;4.619692e-002
2.096332e+003;4.618870e-002
2.098260e+003;4.640195e-002
2.100189e+003;4.656428e-002
2.102117e+003;4.679265e-002
2.104046e+003;4.695100e-002
2.105974e+003;4.692287e-002
2.107903e+003;4.685790e-002
2.109832e+003;4.684724e-002
2.111760e+003;4.701081e-002
2.113688e+003;4.720203e-002
2.115617e+003;4.709537e-002
2.117546e+003;4.702484e-002
2.119474e+003;4.729320e-002
2.121403e+003;4.733547e-002
2.123331e+003;4.722098e-002
2.125260e+003;4.741178e-002
2.127188e+003;4.735602e-002
2.129117e+003;4.739408e-002
2.131045e+003;4.749546e-002
2.132974e+003;4.736803e-002
2.134903e+003;4.740332e-002
2.136831e+003;4.758107e-002
2.138760e+003;4.748781e-002
2.140688e+003;4.738580e-002
2.142617e+003;4.724673e-002
2.144545e+003;4.738229e-002
2.146474e+003;4.764012e-002
2.148402e+003;4.736810e-002
2.150331e+003;4.697208e-002
2.152260e+003;4.667616e-002
2.154188e+003;4.693653e-002
2.156117e+003;4.728593e-002
2.158045e+003;4.704781e-002
2.159974e+003;4.678254e-002
2.161902e+003;4.670568e-002
2.163831e+003;4.648432e-002
2.165759e+003;4.641437e-002
2.167688e+003;4.654359e-002
2.169616e+003;4.642717e-002
2.171545e+003;4.635911e-002
2.173474e+003;4.621712e-002
2.175402e+003;4.592120e-002
2.177331e+003;4.578720e-002
2.179259e+003;4.571493e-002
2.181188e+003;4.540288e-002
2.183116e+003;4.526378e-002
2.185045e+003;4.536856e-002
2.186973e+003;4.521138e-002
2.188902e+003;4.509057e-002
2.190831e+003;4.507888e-002
2.192759e+003;4.511373e-002
2.194688e+003;4.499358e-002
2.196616e+003;4.478268e-002
2.198545e+003;4.475755e-002
2.200473e+003;4.488113e-002
2.202402e+003;4.466273e-002
2.204330e+003;4.435862e-002
2.206259e+003;4.443187e-002
2.208188e+003;4.464010e-002
2.210116e+003;4.456079e-002
2.212044e+003;4.441194e-002
2.213973e+003;4.416145e-002
2.215902e+003;4.385388e-002
2.217830e+003;4.379689e-002
2.219759e+003;4.388647e-002
2.221687e+003;4.384307e-002
2.223616e+003;4.387438e-002
2.225544e+003;4.391301e-002
2.227473e+003;4.386323e-002
2.229401e+003;4.374687e-002
2.231330e+003;4.363401e-002
2.233259e+003;4.352895e-002
2.235187e+003;4.345468e-002
2.237116e+003;4.335698e-002
2.239044e+003;4.324910e-002
2.240973e+003;4.309283e-002
2.242901e+003;4.313949e-002
2.244830e+003;4.318944e-002
2.246758e+003;4.319336e-002
2.248687e+003;4.313060e-002
2.250615e+003;4.291102e-002
2.252544e+003;4.275937e-002
2.254473e+003;4.271641e-002
2.256401e+003;4.261504e-002
2.258330e+003;4.250281e-002
2.260258e+003;4.226288e-002
2.262187e+003;4.197030e-002
2.264115e+003;4.187542e-002
2.266044e+003;4.182503e-002
2.267972e+003;4.177247e-002
2.269901e+003;4.169948e-002
2.271830e+003;4.173668e-002
2.273758e+003;4.173865e-002
2.275687e+003;4.156965e-002
2.277615e+003;4.144883e-002
2.279544e+003;4.136113e-002
2.281472e+003;4.127681e-002
2.283401e+003;4.119804e-002
2.285329e+003;4.118256e-002
2.287258e+003;4.127408e-002
2.289187e+003;4.111141e-002
2.291115e+003;4.101738e-002
2.293043e+003;4.118540e-002
2.294972e+003;4.120751e-002
2.296901e+003;4.121739e-002
2.298829e+003;4.132641e-002
2.300758e+003;4.130888e-002
2.302686e+003;4.121400e-002
2.304615e+003;4.122008e-002
2.306543e+003;4.136401e-002
2.308472e+003;4.145692e-002
2.310400e+003;4.148153e-002
2.312329e+003;4.155722e-002
2.314258e+003;4.149877e-002
2.316186e+003;4.133570e-002
2.318115e+003;4.139747e-002
2.320043e+003;4.154132e-002
2.321972e+003;4.159871e-002
2.323900e+003;4.150752e-002
2.325829e+003;4.161888e-002
2.327757e+003;4.199136e-002
2.329686e+003;4.214676e-002
2.331615e+003;4.202205e-002
2.333543e+003;4.194118e-002
2.335472e+003;4.214227e-002
2.337400e+003;4.229283e-002
2.339329e+003;4.233709e-002
2.341257e+003;4.237907e-002
2.343186e+003;4.267239e-002
2.345114e+003;4.290644e-002
2.347043e+003;4.278284e-002
2.348971e+003;4.272818e-002
2.350900e+003;4.294800e-002
2.352829e+003;4.314948e-002
2.354757e+003;4.336837e-002
2.356686e+003;4.363504e-002
2.358614e+003;4.395316e-002
2.360543e+003;4.400834e-002
2.362471e+003;4.388160e-002
2.364400e+003;4.385924e-002
2.366328e+003;4.406121e-002
2.368257e+003;4.415698e-002
2.370186e+003;4.422378e-002
2.372114e+003;4.439179e-002
2.374042e+003;4.436504e-002
2.375971e+003;4.415819e-002
2.377900e+003;4.423937e-002
2.379828e+003;4.466552e-002
2.381757e+003;4.479528e-002
2.383685e+003;4.478194e-002
2.385614e+003;4.488433e-002
2.387542e+003;4.521241e-002
2.389471e+003;4.543794e-002
2.391399e+003;4.550964e-002
2.393328e+003;4.560804e-002
2.395257e+003;4.569929e-002
2.397185e+003;4.564319e-002
2.399114e+003;4.560536e-002
2.401042e+003;4.580940e-002
2.402971e+003;4.604629e-002
2.404899e+003;4.636316e-002
2.406828e+003;4.670708e-002
2.408756e+003;4.669590e-002
2.410685e+003;4.679099e-002
2.412614e+003;4.714936e-002
2.414542e+003;4.746951e-002
2.416471e+003;4.765934e-002
2.418399e+003;4.783580e-002
2.420328e+003;4.803050e-002
2.422256e+003;4.832518e-002
2.424185e+003;4.856483e-002
2.426113e+003;4.884104e-002
2.428042e+003;4.926724e-002
2.429970e+003;4.941958e-002
2.431899e+003;4.945066e-002
2.433828e+003;4.955779e-002
2.435756e+003;4.967546e-002
2.437685e+003;4.988645e-002
2.439613e+003;5.022763e-002
2.441542e+003;5.035036e-002
2.443470e+003;5.046479e-002
2.445399e+003;5.073681e-002
2.447327e+003;5.118657e-002
2.449256e+003;5.154784e-002
2.451185e+003;5.166479e-002
2.453113e+003;5.177411e-002
2.455042e+003;5.194814e-002
2.456970e+003;5.207505e-002
2.458899e+003;5.231774e-002
2.460827e+003;5.266574e-002
2.462756e+003;5.298500e-002
2.464684e+003;5.327292e-002
2.466613e+003;5.340686e-002
2.468542e+003;5.363537e-002
2.470470e+003;5.392237e-002
2.472398e+003;5.420982e-002
2.474327e+003;5.447159e-002
2.476256e+003;5.470431e-002
2.478184e+003;5.478625e-002
2.480113e+003;5.488504e-002
2.482041e+003;5.502903e-002
2.483970e+003;5.509146e-002
2.485898e+003;5.497701e-002
2.487827e+003;5.510233e-002
2.489755e+003;5.561652e-002
2.491684e+003;5.599438e-002
2.493613e+003;5.590664e-002
2.495541e+003;5.598899e-002
2.497470e+003;5.650668e-002
2.499398e+003;5.663357e-002
2.501327e+003;5.655389e-002
2.503255e+003;5.675118e-002
2.505184e+003;5.668216e-002
2.507112e+003;5.672818e-002
2.509041e+003;5.715324e-002
2.510969e+003;5.735594e-002
2.512898e+003;5.749333e-002
2.514827e+003;5.754882e-002
2.516755e+003;5.752745e-002
2.518684e+003;5.764106e-002
2.520612e+003;5.781772e-002
2.522541e+003;5.789933e-002
2.524469e+003;5.803474e-002
2.526398e+003;5.821065e-002
2.528326e+003;5.821288e-002
2.530255e+003;5.822027e-002
2.532184e+003;5.833478e-002
2.534112e+003;5.845361e-002
2.536041e+003;5.861725e-002
2.537969e+003;5.877094e-002
2.539898e+003;5.902613e-002
2.541826e+003;5.905300e-002
2.543755e+003;5.889094e-002
2.545683e+003;5.911116e-002
2.547612e+003;5.952084e-002
2.549541e+003;5.974625e-002
2.551469e+003;5.976211e-002
2.553397e+003;5.998501e-002
2.555326e+003;6.005961e-002
2.557255e+003;6.004059e-002
2.559183e+003;6.031522e-002
2.561112e+003;6.043162e-002
2.563040e+003;6.066916e-002
2.564969e+003;6.077784e-002
2.566897e+003;6.073401e-002
2.568826e+003;6.082765e-002
2.570754e+003;6.099341e-002
2.572683e+003;6.116712e-002
2.574612e+003;6.108299e-002
2.576540e+003;6.114195e-002
2.578469e+003;6.151358e-002
2.580397e+003;6.191981e-002
2.582326e+003;6.209719e-002
2.584254e+003;6.199735e-002
2.586183e+003;6.203412e-002
2.588111e+003;6.219235e-002
2.590040e+003;6.246521e-002
2.591969e+003;6.283441e-002
2.593897e+003;6.306966e-002
2.595826e+003;6.319125e-002
2.597754e+003;6.309737e-002
2.599683e+003;6.306189e-002
2.601611e+003;6.327764e-002
2.603540e+003;6.356277e-002
2.605468e+003;6.379565e-002
2.607397e+003;6.411241e-002
2.609325e+003;6.429622e-002
2.611254e+003;6.429926e-002
2.613183e+003;6.444528e-002
2.615111e+003;6.478875e-002
2.617040e+003;6.529443e-002
2.618968e+003;6.561661e-002
2.620897e+003;6.588291e-002
2.622825e+003;6.615818e-002
2.624754e+003;6.637485e-002
2.626682e+003;6.651266e-002
2.628611e+003;6.683005e-002
2.630540e+003;6.702530e-002
2.632468e+003;6.725541e-002
2.634396e+003;6.745232e-002
2.636325e+003;6.769299e-002
2.638254e+003;6.797808e-002
2.640182e+003;6.819773e-002
2.642111e+003;6.836733e-002
2.644039e+003;6.845437e-002
2.645968e+003;6.864510e-002
2.647896e+003;6.914023e-002
2.649825e+003;6.960565e-002
2.651753e+003;7.010837e-002
2.653682e+003;7.029290e-002
2.655611e+003;7.033248e-002
2.657539e+003;7.077922e-002
2.659468e+003;7.097890e-002
2.661396e+003;7.092569e-002
2.663325e+003;7.119706e-002
2.665253e+003;7.176893e-002
2.667182e+003;7.207906e-002
2.669110e+003;7.231056e-002
2.671039e+003;7.259855e-002
2.672968e+003;7.270931e-002
2.674896e+003;7.285181e-002
2.676825e+003;7.304939e-002
2.678753e+003;7.348810e-002
2.680682e+003;7.388739e-002
2.682610e+003;7.397216e-002
2.684539e+003;7.426101e-002
2.686467e+003;7.444791e-002
2.688396e+003;7.462579e-002
2.690324e+003;7.501360e-002
2.692253e+003;7.532045e-002
2.694182e+003;7.539490e-002
2.696110e+003;7.561162e-002
2.698039e+003;7.588574e-002
2.699967e+003;7.597947e-002
2.701896e+003;7.616115e-002
2.703824e+003;7.669326e-002
2.705753e+003;7.702491e-002
2.707681e+003;7.712819e-002
2.709610e+003;7.718831e-002
2.711539e+003;7.748347e-002
2.713467e+003;7.793144e-002
2.715396e+003;7.799405e-002
2.717324e+003;7.797462e-002
2.719253e+003;7.818454e-002
2.721181e+003;7.847422e-002
2.723110e+003;7.864185e-002
2.725038e+003;7.904714e-002
2.726967e+003;7.954141e-002
2.728896e+003;7.966583e-002
2.730824e+003;7.954675e-002
2.732752e+003;7.966463e-002
2.734681e+003;7.990552e-002
2.736610e+003;8.008550e-002
2.738538e+003;8.012806e-002
2.740467e+003;8.020417e-002
2.742395e+003;8.056904e-002
2.744324e+003;8.086698e-002
2.746252e+003;8.076636e-002
2.748181e+003;8.070204e-002
2.750109e+003;8.090502e-002
2.752038e+003;8.117887e-002
2.753967e+003;8.139287e-002
2.755895e+003;8.170769e-002
2.757824e+003;8.198157e-002
2.759752e+003;8.215192e-002
2.761681e+003;8.245168e-002
2.763609e+003;8.282457e-002
2.765538e+003;8.299264e-002
2.767466e+003;8.300456e-002
2.769395e+003;8.319433e-002
2.771323e+003;8.372839e-002
2.773252e+003;8.413342e-002
2.775181e+003;8.460639e-002
2.777109e+003;8.527293e-002
2.779038e+003;8.551804e-002
2.780966e+003;8.547903e-002
2.782895e+003;8.570791e-002
2.784823e+003;8.623213e-002
2.786752e+003;8.656816e-002
2.788680e+003;8.702347e-002
2.790609e+003;8.742507e-002
2.792538e+003;8.787040e-002
2.794466e+003;8.847526e-002
2.796395e+003;8.884019e-002
2.798323e+003;8.908619e-002
2.800252e+003;8.950037e-002
2.802180e+003;8.980076e-002
2.804109e+003;9.009487e-002
2.806037e+003;9.063471e-002
2.807966e+003;9.110149e-002
2.809895e+003;9.154207e-002
2.811823e+003;9.203726e-002
2.813751e+003;9.266052e-002
2.815680e+003;9.316541e-002
2.817609e+003;9.348959e-002
2.819537e+003;9.413934e-002
2.821466e+003;9.497722e-002
2.823394e+003;9.564374e-002
2.825323e+003;9.619606e-002
2.827251e+003;9.675195e-002
2.829180e+003;9.776144e-002
2.831108e+003;9.883526e-002
2.833037e+003;9.944494e-002
2.834966e+003;1.001422e-001
2.836894e+003;1.011029e-001
2.838823e+003;1.021114e-001
2.840751e+003;1.036933e-001
2.842680e+003;1.055919e-001
2.844608e+003;1.078602e-001
2.846537e+003;1.102896e-001
2.848465e+003;1.123700e-001
2.850394e+003;1.134026e-001
2.852323e+003;1.137359e-001
2.854251e+003;1.141526e-001
2.856180e+003;1.150217e-001
2.858108e+003;1.162142e-001
2.860037e+003;1.175333e-001
2.861965e+003;1.186837e-001
2.863894e+003;1.198323e-001
2.865822e+003;1.210555e-001
2.867751e+003;1.222729e-001
2.869679e+003;1.233915e-001
2.871608e+003;1.243749e-001
2.873536e+003;1.253319e-001
2.875465e+003;1.259405e-001
2.877394e+003;1.263910e-001
2.879322e+003;1.268113e-001
2.881251e+003;1.271059e-001
2.883179e+003;1.275620e-001
2.885108e+003;1.282705e-001
2.887036e+003;1.287347e-001
2.888965e+003;1.290011e-001
2.890893e+003;1.290002e-001
2.892822e+003;1.289382e-001
2.894750e+003;1.288556e-001
2.896679e+003;1.286234e-001
2.898608e+003;1.285835e-001
2.900536e+003;1.282104e-001
2.902465e+003;1.276579e-001
2.904393e+003;1.272685e-001
2.906322e+003;1.271131e-001
2.908250e+003;1.272857e-001
2.910179e+003;1.277093e-001
2.912107e+003;1.281778e-001
2.914036e+003;1.286803e-001
2.915965e+003;1.291807e-001
2.917893e+003;1.289136e-001
2.919822e+003;1.277232e-001
2.921750e+003;1.261258e-001
2.923679e+003;1.241953e-001
2.925607e+003;1.222071e-001
2.927536e+003;1.204735e-001
2.929464e+003;1.190502e-001
2.931393e+003;1.174781e-001
2.933322e+003;1.159114e-001
2.935250e+003;1.143731e-001
2.937178e+003;1.128834e-001
2.939107e+003;1.112888e-001
2.941036e+003;1.097458e-001
2.942964e+003;1.084759e-001
2.944893e+003;1.074174e-001
2.946821e+003;1.059078e-001
2.948750e+003;1.042132e-001
2.950678e+003;1.030840e-001
2.952607e+003;1.027725e-001
2.954535e+003;1.023771e-001
2.956464e+003;1.013850e-001
2.958393e+003;9.991896e-002
2.960321e+003;9.854718e-002
2.962250e+003;9.773700e-002
2.964178e+003;9.674761e-002
2.966107e+003;9.542467e-002
2.968035e+003;9.460026e-002
2.969964e+003;9.391811e-002
2.971892e+003;9.296524e-002
2.973821e+003;9.217870e-002
2.975750e+003;9.144451e-002
2.977678e+003;9.079077e-002
2.979607e+003;9.024984e-002
2.981535e+003;8.990292e-002
2.983464e+003;8.930135e-002
2.985392e+003;8.883747e-002
2.987321e+003;8.883361e-002
2.989249e+003;8.850374e-002
2.991178e+003;8.806226e-002
2.993106e+003;8.801333e-002
2.995035e+003;8.793473e-002
2.996964e+003;8.769714e-002
2.998892e+003;8.739990e-002
3.000821e+003;8.728772e-002
3.002749e+003;8.726499e-002
3.004678e+003;8.755184e-002
3.006606e+003;8.806852e-002
3.008535e+003;8.832902e-002
3.010463e+003;8.845869e-002
3.012392e+003;8.857395e-002
3.014321e+003;8.889215e-002
3.016249e+003;8.909302e-002
3.018177e+003;8.931153e-002
3.020106e+003;8.979624e-002
3.022035e+003;9.032281e-002
3.023963e+003;9.047100e-002
3.025892e+003;9.093675e-002
3.027820e+003;9.153961e-002
3.029749e+003;9.188321e-002
3.031677e+003;9.245074e-002
3.033606e+003;9.290589e-002
3.035534e+003;9.357203e-002
3.037463e+003;9.418461e-002
3.039392e+003;9.466359e-002
3.041320e+003;9.510956e-002
3.043249e+003;9.553192e-002
3.045177e+003;9.567066e-002
3.047106e+003;9.614405e-002
3.049034e+003;9.686334e-002
3.050963e+003;9.753492e-002
3.052891e+003;9.803193e-002
3.054820e+003;9.838428e-002
3.056749e+003;9.908070e-002
3.058677e+003;9.978973e-002
3.060606e+003;1.003506e-001
3.062534e+003;1.008031e-001
3.064463e+003;1.012729e-001
3.066391e+003;1.019873e-001
3.068320e+003;1.023079e-001
3.070248e+003;1.028767e-001
3.072177e+003;1.038817e-001
3.074105e+003;1.045090e-001
3.076034e+003;1.048994e-001
3.077963e+003;1.054078e-001
3.079891e+003;1.060024e-001
3.081820e+003;1.067004e-001
3.083748e+003;1.073636e-001
3.085677e+003;1.079247e-001
3.087605e+003;1.082375e-001
3.089534e+003;1.088662e-001
3.091462e+003;1.095604e-001
3.093391e+003;1.100523e-001
3.095320e+003;1.107670e-001
3.097248e+003;1.118245e-001
3.099177e+003;1.127970e-001
3.101105e+003;1.131531e-001
3.103034e+003;1.133522e-001
3.104962e+003;1.139005e-001
3.106891e+003;1.147387e-001
3.108819e+003;1.154875e-001
3.110748e+003;1.159447e-001
3.112677e+003;1.167599e-001
3.114605e+003;1.178164e-001
3.116533e+003;1.186260e-001
3.118462e+003;1.193725e-001
3.120391e+003;1.198035e-001
3.122319e+003;1.200626e-001
3.124248e+003;1.207192e-001
3.126176e+003;1.219770e-001
3.128105e+003;1.230742e-001
3.130033e+003;1.236526e-001
3.131962e+003;1.241248e-001
3.133890e+003;1.246864e-001
3.135819e+003;1.254930e-001
3.137748e+003;1.264038e-001
3.139676e+003;1.271190e-001
3.141605e+003;1.274888e-001
3.143533e+003;1.282849e-001
3.145462e+003;1.292615e-001
3.147390e+003;1.296191e-001
3.149319e+003;1.300576e-001
3.151247e+003;1.311346e-001
3.153176e+003;1.317170e-001
3.155104e+003;1.320279e-001
3.157033e+003;1.330708e-001
3.158962e+003;1.339660e-001
3.160890e+003;1.347121e-001
3.162819e+003;1.355979e-001
3.164747e+003;1.363851e-001
3.166676e+003;1.369749e-001
3.168604e+003;1.375232e-001
3.170533e+003;1.382485e-001
3.172461e+003;1.391202e-001
3.174390e+003;1.397434e-001
3.176319e+003;1.401263e-001
3.178247e+003;1.408626e-001
3.180176e+003;1.419686e-001
3.182104e+003;1.429002e-001
3.184033e+003;1.439024e-001
3.185961e+003;1.446316e-001
3.187890e+003;1.448164e-001
3.189818e+003;1.451560e-001
3.191747e+003;1.456901e-001
3.193676e+003;1.461205e-001
3.195604e+003;1.465762e-001
3.197532e+003;1.474770e-001
3.199461e+003;1.486250e-001
3.201390e+003;1.494373e-001
3.203318e+003;1.498602e-001
3.205247e+003;1.503937e-001
3.207175e+003;1.512681e-001
3.209104e+003;1.517605e-001
3.211032e+003;1.524566e-001
3.212961e+003;1.535681e-001
3.214889e+003;1.541685e-001
3.216818e+003;1.541895e-001
3.218747e+003;1.547750e-001
3.220675e+003;1.556248e-001
3.222604e+003;1.565555e-001
3.224532e+003;1.569575e-001
3.226461e+003;1.569390e-001
3.228389e+003;1.573334e-001
3.230318e+003;1.582612e-001
3.232246e+003;1.589731e-001
3.234175e+003;1.595652e-001
3.236104e+003;1.601844e-001
3.238032e+003;1.605971e-001
3.239961e+003;1.613706e-001
3.241889e+003;1.620258e-001
3.243818e+003;1.619136e-001
3.245746e+003;1.624492e-001
3.247675e+003;1.635799e-001
3.249603e+003;1.639676e-001
3.251532e+003;1.640132e-001
3.253460e+003;1.643538e-001
3.255389e+003;1.651863e-001
3.257318e+003;1.657126e-001
3.259246e+003;1.658662e-001
3.261175e+003;1.661875e-001
3.263103e+003;1.666440e-001
3.265032e+003;1.668900e-001
3.266960e+003;1.673315e-001
3.268889e+003;1.683062e-001
3.270817e+003;1.688628e-001
3.272746e+003;1.692100e-001
3.274675e+003;1.697096e-001
3.276603e+003;1.700430e-001
3.278531e+003;1.704851e-001
3.280460e+003;1.706163e-001
3.282389e+003;1.706613e-001
3.284317e+003;1.710910e-001
3.286246e+003;1.717474e-001
3.288174e+003;1.719111e-001
3.290103e+003;1.720877e-001
3.292031e+003;1.724796e-001
3.293960e+003;1.727469e-001
3.295888e+003;1.728199e-001
3.297817e+003;1.728834e-001
3.299746e+003;1.730933e-001
3.301674e+003;1.731696e-001
3.303603e+003;1.733534e-001
3.305531e+003;1.737923e-001
3.307460e+003;1.739284e-001
3.309388e+003;1.741701e-001
3.311317e+003;1.746041e-001
3.313245e+003;1.745906e-001
3.315174e+003;1.745332e-001
3.317103e+003;1.746202e-001
3.319031e+003;1.748818e-001
3.320960e+003;1.751439e-001
3.322888e+003;1.751308e-001
3.324817e+003;1.752582e-001
3.326745e+003;1.750592e-001
3.328674e+003;1.749309e-001
3.330602e+003;1.752891e-001
3.332531e+003;1.754538e-001
3.334459e+003;1.751244e-001
3.336388e+003;1.748280e-001
3.338317e+003;1.747910e-001
3.340245e+003;1.748931e-001
3.342174e+003;1.753387e-001
3.344102e+003;1.756518e-001
3.346031e+003;1.754383e-001
3.347959e+003;1.752340e-001
3.349888e+003;1.752616e-001
3.351816e+003;1.748406e-001
3.353745e+003;1.743103e-001
3.355674e+003;1.740822e-001
3.357602e+003;1.737759e-001
3.359531e+003;1.735022e-001
3.361459e+003;1.734041e-001
3.363388e+003;1.732201e-001
3.365316e+003;1.731468e-001
3.367245e+003;1.726297e-001
3.369173e+003;1.724340e-001
3.371102e+003;1.727610e-001
3.373031e+003;1.725656e-001
3.374959e+003;1.717854e-001
3.376887e+003;1.712149e-001
3.378816e+003;1.713716e-001
3.380745e+003;1.710442e-001
3.382673e+003;1.706540e-001
3.384602e+003;1.704083e-001
3.386530e+003;1.699694e-001
3.388459e+003;1.698739e-001
3.390387e+003;1.693444e-001
3.392316e+003;1.689258e-001
3.394244e+003;1.689185e-001
3.396173e+003;1.687040e-001
3.398102e+003;1.680254e-001
3.400030e+003;1.671694e-001
3.401959e+003;1.663237e-001
3.403887e+003;1.654872e-001
3.405816e+003;1.648887e-001
3.407744e+003;1.643304e-001
3.409673e+003;1.638220e-001
3.411601e+003;1.634070e-001
3.413530e+003;1.630980e-001
3.415458e+003;1.623012e-001
3.417387e+003;1.614127e-001
3.419316e+003;1.608397e-001
3.421244e+003;1.602844e-001
3.423173e+003;1.597604e-001
3.425101e+003;1.587245e-001
3.427030e+003;1.577300e-001
3.428958e+003;1.575512e-001
3.430887e+003;1.569409e-001
3.432815e+003;1.561874e-001
3.434744e+003;1.557458e-001
3.436673e+003;1.551536e-001
3.438601e+003;1.541567e-001
3.440530e+003;1.531246e-001
3.442458e+003;1.525057e-001
3.444387e+003;1.515878e-001
3.446315e+003;1.503501e-001
3.448244e+003;1.495045e-001
3.450172e+003;1.485368e-001
3.452101e+003;1.470424e-001
3.454030e+003;1.452016e-001
3.455958e+003;1.437820e-001
3.457886e+003;1.432974e-001
3.459815e+003;1.426300e-001
3.461744e+003;1.412188e-001
3.463672e+003;1.399286e-001
3.465601e+003;1.389298e-001
3.467529e+003;1.377409e-001
3.469458e+003;1.364242e-001
3.471386e+003;1.354591e-001
3.473315e+003;1.345594e-001
3.475243e+003;1.335602e-001
3.477172e+003;1.323851e-001
3.479101e+003;1.311657e-001
3.481029e+003;1.301585e-001
3.482958e+003;1.291234e-001
3.484886e+003;1.277178e-001
3.486815e+003;1.265860e-001
3.488743e+003;1.255240e-001
3.490672e+003;1.238027e-001
3.492600e+003;1.222949e-001
3.494529e+003;1.213652e-001
3.496458e+003;1.203109e-001
3.498386e+003;1.188775e-001
3.500315e+003;1.172734e-001
3.502243e+003;1.157248e-001
3.504172e+003;1.143576e-001
3.506100e+003;1.138065e-001
3.508029e+003;1.127463e-001
3.509957e+003;1.107413e-001
3.511886e+003;1.092059e-001
3.513814e+003;1.085353e-001
3.515743e+003;1.075143e-001
3.517672e+003;1.055888e-001
3.519600e+003;1.040753e-001
3.521529e+003;1.033454e-001
3.523457e+003;1.023578e-001
3.525386e+003;1.011538e-001
3.527314e+003;1.000429e-001
3.529243e+003;9.917482e-002
3.531171e+003;9.829785e-002
3.533100e+003;9.715237e-002
3.535029e+003;9.591200e-002
3.536957e+003;9.477580e-002
3.538885e+003;9.382557e-002
3.540814e+003;9.260248e-002
3.542743e+003;9.115516e-002
3.544671e+003;8.998456e-002
3.546600e+003;8.937363e-002
3.548528e+003;8.880044e-002
3.550457e+003;8.768728e-002
3.552385e+003;8.630953e-002
3.554314e+003;8.527422e-002
3.556242e+003;8.438469e-002
3.558171e+003;8.303609e-002
3.560100e+003;8.184489e-002
3.562028e+003;8.092031e-002
3.563957e+003;8.021410e-002
3.565885e+003;7.941151e-002
3.567814e+003;7.846303e-002
3.569742e+003;7.762069e-002
3.571671e+003;7.669148e-002
3.573599e+003;7.557049e-002
3.575528e+003;7.463536e-002
3.577457e+003;7.397550e-002
3.579385e+003;7.299337e-002
3.581314e+003;7.205519e-002
3.583242e+003;7.132509e-002
3.585171e+003;7.065487e-002
3.587099e+003;6.957644e-002
3.589028e+003;6.887103e-002
3.590956e+003;6.830237e-002
3.592885e+003;6.756983e-002
3.594813e+003;6.710882e-002
3.596742e+003;6.635266e-002
3.598671e+003;6.517491e-002
3.600599e+003;6.410945e-002
3.602528e+003;6.345933e-002
3.604456e+003;6.306583e-002
3.606385e+003;6.297708e-002
3.608313e+003;6.251797e-002
3.610242e+003;6.169057e-002
3.612170e+003;6.062401e-002
3.614099e+003;5.995203e-002
3.616028e+003;5.959792e-002
3.617956e+003;5.877845e-002
3.619885e+003;5.761302e-002
3.621813e+003;5.702018e-002
3.623742e+003;5.679211e-002
3.625670e+003;5.616728e-002
3.627599e+003;5.521764e-002
3.629527e+003;5.454296e-002
3.631456e+003;5.429197e-002
3.633385e+003;5.354941e-002
3.635313e+003;5.257878e-002
3.637241e+003;5.185788e-002
3.639170e+003;5.112231e-002
3.641099e+003;5.057917e-002
3.643027e+003;5.003132e-002
3.644956e+003;4.936018e-002
3.646884e+003;4.840070e-002
3.648813e+003;4.696255e-002
3.650741e+003;4.567717e-002
3.652670e+003;4.485321e-002
3.654598e+003;4.425533e-002
3.656527e+003;4.348651e-002
3.658456e+003;4.240259e-002
3.660384e+003;4.131657e-002
3.662313e+003;4.087240e-002
3.664241e+003;4.056453e-002
3.666170e+003;3.970104e-002
3.668098e+003;3.835658e-002
3.670027e+003;3.705705e-002
3.671955e+003;3.621563e-002
3.673884e+003;3.563537e-002
3.675813e+003;3.494822e-002
3.677741e+003;3.429916e-002
3.679669e+003;3.394346e-002
3.681598e+003;3.344860e-002
3.683527e+003;3.286352e-002
3.685455e+003;3.214142e-002
3.687384e+003;3.151242e-002
3.689312e+003;3.111671e-002
3.691241e+003;3.088561e-002
3.693169e+003;3.069813e-002
3.695098e+003;3.042283e-002
3.697026e+003;2.992065e-002
3.698955e+003;2.950563e-002
3.700884e+003;2.949872e-002
3.702812e+003;2.903338e-002
3.704741e+003;2.838951e-002
3.706669e+003;2.816556e-002
3.708598e+003;2.784406e-002
3.710526e+003;2.725074e-002
3.712455e+003;2.687867e-002
3.714383e+003;2.692227e-002
3.716312e+003;2.689499e-002
3.718240e+003;2.670654e-002
3.720169e+003;2.647497e-002
3.722098e+003;2.602006e-002
3.724026e+003;2.601253e-002
3.725955e+003;2.598270e-002
3.727883e+003;2.574944e-002
3.729812e+003;2.564064e-002
3.731740e+003;2.568718e-002
3.733669e+003;2.523640e-002
3.735597e+003;2.499374e-002
3.737526e+003;2.523289e-002
3.739455e+003;2.504236e-002
3.741383e+003;2.455066e-002
3.743312e+003;2.423340e-002
3.745240e+003;2.440413e-002
3.747169e+003;2.465119e-002
3.749097e+003;2.458085e-002
3.751026e+003;2.450105e-002
3.752954e+003;2.432254e-002
3.754883e+003;2.407956e-002
3.756812e+003;2.406919e-002
3.758740e+003;2.396455e-002
3.760668e+003;2.364325e-002
3.762597e+003;2.350087e-002
3.764526e+003;2.347184e-002
3.766454e+003;2.377164e-002
3.768383e+003;2.401242e-002
3.770311e+003;2.354739e-002
3.772240e+003;2.325974e-002
3.774168e+003;2.344040e-002
3.776097e+003;2.345110e-002
3.778025e+003;2.319063e-002
3.779954e+003;2.343547e-002
3.781883e+003;2.354029e-002
3.783811e+003;2.334683e-002
3.785740e+003;2.353483e-002
3.787668e+003;2.370952e-002
3.789597e+003;2.360945e-002
3.791525e+003;2.340477e-002
3.793454e+003;2.333994e-002
3.795382e+003;2.330096e-002
3.797311e+003;2.306528e-002
3.799240e+003;2.299254e-002
3.801168e+003;2.279939e-002
3.803097e+003;2.289868e-002
3.805025e+003;2.311878e-002
3.806954e+003;2.272362e-002
3.808882e+003;2.275794e-002
3.810811e+003;2.292274e-002
3.812739e+003;2.285544e-002
3.814668e+003;2.298003e-002
3.816596e+003;2.346583e-002
3.818525e+003;2.362299e-002
3.820454e+003;2.337616e-002
3.822382e+003;2.290329e-002
3.824311e+003;2.289016e-002
3.826239e+003;2.300466e-002
3.828168e+003;2.271081e-002
3.830096e+003;2.266926e-002
3.832025e+003;2.323153e-002
3.833953e+003;2.352787e-002
3.835882e+003;2.314772e-002
3.837811e+003;2.284538e-002
3.839739e+003;2.336543e-002
3.841667e+003;2.361466e-002
3.843596e+003;2.358388e-002
3.845525e+003;2.344348e-002
3.847453e+003;2.333057e-002
3.849382e+003;2.364689e-002
3.851310e+003;2.378784e-002
3.853239e+003;2.353022e-002
3.855167e+003;2.347411e-002
3.857096e+003;2.390773e-002
3.859024e+003;2.418723e-002
3.860953e+003;2.415202e-002
3.862882e+003;2.384332e-002
3.864810e+003;2.386548e-002
3.866739e+003;2.451255e-002
3.868667e+003;2.495419e-002
3.870596e+003;2.487934e-002
3.872524e+003;2.482128e-002
3.874453e+003;2.493714e-002
3.876381e+003;2.476708e-002
3.878310e+003;2.474585e-002
3.880239e+003;2.494857e-002
3.882167e+003;2.504765e-002
3.884096e+003;2.538377e-002
3.886024e+003;2.583084e-002
3.887953e+003;2.580439e-002
3.889881e+003;2.541873e-002
3.891810e+003;2.516909e-002
3.893738e+003;2.518608e-002
3.895667e+003;2.543236e-002
3.897595e+003;2.594939e-002
3.899524e+003;2.639000e-002
3.901453e+003;2.611903e-002
3.903381e+003;2.605736e-002
3.905310e+003;2.671243e-002
3.907238e+003;2.701405e-002
3.909167e+003;2.694413e-002
3.911095e+003;2.696296e-002
3.913024e+003;2.678446e-002
3.914952e+003;2.701845e-002
3.916881e+003;2.748902e-002
3.918810e+003;2.770899e-002
3.920738e+003;2.783791e-002
3.922667e+003;2.787268e-002
3.924595e+003;2.764726e-002
3.926524e+003;2.749925e-002
3.928452e+003;2.811221e-002
3.930381e+003;2.878455e-002
3.932309e+003;2.891731e-002
3.934238e+003;2.914530e-002
3.936167e+003;2.887286e-002
3.938095e+003;2.867846e-002
3.940023e+003;2.882439e-002
3.941952e+003;2.893161e-002
3.943881e+003;2.913325e-002
3.945809e+003;2.917124e-002
3.947738e+003;2.940454e-002
3.949666e+003;2.929191e-002
3.951595e+003;2.908861e-002
3.953523e+003;2.892779e-002
3.955452e+003;2.855891e-002
3.957380e+003;2.853531e-002
3.959309e+003;2.904124e-002
3.961238e+003;2.930219e-002
3.963166e+003;2.898283e-002
3.965095e+003;2.855650e-002
3.967023e+003;2.881844e-002
3.968952e+003;2.951751e-002
3.970880e+003;2.982946e-002
3.972809e+003;2.978170e-002
3.974737e+003;2.988931e-002
3.976666e+003;3.013233e-002
3.978594e+003;3.023918e-002
3.980523e+003;2.980597e-002
3.982452e+003;2.929301e-002
3.984380e+003;2.916411e-002
3.986309e+003;2.910111e-002
3.988237e+003;2.924655e-002
3.990166e+003;2.970892e-002
3.992094e+003;2.997134e-002
3.994023e+003;2.978926e-002
3.995951e+003;2.965904e-002
3.997880e+003;3.006504e-002
3.999809e+003;3.045350e-002
4.001737e+003;0.000000e+000
