3.992094e+002;0.000000e+000
4.011380e+002;0.000000e+000
4.030665e+002;0.000000e+000
4.049951e+002;0.000000e+000
4.069236e+002;0.000000e+000
4.088522e+002;0.000000e+000
4.107807e+002;0.000000e+000
4.127093e+002;0.000000e+000
4.146378e+002;0.000000e+000
4.165664e+002;0.000000e+000
4.184949e+002;0.000000e+000
4.204235e+002;0.000000e+000
4.223520e+002;0.000000e+000
4.242806e+002;0.000000e+000
4.262091e+002;0.000000e+000
4.281377e+002;0.000000e+000
4.300662e+002;0.000000e+000
4.319948e+002;0.000000e+000
4.339233e+002;0.000000e+000
4.358519e+002;0.000000e+000
4.377804e+002;0.000000e+000
4.397090e+002;0.000000e+000
4.416375e+002;0.000000e+000
4.435660e+002;0.000000e+000
4.454946e+002;0.000000e+000
4.474232e+002;0.000000e+000
4.493517e+002;0.000000e+000
4.512802e+002;0.000000e+000
4.532088e+002;0.000000e+000
4.551373e+002;0.000000e+000
4.570659e+002;0.000000e+000
4.589944e+002;0.000000e+000
4.609230e+002;0.000000e+000
4.628515e+002;0.000000e+000
4.647801e+002;0.000000e+000
4.667086e+002;0.000000e+000
4.686372e+002;0.000000e+000
4.705657e+002;0.000000e+000
4.724943e+002;0.000000e+000
4.744228e+002;0.000000e+000
4.763513e+002;0.000000e+000
4.782799e+002;0.000000e+000
4.802085e+002;0.000000e+000
4.821370e+002;0.000000e+000
4.840656e+002;0.000000e+000
4.859941e+002;0.000000e+000
4.879226e+002;0.000000e+000
4.898512e+002;0.000000e+000
4.917798e+002;0.000000e+000
4.937083e+002;0.000000e+000
4.956368e+002;0.000000e+000
4.975654e+002;0.000000e+000
4.994939e+002;0.000000e+000
5.014225e+002;0.000000e+000
5.033510e+002;0.000000e+000
5.052796e+002;0.000000e+000
5.072081e+002;0.000000e+000
5.091367e+002;0.000000e+000
5.110652e+002;0.000000e+000
5.129938e+002;0.000000e+000
5.149223e+002;0.000000e+000
5.168509e+002;0.000000e+000
5.187794e+002;0.000000e+000
5.207079e+002;0.000000e+000
5.226365e+002;0.000000e+000
5.245651e+002;0.000000e+000
5.264936e+002;0.000000e+000
5.284222e+002;0.000000e+000
5.303507e+002;0.000000e+000
5.322792e+002;0.000000e+000
5.342078e+002;0.000000e+000
5.361364e+002;0.000000e+000
5.380649e+002;0.000000e+000
5.399935e+002;0.000000e+000
5.419220e+002;0.000000e+000
5.438505e+002;0.000000e+000
5.457791e+002;0.000000e+000
5.477076e+002;0.000000e+000
5.496362e+002;0.000000e+000
5.515648e+002;0.000000e+000
5.534933e+002;0.000000e+000
5.554218e+002;0.000000e+000
5.573504e+002;0.000000e+000
5.592789e+002;0.000000e+000
5.612075e+002;0.000000e+000
5.631360e+002;0.000000e+000
5.650646e+002;0.000000e+000
5.669931e+002;0.000000e+000
5.689217e+002;0.000000e+000
5.708502e+002;0.000000e+000
5.727787e+002;0.000000e+000
5.747073e+002;0.000000e+000
5.766359e+002;0.000000e+000
5.785644e+002;0.000000e+000
5.804930e+002;0.000000e+000
5.824215e+002;0.000000e+000
5.843500e+002;0.000000e+000
5.862786e+002;0.000000e+000
5.882072e+002;0.000000e+000
5.901357e+002;0.000000e+000
5.920643e+002;0.000000e+000
5.939928e+002;0.000000e+000
5.959213e+002;0.000000e+000
5.978499e+002;0.000000e+000
5.997784e+002;2.519183e-001
6.017070e+002;2.604184e-001
6.036355e+002;2.730609e-001
6.055641e+002;2.745304e-001
6.074926e+002;2.675152e-001
6.094211e+002;2.612983e-001
6.113497e+002;2.609300e-001
6.132783e+002;2.612618e-001
6.152068e+002;2.597722e-001
6.171354e+002;2.600295e-001
6.190639e+002;2.582844e-001
6.209924e+002;2.549141e-001
6.229210e+002;2.496374e-001
6.248495e+002;2.456817e-001
6.267781e+002;2.450023e-001
6.287067e+002;2.458328e-001
6.306352e+002;2.443644e-001
6.325637e+002;2.437898e-001
6.344923e+002;2.442208e-001
6.364208e+002;2.426615e-001
6.383494e+002;2.415144e-001
6.402780e+002;2.431092e-001
6.422065e+002;2.406885e-001
6.441350e+002;2.364525e-001
6.460636e+002;2.341617e-001
6.479921e+002;2.329305e-001
6.499207e+002;2.366879e-001
6.518492e+002;2.393771e-001
6.537778e+002;2.380733e-001
6.557063e+002;2.387019e-001
6.576349e+002;2.427203e-001
6.595634e+002;2.464075e-001
6.614919e+002;2.485831e-001
6.634205e+002;2.503650e-001
6.653491e+002;2.505869e-001
6.672776e+002;2.497561e-001
6.692062e+002;2.486828e-001
6.711347e+002;2.451573e-001
6.730632e+002;2.377968e-001
6.749918e+002;2.279242e-001
6.769203e+002;2.169214e-001
6.788489e+002;2.080372e-001
6.807775e+002;2.003175e-001
6.827060e+002;1.948332e-001
6.846345e+002;1.917139e-001
6.865631e+002;1.899514e-001
6.884916e+002;1.875407e-001
6.904202e+002;1.852609e-001
6.923488e+002;1.847663e-001
6.942773e+002;1.845473e-001
6.962058e+002;1.839699e-001
6.981344e+002;1.840842e-001
7.000629e+002;1.834460e-001
7.019915e+002;1.808274e-001
7.039200e+002;1.797901e-001
7.058486e+002;1.805452e-001
7.077771e+002;1.799636e-001
7.097057e+002;1.786778e-001
7.116342e+002;1.779418e-001
7.135627e+002;1.769098e-001
7.154913e+002;1.759461e-001
7.174199e+002;1.750950e-001
7.193484e+002;1.738428e-001
7.212770e+002;1.711142e-001
7.232055e+002;1.693109e-001
7.251340e+002;1.690020e-001
7.270626e+002;1.683970e-001
7.289911e+002;1.677023e-001
7.309197e+002;1.662796e-001
7.328483e+002;1.648891e-001
7.347768e+002;1.630054e-001
7.367053e+002;1.617664e-001
7.386339e+002;1.615259e-001
7.405624e+002;1.606476e-001
7.424910e+002;1.598686e-001
7.444196e+002;1.587870e-001
7.463481e+002;1.569202e-001
7.482766e+002;1.553245e-001
7.502052e+002;1.540224e-001
7.521337e+002;1.532876e-001
7.540623e+002;1.535207e-001
7.559908e+002;1.524671e-001
7.579194e+002;1.505610e-001
7.598479e+002;1.501508e-001
7.617765e+002;1.490434e-001
7.637050e+002;1.468708e-001
7.656335e+002;1.452114e-001
7.675621e+002;1.445706e-001
7.694907e+002;1.445627e-001
7.714192e+002;1.436554e-001
7.733478e+002;1.423949e-001
7.752763e+002;1.416187e-001
7.772048e+002;1.413198e-001
7.791334e+002;1.410361e-001
7.810620e+002;1.405542e-001
7.829905e+002;1.395321e-001
7.849191e+002;1.384540e-001
7.868476e+002;1.373437e-001
7.887761e+002;1.360678e-001
7.907047e+002;1.354931e-001
7.926332e+002;1.352190e-001
7.945618e+002;1.345558e-001
7.964903e+002;1.339267e-001
7.984189e+002;1.339164e-001
8.003474e+002;1.339398e-001
8.022759e+002;1.329457e-001
8.042045e+002;1.318509e-001
8.061331e+002;1.309711e-001
8.080616e+002;1.308780e-001
8.099902e+002;1.310728e-001
8.119187e+002;1.306609e-001
8.138472e+002;1.299901e-001
8.157758e+002;1.293235e-001
8.177043e+002;1.295596e-001
8.196329e+002;1.299102e-001
8.215615e+002;1.298644e-001
8.234900e+002;1.296879e-001
8.254185e+002;1.296835e-001
8.273471e+002;1.297395e-001
8.292756e+002;1.298770e-001
8.312042e+002;1.295437e-001
8.331328e+002;1.285541e-001
8.350613e+002;1.274300e-001
8.369898e+002;1.268401e-001
8.389184e+002;1.263939e-001
8.408469e+002;1.260428e-001
8.427755e+002;1.253769e-001
8.447040e+002;1.248888e-001
8.466326e+002;1.250859e-001
8.485611e+002;1.254699e-001
8.504897e+002;1.256457e-001
8.524182e+002;1.255244e-001
8.543467e+002;1.249887e-001
8.562753e+002;1.250773e-001
8.582039e+002;1.259315e-001
8.601324e+002;1.267538e-001
8.620610e+002;1.274212e-001
8.639895e+002;1.285401e-001
8.659180e+002;1.295794e-001
8.678466e+002;1.306971e-001
8.697751e+002;1.320235e-001
8.717037e+002;1.340969e-001
8.736323e+002;1.377228e-001
8.755608e+002;1.414798e-001
8.774893e+002;1.449734e-001
8.794179e+002;1.493301e-001
8.813464e+002;1.543755e-001
8.832750e+002;1.598298e-001
8.852036e+002;1.656477e-001
8.871321e+002;1.718148e-001
8.890606e+002;1.781549e-001
8.909892e+002;1.838888e-001
8.929177e+002;1.871341e-001
8.948463e+002;1.876551e-001
8.967748e+002;1.865603e-001
8.987034e+002;1.843360e-001
9.006319e+002;1.809157e-001
9.025605e+002;1.768050e-001
9.044890e+002;1.721336e-001
9.064175e+002;1.675573e-001
9.083461e+002;1.634907e-001
9.102747e+002;1.598638e-001
9.122032e+002;1.566984e-001
9.141318e+002;1.547613e-001
9.160603e+002;1.537028e-001
9.179888e+002;1.533716e-001
9.199174e+002;1.533396e-001
9.218459e+002;1.537542e-001
9.237745e+002;1.549161e-001
9.257031e+002;1.565046e-001
9.276316e+002;1.576716e-001
9.295601e+002;1.592045e-001
9.314887e+002;1.610302e-001
9.334172e+002;1.623084e-001
9.353458e+002;1.638513e-001
9.372744e+002;1.655267e-001
9.392029e+002;1.674502e-001
9.411314e+002;1.702381e-001
9.430600e+002;1.732234e-001
9.449885e+002;1.763081e-001
9.469171e+002;1.798545e-001
9.488456e+002;1.839295e-001
9.507742e+002;1.884131e-001
9.527027e+002;1.934352e-001
9.546313e+002;1.989210e-001
9.565598e+002;2.045214e-001
9.584883e+002;2.104351e-001
9.604169e+002;2.165816e-001
9.623455e+002;2.228838e-001
9.642740e+002;2.294236e-001
9.662026e+002;2.360687e-001
9.681311e+002;2.428297e-001
9.700596e+002;2.499086e-001
9.719882e+002;2.581424e-001
9.739167e+002;2.677205e-001
9.758453e+002;2.789199e-001
9.777739e+002;2.920585e-001
9.797024e+002;3.069328e-001
9.816309e+002;3.234323e-001
9.835595e+002;3.416419e-001
9.854880e+002;3.606363e-001
9.874166e+002;3.791613e-001
9.893452e+002;3.965847e-001
9.912737e+002;4.122986e-001
9.932022e+002;4.245145e-001
9.951307e+002;4.331645e-001
9.970593e+002;4.397490e-001
9.989879e+002;4.450721e-001
1.000916e+003;4.488326e-001
1.002845e+003;4.529983e-001
1.004773e+003;4.584239e-001
1.006702e+003;4.647940e-001
1.008631e+003;4.729719e-001
1.010559e+003;4.833609e-001
1.012488e+003;4.947679e-001
1.014416e+003;5.052701e-001
1.016345e+003;5.143791e-001
1.018273e+003;5.215019e-001
1.020202e+003;5.263885e-001
1.022130e+003;5.281291e-001
1.024059e+003;5.280603e-001
1.025988e+003;5.263236e-001
1.027916e+003;5.216109e-001
1.029845e+003;5.151103e-001
1.031773e+003;5.074506e-001
1.033702e+003;5.003034e-001
1.035630e+003;4.940043e-001
1.037559e+003;4.884651e-001
1.039487e+003;4.833193e-001
1.041416e+003;4.780913e-001
1.043344e+003;4.741000e-001
1.045273e+003;4.707375e-001
1.047202e+003;4.667672e-001
1.049130e+003;4.620594e-001
1.051059e+003;4.575731e-001
1.052987e+003;4.540198e-001
1.054916e+003;4.496300e-001
1.056844e+003;4.445688e-001
1.058773e+003;4.388618e-001
1.060701e+003;4.320385e-001
1.062630e+003;4.242775e-001
1.064558e+003;4.164750e-001
1.066487e+003;4.087663e-001
1.068416e+003;4.013903e-001
1.070344e+003;3.948101e-001
1.072273e+003;3.882402e-001
1.074201e+003;3.819577e-001
1.076130e+003;3.755425e-001
1.078058e+003;3.684475e-001
1.079987e+003;3.616075e-001
1.081915e+003;3.549212e-001
1.083844e+003;3.486960e-001
1.085773e+003;3.431037e-001
1.087701e+003;3.369872e-001
1.089630e+003;3.306295e-001
1.091558e+003;3.242058e-001
1.093487e+003;3.175094e-001
1.095415e+003;3.110473e-001
1.097344e+003;3.032848e-001
1.099272e+003;2.944313e-001
1.101201e+003;2.860107e-001
1.103129e+003;2.792755e-001
1.105058e+003;2.745765e-001
1.106987e+003;2.704998e-001
1.108915e+003;2.666153e-001
1.110844e+003;2.630318e-001
1.112772e+003;2.589929e-001
1.114701e+003;2.536812e-001
1.116629e+003;2.480285e-001
1.118558e+003;2.422976e-001
1.120486e+003;2.358910e-001
1.122415e+003;2.291678e-001
1.124344e+003;2.223174e-001
1.126272e+003;2.156431e-001
1.128201e+003;2.094135e-001
1.130129e+003;2.033874e-001
1.132058e+003;1.974446e-001
1.133986e+003;1.921457e-001
1.135915e+003;1.876619e-001
1.137843e+003;1.840201e-001
1.139772e+003;1.816010e-001
1.141700e+003;1.804212e-001
1.143629e+003;1.802883e-001
1.145557e+003;1.805157e-001
1.147486e+003;1.814454e-001
1.149415e+003;1.834515e-001
1.151343e+003;1.859229e-001
1.153272e+003;1.878283e-001
1.155200e+003;1.887686e-001
1.157129e+003;1.891076e-001
1.159057e+003;1.872838e-001
1.160986e+003;1.829686e-001
1.162914e+003;1.771651e-001
1.164843e+003;1.705096e-001
1.166771e+003;1.629724e-001
1.168700e+003;1.555798e-001
1.170629e+003;1.482563e-001
1.172557e+003;1.417817e-001
1.174486e+003;1.364168e-001
1.176414e+003;1.317497e-001
1.178343e+003;1.278347e-001
1.180271e+003;1.248644e-001
1.182200e+003;1.230453e-001
1.184128e+003;1.221680e-001
1.186057e+003;1.223577e-001
1.187986e+003;1.237536e-001
1.189914e+003;1.261694e-001
1.191843e+003;1.291638e-001
1.193771e+003;1.320639e-001
1.195700e+003;1.344311e-001
1.197628e+003;1.359613e-001
1.199557e+003;1.362314e-001
1.201485e+003;1.349382e-001
1.203414e+003;1.328586e-001
1.205343e+003;1.305256e-001
1.207271e+003;1.278443e-001
1.209200e+003;1.258216e-001
1.211128e+003;1.251643e-001
1.213057e+003;1.251523e-001
1.214985e+003;1.259111e-001
1.216914e+003;1.274280e-001
1.218842e+003;1.295399e-001
1.220771e+003;1.322064e-001
1.222699e+003;1.347286e-001
1.224628e+003;1.369244e-001
1.226557e+003;1.385981e-001
1.228485e+003;1.393839e-001
1.230414e+003;1.397626e-001
1.232342e+003;1.402078e-001
1.234271e+003;1.402804e-001
1.236199e+003;1.405143e-001
1.238128e+003;1.406882e-001
1.240056e+003;1.401864e-001
1.241985e+003;1.397004e-001
1.243913e+003;1.396873e-001
1.245842e+003;1.399893e-001
1.247771e+003;1.404894e-001
1.249699e+003;1.413456e-001
1.251628e+003;1.424741e-001
1.253556e+003;1.436447e-001
1.255485e+003;1.448827e-001
1.257413e+003;1.462058e-001
1.259342e+003;1.470060e-001
1.261270e+003;1.467841e-001
1.263199e+003;1.459196e-001
1.265127e+003;1.449168e-001
1.267056e+003;1.435733e-001
1.268985e+003;1.421443e-001
1.270913e+003;1.408206e-001
1.272842e+003;1.395856e-001
1.274770e+003;1.387535e-001
1.276699e+003;1.379443e-001
1.278627e+003;1.368688e-001
1.280556e+003;1.359430e-001
1.282484e+003;1.355882e-001
1.284413e+003;1.359130e-001
1.286342e+003;1.363164e-001
1.288270e+003;1.370558e-001
1.290199e+003;1.387032e-001
1.292127e+003;1.408018e-001
1.294056e+003;1.428528e-001
1.295984e+003;1.447610e-001
1.297913e+003;1.467559e-001
1.299841e+003;1.486174e-001
1.301770e+003;1.503178e-001
1.303698e+003;1.525639e-001
1.305627e+003;1.551663e-001
1.307556e+003;1.574585e-001
1.309484e+003;1.595860e-001
1.311413e+003;1.611809e-001
1.313341e+003;1.621166e-001
1.315270e+003;1.626325e-001
1.317198e+003;1.622667e-001
1.319127e+003;1.609799e-001
1.321055e+003;1.593641e-001
1.322984e+003;1.581746e-001
1.324912e+003;1.577066e-001
1.326841e+003;1.573891e-001
1.328770e+003;1.574290e-001
1.330698e+003;1.577286e-001
1.332627e+003;1.577623e-001
1.334555e+003;1.578620e-001
1.336484e+003;1.579292e-001
1.338412e+003;1.574609e-001
1.340341e+003;1.566504e-001
1.342269e+003;1.559691e-001
1.344198e+003;1.556370e-001
1.346126e+003;1.556086e-001
1.348055e+003;1.556193e-001
1.349984e+003;1.557378e-001
1.351912e+003;1.562853e-001
1.353841e+003;1.571836e-001
1.355769e+003;1.581795e-001
1.357698e+003;1.592493e-001
1.359626e+003;1.604484e-001
1.361555e+003;1.613476e-001
1.363483e+003;1.618587e-001
1.365412e+003;1.620083e-001
1.367341e+003;1.615506e-001
1.369269e+003;1.607216e-001
1.371198e+003;1.594586e-001
1.373126e+003;1.577300e-001
1.375055e+003;1.559440e-001
1.376983e+003;1.538028e-001
1.378912e+003;1.511713e-001
1.380840e+003;1.483556e-001
1.382769e+003;1.456453e-001
1.384698e+003;1.432812e-001
1.386626e+003;1.414099e-001
1.388555e+003;1.399611e-001
1.390483e+003;1.388451e-001
1.392412e+003;1.378978e-001
1.394340e+003;1.372906e-001
1.396269e+003;1.372157e-001
1.398197e+003;1.372002e-001
1.400126e+003;1.368146e-001
1.402054e+003;1.364089e-001
1.403983e+003;1.361873e-001
1.405911e+003;1.360208e-001
1.407840e+003;1.361559e-001
1.409769e+003;1.364164e-001
1.411697e+003;1.366133e-001
1.413626e+003;1.366790e-001
1.415554e+003;1.367706e-001
1.417483e+003;1.367688e-001
1.419411e+003;1.367326e-001
1.421340e+003;1.367808e-001
1.423268e+003;1.362550e-001
1.425197e+003;1.357275e-001
1.427125e+003;1.351927e-001
1.429054e+003;1.345043e-001
1.430983e+003;1.342008e-001
1.432911e+003;1.341079e-001
1.434840e+003;1.333094e-001
1.436768e+003;1.321684e-001
1.438697e+003;1.313689e-001
1.440625e+003;1.305548e-001
1.442554e+003;1.296188e-001
1.444482e+003;1.286400e-001
1.446411e+003;1.275500e-001
1.448340e+003;1.264850e-001
1.450268e+003;1.255349e-001
1.452197e+003;1.243643e-001
1.454125e+003;1.228449e-001
1.456054e+003;1.212671e-001
1.457982e+003;1.203668e-001
1.459911e+003;1.196873e-001
1.461839e+003;1.187251e-001
1.463768e+003;1.175293e-001
1.465697e+003;1.160759e-001
1.467625e+003;1.145507e-001
1.469554e+003;1.127241e-001
1.471482e+003;1.109082e-001
1.473411e+003;1.089973e-001
1.475339e+003;1.068639e-001
1.477268e+003;1.045692e-001
1.479196e+003;1.023643e-001
1.481125e+003;1.003339e-001
1.483053e+003;9.838296e-002
1.484982e+003;9.654135e-002
1.486911e+003;9.486789e-002
1.488839e+003;9.338309e-002
1.490768e+003;9.221971e-002
1.492696e+003;9.112111e-002
1.494625e+003;8.968893e-002
1.496553e+003;8.852012e-002
1.498482e+003;8.814007e-002
1.500410e+003;8.781746e-002
1.502339e+003;8.740334e-002
1.504267e+003;8.652485e-002
1.506196e+003;8.559930e-002
1.508125e+003;8.539525e-002
1.510053e+003;8.535278e-002
1.511982e+003;8.483251e-002
1.513910e+003;8.441157e-002
1.515839e+003;8.412751e-002
1.517767e+003;8.375350e-002
1.519696e+003;8.339254e-002
1.521624e+003;8.308010e-002
1.523553e+003;8.313330e-002
1.525481e+003;8.313193e-002
1.527410e+003;8.304323e-002
1.529339e+003;8.312050e-002
1.531267e+003;8.324730e-002
1.533196e+003;8.319385e-002
1.535124e+003;8.311163e-002
1.537053e+003;8.314413e-002
1.538981e+003;8.275869e-002
1.540910e+003;8.243705e-002
1.542838e+003;8.257449e-002
1.544767e+003;8.284049e-002
1.546695e+003;8.311087e-002
1.548624e+003;8.307267e-002
1.550553e+003;8.302192e-002
1.552481e+003;8.316680e-002
1.554410e+003;8.311035e-002
1.556338e+003;8.280624e-002
1.558267e+003;8.213327e-002
1.560195e+003;8.240762e-002
1.562124e+003;8.333638e-002
1.564052e+003;8.356653e-002
1.565981e+003;8.364341e-002
1.567910e+003;8.352312e-002
1.569838e+003;8.343212e-002
1.571767e+003;8.381446e-002
1.573695e+003;8.400249e-002
1.575624e+003;8.383825e-002
1.577552e+003;8.413089e-002
1.579481e+003;8.456980e-002
1.581409e+003;8.486357e-002
1.583338e+003;8.506092e-002
1.585266e+003;8.521838e-002
1.587195e+003;8.541283e-002
1.589124e+003;8.562198e-002
1.591052e+003;8.596009e-002
1.592981e+003;8.651369e-002
1.594909e+003;8.673619e-002
1.596838e+003;8.675064e-002
1.598766e+003;8.701307e-002
1.600695e+003;8.753996e-002
1.602623e+003;8.804352e-002
1.604552e+003;8.826872e-002
1.606480e+003;8.855810e-002
1.608409e+003;8.898743e-002
1.610338e+003;8.958755e-002
1.612266e+003;9.023719e-002
1.614195e+003;9.053410e-002
1.616123e+003;9.060357e-002
1.618052e+003;9.103718e-002
1.619980e+003;9.168781e-002
1.621909e+003;9.202755e-002
1.623837e+003;9.244225e-002
1.625766e+003;9.311950e-002
1.627694e+003;9.380098e-002
1.629623e+003;9.446388e-002
1.631552e+003;9.477872e-002
1.633480e+003;9.465485e-002
1.635409e+003;9.463619e-002
1.637337e+003;9.486413e-002
1.639266e+003;9.512507e-002
1.641194e+003;9.540523e-002
1.643123e+003;9.528956e-002
1.645051e+003;9.468724e-002
1.646980e+003;9.438662e-002
1.648909e+003;9.436958e-002
1.650837e+003;9.347882e-002
1.652766e+003;9.235941e-002
1.654694e+003;9.233285e-002
1.656623e+003;9.254323e-002
1.658551e+003;9.214531e-002
1.660480e+003;9.145923e-002
1.662408e+003;9.047390e-002
1.664337e+003;8.975724e-002
1.666266e+003;8.924995e-002
1.668194e+003;8.820433e-002
1.670123e+003;8.737729e-002
1.672051e+003;8.709311e-002
1.673980e+003;8.642239e-002
1.675908e+003;8.558623e-002
1.677837e+003;8.507370e-002
1.679765e+003;8.438046e-002
1.681694e+003;8.342301e-002
1.683622e+003;8.250893e-002
1.685551e+003;8.212402e-002
1.687479e+003;8.193924e-002
1.689408e+003;8.143115e-002
1.691337e+003;8.095325e-002
1.693265e+003;8.041733e-002
1.695194e+003;7.952844e-002
1.697122e+003;7.893229e-002
1.699051e+003;7.833436e-002
1.700979e+003;7.796676e-002
1.702908e+003;7.802383e-002
1.704836e+003;7.768174e-002
1.706765e+003;7.737742e-002
1.708693e+003;7.724661e-002
1.710622e+003;7.736094e-002
1.712551e+003;7.716975e-002
1.714479e+003;7.658649e-002
1.716408e+003;7.599684e-002
1.718336e+003;7.583350e-002
1.720265e+003;7.595169e-002
1.722193e+003;7.605964e-002
1.724122e+003;7.626425e-002
1.726050e+003;7.636771e-002
1.727979e+003;7.616592e-002
1.729908e+003;7.589442e-002
1.731836e+003;7.533657e-002
1.733765e+003;7.453932e-002
1.735693e+003;7.443206e-002
1.737622e+003;7.433795e-002
1.739550e+003;7.375503e-002
1.741479e+003;7.347519e-002
1.743407e+003;7.320545e-002
1.745336e+003;7.296864e-002
1.747265e+003;7.268209e-002
1.749193e+003;7.230145e-002
1.751122e+003;7.230873e-002
1.753050e+003;7.280593e-002
1.754979e+003;7.294210e-002
1.756907e+003;7.296354e-002
1.758836e+003;7.313552e-002
1.760764e+003;7.313329e-002
1.762693e+003;7.299506e-002
1.764621e+003;7.310863e-002
1.766550e+003;7.300188e-002
1.768479e+003;7.267950e-002
1.770407e+003;7.252795e-002
1.772336e+003;7.240920e-002
1.774264e+003;7.261946e-002
1.776193e+003;7.296072e-002
1.778121e+003;7.302426e-002
1.780050e+003;7.281882e-002
1.781978e+003;7.271946e-002
1.783907e+003;7.266219e-002
1.785835e+003;7.260533e-002
1.787764e+003;7.256843e-002
1.789693e+003;7.241401e-002
1.791621e+003;7.227859e-002
1.793550e+003;7.228458e-002
1.795478e+003;7.217556e-002
1.797407e+003;7.204401e-002
1.799335e+003;7.205582e-002
1.801264e+003;7.204185e-002
1.803192e+003;7.199242e-002
1.805121e+003;7.201322e-002
1.807049e+003;7.192614e-002
1.808978e+003;7.183625e-002
1.810907e+003;7.183390e-002
1.812835e+003;7.194647e-002
1.814764e+003;7.211281e-002
1.816692e+003;7.210604e-002
1.818621e+003;7.194717e-002
1.820549e+003;7.189704e-002
1.822478e+003;7.185388e-002
1.824406e+003;7.176397e-002
1.826335e+003;7.169858e-002
1.828264e+003;7.161324e-002
1.830192e+003;7.168451e-002
1.832121e+003;7.167322e-002
1.834049e+003;7.158937e-002
1.835978e+003;7.155272e-002
1.837906e+003;7.153697e-002
1.839835e+003;7.162996e-002
1.841763e+003;7.147236e-002
1.843692e+003;7.111201e-002
1.845620e+003;7.125972e-002
1.847549e+003;7.135136e-002
1.849478e+003;7.108793e-002
1.851406e+003;7.092100e-002
1.853335e+003;7.102498e-002
1.855263e+003;7.108723e-002
1.857192e+003;7.093162e-002
1.859120e+003;7.096856e-002
1.861049e+003;7.114905e-002
1.862977e+003;7.100079e-002
1.864906e+003;7.083882e-002
1.866834e+003;7.077119e-002
1.868763e+003;7.069039e-002
1.870692e+003;7.080520e-002
1.872620e+003;7.090669e-002
1.874549e+003;7.095838e-002
1.876477e+003;7.073453e-002
1.878406e+003;7.054970e-002
1.880334e+003;7.071465e-002
1.882263e+003;7.077103e-002
1.884191e+003;7.074209e-002
1.886120e+003;7.086714e-002
1.888048e+003;7.076557e-002
1.889977e+003;7.060302e-002
1.891906e+003;7.070728e-002
1.893834e+003;7.075099e-002
1.895763e+003;7.077173e-002
1.897691e+003;7.078417e-002
1.899620e+003;7.083000e-002
1.901548e+003;7.075707e-002
1.903477e+003;7.076865e-002
1.905405e+003;7.083402e-002
1.907334e+003;7.076620e-002
1.909262e+003;7.081611e-002
1.911191e+003;7.109617e-002
1.913120e+003;7.120273e-002
1.915048e+003;7.110940e-002
1.916977e+003;7.095522e-002
1.918905e+003;7.105280e-002
1.920834e+003;7.132180e-002
1.922762e+003;7.144134e-002
1.924691e+003;7.143974e-002
1.926619e+003;7.147080e-002
1.928548e+003;7.165239e-002
1.930477e+003;7.175866e-002
1.932405e+003;7.184501e-002
1.934334e+003;7.184536e-002
1.936262e+003;7.179423e-002
1.938191e+003;7.186225e-002
1.940119e+003;7.196520e-002
1.942048e+003;7.199465e-002
1.943976e+003;7.197846e-002
1.945905e+003;7.190835e-002
1.947833e+003;7.212975e-002
1.949762e+003;7.250065e-002
1.951691e+003;7.253107e-002
1.953619e+003;7.243723e-002
1.955548e+003;7.236798e-002
1.957476e+003;7.247775e-002
1.959405e+003;7.256013e-002
1.961333e+003;7.243797e-002
1.963262e+003;7.241233e-002
1.965190e+003;7.259256e-002
1.967119e+003;7.272612e-002
1.969047e+003;7.267284e-002
1.970976e+003;7.272840e-002
1.972905e+003;7.283182e-002
1.974833e+003;7.284789e-002
1.976762e+003;7.304837e-002
1.978690e+003;7.337003e-002
1.980619e+003;7.345992e-002
1.982547e+003;7.335261e-002
1.984476e+003;7.330911e-002
1.986404e+003;7.329499e-002
1.988333e+003;7.332582e-002
1.990261e+003;7.352487e-002
1.992190e+003;7.356381e-002
1.994119e+003;7.339910e-002
1.996047e+003;7.339408e-002
1.997976e+003;7.355847e-002
1.999904e+003;7.361437e-002
2.001833e+003;7.376297e-002
2.003761e+003;7.393896e-002
2.005690e+003;7.398622e-002
2.007618e+003;7.396642e-002
2.009547e+003;7.403050e-002
2.011476e+003;7.404359e-002
2.013404e+003;7.402430e-002
2.015333e+003;7.382379e-002
2.017261e+003;7.395181e-002
2.019190e+003;7.434236e-002
2.021118e+003;7.434382e-002
2.023047e+003;7.441546e-002
2.024975e+003;7.473051e-002
2.026904e+003;7.470799e-002
2.028833e+003;7.462776e-002
2.030761e+003;7.460926e-002
2.032690e+003;7.472574e-002
2.034618e+003;7.499466e-002
2.036547e+003;7.503448e-002
2.038475e+003;7.495749e-002
2.040404e+003;7.488473e-002
2.042332e+003;7.472098e-002
2.044261e+003;7.456087e-002
2.046189e+003;7.450616e-002
2.048118e+003;7.450329e-002
2.050047e+003;7.467624e-002
2.051975e+003;7.491115e-002
2.053904e+003;7.495029e-002
2.055832e+003;7.489327e-002
2.057761e+003;7.464743e-002
2.059689e+003;7.444456e-002
2.061618e+003;7.479450e-002
2.063546e+003;7.526807e-002
2.065475e+003;7.530693e-002
2.067404e+003;7.509249e-002
2.069332e+003;7.486122e-002
2.071260e+003;7.470213e-002
2.073189e+003;7.469725e-002
2.075118e+003;7.490398e-002
2.077046e+003;7.505377e-002
2.078975e+003;7.498100e-002
2.080903e+003;7.496025e-002
2.082832e+003;7.490693e-002
2.084760e+003;7.475451e-002
2.086689e+003;7.469564e-002
2.088617e+003;7.482989e-002
2.090546e+003;7.482497e-002
2.092475e+003;7.494969e-002
2.094403e+003;7.503574e-002
2.096332e+003;7.501691e-002
2.098260e+003;7.504459e-002
2.100189e+003;7.520173e-002
2.102117e+003;7.512814e-002
2.104046e+003;7.511498e-002
2.105974e+003;7.523825e-002
2.107903e+003;7.516544e-002
2.109832e+003;7.520669e-002
2.111760e+003;7.526788e-002
2.113688e+003;7.513728e-002
2.115617e+003;7.521670e-002
2.117546e+003;7.541753e-002
2.119474e+003;7.533909e-002
2.121403e+003;7.527978e-002
2.123331e+003;7.536597e-002
2.125260e+003;7.541591e-002
2.127188e+003;7.542849e-002
2.129117e+003;7.549787e-002
2.131045e+003;7.548521e-002
2.132974e+003;7.539147e-002
2.134903e+003;7.530772e-002
2.136831e+003;7.531209e-002
2.138760e+003;7.551565e-002
2.140688e+003;7.554991e-002
2.142617e+003;7.553492e-002
2.144545e+003;7.555543e-002
2.146474e+003;7.555070e-002
2.148402e+003;7.550272e-002
2.150331e+003;7.535868e-002
2.152260e+003;7.521690e-002
2.154188e+003;7.509233e-002
2.156117e+003;7.509891e-002
2.158045e+003;7.513928e-002
2.159974e+003;7.517891e-002
2.161902e+003;7.513231e-002
2.163831e+003;7.508304e-002
2.165759e+003;7.513243e-002
2.167688e+003;7.499482e-002
2.169616e+003;7.491016e-002
2.171545e+003;7.494095e-002
2.173474e+003;7.481611e-002
2.175402e+003;7.476211e-002
2.177331e+003;7.470689e-002
2.179259e+003;7.472905e-002
2.181188e+003;7.468383e-002
2.183116e+003;7.463248e-002
2.185045e+003;7.467502e-002
2.186973e+003;7.453164e-002
2.188902e+003;7.439159e-002
2.190831e+003;7.438400e-002
2.192759e+003;7.435946e-002
2.194688e+003;7.427776e-002
2.196616e+003;7.418168e-002
2.198545e+003;7.406092e-002
2.200473e+003;7.421144e-002
2.202402e+003;7.434185e-002
2.204330e+003;7.415193e-002
2.206259e+003;7.401483e-002
2.208188e+003;7.390490e-002
2.210116e+003;7.383982e-002
2.212044e+003;7.382388e-002
2.213973e+003;7.391889e-002
2.215902e+003;7.392611e-002
2.217830e+003;7.382113e-002
2.219759e+003;7.382388e-002
2.221687e+003;7.379050e-002
2.223616e+003;7.359607e-002
2.225544e+003;7.335752e-002
2.227473e+003;7.345561e-002
2.229401e+003;7.355199e-002
2.231330e+003;7.346349e-002
2.233259e+003;7.353885e-002
2.235187e+003;7.352393e-002
2.237116e+003;7.322364e-002
2.239044e+003;7.305041e-002
2.240973e+003;7.320838e-002
2.242901e+003;7.316557e-002
2.244830e+003;7.285137e-002
2.246758e+003;7.282967e-002
2.248687e+003;7.291553e-002
2.250615e+003;7.301944e-002
2.252544e+003;7.314878e-002
2.254473e+003;7.291236e-002
2.256401e+003;7.269396e-002
2.258330e+003;7.273415e-002
2.260258e+003;7.274453e-002
2.262187e+003;7.258516e-002
2.264115e+003;7.256883e-002
2.266044e+003;7.271797e-002
2.267972e+003;7.258480e-002
2.269901e+003;7.244200e-002
2.271830e+003;7.251107e-002
2.273758e+003;7.239252e-002
2.275687e+003;7.210159e-002
2.277615e+003;7.194284e-002
2.279544e+003;7.173865e-002
2.281472e+003;7.171848e-002
2.283401e+003;7.222252e-002
2.285329e+003;7.253546e-002
2.287258e+003;7.231811e-002
2.289187e+003;7.203806e-002
2.291115e+003;7.198350e-002
2.293043e+003;7.183535e-002
2.294972e+003;7.185514e-002
2.296901e+003;7.202937e-002
2.298829e+003;7.210390e-002
2.300758e+003;7.211645e-002
2.302686e+003;7.192500e-002
2.304615e+003;7.186029e-002
2.306543e+003;7.208292e-002
2.308472e+003;7.232849e-002
2.310400e+003;7.257243e-002
2.312329e+003;7.239471e-002
2.314258e+003;7.227847e-002
2.316186e+003;7.226716e-002
2.318115e+003;7.187468e-002
2.320043e+003;7.149255e-002
2.321972e+003;7.163340e-002
2.323900e+003;7.195637e-002
2.325829e+003;7.194369e-002
2.327757e+003;7.196911e-002
2.329686e+003;7.220827e-002
2.331615e+003;7.217415e-002
2.333543e+003;7.197983e-002
2.335472e+003;7.220142e-002
2.337400e+003;7.243469e-002
2.339329e+003;7.242458e-002
2.341257e+003;7.251447e-002
2.343186e+003;7.249999e-002
2.345114e+003;7.237691e-002
2.347043e+003;7.272553e-002
2.348971e+003;7.308687e-002
2.350900e+003;7.288057e-002
2.352829e+003;7.273176e-002
2.354757e+003;7.278328e-002
2.356686e+003;7.278007e-002
2.358614e+003;7.272475e-002
2.360543e+003;7.284868e-002
2.362471e+003;7.293426e-002
2.364400e+003;7.304230e-002
2.366328e+003;7.309314e-002
2.368257e+003;7.303786e-002
2.370186e+003;7.324580e-002
2.372114e+003;7.345918e-002
2.374042e+003;7.362532e-002
2.375971e+003;7.377262e-002
2.377900e+003;7.364804e-002
2.379828e+003;7.346707e-002
2.381757e+003;7.361794e-002
2.383685e+003;7.362323e-002
2.385614e+003;7.347735e-002
2.387542e+003;7.326180e-002
2.389471e+003;7.332163e-002
2.391399e+003;7.380821e-002
2.393328e+003;7.413264e-002
2.395257e+003;7.423774e-002
2.397185e+003;7.433315e-002
2.399114e+003;7.432978e-002
2.401042e+003;7.419108e-002
2.402971e+003;7.423601e-002
2.404899e+003;7.440995e-002
2.406828e+003;7.438223e-002
2.408756e+003;7.445975e-002
2.410685e+003;7.468501e-002
2.412614e+003;7.488020e-002
2.414542e+003;7.507638e-002
2.416471e+003;7.529787e-002
2.418399e+003;7.536045e-002
2.420328e+003;7.530658e-002
2.422256e+003;7.528912e-002
2.424185e+003;7.531674e-002
2.426113e+003;7.534216e-002
2.428042e+003;7.552515e-002
2.429970e+003;7.569626e-002
2.431899e+003;7.578348e-002
2.433828e+003;7.575823e-002
2.435756e+003;7.601161e-002
2.437685e+003;7.623578e-002
2.439613e+003;7.622243e-002
2.441542e+003;7.639077e-002
2.443470e+003;7.647540e-002
2.445399e+003;7.644427e-002
2.447327e+003;7.646659e-002
2.449256e+003;7.669468e-002
2.451185e+003;7.707976e-002
2.453113e+003;7.719974e-002
2.455042e+003;7.715304e-002
2.456970e+003;7.719594e-002
2.458899e+003;7.709974e-002
2.460827e+003;7.717588e-002
2.462756e+003;7.751254e-002
2.464684e+003;7.750469e-002
2.466613e+003;7.760852e-002
2.468542e+003;7.783412e-002
2.470470e+003;7.773317e-002
2.472398e+003;7.767417e-002
2.474327e+003;7.776000e-002
2.476256e+003;7.791062e-002
2.478184e+003;7.800594e-002
2.480113e+003;7.833440e-002
2.482041e+003;7.858852e-002
2.483970e+003;7.850551e-002
2.485898e+003;7.836424e-002
2.487827e+003;7.821778e-002
2.489755e+003;7.833432e-002
2.491684e+003;7.864340e-002
2.493613e+003;7.890224e-002
2.495541e+003;7.895923e-002
2.497470e+003;7.916020e-002
2.499398e+003;7.917713e-002
2.501327e+003;7.884511e-002
2.503255e+003;7.868665e-002
2.505184e+003;7.876728e-002
2.507112e+003;7.895029e-002
2.509041e+003;7.903756e-002
2.510969e+003;7.916911e-002
2.512898e+003;7.944644e-002
2.514827e+003;7.953278e-002
2.516755e+003;7.935900e-002
2.518684e+003;7.947867e-002
2.520612e+003;7.988529e-002
2.522541e+003;8.013017e-002
2.524469e+003;8.008207e-002
2.526398e+003;8.010403e-002
2.528326e+003;8.003698e-002
2.530255e+003;8.002216e-002
2.532184e+003;7.995185e-002
2.534112e+003;7.982755e-002
2.536041e+003;7.997862e-002
2.537969e+003;8.014758e-002
2.539898e+003;8.033571e-002
2.541826e+003;8.046012e-002
2.543755e+003;8.046697e-002
2.545683e+003;8.039978e-002
2.547612e+003;8.049660e-002
2.549541e+003;8.079430e-002
2.551469e+003;8.089481e-002
2.553397e+003;8.072112e-002
2.555326e+003;8.048137e-002
2.557255e+003;8.047379e-002
2.559183e+003;8.078189e-002
2.561112e+003;8.133420e-002
2.563040e+003;8.145853e-002
2.564969e+003;8.122521e-002
2.566897e+003;8.110506e-002
2.568826e+003;8.114927e-002
2.570754e+003;8.125425e-002
2.572683e+003;8.126947e-002
2.574612e+003;8.122425e-002
2.576540e+003;8.128645e-002
2.578469e+003;8.152752e-002
2.580397e+003;8.170874e-002
2.582326e+003;8.154180e-002
2.584254e+003;8.142128e-002
2.586183e+003;8.153912e-002
2.588111e+003;8.184613e-002
2.590040e+003;8.217318e-002
2.591969e+003;8.209068e-002
2.593897e+003;8.213575e-002
2.595826e+003;8.240064e-002
2.597754e+003;8.257088e-002
2.599683e+003;8.245797e-002
2.601611e+003;8.220829e-002
2.603540e+003;8.234080e-002
2.605468e+003;8.249479e-002
2.607397e+003;8.249046e-002
2.609325e+003;8.276948e-002
2.611254e+003;8.298711e-002
2.613183e+003;8.298001e-002
2.615111e+003;8.315901e-002
2.617040e+003;8.354717e-002
2.618968e+003;8.368427e-002
2.620897e+003;8.361799e-002
2.622825e+003;8.343867e-002
2.624754e+003;8.331803e-002
2.626682e+003;8.346099e-002
2.628611e+003;8.378444e-002
2.630540e+003;8.413129e-002
2.632468e+003;8.435101e-002
2.634396e+003;8.436050e-002
2.636325e+003;8.434179e-002
2.638254e+003;8.447862e-002
2.640182e+003;8.432957e-002
2.642111e+003;8.414822e-002
2.644039e+003;8.449560e-002
2.645968e+003;8.477612e-002
2.647896e+003;8.488694e-002
2.649825e+003;8.521403e-002
2.651753e+003;8.551110e-002
2.653682e+003;8.558422e-002
2.655611e+003;8.556743e-002
2.657539e+003;8.580370e-002
2.659468e+003;8.593298e-002
2.661396e+003;8.600629e-002
2.663325e+003;8.632828e-002
2.665253e+003;8.656979e-002
2.667182e+003;8.678427e-002
2.669110e+003;8.696599e-002
2.671039e+003;8.694542e-002
2.672968e+003;8.683695e-002
2.674896e+003;8.695594e-002
2.676825e+003;8.739840e-002
2.678753e+003;8.752505e-002
2.680682e+003;8.748877e-002
2.682610e+003;8.775772e-002
2.684539e+003;8.803881e-002
2.686467e+003;8.803041e-002
2.688396e+003;8.824570e-002
2.690324e+003;8.860149e-002
2.692253e+003;8.881617e-002
2.694182e+003;8.887748e-002
2.696110e+003;8.885674e-002
2.698039e+003;8.881544e-002
2.699967e+003;8.903054e-002
2.701896e+003;8.918081e-002
2.703824e+003;8.934620e-002
2.705753e+003;8.951148e-002
2.707681e+003;8.958434e-002
2.709610e+003;8.982904e-002
2.711539e+003;9.000840e-002
2.713467e+003;9.007131e-002
2.715396e+003;9.041730e-002
2.717324e+003;9.045798e-002
2.719253e+003;9.036532e-002
2.721181e+003;9.075066e-002
2.723110e+003;9.087449e-002
2.725038e+003;9.067595e-002
2.726967e+003;9.070751e-002
2.728896e+003;9.097278e-002
2.730824e+003;9.134178e-002
2.732752e+003;9.156955e-002
2.734681e+003;9.173638e-002
2.736610e+003;9.185996e-002
2.738538e+003;9.191400e-002
2.740467e+003;9.194385e-002
2.742395e+003;9.209345e-002
2.744324e+003;9.209726e-002
2.746252e+003;9.171072e-002
2.748181e+003;9.141334e-002
2.750109e+003;9.148774e-002
2.752038e+003;9.196359e-002
2.753967e+003;9.249817e-002
2.755895e+003;9.254319e-002
2.757824e+003;9.264112e-002
2.759752e+003;9.299138e-002
2.761681e+003;9.309930e-002
2.763609e+003;9.305837e-002
2.765538e+003;9.341990e-002
2.767466e+003;9.374596e-002
2.769395e+003;9.381319e-002
2.771323e+003;9.398619e-002
2.773252e+003;9.416646e-002
2.775181e+003;9.414876e-002
2.777109e+003;9.423047e-002
2.779038e+003;9.461122e-002
2.780966e+003;9.510341e-002
2.782895e+003;9.552012e-002
2.784823e+003;9.580553e-002
2.786752e+003;9.586816e-002
2.788680e+003;9.620119e-002
2.790609e+003;9.690724e-002
2.792538e+003;9.715548e-002
2.794466e+003;9.723070e-002
2.796395e+003;9.755196e-002
2.798323e+003;9.781598e-002
2.800252e+003;9.807919e-002
2.802180e+003;9.857437e-002
2.804109e+003;9.914913e-002
2.806037e+003;9.966134e-002
2.807966e+003;1.001600e-001
2.809895e+003;1.007053e-001
2.811823e+003;1.009796e-001
2.813751e+003;1.011914e-001
2.815680e+003;1.016151e-001
2.817609e+003;1.020894e-001
2.819537e+003;1.024594e-001
2.821466e+003;1.028128e-001
2.823394e+003;1.033067e-001
2.825323e+003;1.039648e-001
2.827251e+003;1.045200e-001
2.829180e+003;1.049956e-001
2.831108e+003;1.053261e-001
2.833037e+003;1.061775e-001
2.834966e+003;1.072594e-001
2.836894e+003;1.080881e-001
2.838823e+003;1.087221e-001
2.840751e+003;1.094827e-001
2.842680e+003;1.105391e-001
2.844608e+003;1.115840e-001
2.846537e+003;1.129072e-001
2.848465e+003;1.138103e-001
2.850394e+003;1.144529e-001
2.852323e+003;1.155753e-001
2.854251e+003;1.168001e-001
2.856180e+003;1.183511e-001
2.858108e+003;1.200382e-001
2.860037e+003;1.216266e-001
2.861965e+003;1.233583e-001
2.863894e+003;1.250923e-001
2.865822e+003;1.267555e-001
2.867751e+003;1.282375e-001
2.869679e+003;1.295879e-001
2.871608e+003;1.306783e-001
2.873536e+003;1.316347e-001
2.875465e+003;1.324796e-001
2.877394e+003;1.332491e-001
2.879322e+003;1.340919e-001
2.881251e+003;1.346164e-001
2.883179e+003;1.350070e-001
2.885108e+003;1.354032e-001
2.887036e+003;1.359519e-001
2.888965e+003;1.365184e-001
2.890893e+003;1.366884e-001
2.892822e+003;1.365051e-001
2.894750e+003;1.364346e-001
2.896679e+003;1.362593e-001
2.898608e+003;1.354629e-001
2.900536e+003;1.347261e-001
2.902465e+003;1.341558e-001
2.904393e+003;1.336292e-001
2.906322e+003;1.329400e-001
2.908250e+003;1.320370e-001
2.910179e+003;1.312061e-001
2.912107e+003;1.301780e-001
2.914036e+003;1.289046e-001
2.915965e+003;1.278068e-001
2.917893e+003;1.270316e-001
2.919822e+003;1.258885e-001
2.921750e+003;1.242850e-001
2.923679e+003;1.223146e-001
2.925607e+003;1.208721e-001
2.927536e+003;1.197485e-001
2.929464e+003;1.186446e-001
2.931393e+003;1.177185e-001
2.933322e+003;1.169315e-001
2.935250e+003;1.160770e-001
2.937178e+003;1.148650e-001
2.939107e+003;1.133732e-001
2.941036e+003;1.120001e-001
2.942964e+003;1.105141e-001
2.944893e+003;1.091001e-001
2.946821e+003;1.077957e-001
2.948750e+003;1.064744e-001
2.950678e+003;1.052085e-001
2.952607e+003;1.040746e-001
2.954535e+003;1.029236e-001
2.956464e+003;1.020820e-001
2.958393e+003;1.012650e-001
2.960321e+003;1.000666e-001
2.962250e+003;9.911329e-002
2.964178e+003;9.838437e-002
2.966107e+003;9.771559e-002
2.968035e+003;9.715909e-002
2.969964e+003;9.662391e-002
2.971892e+003;9.629440e-002
2.973821e+003;9.573683e-002
2.975750e+003;9.504168e-002
2.977678e+003;9.498563e-002
2.979607e+003;9.499990e-002
2.981535e+003;9.470002e-002
2.983464e+003;9.448793e-002
2.985392e+003;9.412564e-002
2.987321e+003;9.369008e-002
2.989249e+003;9.326585e-002
2.991178e+003;9.301260e-002
2.993106e+003;9.277459e-002
2.995035e+003;9.258383e-002
2.996964e+003;9.229703e-002
2.998892e+003;9.200507e-002
3.000821e+003;9.214634e-002
3.002749e+003;9.271195e-002
3.004678e+003;9.300513e-002
3.006606e+003;9.310156e-002
3.008535e+003;9.290133e-002
3.010463e+003;9.282710e-002
3.012392e+003;9.336255e-002
3.014321e+003;9.355883e-002
3.016249e+003;9.368137e-002
3.018177e+003;9.408214e-002
3.020106e+003;9.432963e-002
3.022035e+003;9.447743e-002
3.023963e+003;9.522502e-002
3.025892e+003;9.590700e-002
3.027820e+003;9.603913e-002
3.029749e+003;9.635976e-002
3.031677e+003;9.694841e-002
3.033606e+003;9.718797e-002
3.035534e+003;9.736477e-002
3.037463e+003;9.771725e-002
3.039392e+003;9.803795e-002
3.041320e+003;9.820309e-002
3.043249e+003;9.871834e-002
3.045177e+003;9.944165e-002
3.047106e+003;9.995083e-002
3.049034e+003;1.002424e-001
3.050963e+003;1.007263e-001
3.052891e+003;1.013544e-001
3.054820e+003;1.018500e-001
3.056749e+003;1.024775e-001
3.058677e+003;1.032181e-001
3.060606e+003;1.038650e-001
3.062534e+003;1.042873e-001
3.064463e+003;1.046151e-001
3.066391e+003;1.051208e-001
3.068320e+003;1.057861e-001
3.070248e+003;1.066888e-001
3.072177e+003;1.071908e-001
3.074105e+003;1.075905e-001
3.076034e+003;1.084167e-001
3.077963e+003;1.088338e-001
3.079891e+003;1.092506e-001
3.081820e+003;1.098122e-001
3.083748e+003;1.102894e-001
3.085677e+003;1.108145e-001
3.087605e+003;1.113185e-001
3.089534e+003;1.119450e-001
3.091462e+003;1.126478e-001
3.093391e+003;1.133432e-001
3.095320e+003;1.140010e-001
3.097248e+003;1.148869e-001
3.099177e+003;1.156791e-001
3.101105e+003;1.162958e-001
3.103034e+003;1.169346e-001
3.104962e+003;1.177669e-001
3.106891e+003;1.185701e-001
3.108819e+003;1.190917e-001
3.110748e+003;1.196665e-001
3.112677e+003;1.202425e-001
3.114605e+003;1.210141e-001
3.116533e+003;1.220770e-001
3.118462e+003;1.228949e-001
3.120391e+003;1.236530e-001
3.122319e+003;1.240927e-001
3.124248e+003;1.245393e-001
3.126176e+003;1.254795e-001
3.128105e+003;1.262261e-001
3.130033e+003;1.266980e-001
3.131962e+003;1.270747e-001
3.133890e+003;1.278396e-001
3.135819e+003;1.288976e-001
3.137748e+003;1.295041e-001
3.139676e+003;1.301836e-001
3.141605e+003;1.312799e-001
3.143533e+003;1.318752e-001
3.145462e+003;1.321157e-001
3.147390e+003;1.328110e-001
3.149319e+003;1.340442e-001
3.151247e+003;1.349789e-001
3.153176e+003;1.355413e-001
3.155104e+003;1.356295e-001
3.157033e+003;1.357780e-001
3.158962e+003;1.366013e-001
3.160890e+003;1.374424e-001
3.162819e+003;1.382388e-001
3.164747e+003;1.389055e-001
3.166676e+003;1.393230e-001
3.168604e+003;1.400990e-001
3.170533e+003;1.406543e-001
3.172461e+003;1.411311e-001
3.174390e+003;1.417205e-001
3.176319e+003;1.423535e-001
3.178247e+003;1.431799e-001
3.180176e+003;1.438297e-001
3.182104e+003;1.442328e-001
3.184033e+003;1.445061e-001
3.185961e+003;1.450890e-001
3.187890e+003;1.459695e-001
3.189818e+003;1.467990e-001
3.191747e+003;1.473661e-001
3.193676e+003;1.478844e-001
3.195604e+003;1.484444e-001
3.197532e+003;1.488078e-001
3.199461e+003;1.493576e-001
3.201390e+003;1.501068e-001
3.203318e+003;1.507402e-001
3.205247e+003;1.511977e-001
3.207175e+003;1.515522e-001
3.209104e+003;1.521929e-001
3.211032e+003;1.529113e-001
3.212961e+003;1.533305e-001
3.214889e+003;1.537317e-001
3.216818e+003;1.542095e-001
3.218747e+003;1.551267e-001
3.220675e+003;1.559829e-001
3.222604e+003;1.563200e-001
3.224532e+003;1.566046e-001
3.226461e+003;1.573274e-001
3.228389e+003;1.585295e-001
3.230318e+003;1.591423e-001
3.232246e+003;1.593256e-001
3.234175e+003;1.595906e-001
3.236104e+003;1.603056e-001
3.238032e+003;1.611552e-001
3.239961e+003;1.615626e-001
3.241889e+003;1.620554e-001
3.243818e+003;1.625157e-001
3.245746e+003;1.632137e-001
3.247675e+003;1.641339e-001
3.249603e+003;1.648302e-001
3.251532e+003;1.652606e-001
3.253460e+003;1.657027e-001
3.255389e+003;1.658740e-001
3.257318e+003;1.659620e-001
3.259246e+003;1.665144e-001
3.261175e+003;1.673133e-001
3.263103e+003;1.674892e-001
3.265032e+003;1.675603e-001
3.266960e+003;1.682232e-001
3.268889e+003;1.686133e-001
3.270817e+003;1.692558e-001
3.272746e+003;1.701470e-001
3.274675e+003;1.706659e-001
3.276603e+003;1.707911e-001
3.278531e+003;1.710108e-001
3.280460e+003;1.714548e-001
3.282389e+003;1.713727e-001
3.284317e+003;1.713853e-001
3.286246e+003;1.718457e-001
3.288174e+003;1.721788e-001
3.290103e+003;1.726055e-001
3.292031e+003;1.726782e-001
3.293960e+003;1.730428e-001
3.295888e+003;1.734359e-001
3.297817e+003;1.734921e-001
3.299746e+003;1.738434e-001
3.301674e+003;1.741439e-001
3.303603e+003;1.742429e-001
3.305531e+003;1.746323e-001
3.307460e+003;1.750184e-001
3.309388e+003;1.752728e-001
3.311317e+003;1.751742e-001
3.313245e+003;1.754670e-001
3.315174e+003;1.761310e-001
3.317103e+003;1.757954e-001
3.319031e+003;1.753784e-001
3.320960e+003;1.757484e-001
3.322888e+003;1.760801e-001
3.324817e+003;1.758621e-001
3.326745e+003;1.756142e-001
3.328674e+003;1.760167e-001
3.330602e+003;1.766776e-001
3.332531e+003;1.767888e-001
3.334459e+003;1.762857e-001
3.336388e+003;1.760851e-001
3.338317e+003;1.764499e-001
3.340245e+003;1.770434e-001
3.342174e+003;1.773927e-001
3.344102e+003;1.773815e-001
3.346031e+003;1.768590e-001
3.347959e+003;1.761586e-001
3.349888e+003;1.758692e-001
3.351816e+003;1.758050e-001
3.353745e+003;1.755028e-001
3.355674e+003;1.751995e-001
3.357602e+003;1.755102e-001
3.359531e+003;1.756174e-001
3.361459e+003;1.750504e-001
3.363388e+003;1.744283e-001
3.365316e+003;1.742786e-001
3.367245e+003;1.740421e-001
3.369173e+003;1.738123e-001
3.371102e+003;1.738047e-001
3.373031e+003;1.735536e-001
3.374959e+003;1.731860e-001
3.376887e+003;1.728188e-001
3.378816e+003;1.725276e-001
3.380745e+003;1.722626e-001
3.382673e+003;1.721850e-001
3.384602e+003;1.719704e-001
3.386530e+003;1.712915e-001
3.388459e+003;1.707650e-001
3.390387e+003;1.706666e-001
3.392316e+003;1.703039e-001
3.394244e+003;1.699273e-001
3.396173e+003;1.697511e-001
3.398102e+003;1.693427e-001
3.400030e+003;1.686317e-001
3.401959e+003;1.679165e-001
3.403887e+003;1.673024e-001
3.405816e+003;1.667286e-001
3.407744e+003;1.661787e-001
3.409673e+003;1.657559e-001
3.411601e+003;1.654777e-001
3.413530e+003;1.652657e-001
3.415458e+003;1.652321e-001
3.417387e+003;1.647124e-001
3.419316e+003;1.638181e-001
3.421244e+003;1.629519e-001
3.423173e+003;1.621087e-001
3.425101e+003;1.617295e-001
3.427030e+003;1.613414e-001
3.428958e+003;1.610586e-001
3.430887e+003;1.608186e-001
3.432815e+003;1.604444e-001
3.434744e+003;1.599325e-001
3.436673e+003;1.589798e-001
3.438601e+003;1.580126e-001
3.440530e+003;1.573795e-001
3.442458e+003;1.567051e-001
3.444387e+003;1.558043e-001
3.446315e+003;1.547606e-001
3.448244e+003;1.537265e-001
3.450172e+003;1.528519e-001
3.452101e+003;1.517476e-001
3.454030e+003;1.503868e-001
3.455958e+003;1.489592e-001
3.457886e+003;1.473390e-001
3.459815e+003;1.460669e-001
3.461744e+003;1.452375e-001
3.463672e+003;1.441472e-001
3.465601e+003;1.428850e-001
3.467529e+003;1.420114e-001
3.469458e+003;1.415637e-001
3.471386e+003;1.405860e-001
3.473315e+003;1.389660e-001
3.475243e+003;1.377618e-001
3.477172e+003;1.373187e-001
3.479101e+003;1.361961e-001
3.481029e+003;1.351251e-001
3.482958e+003;1.344294e-001
3.484886e+003;1.334422e-001
3.486815e+003;1.323762e-001
3.488743e+003;1.309635e-001
3.490672e+003;1.289934e-001
3.492600e+003;1.273509e-001
3.494529e+003;1.261355e-001
3.496458e+003;1.249464e-001
3.498386e+003;1.235874e-001
3.500315e+003;1.219440e-001
3.502243e+003;1.204841e-001
3.504172e+003;1.193203e-001
3.506100e+003;1.174863e-001
3.508029e+003;1.156954e-001
3.509957e+003;1.144540e-001
3.511886e+003;1.131827e-001
3.513814e+003;1.118969e-001
3.515743e+003;1.104063e-001
3.517672e+003;1.090881e-001
3.519600e+003;1.078973e-001
3.521529e+003;1.068177e-001
3.523457e+003;1.058742e-001
3.525386e+003;1.048010e-001
3.527314e+003;1.036040e-001
3.529243e+003;1.020049e-001
3.531171e+003;1.007416e-001
3.533100e+003;1.000695e-001
3.535029e+003;9.901822e-002
3.536957e+003;9.767990e-002
3.538885e+003;9.670960e-002
3.540814e+003;9.600610e-002
3.542743e+003;9.489031e-002
3.544671e+003;9.384231e-002
3.546600e+003;9.285722e-002
3.548528e+003;9.190004e-002
3.550457e+003;9.086473e-002
3.552385e+003;8.980715e-002
3.554314e+003;8.885857e-002
3.556242e+003;8.836678e-002
3.558171e+003;8.734034e-002
3.560100e+003;8.587726e-002
3.562028e+003;8.521233e-002
3.563957e+003;8.452459e-002
3.565885e+003;8.368785e-002
3.567814e+003;8.298948e-002
3.569742e+003;8.188962e-002
3.571671e+003;8.060469e-002
3.573599e+003;7.972945e-002
3.575528e+003;7.930920e-002
3.577457e+003;7.910645e-002
3.579385e+003;7.824532e-002
3.581314e+003;7.723363e-002
3.583242e+003;7.642183e-002
3.585171e+003;7.545817e-002
3.587099e+003;7.453114e-002
3.589028e+003;7.404858e-002
3.590956e+003;7.345372e-002
3.592885e+003;7.254615e-002
3.594813e+003;7.223034e-002
3.596742e+003;7.197583e-002
3.598671e+003;7.103771e-002
3.600599e+003;7.000804e-002
3.602528e+003;6.950625e-002
3.604456e+003;6.936788e-002
3.606385e+003;6.908666e-002
3.608313e+003;6.847470e-002
3.610242e+003;6.775577e-002
3.612170e+003;6.731634e-002
3.614099e+003;6.683531e-002
3.616028e+003;6.615189e-002
3.617956e+003;6.568787e-002
3.619885e+003;6.552879e-002
3.621813e+003;6.527764e-002
3.623742e+003;6.502742e-002
3.625670e+003;6.451074e-002
3.627599e+003;6.369384e-002
3.629527e+003;6.303427e-002
3.631456e+003;6.299481e-002
3.633385e+003;6.294099e-002
3.635313e+003;6.261077e-002
3.637241e+003;6.250989e-002
3.639170e+003;6.239539e-002
3.641099e+003;6.189230e-002
3.643027e+003;6.123545e-002
3.644956e+003;6.091834e-002
3.646884e+003;6.048086e-002
3.648813e+003;5.988802e-002
3.650741e+003;5.952978e-002
3.652670e+003;5.977484e-002
3.654598e+003;5.985086e-002
3.656527e+003;5.924672e-002
3.658456e+003;5.877617e-002
3.660384e+003;5.864330e-002
3.662313e+003;5.846187e-002
3.664241e+003;5.811416e-002
3.666170e+003;5.799429e-002
3.668098e+003;5.782907e-002
3.670027e+003;5.715244e-002
3.671955e+003;5.653306e-002
3.673884e+003;5.632867e-002
3.675813e+003;5.609835e-002
3.677741e+003;5.618357e-002
3.679669e+003;5.608014e-002
3.681598e+003;5.614254e-002
3.683527e+003;5.655725e-002
3.685455e+003;5.631229e-002
3.687384e+003;5.541440e-002
3.689312e+003;5.519616e-002
3.691241e+003;5.575140e-002
3.693169e+003;5.564386e-002
3.695098e+003;5.515496e-002
3.697026e+003;5.460213e-002
3.698955e+003;5.437334e-002
3.700884e+003;5.452790e-002
3.702812e+003;5.486989e-002
3.704741e+003;5.517009e-002
3.706669e+003;5.478019e-002
3.708598e+003;5.416797e-002
3.710526e+003;5.364894e-002
3.712455e+003;5.349855e-002
3.714383e+003;5.385849e-002
3.716312e+003;5.420014e-002
3.718240e+003;5.403778e-002
3.720169e+003;5.381014e-002
3.722098e+003;5.377620e-002
3.724026e+003;5.356384e-002
3.725955e+003;5.335017e-002
3.727883e+003;5.322449e-002
3.729812e+003;5.279309e-002
3.731740e+003;5.220925e-002
3.733669e+003;5.208588e-002
3.735597e+003;5.225817e-002
3.737526e+003;5.250477e-002
3.739455e+003;5.284749e-002
3.741383e+003;5.315521e-002
3.743312e+003;5.249815e-002
3.745240e+003;5.174850e-002
3.747169e+003;5.227263e-002
3.749097e+003;5.263136e-002
3.751026e+003;5.232058e-002
3.752954e+003;5.259168e-002
3.754883e+003;5.319457e-002
3.756812e+003;5.314345e-002
3.758740e+003;5.301255e-002
3.760668e+003;5.274924e-002
3.762597e+003;5.251909e-002
3.764526e+003;5.224826e-002
3.766454e+003;5.217110e-002
3.768383e+003;5.227207e-002
3.770311e+003;5.250473e-002
3.772240e+003;5.275114e-002
3.774168e+003;5.281647e-002
3.776097e+003;5.293061e-002
3.778025e+003;5.276562e-002
3.779954e+003;5.276955e-002
3.781883e+003;5.310084e-002
3.783811e+003;5.314330e-002
3.785740e+003;5.318640e-002
3.787668e+003;5.301588e-002
3.789597e+003;5.285857e-002
3.791525e+003;5.294570e-002
3.793454e+003;5.307983e-002
3.795382e+003;5.311739e-002
3.797311e+003;5.318943e-002
3.799240e+003;5.310683e-002
3.801168e+003;5.232383e-002
3.803097e+003;5.252022e-002
3.805025e+003;5.329768e-002
3.806954e+003;5.316034e-002
3.808882e+003;5.291164e-002
3.810811e+003;5.293084e-002
3.812739e+003;5.319944e-002
3.814668e+003;5.301439e-002
3.816596e+003;5.249946e-002
3.818525e+003;5.217275e-002
3.820454e+003;5.183134e-002
3.822382e+003;5.224923e-002
3.824311e+003;5.281284e-002
3.826239e+003;5.281310e-002
3.828168e+003;5.291298e-002
3.830096e+003;5.277902e-002
3.832025e+003;5.274175e-002
3.833953e+003;5.298040e-002
3.835882e+003;5.312315e-002
3.837811e+003;5.273603e-002
3.839739e+003;5.252437e-002
3.841667e+003;5.287021e-002
3.843596e+003;5.327266e-002
3.845525e+003;5.337261e-002
3.847453e+003;5.328232e-002
3.849382e+003;5.350920e-002
3.851310e+003;5.327937e-002
3.853239e+003;5.249856e-002
3.855167e+003;5.267509e-002
3.857096e+003;5.333642e-002
3.859024e+003;5.370207e-002
3.860953e+003;5.350455e-002
3.862882e+003;5.317022e-002
3.864810e+003;5.343395e-002
3.866739e+003;5.392031e-002
3.868667e+003;5.417146e-002
3.870596e+003;5.440890e-002
3.872524e+003;5.440567e-002
3.874453e+003;5.388463e-002
3.876381e+003;5.425762e-002
3.878310e+003;5.460146e-002
3.880239e+003;5.414493e-002
3.882167e+003;5.411775e-002
3.884096e+003;5.452166e-002
3.886024e+003;5.480523e-002
3.887953e+003;5.486102e-002
3.889881e+003;5.446573e-002
3.891810e+003;5.456949e-002
3.893738e+003;5.519304e-002
3.895667e+003;5.521324e-002
3.897595e+003;5.483308e-002
3.899524e+003;5.467000e-002
3.901453e+003;5.460657e-002
3.903381e+003;5.451253e-002
3.905310e+003;5.462449e-002
3.907238e+003;5.491741e-002
3.909167e+003;5.533498e-002
3.911095e+003;5.528880e-002
3.913024e+003;5.543070e-002
3.914952e+003;5.554738e-002
3.916881e+003;5.521576e-002
3.918810e+003;5.542238e-002
3.920738e+003;5.577321e-002
3.922667e+003;5.575132e-002
3.924595e+003;5.581281e-002
3.926524e+003;5.579107e-002
3.928452e+003;5.585113e-002
3.930381e+003;5.628438e-002
3.932309e+003;5.634515e-002
3.934238e+003;5.618655e-002
3.936167e+003;5.596121e-002
3.938095e+003;5.591007e-002
3.940023e+003;5.621483e-002
3.941952e+003;5.609688e-002
3.943881e+003;5.641868e-002
3.945809e+003;5.664992e-002
3.947738e+003;5.598707e-002
3.949666e+003;5.587909e-002
3.951595e+003;5.586409e-002
3.953523e+003;5.630117e-002
3.955452e+003;5.680087e-002
3.957380e+003;5.643841e-002
3.959309e+003;5.636594e-002
3.961238e+003;5.693223e-002
3.963166e+003;5.708513e-002
3.965095e+003;5.669831e-002
3.967023e+003;5.655665e-002
3.968952e+003;5.660801e-002
3.970880e+003;5.666653e-002
3.972809e+003;5.649415e-002
3.974737e+003;5.660847e-002
3.976666e+003;5.682258e-002
3.978594e+003;5.700684e-002
3.980523e+003;5.728149e-002
3.982452e+003;5.685839e-002
3.984380e+003;5.638510e-002
3.986309e+003;5.623780e-002
3.988237e+003;5.635386e-002
3.990166e+003;5.662372e-002
3.992094e+003;5.678120e-002
3.994023e+003;5.700375e-002
3.995951e+003;5.698425e-002
3.997880e+003;5.689340e-002
3.999809e+003;5.672036e-002
4.001737e+003;0.000000e+000
