3.992094e+002;0.000000e+000
4.011380e+002;0.000000e+000
4.030665e+002;0.000000e+000
4.049951e+002;0.000000e+000
4.069236e+002;0.000000e+000
4.088522e+002;0.000000e+000
4.107807e+002;0.000000e+000
4.127093e+002;0.000000e+000
4.146378e+002;0.000000e+000
4.165664e+002;0.000000e+000
4.184949e+002;0.000000e+000
4.204235e+002;0.000000e+000
4.223520e+002;0.000000e+000
4.242806e+002;0.000000e+000
4.262091e+002;0.000000e+000
4.281377e+002;0.000000e+000
4.300662e+002;0.000000e+000
4.319948e+002;0.000000e+000
4.339233e+002;0.000000e+000
4.358519e+002;0.000000e+000
4.377804e+002;0.000000e+000
4.397090e+002;0.000000e+000
4.416375e+002;0.000000e+000
4.435660e+002;0.000000e+000
4.454946e+002;0.000000e+000
4.474232e+002;0.000000e+000
4.493517e+002;0.000000e+000
4.512802e+002;0.000000e+000
4.532088e+002;0.000000e+000
4.551373e+002;0.000000e+000
4.570659e+002;0.000000e+000
4.589944e+002;0.000000e+000
4.609230e+002;0.000000e+000
4.628515e+002;0.000000e+000
4.647801e+002;0.000000e+000
4.667086e+002;0.000000e+000
4.686372e+002;0.000000e+000
4.705657e+002;0.000000e+000
4.724943e+002;0.000000e+000
4.744228e+002;0.000000e+000
4.763513e+002;0.000000e+000
4.782799e+002;0.000000e+000
4.802085e+002;0.000000e+000
4.821370e+002;0.000000e+000
4.840656e+002;0.000000e+000
4.859941e+002;0.000000e+000
4.879226e+002;0.000000e+000
4.898512e+002;0.000000e+000
4.917798e+002;0.000000e+000
4.937083e+002;0.000000e+000
4.956368e+002;0.000000e+000
4.975654e+002;0.000000e+000
4.994939e+002;0.000000e+000
5.014225e+002;0.000000e+000
5.033510e+002;0.000000e+000
5.052796e+002;0.000000e+000
5.072081e+002;0.000000e+000
5.091367e+002;0.000000e+000
5.110652e+002;0.000000e+000
5.129938e+002;0.000000e+000
5.149223e+002;0.000000e+000
5.168509e+002;0.000000e+000
5.187794e+002;0.000000e+000
5.207079e+002;0.000000e+000
5.226365e+002;0.000000e+000
5.245651e+002;0.000000e+000
5.264936e+002;0.000000e+000
5.284222e+002;0.000000e+000
5.303507e+002;0.000000e+000
5.322792e+002;0.000000e+000
5.342078e+002;0.000000e+000
5.361364e+002;0.000000e+000
5.380649e+002;0.000000e+000
5.399935e+002;0.000000e+000
5.419220e+002;0.000000e+000
5.438505e+002;0.000000e+000
5.457791e+002;0.000000e+000
5.477076e+002;0.000000e+000
5.496362e+002;0.000000e+000
5.515648e+002;0.000000e+000
5.534933e+002;0.000000e+000
5.554218e+002;0.000000e+000
5.573504e+002;0.000000e+000
5.592789e+002;0.000000e+000
5.612075e+002;0.000000e+000
5.631360e+002;0.000000e+000
5.650646e+002;0.000000e+000
5.669931e+002;0.000000e+000
5.689217e+002;0.000000e+000
5.708502e+002;0.000000e+000
5.727787e+002;0.000000e+000
5.747073e+002;0.000000e+000
5.766359e+002;0.000000e+000
5.785644e+002;0.000000e+000
5.804930e+002;0.000000e+000
5.824215e+002;0.000000e+000
5.843500e+002;0.000000e+000
5.862786e+002;0.000000e+000
5.882072e+002;0.000000e+000
5.901357e+002;0.000000e+000
5.920643e+002;0.000000e+000
5.939928e+002;0.000000e+000
5.959213e+002;0.000000e+000
5.978499e+002;0.000000e+000
5.997784e+002;2.942803e-001
6.017070e+002;2.987253e-001
6.036355e+002;2.919890e-001
6.055641e+002;2.926499e-001
6.074926e+002;2.986908e-001
6.094211e+002;3.001819e-001
6.113497e+002;2.959004e-001
6.132783e+002;2.875226e-001
6.152068e+002;2.843572e-001
6.171354e+002;2.890211e-001
6.190639e+002;2.887349e-001
6.209924e+002;2.794430e-001
6.229210e+002;2.754171e-001
6.248495e+002;2.740062e-001
6.267781e+002;2.728316e-001
6.287067e+002;2.698246e-001
6.306352e+002;2.682989e-001
6.325637e+002;2.672816e-001
6.344923e+002;2.625831e-001
6.364208e+002;2.581425e-001
6.383494e+002;2.586938e-001
6.402780e+002;2.624841e-001
6.422065e+002;2.624285e-001
6.441350e+002;2.604989e-001
6.460636e+002;2.604249e-001
6.479921e+002;2.604128e-001
6.499207e+002;2.600034e-001
6.518492e+002;2.591446e-001
6.537778e+002;2.586008e-001
6.557063e+002;2.606932e-001
6.576349e+002;2.606646e-001
6.595634e+002;2.616754e-001
6.614919e+002;2.649526e-001
6.634205e+002;2.635326e-001
6.653491e+002;2.625332e-001
6.672776e+002;2.631429e-001
6.692062e+002;2.590408e-001
6.711347e+002;2.523870e-001
6.730632e+002;2.447760e-001
6.749918e+002;2.367271e-001
6.769203e+002;2.275441e-001
6.788489e+002;2.202308e-001
6.807775e+002;2.138382e-001
6.827060e+002;2.090447e-001
6.846345e+002;2.070870e-001
6.865631e+002;2.049260e-001
6.884916e+002;2.029808e-001
6.904202e+002;2.020384e-001
6.923488e+002;2.018167e-001
6.942773e+002;2.010150e-001
6.962058e+002;1.997792e-001
6.981344e+002;1.989293e-001
7.000629e+002;1.982982e-001
7.019915e+002;1.970263e-001
7.039200e+002;1.953896e-001
7.058486e+002;1.954486e-001
7.077771e+002;1.956747e-001
7.097057e+002;1.942610e-001
7.116342e+002;1.924839e-001
7.135627e+002;1.907091e-001
7.154913e+002;1.895377e-001
7.174199e+002;1.892055e-001
7.193484e+002;1.876396e-001
7.212770e+002;1.855451e-001
7.232055e+002;1.847397e-001
7.251340e+002;1.839392e-001
7.270626e+002;1.819804e-001
7.289911e+002;1.796106e-001
7.309197e+002;1.784588e-001
7.328483e+002;1.779847e-001
7.347768e+002;1.764939e-001
7.367053e+002;1.750243e-001
7.386339e+002;1.744316e-001
7.405624e+002;1.731531e-001
7.424910e+002;1.711612e-001
7.444196e+002;1.698517e-001
7.463481e+002;1.695843e-001
7.482766e+002;1.685183e-001
7.502052e+002;1.663178e-001
7.521337e+002;1.650506e-001
7.540623e+002;1.636572e-001
7.559908e+002;1.617973e-001
7.579194e+002;1.603110e-001
7.598479e+002;1.593264e-001
7.617765e+002;1.582154e-001
7.637050e+002;1.573013e-001
7.656335e+002;1.563151e-001
7.675621e+002;1.550883e-001
7.694907e+002;1.542412e-001
7.714192e+002;1.527014e-001
7.733478e+002;1.508656e-001
7.752763e+002;1.491195e-001
7.772048e+002;1.479281e-001
7.791334e+002;1.473930e-001
7.810620e+002;1.471327e-001
7.829905e+002;1.464612e-001
7.849191e+002;1.451958e-001
7.868476e+002;1.438475e-001
7.887761e+002;1.430236e-001
7.907047e+002;1.417800e-001
7.926332e+002;1.410850e-001
7.945618e+002;1.409882e-001
7.964903e+002;1.398633e-001
7.984189e+002;1.384153e-001
8.003474e+002;1.374831e-001
8.022759e+002;1.370774e-001
8.042045e+002;1.371289e-001
8.061331e+002;1.367612e-001
8.080616e+002;1.360141e-001
8.099902e+002;1.355840e-001
8.119187e+002;1.354002e-001
8.138472e+002;1.357992e-001
8.157758e+002;1.358417e-001
8.177043e+002;1.353543e-001
8.196329e+002;1.348460e-001
8.215615e+002;1.349321e-001
8.234900e+002;1.352231e-001
8.254185e+002;1.357781e-001
8.273471e+002;1.367172e-001
8.292756e+002;1.363136e-001
8.312042e+002;1.352473e-001
8.331328e+002;1.349323e-001
8.350613e+002;1.347711e-001
8.369898e+002;1.343742e-001
8.389184e+002;1.337969e-001
8.408469e+002;1.327597e-001
8.427755e+002;1.320438e-001
8.447040e+002;1.313825e-001
8.466326e+002;1.307919e-001
8.485611e+002;1.304267e-001
8.504897e+002;1.306282e-001
8.524182e+002;1.308722e-001
8.543467e+002;1.308603e-001
8.562753e+002;1.308902e-001
8.582039e+002;1.309536e-001
8.601324e+002;1.319672e-001
8.620610e+002;1.338063e-001
8.639895e+002;1.352163e-001
8.659180e+002;1.362578e-001
8.678466e+002;1.375587e-001
8.697751e+002;1.400686e-001
8.717037e+002;1.437780e-001
8.736323e+002;1.472494e-001
8.755608e+002;1.508585e-001
8.774893e+002;1.547854e-001
8.794179e+002;1.593869e-001
8.813464e+002;1.643885e-001
8.832750e+002;1.695281e-001
8.852036e+002;1.749824e-001
8.871321e+002;1.809336e-001
8.890606e+002;1.864486e-001
8.909892e+002;1.909272e-001
8.929177e+002;1.937894e-001
8.948463e+002;1.952177e-001
8.967748e+002;1.950656e-001
8.987034e+002;1.937360e-001
9.006319e+002;1.911146e-001
9.025605e+002;1.871668e-001
9.044890e+002;1.830846e-001
9.064175e+002;1.793595e-001
9.083461e+002;1.758283e-001
9.102747e+002;1.726242e-001
9.122032e+002;1.700517e-001
9.141318e+002;1.680500e-001
9.160603e+002;1.669793e-001
9.179888e+002;1.667107e-001
9.199174e+002;1.674010e-001
9.218459e+002;1.689690e-001
9.237745e+002;1.703623e-001
9.257031e+002;1.717312e-001
9.276316e+002;1.735175e-001
9.295601e+002;1.754340e-001
9.314887e+002;1.774314e-001
9.334172e+002;1.792364e-001
9.353458e+002;1.809320e-001
9.372744e+002;1.829189e-001
9.392029e+002;1.855546e-001
9.411314e+002;1.885735e-001
9.430600e+002;1.915204e-001
9.449885e+002;1.951198e-001
9.469171e+002;1.994927e-001
9.488456e+002;2.041654e-001
9.507742e+002;2.091425e-001
9.527027e+002;2.147953e-001
9.546313e+002;2.207251e-001
9.565598e+002;2.269774e-001
9.584883e+002;2.332905e-001
9.604169e+002;2.394301e-001
9.623455e+002;2.457494e-001
9.642740e+002;2.529215e-001
9.662026e+002;2.605868e-001
9.681311e+002;2.685610e-001
9.700596e+002;2.774383e-001
9.719882e+002;2.872992e-001
9.739167e+002;2.982986e-001
9.758453e+002;3.112109e-001
9.777739e+002;3.259897e-001
9.797024e+002;3.429621e-001
9.816309e+002;3.618223e-001
9.835595e+002;3.817565e-001
9.854880e+002;4.023241e-001
9.874166e+002;4.226124e-001
9.893452e+002;4.404966e-001
9.912737e+002;4.545857e-001
9.932022e+002;4.644867e-001
9.951307e+002;4.712184e-001
9.970593e+002;4.765107e-001
9.989879e+002;4.805387e-001
1.000916e+003;4.829406e-001
1.002845e+003;4.862175e-001
1.004773e+003;4.924451e-001
1.006702e+003;4.994944e-001
1.008631e+003;5.076296e-001
1.010559e+003;5.181521e-001
1.012488e+003;5.293721e-001
1.014416e+003;5.400786e-001
1.016345e+003;5.486597e-001
1.018273e+003;5.535031e-001
1.020202e+003;5.550701e-001
1.022130e+003;5.546051e-001
1.024059e+003;5.523407e-001
1.025988e+003;5.480356e-001
1.027916e+003;5.421301e-001
1.029845e+003;5.358221e-001
1.031773e+003;5.290291e-001
1.033702e+003;5.220019e-001
1.035630e+003;5.155098e-001
1.037559e+003;5.099311e-001
1.039487e+003;5.050355e-001
1.041416e+003;5.008069e-001
1.043344e+003;4.960988e-001
1.045273e+003;4.910306e-001
1.047202e+003;4.857680e-001
1.049130e+003;4.803304e-001
1.051059e+003;4.750545e-001
1.052987e+003;4.700086e-001
1.054916e+003;4.642003e-001
1.056844e+003;4.578245e-001
1.058773e+003;4.507173e-001
1.060701e+003;4.431724e-001
1.062630e+003;4.344109e-001
1.064558e+003;4.254775e-001
1.066487e+003;4.166337e-001
1.068416e+003;4.083523e-001
1.070344e+003;4.004320e-001
1.072273e+003;3.918899e-001
1.074201e+003;3.831311e-001
1.076130e+003;3.738787e-001
1.078058e+003;3.644662e-001
1.079987e+003;3.564014e-001
1.081915e+003;3.507876e-001
1.083844e+003;3.449026e-001
1.085773e+003;3.383112e-001
1.087701e+003;3.323474e-001
1.089630e+003;3.258537e-001
1.091558e+003;3.194975e-001
1.093487e+003;3.132783e-001
1.095415e+003;3.061410e-001
1.097344e+003;2.990606e-001
1.099272e+003;2.920036e-001
1.101201e+003;2.850650e-001
1.103129e+003;2.793207e-001
1.105058e+003;2.740499e-001
1.106987e+003;2.678765e-001
1.108915e+003;2.624769e-001
1.110844e+003;2.583238e-001
1.112772e+003;2.537292e-001
1.114701e+003;2.481303e-001
1.116629e+003;2.422866e-001
1.118558e+003;2.365712e-001
1.120486e+003;2.308118e-001
1.122415e+003;2.243540e-001
1.124344e+003;2.171436e-001
1.126272e+003;2.104208e-001
1.128201e+003;2.042262e-001
1.130129e+003;1.984616e-001
1.132058e+003;1.929500e-001
1.133986e+003;1.877646e-001
1.135915e+003;1.830510e-001
1.137843e+003;1.787118e-001
1.139772e+003;1.757103e-001
1.141700e+003;1.740229e-001
1.143629e+003;1.731309e-001
1.145557e+003;1.731641e-001
1.147486e+003;1.738334e-001
1.149415e+003;1.750666e-001
1.151343e+003;1.764169e-001
1.153272e+003;1.771933e-001
1.155200e+003;1.772017e-001
1.157129e+003;1.764489e-001
1.159057e+003;1.739165e-001
1.160986e+003;1.701320e-001
1.162914e+003;1.649969e-001
1.164843e+003;1.580316e-001
1.166771e+003;1.502085e-001
1.168700e+003;1.426583e-001
1.170629e+003;1.355930e-001
1.172557e+003;1.290414e-001
1.174486e+003;1.233938e-001
1.176414e+003;1.184547e-001
1.178343e+003;1.141977e-001
1.180271e+003;1.105818e-001
1.182200e+003;1.078803e-001
1.184128e+003;1.065779e-001
1.186057e+003;1.064113e-001
1.187986e+003;1.073220e-001
1.189914e+003;1.096278e-001
1.191843e+003;1.125073e-001
1.193771e+003;1.153595e-001
1.195700e+003;1.179835e-001
1.197628e+003;1.199402e-001
1.199557e+003;1.206531e-001
1.201485e+003;1.198586e-001
1.203414e+003;1.181108e-001
1.205343e+003;1.161183e-001
1.207271e+003;1.140222e-001
1.209200e+003;1.118947e-001
1.211128e+003;1.104293e-001
1.213057e+003;1.098992e-001
1.214985e+003;1.103852e-001
1.216914e+003;1.116970e-001
1.218842e+003;1.136887e-001
1.220771e+003;1.160291e-001
1.222699e+003;1.183556e-001
1.224628e+003;1.205696e-001
1.226557e+003;1.222710e-001
1.228485e+003;1.233623e-001
1.230414e+003;1.243414e-001
1.232342e+003;1.253541e-001
1.234271e+003;1.260825e-001
1.236199e+003;1.263826e-001
1.238128e+003;1.262678e-001
1.240056e+003;1.264164e-001
1.241985e+003;1.266188e-001
1.243913e+003;1.265813e-001
1.245842e+003;1.265176e-001
1.247771e+003;1.267464e-001
1.249699e+003;1.274722e-001
1.251628e+003;1.284073e-001
1.253556e+003;1.295345e-001
1.255485e+003;1.306432e-001
1.257413e+003;1.313028e-001
1.259342e+003;1.316378e-001
1.261270e+003;1.316672e-001
1.263199e+003;1.312374e-001
1.265127e+003;1.303762e-001
1.267056e+003;1.293696e-001
1.268985e+003;1.280534e-001
1.270913e+003;1.264752e-001
1.272842e+003;1.251785e-001
1.274770e+003;1.241358e-001
1.276699e+003;1.231594e-001
1.278627e+003;1.224148e-001
1.280556e+003;1.218519e-001
1.282484e+003;1.213330e-001
1.284413e+003;1.209510e-001
1.286342e+003;1.211510e-001
1.288270e+003;1.221813e-001
1.290199e+003;1.237890e-001
1.292127e+003;1.256113e-001
1.294056e+003;1.272603e-001
1.295984e+003;1.288639e-001
1.297913e+003;1.306788e-001
1.299841e+003;1.326164e-001
1.301770e+003;1.346435e-001
1.303698e+003;1.364700e-001
1.305627e+003;1.381222e-001
1.307556e+003;1.399100e-001
1.309484e+003;1.417241e-001
1.311413e+003;1.431871e-001
1.313341e+003;1.441020e-001
1.315270e+003;1.444617e-001
1.317198e+003;1.444327e-001
1.319127e+003;1.439148e-001
1.321055e+003;1.432432e-001
1.322984e+003;1.429371e-001
1.324912e+003;1.430331e-001
1.326841e+003;1.429297e-001
1.328770e+003;1.427305e-001
1.330698e+003;1.428811e-001
1.332627e+003;1.430014e-001
1.334555e+003;1.429253e-001
1.336484e+003;1.427701e-001
1.338412e+003;1.422734e-001
1.340341e+003;1.417717e-001
1.342269e+003;1.416410e-001
1.344198e+003;1.414702e-001
1.346126e+003;1.413463e-001
1.348055e+003;1.412629e-001
1.349984e+003;1.413812e-001
1.351912e+003;1.418211e-001
1.353841e+003;1.423935e-001
1.355769e+003;1.430483e-001
1.357698e+003;1.438466e-001
1.359626e+003;1.447717e-001
1.361555e+003;1.456356e-001
1.363483e+003;1.458321e-001
1.365412e+003;1.455984e-001
1.367341e+003;1.451154e-001
1.369269e+003;1.442870e-001
1.371198e+003;1.430195e-001
1.373126e+003;1.412012e-001
1.375055e+003;1.395166e-001
1.376983e+003;1.377754e-001
1.378912e+003;1.356031e-001
1.380840e+003;1.335695e-001
1.382769e+003;1.313857e-001
1.384698e+003;1.288643e-001
1.386626e+003;1.264172e-001
1.388555e+003;1.252251e-001
1.390483e+003;1.247661e-001
1.392412e+003;1.241169e-001
1.394340e+003;1.234207e-001
1.396269e+003;1.232589e-001
1.398197e+003;1.230715e-001
1.400126e+003;1.232008e-001
1.402054e+003;1.236099e-001
1.403983e+003;1.233464e-001
1.405911e+003;1.232557e-001
1.407840e+003;1.237512e-001
1.409769e+003;1.238801e-001
1.411697e+003;1.239165e-001
1.413626e+003;1.239533e-001
1.415554e+003;1.235701e-001
1.417483e+003;1.226221e-001
1.419411e+003;1.222414e-001
1.421340e+003;1.228547e-001
1.423268e+003;1.227931e-001
1.425197e+003;1.225278e-001
1.427125e+003;1.218812e-001
1.429054e+003;1.209453e-001
1.430983e+003;1.206438e-001
1.432911e+003;1.201730e-001
1.434840e+003;1.184148e-001
1.436768e+003;1.167690e-001
1.438697e+003;1.168273e-001
1.440625e+003;1.163844e-001
1.442554e+003;1.152613e-001
1.444482e+003;1.140786e-001
1.446411e+003;1.126447e-001
1.448340e+003;1.112040e-001
1.450268e+003;1.101933e-001
1.452197e+003;1.091453e-001
1.454125e+003;1.069392e-001
1.456054e+003;1.034654e-001
1.457982e+003;1.022414e-001
1.459911e+003;1.026007e-001
1.461839e+003;1.016282e-001
1.463768e+003;9.941999e-002
1.465697e+003;9.737107e-002
1.467625e+003;9.597250e-002
1.469554e+003;9.371134e-002
1.471482e+003;9.038409e-002
1.473411e+003;8.819824e-002
1.475339e+003;8.701400e-002
1.477268e+003;8.542211e-002
1.479196e+003;8.353770e-002
1.481125e+003;8.128530e-002
1.483053e+003;7.934102e-002
1.484982e+003;7.755199e-002
1.486911e+003;7.542288e-002
1.488839e+003;7.330519e-002
1.490768e+003;7.225374e-002
1.492696e+003;7.174294e-002
1.494625e+003;7.019074e-002
1.496553e+003;6.857087e-002
1.498482e+003;6.852501e-002
1.500410e+003;6.888085e-002
1.502339e+003;6.857049e-002
1.504267e+003;6.642751e-002
1.506196e+003;6.415600e-002
1.508125e+003;6.473117e-002
1.510053e+003;6.600586e-002
1.511982e+003;6.616269e-002
1.513910e+003;6.604336e-002
1.515839e+003;6.533306e-002
1.517767e+003;6.482656e-002
1.519696e+003;6.360185e-002
1.521624e+003;6.286172e-002
1.523553e+003;6.399341e-002
1.525481e+003;6.448276e-002
1.527410e+003;6.487399e-002
1.529339e+003;6.540104e-002
1.531267e+003;6.509566e-002
1.533196e+003;6.435259e-002
1.535124e+003;6.511463e-002
1.537053e+003;6.433395e-002
1.538981e+003;6.155493e-002
1.540910e+003;6.130176e-002
1.542838e+003;6.298929e-002
1.544767e+003;6.414794e-002
1.546695e+003;6.499220e-002
1.548624e+003;6.519552e-002
1.550553e+003;6.513584e-002
1.552481e+003;6.498782e-002
1.554410e+003;6.459247e-002
1.556338e+003;6.348916e-002
1.558267e+003;6.107868e-002
1.560195e+003;6.198566e-002
1.562124e+003;6.509227e-002
1.564052e+003;6.609536e-002
1.565981e+003;6.620699e-002
1.567910e+003;6.574974e-002
1.569838e+003;6.554520e-002
1.571767e+003;6.661478e-002
1.573695e+003;6.642512e-002
1.575624e+003;6.509377e-002
1.577552e+003;6.621594e-002
1.579481e+003;6.810001e-002
1.581409e+003;6.873076e-002
1.583338e+003;6.917255e-002
1.585266e+003;6.979180e-002
1.587195e+003;7.037514e-002
1.589124e+003;7.094195e-002
1.591052e+003;7.170085e-002
1.592981e+003;7.220893e-002
1.594909e+003;7.261030e-002
1.596838e+003;7.318407e-002
1.598766e+003;7.365142e-002
1.600695e+003;7.418597e-002
1.602623e+003;7.488579e-002
1.604552e+003;7.555803e-002
1.606480e+003;7.623310e-002
1.608409e+003;7.693096e-002
1.610338e+003;7.745313e-002
1.612266e+003;7.802752e-002
1.614195e+003;7.788426e-002
1.616123e+003;7.704292e-002
1.618052e+003;7.839091e-002
1.619980e+003;8.028903e-002
1.621909e+003;8.068648e-002
1.623837e+003;8.113562e-002
1.625766e+003;8.223984e-002
1.627694e+003;8.307436e-002
1.629623e+003;8.375848e-002
1.631552e+003;8.419633e-002
1.633480e+003;8.356421e-002
1.635409e+003;8.273949e-002
1.637337e+003;8.412284e-002
1.639266e+003;8.561904e-002
1.641194e+003;8.618683e-002
1.643123e+003;8.608377e-002
1.645051e+003;8.473653e-002
1.646980e+003;8.405770e-002
1.648909e+003;8.439752e-002
1.650837e+003;8.211686e-002
1.652766e+003;7.896964e-002
1.654694e+003;8.087388e-002
1.656623e+003;8.304483e-002
1.658551e+003;8.281358e-002
1.660480e+003;8.171877e-002
1.662408e+003;8.031140e-002
1.664337e+003;7.972921e-002
1.666266e+003;7.895128e-002
1.668194e+003;7.724253e-002
1.670123e+003;7.606161e-002
1.672051e+003;7.560689e-002
1.673980e+003;7.402897e-002
1.675908e+003;7.267974e-002
1.677837e+003;7.255696e-002
1.679765e+003;7.175346e-002
1.681694e+003;6.983367e-002
1.683622e+003;6.650470e-002
1.685551e+003;6.610119e-002
1.687479e+003;6.730067e-002
1.689408e+003;6.677143e-002
1.691337e+003;6.594654e-002
1.693265e+003;6.442484e-002
1.695194e+003;6.176566e-002
1.697122e+003;6.097797e-002
1.699051e+003;5.960111e-002
1.700979e+003;5.882280e-002
1.702908e+003;5.999783e-002
1.704836e+003;5.963133e-002
1.706765e+003;5.920517e-002
1.708693e+003;5.881274e-002
1.710622e+003;5.823172e-002
1.712551e+003;5.750672e-002
1.714479e+003;5.640355e-002
1.716408e+003;5.471476e-002
1.718336e+003;5.468728e-002
1.720265e+003;5.607083e-002
1.722193e+003;5.621034e-002
1.724122e+003;5.558974e-002
1.726050e+003;5.523055e-002
1.727979e+003;5.485541e-002
1.729908e+003;5.435967e-002
1.731836e+003;5.271515e-002
1.733765e+003;5.070281e-002
1.735693e+003;5.139915e-002
1.737622e+003;5.164303e-002
1.739550e+003;5.028987e-002
1.741479e+003;5.018724e-002
1.743407e+003;5.039918e-002
1.745336e+003;5.030047e-002
1.747265e+003;5.005005e-002
1.749193e+003;4.972120e-002
1.751122e+003;4.986151e-002
1.753050e+003;5.108541e-002
1.754979e+003;5.167247e-002
1.756907e+003;5.166109e-002
1.758836e+003;5.177303e-002
1.760764e+003;5.145976e-002
1.762693e+003;5.153437e-002
1.764621e+003;5.197652e-002
1.766550e+003;5.163154e-002
1.768479e+003;5.135746e-002
1.770407e+003;5.110349e-002
1.772336e+003;5.076929e-002
1.774264e+003;5.147733e-002
1.776193e+003;5.217854e-002
1.778121e+003;5.223649e-002
1.780050e+003;5.214050e-002
1.781978e+003;5.218111e-002
1.783907e+003;5.200565e-002
1.785835e+003;5.206564e-002
1.787764e+003;5.221897e-002
1.789693e+003;5.170342e-002
1.791621e+003;5.093393e-002
1.793550e+003;5.098505e-002
1.795478e+003;5.143873e-002
1.797407e+003;5.132322e-002
1.799335e+003;5.105958e-002
1.801264e+003;5.090867e-002
1.803192e+003;5.115094e-002
1.805121e+003;5.148565e-002
1.807049e+003;5.153393e-002
1.808978e+003;5.120152e-002
1.810907e+003;5.094947e-002
1.812835e+003;5.103175e-002
1.814764e+003;5.111146e-002
1.816692e+003;5.104643e-002
1.818621e+003;5.110725e-002
1.820549e+003;5.092771e-002
1.822478e+003;5.066323e-002
1.824406e+003;5.036796e-002
1.826335e+003;5.043222e-002
1.828264e+003;5.013721e-002
1.830192e+003;4.981770e-002
1.832121e+003;5.020959e-002
1.834049e+003;5.053711e-002
1.835978e+003;5.048708e-002
1.837906e+003;5.032945e-002
1.839835e+003;5.023109e-002
1.841763e+003;4.966417e-002
1.843692e+003;4.895574e-002
1.845620e+003;4.930591e-002
1.847549e+003;4.981625e-002
1.849478e+003;4.996789e-002
1.851406e+003;5.002730e-002
1.853335e+003;4.994113e-002
1.855263e+003;4.975765e-002
1.857192e+003;4.971778e-002
1.859120e+003;4.963349e-002
1.861049e+003;4.957967e-002
1.862977e+003;4.976593e-002
1.864906e+003;4.976623e-002
1.866834e+003;4.925184e-002
1.868763e+003;4.879392e-002
1.870692e+003;4.904542e-002
1.872620e+003;4.943313e-002
1.874549e+003;4.953841e-002
1.876477e+003;4.947476e-002
1.878406e+003;4.937525e-002
1.880334e+003;4.939166e-002
1.882263e+003;4.937280e-002
1.884191e+003;4.938776e-002
1.886120e+003;4.923903e-002
1.888048e+003;4.894802e-002
1.889977e+003;4.906739e-002
1.891906e+003;4.941349e-002
1.893834e+003;4.933617e-002
1.895763e+003;4.914088e-002
1.897691e+003;4.919832e-002
1.899620e+003;4.951208e-002
1.901548e+003;4.972662e-002
1.903477e+003;4.973528e-002
1.905405e+003;4.969950e-002
1.907334e+003;4.977467e-002
1.909262e+003;4.989805e-002
1.911191e+003;4.996429e-002
1.913120e+003;5.000168e-002
1.915048e+003;5.003336e-002
1.916977e+003;4.989719e-002
1.918905e+003;5.001990e-002
1.920834e+003;5.030303e-002
1.922762e+003;5.044354e-002
1.924691e+003;5.057381e-002
1.926619e+003;5.074683e-002
1.928548e+003;5.081074e-002
1.930477e+003;5.082620e-002
1.932405e+003;5.101744e-002
1.934334e+003;5.123727e-002
1.936262e+003;5.102601e-002
1.938191e+003;5.076609e-002
1.940119e+003;5.082914e-002
1.942048e+003;5.098140e-002
1.943976e+003;5.112417e-002
1.945905e+003;5.122877e-002
1.947833e+003;5.146536e-002
1.949762e+003;5.168856e-002
1.951691e+003;5.175298e-002
1.953619e+003;5.186924e-002
1.955548e+003;5.191737e-002
1.957476e+003;5.207027e-002
1.959405e+003;5.217775e-002
1.961333e+003;5.195490e-002
1.963262e+003;5.194560e-002
1.965190e+003;5.209541e-002
1.967119e+003;5.220776e-002
1.969047e+003;5.226485e-002
1.970976e+003;5.231467e-002
1.972905e+003;5.261580e-002
1.974833e+003;5.271568e-002
1.976762e+003;5.270733e-002
1.978690e+003;5.262654e-002
1.980619e+003;5.263828e-002
1.982547e+003;5.265317e-002
1.984476e+003;5.278313e-002
1.986404e+003;5.297197e-002
1.988333e+003;5.287260e-002
1.990261e+003;5.276263e-002
1.992190e+003;5.286804e-002
1.994119e+003;5.300720e-002
1.996047e+003;5.305722e-002
1.997976e+003;5.318737e-002
1.999904e+003;5.324756e-002
2.001833e+003;5.325918e-002
2.003761e+003;5.321857e-002
2.005690e+003;5.319363e-002
2.007618e+003;5.333027e-002
2.009547e+003;5.371144e-002
2.011476e+003;5.391746e-002
2.013404e+003;5.394878e-002
2.015333e+003;5.388152e-002
2.017261e+003;5.391048e-002
2.019190e+003;5.405939e-002
2.021118e+003;5.422315e-002
2.023047e+003;5.417514e-002
2.024975e+003;5.426925e-002
2.026904e+003;5.446032e-002
2.028833e+003;5.425315e-002
2.030761e+003;5.423547e-002
2.032690e+003;5.443790e-002
2.034618e+003;5.447234e-002
2.036547e+003;5.453286e-002
2.038475e+003;5.474167e-002
2.040404e+003;5.487748e-002
2.042332e+003;5.500631e-002
2.044261e+003;5.498138e-002
2.046189e+003;5.483571e-002
2.048118e+003;5.476347e-002
2.050047e+003;5.477756e-002
2.051975e+003;5.502715e-002
2.053904e+003;5.500232e-002
2.055832e+003;5.474121e-002
2.057761e+003;5.483590e-002
2.059689e+003;5.504362e-002
2.061618e+003;5.502921e-002
2.063546e+003;5.471596e-002
2.065475e+003;5.461664e-002
2.067404e+003;5.486940e-002
2.069332e+003;5.511016e-002
2.071260e+003;5.512152e-002
2.073189e+003;5.497156e-002
2.075118e+003;5.477722e-002
2.077046e+003;5.478249e-002
2.078975e+003;5.494888e-002
2.080903e+003;5.506314e-002
2.082832e+003;5.523540e-002
2.084760e+003;5.545039e-002
2.086689e+003;5.553604e-002
2.088617e+003;5.558360e-002
2.090546e+003;5.540258e-002
2.092475e+003;5.527085e-002
2.094403e+003;5.544779e-002
2.096332e+003;5.553314e-002
2.098260e+003;5.535986e-002
2.100189e+003;5.518164e-002
2.102117e+003;5.524293e-002
2.104046e+003;5.556070e-002
2.105974e+003;5.587408e-002
2.107903e+003;5.580599e-002
2.109832e+003;5.559313e-002
2.111760e+003;5.569467e-002
2.113688e+003;5.586684e-002
2.115617e+003;5.581519e-002
2.117546e+003;5.563286e-002
2.119474e+003;5.555280e-002
2.121403e+003;5.551722e-002
2.123331e+003;5.563508e-002
2.125260e+003;5.574903e-002
2.127188e+003;5.570947e-002
2.129117e+003;5.581842e-002
2.131045e+003;5.595058e-002
2.132974e+003;5.592631e-002
2.134903e+003;5.580279e-002
2.136831e+003;5.589394e-002
2.138760e+003;5.587468e-002
2.140688e+003;5.575777e-002
2.142617e+003;5.565535e-002
2.144545e+003;5.575558e-002
2.146474e+003;5.574797e-002
2.148402e+003;5.575652e-002
2.150331e+003;5.590174e-002
2.152260e+003;5.592575e-002
2.154188e+003;5.581914e-002
2.156117e+003;5.576609e-002
2.158045e+003;5.575114e-002
2.159974e+003;5.566495e-002
2.161902e+003;5.552328e-002
2.163831e+003;5.548980e-002
2.165759e+003;5.558104e-002
2.167688e+003;5.568454e-002
2.169616e+003;5.556703e-002
2.171545e+003;5.513946e-002
2.173474e+003;5.509861e-002
2.175402e+003;5.526882e-002
2.177331e+003;5.518216e-002
2.179259e+003;5.509135e-002
2.181188e+003;5.494155e-002
2.183116e+003;5.487293e-002
2.185045e+003;5.473152e-002
2.186973e+003;5.475730e-002
2.188902e+003;5.490497e-002
2.190831e+003;5.481267e-002
2.192759e+003;5.464832e-002
2.194688e+003;5.432738e-002
2.196616e+003;5.415202e-002
2.198545e+003;5.435888e-002
2.200473e+003;5.458128e-002
2.202402e+003;5.457877e-002
2.204330e+003;5.436091e-002
2.206259e+003;5.417240e-002
2.208188e+003;5.405238e-002
2.210116e+003;5.417976e-002
2.212044e+003;5.432021e-002
2.213973e+003;5.441510e-002
2.215902e+003;5.450374e-002
2.217830e+003;5.441882e-002
2.219759e+003;5.431863e-002
2.221687e+003;5.419211e-002
2.223616e+003;5.413318e-002
2.225544e+003;5.394098e-002
2.227473e+003;5.391374e-002
2.229401e+003;5.393404e-002
2.231330e+003;5.381119e-002
2.233259e+003;5.392594e-002
2.235187e+003;5.402052e-002
2.237116e+003;5.373852e-002
2.239044e+003;5.363499e-002
2.240973e+003;5.379957e-002
2.242901e+003;5.371320e-002
2.244830e+003;5.358720e-002
2.246758e+003;5.350871e-002
2.248687e+003;5.333560e-002
2.250615e+003;5.322430e-002
2.252544e+003;5.317719e-002
2.254473e+003;5.321895e-002
2.256401e+003;5.328506e-002
2.258330e+003;5.327292e-002
2.260258e+003;5.329716e-002
2.262187e+003;5.325318e-002
2.264115e+003;5.298564e-002
2.266044e+003;5.272133e-002
2.267972e+003;5.275840e-002
2.269901e+003;5.293327e-002
2.271830e+003;5.297546e-002
2.273758e+003;5.283163e-002
2.275687e+003;5.262362e-002
2.277615e+003;5.262235e-002
2.279544e+003;5.269970e-002
2.281472e+003;5.277718e-002
2.283401e+003;5.263088e-002
2.285329e+003;5.262366e-002
2.287258e+003;5.296194e-002
2.289187e+003;5.304977e-002
2.291115e+003;5.280222e-002
2.293043e+003;5.265571e-002
2.294972e+003;5.281928e-002
2.296901e+003;5.278085e-002
2.298829e+003;5.251902e-002
2.300758e+003;5.261210e-002
2.302686e+003;5.271332e-002
2.304615e+003;5.263824e-002
2.306543e+003;5.256494e-002
2.308472e+003;5.269151e-002
2.310400e+003;5.286774e-002
2.312329e+003;5.288050e-002
2.314258e+003;5.292230e-002
2.316186e+003;5.284761e-002
2.318115e+003;5.264325e-002
2.320043e+003;5.267677e-002
2.321972e+003;5.274662e-002
2.323900e+003;5.288357e-002
2.325829e+003;5.289547e-002
2.327757e+003;5.281205e-002
2.329686e+003;5.297699e-002
2.331615e+003;5.313974e-002
2.333543e+003;5.298844e-002
2.335472e+003;5.302173e-002
2.337400e+003;5.321768e-002
2.339329e+003;5.342162e-002
2.341257e+003;5.367368e-002
2.343186e+003;5.380242e-002
2.345114e+003;5.395891e-002
2.347043e+003;5.409812e-002
2.348971e+003;5.404784e-002
2.350900e+003;5.400251e-002
2.352829e+003;5.391569e-002
2.354757e+003;5.389971e-002
2.356686e+003;5.428709e-002
2.358614e+003;5.456032e-002
2.360543e+003;5.466594e-002
2.362471e+003;5.488613e-002
2.364400e+003;5.458801e-002
2.366328e+003;5.439167e-002
2.368257e+003;5.465087e-002
2.370186e+003;5.461348e-002
2.372114e+003;5.462314e-002
2.374042e+003;5.473077e-002
2.375971e+003;5.479880e-002
2.377900e+003;5.477621e-002
2.379828e+003;5.497761e-002
2.381757e+003;5.514815e-002
2.383685e+003;5.518480e-002
2.385614e+003;5.539520e-002
2.387542e+003;5.540589e-002
2.389471e+003;5.556206e-002
2.391399e+003;5.561787e-002
2.393328e+003;5.556925e-002
2.395257e+003;5.569388e-002
2.397185e+003;5.561279e-002
2.399114e+003;5.568808e-002
2.401042e+003;5.573468e-002
2.402971e+003;5.560322e-002
2.404899e+003;5.585030e-002
2.406828e+003;5.622321e-002
2.408756e+003;5.637771e-002
2.410685e+003;5.624606e-002
2.412614e+003;5.615057e-002
2.414542e+003;5.635828e-002
2.416471e+003;5.654389e-002
2.418399e+003;5.671262e-002
2.420328e+003;5.699479e-002
2.422256e+003;5.700091e-002
2.424185e+003;5.706734e-002
2.426113e+003;5.747309e-002
2.428042e+003;5.753437e-002
2.429970e+003;5.735416e-002
2.431899e+003;5.735699e-002
2.433828e+003;5.744333e-002
2.435756e+003;5.768086e-002
2.437685e+003;5.807102e-002
2.439613e+003;5.826221e-002
2.441542e+003;5.829355e-002
2.443470e+003;5.834376e-002
2.445399e+003;5.844072e-002
2.447327e+003;5.863393e-002
2.449256e+003;5.894293e-002
2.451185e+003;5.905440e-002
2.453113e+003;5.914829e-002
2.455042e+003;5.932226e-002
2.456970e+003;5.939538e-002
2.458899e+003;5.959982e-002
2.460827e+003;5.960845e-002
2.462756e+003;5.948155e-002
2.464684e+003;5.968063e-002
2.466613e+003;5.972823e-002
2.468542e+003;5.968880e-002
2.470470e+003;5.984835e-002
2.472398e+003;6.009306e-002
2.474327e+003;6.047580e-002
2.476256e+003;6.071359e-002
2.478184e+003;6.086539e-002
2.480113e+003;6.097965e-002
2.482041e+003;6.109557e-002
2.483970e+003;6.113581e-002
2.485898e+003;6.113306e-002
2.487827e+003;6.121103e-002
2.489755e+003;6.124438e-002
2.491684e+003;6.126124e-002
2.493613e+003;6.119226e-002
2.495541e+003;6.109096e-002
2.497470e+003;6.107658e-002
2.499398e+003;6.117159e-002
2.501327e+003;6.148881e-002
2.503255e+003;6.168301e-002
2.505184e+003;6.202743e-002
2.507112e+003;6.220500e-002
2.509041e+003;6.189440e-002
2.510969e+003;6.187488e-002
2.512898e+003;6.197133e-002
2.514827e+003;6.198982e-002
2.516755e+003;6.211003e-002
2.518684e+003;6.215706e-002
2.520612e+003;6.229292e-002
2.522541e+003;6.252486e-002
2.524469e+003;6.271867e-002
2.526398e+003;6.249987e-002
2.528326e+003;6.251043e-002
2.530255e+003;6.273762e-002
2.532184e+003;6.272273e-002
2.534112e+003;6.255402e-002
2.536041e+003;6.270504e-002
2.537969e+003;6.266133e-002
2.539898e+003;6.258723e-002
2.541826e+003;6.285945e-002
2.543755e+003;6.289036e-002
2.545683e+003;6.275293e-002
2.547612e+003;6.303404e-002
2.549541e+003;6.324433e-002
2.551469e+003;6.322521e-002
2.553397e+003;6.316979e-002
2.555326e+003;6.330670e-002
2.557255e+003;6.333832e-002
2.559183e+003;6.344783e-002
2.561112e+003;6.368870e-002
2.563040e+003;6.386408e-002
2.564969e+003;6.394619e-002
2.566897e+003;6.405727e-002
2.568826e+003;6.418059e-002
2.570754e+003;6.403983e-002
2.572683e+003;6.402974e-002
2.574612e+003;6.427013e-002
2.576540e+003;6.471013e-002
2.578469e+003;6.493063e-002
2.580397e+003;6.476675e-002
2.582326e+003;6.448614e-002
2.584254e+003;6.441061e-002
2.586183e+003;6.473082e-002
2.588111e+003;6.500032e-002
2.590040e+003;6.497122e-002
2.591969e+003;6.496622e-002
2.593897e+003;6.508842e-002
2.595826e+003;6.529216e-002
2.597754e+003;6.540177e-002
2.599683e+003;6.556370e-002
2.601611e+003;6.564967e-002
2.603540e+003;6.578016e-002
2.605468e+003;6.591361e-002
2.607397e+003;6.594002e-002
2.609325e+003;6.616582e-002
2.611254e+003;6.645165e-002
2.613183e+003;6.640493e-002
2.615111e+003;6.646130e-002
2.617040e+003;6.661644e-002
2.618968e+003;6.674822e-002
2.620897e+003;6.697856e-002
2.622825e+003;6.693058e-002
2.624754e+003;6.689746e-002
2.626682e+003;6.725413e-002
2.628611e+003;6.757304e-002
2.630540e+003;6.760301e-002
2.632468e+003;6.751560e-002
2.634396e+003;6.761226e-002
2.636325e+003;6.785999e-002
2.638254e+003;6.831897e-002
2.640182e+003;6.852838e-002
2.642111e+003;6.850523e-002
2.644039e+003;6.848944e-002
2.645968e+003;6.868830e-002
2.647896e+003;6.900655e-002
2.649825e+003;6.921728e-002
2.651753e+003;6.942744e-002
2.653682e+003;6.980903e-002
2.655611e+003;6.996701e-002
2.657539e+003;7.002345e-002
2.659468e+003;7.005892e-002
2.661396e+003;7.011557e-002
2.663325e+003;7.049326e-002
2.665253e+003;7.085793e-002
2.667182e+003;7.088207e-002
2.669110e+003;7.088161e-002
2.671039e+003;7.118570e-002
2.672968e+003;7.143849e-002
2.674896e+003;7.162875e-002
2.676825e+003;7.164915e-002
2.678753e+003;7.180236e-002
2.680682e+003;7.200407e-002
2.682610e+003;7.212470e-002
2.684539e+003;7.233428e-002
2.686467e+003;7.251655e-002
2.688396e+003;7.258171e-002
2.690324e+003;7.263376e-002
2.692253e+003;7.285118e-002
2.694182e+003;7.316051e-002
2.696110e+003;7.334846e-002
2.698039e+003;7.327192e-002
2.699967e+003;7.331908e-002
2.701896e+003;7.361221e-002
2.703824e+003;7.392345e-002
2.705753e+003;7.414564e-002
2.707681e+003;7.426125e-002
2.709610e+003;7.449035e-002
2.711539e+003;7.481655e-002
2.713467e+003;7.517994e-002
2.715396e+003;7.531410e-002
2.717324e+003;7.524653e-002
2.719253e+003;7.516351e-002
2.721181e+003;7.520082e-002
2.723110e+003;7.534445e-002
2.725038e+003;7.553714e-002
2.726967e+003;7.577523e-002
2.728896e+003;7.580158e-002
2.730824e+003;7.575535e-002
2.732752e+003;7.606695e-002
2.734681e+003;7.649350e-002
2.736610e+003;7.668342e-002
2.738538e+003;7.674067e-002
2.740467e+003;7.672098e-002
2.742395e+003;7.671729e-002
2.744324e+003;7.701835e-002
2.746252e+003;7.725160e-002
2.748181e+003;7.748049e-002
2.750109e+003;7.776737e-002
2.752038e+003;7.801772e-002
2.753967e+003;7.823556e-002
2.755895e+003;7.820517e-002
2.757824e+003;7.822044e-002
2.759752e+003;7.851726e-002
2.761681e+003;7.896376e-002
2.763609e+003;7.925805e-002
2.765538e+003;7.938904e-002
2.767466e+003;7.949613e-002
2.769395e+003;7.960019e-002
2.771323e+003;7.951428e-002
2.773252e+003;7.957827e-002
2.775181e+003;8.008064e-002
2.777109e+003;8.064702e-002
2.779038e+003;8.077969e-002
2.780966e+003;8.083521e-002
2.782895e+003;8.107527e-002
2.784823e+003;8.122888e-002
2.786752e+003;8.127267e-002
2.788680e+003;8.174445e-002
2.790609e+003;8.221654e-002
2.792538e+003;8.258258e-002
2.794466e+003;8.321239e-002
2.796395e+003;8.383210e-002
2.798323e+003;8.413438e-002
2.800252e+003;8.442397e-002
2.802180e+003;8.502139e-002
2.804109e+003;8.560806e-002
2.806037e+003;8.571586e-002
2.807966e+003;8.581311e-002
2.809895e+003;8.616740e-002
2.811823e+003;8.664986e-002
2.813751e+003;8.719722e-002
2.815680e+003;8.782724e-002
2.817609e+003;8.841706e-002
2.819537e+003;8.878776e-002
2.821466e+003;8.912683e-002
2.823394e+003;8.940607e-002
2.825323e+003;8.967105e-002
2.827251e+003;9.050357e-002
2.829180e+003;9.149547e-002
2.831108e+003;9.210230e-002
2.833037e+003;9.252056e-002
2.834966e+003;9.311745e-002
2.836894e+003;9.419152e-002
2.838823e+003;9.514524e-002
2.840751e+003;9.585883e-002
2.842680e+003;9.630322e-002
2.844608e+003;9.667615e-002
2.846537e+003;9.699658e-002
2.848465e+003;9.749564e-002
2.850394e+003;9.831713e-002
2.852323e+003;9.934443e-002
2.854251e+003;1.006491e-001
2.856180e+003;1.023755e-001
2.858108e+003;1.046303e-001
2.860037e+003;1.065973e-001
2.861965e+003;1.084071e-001
2.863894e+003;1.100106e-001
2.865822e+003;1.114691e-001
2.867751e+003;1.129950e-001
2.869679e+003;1.144551e-001
2.871608e+003;1.157374e-001
2.873536e+003;1.165970e-001
2.875465e+003;1.175820e-001
2.877394e+003;1.188975e-001
2.879322e+003;1.198450e-001
2.881251e+003;1.201396e-001
2.883179e+003;1.206527e-001
2.885108e+003;1.208235e-001
2.887036e+003;1.206380e-001
2.888965e+003;1.206024e-001
2.890893e+003;1.205933e-001
2.892822e+003;1.207005e-001
2.894750e+003;1.201957e-001
2.896679e+003;1.193723e-001
2.898608e+003;1.189157e-001
2.900536e+003;1.182747e-001
2.902465e+003;1.174562e-001
2.904393e+003;1.168480e-001
2.906322e+003;1.161732e-001
2.908250e+003;1.151652e-001
2.910179e+003;1.141442e-001
2.912107e+003;1.129459e-001
2.914036e+003;1.115387e-001
2.915965e+003;1.103373e-001
2.917893e+003;1.092005e-001
2.919822e+003;1.078101e-001
2.921750e+003;1.065484e-001
2.923679e+003;1.056743e-001
2.925607e+003;1.045860e-001
2.927536e+003;1.033519e-001
2.929464e+003;1.027244e-001
2.931393e+003;1.024491e-001
2.933322e+003;1.017175e-001
2.935250e+003;1.007716e-001
2.937178e+003;9.969819e-002
2.939107e+003;9.903657e-002
2.941036e+003;9.841367e-002
2.942964e+003;9.734657e-002
2.944893e+003;9.632675e-002
2.946821e+003;9.557313e-002
2.948750e+003;9.448460e-002
2.950678e+003;9.309162e-002
2.952607e+003;9.171551e-002
2.954535e+003;9.041350e-002
2.956464e+003;8.898804e-002
2.958393e+003;8.791352e-002
2.960321e+003;8.698650e-002
2.962250e+003;8.625812e-002
2.964178e+003;8.557061e-002
2.966107e+003;8.495813e-002
2.968035e+003;8.470005e-002
2.969964e+003;8.462616e-002
2.971892e+003;8.432446e-002
2.973821e+003;8.386116e-002
2.975750e+003;8.352686e-002
2.977678e+003;8.336788e-002
2.979607e+003;8.303681e-002
2.981535e+003;8.281767e-002
2.983464e+003;8.266061e-002
2.985392e+003;8.264618e-002
2.987321e+003;8.246934e-002
2.989249e+003;8.180549e-002
2.991178e+003;8.142300e-002
2.993106e+003;8.166798e-002
2.995035e+003;8.191515e-002
2.996964e+003;8.165915e-002
2.998892e+003;8.162132e-002
3.000821e+003;8.180077e-002
3.002749e+003;8.182465e-002
3.004678e+003;8.166122e-002
3.006606e+003;8.168774e-002
3.008535e+003;8.186086e-002
3.010463e+003;8.225378e-002
3.012392e+003;8.233916e-002
3.014321e+003;8.270113e-002
3.016249e+003;8.332513e-002
3.018177e+003;8.369894e-002
3.020106e+003;8.433628e-002
3.022035e+003;8.492267e-002
3.023963e+003;8.524035e-002
3.025892e+003;8.556279e-002
3.027820e+003;8.599426e-002
3.029749e+003;8.639082e-002
3.031677e+003;8.671378e-002
3.033606e+003;8.719925e-002
3.035534e+003;8.787656e-002
3.037463e+003;8.846080e-002
3.039392e+003;8.906467e-002
3.041320e+003;8.959582e-002
3.043249e+003;8.975028e-002
3.045177e+003;8.984937e-002
3.047106e+003;9.044652e-002
3.049034e+003;9.111109e-002
3.050963e+003;9.142377e-002
3.052891e+003;9.199045e-002
3.054820e+003;9.273463e-002
3.056749e+003;9.318766e-002
3.058677e+003;9.367455e-002
3.060606e+003;9.427928e-002
3.062534e+003;9.520782e-002
3.064463e+003;9.591283e-002
3.066391e+003;9.627625e-002
3.068320e+003;9.701390e-002
3.070248e+003;9.790111e-002
3.072177e+003;9.841254e-002
3.074105e+003;9.877378e-002
3.076034e+003;9.940629e-002
3.077963e+003;1.002677e-001
3.079891e+003;1.011474e-001
3.081820e+003;1.017342e-001
3.083748e+003;1.022354e-001
3.085677e+003;1.026421e-001
3.087605e+003;1.033774e-001
3.089534e+003;1.042502e-001
3.091462e+003;1.048782e-001
3.093391e+003;1.055370e-001
3.095320e+003;1.064488e-001
3.097248e+003;1.071436e-001
3.099177e+003;1.075436e-001
3.101105e+003;1.079174e-001
3.103034e+003;1.085031e-001
3.104962e+003;1.092405e-001
3.106891e+003;1.099090e-001
3.108819e+003;1.103972e-001
3.110748e+003;1.112620e-001
3.112677e+003;1.122444e-001
3.114605e+003;1.128233e-001
3.116533e+003;1.135305e-001
3.118462e+003;1.142726e-001
3.120391e+003;1.149802e-001
3.122319e+003;1.157284e-001
3.124248e+003;1.166059e-001
3.126176e+003;1.176801e-001
3.128105e+003;1.187197e-001
3.130033e+003;1.197619e-001
3.131962e+003;1.206713e-001
3.133890e+003;1.210168e-001
3.135819e+003;1.214641e-001
3.137748e+003;1.221792e-001
3.139676e+003;1.225029e-001
3.141605e+003;1.232191e-001
3.143533e+003;1.241637e-001
3.145462e+003;1.250401e-001
3.147390e+003;1.259795e-001
3.149319e+003;1.267944e-001
3.151247e+003;1.275982e-001
3.153176e+003;1.281684e-001
3.155104e+003;1.286438e-001
3.157033e+003;1.294664e-001
3.158962e+003;1.303188e-001
3.160890e+003;1.314295e-001
3.162819e+003;1.323139e-001
3.164747e+003;1.325279e-001
3.166676e+003;1.331164e-001
3.168604e+003;1.341746e-001
3.170533e+003;1.349641e-001
3.172461e+003;1.356500e-001
3.174390e+003;1.365348e-001
3.176319e+003;1.371818e-001
3.178247e+003;1.374107e-001
3.180176e+003;1.379061e-001
3.182104e+003;1.388849e-001
3.184033e+003;1.396636e-001
3.185961e+003;1.403595e-001
3.187890e+003;1.409457e-001
3.189818e+003;1.418596e-001
3.191747e+003;1.428876e-001
3.193676e+003;1.433237e-001
3.195604e+003;1.437221e-001
3.197532e+003;1.446958e-001
3.199461e+003;1.456189e-001
3.201390e+003;1.467167e-001
3.203318e+003;1.474310e-001
3.205247e+003;1.476529e-001
3.207175e+003;1.482358e-001
3.209104e+003;1.490760e-001
3.211032e+003;1.496872e-001
3.212961e+003;1.503912e-001
3.214889e+003;1.509067e-001
3.216818e+003;1.512129e-001
3.218747e+003;1.519100e-001
3.220675e+003;1.529972e-001
3.222604e+003;1.539271e-001
3.224532e+003;1.543520e-001
3.226461e+003;1.548038e-001
3.228389e+003;1.552753e-001
3.230318e+003;1.556668e-001
3.232246e+003;1.560742e-001
3.234175e+003;1.564407e-001
3.236104e+003;1.570686e-001
3.238032e+003;1.577772e-001
3.239961e+003;1.586223e-001
3.241889e+003;1.595983e-001
3.243818e+003;1.601489e-001
3.245746e+003;1.604765e-001
3.247675e+003;1.610060e-001
3.249603e+003;1.615779e-001
3.251532e+003;1.620798e-001
3.253460e+003;1.625405e-001
3.255389e+003;1.627346e-001
3.257318e+003;1.632663e-001
3.259246e+003;1.640099e-001
3.261175e+003;1.645103e-001
3.263103e+003;1.649696e-001
3.265032e+003;1.653333e-001
3.266960e+003;1.655248e-001
3.268889e+003;1.656791e-001
3.270817e+003;1.661179e-001
3.272746e+003;1.667195e-001
3.274675e+003;1.671190e-001
3.276603e+003;1.674631e-001
3.278531e+003;1.678765e-001
3.280460e+003;1.681740e-001
3.282389e+003;1.687232e-001
3.284317e+003;1.689596e-001
3.286246e+003;1.688921e-001
3.288174e+003;1.690480e-001
3.290103e+003;1.695297e-001
3.292031e+003;1.700408e-001
3.293960e+003;1.704283e-001
3.295888e+003;1.704219e-001
3.297817e+003;1.710212e-001
3.299746e+003;1.715663e-001
3.301674e+003;1.715094e-001
3.303603e+003;1.712853e-001
3.305531e+003;1.710650e-001
3.307460e+003;1.712727e-001
3.309388e+003;1.717909e-001
3.311317e+003;1.723388e-001
3.313245e+003;1.722927e-001
3.315174e+003;1.722493e-001
3.317103e+003;1.728280e-001
3.319031e+003;1.728790e-001
3.320960e+003;1.727468e-001
3.322888e+003;1.728903e-001
3.324817e+003;1.727921e-001
3.326745e+003;1.730964e-001
3.328674e+003;1.734929e-001
3.330602e+003;1.735980e-001
3.332531e+003;1.732112e-001
3.334459e+003;1.727880e-001
3.336388e+003;1.727787e-001
3.338317e+003;1.727356e-001
3.340245e+003;1.728217e-001
3.342174e+003;1.728784e-001
3.344102e+003;1.731356e-001
3.346031e+003;1.729287e-001
3.347959e+003;1.724550e-001
3.349888e+003;1.725272e-001
3.351816e+003;1.726398e-001
3.353745e+003;1.723710e-001
3.355674e+003;1.719607e-001
3.357602e+003;1.714731e-001
3.359531e+003;1.713410e-001
3.361459e+003;1.714174e-001
3.363388e+003;1.714845e-001
3.365316e+003;1.713090e-001
3.367245e+003;1.705699e-001
3.369173e+003;1.698561e-001
3.371102e+003;1.697047e-001
3.373031e+003;1.696282e-001
3.374959e+003;1.691168e-001
3.376887e+003;1.688789e-001
3.378816e+003;1.687527e-001
3.380745e+003;1.682168e-001
3.382673e+003;1.676093e-001
3.384602e+003;1.671064e-001
3.386530e+003;1.667117e-001
3.388459e+003;1.663071e-001
3.390387e+003;1.658185e-001
3.392316e+003;1.652271e-001
3.394244e+003;1.649193e-001
3.396173e+003;1.647028e-001
3.398102e+003;1.643697e-001
3.400030e+003;1.638782e-001
3.401959e+003;1.633043e-001
3.403887e+003;1.630798e-001
3.405816e+003;1.624561e-001
3.407744e+003;1.614827e-001
3.409673e+003;1.608496e-001
3.411601e+003;1.603113e-001
3.413530e+003;1.599958e-001
3.415458e+003;1.592168e-001
3.417387e+003;1.583127e-001
3.419316e+003;1.577220e-001
3.421244e+003;1.570486e-001
3.423173e+003;1.561851e-001
3.425101e+003;1.554316e-001
3.427030e+003;1.551721e-001
3.428958e+003;1.549651e-001
3.430887e+003;1.539830e-001
3.432815e+003;1.530239e-001
3.434744e+003;1.523505e-001
3.436673e+003;1.511622e-001
3.438601e+003;1.500759e-001
3.440530e+003;1.492497e-001
3.442458e+003;1.483935e-001
3.444387e+003;1.476338e-001
3.446315e+003;1.465186e-001
3.448244e+003;1.453060e-001
3.450172e+003;1.445127e-001
3.452101e+003;1.437571e-001
3.454030e+003;1.425866e-001
3.455958e+003;1.410647e-001
3.457886e+003;1.395715e-001
3.459815e+003;1.382830e-001
3.461744e+003;1.372768e-001
3.463672e+003;1.363657e-001
3.465601e+003;1.352358e-001
3.467529e+003;1.338761e-001
3.469458e+003;1.326722e-001
3.471386e+003;1.318125e-001
3.473315e+003;1.308767e-001
3.475243e+003;1.296419e-001
3.477172e+003;1.283519e-001
3.479101e+003;1.273238e-001
3.481029e+003;1.264028e-001
3.482958e+003;1.247655e-001
3.484886e+003;1.231165e-001
3.486815e+003;1.220960e-001
3.488743e+003;1.208588e-001
3.490672e+003;1.196657e-001
3.492600e+003;1.182946e-001
3.494529e+003;1.169457e-001
3.496458e+003;1.158412e-001
3.498386e+003;1.142612e-001
3.500315e+003;1.122832e-001
3.502243e+003;1.106965e-001
3.504172e+003;1.094909e-001
3.506100e+003;1.081572e-001
3.508029e+003;1.070148e-001
3.509957e+003;1.061220e-001
3.511886e+003;1.050034e-001
3.513814e+003;1.037820e-001
3.515743e+003;1.023019e-001
3.517672e+003;1.007334e-001
3.519600e+003;9.954832e-002
3.521529e+003;9.832179e-002
3.523457e+003;9.689088e-002
3.525386e+003;9.564919e-002
3.527314e+003;9.470529e-002
3.529243e+003;9.361699e-002
3.531171e+003;9.237888e-002
3.533100e+003;9.135494e-002
3.535029e+003;9.008265e-002
3.536957e+003;8.847909e-002
3.538885e+003;8.737814e-002
3.540814e+003;8.649234e-002
3.542743e+003;8.533846e-002
3.544671e+003;8.416274e-002
3.546600e+003;8.311592e-002
3.548528e+003;8.212926e-002
3.550457e+003;8.119473e-002
3.552385e+003;8.013531e-002
3.554314e+003;7.922716e-002
3.556242e+003;7.827409e-002
3.558171e+003;7.683952e-002
3.560100e+003;7.563256e-002
3.562028e+003;7.473023e-002
3.563957e+003;7.343305e-002
3.565885e+003;7.206477e-002
3.567814e+003;7.107493e-002
3.569742e+003;7.068107e-002
3.571671e+003;7.006040e-002
3.573599e+003;6.912558e-002
3.575528e+003;6.808314e-002
3.577457e+003;6.660562e-002
3.579385e+003;6.569889e-002
3.581314e+003;6.510947e-002
3.583242e+003;6.416810e-002
3.585171e+003;6.297696e-002
3.587099e+003;6.201031e-002
3.589028e+003;6.164023e-002
3.590956e+003;6.122866e-002
3.592885e+003;6.029729e-002
3.594813e+003;5.939375e-002
3.596742e+003;5.894544e-002
3.598671e+003;5.848848e-002
3.600599e+003;5.766569e-002
3.602528e+003;5.712421e-002
3.604456e+003;5.697458e-002
3.606385e+003;5.602872e-002
3.608313e+003;5.475238e-002
3.610242e+003;5.442385e-002
3.612170e+003;5.377418e-002
3.614099e+003;5.300668e-002
3.616028e+003;5.230253e-002
3.617956e+003;5.129298e-002
3.619885e+003;5.120749e-002
3.621813e+003;5.161881e-002
3.623742e+003;5.150046e-002
3.625670e+003;5.041481e-002
3.627599e+003;4.795844e-002
3.629527e+003;4.720151e-002
3.631456e+003;4.842571e-002
3.633385e+003;4.842671e-002
3.635313e+003;4.797432e-002
3.637241e+003;4.780147e-002
3.639170e+003;4.783243e-002
3.641099e+003;4.744759e-002
3.643027e+003;4.681697e-002
3.644956e+003;4.608914e-002
3.646884e+003;4.481537e-002
3.648813e+003;4.370055e-002
3.650741e+003;4.396467e-002
3.652670e+003;4.449413e-002
3.654598e+003;4.418474e-002
3.656527e+003;4.420375e-002
3.658456e+003;4.470452e-002
3.660384e+003;4.438911e-002
3.662313e+003;4.362954e-002
3.664241e+003;4.330119e-002
3.666170e+003;4.272445e-002
3.668098e+003;4.102339e-002
3.670027e+003;3.987858e-002
3.671955e+003;4.033094e-002
3.673884e+003;3.934028e-002
3.675813e+003;3.880652e-002
3.677741e+003;4.011607e-002
3.679669e+003;4.033410e-002
3.681598e+003;4.017364e-002
3.683527e+003;4.030330e-002
3.685455e+003;3.965105e-002
3.687384e+003;3.773176e-002
3.689312e+003;3.727119e-002
3.691241e+003;3.820402e-002
3.693169e+003;3.872316e-002
3.695098e+003;3.889392e-002
3.697026e+003;3.853462e-002
3.698955e+003;3.796092e-002
3.700884e+003;3.762002e-002
3.702812e+003;3.779371e-002
3.704741e+003;3.815999e-002
3.706669e+003;3.795817e-002
3.708598e+003;3.696699e-002
3.710526e+003;3.578218e-002
3.712455e+003;3.572962e-002
3.714383e+003;3.681909e-002
3.716312e+003;3.708180e-002
3.718240e+003;3.673377e-002
3.720169e+003;3.666411e-002
3.722098e+003;3.663109e-002
3.724026e+003;3.634736e-002
3.725955e+003;3.586994e-002
3.727883e+003;3.596633e-002
3.729812e+003;3.542743e-002
3.731740e+003;3.433986e-002
3.733669e+003;3.417231e-002
3.735597e+003;3.406385e-002
3.737526e+003;3.464269e-002
3.739455e+003;3.535855e-002
3.741383e+003;3.468504e-002
3.743312e+003;3.219780e-002
3.745240e+003;3.291864e-002
3.747169e+003;3.433200e-002
3.749097e+003;3.302130e-002
3.751026e+003;3.234459e-002
3.752954e+003;3.316240e-002
3.754883e+003;3.401243e-002
3.756812e+003;3.426527e-002
3.758740e+003;3.507123e-002
3.760668e+003;3.576545e-002
3.762597e+003;3.554874e-002
3.764526e+003;3.492998e-002
3.766454e+003;3.505550e-002
3.768383e+003;3.479172e-002
3.770311e+003;3.472470e-002
3.772240e+003;3.499487e-002
3.774168e+003;3.529206e-002
3.776097e+003;3.557603e-002
3.778025e+003;3.544465e-002
3.779954e+003;3.527445e-002
3.781883e+003;3.526802e-002
3.783811e+003;3.494966e-002
3.785740e+003;3.519180e-002
3.787668e+003;3.511710e-002
3.789597e+003;3.492377e-002
3.791525e+003;3.481045e-002
3.793454e+003;3.466638e-002
3.795382e+003;3.439429e-002
3.797311e+003;3.474738e-002
3.799240e+003;3.453430e-002
3.801168e+003;3.348722e-002
3.803097e+003;3.395901e-002
3.805025e+003;3.449839e-002
3.806954e+003;3.391777e-002
3.808882e+003;3.443945e-002
3.810811e+003;3.543407e-002
3.812739e+003;3.578229e-002
3.814668e+003;3.448490e-002
3.816596e+003;3.378115e-002
3.818525e+003;3.364343e-002
3.820454e+003;3.280367e-002
3.822382e+003;3.376507e-002
3.824311e+003;3.510845e-002
3.826239e+003;3.529105e-002
3.828168e+003;3.532609e-002
3.830096e+003;3.502346e-002
3.832025e+003;3.492527e-002
3.833953e+003;3.499419e-002
3.835882e+003;3.395478e-002
3.837811e+003;3.301415e-002
3.839739e+003;3.399538e-002
3.841667e+003;3.450162e-002
3.843596e+003;3.462016e-002
3.845525e+003;3.511294e-002
3.847453e+003;3.532778e-002
3.849382e+003;3.441545e-002
3.851310e+003;3.231653e-002
3.853239e+003;3.111749e-002
3.855167e+003;3.293765e-002
3.857096e+003;3.484190e-002
3.859024e+003;3.584720e-002
3.860953e+003;3.602806e-002
3.862882e+003;3.510432e-002
3.864810e+003;3.450416e-002
3.866739e+003;3.482754e-002
3.868667e+003;3.423164e-002
3.870596e+003;3.420673e-002
3.872524e+003;3.484718e-002
3.874453e+003;3.510561e-002
3.876381e+003;3.589007e-002
3.878310e+003;3.616283e-002
3.880239e+003;3.595208e-002
3.882167e+003;3.613396e-002
3.884096e+003;3.570480e-002
3.886024e+003;3.563217e-002
3.887953e+003;3.621459e-002
3.889881e+003;3.554119e-002
3.891810e+003;3.540194e-002
3.893738e+003;3.638731e-002
3.895667e+003;3.666303e-002
3.897595e+003;3.625954e-002
3.899524e+003;3.612718e-002
3.901453e+003;3.571638e-002
3.903381e+003;3.587441e-002
3.905310e+003;3.690057e-002
3.907238e+003;3.745952e-002
3.909167e+003;3.720928e-002
3.911095e+003;3.702454e-002
3.913024e+003;3.677621e-002
3.914952e+003;3.641816e-002
3.916881e+003;3.694899e-002
3.918810e+003;3.761330e-002
3.920738e+003;3.771069e-002
3.922667e+003;3.801975e-002
3.924595e+003;3.826191e-002
3.926524e+003;3.797983e-002
3.928452e+003;3.800673e-002
3.930381e+003;3.833487e-002
3.932309e+003;3.863432e-002
3.934238e+003;3.882757e-002
3.936167e+003;3.866513e-002
3.938095e+003;3.848473e-002
3.940023e+003;3.816455e-002
3.941952e+003;3.796945e-002
3.943881e+003;3.860817e-002
3.945809e+003;3.888450e-002
3.947738e+003;3.864094e-002
3.949666e+003;3.869578e-002
3.951595e+003;3.922483e-002
3.953523e+003;3.940808e-002
3.955452e+003;3.913018e-002
3.957380e+003;3.938965e-002
3.959309e+003;3.947630e-002
3.961238e+003;3.904328e-002
3.963166e+003;3.900229e-002
3.965095e+003;3.953571e-002
3.967023e+003;3.974516e-002
3.968952e+003;3.947125e-002
3.970880e+003;3.886392e-002
3.972809e+003;3.848306e-002
3.974737e+003;3.888030e-002
3.976666e+003;3.915807e-002
3.978594e+003;3.879058e-002
3.980523e+003;3.897503e-002
3.982452e+003;3.957385e-002
3.984380e+003;3.939938e-002
3.986309e+003;3.890291e-002
3.988237e+003;3.899932e-002
3.990166e+003;3.963447e-002
3.992094e+003;3.943889e-002
3.994023e+003;3.858140e-002
3.995951e+003;3.826376e-002
3.997880e+003;3.864540e-002
3.999809e+003;3.912101e-002
4.001737e+003;0.000000e+000
