3.992094e+002;0.000000e+000
4.011380e+002;0.000000e+000
4.030665e+002;0.000000e+000
4.049951e+002;0.000000e+000
4.069236e+002;0.000000e+000
4.088522e+002;0.000000e+000
4.107807e+002;0.000000e+000
4.127093e+002;0.000000e+000
4.146378e+002;0.000000e+000
4.165664e+002;0.000000e+000
4.184949e+002;0.000000e+000
4.204235e+002;0.000000e+000
4.223520e+002;0.000000e+000
4.242806e+002;0.000000e+000
4.262091e+002;0.000000e+000
4.281377e+002;0.000000e+000
4.300662e+002;0.000000e+000
4.319948e+002;0.000000e+000
4.339233e+002;0.000000e+000
4.358519e+002;0.000000e+000
4.377804e+002;0.000000e+000
4.397090e+002;0.000000e+000
4.416375e+002;0.000000e+000
4.435660e+002;0.000000e+000
4.454946e+002;0.000000e+000
4.474232e+002;0.000000e+000
4.493517e+002;0.000000e+000
4.512802e+002;0.000000e+000
4.532088e+002;0.000000e+000
4.551373e+002;0.000000e+000
4.570659e+002;0.000000e+000
4.589944e+002;0.000000e+000
4.609230e+002;0.000000e+000
4.628515e+002;0.000000e+000
4.647801e+002;0.000000e+000
4.667086e+002;0.000000e+000
4.686372e+002;0.000000e+000
4.705657e+002;0.000000e+000
4.724943e+002;0.000000e+000
4.744228e+002;0.000000e+000
4.763513e+002;0.000000e+000
4.782799e+002;0.000000e+000
4.802085e+002;0.000000e+000
4.821370e+002;0.000000e+000
4.840656e+002;0.000000e+000
4.859941e+002;0.000000e+000
4.879226e+002;0.000000e+000
4.898512e+002;0.000000e+000
4.917798e+002;0.000000e+000
4.937083e+002;0.000000e+000
4.956368e+002;0.000000e+000
4.975654e+002;0.000000e+000
4.994939e+002;0.000000e+000
5.014225e+002;0.000000e+000
5.033510e+002;0.000000e+000
5.052796e+002;0.000000e+000
5.072081e+002;0.000000e+000
5.091367e+002;0.000000e+000
5.110652e+002;0.000000e+000
5.129938e+002;0.000000e+000
5.149223e+002;0.000000e+000
5.168509e+002;0.000000e+000
5.187794e+002;0.000000e+000
5.207079e+002;0.000000e+000
5.226365e+002;0.000000e+000
5.245651e+002;0.000000e+000
5.264936e+002;0.000000e+000
5.284222e+002;0.000000e+000
5.303507e+002;0.000000e+000
5.322792e+002;0.000000e+000
5.342078e+002;0.000000e+000
5.361364e+002;0.000000e+000
5.380649e+002;0.000000e+000
5.399935e+002;0.000000e+000
5.419220e+002;0.000000e+000
5.438505e+002;0.000000e+000
5.457791e+002;0.000000e+000
5.477076e+002;0.000000e+000
5.496362e+002;0.000000e+000
5.515648e+002;0.000000e+000
5.534933e+002;0.000000e+000
5.554218e+002;0.000000e+000
5.573504e+002;0.000000e+000
5.592789e+002;0.000000e+000
5.612075e+002;0.000000e+000
5.631360e+002;0.000000e+000
5.650646e+002;0.000000e+000
5.669931e+002;0.000000e+000
5.689217e+002;0.000000e+000
5.708502e+002;0.000000e+000
5.727787e+002;0.000000e+000
5.747073e+002;0.000000e+000
5.766359e+002;0.000000e+000
5.785644e+002;0.000000e+000
5.804930e+002;0.000000e+000
5.824215e+002;0.000000e+000
5.843500e+002;0.000000e+000
5.862786e+002;0.000000e+000
5.882072e+002;0.000000e+000
5.901357e+002;0.000000e+000
5.920643e+002;0.000000e+000
5.939928e+002;0.000000e+000
5.959213e+002;0.000000e+000
5.978499e+002;0.000000e+000
5.997784e+002;2.732532e-001
6.017070e+002;2.803906e-001
6.036355e+002;2.860605e-001
6.055641e+002;2.847781e-001
6.074926e+002;2.840589e-001
6.094211e+002;2.884846e-001
6.113497e+002;2.870204e-001
6.132783e+002;2.833067e-001
6.152068e+002;2.827631e-001
6.171354e+002;2.795021e-001
6.190639e+002;2.750259e-001
6.209924e+002;2.718058e-001
6.229210e+002;2.649975e-001
6.248495e+002;2.649923e-001
6.267781e+002;2.654887e-001
6.287067e+002;2.613237e-001
6.306352e+002;2.597486e-001
6.325637e+002;2.586900e-001
6.344923e+002;2.563949e-001
6.364208e+002;2.517632e-001
6.383494e+002;2.510670e-001
6.402780e+002;2.538597e-001
6.422065e+002;2.530062e-001
6.441350e+002;2.479199e-001
6.460636e+002;2.458766e-001
6.479921e+002;2.470462e-001
6.499207e+002;2.470151e-001
6.518492e+002;2.489760e-001
6.537778e+002;2.490546e-001
6.557063e+002;2.513948e-001
6.576349e+002;2.533784e-001
6.595634e+002;2.546749e-001
6.614919e+002;2.545861e-001
6.634205e+002;2.551671e-001
6.653491e+002;2.552671e-001
6.672776e+002;2.531321e-001
6.692062e+002;2.504452e-001
6.711347e+002;2.440301e-001
6.730632e+002;2.383255e-001
6.749918e+002;2.307323e-001
6.769203e+002;2.216637e-001
6.788489e+002;2.139461e-001
6.807775e+002;2.075041e-001
6.827060e+002;2.033863e-001
6.846345e+002;2.005058e-001
6.865631e+002;1.980915e-001
6.884916e+002;1.968168e-001
6.904202e+002;1.958130e-001
6.923488e+002;1.944454e-001
6.942773e+002;1.938370e-001
6.962058e+002;1.935331e-001
6.981344e+002;1.930573e-001
7.000629e+002;1.926475e-001
7.019915e+002;1.919643e-001
7.039200e+002;1.910705e-001
7.058486e+002;1.887946e-001
7.077771e+002;1.865853e-001
7.097057e+002;1.859866e-001
7.116342e+002;1.855915e-001
7.135627e+002;1.843926e-001
7.154913e+002;1.833630e-001
7.174199e+002;1.826604e-001
7.193484e+002;1.816312e-001
7.212770e+002;1.796689e-001
7.232055e+002;1.779957e-001
7.251340e+002;1.756896e-001
7.270626e+002;1.733249e-001
7.289911e+002;1.711861e-001
7.309197e+002;1.694476e-001
7.328483e+002;1.685097e-001
7.347768e+002;1.679915e-001
7.367053e+002;1.664935e-001
7.386339e+002;1.645956e-001
7.405624e+002;1.635721e-001
7.424910e+002;1.627328e-001
7.444196e+002;1.620053e-001
7.463481e+002;1.607664e-001
7.482766e+002;1.584498e-001
7.502052e+002;1.566952e-001
7.521337e+002;1.551889e-001
7.540623e+002;1.539929e-001
7.559908e+002;1.530212e-001
7.579194e+002;1.517958e-001
7.598479e+002;1.503982e-001
7.617765e+002;1.487080e-001
7.637050e+002;1.475419e-001
7.656335e+002;1.463714e-001
7.675621e+002;1.456723e-001
7.694907e+002;1.441579e-001
7.714192e+002;1.419618e-001
7.733478e+002;1.403492e-001
7.752763e+002;1.392472e-001
7.772048e+002;1.388640e-001
7.791334e+002;1.380795e-001
7.810620e+002;1.373893e-001
7.829905e+002;1.364146e-001
7.849191e+002;1.351834e-001
7.868476e+002;1.334164e-001
7.887761e+002;1.317356e-001
7.907047e+002;1.304293e-001
7.926332e+002;1.295392e-001
7.945618e+002;1.286561e-001
7.964903e+002;1.277560e-001
7.984189e+002;1.275252e-001
8.003474e+002;1.267292e-001
8.022759e+002;1.259240e-001
8.042045e+002;1.251636e-001
8.061331e+002;1.242052e-001
8.080616e+002;1.232598e-001
8.099902e+002;1.231287e-001
8.119187e+002;1.227722e-001
8.138472e+002;1.218335e-001
8.157758e+002;1.212349e-001
8.177043e+002;1.213795e-001
8.196329e+002;1.216287e-001
8.215615e+002;1.210148e-001
8.234900e+002;1.197955e-001
8.254185e+002;1.201554e-001
8.273471e+002;1.208374e-001
8.292756e+002;1.210142e-001
8.312042e+002;1.204688e-001
8.331328e+002;1.196016e-001
8.350613e+002;1.187012e-001
8.369898e+002;1.177523e-001
8.389184e+002;1.171479e-001
8.408469e+002;1.165232e-001
8.427755e+002;1.159591e-001
8.447040e+002;1.151453e-001
8.466326e+002;1.142224e-001
8.485611e+002;1.137053e-001
8.504897e+002;1.132328e-001
8.524182e+002;1.130605e-001
8.543467e+002;1.129872e-001
8.562753e+002;1.130677e-001
8.582039e+002;1.139426e-001
8.601324e+002;1.146379e-001
8.620610e+002;1.151703e-001
8.639895e+002;1.156204e-001
8.659180e+002;1.161966e-001
8.678466e+002;1.177217e-001
8.697751e+002;1.201491e-001
8.717037e+002;1.225900e-001
8.736323e+002;1.257390e-001
8.755608e+002;1.297783e-001
8.774893e+002;1.345592e-001
8.794179e+002;1.406012e-001
8.813464e+002;1.464339e-001
8.832750e+002;1.521233e-001
8.852036e+002;1.586159e-001
8.871321e+002;1.655000e-001
8.890606e+002;1.720378e-001
8.909892e+002;1.773957e-001
8.929177e+002;1.809674e-001
8.948463e+002;1.828572e-001
8.967748e+002;1.832831e-001
8.987034e+002;1.815043e-001
9.006319e+002;1.781735e-001
9.025605e+002;1.746847e-001
9.044890e+002;1.707635e-001
9.064175e+002;1.664376e-001
9.083461e+002;1.622569e-001
9.102747e+002;1.581711e-001
9.122032e+002;1.550623e-001
9.141318e+002;1.527556e-001
9.160603e+002;1.509908e-001
9.179888e+002;1.503025e-001
9.199174e+002;1.507171e-001
9.218459e+002;1.519149e-001
9.237745e+002;1.535049e-001
9.257031e+002;1.548289e-001
9.276316e+002;1.559998e-001
9.295601e+002;1.580105e-001
9.314887e+002;1.601835e-001
9.334172e+002;1.621520e-001
9.353458e+002;1.641713e-001
9.372744e+002;1.661130e-001
9.392029e+002;1.683306e-001
9.411314e+002;1.713948e-001
9.430600e+002;1.749501e-001
9.449885e+002;1.793060e-001
9.469171e+002;1.843302e-001
9.488456e+002;1.898130e-001
9.507742e+002;1.956119e-001
9.527027e+002;2.018150e-001
9.546313e+002;2.077776e-001
9.565598e+002;2.142380e-001
9.584883e+002;2.208805e-001
9.604169e+002;2.278548e-001
9.623455e+002;2.355957e-001
9.642740e+002;2.430056e-001
9.662026e+002;2.504452e-001
9.681311e+002;2.585440e-001
9.700596e+002;2.670579e-001
9.719882e+002;2.764607e-001
9.739167e+002;2.879213e-001
9.758453e+002;3.008868e-001
9.777739e+002;3.153401e-001
9.797024e+002;3.322734e-001
9.816309e+002;3.514697e-001
9.835595e+002;3.720944e-001
9.854880e+002;3.929960e-001
9.874166e+002;4.125451e-001
9.893452e+002;4.301437e-001
9.912737e+002;4.442616e-001
9.932022e+002;4.545037e-001
9.951307e+002;4.615386e-001
9.970593e+002;4.653186e-001
9.989879e+002;4.668926e-001
1.000916e+003;4.678438e-001
1.002845e+003;4.698970e-001
1.004773e+003;4.744440e-001
1.006702e+003;4.816405e-001
1.008631e+003;4.907972e-001
1.010559e+003;5.016314e-001
1.012488e+003;5.133265e-001
1.014416e+003;5.241552e-001
1.016345e+003;5.325445e-001
1.018273e+003;5.387766e-001
1.020202e+003;5.416437e-001
1.022130e+003;5.406985e-001
1.024059e+003;5.379624e-001
1.025988e+003;5.341147e-001
1.027916e+003;5.284764e-001
1.029845e+003;5.213400e-001
1.031773e+003;5.133611e-001
1.033702e+003;5.057535e-001
1.035630e+003;5.007724e-001
1.037559e+003;4.971588e-001
1.039487e+003;4.931203e-001
1.041416e+003;4.892160e-001
1.043344e+003;4.852217e-001
1.045273e+003;4.808937e-001
1.047202e+003;4.761212e-001
1.049130e+003;4.715249e-001
1.051059e+003;4.671523e-001
1.052987e+003;4.630155e-001
1.054916e+003;4.586786e-001
1.056844e+003;4.544924e-001
1.058773e+003;4.484637e-001
1.060701e+003;4.412618e-001
1.062630e+003;4.339293e-001
1.064558e+003;4.260598e-001
1.066487e+003;4.174489e-001
1.068416e+003;4.082671e-001
1.070344e+003;3.991544e-001
1.072273e+003;3.897734e-001
1.074201e+003;3.808691e-001
1.076130e+003;3.723766e-001
1.078058e+003;3.630331e-001
1.079987e+003;3.547685e-001
1.081915e+003;3.468412e-001
1.083844e+003;3.396987e-001
1.085773e+003;3.336482e-001
1.087701e+003;3.277427e-001
1.089630e+003;3.216511e-001
1.091558e+003;3.151873e-001
1.093487e+003;3.088268e-001
1.095415e+003;3.026943e-001
1.097344e+003;2.963656e-001
1.099272e+003;2.899256e-001
1.101201e+003;2.830745e-001
1.103129e+003;2.763818e-001
1.105058e+003;2.707212e-001
1.106987e+003;2.660953e-001
1.108915e+003;2.618977e-001
1.110844e+003;2.576933e-001
1.112772e+003;2.531594e-001
1.114701e+003;2.477313e-001
1.116629e+003;2.417073e-001
1.118558e+003;2.360847e-001
1.120486e+003;2.299415e-001
1.122415e+003;2.222879e-001
1.124344e+003;2.146048e-001
1.126272e+003;2.082688e-001
1.128201e+003;2.020988e-001
1.130129e+003;1.958008e-001
1.132058e+003;1.898918e-001
1.133986e+003;1.843540e-001
1.135915e+003;1.792159e-001
1.137843e+003;1.752007e-001
1.139772e+003;1.726458e-001
1.141700e+003;1.708339e-001
1.143629e+003;1.700485e-001
1.145557e+003;1.701975e-001
1.147486e+003;1.704846e-001
1.149415e+003;1.718424e-001
1.151343e+003;1.742017e-001
1.153272e+003;1.759091e-001
1.155200e+003;1.766346e-001
1.157129e+003;1.764961e-001
1.159057e+003;1.743020e-001
1.160986e+003;1.703609e-001
1.162914e+003;1.648188e-001
1.164843e+003;1.577121e-001
1.166771e+003;1.499088e-001
1.168700e+003;1.420573e-001
1.170629e+003;1.347314e-001
1.172557e+003;1.279854e-001
1.174486e+003;1.218498e-001
1.176414e+003;1.165895e-001
1.178343e+003;1.122366e-001
1.180271e+003;1.082281e-001
1.182200e+003;1.050763e-001
1.184128e+003;1.037417e-001
1.186057e+003;1.037320e-001
1.187986e+003;1.042386e-001
1.189914e+003;1.062360e-001
1.191843e+003;1.093863e-001
1.193771e+003;1.122445e-001
1.195700e+003;1.146039e-001
1.197628e+003;1.164590e-001
1.199557e+003;1.173942e-001
1.201485e+003;1.168743e-001
1.203414e+003;1.151173e-001
1.205343e+003;1.128071e-001
1.207271e+003;1.107679e-001
1.209200e+003;1.089502e-001
1.211128e+003;1.077115e-001
1.213057e+003;1.072988e-001
1.214985e+003;1.075318e-001
1.216914e+003;1.087587e-001
1.218842e+003;1.106064e-001
1.220771e+003;1.129458e-001
1.222699e+003;1.154231e-001
1.224628e+003;1.177528e-001
1.226557e+003;1.197474e-001
1.228485e+003;1.209313e-001
1.230414e+003;1.218125e-001
1.232342e+003;1.225926e-001
1.234271e+003;1.231530e-001
1.236199e+003;1.234631e-001
1.238128e+003;1.235714e-001
1.240056e+003;1.236343e-001
1.241985e+003;1.234598e-001
1.243913e+003;1.233655e-001
1.245842e+003;1.234887e-001
1.247771e+003;1.237720e-001
1.249699e+003;1.243675e-001
1.251628e+003;1.256336e-001
1.253556e+003;1.270535e-001
1.255485e+003;1.280448e-001
1.257413e+003;1.288815e-001
1.259342e+003;1.296712e-001
1.261270e+003;1.294348e-001
1.263199e+003;1.285308e-001
1.265127e+003;1.278100e-001
1.267056e+003;1.271383e-001
1.268985e+003;1.259678e-001
1.270913e+003;1.246141e-001
1.272842e+003;1.236016e-001
1.274770e+003;1.226297e-001
1.276699e+003;1.214067e-001
1.278627e+003;1.204249e-001
1.280556e+003;1.197151e-001
1.282484e+003;1.190266e-001
1.284413e+003;1.185138e-001
1.286342e+003;1.188982e-001
1.288270e+003;1.199732e-001
1.290199e+003;1.211985e-001
1.292127e+003;1.230114e-001
1.294056e+003;1.247590e-001
1.295984e+003;1.265598e-001
1.297913e+003;1.285372e-001
1.299841e+003;1.301365e-001
1.301770e+003;1.316526e-001
1.303698e+003;1.335212e-001
1.305627e+003;1.353437e-001
1.307556e+003;1.372500e-001
1.309484e+003;1.389813e-001
1.311413e+003;1.401767e-001
1.313341e+003;1.409961e-001
1.315270e+003;1.414941e-001
1.317198e+003;1.417406e-001
1.319127e+003;1.416186e-001
1.321055e+003;1.410977e-001
1.322984e+003;1.404736e-001
1.324912e+003;1.401894e-001
1.326841e+003;1.401982e-001
1.328770e+003;1.404457e-001
1.330698e+003;1.409666e-001
1.332627e+003;1.412881e-001
1.334555e+003;1.413734e-001
1.336484e+003;1.413377e-001
1.338412e+003;1.409508e-001
1.340341e+003;1.405010e-001
1.342269e+003;1.402345e-001
1.344198e+003;1.400281e-001
1.346126e+003;1.401673e-001
1.348055e+003;1.402444e-001
1.349984e+003;1.402063e-001
1.351912e+003;1.405753e-001
1.353841e+003;1.413112e-001
1.355769e+003;1.423059e-001
1.357698e+003;1.433074e-001
1.359626e+003;1.439568e-001
1.361555e+003;1.444768e-001
1.363483e+003;1.448016e-001
1.365412e+003;1.447331e-001
1.367341e+003;1.443854e-001
1.369269e+003;1.435793e-001
1.371198e+003;1.424659e-001
1.373126e+003;1.410113e-001
1.375055e+003;1.392419e-001
1.376983e+003;1.373481e-001
1.378912e+003;1.352667e-001
1.380840e+003;1.329071e-001
1.382769e+003;1.304889e-001
1.384698e+003;1.282016e-001
1.386626e+003;1.263603e-001
1.388555e+003;1.249564e-001
1.390483e+003;1.239497e-001
1.392412e+003;1.234226e-001
1.394340e+003;1.228117e-001
1.396269e+003;1.224902e-001
1.398197e+003;1.225187e-001
1.400126e+003;1.221986e-001
1.402054e+003;1.218904e-001
1.403983e+003;1.219707e-001
1.405911e+003;1.221172e-001
1.407840e+003;1.220999e-001
1.409769e+003;1.219462e-001
1.411697e+003;1.219236e-001
1.413626e+003;1.222950e-001
1.415554e+003;1.222847e-001
1.417483e+003;1.216594e-001
1.419411e+003;1.212243e-001
1.421340e+003;1.211201e-001
1.423268e+003;1.209566e-001
1.425197e+003;1.204600e-001
1.427125e+003;1.196685e-001
1.429054e+003;1.189717e-001
1.430983e+003;1.184277e-001
1.432911e+003;1.176159e-001
1.434840e+003;1.164755e-001
1.436768e+003;1.155009e-001
1.438697e+003;1.147583e-001
1.440625e+003;1.139631e-001
1.442554e+003;1.127836e-001
1.444482e+003;1.114238e-001
1.446411e+003;1.103118e-001
1.448340e+003;1.090903e-001
1.450268e+003;1.078850e-001
1.452197e+003;1.066745e-001
1.454125e+003;1.053515e-001
1.456054e+003;1.038998e-001
1.457982e+003;1.023911e-001
1.459911e+003;1.011952e-001
1.461839e+003;9.986546e-002
1.463768e+003;9.820384e-002
1.465697e+003;9.632535e-002
1.467625e+003;9.438967e-002
1.469554e+003;9.236670e-002
1.471482e+003;9.008077e-002
1.473411e+003;8.748484e-002
1.475339e+003;8.489334e-002
1.477268e+003;8.217530e-002
1.479196e+003;7.958531e-002
1.481125e+003;7.714042e-002
1.483053e+003;7.476597e-002
1.484982e+003;7.272772e-002
1.486911e+003;7.085820e-002
1.488839e+003;6.904027e-002
1.490768e+003;6.727885e-002
1.492696e+003;6.583016e-002
1.494625e+003;6.453134e-002
1.496553e+003;6.302063e-002
1.498482e+003;6.176952e-002
1.500410e+003;6.082338e-002
1.502339e+003;5.999365e-002
1.504267e+003;5.898400e-002
1.506196e+003;5.783842e-002
1.508125e+003;5.707633e-002
1.510053e+003;5.669745e-002
1.511982e+003;5.634360e-002
1.513910e+003;5.590464e-002
1.515839e+003;5.518867e-002
1.517767e+003;5.446107e-002
1.519696e+003;5.386123e-002
1.521624e+003;5.344643e-002
1.523553e+003;5.316700e-002
1.525481e+003;5.297205e-002
1.527410e+003;5.279234e-002
1.529339e+003;5.262770e-002
1.531267e+003;5.234342e-002
1.533196e+003;5.186718e-002
1.535124e+003;5.169920e-002
1.537053e+003;5.159698e-002
1.538981e+003;5.122594e-002
1.540910e+003;5.127355e-002
1.542838e+003;5.160963e-002
1.544767e+003;5.161810e-002
1.546695e+003;5.163001e-002
1.548624e+003;5.170102e-002
1.550553e+003;5.177295e-002
1.552481e+003;5.190228e-002
1.554410e+003;5.171909e-002
1.556338e+003;5.138129e-002
1.558267e+003;5.125935e-002
1.560195e+003;5.115847e-002
1.562124e+003;5.133090e-002
1.564052e+003;5.177519e-002
1.565981e+003;5.210759e-002
1.567910e+003;5.232051e-002
1.569838e+003;5.247744e-002
1.571767e+003;5.270229e-002
1.573695e+003;5.295289e-002
1.575624e+003;5.313244e-002
1.577552e+003;5.337257e-002
1.579481e+003;5.399925e-002
1.581409e+003;5.477569e-002
1.583338e+003;5.545554e-002
1.585266e+003;5.609658e-002
1.587195e+003;5.658009e-002
1.589124e+003;5.720426e-002
1.591052e+003;5.797843e-002
1.592981e+003;5.869560e-002
1.594909e+003;5.971104e-002
1.596838e+003;6.077109e-002
1.598766e+003;6.139541e-002
1.600695e+003;6.189540e-002
1.602623e+003;6.279095e-002
1.604552e+003;6.384040e-002
1.606480e+003;6.475798e-002
1.608409e+003;6.566150e-002
1.610338e+003;6.656267e-002
1.612266e+003;6.738943e-002
1.614195e+003;6.818842e-002
1.616123e+003;6.904633e-002
1.618052e+003;6.996522e-002
1.619980e+003;7.101129e-002
1.621909e+003;7.203677e-002
1.623837e+003;7.289186e-002
1.625766e+003;7.359693e-002
1.627694e+003;7.430972e-002
1.629623e+003;7.504361e-002
1.631552e+003;7.589600e-002
1.633480e+003;7.655159e-002
1.635409e+003;7.687040e-002
1.637337e+003;7.718451e-002
1.639266e+003;7.772256e-002
1.641194e+003;7.800975e-002
1.643123e+003;7.802676e-002
1.645051e+003;7.793172e-002
1.646980e+003;7.759161e-002
1.648909e+003;7.712589e-002
1.650837e+003;7.653954e-002
1.652766e+003;7.579508e-002
1.654694e+003;7.527123e-002
1.656623e+003;7.483319e-002
1.658551e+003;7.387824e-002
1.660480e+003;7.271174e-002
1.662408e+003;7.185275e-002
1.664337e+003;7.106764e-002
1.666266e+003;7.004806e-002
1.668194e+003;6.880137e-002
1.670123e+003;6.751475e-002
1.672051e+003;6.639115e-002
1.673980e+003;6.514523e-002
1.675908e+003;6.370685e-002
1.677837e+003;6.239107e-002
1.679765e+003;6.101815e-002
1.681694e+003;5.953437e-002
1.683622e+003;5.820629e-002
1.685551e+003;5.698131e-002
1.687479e+003;5.596234e-002
1.689408e+003;5.492614e-002
1.691337e+003;5.410627e-002
1.693265e+003;5.340101e-002
1.695194e+003;5.256068e-002
1.697122e+003;5.205010e-002
1.699051e+003;5.172704e-002
1.700979e+003;5.121230e-002
1.702908e+003;5.065549e-002
1.704836e+003;5.009624e-002
1.706765e+003;4.965184e-002
1.708693e+003;4.927440e-002
1.710622e+003;4.880745e-002
1.712551e+003;4.836370e-002
1.714479e+003;4.778934e-002
1.716408e+003;4.708687e-002
1.718336e+003;4.641212e-002
1.720265e+003;4.604014e-002
1.722193e+003;4.552484e-002
1.724122e+003;4.452114e-002
1.726050e+003;4.346123e-002
1.727979e+003;4.248260e-002
1.729908e+003;4.149771e-002
1.731836e+003;4.071007e-002
1.733765e+003;3.990724e-002
1.735693e+003;3.884261e-002
1.737622e+003;3.767245e-002
1.739550e+003;3.653643e-002
1.741479e+003;3.554647e-002
1.743407e+003;3.447037e-002
1.745336e+003;3.313275e-002
1.747265e+003;3.210920e-002
1.749193e+003;3.169665e-002
1.751122e+003;3.098470e-002
1.753050e+003;3.039561e-002
1.754979e+003;3.015734e-002
1.756907e+003;2.970743e-002
1.758836e+003;2.928015e-002
1.760764e+003;2.895619e-002
1.762693e+003;2.868129e-002
1.764621e+003;2.874200e-002
1.766550e+003;2.873014e-002
1.768479e+003;2.846306e-002
1.770407e+003;2.822312e-002
1.772336e+003;2.805947e-002
1.774264e+003;2.797819e-002
1.776193e+003;2.790917e-002
1.778121e+003;2.771775e-002
1.780050e+003;2.750646e-002
1.781978e+003;2.738536e-002
1.783907e+003;2.718322e-002
1.785835e+003;2.694688e-002
1.787764e+003;2.671299e-002
1.789693e+003;2.641151e-002
1.791621e+003;2.611647e-002
1.793550e+003;2.593930e-002
1.795478e+003;2.602298e-002
1.797407e+003;2.602896e-002
1.799335e+003;2.577932e-002
1.801264e+003;2.558004e-002
1.803192e+003;2.569688e-002
1.805121e+003;2.573850e-002
1.807049e+003;2.557372e-002
1.808978e+003;2.530653e-002
1.810907e+003;2.510245e-002
1.812835e+003;2.516073e-002
1.814764e+003;2.517277e-002
1.816692e+003;2.503649e-002
1.818621e+003;2.502358e-002
1.820549e+003;2.494022e-002
1.822478e+003;2.471622e-002
1.824406e+003;2.451514e-002
1.826335e+003;2.457520e-002
1.828264e+003;2.453068e-002
1.830192e+003;2.435086e-002
1.832121e+003;2.417665e-002
1.834049e+003;2.401627e-002
1.835978e+003;2.404065e-002
1.837906e+003;2.410957e-002
1.839835e+003;2.394484e-002
1.841763e+003;2.371946e-002
1.843692e+003;2.343117e-002
1.845620e+003;2.329166e-002
1.847549e+003;2.333399e-002
1.849478e+003;2.328393e-002
1.851406e+003;2.301567e-002
1.853335e+003;2.292264e-002
1.855263e+003;2.304897e-002
1.857192e+003;2.303565e-002
1.859120e+003;2.280459e-002
1.861049e+003;2.267876e-002
1.862977e+003;2.264099e-002
1.864906e+003;2.269859e-002
1.866834e+003;2.265017e-002
1.868763e+003;2.253862e-002
1.870692e+003;2.252940e-002
1.872620e+003;2.254130e-002
1.874549e+003;2.227859e-002
1.876477e+003;2.200523e-002
1.878406e+003;2.202141e-002
1.880334e+003;2.205065e-002
1.882263e+003;2.186736e-002
1.884191e+003;2.171111e-002
1.886120e+003;2.186012e-002
1.888048e+003;2.192518e-002
1.889977e+003;2.190239e-002
1.891906e+003;2.201600e-002
1.893834e+003;2.209538e-002
1.895763e+003;2.209266e-002
1.897691e+003;2.211135e-002
1.899620e+003;2.217390e-002
1.901548e+003;2.209542e-002
1.903477e+003;2.204539e-002
1.905405e+003;2.219475e-002
1.907334e+003;2.225829e-002
1.909262e+003;2.219503e-002
1.911191e+003;2.217202e-002
1.913120e+003;2.244007e-002
1.915048e+003;2.281793e-002
1.916977e+003;2.314943e-002
1.918905e+003;2.335816e-002
1.920834e+003;2.344858e-002
1.922762e+003;2.334644e-002
1.924691e+003;2.330109e-002
1.926619e+003;2.353721e-002
1.928548e+003;2.385690e-002
1.930477e+003;2.391351e-002
1.932405e+003;2.376709e-002
1.934334e+003;2.385294e-002
1.936262e+003;2.393168e-002
1.938191e+003;2.394894e-002
1.940119e+003;2.419140e-002
1.942048e+003;2.437690e-002
1.943976e+003;2.446186e-002
1.945905e+003;2.465852e-002
1.947833e+003;2.497139e-002
1.949762e+003;2.514114e-002
1.951691e+003;2.506433e-002
1.953619e+003;2.521354e-002
1.955548e+003;2.544592e-002
1.957476e+003;2.543570e-002
1.959405e+003;2.548179e-002
1.961333e+003;2.569664e-002
1.963262e+003;2.595597e-002
1.965190e+003;2.624640e-002
1.967119e+003;2.639799e-002
1.969047e+003;2.617988e-002
1.970976e+003;2.603966e-002
1.972905e+003;2.633490e-002
1.974833e+003;2.670461e-002
1.976762e+003;2.677342e-002
1.978690e+003;2.683552e-002
1.980619e+003;2.694046e-002
1.982547e+003;2.695245e-002
1.984476e+003;2.707152e-002
1.986404e+003;2.713141e-002
1.988333e+003;2.710549e-002
1.990261e+003;2.723910e-002
1.992190e+003;2.743501e-002
1.994119e+003;2.752884e-002
1.996047e+003;2.743907e-002
1.997976e+003;2.754388e-002
1.999904e+003;2.772806e-002
2.001833e+003;2.748192e-002
2.003761e+003;2.733310e-002
2.005690e+003;2.773950e-002
2.007618e+003;2.807800e-002
2.009547e+003;2.828956e-002
2.011476e+003;2.838138e-002
2.013404e+003;2.849455e-002
2.015333e+003;2.872122e-002
2.017261e+003;2.908840e-002
2.019190e+003;2.927940e-002
2.021118e+003;2.943106e-002
2.023047e+003;2.963087e-002
2.024975e+003;2.974643e-002
2.026904e+003;2.971112e-002
2.028833e+003;2.969452e-002
2.030761e+003;2.987443e-002
2.032690e+003;3.009249e-002
2.034618e+003;3.020898e-002
2.036547e+003;3.026603e-002
2.038475e+003;3.036544e-002
2.040404e+003;3.041082e-002
2.042332e+003;3.053536e-002
2.044261e+003;3.061685e-002
2.046189e+003;3.062808e-002
2.048118e+003;3.064653e-002
2.050047e+003;3.060536e-002
2.051975e+003;3.062488e-002
2.053904e+003;3.065077e-002
2.055832e+003;3.069372e-002
2.057761e+003;3.085936e-002
2.059689e+003;3.109257e-002
2.061618e+003;3.111112e-002
2.063546e+003;3.082375e-002
2.065475e+003;3.066154e-002
2.067404e+003;3.065905e-002
2.069332e+003;3.086704e-002
2.071260e+003;3.109549e-002
2.073189e+003;3.102317e-002
2.075118e+003;3.083079e-002
2.077046e+003;3.068700e-002
2.078975e+003;3.061286e-002
2.080903e+003;3.086249e-002
2.082832e+003;3.108300e-002
2.084760e+003;3.104189e-002
2.086689e+003;3.106125e-002
2.088617e+003;3.121788e-002
2.090546e+003;3.111888e-002
2.092475e+003;3.086900e-002
2.094403e+003;3.096268e-002
2.096332e+003;3.124821e-002
2.098260e+003;3.135800e-002
2.100189e+003;3.121809e-002
2.102117e+003;3.130861e-002
2.104046e+003;3.139244e-002
2.105974e+003;3.149407e-002
2.107903e+003;3.181379e-002
2.109832e+003;3.197618e-002
2.111760e+003;3.210224e-002
2.113688e+003;3.223077e-002
2.115617e+003;3.218113e-002
2.117546e+003;3.208530e-002
2.119474e+003;3.209964e-002
2.121403e+003;3.222206e-002
2.123331e+003;3.230597e-002
2.125260e+003;3.233845e-002
2.127188e+003;3.235512e-002
2.129117e+003;3.253178e-002
2.131045e+003;3.267604e-002
2.132974e+003;3.265065e-002
2.134903e+003;3.265340e-002
2.136831e+003;3.265757e-002
2.138760e+003;3.261860e-002
2.140688e+003;3.243041e-002
2.142617e+003;3.206475e-002
2.144545e+003;3.204024e-002
2.146474e+003;3.230918e-002
2.148402e+003;3.237850e-002
2.150331e+003;3.239978e-002
2.152260e+003;3.208141e-002
2.154188e+003;3.165360e-002
2.156117e+003;3.166083e-002
2.158045e+003;3.158878e-002
2.159974e+003;3.149735e-002
2.161902e+003;3.156444e-002
2.163831e+003;3.181123e-002
2.165759e+003;3.185508e-002
2.167688e+003;3.145538e-002
2.169616e+003;3.111610e-002
2.171545e+003;3.100762e-002
2.173474e+003;3.092660e-002
2.175402e+003;3.102876e-002
2.177331e+003;3.090952e-002
2.179259e+003;3.054116e-002
2.181188e+003;3.045034e-002
2.183116e+003;3.039398e-002
2.185045e+003;3.014466e-002
2.186973e+003;2.996712e-002
2.188902e+003;2.980232e-002
2.190831e+003;2.974902e-002
2.192759e+003;2.980917e-002
2.194688e+003;2.982545e-002
2.196616e+003;2.973671e-002
2.198545e+003;2.961935e-002
2.200473e+003;2.949269e-002
2.202402e+003;2.943691e-002
2.204330e+003;2.942078e-002
2.206259e+003;2.939089e-002
2.208188e+003;2.924807e-002
2.210116e+003;2.914339e-002
2.212044e+003;2.905194e-002
2.213973e+003;2.907837e-002
2.215902e+003;2.883710e-002
2.217830e+003;2.866359e-002
2.219759e+003;2.866190e-002
2.221687e+003;2.862229e-002
2.223616e+003;2.864264e-002
2.225544e+003;2.866643e-002
2.227473e+003;2.860293e-002
2.229401e+003;2.834774e-002
2.231330e+003;2.829289e-002
2.233259e+003;2.828599e-002
2.235187e+003;2.821202e-002
2.237116e+003;2.822803e-002
2.239044e+003;2.827892e-002
2.240973e+003;2.835938e-002
2.242901e+003;2.834693e-002
2.244830e+003;2.815584e-002
2.246758e+003;2.789204e-002
2.248687e+003;2.766654e-002
2.250615e+003;2.781424e-002
2.252544e+003;2.780453e-002
2.254473e+003;2.751952e-002
2.256401e+003;2.743755e-002
2.258330e+003;2.744638e-002
2.260258e+003;2.730307e-002
2.262187e+003;2.719783e-002
2.264115e+003;2.730847e-002
2.266044e+003;2.738730e-002
2.267972e+003;2.728998e-002
2.269901e+003;2.707791e-002
2.271830e+003;2.685195e-002
2.273758e+003;2.669707e-002
2.275687e+003;2.661448e-002
2.277615e+003;2.669481e-002
2.279544e+003;2.671905e-002
2.281472e+003;2.672712e-002
2.283401e+003;2.667335e-002
2.285329e+003;2.650451e-002
2.287258e+003;2.645405e-002
2.289187e+003;2.638486e-002
2.291115e+003;2.621733e-002
2.293043e+003;2.620656e-002
2.294972e+003;2.649796e-002
2.296901e+003;2.637524e-002
2.298829e+003;2.618702e-002
2.300758e+003;2.635989e-002
2.302686e+003;2.635961e-002
2.304615e+003;2.623091e-002
2.306543e+003;2.618403e-002
2.308472e+003;2.633930e-002
2.310400e+003;2.670623e-002
2.312329e+003;2.688300e-002
2.314258e+003;2.693303e-002
2.316186e+003;2.703150e-002
2.318115e+003;2.681677e-002
2.320043e+003;2.657461e-002
2.321972e+003;2.660740e-002
2.323900e+003;2.650490e-002
2.325829e+003;2.639799e-002
2.327757e+003;2.667589e-002
2.329686e+003;2.699938e-002
2.331615e+003;2.709208e-002
2.333543e+003;2.696930e-002
2.335472e+003;2.696973e-002
2.337400e+003;2.718301e-002
2.339329e+003;2.729901e-002
2.341257e+003;2.748701e-002
2.343186e+003;2.780707e-002
2.345114e+003;2.808977e-002
2.347043e+003;2.814626e-002
2.348971e+003;2.811960e-002
2.350900e+003;2.811949e-002
2.352829e+003;2.835117e-002
2.354757e+003;2.843709e-002
2.356686e+003;2.836497e-002
2.358614e+003;2.846967e-002
2.360543e+003;2.848015e-002
2.362471e+003;2.858244e-002
2.364400e+003;2.888936e-002
2.366328e+003;2.895017e-002
2.368257e+003;2.897670e-002
2.370186e+003;2.923127e-002
2.372114e+003;2.939075e-002
2.374042e+003;2.944833e-002
2.375971e+003;2.952436e-002
2.377900e+003;2.978283e-002
2.379828e+003;3.014349e-002
2.381757e+003;3.032739e-002
2.383685e+003;3.049473e-002
2.385614e+003;3.086996e-002
2.387542e+003;3.086793e-002
2.389471e+003;3.065464e-002
2.391399e+003;3.071356e-002
2.393328e+003;3.101153e-002
2.395257e+003;3.117573e-002
2.397185e+003;3.128279e-002
2.399114e+003;3.154677e-002
2.401042e+003;3.179632e-002
2.402971e+003;3.192158e-002
2.404899e+003;3.203636e-002
2.406828e+003;3.213275e-002
2.408756e+003;3.220404e-002
2.410685e+003;3.250964e-002
2.412614e+003;3.270773e-002
2.414542e+003;3.300443e-002
2.416471e+003;3.313279e-002
2.418399e+003;3.303524e-002
2.420328e+003;3.329889e-002
2.422256e+003;3.364118e-002
2.424185e+003;3.373997e-002
2.426113e+003;3.399817e-002
2.428042e+003;3.450901e-002
2.429970e+003;3.480291e-002
2.431899e+003;3.498679e-002
2.433828e+003;3.499616e-002
2.435756e+003;3.494258e-002
2.437685e+003;3.515124e-002
2.439613e+003;3.584555e-002
2.441542e+003;3.644161e-002
2.443470e+003;3.633536e-002
2.445399e+003;3.621873e-002
2.447327e+003;3.661559e-002
2.449256e+003;3.718235e-002
2.451185e+003;3.760690e-002
2.453113e+003;3.797516e-002
2.455042e+003;3.806109e-002
2.456970e+003;3.805986e-002
2.458899e+003;3.821979e-002
2.460827e+003;3.845642e-002
2.462756e+003;3.845135e-002
2.464684e+003;3.861342e-002
2.466613e+003;3.908653e-002
2.468542e+003;3.957127e-002
2.470470e+003;3.969723e-002
2.472398e+003;3.967959e-002
2.474327e+003;3.992108e-002
2.476256e+003;4.008210e-002
2.478184e+003;4.032784e-002
2.480113e+003;4.096549e-002
2.482041e+003;4.116758e-002
2.483970e+003;4.106742e-002
2.485898e+003;4.142958e-002
2.487827e+003;4.172691e-002
2.489755e+003;4.178976e-002
2.491684e+003;4.201997e-002
2.493613e+003;4.233373e-002
2.495541e+003;4.250599e-002
2.497470e+003;4.258398e-002
2.499398e+003;4.248681e-002
2.501327e+003;4.257762e-002
2.503255e+003;4.279641e-002
2.505184e+003;4.292598e-002
2.507112e+003;4.320430e-002
2.509041e+003;4.334176e-002
2.510969e+003;4.342817e-002
2.512898e+003;4.364262e-002
2.514827e+003;4.367846e-002
2.516755e+003;4.356001e-002
2.518684e+003;4.359756e-002
2.520612e+003;4.376845e-002
2.522541e+003;4.411509e-002
2.524469e+003;4.435946e-002
2.526398e+003;4.434335e-002
2.528326e+003;4.452137e-002
2.530255e+003;4.483749e-002
2.532184e+003;4.496061e-002
2.534112e+003;4.496947e-002
2.536041e+003;4.497704e-002
2.537969e+003;4.505330e-002
2.539898e+003;4.524168e-002
2.541826e+003;4.543720e-002
2.543755e+003;4.567536e-002
2.545683e+003;4.577196e-002
2.547612e+003;4.569664e-002
2.549541e+003;4.566005e-002
2.551469e+003;4.579479e-002
2.553397e+003;4.590909e-002
2.555326e+003;4.617161e-002
2.557255e+003;4.648111e-002
2.559183e+003;4.658933e-002
2.561112e+003;4.701701e-002
2.563040e+003;4.746537e-002
2.564969e+003;4.730159e-002
2.566897e+003;4.716325e-002
2.568826e+003;4.751187e-002
2.570754e+003;4.774118e-002
2.572683e+003;4.755120e-002
2.574612e+003;4.757538e-002
2.576540e+003;4.784941e-002
2.578469e+003;4.807117e-002
2.580397e+003;4.816604e-002
2.582326e+003;4.836859e-002
2.584254e+003;4.841341e-002
2.586183e+003;4.869276e-002
2.588111e+003;4.894665e-002
2.590040e+003;4.921213e-002
2.591969e+003;4.962179e-002
2.593897e+003;4.970920e-002
2.595826e+003;4.979116e-002
2.597754e+003;5.008991e-002
2.599683e+003;5.025445e-002
2.601611e+003;5.034865e-002
2.603540e+003;5.059011e-002
2.605468e+003;5.087846e-002
2.607397e+003;5.112656e-002
2.609325e+003;5.124056e-002
2.611254e+003;5.131207e-002
2.613183e+003;5.177228e-002
2.615111e+003;5.232873e-002
2.617040e+003;5.252799e-002
2.618968e+003;5.269282e-002
2.620897e+003;5.296224e-002
2.622825e+003;5.318629e-002
2.624754e+003;5.337726e-002
2.626682e+003;5.373765e-002
2.628611e+003;5.425859e-002
2.630540e+003;5.461859e-002
2.632468e+003;5.481880e-002
2.634396e+003;5.517505e-002
2.636325e+003;5.556488e-002
2.638254e+003;5.582035e-002
2.640182e+003;5.594727e-002
2.642111e+003;5.612456e-002
2.644039e+003;5.660658e-002
2.645968e+003;5.695962e-002
2.647896e+003;5.698417e-002
2.649825e+003;5.718336e-002
2.651753e+003;5.746262e-002
2.653682e+003;5.785175e-002
2.655611e+003;5.839061e-002
2.657539e+003;5.891633e-002
2.659468e+003;5.934045e-002
2.661396e+003;5.980857e-002
2.663325e+003;6.009432e-002
2.665253e+003;6.028857e-002
2.667182e+003;6.056519e-002
2.669110e+003;6.094582e-002
2.671039e+003;6.133591e-002
2.672968e+003;6.151007e-002
2.674896e+003;6.188542e-002
2.676825e+003;6.232547e-002
2.678753e+003;6.258184e-002
2.680682e+003;6.277250e-002
2.682610e+003;6.298493e-002
2.684539e+003;6.330129e-002
2.686467e+003;6.356273e-002
2.688396e+003;6.373513e-002
2.690324e+003;6.416354e-002
2.692253e+003;6.468179e-002
2.694182e+003;6.499728e-002
2.696110e+003;6.538463e-002
2.698039e+003;6.570444e-002
2.699967e+003;6.580541e-002
2.701896e+003;6.582816e-002
2.703824e+003;6.595384e-002
2.705753e+003;6.627878e-002
2.707681e+003;6.664456e-002
2.709610e+003;6.696391e-002
2.711539e+003;6.713864e-002
2.713467e+003;6.721070e-002
2.715396e+003;6.738943e-002
2.717324e+003;6.776033e-002
2.719253e+003;6.825247e-002
2.721181e+003;6.864014e-002
2.723110e+003;6.882269e-002
2.725038e+003;6.903472e-002
2.726967e+003;6.911723e-002
2.728896e+003;6.928843e-002
2.730824e+003;6.954887e-002
2.732752e+003;6.973908e-002
2.734681e+003;6.982993e-002
2.736610e+003;7.031219e-002
2.738538e+003;7.056770e-002
2.740467e+003;7.066485e-002
2.742395e+003;7.092144e-002
2.744324e+003;7.093060e-002
2.746252e+003;7.117212e-002
2.748181e+003;7.162019e-002
2.750109e+003;7.173071e-002
2.752038e+003;7.171070e-002
2.753967e+003;7.207721e-002
2.755895e+003;7.250590e-002
2.757824e+003;7.257732e-002
2.759752e+003;7.267512e-002
2.761681e+003;7.300227e-002
2.763609e+003;7.339001e-002
2.765538e+003;7.361016e-002
2.767466e+003;7.389453e-002
2.769395e+003;7.417956e-002
2.771323e+003;7.463736e-002
2.773252e+003;7.515209e-002
2.775181e+003;7.553434e-002
2.777109e+003;7.590492e-002
2.779038e+003;7.639903e-002
2.780966e+003;7.683754e-002
2.782895e+003;7.714441e-002
2.784823e+003;7.725995e-002
2.786752e+003;7.764014e-002
2.788680e+003;7.827888e-002
2.790609e+003;7.881121e-002
2.792538e+003;7.919762e-002
2.794466e+003;7.944843e-002
2.796395e+003;7.979346e-002
2.798323e+003;8.027225e-002
2.800252e+003;8.079502e-002
2.802180e+003;8.133596e-002
2.804109e+003;8.176793e-002
2.806037e+003;8.235831e-002
2.807966e+003;8.295161e-002
2.809895e+003;8.329707e-002
2.811823e+003;8.385538e-002
2.813751e+003;8.456617e-002
2.815680e+003;8.511619e-002
2.817609e+003;8.568195e-002
2.819537e+003;8.622676e-002
2.821466e+003;8.672669e-002
2.823394e+003;8.741190e-002
2.825323e+003;8.812696e-002
2.827251e+003;8.878905e-002
2.829180e+003;8.959028e-002
2.831108e+003;9.050214e-002
2.833037e+003;9.147955e-002
2.834966e+003;9.266470e-002
2.836894e+003;9.376273e-002
2.838823e+003;9.455025e-002
2.840751e+003;9.565790e-002
2.842680e+003;9.685990e-002
2.844608e+003;9.821410e-002
2.846537e+003;9.974354e-002
2.848465e+003;1.015738e-001
2.850394e+003;1.033391e-001
2.852323e+003;1.043463e-001
2.854251e+003;1.050671e-001
2.856180e+003;1.063032e-001
2.858108e+003;1.076486e-001
2.860037e+003;1.089875e-001
2.861965e+003;1.106047e-001
2.863894e+003;1.124893e-001
2.865822e+003;1.138770e-001
2.867751e+003;1.150952e-001
2.869679e+003;1.166150e-001
2.871608e+003;1.178256e-001
2.873536e+003;1.186909e-001
2.875465e+003;1.194591e-001
2.877394e+003;1.202339e-001
2.879322e+003;1.209116e-001
2.881251e+003;1.216775e-001
2.883179e+003;1.222717e-001
2.885108e+003;1.225047e-001
2.887036e+003;1.225192e-001
2.888965e+003;1.225022e-001
2.890893e+003;1.224203e-001
2.892822e+003;1.223150e-001
2.894750e+003;1.221302e-001
2.896679e+003;1.217150e-001
2.898608e+003;1.212846e-001
2.900536e+003;1.209055e-001
2.902465e+003;1.206284e-001
2.904393e+003;1.202273e-001
2.906322e+003;1.194346e-001
2.908250e+003;1.191758e-001
2.910179e+003;1.190514e-001
2.912107e+003;1.186297e-001
2.914036e+003;1.177981e-001
2.915965e+003;1.172912e-001
2.917893e+003;1.171745e-001
2.919822e+003;1.164390e-001
2.921750e+003;1.150399e-001
2.923679e+003;1.138429e-001
2.925607e+003;1.128069e-001
2.927536e+003;1.113746e-001
2.929464e+003;1.100081e-001
2.931393e+003;1.088702e-001
2.933322e+003;1.078670e-001
2.935250e+003;1.068297e-001
2.937178e+003;1.055191e-001
2.939107e+003;1.040970e-001
2.941036e+003;1.026852e-001
2.942964e+003;1.011969e-001
2.944893e+003;9.991174e-002
2.946821e+003;9.884741e-002
2.948750e+003;9.771824e-002
2.950678e+003;9.640994e-002
2.952607e+003;9.507401e-002
2.954535e+003;9.374255e-002
2.956464e+003;9.239433e-002
2.958393e+003;9.135801e-002
2.960321e+003;9.056357e-002
2.962250e+003;8.928128e-002
2.964178e+003;8.802388e-002
2.966107e+003;8.732264e-002
2.968035e+003;8.665869e-002
2.969964e+003;8.592220e-002
2.971892e+003;8.541384e-002
2.973821e+003;8.489012e-002
2.975750e+003;8.419536e-002
2.977678e+003;8.342469e-002
2.979607e+003;8.282826e-002
2.981535e+003;8.238798e-002
2.983464e+003;8.195532e-002
2.985392e+003;8.142476e-002
2.987321e+003;8.087312e-002
2.989249e+003;8.059695e-002
2.991178e+003;8.038530e-002
2.993106e+003;8.030370e-002
2.995035e+003;8.017719e-002
2.996964e+003;8.024092e-002
2.998892e+003;8.019493e-002
3.000821e+003;7.980752e-002
3.002749e+003;7.958452e-002
3.004678e+003;7.981715e-002
3.006606e+003;8.027081e-002
3.008535e+003;8.051328e-002
3.010463e+003;8.072558e-002
3.012392e+003;8.082686e-002
3.014321e+003;8.103681e-002
3.016249e+003;8.148115e-002
3.018177e+003;8.177013e-002
3.020106e+003;8.199414e-002
3.022035e+003;8.222711e-002
3.023963e+003;8.261088e-002
3.025892e+003;8.314128e-002
3.027820e+003;8.356152e-002
3.029749e+003;8.414987e-002
3.031677e+003;8.514960e-002
3.033606e+003;8.589984e-002
3.035534e+003;8.625727e-002
3.037463e+003;8.667555e-002
3.039392e+003;8.719062e-002
3.041320e+003;8.765319e-002
3.043249e+003;8.811856e-002
3.045177e+003;8.854681e-002
3.047106e+003;8.911535e-002
3.049034e+003;8.974437e-002
3.050963e+003;9.017100e-002
3.052891e+003;9.083169e-002
3.054820e+003;9.149060e-002
3.056749e+003;9.215527e-002
3.058677e+003;9.282206e-002
3.060606e+003;9.341785e-002
3.062534e+003;9.403486e-002
3.064463e+003;9.454942e-002
3.066391e+003;9.492148e-002
3.068320e+003;9.558981e-002
3.070248e+003;9.630946e-002
3.072177e+003;9.676424e-002
3.074105e+003;9.754864e-002
3.076034e+003;9.850187e-002
3.077963e+003;9.920006e-002
3.079891e+003;9.961128e-002
3.081820e+003;1.005079e-001
3.083748e+003;1.014699e-001
3.085677e+003;1.020827e-001
3.087605e+003;1.028711e-001
3.089534e+003;1.034568e-001
3.091462e+003;1.039737e-001
3.093391e+003;1.046446e-001
3.095320e+003;1.053252e-001
3.097248e+003;1.058043e-001
3.099177e+003;1.064847e-001
3.101105e+003;1.073268e-001
3.103034e+003;1.082274e-001
3.104962e+003;1.087355e-001
3.106891e+003;1.089743e-001
3.108819e+003;1.097717e-001
3.110748e+003;1.109169e-001
3.112677e+003;1.118031e-001
3.114605e+003;1.122726e-001
3.116533e+003;1.127223e-001
3.118462e+003;1.131992e-001
3.120391e+003;1.139900e-001
3.122319e+003;1.151121e-001
3.124248e+003;1.159925e-001
3.126176e+003;1.167490e-001
3.128105e+003;1.176071e-001
3.130033e+003;1.183494e-001
3.131962e+003;1.190361e-001
3.133890e+003;1.198343e-001
3.135819e+003;1.204237e-001
3.137748e+003;1.210279e-001
3.139676e+003;1.218785e-001
3.141605e+003;1.229370e-001
3.143533e+003;1.238618e-001
3.145462e+003;1.245215e-001
3.147390e+003;1.247856e-001
3.149319e+003;1.252664e-001
3.151247e+003;1.260181e-001
3.153176e+003;1.268436e-001
3.155104e+003;1.278193e-001
3.157033e+003;1.287722e-001
3.158962e+003;1.293365e-001
3.160890e+003;1.299607e-001
3.162819e+003;1.306208e-001
3.164747e+003;1.310527e-001
3.166676e+003;1.318054e-001
3.168604e+003;1.326985e-001
3.170533e+003;1.332710e-001
3.172461e+003;1.338351e-001
3.174390e+003;1.347991e-001
3.176319e+003;1.359791e-001
3.178247e+003;1.366627e-001
3.180176e+003;1.370358e-001
3.182104e+003;1.376424e-001
3.184033e+003;1.382689e-001
3.185961e+003;1.391510e-001
3.187890e+003;1.401630e-001
3.189818e+003;1.409015e-001
3.191747e+003;1.413556e-001
3.193676e+003;1.419029e-001
3.195604e+003;1.423643e-001
3.197532e+003;1.428219e-001
3.199461e+003;1.434446e-001
3.201390e+003;1.441440e-001
3.203318e+003;1.452516e-001
3.205247e+003;1.461983e-001
3.207175e+003;1.468262e-001
3.209104e+003;1.470630e-001
3.211032e+003;1.472297e-001
3.212961e+003;1.480361e-001
3.214889e+003;1.491550e-001
3.216818e+003;1.501777e-001
3.218747e+003;1.507404e-001
3.220675e+003;1.512326e-001
3.222604e+003;1.514981e-001
3.224532e+003;1.518788e-001
3.226461e+003;1.523652e-001
3.228389e+003;1.529783e-001
3.230318e+003;1.533450e-001
3.232246e+003;1.539575e-001
3.234175e+003;1.548108e-001
3.236104e+003;1.555652e-001
3.238032e+003;1.556895e-001
3.239961e+003;1.555768e-001
3.241889e+003;1.559079e-001
3.243818e+003;1.565568e-001
3.245746e+003;1.569966e-001
3.247675e+003;1.575010e-001
3.249603e+003;1.587287e-001
3.251532e+003;1.597613e-001
3.253460e+003;1.602304e-001
3.255389e+003;1.605010e-001
3.257318e+003;1.605539e-001
3.259246e+003;1.608258e-001
3.261175e+003;1.615132e-001
3.263103e+003;1.617137e-001
3.265032e+003;1.617572e-001
3.266960e+003;1.621769e-001
3.268889e+003;1.629295e-001
3.270817e+003;1.637788e-001
3.272746e+003;1.641560e-001
3.274675e+003;1.643836e-001
3.276603e+003;1.646163e-001
3.278531e+003;1.650943e-001
3.280460e+003;1.655668e-001
3.282389e+003;1.656202e-001
3.284317e+003;1.659515e-001
3.286246e+003;1.663726e-001
3.288174e+003;1.665157e-001
3.290103e+003;1.665279e-001
3.292031e+003;1.666560e-001
3.293960e+003;1.669360e-001
3.295888e+003;1.671730e-001
3.297817e+003;1.672975e-001
3.299746e+003;1.678295e-001
3.301674e+003;1.686414e-001
3.303603e+003;1.689883e-001
3.305531e+003;1.689430e-001
3.307460e+003;1.687655e-001
3.309388e+003;1.689572e-001
3.311317e+003;1.692218e-001
3.313245e+003;1.693108e-001
3.315174e+003;1.696319e-001
3.317103e+003;1.698346e-001
3.319031e+003;1.699209e-001
3.320960e+003;1.701719e-001
3.322888e+003;1.702405e-001
3.324817e+003;1.700323e-001
3.326745e+003;1.697890e-001
3.328674e+003;1.698323e-001
3.330602e+003;1.700925e-001
3.332531e+003;1.702797e-001
3.334459e+003;1.700499e-001
3.336388e+003;1.703008e-001
3.338317e+003;1.709306e-001
3.340245e+003;1.707084e-001
3.342174e+003;1.699617e-001
3.344102e+003;1.698229e-001
3.346031e+003;1.700697e-001
3.347959e+003;1.698627e-001
3.349888e+003;1.696017e-001
3.351816e+003;1.698513e-001
3.353745e+003;1.693400e-001
3.355674e+003;1.686248e-001
3.357602e+003;1.686726e-001
3.359531e+003;1.689230e-001
3.361459e+003;1.689796e-001
3.363388e+003;1.686130e-001
3.365316e+003;1.681252e-001
3.367245e+003;1.678029e-001
3.369173e+003;1.674875e-001
3.371102e+003;1.670490e-001
3.373031e+003;1.669668e-001
3.374959e+003;1.669242e-001
3.376887e+003;1.665537e-001
3.378816e+003;1.657783e-001
3.380745e+003;1.654616e-001
3.382673e+003;1.653423e-001
3.384602e+003;1.651506e-001
3.386530e+003;1.649040e-001
3.388459e+003;1.644710e-001
3.390387e+003;1.641695e-001
3.392316e+003;1.634810e-001
3.394244e+003;1.626878e-001
3.396173e+003;1.621253e-001
3.398102e+003;1.614127e-001
3.400030e+003;1.609535e-001
3.401959e+003;1.608368e-001
3.403887e+003;1.606562e-001
3.405816e+003;1.602473e-001
3.407744e+003;1.595846e-001
3.409673e+003;1.586251e-001
3.411601e+003;1.577796e-001
3.413530e+003;1.575284e-001
3.415458e+003;1.576072e-001
3.417387e+003;1.569755e-001
3.419316e+003;1.556878e-001
3.421244e+003;1.550337e-001
3.423173e+003;1.551655e-001
3.425101e+003;1.547922e-001
3.427030e+003;1.535256e-001
3.428958e+003;1.526767e-001
3.430887e+003;1.521800e-001
3.432815e+003;1.517864e-001
3.434744e+003;1.514763e-001
3.436673e+003;1.507337e-001
3.438601e+003;1.496179e-001
3.440530e+003;1.488453e-001
3.442458e+003;1.479713e-001
3.444387e+003;1.465723e-001
3.446315e+003;1.455603e-001
3.448244e+003;1.446914e-001
3.450172e+003;1.436878e-001
3.452101e+003;1.425498e-001
3.454030e+003;1.411714e-001
3.455958e+003;1.398218e-001
3.457886e+003;1.386127e-001
3.459815e+003;1.375303e-001
3.461744e+003;1.363418e-001
3.463672e+003;1.352610e-001
3.465601e+003;1.342988e-001
3.467529e+003;1.331224e-001
3.469458e+003;1.320486e-001
3.471386e+003;1.309208e-001
3.473315e+003;1.296864e-001
3.475243e+003;1.287617e-001
3.477172e+003;1.275280e-001
3.479101e+003;1.260585e-001
3.481029e+003;1.248665e-001
3.482958e+003;1.239181e-001
3.484886e+003;1.227072e-001
3.486815e+003;1.214352e-001
3.488743e+003;1.206035e-001
3.490672e+003;1.193492e-001
3.492600e+003;1.182017e-001
3.494529e+003;1.172887e-001
3.496458e+003;1.153490e-001
3.498386e+003;1.133216e-001
3.500315e+003;1.120154e-001
3.502243e+003;1.109068e-001
3.504172e+003;1.093926e-001
3.506100e+003;1.079333e-001
3.508029e+003;1.071099e-001
3.509957e+003;1.061998e-001
3.511886e+003;1.046080e-001
3.513814e+003;1.028084e-001
3.515743e+003;1.014856e-001
3.517672e+003;1.008851e-001
3.519600e+003;1.000324e-001
3.521529e+003;9.875373e-002
3.523457e+003;9.768745e-002
3.525386e+003;9.658745e-002
3.527314e+003;9.514999e-002
3.529243e+003;9.379144e-002
3.531171e+003;9.224249e-002
3.533100e+003;9.079232e-002
3.535029e+003;8.959150e-002
3.536957e+003;8.853344e-002
3.538885e+003;8.758456e-002
3.540814e+003;8.665407e-002
3.542743e+003;8.534750e-002
3.544671e+003;8.410290e-002
3.546600e+003;8.319489e-002
3.548528e+003;8.215760e-002
3.550457e+003;8.093448e-002
3.552385e+003;8.009773e-002
3.554314e+003;7.926860e-002
3.556242e+003;7.812072e-002
3.558171e+003;7.707469e-002
3.560100e+003;7.558599e-002
3.562028e+003;7.459479e-002
3.563957e+003;7.393602e-002
3.565885e+003;7.275406e-002
3.567814e+003;7.161101e-002
3.569742e+003;7.070903e-002
3.571671e+003;6.974324e-002
3.573599e+003;6.894302e-002
3.575528e+003;6.812368e-002
3.577457e+003;6.710538e-002
3.579385e+003;6.607808e-002
3.581314e+003;6.537627e-002
3.583242e+003;6.492324e-002
3.585171e+003;6.394066e-002
3.587099e+003;6.289610e-002
3.589028e+003;6.232669e-002
3.590956e+003;6.187645e-002
3.592885e+003;6.108242e-002
3.594813e+003;6.011410e-002
3.596742e+003;5.892965e-002
3.598671e+003;5.782339e-002
3.600599e+003;5.699196e-002
3.602528e+003;5.604075e-002
3.604456e+003;5.515033e-002
3.606385e+003;5.437604e-002
3.608313e+003;5.379057e-002
3.610242e+003;5.308638e-002
3.612170e+003;5.229288e-002
3.614099e+003;5.148505e-002
3.616028e+003;5.038735e-002
3.617956e+003;4.916712e-002
3.619885e+003;4.826186e-002
3.621813e+003;4.737904e-002
3.623742e+003;4.661507e-002
3.625670e+003;4.619744e-002
3.627599e+003;4.506198e-002
3.629527e+003;4.370590e-002
3.631456e+003;4.308548e-002
3.633385e+003;4.218575e-002
3.635313e+003;4.112136e-002
3.637241e+003;3.997626e-002
3.639170e+003;3.869016e-002
3.641099e+003;3.787334e-002
3.643027e+003;3.723134e-002
3.644956e+003;3.623411e-002
3.646884e+003;3.519751e-002
3.648813e+003;3.397954e-002
3.650741e+003;3.287793e-002
3.652670e+003;3.188974e-002
3.654598e+003;3.085797e-002
3.656527e+003;2.986240e-002
3.658456e+003;2.944574e-002
3.660384e+003;2.864802e-002
3.662313e+003;2.750095e-002
3.664241e+003;2.672828e-002
3.666170e+003;2.600877e-002
3.668098e+003;2.506191e-002
3.670027e+003;2.381248e-002
3.671955e+003;2.303950e-002
3.673884e+003;2.267991e-002
3.675813e+003;2.209604e-002
3.677741e+003;2.146833e-002
3.679669e+003;2.086457e-002
3.681598e+003;2.032247e-002
3.683527e+003;2.012575e-002
3.685455e+003;1.950527e-002
3.687384e+003;1.846967e-002
3.689312e+003;1.794019e-002
3.691241e+003;1.778582e-002
3.693169e+003;1.756520e-002
3.695098e+003;1.692563e-002
3.697026e+003;1.659826e-002
3.698955e+003;1.681385e-002
3.700884e+003;1.646771e-002
3.702812e+003;1.590440e-002
3.704741e+003;1.602038e-002
3.706669e+003;1.601804e-002
3.708598e+003;1.526360e-002
3.710526e+003;1.476084e-002
3.712455e+003;1.456898e-002
3.714383e+003;1.441386e-002
3.716312e+003;1.415763e-002
3.718240e+003;1.374594e-002
3.720169e+003;1.372071e-002
3.722098e+003;1.381520e-002
3.724026e+003;1.383196e-002
3.725955e+003;1.351335e-002
3.727883e+003;1.325706e-002
3.729812e+003;1.334152e-002
3.731740e+003;1.312918e-002
3.733669e+003;1.282340e-002
3.735597e+003;1.256343e-002
3.737526e+003;1.259583e-002
3.739455e+003;1.246873e-002
3.741383e+003;1.234742e-002
3.743312e+003;1.224591e-002
3.745240e+003;1.180621e-002
3.747169e+003;1.185892e-002
3.749097e+003;1.196990e-002
3.751026e+003;1.175368e-002
3.752954e+003;1.197999e-002
3.754883e+003;1.237626e-002
3.756812e+003;1.221401e-002
3.758740e+003;1.192815e-002
3.760668e+003;1.183185e-002
3.762597e+003;1.183566e-002
3.764526e+003;1.169012e-002
3.766454e+003;1.159262e-002
3.768383e+003;1.187472e-002
3.770311e+003;1.188071e-002
3.772240e+003;1.136569e-002
3.774168e+003;1.135141e-002
3.776097e+003;1.155920e-002
3.778025e+003;1.154287e-002
3.779954e+003;1.137532e-002
3.781883e+003;1.096833e-002
3.783811e+003;1.055538e-002
3.785740e+003;1.071871e-002
3.787668e+003;1.103668e-002
3.789597e+003;1.090595e-002
3.791525e+003;1.093204e-002
3.793454e+003;1.135933e-002
3.795382e+003;1.161075e-002
3.797311e+003;1.156941e-002
3.799240e+003;1.138831e-002
3.801168e+003;1.105279e-002
3.803097e+003;1.103980e-002
3.805025e+003;1.106689e-002
3.806954e+003;1.089820e-002
3.808882e+003;1.087646e-002
3.810811e+003;1.068044e-002
3.812739e+003;1.089973e-002
3.814668e+003;1.105724e-002
3.816596e+003;1.106132e-002
3.818525e+003;1.117220e-002
3.820454e+003;1.143318e-002
3.822382e+003;1.156672e-002
3.824311e+003;1.143559e-002
3.826239e+003;1.145998e-002
3.828168e+003;1.175340e-002
3.830096e+003;1.183614e-002
3.832025e+003;1.157659e-002
3.833953e+003;1.139501e-002
3.835882e+003;1.138096e-002
3.837811e+003;1.122987e-002
3.839739e+003;1.118454e-002
3.841667e+003;1.134399e-002
3.843596e+003;1.152524e-002
3.845525e+003;1.139991e-002
3.847453e+003;1.144645e-002
3.849382e+003;1.157557e-002
3.851310e+003;1.147734e-002
3.853239e+003;1.144777e-002
3.855167e+003;1.177621e-002
3.857096e+003;1.177700e-002
3.859024e+003;1.141297e-002
3.860953e+003;1.128594e-002
3.862882e+003;1.169550e-002
3.864810e+003;1.202110e-002
3.866739e+003;1.180580e-002
3.868667e+003;1.166572e-002
3.870596e+003;1.237159e-002
3.872524e+003;1.286753e-002
3.874453e+003;1.270107e-002
3.876381e+003;1.253226e-002
3.878310e+003;1.283063e-002
3.880239e+003;1.285739e-002
3.882167e+003;1.290558e-002
3.884096e+003;1.331087e-002
3.886024e+003;1.328658e-002
3.887953e+003;1.300749e-002
3.889881e+003;1.294764e-002
3.891810e+003;1.307755e-002
3.893738e+003;1.312082e-002
3.895667e+003;1.345965e-002
3.897595e+003;1.362346e-002
3.899524e+003;1.327343e-002
3.901453e+003;1.314226e-002
3.903381e+003;1.345012e-002
3.905310e+003;1.377737e-002
3.907238e+003;1.387907e-002
3.909167e+003;1.433916e-002
3.911095e+003;1.479923e-002
3.913024e+003;1.502353e-002
3.914952e+003;1.480509e-002
3.916881e+003;1.455140e-002
3.918810e+003;1.471820e-002
3.920738e+003;1.517908e-002
3.922667e+003;1.510511e-002
3.924595e+003;1.491084e-002
3.926524e+003;1.505056e-002
3.928452e+003;1.509766e-002
3.930381e+003;1.487723e-002
3.932309e+003;1.525677e-002
3.934238e+003;1.565075e-002
3.936167e+003;1.535840e-002
3.938095e+003;1.524208e-002
3.940023e+003;1.565264e-002
3.941952e+003;1.600408e-002
3.943881e+003;1.595503e-002
3.945809e+003;1.613109e-002
3.947738e+003;1.609877e-002
3.949666e+003;1.591217e-002
3.951595e+003;1.608330e-002
3.953523e+003;1.633609e-002
3.955452e+003;1.645983e-002
3.957380e+003;1.646778e-002
3.959309e+003;1.634672e-002
3.961238e+003;1.660918e-002
3.963166e+003;1.690613e-002
3.965095e+003;1.694851e-002
3.967023e+003;1.663276e-002
3.968952e+003;1.633086e-002
3.970880e+003;1.670771e-002
3.972809e+003;1.673041e-002
3.974737e+003;1.632883e-002
3.976666e+003;1.654233e-002
3.978594e+003;1.693159e-002
3.980523e+003;1.705539e-002
3.982452e+003;1.676577e-002
3.984380e+003;1.686266e-002
3.986309e+003;1.703827e-002
3.988237e+003;1.678182e-002
3.990166e+003;1.701225e-002
3.992094e+003;1.738262e-002
3.994023e+003;1.746212e-002
3.995951e+003;1.701783e-002
3.997880e+003;1.650722e-002
3.999809e+003;1.655382e-002
4.001737e+003;0.000000e+000
