3.992094e+002;0.000000e+000
4.011380e+002;0.000000e+000
4.030665e+002;0.000000e+000
4.049951e+002;0.000000e+000
4.069236e+002;0.000000e+000
4.088522e+002;0.000000e+000
4.107807e+002;0.000000e+000
4.127093e+002;0.000000e+000
4.146378e+002;0.000000e+000
4.165664e+002;0.000000e+000
4.184949e+002;0.000000e+000
4.204235e+002;0.000000e+000
4.223520e+002;0.000000e+000
4.242806e+002;0.000000e+000
4.262091e+002;0.000000e+000
4.281377e+002;0.000000e+000
4.300662e+002;0.000000e+000
4.319948e+002;0.000000e+000
4.339233e+002;0.000000e+000
4.358519e+002;0.000000e+000
4.377804e+002;0.000000e+000
4.397090e+002;0.000000e+000
4.416375e+002;0.000000e+000
4.435660e+002;0.000000e+000
4.454946e+002;0.000000e+000
4.474232e+002;0.000000e+000
4.493517e+002;0.000000e+000
4.512802e+002;0.000000e+000
4.532088e+002;0.000000e+000
4.551373e+002;0.000000e+000
4.570659e+002;0.000000e+000
4.589944e+002;0.000000e+000
4.609230e+002;0.000000e+000
4.628515e+002;0.000000e+000
4.647801e+002;0.000000e+000
4.667086e+002;0.000000e+000
4.686372e+002;0.000000e+000
4.705657e+002;0.000000e+000
4.724943e+002;0.000000e+000
4.744228e+002;0.000000e+000
4.763513e+002;0.000000e+000
4.782799e+002;0.000000e+000
4.802085e+002;0.000000e+000
4.821370e+002;0.000000e+000
4.840656e+002;0.000000e+000
4.859941e+002;0.000000e+000
4.879226e+002;0.000000e+000
4.898512e+002;0.000000e+000
4.917798e+002;0.000000e+000
4.937083e+002;0.000000e+000
4.956368e+002;0.000000e+000
4.975654e+002;0.000000e+000
4.994939e+002;0.000000e+000
5.014225e+002;0.000000e+000
5.033510e+002;0.000000e+000
5.052796e+002;0.000000e+000
5.072081e+002;0.000000e+000
5.091367e+002;0.000000e+000
5.110652e+002;0.000000e+000
5.129938e+002;0.000000e+000
5.149223e+002;0.000000e+000
5.168509e+002;0.000000e+000
5.187794e+002;0.000000e+000
5.207079e+002;0.000000e+000
5.226365e+002;0.000000e+000
5.245651e+002;0.000000e+000
5.264936e+002;0.000000e+000
5.284222e+002;0.000000e+000
5.303507e+002;0.000000e+000
5.322792e+002;0.000000e+000
5.342078e+002;0.000000e+000
5.361364e+002;0.000000e+000
5.380649e+002;0.000000e+000
5.399935e+002;0.000000e+000
5.419220e+002;0.000000e+000
5.438505e+002;0.000000e+000
5.457791e+002;0.000000e+000
5.477076e+002;0.000000e+000
5.496362e+002;0.000000e+000
5.515648e+002;0.000000e+000
5.534933e+002;0.000000e+000
5.554218e+002;0.000000e+000
5.573504e+002;0.000000e+000
5.592789e+002;0.000000e+000
5.612075e+002;0.000000e+000
5.631360e+002;0.000000e+000
5.650646e+002;0.000000e+000
5.669931e+002;0.000000e+000
5.689217e+002;0.000000e+000
5.708502e+002;0.000000e+000
5.727787e+002;0.000000e+000
5.747073e+002;0.000000e+000
5.766359e+002;0.000000e+000
5.785644e+002;0.000000e+000
5.804930e+002;0.000000e+000
5.824215e+002;0.000000e+000
5.843500e+002;0.000000e+000
5.862786e+002;0.000000e+000
5.882072e+002;0.000000e+000
5.901357e+002;0.000000e+000
5.920643e+002;0.000000e+000
5.939928e+002;0.000000e+000
5.959213e+002;0.000000e+000
5.978499e+002;0.000000e+000
5.997784e+002;1.832855e-001
6.017070e+002;1.869211e-001
6.036355e+002;1.842266e-001
6.055641e+002;1.785916e-001
6.074926e+002;1.701013e-001
6.094211e+002;1.605504e-001
6.113497e+002;1.554778e-001
6.132783e+002;1.526760e-001
6.152068e+002;1.507696e-001
6.171354e+002;1.483465e-001
6.190639e+002;1.451644e-001
6.209924e+002;1.423483e-001
6.229210e+002;1.392465e-001
6.248495e+002;1.355776e-001
6.267781e+002;1.328436e-001
6.287067e+002;1.312319e-001
6.306352e+002;1.288227e-001
6.325637e+002;1.269123e-001
6.344923e+002;1.265660e-001
6.364208e+002;1.239797e-001
6.383494e+002;1.229264e-001
6.402780e+002;1.251781e-001
6.422065e+002;1.254696e-001
6.441350e+002;1.201491e-001
6.460636e+002;1.185938e-001
6.479921e+002;1.190737e-001
6.499207e+002;1.166270e-001
6.518492e+002;1.140808e-001
6.537778e+002;1.139384e-001
6.557063e+002;1.150228e-001
6.576349e+002;1.142309e-001
6.595634e+002;1.102420e-001
6.614919e+002;1.073126e-001
6.634205e+002;1.060198e-001
6.653491e+002;1.043324e-001
6.672776e+002;1.044592e-001
6.692062e+002;1.061681e-001
6.711347e+002;1.050116e-001
6.730632e+002;1.039583e-001
6.749918e+002;1.044546e-001
6.769203e+002;1.053522e-001
6.788489e+002;1.066086e-001
6.807775e+002;1.067531e-001
6.827060e+002;1.069620e-001
6.846345e+002;1.077337e-001
6.865631e+002;1.068203e-001
6.884916e+002;1.052786e-001
6.904202e+002;1.045611e-001
6.923488e+002;1.038690e-001
6.942773e+002;1.035901e-001
6.962058e+002;1.020126e-001
6.981344e+002;9.949260e-002
7.000629e+002;9.879233e-002
7.019915e+002;9.797575e-002
7.039200e+002;9.602388e-002
7.058486e+002;9.519091e-002
7.077771e+002;9.438641e-002
7.097057e+002;9.287347e-002
7.116342e+002;9.199844e-002
7.135627e+002;9.167708e-002
7.154913e+002;9.112221e-002
7.174199e+002;8.985165e-002
7.193484e+002;8.911844e-002
7.212770e+002;8.885264e-002
7.232055e+002;8.788788e-002
7.251340e+002;8.624814e-002
7.270626e+002;8.552829e-002
7.289911e+002;8.457209e-002
7.309197e+002;8.194156e-002
7.328483e+002;7.904062e-002
7.347768e+002;7.632488e-002
7.367053e+002;7.425897e-002
7.386339e+002;7.276679e-002
7.405624e+002;7.138206e-002
7.424910e+002;7.077610e-002
7.444196e+002;7.065698e-002
7.463481e+002;7.012706e-002
7.482766e+002;6.946305e-002
7.502052e+002;6.922019e-002
7.521337e+002;6.867526e-002
7.540623e+002;6.794898e-002
7.559908e+002;6.781324e-002
7.579194e+002;6.813218e-002
7.598479e+002;6.817772e-002
7.617765e+002;6.750368e-002
7.637050e+002;6.680316e-002
7.656335e+002;6.691168e-002
7.675621e+002;6.688127e-002
7.694907e+002;6.721963e-002
7.714192e+002;6.738526e-002
7.733478e+002;6.692015e-002
7.752763e+002;6.664942e-002
7.772048e+002;6.669594e-002
7.791334e+002;6.683067e-002
7.810620e+002;6.754687e-002
7.829905e+002;6.811946e-002
7.849191e+002;6.842687e-002
7.868476e+002;6.875153e-002
7.887761e+002;6.886202e-002
7.907047e+002;6.949548e-002
7.926332e+002;7.050417e-002
7.945618e+002;7.069686e-002
7.964903e+002;7.109188e-002
7.984189e+002;7.196833e-002
8.003474e+002;7.269976e-002
8.022759e+002;7.384049e-002
8.042045e+002;7.468060e-002
8.061331e+002;7.552562e-002
8.080616e+002;7.674509e-002
8.099902e+002;7.803505e-002
8.119187e+002;7.952037e-002
8.138472e+002;8.088083e-002
8.157758e+002;8.263295e-002
8.177043e+002;8.416306e-002
8.196329e+002;8.581004e-002
8.215615e+002;8.780720e-002
8.234900e+002;9.041273e-002
8.254185e+002;9.442694e-002
8.273471e+002;9.869126e-002
8.292756e+002;1.029516e-001
8.312042e+002;1.083172e-001
8.331328e+002;1.133875e-001
8.350613e+002;1.168939e-001
8.369898e+002;1.194234e-001
8.389184e+002;1.210553e-001
8.408469e+002;1.209488e-001
8.427755e+002;1.193135e-001
8.447040e+002;1.165734e-001
8.466326e+002;1.136920e-001
8.485611e+002;1.110924e-001
8.504897e+002;1.084822e-001
8.524182e+002;1.060386e-001
8.543467e+002;1.046708e-001
8.562753e+002;1.045762e-001
8.582039e+002;1.055591e-001
8.601324e+002;1.074917e-001
8.620610e+002;1.105683e-001
8.639895e+002;1.142823e-001
8.659180e+002;1.188977e-001
8.678466e+002;1.240405e-001
8.697751e+002;1.298600e-001
8.717037e+002;1.361879e-001
8.736323e+002;1.420171e-001
8.755608e+002;1.465047e-001
8.774893e+002;1.499791e-001
8.794179e+002;1.530631e-001
8.813464e+002;1.560441e-001
8.832750e+002;1.592525e-001
8.852036e+002;1.630928e-001
8.871321e+002;1.676826e-001
8.890606e+002;1.730115e-001
8.909892e+002;1.791691e-001
8.929177e+002;1.853696e-001
8.948463e+002;1.912613e-001
8.967748e+002;1.961131e-001
8.987034e+002;1.983252e-001
9.006319e+002;1.977478e-001
9.025605e+002;1.948982e-001
9.044890e+002;1.902213e-001
9.064175e+002;1.844552e-001
9.083461e+002;1.781673e-001
9.102747e+002;1.716031e-001
9.122032e+002;1.662417e-001
9.141318e+002;1.619439e-001
9.160603e+002;1.574063e-001
9.179888e+002;1.536120e-001
9.199174e+002;1.507871e-001
9.218459e+002;1.485555e-001
9.237745e+002;1.463338e-001
9.257031e+002;1.444216e-001
9.276316e+002;1.436795e-001
9.295601e+002;1.437030e-001
9.314887e+002;1.437745e-001
9.334172e+002;1.434001e-001
9.353458e+002;1.432949e-001
9.372744e+002;1.441685e-001
9.392029e+002;1.456998e-001
9.411314e+002;1.471962e-001
9.430600e+002;1.490784e-001
9.449885e+002;1.513024e-001
9.469171e+002;1.535473e-001
9.488456e+002;1.552979e-001
9.507742e+002;1.566994e-001
9.527027e+002;1.583478e-001
9.546313e+002;1.600912e-001
9.565598e+002;1.617773e-001
9.584883e+002;1.636839e-001
9.604169e+002;1.661447e-001
9.623455e+002;1.689938e-001
9.642740e+002;1.725790e-001
9.662026e+002;1.771275e-001
9.681311e+002;1.825646e-001
9.700596e+002;1.890444e-001
9.719882e+002;1.963181e-001
9.739167e+002;2.038830e-001
9.758453e+002;2.111601e-001
9.777739e+002;2.183198e-001
9.797024e+002;2.253823e-001
9.816309e+002;2.317046e-001
9.835595e+002;2.377530e-001
9.854880e+002;2.435174e-001
9.874166e+002;2.482488e-001
9.893452e+002;2.523463e-001
9.912737e+002;2.566172e-001
9.932022e+002;2.614200e-001
9.951307e+002;2.662155e-001
9.970593e+002;2.717963e-001
9.989879e+002;2.789118e-001
1.000916e+003;2.871843e-001
1.002845e+003;2.968875e-001
1.004773e+003;3.085225e-001
1.006702e+003;3.213324e-001
1.008631e+003;3.349553e-001
1.010559e+003;3.491284e-001
1.012488e+003;3.639919e-001
1.014416e+003;3.801200e-001
1.016345e+003;3.971872e-001
1.018273e+003;4.144597e-001
1.020202e+003;4.327255e-001
1.022130e+003;4.519354e-001
1.024059e+003;4.694252e-001
1.025988e+003;4.855101e-001
1.027916e+003;4.998521e-001
1.029845e+003;5.110015e-001
1.031773e+003;5.175869e-001
1.033702e+003;5.205980e-001
1.035630e+003;5.203371e-001
1.037559e+003;5.165867e-001
1.039487e+003;5.105123e-001
1.041416e+003;5.040149e-001
1.043344e+003;4.952627e-001
1.045273e+003;4.833243e-001
1.047202e+003;4.711252e-001
1.049130e+003;4.581753e-001
1.051059e+003;4.435927e-001
1.052987e+003;4.291761e-001
1.054916e+003;4.136330e-001
1.056844e+003;3.982803e-001
1.058773e+003;3.846343e-001
1.060701e+003;3.714623e-001
1.062630e+003;3.599795e-001
1.064558e+003;3.506682e-001
1.066487e+003;3.421382e-001
1.068416e+003;3.334817e-001
1.070344e+003;3.243641e-001
1.072273e+003;3.157290e-001
1.074201e+003;3.075938e-001
1.076130e+003;2.992116e-001
1.078058e+003;2.903403e-001
1.079987e+003;2.812795e-001
1.081915e+003;2.722211e-001
1.083844e+003;2.638105e-001
1.085773e+003;2.560964e-001
1.087701e+003;2.481783e-001
1.089630e+003;2.403364e-001
1.091558e+003;2.324515e-001
1.093487e+003;2.247873e-001
1.095415e+003;2.180333e-001
1.097344e+003;2.118235e-001
1.099272e+003;2.066996e-001
1.101201e+003;2.032087e-001
1.103129e+003;2.006432e-001
1.105058e+003;1.980830e-001
1.106987e+003;1.964133e-001
1.108915e+003;1.952579e-001
1.110844e+003;1.942602e-001
1.112772e+003;1.938599e-001
1.114701e+003;1.931645e-001
1.116629e+003;1.921506e-001
1.118558e+003;1.909232e-001
1.120486e+003;1.896773e-001
1.122415e+003;1.878534e-001
1.124344e+003;1.856779e-001
1.126272e+003;1.835344e-001
1.128201e+003;1.809471e-001
1.130129e+003;1.784451e-001
1.132058e+003;1.759734e-001
1.133986e+003;1.733668e-001
1.135915e+003;1.712147e-001
1.137843e+003;1.699239e-001
1.139772e+003;1.692734e-001
1.141700e+003;1.693241e-001
1.143629e+003;1.697577e-001
1.145557e+003;1.706496e-001
1.147486e+003;1.719751e-001
1.149415e+003;1.738530e-001
1.151343e+003;1.761645e-001
1.153272e+003;1.783561e-001
1.155200e+003;1.808493e-001
1.157129e+003;1.831547e-001
1.159057e+003;1.841516e-001
1.160986e+003;1.847121e-001
1.162914e+003;1.851656e-001
1.164843e+003;1.848211e-001
1.166771e+003;1.837789e-001
1.168700e+003;1.822641e-001
1.170629e+003;1.807123e-001
1.172557e+003;1.793143e-001
1.174486e+003;1.778879e-001
1.176414e+003;1.763685e-001
1.178343e+003;1.751997e-001
1.180271e+003;1.748331e-001
1.182200e+003;1.759092e-001
1.184128e+003;1.785337e-001
1.186057e+003;1.832502e-001
1.187986e+003;1.904508e-001
1.189914e+003;2.001181e-001
1.191843e+003;2.133199e-001
1.193771e+003;2.300254e-001
1.195700e+003;2.503103e-001
1.197628e+003;2.742665e-001
1.199557e+003;3.014241e-001
1.201485e+003;3.308944e-001
1.203414e+003;3.617716e-001
1.205343e+003;3.917285e-001
1.207271e+003;4.176282e-001
1.209200e+003;4.388097e-001
1.211128e+003;4.546928e-001
1.213057e+003;4.654513e-001
1.214985e+003;4.717175e-001
1.216914e+003;4.739570e-001
1.218842e+003;4.732663e-001
1.220771e+003;4.713667e-001
1.222699e+003;4.695590e-001
1.224628e+003;4.666535e-001
1.226557e+003;4.614829e-001
1.228485e+003;4.539176e-001
1.230414e+003;4.437945e-001
1.232342e+003;4.310471e-001
1.234271e+003;4.165747e-001
1.236199e+003;4.000244e-001
1.238128e+003;3.827549e-001
1.240056e+003;3.649785e-001
1.241985e+003;3.466309e-001
1.243913e+003;3.287249e-001
1.245842e+003;3.117002e-001
1.247771e+003;2.953455e-001
1.249699e+003;2.795979e-001
1.251628e+003;2.641490e-001
1.253556e+003;2.496288e-001
1.255485e+003;2.361912e-001
1.257413e+003;2.234711e-001
1.259342e+003;2.111848e-001
1.261270e+003;1.997235e-001
1.263199e+003;1.892183e-001
1.265127e+003;1.798034e-001
1.267056e+003;1.710933e-001
1.268985e+003;1.628883e-001
1.270913e+003;1.552645e-001
1.272842e+003;1.483678e-001
1.274770e+003;1.423348e-001
1.276699e+003;1.364476e-001
1.278627e+003;1.312115e-001
1.280556e+003;1.267543e-001
1.282484e+003;1.224720e-001
1.284413e+003;1.187131e-001
1.286342e+003;1.153912e-001
1.288270e+003;1.124091e-001
1.290199e+003;1.099053e-001
1.292127e+003;1.075568e-001
1.294056e+003;1.051856e-001
1.295984e+003;1.031925e-001
1.297913e+003;1.014482e-001
1.299841e+003;9.984411e-002
1.301770e+003;9.835457e-002
1.303698e+003;9.727307e-002
1.305627e+003;9.674073e-002
1.307556e+003;9.640369e-002
1.309484e+003;9.609977e-002
1.311413e+003;9.598110e-002
1.313341e+003;9.609415e-002
1.315270e+003;9.625111e-002
1.317198e+003;9.633415e-002
1.319127e+003;9.626471e-002
1.321055e+003;9.615372e-002
1.322984e+003;9.590494e-002
1.324912e+003;9.567814e-002
1.326841e+003;9.555417e-002
1.328770e+003;9.504650e-002
1.330698e+003;9.447129e-002
1.332627e+003;9.415016e-002
1.334555e+003;9.391791e-002
1.336484e+003;9.372956e-002
1.338412e+003;9.350360e-002
1.340341e+003;9.359016e-002
1.342269e+003;9.436117e-002
1.344198e+003;9.563387e-002
1.346126e+003;9.765812e-002
1.348055e+003;1.012127e-001
1.349984e+003;1.069220e-001
1.351912e+003;1.152181e-001
1.353841e+003;1.263743e-001
1.355769e+003;1.412473e-001
1.357698e+003;1.597027e-001
1.359626e+003;1.794951e-001
1.361555e+003;1.977793e-001
1.363483e+003;2.119969e-001
1.365412e+003;2.198711e-001
1.367341e+003;2.211144e-001
1.369269e+003;2.172547e-001
1.371198e+003;2.101931e-001
1.373126e+003;2.015158e-001
1.375055e+003;1.920558e-001
1.376983e+003;1.819469e-001
1.378912e+003;1.713578e-001
1.380840e+003;1.605584e-001
1.382769e+003;1.498954e-001
1.384698e+003;1.394840e-001
1.386626e+003;1.296573e-001
1.388555e+003;1.209435e-001
1.390483e+003;1.133571e-001
1.392412e+003;1.068806e-001
1.394340e+003;1.017996e-001
1.396269e+003;9.834772e-002
1.398197e+003;9.590812e-002
1.400126e+003;9.413831e-002
1.402054e+003;9.319452e-002
1.403983e+003;9.299470e-002
1.405911e+003;9.307795e-002
1.407840e+003;9.335133e-002
1.409769e+003;9.382138e-002
1.411697e+003;9.476373e-002
1.413626e+003;9.576612e-002
1.415554e+003;9.680905e-002
1.417483e+003;9.805589e-002
1.419411e+003;1.000496e-001
1.421340e+003;1.027583e-001
1.423268e+003;1.056879e-001
1.425197e+003;1.085506e-001
1.427125e+003;1.108091e-001
1.429054e+003;1.120626e-001
1.430983e+003;1.127012e-001
1.432911e+003;1.126119e-001
1.434840e+003;1.111644e-001
1.436768e+003;1.090565e-001
1.438697e+003;1.070330e-001
1.440625e+003;1.044137e-001
1.442554e+003;1.017151e-001
1.444482e+003;9.908777e-002
1.446411e+003;9.641746e-002
1.448340e+003;9.381685e-002
1.450268e+003;9.144303e-002
1.452197e+003;8.919599e-002
1.454125e+003;8.693716e-002
1.456054e+003;8.421547e-002
1.457982e+003;8.197361e-002
1.459911e+003;8.039683e-002
1.461839e+003;7.850844e-002
1.463768e+003;7.616190e-002
1.465697e+003;7.360133e-002
1.467625e+003;7.141330e-002
1.469554e+003;6.963436e-002
1.471482e+003;6.776010e-002
1.473411e+003;6.604833e-002
1.475339e+003;6.488211e-002
1.477268e+003;6.392615e-002
1.479196e+003;6.286091e-002
1.481125e+003;6.183178e-002
1.483053e+003;6.113981e-002
1.484982e+003;6.056352e-002
1.486911e+003;6.007678e-002
1.488839e+003;5.948710e-002
1.490768e+003;5.914537e-002
1.492696e+003;5.909499e-002
1.494625e+003;5.868233e-002
1.496553e+003;5.817204e-002
1.498482e+003;5.809931e-002
1.500410e+003;5.834975e-002
1.502339e+003;5.827567e-002
1.504267e+003;5.759585e-002
1.506196e+003;5.707225e-002
1.508125e+003;5.747544e-002
1.510053e+003;5.763705e-002
1.511982e+003;5.750581e-002
1.513910e+003;5.764378e-002
1.515839e+003;5.766387e-002
1.517767e+003;5.751527e-002
1.519696e+003;5.721103e-002
1.521624e+003;5.720812e-002
1.523553e+003;5.759406e-002
1.525481e+003;5.778505e-002
1.527410e+003;5.799622e-002
1.529339e+003;5.821792e-002
1.531267e+003;5.812026e-002
1.533196e+003;5.792246e-002
1.535124e+003;5.796431e-002
1.537053e+003;5.748720e-002
1.538981e+003;5.649622e-002
1.540910e+003;5.644113e-002
1.542838e+003;5.702260e-002
1.544767e+003;5.763546e-002
1.546695e+003;5.800054e-002
1.548624e+003;5.793939e-002
1.550553e+003;5.796222e-002
1.552481e+003;5.808060e-002
1.554410e+003;5.795537e-002
1.556338e+003;5.763765e-002
1.558267e+003;5.711582e-002
1.560195e+003;5.748126e-002
1.562124e+003;5.833592e-002
1.564052e+003;5.851514e-002
1.565981e+003;5.849993e-002
1.567910e+003;5.804761e-002
1.569838e+003;5.763500e-002
1.571767e+003;5.788748e-002
1.573695e+003;5.810344e-002
1.575624e+003;5.773634e-002
1.577552e+003;5.787245e-002
1.579481e+003;5.856678e-002
1.581409e+003;5.906796e-002
1.583338e+003;5.933973e-002
1.585266e+003;5.939417e-002
1.587195e+003;5.954452e-002
1.589124e+003;5.994613e-002
1.591052e+003;6.039225e-002
1.592981e+003;6.092406e-002
1.594909e+003;6.147045e-002
1.596838e+003;6.202250e-002
1.598766e+003;6.248992e-002
1.600695e+003;6.291487e-002
1.602623e+003;6.363442e-002
1.604552e+003;6.446704e-002
1.606480e+003;6.504311e-002
1.608409e+003;6.541217e-002
1.610338e+003;6.570973e-002
1.612266e+003;6.629680e-002
1.614195e+003;6.678353e-002
1.616123e+003;6.685746e-002
1.618052e+003;6.747426e-002
1.619980e+003;6.833425e-002
1.621909e+003;6.880483e-002
1.623837e+003;6.925703e-002
1.625766e+003;6.986445e-002
1.627694e+003;7.067994e-002
1.629623e+003;7.159917e-002
1.631552e+003;7.235612e-002
1.633480e+003;7.276001e-002
1.635409e+003;7.309090e-002
1.637337e+003;7.399440e-002
1.639266e+003;7.494162e-002
1.641194e+003;7.552756e-002
1.643123e+003;7.612056e-002
1.645051e+003;7.652199e-002
1.646980e+003;7.681500e-002
1.648909e+003;7.755445e-002
1.650837e+003;7.749705e-002
1.652766e+003;7.682631e-002
1.654694e+003;7.758487e-002
1.656623e+003;7.867255e-002
1.658551e+003;7.897130e-002
1.660480e+003;7.918946e-002
1.662408e+003;7.972367e-002
1.664337e+003;8.035827e-002
1.666266e+003;8.093420e-002
1.668194e+003;8.137912e-002
1.670123e+003;8.205365e-002
1.672051e+003;8.328471e-002
1.673980e+003;8.453779e-002
1.675908e+003;8.586022e-002
1.677837e+003;8.751277e-002
1.679765e+003;8.936740e-002
1.681694e+003;9.132096e-002
1.683622e+003;9.288065e-002
1.685551e+003;9.538546e-002
1.687479e+003;9.876587e-002
1.689408e+003;1.021395e-001
1.691337e+003;1.057959e-001
1.693265e+003;1.097537e-001
1.695194e+003;1.137531e-001
1.697122e+003;1.187377e-001
1.699051e+003;1.242379e-001
1.700979e+003;1.305265e-001
1.702908e+003;1.382438e-001
1.704836e+003;1.461836e-001
1.706765e+003;1.546742e-001
1.708693e+003;1.642864e-001
1.710622e+003;1.750424e-001
1.712551e+003;1.867063e-001
1.714479e+003;1.991098e-001
1.716408e+003;2.127770e-001
1.718336e+003;2.276661e-001
1.720265e+003;2.435091e-001
1.722193e+003;2.595830e-001
1.724122e+003;2.758069e-001
1.726050e+003;2.913465e-001
1.727979e+003;3.056945e-001
1.729908e+003;3.186213e-001
1.731836e+003;3.295088e-001
1.733765e+003;3.376388e-001
1.735693e+003;3.430025e-001
1.737622e+003;3.449636e-001
1.739550e+003;3.432505e-001
1.741479e+003;3.383861e-001
1.743407e+003;3.312416e-001
1.745336e+003;3.221850e-001
1.747265e+003;3.114234e-001
1.749193e+003;2.989618e-001
1.751122e+003;2.852738e-001
1.753050e+003;2.707560e-001
1.754979e+003;2.546324e-001
1.756907e+003;2.363563e-001
1.758836e+003;2.170498e-001
1.760764e+003;1.967861e-001
1.762693e+003;1.768975e-001
1.764621e+003;1.584957e-001
1.766550e+003;1.415621e-001
1.768479e+003;1.267178e-001
1.770407e+003;1.143357e-001
1.772336e+003;1.040018e-001
1.774264e+003;9.594837e-002
1.776193e+003;8.960999e-002
1.778121e+003;8.449198e-002
1.780050e+003;8.017914e-002
1.781978e+003;7.641578e-002
1.783907e+003;7.339703e-002
1.785835e+003;7.082216e-002
1.787764e+003;6.878845e-002
1.789693e+003;6.693897e-002
1.791621e+003;6.533910e-002
1.793550e+003;6.423260e-002
1.795478e+003;6.325790e-002
1.797407e+003;6.220477e-002
1.799335e+003;6.124804e-002
1.801264e+003;6.046810e-002
1.803192e+003;5.979591e-002
1.805121e+003;5.921288e-002
1.807049e+003;5.868870e-002
1.808978e+003;5.797521e-002
1.810907e+003;5.727318e-002
1.812835e+003;5.659209e-002
1.814764e+003;5.609040e-002
1.816692e+003;5.567101e-002
1.818621e+003;5.506314e-002
1.820549e+003;5.456622e-002
1.822478e+003;5.424875e-002
1.824406e+003;5.384202e-002
1.826335e+003;5.331188e-002
1.828264e+003;5.275343e-002
1.830192e+003;5.233702e-002
1.832121e+003;5.197529e-002
1.834049e+003;5.163258e-002
1.835978e+003;5.122657e-002
1.837906e+003;5.083231e-002
1.839835e+003;5.052073e-002
1.841763e+003;5.007229e-002
1.843692e+003;4.952032e-002
1.845620e+003;4.934489e-002
1.847549e+003;4.931749e-002
1.849478e+003;4.917056e-002
1.851406e+003;4.898070e-002
1.853335e+003;4.897948e-002
1.855263e+003;4.885469e-002
1.857192e+003;4.845960e-002
1.859120e+003;4.815157e-002
1.861049e+003;4.795223e-002
1.862977e+003;4.787254e-002
1.864906e+003;4.795023e-002
1.866834e+003;4.776644e-002
1.868763e+003;4.735254e-002
1.870692e+003;4.705851e-002
1.872620e+003;4.700660e-002
1.874549e+003;4.691977e-002
1.876477e+003;4.677712e-002
1.878406e+003;4.641094e-002
1.880334e+003;4.604110e-002
1.882263e+003;4.576508e-002
1.884191e+003;4.564860e-002
1.886120e+003;4.567076e-002
1.888048e+003;4.545350e-002
1.889977e+003;4.546042e-002
1.891906e+003;4.566638e-002
1.893834e+003;4.558769e-002
1.895763e+003;4.555078e-002
1.897691e+003;4.558096e-002
1.899620e+003;4.541980e-002
1.901548e+003;4.534451e-002
1.903477e+003;4.552565e-002
1.905405e+003;4.576670e-002
1.907334e+003;4.596212e-002
1.909262e+003;4.608457e-002
1.911191e+003;4.607448e-002
1.913120e+003;4.602235e-002
1.915048e+003;4.630632e-002
1.916977e+003;4.651530e-002
1.918905e+003;4.656826e-002
1.920834e+003;4.678140e-002
1.922762e+003;4.690153e-002
1.924691e+003;4.693985e-002
1.926619e+003;4.694236e-002
1.928548e+003;4.695059e-002
1.930477e+003;4.681336e-002
1.932405e+003;4.677752e-002
1.934334e+003;4.675782e-002
1.936262e+003;4.681088e-002
1.938191e+003;4.683402e-002
1.940119e+003;4.691264e-002
1.942048e+003;4.688761e-002
1.943976e+003;4.683402e-002
1.945905e+003;4.675907e-002
1.947833e+003;4.659645e-002
1.949762e+003;4.656727e-002
1.951691e+003;4.644365e-002
1.953619e+003;4.635948e-002
1.955548e+003;4.643108e-002
1.957476e+003;4.629644e-002
1.959405e+003;4.601472e-002
1.961333e+003;4.583893e-002
1.963262e+003;4.571383e-002
1.965190e+003;4.539736e-002
1.967119e+003;4.524580e-002
1.969047e+003;4.531185e-002
1.970976e+003;4.520388e-002
1.972905e+003;4.487000e-002
1.974833e+003;4.455198e-002
1.976762e+003;4.435906e-002
1.978690e+003;4.418654e-002
1.980619e+003;4.409422e-002
1.982547e+003;4.375662e-002
1.984476e+003;4.362214e-002
1.986404e+003;4.360994e-002
1.988333e+003;4.333341e-002
1.990261e+003;4.318465e-002
1.992190e+003;4.321206e-002
1.994119e+003;4.326239e-002
1.996047e+003;4.342165e-002
1.997976e+003;4.350321e-002
1.999904e+003;4.337639e-002
2.001833e+003;4.330288e-002
2.003761e+003;4.357020e-002
2.005690e+003;4.391484e-002
2.007618e+003;4.405663e-002
2.009547e+003;4.388251e-002
2.011476e+003;4.390781e-002
2.013404e+003;4.410651e-002
2.015333e+003;4.432247e-002
2.017261e+003;4.456035e-002
2.019190e+003;4.480325e-002
2.021118e+003;4.489175e-002
2.023047e+003;4.482492e-002
2.024975e+003;4.507061e-002
2.026904e+003;4.528018e-002
2.028833e+003;4.520921e-002
2.030761e+003;4.522079e-002
2.032690e+003;4.523638e-002
2.034618e+003;4.527022e-002
2.036547e+003;4.555763e-002
2.038475e+003;4.568854e-002
2.040404e+003;4.560385e-002
2.042332e+003;4.567293e-002
2.044261e+003;4.571593e-002
2.046189e+003;4.566815e-002
2.048118e+003;4.555450e-002
2.050047e+003;4.555531e-002
2.051975e+003;4.543691e-002
2.053904e+003;4.560348e-002
2.055832e+003;4.606055e-002
2.057761e+003;4.623374e-002
2.059689e+003;4.618882e-002
2.061618e+003;4.621281e-002
2.063546e+003;4.603495e-002
2.065475e+003;4.610381e-002
2.067404e+003;4.633643e-002
2.069332e+003;4.643023e-002
2.071260e+003;4.668369e-002
2.073189e+003;4.681088e-002
2.075118e+003;4.685303e-002
2.077046e+003;4.695602e-002
2.078975e+003;4.716469e-002
2.080903e+003;4.726228e-002
2.082832e+003;4.737383e-002
2.084760e+003;4.771674e-002
2.086689e+003;4.819085e-002
2.088617e+003;4.844538e-002
2.090546e+003;4.854585e-002
2.092475e+003;4.877698e-002
2.094403e+003;4.909684e-002
2.096332e+003;4.948683e-002
2.098260e+003;4.980131e-002
2.100189e+003;4.999354e-002
2.102117e+003;5.010163e-002
2.104046e+003;5.033335e-002
2.105974e+003;5.047829e-002
2.107903e+003;5.049017e-002
2.109832e+003;5.052143e-002
2.111760e+003;5.055385e-002
2.113688e+003;5.067586e-002
2.115617e+003;5.085432e-002
2.117546e+003;5.084669e-002
2.119474e+003;5.081875e-002
2.121403e+003;5.090610e-002
2.123331e+003;5.069291e-002
2.125260e+003;5.018698e-002
2.127188e+003;5.006095e-002
2.129117e+003;5.024973e-002
2.131045e+003;5.040279e-002
2.132974e+003;5.020952e-002
2.134903e+003;4.978778e-002
2.136831e+003;4.954026e-002
2.138760e+003;4.960359e-002
2.140688e+003;4.950510e-002
2.142617e+003;4.928156e-002
2.144545e+003;4.910452e-002
2.146474e+003;4.876459e-002
2.148402e+003;4.846523e-002
2.150331e+003;4.836418e-002
2.152260e+003;4.810637e-002
2.154188e+003;4.786465e-002
2.156117e+003;4.763398e-002
2.158045e+003;4.733089e-002
2.159974e+003;4.709492e-002
2.161902e+003;4.697824e-002
2.163831e+003;4.665595e-002
2.165759e+003;4.624498e-002
2.167688e+003;4.585065e-002
2.169616e+003;4.572186e-002
2.171545e+003;4.562350e-002
2.173474e+003;4.529780e-002
2.175402e+003;4.505830e-002
2.177331e+003;4.480777e-002
2.179259e+003;4.454699e-002
2.181188e+003;4.430214e-002
2.183116e+003;4.407148e-002
2.185045e+003;4.390022e-002
2.186973e+003;4.382746e-002
2.188902e+003;4.380748e-002
2.190831e+003;4.355412e-002
2.192759e+003;4.327099e-002
2.194688e+003;4.315391e-002
2.196616e+003;4.313220e-002
2.198545e+003;4.305127e-002
2.200473e+003;4.294598e-002
2.202402e+003;4.297122e-002
2.204330e+003;4.298673e-002
2.206259e+003;4.271988e-002
2.208188e+003;4.256238e-002
2.210116e+003;4.264388e-002
2.212044e+003;4.262436e-002
2.213973e+003;4.241687e-002
2.215902e+003;4.243368e-002
2.217830e+003;4.239254e-002
2.219759e+003;4.225773e-002
2.221687e+003;4.236610e-002
2.223616e+003;4.240537e-002
2.225544e+003;4.234955e-002
2.227473e+003;4.227716e-002
2.229401e+003;4.215687e-002
2.231330e+003;4.209711e-002
2.233259e+003;4.201673e-002
2.235187e+003;4.201702e-002
2.237116e+003;4.208163e-002
2.239044e+003;4.222460e-002
2.240973e+003;4.234582e-002
2.242901e+003;4.236321e-002
2.244830e+003;4.228128e-002
2.246758e+003;4.221442e-002
2.248687e+003;4.216702e-002
2.250615e+003;4.222614e-002
2.252544e+003;4.226131e-002
2.254473e+003;4.214318e-002
2.256401e+003;4.194326e-002
2.258330e+003;4.185181e-002
2.260258e+003;4.216242e-002
2.262187e+003;4.244256e-002
2.264115e+003;4.237775e-002
2.266044e+003;4.205921e-002
2.267972e+003;4.194921e-002
2.269901e+003;4.205951e-002
2.271830e+003;4.190370e-002
2.273758e+003;4.159481e-002
2.275687e+003;4.126756e-002
2.277615e+003;4.127470e-002
2.279544e+003;4.137706e-002
2.281472e+003;4.113779e-002
2.283401e+003;4.089405e-002
2.285329e+003;4.071978e-002
2.287258e+003;4.069857e-002
2.289187e+003;4.047734e-002
2.291115e+003;4.029905e-002
2.293043e+003;4.025368e-002
2.294972e+003;4.006636e-002
2.296901e+003;3.973292e-002
2.298829e+003;3.934833e-002
2.300758e+003;3.909734e-002
2.302686e+003;3.932980e-002
2.304615e+003;3.944005e-002
2.306543e+003;3.923564e-002
2.308472e+003;3.916405e-002
2.310400e+003;3.902443e-002
2.312329e+003;3.884239e-002
2.314258e+003;3.878207e-002
2.316186e+003;3.876004e-002
2.318115e+003;3.874493e-002
2.320043e+003;3.893273e-002
2.321972e+003;3.901719e-002
2.323900e+003;3.898134e-002
2.325829e+003;3.891929e-002
2.327757e+003;3.874338e-002
2.329686e+003;3.839701e-002
2.331615e+003;3.844950e-002
2.333543e+003;3.877866e-002
2.335472e+003;3.898329e-002
2.337400e+003;3.948842e-002
2.339329e+003;3.995170e-002
2.341257e+003;4.001524e-002
2.343186e+003;4.000049e-002
2.345114e+003;4.009521e-002
2.347043e+003;4.013653e-002
2.348971e+003;4.016517e-002
2.350900e+003;4.032046e-002
2.352829e+003;4.051277e-002
2.354757e+003;4.053750e-002
2.356686e+003;4.033410e-002
2.358614e+003;4.031828e-002
2.360543e+003;4.046352e-002
2.362471e+003;4.049331e-002
2.364400e+003;4.059414e-002
2.366328e+003;4.069318e-002
2.368257e+003;4.055660e-002
2.370186e+003;4.047607e-002
2.372114e+003;4.048541e-002
2.374042e+003;4.037111e-002
2.375971e+003;4.032526e-002
2.377900e+003;4.027411e-002
2.379828e+003;4.016674e-002
2.381757e+003;4.030101e-002
2.383685e+003;4.035904e-002
2.385614e+003;4.043202e-002
2.387542e+003;4.070632e-002
2.389471e+003;4.108581e-002
2.391399e+003;4.126876e-002
2.393328e+003;4.111469e-002
2.395257e+003;4.128071e-002
2.397185e+003;4.157570e-002
2.399114e+003;4.163667e-002
2.401042e+003;4.185181e-002
2.402971e+003;4.229527e-002
2.404899e+003;4.267550e-002
2.406828e+003;4.284171e-002
2.408756e+003;4.287945e-002
2.410685e+003;4.283992e-002
2.412614e+003;4.283615e-002
2.414542e+003;4.310403e-002
2.416471e+003;4.316225e-002
2.418399e+003;4.287876e-002
2.420328e+003;4.275688e-002
2.422256e+003;4.267795e-002
2.424185e+003;4.275553e-002
2.426113e+003;4.293362e-002
2.428042e+003;4.316408e-002
2.429970e+003;4.325763e-002
2.431899e+003;4.314981e-002
2.433828e+003;4.308811e-002
2.435756e+003;4.304764e-002
2.437685e+003;4.323300e-002
2.439613e+003;4.328538e-002
2.441542e+003;4.307454e-002
2.443470e+003;4.313758e-002
2.445399e+003;4.319936e-002
2.447327e+003;4.325441e-002
2.449256e+003;4.317477e-002
2.451185e+003;4.289207e-002
2.453113e+003;4.284873e-002
2.455042e+003;4.320865e-002
2.456970e+003;4.327860e-002
2.458899e+003;4.311728e-002
2.460827e+003;4.321100e-002
2.462756e+003;4.325778e-002
2.464684e+003;4.302185e-002
2.466613e+003;4.291098e-002
2.468542e+003;4.315061e-002
2.470470e+003;4.298168e-002
2.472398e+003;4.258672e-002
2.474327e+003;4.261716e-002
2.476256e+003;4.282182e-002
2.478184e+003;4.289192e-002
2.480113e+003;4.287294e-002
2.482041e+003;4.268025e-002
2.483970e+003;4.240661e-002
2.485898e+003;4.243185e-002
2.487827e+003;4.248670e-002
2.489755e+003;4.215884e-002
2.491684e+003;4.183521e-002
2.493613e+003;4.183156e-002
2.495541e+003;4.169619e-002
2.497470e+003;4.156068e-002
2.499398e+003;4.154909e-002
2.501327e+003;4.142186e-002
2.503255e+003;4.112329e-002
2.505184e+003;4.101683e-002
2.507112e+003;4.089908e-002
2.509041e+003;4.071097e-002
2.510969e+003;4.064995e-002
2.512898e+003;4.067426e-002
2.514827e+003;4.075887e-002
2.516755e+003;4.076087e-002
2.518684e+003;4.065155e-002
2.520612e+003;4.067062e-002
2.522541e+003;4.061542e-002
2.524469e+003;4.041606e-002
2.526398e+003;4.018174e-002
2.528326e+003;4.006822e-002
2.530255e+003;4.022998e-002
2.532184e+003;4.037210e-002
2.534112e+003;4.045850e-002
2.536041e+003;4.041715e-002
2.537969e+003;4.026037e-002
2.539898e+003;4.021791e-002
2.541826e+003;4.014533e-002
2.543755e+003;4.000790e-002
2.545683e+003;4.002527e-002
2.547612e+003;4.023587e-002
2.549541e+003;4.024932e-002
2.551469e+003;4.010157e-002
2.553397e+003;4.002349e-002
2.555326e+003;4.028865e-002
2.557255e+003;4.056100e-002
2.559183e+003;4.054565e-002
2.561112e+003;4.042733e-002
2.563040e+003;4.057686e-002
2.564969e+003;4.097630e-002
2.566897e+003;4.128257e-002
2.568826e+003;4.138548e-002
2.570754e+003;4.141220e-002
2.572683e+003;4.165258e-002
2.574612e+003;4.183930e-002
2.576540e+003;4.196366e-002
2.578469e+003;4.212084e-002
2.580397e+003;4.226916e-002
2.582326e+003;4.231467e-002
2.584254e+003;4.239236e-002
2.586183e+003;4.269443e-002
2.588111e+003;4.294478e-002
2.590040e+003;4.304099e-002
2.591969e+003;4.317074e-002
2.593897e+003;4.334073e-002
2.595826e+003;4.341319e-002
2.597754e+003;4.328853e-002
2.599683e+003;4.315925e-002
2.601611e+003;4.338672e-002
2.603540e+003;4.361731e-002
2.605468e+003;4.370139e-002
2.607397e+003;4.372096e-002
2.609325e+003;4.374104e-002
2.611254e+003;4.378212e-002
2.613183e+003;4.385564e-002
2.615111e+003;4.407735e-002
2.617040e+003;4.406529e-002
2.618968e+003;4.411868e-002
2.620897e+003;4.410537e-002
2.622825e+003;4.411285e-002
2.624754e+003;4.442589e-002
2.626682e+003;4.465061e-002
2.628611e+003;4.460801e-002
2.630540e+003;4.468465e-002
2.632468e+003;4.485740e-002
2.634396e+003;4.493537e-002
2.636325e+003;4.491927e-002
2.638254e+003;4.495962e-002
2.640182e+003;4.519583e-002
2.642111e+003;4.532063e-002
2.644039e+003;4.533910e-002
2.645968e+003;4.530957e-002
2.647896e+003;4.528467e-002
2.649825e+003;4.527757e-002
2.651753e+003;4.527032e-002
2.653682e+003;4.535278e-002
2.655611e+003;4.533785e-002
2.657539e+003;4.529544e-002
2.659468e+003;4.508749e-002
2.661396e+003;4.509506e-002
2.663325e+003;4.504624e-002
2.665253e+003;4.493698e-002
2.667182e+003;4.488664e-002
2.669110e+003;4.475785e-002
2.671039e+003;4.468968e-002
2.672968e+003;4.470253e-002
2.674896e+003;4.484763e-002
2.676825e+003;4.506617e-002
2.678753e+003;4.500236e-002
2.680682e+003;4.468854e-002
2.682610e+003;4.479634e-002
2.684539e+003;4.513825e-002
2.686467e+003;4.515307e-002
2.688396e+003;4.509157e-002
2.690324e+003;4.526286e-002
2.692253e+003;4.549563e-002
2.694182e+003;4.575638e-002
2.696110e+003;4.595472e-002
2.698039e+003;4.589623e-002
2.699967e+003;4.585617e-002
2.701896e+003;4.583463e-002
2.703824e+003;4.596577e-002
2.705753e+003;4.633595e-002
2.707681e+003;4.657096e-002
2.709610e+003;4.683491e-002
2.711539e+003;4.722334e-002
2.713467e+003;4.746367e-002
2.715396e+003;4.763195e-002
2.717324e+003;4.782074e-002
2.719253e+003;4.828589e-002
2.721181e+003;4.867682e-002
2.723110e+003;4.873260e-002
2.725038e+003;4.851766e-002
2.726967e+003;4.847042e-002
2.728896e+003;4.861641e-002
2.730824e+003;4.868104e-002
2.732752e+003;4.877260e-002
2.734681e+003;4.881954e-002
2.736610e+003;4.859973e-002
2.738538e+003;4.836022e-002
2.740467e+003;4.841319e-002
2.742395e+003;4.845479e-002
2.744324e+003;4.853037e-002
2.746252e+003;4.875132e-002
2.748181e+003;4.867422e-002
2.750109e+003;4.829726e-002
2.752038e+003;4.812207e-002
2.753967e+003;4.833922e-002
2.755895e+003;4.840041e-002
2.757824e+003;4.817471e-002
2.759752e+003;4.808808e-002
2.761681e+003;4.816934e-002
2.763609e+003;4.825497e-002
2.765538e+003;4.840070e-002
2.767466e+003;4.865636e-002
2.769395e+003;4.871759e-002
2.771323e+003;4.857509e-002
2.773252e+003;4.861404e-002
2.775181e+003;4.874454e-002
2.777109e+003;4.893097e-002
2.779038e+003;4.912756e-002
2.780966e+003;4.923547e-002
2.782895e+003;4.953974e-002
2.784823e+003;4.970266e-002
2.786752e+003;4.968843e-002
2.788680e+003;5.003819e-002
2.790609e+003;5.051779e-002
2.792538e+003;5.067642e-002
2.794466e+003;5.086650e-002
2.796395e+003;5.102329e-002
2.798323e+003;5.117327e-002
2.800252e+003;5.141176e-002
2.802180e+003;5.142175e-002
2.804109e+003;5.151158e-002
2.806037e+003;5.187756e-002
2.807966e+003;5.221680e-002
2.809895e+003;5.216729e-002
2.811823e+003;5.205626e-002
2.813751e+003;5.240906e-002
2.815680e+003;5.273348e-002
2.817609e+003;5.264509e-002
2.819537e+003;5.264385e-002
2.821466e+003;5.285475e-002
2.823394e+003;5.336324e-002
2.825323e+003;5.372029e-002
2.827251e+003;5.392522e-002
2.829180e+003;5.428998e-002
2.831108e+003;5.464347e-002
2.833037e+003;5.493667e-002
2.834966e+003;5.530111e-002
2.836894e+003;5.584028e-002
2.838823e+003;5.642370e-002
2.840751e+003;5.655472e-002
2.842680e+003;5.679777e-002
2.844608e+003;5.706269e-002
2.846537e+003;5.735280e-002
2.848465e+003;5.762059e-002
2.850394e+003;5.777226e-002
2.852323e+003;5.828995e-002
2.854251e+003;5.921212e-002
2.856180e+003;6.057563e-002
2.858108e+003;6.208630e-002
2.860037e+003;6.355356e-002
2.861965e+003;6.521372e-002
2.863894e+003;6.636234e-002
2.865822e+003;6.694698e-002
2.867751e+003;6.755222e-002
2.869679e+003;6.799847e-002
2.871608e+003;6.842408e-002
2.873536e+003;6.896376e-002
2.875465e+003;6.954984e-002
2.877394e+003;6.990975e-002
2.879322e+003;7.011643e-002
2.881251e+003;7.024655e-002
2.883179e+003;7.059725e-002
2.885108e+003;7.055667e-002
2.887036e+003;7.020873e-002
2.888965e+003;7.010031e-002
2.890893e+003;7.012036e-002
2.892822e+003;6.985192e-002
2.894750e+003;6.952756e-002
2.896679e+003;6.930176e-002
2.898608e+003;6.909388e-002
2.900536e+003;6.871004e-002
2.902465e+003;6.830008e-002
2.904393e+003;6.799226e-002
2.906322e+003;6.763425e-002
2.908250e+003;6.720756e-002
2.910179e+003;6.642288e-002
2.912107e+003;6.553981e-002
2.914036e+003;6.468937e-002
2.915965e+003;6.400459e-002
2.917893e+003;6.344929e-002
2.919822e+003;6.291882e-002
2.921750e+003;6.268349e-002
2.923679e+003;6.290254e-002
2.925607e+003;6.348567e-002
2.927536e+003;6.439271e-002
2.929464e+003;6.516487e-002
2.931393e+003;6.588133e-002
2.933322e+003;6.713508e-002
2.935250e+003;6.853855e-002
2.937178e+003;6.968166e-002
2.939107e+003;7.069242e-002
2.941036e+003;7.118535e-002
2.942964e+003;7.141334e-002
2.944893e+003;7.178304e-002
2.946821e+003;7.185482e-002
2.948750e+003;7.160363e-002
2.950678e+003;7.137647e-002
2.952607e+003;7.066625e-002
2.954535e+003;7.001723e-002
2.956464e+003;6.969298e-002
2.958393e+003;6.952099e-002
2.960321e+003;6.954832e-002
2.962250e+003;6.918471e-002
2.964178e+003;6.880642e-002
2.966107e+003;6.848203e-002
2.968035e+003;6.770666e-002
2.969964e+003;6.695668e-002
2.971892e+003;6.641566e-002
2.973821e+003;6.589394e-002
2.975750e+003;6.545963e-002
2.977678e+003;6.511001e-002
2.979607e+003;6.477086e-002
2.981535e+003;6.439025e-002
2.983464e+003;6.429991e-002
2.985392e+003;6.408715e-002
2.987321e+003;6.368322e-002
2.989249e+003;6.345235e-002
2.991178e+003;6.327469e-002
2.993106e+003;6.303266e-002
2.995035e+003;6.284758e-002
2.996964e+003;6.255107e-002
2.998892e+003;6.212552e-002
3.000821e+003;6.170798e-002
3.002749e+003;6.129394e-002
3.004678e+003;6.122740e-002
3.006606e+003;6.109145e-002
3.008535e+003;6.065597e-002
3.010463e+003;6.028732e-002
3.012392e+003;6.004132e-002
3.014321e+003;5.997527e-002
3.016249e+003;5.994320e-002
3.018177e+003;5.994149e-002
3.020106e+003;5.966121e-002
3.022035e+003;5.902867e-002
3.023963e+003;5.899272e-002
3.025892e+003;5.919860e-002
3.027820e+003;5.896627e-002
3.029749e+003;5.876968e-002
3.031677e+003;5.835297e-002
3.033606e+003;5.803610e-002
3.035534e+003;5.799092e-002
3.037463e+003;5.721341e-002
3.039392e+003;5.639219e-002
3.041320e+003;5.600015e-002
3.043249e+003;5.556756e-002
3.045177e+003;5.490858e-002
3.047106e+003;5.463186e-002
3.049034e+003;5.464474e-002
3.050963e+003;5.437462e-002
3.052891e+003;5.388677e-002
3.054820e+003;5.349065e-002
3.056749e+003;5.274845e-002
3.058677e+003;5.226437e-002
3.060606e+003;5.233998e-002
3.062534e+003;5.223941e-002
3.064463e+003;5.196199e-002
3.066391e+003;5.152404e-002
3.068320e+003;5.105802e-002
3.070248e+003;5.083141e-002
3.072177e+003;5.083391e-002
3.074105e+003;5.085920e-002
3.076034e+003;5.072441e-002
3.077963e+003;5.050826e-002
3.079891e+003;5.022971e-002
3.081820e+003;4.996822e-002
3.083748e+003;4.979373e-002
3.085677e+003;4.992191e-002
3.087605e+003;4.983204e-002
3.089534e+003;4.939512e-002
3.091462e+003;4.954918e-002
3.093391e+003;4.958000e-002
3.095320e+003;4.936315e-002
3.097248e+003;4.905481e-002
3.099177e+003;4.894224e-002
3.101105e+003;4.918370e-002
3.103034e+003;4.942010e-002
3.104962e+003;4.925759e-002
3.106891e+003;4.896672e-002
3.108819e+003;4.870039e-002
3.110748e+003;4.876697e-002
3.112677e+003;4.890382e-002
3.114605e+003;4.863664e-002
3.116533e+003;4.836752e-002
3.118462e+003;4.852451e-002
3.120391e+003;4.861852e-002
3.122319e+003;4.851610e-002
3.124248e+003;4.848817e-002
3.126176e+003;4.823554e-002
3.128105e+003;4.785322e-002
3.130033e+003;4.786543e-002
3.131962e+003;4.792156e-002
3.133890e+003;4.769936e-002
3.135819e+003;4.750973e-002
3.137748e+003;4.757793e-002
3.139676e+003;4.783835e-002
3.141605e+003;4.800455e-002
3.143533e+003;4.818133e-002
3.145462e+003;4.809741e-002
3.147390e+003;4.771763e-002
3.149319e+003;4.768974e-002
3.151247e+003;4.784168e-002
3.153176e+003;4.783498e-002
3.155104e+003;4.774200e-002
3.157033e+003;4.762019e-002
3.158962e+003;4.742505e-002
3.160890e+003;4.742294e-002
3.162819e+003;4.746459e-002
3.164747e+003;4.739042e-002
3.166676e+003;4.727695e-002
3.168604e+003;4.707317e-002
3.170533e+003;4.722334e-002
3.172461e+003;4.739692e-002
3.174390e+003;4.726926e-002
3.176319e+003;4.728999e-002
3.178247e+003;4.749697e-002
3.180176e+003;4.748233e-002
3.182104e+003;4.768878e-002
3.184033e+003;4.778139e-002
3.185961e+003;4.792910e-002
3.187890e+003;4.810859e-002
3.189818e+003;4.789699e-002
3.191747e+003;4.779385e-002
3.193676e+003;4.785208e-002
3.195604e+003;4.788526e-002
3.197532e+003;4.794931e-002
3.199461e+003;4.788829e-002
3.201390e+003;4.771463e-002
3.203318e+003;4.791175e-002
3.205247e+003;4.793018e-002
3.207175e+003;4.760285e-002
3.209104e+003;4.768760e-002
3.211032e+003;4.787283e-002
3.212961e+003;4.834526e-002
3.214889e+003;4.870688e-002
3.216818e+003;4.841393e-002
3.218747e+003;4.825094e-002
3.220675e+003;4.843971e-002
3.222604e+003;4.850880e-002
3.224532e+003;4.857638e-002
3.226461e+003;4.855393e-002
3.228389e+003;4.864706e-002
3.230318e+003;4.887756e-002
3.232246e+003;4.928064e-002
3.234175e+003;4.944598e-002
3.236104e+003;4.927218e-002
3.238032e+003;4.951093e-002
3.239961e+003;4.962810e-002
3.241889e+003;4.959586e-002
3.243818e+003;4.964902e-002
3.245746e+003;4.969731e-002
3.247675e+003;4.986839e-002
3.249603e+003;5.001005e-002
3.251532e+003;5.014655e-002
3.253460e+003;5.037704e-002
3.255389e+003;5.068494e-002
3.257318e+003;5.083644e-002
3.259246e+003;5.082467e-002
3.261175e+003;5.101852e-002
3.263103e+003;5.119929e-002
3.265032e+003;5.140583e-002
3.266960e+003;5.179826e-002
3.268889e+003;5.176138e-002
3.270817e+003;5.158627e-002
3.272746e+003;5.166232e-002
3.274675e+003;5.181435e-002
3.276603e+003;5.203377e-002
3.278531e+003;5.241280e-002
3.280460e+003;5.270752e-002
3.282389e+003;5.236203e-002
3.284317e+003;5.225895e-002
3.286246e+003;5.246514e-002
3.288174e+003;5.258760e-002
3.290103e+003;5.259108e-002
3.292031e+003;5.274418e-002
3.293960e+003;5.303322e-002
3.295888e+003;5.318284e-002
3.297817e+003;5.348143e-002
3.299746e+003;5.390961e-002
3.301674e+003;5.390421e-002
3.303603e+003;5.376837e-002
3.305531e+003;5.395445e-002
3.307460e+003;5.390804e-002
3.309388e+003;5.388058e-002
3.311317e+003;5.436718e-002
3.313245e+003;5.497957e-002
3.315174e+003;5.530028e-002
3.317103e+003;5.559234e-002
3.319031e+003;5.560270e-002
3.320960e+003;5.544177e-002
3.322888e+003;5.537570e-002
3.324817e+003;5.544323e-002
3.326745e+003;5.580445e-002
3.328674e+003;5.633119e-002
3.330602e+003;5.689559e-002
3.332531e+003;5.703904e-002
3.334459e+003;5.664237e-002
3.336388e+003;5.665264e-002
3.338317e+003;5.687055e-002
3.340245e+003;5.694579e-002
3.342174e+003;5.751606e-002
3.344102e+003;5.806742e-002
3.346031e+003;5.811268e-002
3.347959e+003;5.797479e-002
3.349888e+003;5.791156e-002
3.351816e+003;5.806546e-002
3.353745e+003;5.822713e-002
3.355674e+003;5.819504e-002
3.357602e+003;5.838519e-002
3.359531e+003;5.862961e-002
3.361459e+003;5.877283e-002
3.363388e+003;5.901762e-002
3.365316e+003;5.890540e-002
3.367245e+003;5.898320e-002
3.369173e+003;5.962882e-002
3.371102e+003;5.974150e-002
3.373031e+003;5.958591e-002
3.374959e+003;5.996896e-002
3.376887e+003;6.024880e-002
3.378816e+003;6.006787e-002
3.380745e+003;5.993446e-002
3.382673e+003;6.016114e-002
3.384602e+003;6.027137e-002
3.386530e+003;6.045077e-002
3.388459e+003;6.084526e-002
3.390387e+003;6.108295e-002
3.392316e+003;6.148827e-002
3.394244e+003;6.224951e-002
3.396173e+003;6.241677e-002
3.398102e+003;6.222217e-002
3.400030e+003;6.237913e-002
3.401959e+003;6.260667e-002
3.403887e+003;6.261318e-002
3.405816e+003;6.263048e-002
3.407744e+003;6.277610e-002
3.409673e+003;6.300645e-002
3.411601e+003;6.351727e-002
3.413530e+003;6.380939e-002
3.415458e+003;6.360385e-002
3.417387e+003;6.352437e-002
3.419316e+003;6.381933e-002
3.421244e+003;6.397951e-002
3.423173e+003;6.405715e-002
3.425101e+003;6.438217e-002
3.427030e+003;6.488462e-002
3.428958e+003;6.552898e-002
3.430887e+003;6.581350e-002
3.432815e+003;6.568768e-002
3.434744e+003;6.572850e-002
3.436673e+003;6.570476e-002
3.438601e+003;6.595407e-002
3.440530e+003;6.621799e-002
3.442458e+003;6.626762e-002
3.444387e+003;6.630082e-002
3.446315e+003;6.665108e-002
3.448244e+003;6.693097e-002
3.450172e+003;6.710812e-002
3.452101e+003;6.760355e-002
3.454030e+003;6.793112e-002
3.455958e+003;6.805539e-002
3.457886e+003;6.799673e-002
3.459815e+003;6.838381e-002
3.461744e+003;6.868442e-002
3.463672e+003;6.854565e-002
3.465601e+003;6.862217e-002
3.467529e+003;6.891479e-002
3.469458e+003;6.920756e-002
3.471386e+003;6.971429e-002
3.473315e+003;6.973581e-002
3.475243e+003;6.967298e-002
3.477172e+003;6.997838e-002
3.479101e+003;7.020285e-002
3.481029e+003;7.015055e-002
3.482958e+003;7.013995e-002
3.484886e+003;7.041863e-002
3.486815e+003;7.021411e-002
3.488743e+003;6.985982e-002
3.490672e+003;6.990819e-002
3.492600e+003;6.971344e-002
3.494529e+003;6.965361e-002
3.496458e+003;6.990419e-002
3.498386e+003;6.964362e-002
3.500315e+003;6.936745e-002
3.502243e+003;6.953751e-002
3.504172e+003;6.949416e-002
3.506100e+003;6.918343e-002
3.508029e+003;6.906971e-002
3.509957e+003;6.914540e-002
3.511886e+003;6.901510e-002
3.513814e+003;6.896667e-002
3.515743e+003;6.869645e-002
3.517672e+003;6.828772e-002
3.519600e+003;6.833719e-002
3.521529e+003;6.850988e-002
3.523457e+003;6.848381e-002
3.525386e+003;6.837509e-002
3.527314e+003;6.804024e-002
3.529243e+003;6.752016e-002
3.531171e+003;6.683566e-002
3.533100e+003;6.646659e-002
3.535029e+003;6.639597e-002
3.536957e+003;6.605180e-002
3.538885e+003;6.577707e-002
3.540814e+003;6.581289e-002
3.542743e+003;6.585920e-002
3.544671e+003;6.544380e-002
3.546600e+003;6.459893e-002
3.548528e+003;6.399760e-002
3.550457e+003;6.367413e-002
3.552385e+003;6.370106e-002
3.554314e+003;6.376921e-002
3.556242e+003;6.343214e-002
3.558171e+003;6.288982e-002
3.560100e+003;6.242041e-002
3.562028e+003;6.229885e-002
3.563957e+003;6.198929e-002
3.565885e+003;6.089512e-002
3.567814e+003;6.027369e-002
3.569742e+003;6.061105e-002
3.571671e+003;6.062489e-002
3.573599e+003;6.001761e-002
3.575528e+003;5.953323e-002
3.577457e+003;5.944424e-002
3.579385e+003;5.900776e-002
3.581314e+003;5.867342e-002
3.583242e+003;5.839300e-002
3.585171e+003;5.766319e-002
3.587099e+003;5.666249e-002
3.589028e+003;5.624806e-002
3.590956e+003;5.616992e-002
3.592885e+003;5.550181e-002
3.594813e+003;5.501379e-002
3.596742e+003;5.475550e-002
3.598671e+003;5.428754e-002
3.600599e+003;5.387031e-002
3.602528e+003;5.345572e-002
3.604456e+003;5.320625e-002
3.606385e+003;5.298317e-002
3.608313e+003;5.259467e-002
3.610242e+003;5.198709e-002
3.612170e+003;5.125879e-002
3.614099e+003;5.076009e-002
3.616028e+003;5.040200e-002
3.617956e+003;5.012175e-002
3.619885e+003;4.981691e-002
3.621813e+003;4.947636e-002
3.623742e+003;4.912560e-002
3.625670e+003;4.877983e-002
3.627599e+003;4.811718e-002
3.629527e+003;4.788589e-002
3.631456e+003;4.816889e-002
3.633385e+003;4.749006e-002
3.635313e+003;4.654606e-002
3.637241e+003;4.615344e-002
3.639170e+003;4.587370e-002
3.641099e+003;4.575186e-002
3.643027e+003;4.564768e-002
3.644956e+003;4.496528e-002
3.646884e+003;4.371535e-002
3.648813e+003;4.276163e-002
3.650741e+003;4.243883e-002
3.652670e+003;4.234798e-002
3.654598e+003;4.171640e-002
3.656527e+003;4.107463e-002
3.658456e+003;4.057672e-002
3.660384e+003;3.965073e-002
3.662313e+003;3.900613e-002
3.664241e+003;3.878326e-002
3.666170e+003;3.830744e-002
3.668098e+003;3.709486e-002
3.670027e+003;3.599235e-002
3.671955e+003;3.562311e-002
3.673884e+003;3.532491e-002
3.675813e+003;3.503643e-002
3.677741e+003;3.501024e-002
3.679669e+003;3.436460e-002
3.681598e+003;3.359843e-002
3.683527e+003;3.275486e-002
3.685455e+003;3.175664e-002
3.687384e+003;3.125121e-002
3.689312e+003;3.146140e-002
3.691241e+003;3.167466e-002
3.693169e+003;3.144858e-002
3.695098e+003;3.129180e-002
3.697026e+003;3.124700e-002
3.698955e+003;3.131249e-002
3.700884e+003;3.098150e-002
3.702812e+003;3.038794e-002
3.704741e+003;3.020657e-002
3.706669e+003;3.044522e-002
3.708598e+003;3.051460e-002
3.710526e+003;2.992022e-002
3.712455e+003;2.946450e-002
3.714383e+003;2.987216e-002
3.716312e+003;2.997613e-002
3.718240e+003;2.964996e-002
3.720169e+003;2.923230e-002
3.722098e+003;2.886968e-002
3.724026e+003;2.886334e-002
3.725955e+003;2.918346e-002
3.727883e+003;2.921734e-002
3.729812e+003;2.872044e-002
3.731740e+003;2.827216e-002
3.733669e+003;2.817648e-002
3.735597e+003;2.827627e-002
3.737526e+003;2.856075e-002
3.739455e+003;2.868692e-002
3.741383e+003;2.857689e-002
3.743312e+003;2.817496e-002
3.745240e+003;2.817616e-002
3.747169e+003;2.816584e-002
3.749097e+003;2.772008e-002
3.751026e+003;2.763776e-002
3.752954e+003;2.817977e-002
3.754883e+003;2.872795e-002
3.756812e+003;2.851846e-002
3.758740e+003;2.831114e-002
3.760668e+003;2.852890e-002
3.762597e+003;2.858375e-002
3.764526e+003;2.858538e-002
3.766454e+003;2.881663e-002
3.768383e+003;2.853520e-002
3.770311e+003;2.753992e-002
3.772240e+003;2.801441e-002
3.774168e+003;2.886851e-002
3.776097e+003;2.873432e-002
3.778025e+003;2.849472e-002
3.779954e+003;2.831984e-002
3.781883e+003;2.831251e-002
3.783811e+003;2.832330e-002
3.785740e+003;2.846401e-002
3.787668e+003;2.827443e-002
3.789597e+003;2.825689e-002
3.791525e+003;2.872639e-002
3.793454e+003;2.868005e-002
3.795382e+003;2.852742e-002
3.797311e+003;2.885073e-002
3.799240e+003;2.858117e-002
3.801168e+003;2.792518e-002
3.803097e+003;2.809450e-002
3.805025e+003;2.830268e-002
3.806954e+003;2.847587e-002
3.808882e+003;2.893629e-002
3.810811e+003;2.887052e-002
3.812739e+003;2.831527e-002
3.814668e+003;2.799289e-002
3.816596e+003;2.837116e-002
3.818525e+003;2.864547e-002
3.820454e+003;2.850261e-002
3.822382e+003;2.857572e-002
3.824311e+003;2.862321e-002
3.826239e+003;2.863004e-002
3.828168e+003;2.882789e-002
3.830096e+003;2.888005e-002
3.832025e+003;2.847937e-002
3.833953e+003;2.838849e-002
3.835882e+003;2.848082e-002
3.837811e+003;2.833419e-002
3.839739e+003;2.826283e-002
3.841667e+003;2.819773e-002
3.843596e+003;2.821212e-002
3.845525e+003;2.858219e-002
3.847453e+003;2.897029e-002
3.849382e+003;2.903171e-002
3.851310e+003;2.838000e-002
3.853239e+003;2.772813e-002
3.855167e+003;2.843600e-002
3.857096e+003;2.902874e-002
3.859024e+003;2.889244e-002
3.860953e+003;2.909502e-002
3.862882e+003;2.957341e-002
3.864810e+003;2.942500e-002
3.866739e+003;2.933030e-002
3.868667e+003;2.916256e-002
3.870596e+003;2.931683e-002
3.872524e+003;2.935101e-002
3.874453e+003;2.917733e-002
3.876381e+003;2.905417e-002
3.878310e+003;2.895400e-002
3.880239e+003;2.920526e-002
3.882167e+003;2.938961e-002
3.884096e+003;2.957894e-002
3.886024e+003;2.985722e-002
3.887953e+003;3.009242e-002
3.889881e+003;2.993144e-002
3.891810e+003;3.011468e-002
3.893738e+003;3.042891e-002
3.895667e+003;3.030891e-002
3.897595e+003;2.989864e-002
3.899524e+003;2.996655e-002
3.901453e+003;3.027172e-002
3.903381e+003;3.025488e-002
3.905310e+003;3.037888e-002
3.907238e+003;3.081464e-002
3.909167e+003;3.104979e-002
3.911095e+003;3.085253e-002
3.913024e+003;3.080465e-002
3.914952e+003;3.089077e-002
3.916881e+003;3.118580e-002
3.918810e+003;3.159915e-002
3.920738e+003;3.181379e-002
3.922667e+003;3.171034e-002
3.924595e+003;3.174278e-002
3.926524e+003;3.195079e-002
3.928452e+003;3.242959e-002
3.930381e+003;3.268090e-002
3.932309e+003;3.283333e-002
3.934238e+003;3.278019e-002
3.936167e+003;3.260996e-002
3.938095e+003;3.252243e-002
3.940023e+003;3.273624e-002
3.941952e+003;3.268308e-002
3.943881e+003;3.245062e-002
3.945809e+003;3.269676e-002
3.947738e+003;3.302166e-002
3.949666e+003;3.310125e-002
3.951595e+003;3.298673e-002
3.953523e+003;3.282046e-002
3.955452e+003;3.321097e-002
3.957380e+003;3.363924e-002
3.959309e+003;3.362714e-002
3.961238e+003;3.380959e-002
3.963166e+003;3.411070e-002
3.965095e+003;3.439315e-002
3.967023e+003;3.467366e-002
3.968952e+003;3.503434e-002
3.970880e+003;3.492183e-002
3.972809e+003;3.488467e-002
3.974737e+003;3.521659e-002
3.976666e+003;3.522030e-002
3.978594e+003;3.536718e-002
3.980523e+003;3.555726e-002
3.982452e+003;3.508025e-002
3.984380e+003;3.443518e-002
3.986309e+003;3.459127e-002
3.988237e+003;3.531704e-002
3.990166e+003;3.558118e-002
3.992094e+003;3.536340e-002
3.994023e+003;3.531818e-002
3.995951e+003;3.519489e-002
3.997880e+003;3.526370e-002
3.999809e+003;3.536351e-002
4.001737e+003;0.000000e+000
