3.992094e+002;0.000000e+000
4.011380e+002;0.000000e+000
4.030665e+002;0.000000e+000
4.049951e+002;0.000000e+000
4.069236e+002;0.000000e+000
4.088522e+002;0.000000e+000
4.107807e+002;0.000000e+000
4.127093e+002;0.000000e+000
4.146378e+002;0.000000e+000
4.165664e+002;0.000000e+000
4.184949e+002;0.000000e+000
4.204235e+002;0.000000e+000
4.223520e+002;0.000000e+000
4.242806e+002;0.000000e+000
4.262091e+002;0.000000e+000
4.281377e+002;0.000000e+000
4.300662e+002;0.000000e+000
4.319948e+002;0.000000e+000
4.339233e+002;0.000000e+000
4.358519e+002;0.000000e+000
4.377804e+002;0.000000e+000
4.397090e+002;0.000000e+000
4.416375e+002;0.000000e+000
4.435660e+002;0.000000e+000
4.454946e+002;0.000000e+000
4.474232e+002;0.000000e+000
4.493517e+002;0.000000e+000
4.512802e+002;0.000000e+000
4.532088e+002;0.000000e+000
4.551373e+002;0.000000e+000
4.570659e+002;0.000000e+000
4.589944e+002;0.000000e+000
4.609230e+002;0.000000e+000
4.628515e+002;0.000000e+000
4.647801e+002;0.000000e+000
4.667086e+002;0.000000e+000
4.686372e+002;0.000000e+000
4.705657e+002;0.000000e+000
4.724943e+002;0.000000e+000
4.744228e+002;0.000000e+000
4.763513e+002;0.000000e+000
4.782799e+002;0.000000e+000
4.802085e+002;0.000000e+000
4.821370e+002;0.000000e+000
4.840656e+002;0.000000e+000
4.859941e+002;0.000000e+000
4.879226e+002;0.000000e+000
4.898512e+002;0.000000e+000
4.917798e+002;0.000000e+000
4.937083e+002;0.000000e+000
4.956368e+002;0.000000e+000
4.975654e+002;0.000000e+000
4.994939e+002;0.000000e+000
5.014225e+002;0.000000e+000
5.033510e+002;0.000000e+000
5.052796e+002;0.000000e+000
5.072081e+002;0.000000e+000
5.091367e+002;0.000000e+000
5.110652e+002;0.000000e+000
5.129938e+002;0.000000e+000
5.149223e+002;0.000000e+000
5.168509e+002;0.000000e+000
5.187794e+002;0.000000e+000
5.207079e+002;0.000000e+000
5.226365e+002;0.000000e+000
5.245651e+002;0.000000e+000
5.264936e+002;0.000000e+000
5.284222e+002;0.000000e+000
5.303507e+002;0.000000e+000
5.322792e+002;0.000000e+000
5.342078e+002;0.000000e+000
5.361364e+002;0.000000e+000
5.380649e+002;0.000000e+000
5.399935e+002;0.000000e+000
5.419220e+002;0.000000e+000
5.438505e+002;0.000000e+000
5.457791e+002;0.000000e+000
5.477076e+002;0.000000e+000
5.496362e+002;0.000000e+000
5.515648e+002;0.000000e+000
5.534933e+002;0.000000e+000
5.554218e+002;0.000000e+000
5.573504e+002;0.000000e+000
5.592789e+002;0.000000e+000
5.612075e+002;0.000000e+000
5.631360e+002;0.000000e+000
5.650646e+002;0.000000e+000
5.669931e+002;0.000000e+000
5.689217e+002;0.000000e+000
5.708502e+002;0.000000e+000
5.727787e+002;0.000000e+000
5.747073e+002;0.000000e+000
5.766359e+002;0.000000e+000
5.785644e+002;0.000000e+000
5.804930e+002;0.000000e+000
5.824215e+002;0.000000e+000
5.843500e+002;0.000000e+000
5.862786e+002;0.000000e+000
5.882072e+002;0.000000e+000
5.901357e+002;0.000000e+000
5.920643e+002;0.000000e+000
5.939928e+002;0.000000e+000
5.959213e+002;0.000000e+000
5.978499e+002;0.000000e+000
5.997784e+002;1.721788e-001
6.017070e+002;1.838850e-001
6.036355e+002;1.858258e-001
6.055641e+002;1.771436e-001
6.074926e+002;1.676553e-001
6.094211e+002;1.600928e-001
6.113497e+002;1.523557e-001
6.132783e+002;1.479719e-001
6.152068e+002;1.461976e-001
6.171354e+002;1.444705e-001
6.190639e+002;1.431909e-001
6.209924e+002;1.390409e-001
6.229210e+002;1.355262e-001
6.248495e+002;1.342752e-001
6.267781e+002;1.339850e-001
6.287067e+002;1.335440e-001
6.306352e+002;1.259852e-001
6.325637e+002;1.213268e-001
6.344923e+002;1.211650e-001
6.364208e+002;1.195341e-001
6.383494e+002;1.215666e-001
6.402780e+002;1.238328e-001
6.422065e+002;1.207026e-001
6.441350e+002;1.153550e-001
6.460636e+002;1.151431e-001
6.479921e+002;1.180177e-001
6.499207e+002;1.152930e-001
6.518492e+002;1.085453e-001
6.537778e+002;1.087488e-001
6.557063e+002;1.103107e-001
6.576349e+002;1.070881e-001
6.595634e+002;1.028162e-001
6.614919e+002;1.009088e-001
6.634205e+002;1.008940e-001
6.653491e+002;1.004146e-001
6.672776e+002;9.725126e-002
6.692062e+002;9.764671e-002
6.711347e+002;9.918156e-002
6.730632e+002;9.918523e-002
6.749918e+002;9.968559e-002
6.769203e+002;1.002249e-001
6.788489e+002;1.013991e-001
6.807775e+002;1.022161e-001
6.827060e+002;1.026214e-001
6.846345e+002;1.026178e-001
6.865631e+002;1.012021e-001
6.884916e+002;1.003459e-001
6.904202e+002;1.000247e-001
6.923488e+002;9.859999e-002
6.942773e+002;9.720185e-002
6.962058e+002;9.666568e-002
6.981344e+002;9.562355e-002
7.000629e+002;9.399355e-002
7.019915e+002;9.213274e-002
7.039200e+002;9.071764e-002
7.058486e+002;8.976083e-002
7.077771e+002;8.901952e-002
7.097057e+002;8.820417e-002
7.116342e+002;8.811539e-002
7.135627e+002;8.778092e-002
7.154913e+002;8.721833e-002
7.174199e+002;8.580152e-002
7.193484e+002;8.404745e-002
7.212770e+002;8.317800e-002
7.232055e+002;8.239860e-002
7.251340e+002;8.175849e-002
7.270626e+002;8.163431e-002
7.289911e+002;8.090817e-002
7.309197e+002;7.856573e-002
7.328483e+002;7.576916e-002
7.347768e+002;7.254678e-002
7.367053e+002;6.996904e-002
7.386339e+002;6.858566e-002
7.405624e+002;6.736261e-002
7.424910e+002;6.650408e-002
7.444196e+002;6.603896e-002
7.463481e+002;6.563742e-002
7.482766e+002;6.509438e-002
7.502052e+002;6.457274e-002
7.521337e+002;6.366730e-002
7.540623e+002;6.323425e-002
7.559908e+002;6.326418e-002
7.579194e+002;6.378141e-002
7.598479e+002;6.323245e-002
7.617765e+002;6.204845e-002
7.637050e+002;6.156562e-002
7.656335e+002;6.185612e-002
7.675621e+002;6.255268e-002
7.694907e+002;6.283269e-002
7.714192e+002;6.238368e-002
7.733478e+002;6.199406e-002
7.752763e+002;6.179927e-002
7.772048e+002;6.167682e-002
7.791334e+002;6.217365e-002
7.810620e+002;6.338241e-002
7.829905e+002;6.380639e-002
7.849191e+002;6.359782e-002
7.868476e+002;6.358555e-002
7.887761e+002;6.406084e-002
7.907047e+002;6.467056e-002
7.926332e+002;6.468306e-002
7.945618e+002;6.515782e-002
7.964903e+002;6.592186e-002
7.984189e+002;6.652872e-002
8.003474e+002;6.742384e-002
8.022759e+002;6.851237e-002
8.042045e+002;6.944917e-002
8.061331e+002;7.015350e-002
8.080616e+002;7.077844e-002
8.099902e+002;7.202116e-002
8.119187e+002;7.372221e-002
8.138472e+002;7.532281e-002
8.157758e+002;7.704189e-002
8.177043e+002;7.842334e-002
8.196329e+002;7.992587e-002
8.215615e+002;8.228510e-002
8.234900e+002;8.507745e-002
8.254185e+002;8.820754e-002
8.273471e+002;9.223635e-002
8.292756e+002;9.691142e-002
8.312042e+002;1.017427e-001
8.331328e+002;1.066384e-001
8.350613e+002;1.106383e-001
8.369898e+002;1.132261e-001
8.389184e+002;1.144711e-001
8.408469e+002;1.141173e-001
8.427755e+002;1.121025e-001
8.447040e+002;1.096641e-001
8.466326e+002;1.069340e-001
8.485611e+002;1.039106e-001
8.504897e+002;1.014667e-001
8.524182e+002;9.954748e-002
8.543467e+002;9.874113e-002
8.562753e+002;9.935918e-002
8.582039e+002;1.006778e-001
8.601324e+002;1.024455e-001
8.620610e+002;1.053167e-001
8.639895e+002;1.088680e-001
8.659180e+002;1.133295e-001
8.678466e+002;1.186883e-001
8.697751e+002;1.245632e-001
8.717037e+002;1.304461e-001
8.736323e+002;1.356882e-001
8.755608e+002;1.403146e-001
8.774893e+002;1.441817e-001
8.794179e+002;1.472448e-001
8.813464e+002;1.499035e-001
8.832750e+002;1.529194e-001
8.852036e+002;1.564403e-001
8.871321e+002;1.606438e-001
8.890606e+002;1.659562e-001
8.909892e+002;1.723013e-001
8.929177e+002;1.789960e-001
8.948463e+002;1.848833e-001
8.967748e+002;1.894992e-001
8.987034e+002;1.917568e-001
9.006319e+002;1.911375e-001
9.025605e+002;1.884096e-001
9.044890e+002;1.837851e-001
9.064175e+002;1.779072e-001
9.083461e+002;1.716875e-001
9.102747e+002;1.656039e-001
9.122032e+002;1.602012e-001
9.141318e+002;1.555181e-001
9.160603e+002;1.512365e-001
9.179888e+002;1.481408e-001
9.199174e+002;1.456052e-001
9.218459e+002;1.430341e-001
9.237745e+002;1.408539e-001
9.257031e+002;1.392706e-001
9.276316e+002;1.381843e-001
9.295601e+002;1.375384e-001
9.314887e+002;1.371738e-001
9.334172e+002;1.370919e-001
9.353458e+002;1.374938e-001
9.372744e+002;1.387017e-001
9.392029e+002;1.398250e-001
9.411314e+002;1.410012e-001
9.430600e+002;1.429640e-001
9.449885e+002;1.446735e-001
9.469171e+002;1.467226e-001
9.488456e+002;1.492027e-001
9.507742e+002;1.512040e-001
9.527027e+002;1.528507e-001
9.546313e+002;1.545542e-001
9.565598e+002;1.561785e-001
9.584883e+002;1.579894e-001
9.604169e+002;1.602412e-001
9.623455e+002;1.628663e-001
9.642740e+002;1.662357e-001
9.662026e+002;1.708078e-001
9.681311e+002;1.763595e-001
9.700596e+002;1.828491e-001
9.719882e+002;1.904238e-001
9.739167e+002;1.983270e-001
9.758453e+002;2.055077e-001
9.777739e+002;2.123726e-001
9.797024e+002;2.194899e-001
9.816309e+002;2.261603e-001
9.835595e+002;2.322084e-001
9.854880e+002;2.377313e-001
9.874166e+002;2.426546e-001
9.893452e+002;2.470359e-001
9.912737e+002;2.514105e-001
9.932022e+002;2.562986e-001
9.951307e+002;2.610934e-001
9.970593e+002;2.667294e-001
9.989879e+002;2.740845e-001
1.000916e+003;2.828928e-001
1.002845e+003;2.929247e-001
1.004773e+003;3.043929e-001
1.006702e+003;3.171908e-001
1.008631e+003;3.311465e-001
1.010559e+003;3.460071e-001
1.012488e+003;3.621319e-001
1.014416e+003;3.791157e-001
1.016345e+003;3.967873e-001
1.018273e+003;4.151567e-001
1.020202e+003;4.330228e-001
1.022130e+003;4.500997e-001
1.024059e+003;4.677812e-001
1.025988e+003;4.847714e-001
1.027916e+003;4.988313e-001
1.029845e+003;5.102570e-001
1.031773e+003;5.174061e-001
1.033702e+003;5.198474e-001
1.035630e+003;5.193060e-001
1.037559e+003;5.155895e-001
1.039487e+003;5.092641e-001
1.041416e+003;5.019265e-001
1.043344e+003;4.931954e-001
1.045273e+003;4.826915e-001
1.047202e+003;4.699515e-001
1.049130e+003;4.554599e-001
1.051059e+003;4.403572e-001
1.052987e+003;4.248340e-001
1.054916e+003;4.086474e-001
1.056844e+003;3.943030e-001
1.058773e+003;3.814398e-001
1.060701e+003;3.689594e-001
1.062630e+003;3.576822e-001
1.064558e+003;3.473516e-001
1.066487e+003;3.378032e-001
1.068416e+003;3.291104e-001
1.070344e+003;3.201701e-001
1.072273e+003;3.113602e-001
1.074201e+003;3.028559e-001
1.076130e+003;2.938814e-001
1.078058e+003;2.849470e-001
1.079987e+003;2.758868e-001
1.081915e+003;2.667766e-001
1.083844e+003;2.582709e-001
1.085773e+003;2.500546e-001
1.087701e+003;2.425229e-001
1.089630e+003;2.348499e-001
1.091558e+003;2.265309e-001
1.093487e+003;2.187569e-001
1.095415e+003;2.114964e-001
1.097344e+003;2.056210e-001
1.099272e+003;2.011720e-001
1.101201e+003;1.975849e-001
1.103129e+003;1.948557e-001
1.105058e+003;1.926032e-001
1.106987e+003;1.911848e-001
1.108915e+003;1.898686e-001
1.110844e+003;1.891653e-001
1.112772e+003;1.885839e-001
1.114701e+003;1.875500e-001
1.116629e+003;1.867042e-001
1.118558e+003;1.857590e-001
1.120486e+003;1.842442e-001
1.122415e+003;1.825771e-001
1.124344e+003;1.803322e-001
1.126272e+003;1.777561e-001
1.128201e+003;1.753485e-001
1.130129e+003;1.728795e-001
1.132058e+003;1.701651e-001
1.133986e+003;1.676708e-001
1.135915e+003;1.660517e-001
1.137843e+003;1.647963e-001
1.139772e+003;1.641516e-001
1.141700e+003;1.642703e-001
1.143629e+003;1.645247e-001
1.145557e+003;1.649665e-001
1.147486e+003;1.662291e-001
1.149415e+003;1.686764e-001
1.151343e+003;1.710450e-001
1.153272e+003;1.728672e-001
1.155200e+003;1.748924e-001
1.157129e+003;1.770059e-001
1.159057e+003;1.786258e-001
1.160986e+003;1.792471e-001
1.162914e+003;1.790079e-001
1.164843e+003;1.782137e-001
1.166771e+003;1.773198e-001
1.168700e+003;1.761666e-001
1.170629e+003;1.746190e-001
1.172557e+003;1.728264e-001
1.174486e+003;1.707445e-001
1.176414e+003;1.688845e-001
1.178343e+003;1.679237e-001
1.180271e+003;1.675236e-001
1.182200e+003;1.685026e-001
1.184128e+003;1.714465e-001
1.186057e+003;1.763802e-001
1.187986e+003;1.834620e-001
1.189914e+003;1.930806e-001
1.191843e+003;2.060051e-001
1.193771e+003;2.231758e-001
1.195700e+003;2.441899e-001
1.197628e+003;2.683636e-001
1.199557e+003;2.959143e-001
1.201485e+003;3.267364e-001
1.203414e+003;3.589124e-001
1.205343e+003;3.897086e-001
1.207271e+003;4.171321e-001
1.209200e+003;4.393600e-001
1.211128e+003;4.551798e-001
1.213057e+003;4.659370e-001
1.214985e+003;4.724049e-001
1.216914e+003;4.744363e-001
1.218842e+003;4.742757e-001
1.220771e+003;4.728280e-001
1.222699e+003;4.702196e-001
1.224628e+003;4.666135e-001
1.226557e+003;4.610414e-001
1.228485e+003;4.530811e-001
1.230414e+003;4.426195e-001
1.232342e+003;4.299366e-001
1.234271e+003;4.150866e-001
1.236199e+003;3.982524e-001
1.238128e+003;3.801249e-001
1.240056e+003;3.614892e-001
1.241985e+003;3.434988e-001
1.243913e+003;3.253430e-001
1.245842e+003;3.071586e-001
1.247771e+003;2.904627e-001
1.249699e+003;2.748342e-001
1.251628e+003;2.596062e-001
1.253556e+003;2.449284e-001
1.255485e+003;2.313536e-001
1.257413e+003;2.184641e-001
1.259342e+003;2.061159e-001
1.261270e+003;1.951379e-001
1.263199e+003;1.849605e-001
1.265127e+003;1.754884e-001
1.267056e+003;1.666636e-001
1.268985e+003;1.583418e-001
1.270913e+003;1.509456e-001
1.272842e+003;1.442721e-001
1.274770e+003;1.381389e-001
1.276699e+003;1.324765e-001
1.278627e+003;1.275651e-001
1.280556e+003;1.231241e-001
1.282484e+003;1.188804e-001
1.284413e+003;1.153866e-001
1.286342e+003;1.122397e-001
1.288270e+003;1.093434e-001
1.290199e+003;1.066771e-001
1.292127e+003;1.043380e-001
1.294056e+003;1.022108e-001
1.295984e+003;1.002089e-001
1.297913e+003;9.871842e-002
1.299841e+003;9.719680e-002
1.301770e+003;9.567269e-002
1.303698e+003;9.478549e-002
1.305627e+003;9.430650e-002
1.307556e+003;9.414757e-002
1.309484e+003;9.392498e-002
1.311413e+003;9.374575e-002
1.313341e+003;9.401853e-002
1.315270e+003;9.447549e-002
1.317198e+003;9.465638e-002
1.319127e+003;9.417231e-002
1.321055e+003;9.363471e-002
1.322984e+003;9.334566e-002
1.324912e+003;9.317029e-002
1.326841e+003;9.296015e-002
1.328770e+003;9.243467e-002
1.330698e+003;9.191065e-002
1.332627e+003;9.157827e-002
1.334555e+003;9.128936e-002
1.336484e+003;9.111355e-002
1.338412e+003;9.081013e-002
1.340341e+003;9.070110e-002
1.342269e+003;9.137044e-002
1.344198e+003;9.273135e-002
1.346126e+003;9.485469e-002
1.348055e+003;9.825111e-002
1.349984e+003;1.033903e-001
1.351912e+003;1.109122e-001
1.353841e+003;1.216584e-001
1.355769e+003;1.363115e-001
1.357698e+003;1.541637e-001
1.359626e+003;1.732182e-001
1.361555e+003;1.913773e-001
1.363483e+003;2.052552e-001
1.365412e+003;2.126947e-001
1.367341e+003;2.139908e-001
1.369269e+003;2.105591e-001
1.371198e+003;2.036954e-001
1.373126e+003;1.950247e-001
1.375055e+003;1.857843e-001
1.376983e+003;1.761857e-001
1.378912e+003;1.660556e-001
1.380840e+003;1.554620e-001
1.382769e+003;1.450053e-001
1.384698e+003;1.348629e-001
1.386626e+003;1.252415e-001
1.388555e+003;1.168166e-001
1.390483e+003;1.095985e-001
1.392412e+003;1.032836e-001
1.394340e+003;9.825074e-002
1.396269e+003;9.492853e-002
1.398197e+003;9.265158e-002
1.400126e+003;9.122600e-002
1.402054e+003;9.056418e-002
1.403983e+003;9.012733e-002
1.405911e+003;9.016477e-002
1.407840e+003;9.050630e-002
1.409769e+003;9.100898e-002
1.411697e+003;9.169202e-002
1.413626e+003;9.248272e-002
1.415554e+003;9.350849e-002
1.417483e+003;9.453637e-002
1.419411e+003;9.615831e-002
1.421340e+003;9.890091e-002
1.423268e+003;1.018077e-001
1.425197e+003;1.041871e-001
1.427125e+003;1.061818e-001
1.429054e+003;1.076285e-001
1.430983e+003;1.082496e-001
1.432911e+003;1.080648e-001
1.434840e+003;1.066660e-001
1.436768e+003;1.043699e-001
1.438697e+003;1.025557e-001
1.440625e+003;1.005105e-001
1.442554e+003;9.804941e-002
1.444482e+003;9.549411e-002
1.446411e+003;9.283309e-002
1.448340e+003;9.027847e-002
1.450268e+003;8.830615e-002
1.452197e+003;8.641702e-002
1.454125e+003;8.410849e-002
1.456054e+003;8.102563e-002
1.457982e+003;7.890029e-002
1.459911e+003;7.785223e-002
1.461839e+003;7.621031e-002
1.463768e+003;7.384395e-002
1.465697e+003;7.151236e-002
1.467625e+003;6.966349e-002
1.469554e+003;6.783935e-002
1.471482e+003;6.597134e-002
1.473411e+003;6.459547e-002
1.475339e+003;6.361781e-002
1.477268e+003;6.278475e-002
1.479196e+003;6.200660e-002
1.481125e+003;6.118288e-002
1.483053e+003;6.055388e-002
1.484982e+003;5.996587e-002
1.486911e+003;5.935037e-002
1.488839e+003;5.873839e-002
1.490768e+003;5.841498e-002
1.492696e+003;5.826987e-002
1.494625e+003;5.765059e-002
1.496553e+003;5.708064e-002
1.498482e+003;5.709692e-002
1.500410e+003;5.733227e-002
1.502339e+003;5.711979e-002
1.504267e+003;5.623784e-002
1.506196e+003;5.550814e-002
1.508125e+003;5.606129e-002
1.510053e+003;5.663682e-002
1.511982e+003;5.681960e-002
1.513910e+003;5.689888e-002
1.515839e+003;5.665400e-002
1.517767e+003;5.640464e-002
1.519696e+003;5.589492e-002
1.521624e+003;5.546966e-002
1.523553e+003;5.591361e-002
1.525481e+003;5.635624e-002
1.527410e+003;5.667593e-002
1.529339e+003;5.698505e-002
1.531267e+003;5.686303e-002
1.533196e+003;5.657733e-002
1.535124e+003;5.662474e-002
1.537053e+003;5.571286e-002
1.538981e+003;5.385594e-002
1.540910e+003;5.370863e-002
1.542838e+003;5.467891e-002
1.544767e+003;5.524936e-002
1.546695e+003;5.588855e-002
1.548624e+003;5.621758e-002
1.550553e+003;5.629226e-002
1.552481e+003;5.605650e-002
1.554410e+003;5.566849e-002
1.556338e+003;5.522359e-002
1.558267e+003;5.424688e-002
1.560195e+003;5.457035e-002
1.562124e+003;5.576112e-002
1.564052e+003;5.609353e-002
1.565981e+003;5.605911e-002
1.567910e+003;5.568868e-002
1.569838e+003;5.551078e-002
1.571767e+003;5.597026e-002
1.573695e+003;5.593555e-002
1.575624e+003;5.530942e-002
1.577552e+003;5.565131e-002
1.579481e+003;5.656691e-002
1.581409e+003;5.704319e-002
1.583338e+003;5.730391e-002
1.585266e+003;5.731223e-002
1.587195e+003;5.752654e-002
1.589124e+003;5.805155e-002
1.591052e+003;5.860917e-002
1.592981e+003;5.904070e-002
1.594909e+003;5.929803e-002
1.596838e+003;5.985390e-002
1.598766e+003;6.068760e-002
1.600695e+003;6.120184e-002
1.602623e+003;6.174094e-002
1.604552e+003;6.253557e-002
1.606480e+003;6.295861e-002
1.608409e+003;6.320792e-002
1.610338e+003;6.353810e-002
1.612266e+003;6.411783e-002
1.614195e+003;6.444681e-002
1.616123e+003;6.441987e-002
1.618052e+003;6.537993e-002
1.619980e+003;6.644335e-002
1.621909e+003;6.674315e-002
1.623837e+003;6.708133e-002
1.625766e+003;6.776769e-002
1.627694e+003;6.832805e-002
1.629623e+003;6.897207e-002
1.631552e+003;6.967501e-002
1.633480e+003;6.976008e-002
1.635409e+003;6.984951e-002
1.637337e+003;7.072069e-002
1.639266e+003;7.178394e-002
1.641194e+003;7.255629e-002
1.643123e+003;7.294583e-002
1.645051e+003;7.279409e-002
1.646980e+003;7.298569e-002
1.648909e+003;7.382070e-002
1.650837e+003;7.328652e-002
1.652766e+003;7.217991e-002
1.654694e+003;7.328844e-002
1.656623e+003;7.455482e-002
1.658551e+003;7.493760e-002
1.660480e+003;7.500510e-002
1.662408e+003;7.530327e-002
1.664337e+003;7.595200e-002
1.666266e+003;7.656567e-002
1.668194e+003;7.680891e-002
1.670123e+003;7.732044e-002
1.672051e+003;7.846529e-002
1.673980e+003;7.967431e-002
1.675908e+003;8.090219e-002
1.677837e+003;8.243938e-002
1.679765e+003;8.399349e-002
1.681694e+003;8.549166e-002
1.683622e+003;8.655134e-002
1.685551e+003;8.897686e-002
1.687479e+003;9.237581e-002
1.689408e+003;9.543115e-002
1.691337e+003;9.880780e-002
1.693265e+003;1.022436e-001
1.695194e+003;1.056097e-001
1.697122e+003;1.102429e-001
1.699051e+003;1.151701e-001
1.700979e+003;1.209120e-001
1.702908e+003;1.280663e-001
1.704836e+003;1.352758e-001
1.706765e+003;1.432967e-001
1.708693e+003;1.524006e-001
1.710622e+003;1.625801e-001
1.712551e+003;1.741246e-001
1.714479e+003;1.864879e-001
1.716408e+003;1.995493e-001
1.718336e+003;2.143248e-001
1.720265e+003;2.302691e-001
1.722193e+003;2.463639e-001
1.724122e+003;2.628415e-001
1.726050e+003;2.786421e-001
1.727979e+003;2.932461e-001
1.729908e+003;3.068132e-001
1.731836e+003;3.177141e-001
1.733765e+003;3.253085e-001
1.735693e+003;3.311458e-001
1.737622e+003;3.336529e-001
1.739550e+003;3.318627e-001
1.741479e+003;3.275185e-001
1.743407e+003;3.212081e-001
1.745336e+003;3.130452e-001
1.747265e+003;3.029551e-001
1.749193e+003;2.912182e-001
1.751122e+003;2.780682e-001
1.753050e+003;2.636833e-001
1.754979e+003;2.476570e-001
1.756907e+003;2.297329e-001
1.758836e+003;2.106469e-001
1.760764e+003;1.907606e-001
1.762693e+003;1.713960e-001
1.764621e+003;1.535135e-001
1.766550e+003;1.370505e-001
1.768479e+003;1.224837e-001
1.770407e+003;1.103322e-001
1.772336e+003;1.003380e-001
1.774264e+003;9.282542e-002
1.776193e+003;8.685953e-002
1.778121e+003;8.187946e-002
1.780050e+003;7.772481e-002
1.781978e+003;7.410882e-002
1.783907e+003;7.123497e-002
1.785835e+003;6.891312e-002
1.787764e+003;6.692877e-002
1.789693e+003;6.500252e-002
1.791621e+003;6.331528e-002
1.793550e+003;6.238506e-002
1.795478e+003;6.178350e-002
1.797407e+003;6.088689e-002
1.799335e+003;5.980370e-002
1.801264e+003;5.910630e-002
1.803192e+003;5.862373e-002
1.805121e+003;5.816125e-002
1.807049e+003;5.756751e-002
1.808978e+003;5.678112e-002
1.810907e+003;5.624923e-002
1.812835e+003;5.568352e-002
1.814764e+003;5.505946e-002
1.816692e+003;5.444860e-002
1.818621e+003;5.396131e-002
1.820549e+003;5.349649e-002
1.822478e+003;5.307193e-002
1.824406e+003;5.269346e-002
1.826335e+003;5.235923e-002
1.828264e+003;5.172025e-002
1.830192e+003;5.110882e-002
1.832121e+003;5.079908e-002
1.834049e+003;5.051005e-002
1.835978e+003;5.028473e-002
1.837906e+003;5.004448e-002
1.839835e+003;4.964694e-002
1.841763e+003;4.908026e-002
1.843692e+003;4.860321e-002
1.845620e+003;4.850232e-002
1.847549e+003;4.840341e-002
1.849478e+003;4.827201e-002
1.851406e+003;4.810474e-002
1.853335e+003;4.785156e-002
1.855263e+003;4.761668e-002
1.857192e+003;4.732236e-002
1.859120e+003;4.715398e-002
1.861049e+003;4.696237e-002
1.862977e+003;4.676560e-002
1.864906e+003;4.671121e-002
1.866834e+003;4.625902e-002
1.868763e+003;4.580973e-002
1.870692e+003;4.573721e-002
1.872620e+003;4.591130e-002
1.874549e+003;4.582340e-002
1.876477e+003;4.549842e-002
1.878406e+003;4.521076e-002
1.880334e+003;4.509072e-002
1.882263e+003;4.500435e-002
1.884191e+003;4.488282e-002
1.886120e+003;4.469331e-002
1.888048e+003;4.422836e-002
1.889977e+003;4.401860e-002
1.891906e+003;4.424274e-002
1.893834e+003;4.435271e-002
1.895763e+003;4.438735e-002
1.897691e+003;4.426494e-002
1.899620e+003;4.406206e-002
1.901548e+003;4.404735e-002
1.903477e+003;4.429803e-002
1.905405e+003;4.448950e-002
1.907334e+003;4.455576e-002
1.909262e+003;4.464223e-002
1.911191e+003;4.473052e-002
1.913120e+003;4.475822e-002
1.915048e+003;4.486350e-002
1.916977e+003;4.490685e-002
1.918905e+003;4.521785e-002
1.920834e+003;4.559999e-002
1.922762e+003;4.563090e-002
1.924691e+003;4.563756e-002
1.926619e+003;4.544603e-002
1.928548e+003;4.541090e-002
1.930477e+003;4.555413e-002
1.932405e+003;4.572104e-002
1.934334e+003;4.575384e-002
1.936262e+003;4.561640e-002
1.938191e+003;4.531379e-002
1.940119e+003;4.532178e-002
1.942048e+003;4.551277e-002
1.943976e+003;4.560668e-002
1.945905e+003;4.550574e-002
1.947833e+003;4.532130e-002
1.949762e+003;4.522484e-002
1.951691e+003;4.510226e-002
1.953619e+003;4.495944e-002
1.955548e+003;4.493316e-002
1.957476e+003;4.495951e-002
1.959405e+003;4.485174e-002
1.961333e+003;4.466688e-002
1.963262e+003;4.445478e-002
1.965190e+003;4.422979e-002
1.967119e+003;4.392375e-002
1.969047e+003;4.368571e-002
1.970976e+003;4.357452e-002
1.972905e+003;4.342721e-002
1.974833e+003;4.322560e-002
1.976762e+003;4.314176e-002
1.978690e+003;4.313283e-002
1.980619e+003;4.298377e-002
1.982547e+003;4.276448e-002
1.984476e+003;4.264922e-002
1.986404e+003;4.246583e-002
1.988333e+003;4.225371e-002
1.990261e+003;4.207411e-002
1.992190e+003;4.200132e-002
1.994119e+003;4.196855e-002
1.996047e+003;4.208725e-002
1.997976e+003;4.215373e-002
1.999904e+003;4.218729e-002
2.001833e+003;4.231087e-002
2.003761e+003;4.252017e-002
2.005690e+003;4.271542e-002
2.007618e+003;4.281487e-002
2.009547e+003;4.282803e-002
2.011476e+003;4.299555e-002
2.013404e+003;4.310282e-002
2.015333e+003;4.320924e-002
2.017261e+003;4.355430e-002
2.019190e+003;4.370956e-002
2.021118e+003;4.364559e-002
2.023047e+003;4.355335e-002
2.024975e+003;4.368542e-002
2.026904e+003;4.383732e-002
2.028833e+003;4.382412e-002
2.030761e+003;4.403973e-002
2.032690e+003;4.428171e-002
2.034618e+003;4.446770e-002
2.036547e+003;4.436985e-002
2.038475e+003;4.422425e-002
2.040404e+003;4.420452e-002
2.042332e+003;4.420657e-002
2.044261e+003;4.449056e-002
2.046189e+003;4.458580e-002
2.048118e+003;4.433792e-002
2.050047e+003;4.436453e-002
2.051975e+003;4.455496e-002
2.053904e+003;4.470011e-002
2.055832e+003;4.480593e-002
2.057761e+003;4.501078e-002
2.059689e+003;4.525341e-002
2.061618e+003;4.523370e-002
2.063546e+003;4.496892e-002
2.065475e+003;4.497197e-002
2.067404e+003;4.525021e-002
2.069332e+003;4.522767e-002
2.071260e+003;4.525183e-002
2.073189e+003;4.550405e-002
2.075118e+003;4.566060e-002
2.077046e+003;4.575359e-002
2.078975e+003;4.587848e-002
2.080903e+003;4.600802e-002
2.082832e+003;4.619943e-002
2.084760e+003;4.651836e-002
2.086689e+003;4.693771e-002
2.088617e+003;4.728881e-002
2.090546e+003;4.751889e-002
2.092475e+003;4.765332e-002
2.094403e+003;4.777702e-002
2.096332e+003;4.815986e-002
2.098260e+003;4.845271e-002
2.100189e+003;4.864253e-002
2.102117e+003;4.897703e-002
2.104046e+003;4.921398e-002
2.105974e+003;4.925885e-002
2.107903e+003;4.943466e-002
2.109832e+003;4.964460e-002
2.111760e+003;4.967205e-002
2.113688e+003;4.958513e-002
2.115617e+003;4.973625e-002
2.117546e+003;4.979075e-002
2.119474e+003;4.969419e-002
2.121403e+003;4.968130e-002
2.123331e+003;4.957558e-002
2.125260e+003;4.938595e-002
2.127188e+003;4.933527e-002
2.129117e+003;4.930940e-002
2.131045e+003;4.926082e-002
2.132974e+003;4.918856e-002
2.134903e+003;4.890245e-002
2.136831e+003;4.856423e-002
2.138760e+003;4.851799e-002
2.140688e+003;4.850580e-002
2.142617e+003;4.824531e-002
2.144545e+003;4.780813e-002
2.146474e+003;4.742697e-002
2.148402e+003;4.725792e-002
2.150331e+003;4.708440e-002
2.152260e+003;4.692183e-002
2.154188e+003;4.682697e-002
2.156117e+003;4.661522e-002
2.158045e+003;4.627060e-002
2.159974e+003;4.590931e-002
2.161902e+003;4.567584e-002
2.163831e+003;4.523304e-002
2.165759e+003;4.489722e-002
2.167688e+003;4.463089e-002
2.169616e+003;4.442783e-002
2.171545e+003;4.421732e-002
2.173474e+003;4.381888e-002
2.175402e+003;4.362753e-002
2.177331e+003;4.357679e-002
2.179259e+003;4.336098e-002
2.181188e+003;4.302028e-002
2.183116e+003;4.297488e-002
2.185045e+003;4.301798e-002
2.186973e+003;4.282156e-002
2.188902e+003;4.241611e-002
2.190831e+003;4.198337e-002
2.192759e+003;4.184423e-002
2.194688e+003;4.186619e-002
2.196616e+003;4.189549e-002
2.198545e+003;4.178436e-002
2.200473e+003;4.163656e-002
2.202402e+003;4.156735e-002
2.204330e+003;4.157271e-002
2.206259e+003;4.155970e-002
2.208188e+003;4.164849e-002
2.210116e+003;4.158350e-002
2.212044e+003;4.137976e-002
2.213973e+003;4.120409e-002
2.215902e+003;4.123316e-002
2.217830e+003;4.118729e-002
2.219759e+003;4.108140e-002
2.221687e+003;4.111750e-002
2.223616e+003;4.106800e-002
2.225544e+003;4.099688e-002
2.227473e+003;4.098257e-002
2.229401e+003;4.086060e-002
2.231330e+003;4.070330e-002
2.233259e+003;4.061557e-002
2.235187e+003;4.074722e-002
2.237116e+003;4.081583e-002
2.239044e+003;4.068663e-002
2.240973e+003;4.072025e-002
2.242901e+003;4.077739e-002
2.244830e+003;4.070130e-002
2.246758e+003;4.078660e-002
2.248687e+003;4.075541e-002
2.250615e+003;4.065559e-002
2.252544e+003;4.082209e-002
2.254473e+003;4.096381e-002
2.256401e+003;4.089285e-002
2.258330e+003;4.066338e-002
2.260258e+003;4.068565e-002
2.262187e+003;4.089828e-002
2.264115e+003;4.078685e-002
2.266044e+003;4.048912e-002
2.267972e+003;4.036940e-002
2.269901e+003;4.039508e-002
2.271830e+003;4.027709e-002
2.273758e+003;4.015594e-002
2.275687e+003;3.999013e-002
2.277615e+003;4.003646e-002
2.279544e+003;4.012585e-002
2.281472e+003;3.988192e-002
2.283401e+003;3.952507e-002
2.285329e+003;3.943831e-002
2.287258e+003;3.934895e-002
2.289187e+003;3.901914e-002
2.291115e+003;3.890302e-002
2.293043e+003;3.873294e-002
2.294972e+003;3.848828e-002
2.296901e+003;3.826839e-002
2.298829e+003;3.798738e-002
2.300758e+003;3.783068e-002
2.302686e+003;3.785736e-002
2.304615e+003;3.777784e-002
2.306543e+003;3.762681e-002
2.308472e+003;3.760907e-002
2.310400e+003;3.749238e-002
2.312329e+003;3.729928e-002
2.314258e+003;3.733369e-002
2.316186e+003;3.741411e-002
2.318115e+003;3.729192e-002
2.320043e+003;3.738620e-002
2.321972e+003;3.750373e-002
2.323900e+003;3.750690e-002
2.325829e+003;3.739866e-002
2.327757e+003;3.723257e-002
2.329686e+003;3.699087e-002
2.331615e+003;3.692345e-002
2.333543e+003;3.705239e-002
2.335472e+003;3.725802e-002
2.337400e+003;3.753581e-002
2.339329e+003;3.782935e-002
2.341257e+003;3.808402e-002
2.343186e+003;3.828862e-002
2.345114e+003;3.862171e-002
2.347043e+003;3.876337e-002
2.348971e+003;3.877196e-002
2.350900e+003;3.896252e-002
2.352829e+003;3.904212e-002
2.354757e+003;3.885250e-002
2.356686e+003;3.870944e-002
2.358614e+003;3.879120e-002
2.360543e+003;3.881761e-002
2.362471e+003;3.878417e-002
2.364400e+003;3.877620e-002
2.366328e+003;3.873790e-002
2.368257e+003;3.870704e-002
2.370186e+003;3.885297e-002
2.372114e+003;3.891135e-002
2.374042e+003;3.874338e-002
2.375971e+003;3.870954e-002
2.377900e+003;3.879515e-002
2.379828e+003;3.879283e-002
2.381757e+003;3.877247e-002
2.383685e+003;3.873352e-002
2.385614e+003;3.887950e-002
2.387542e+003;3.918973e-002
2.389471e+003;3.935236e-002
2.391399e+003;3.938008e-002
2.393328e+003;3.935849e-002
2.395257e+003;3.971963e-002
2.397185e+003;3.991367e-002
2.399114e+003;3.988904e-002
2.401042e+003;4.024190e-002
2.402971e+003;4.068616e-002
2.404899e+003;4.088685e-002
2.406828e+003;4.126559e-002
2.408756e+003;4.158001e-002
2.410685e+003;4.158311e-002
2.412614e+003;4.157279e-002
2.414542e+003;4.162398e-002
2.416471e+003;4.173052e-002
2.418399e+003;4.172096e-002
2.420328e+003;4.162715e-002
2.422256e+003;4.147089e-002
2.424185e+003;4.161581e-002
2.426113e+003;4.183284e-002
2.428042e+003;4.178381e-002
2.429970e+003;4.174149e-002
2.431899e+003;4.189213e-002
2.433828e+003;4.200486e-002
2.435756e+003;4.177443e-002
2.437685e+003;4.172869e-002
2.439613e+003;4.172209e-002
2.441542e+003;4.157880e-002
2.443470e+003;4.171691e-002
2.445399e+003;4.191935e-002
2.447327e+003;4.193045e-002
2.449256e+003;4.187126e-002
2.451185e+003;4.183634e-002
2.453113e+003;4.182642e-002
2.455042e+003;4.186725e-002
2.456970e+003;4.186396e-002
2.458899e+003;4.179413e-002
2.460827e+003;4.182215e-002
2.462756e+003;4.176353e-002
2.464684e+003;4.165918e-002
2.466613e+003;4.186072e-002
2.468542e+003;4.190417e-002
2.470470e+003;4.171494e-002
2.472398e+003;4.162701e-002
2.474327e+003;4.153538e-002
2.476256e+003;4.153283e-002
2.478184e+003;4.158883e-002
2.480113e+003;4.150745e-002
2.482041e+003;4.123371e-002
2.483970e+003;4.101490e-002
2.485898e+003;4.101188e-002
2.487827e+003;4.105624e-002
2.489755e+003;4.075381e-002
2.491684e+003;4.053579e-002
2.493613e+003;4.051062e-002
2.495541e+003;4.046810e-002
2.497470e+003;4.027015e-002
2.499398e+003;4.003370e-002
2.501327e+003;3.984651e-002
2.503255e+003;3.969781e-002
2.505184e+003;3.981125e-002
2.507112e+003;3.983460e-002
2.509041e+003;3.970555e-002
2.510969e+003;3.979897e-002
2.512898e+003;3.975838e-002
2.514827e+003;3.958343e-002
2.516755e+003;3.940547e-002
2.518684e+003;3.929827e-002
2.520612e+003;3.928112e-002
2.522541e+003;3.920793e-002
2.524469e+003;3.913040e-002
2.526398e+003;3.882848e-002
2.528326e+003;3.860397e-002
2.530255e+003;3.885797e-002
2.532184e+003;3.913367e-002
2.534112e+003;3.920539e-002
2.536041e+003;3.906279e-002
2.537969e+003;3.886732e-002
2.539898e+003;3.866919e-002
2.541826e+003;3.858322e-002
2.543755e+003;3.873504e-002
2.545683e+003;3.888171e-002
2.547612e+003;3.893987e-002
2.549541e+003;3.900479e-002
2.551469e+003;3.893368e-002
2.553397e+003;3.872073e-002
2.555326e+003;3.867962e-002
2.557255e+003;3.891327e-002
2.559183e+003;3.905343e-002
2.561112e+003;3.897133e-002
2.563040e+003;3.899156e-002
2.564969e+003;3.935446e-002
2.566897e+003;3.978826e-002
2.568826e+003;3.988737e-002
2.570754e+003;4.006487e-002
2.572683e+003;4.044417e-002
2.574612e+003;4.046890e-002
2.576540e+003;4.054739e-002
2.578469e+003;4.084724e-002
2.580397e+003;4.108129e-002
2.582326e+003;4.121352e-002
2.584254e+003;4.122074e-002
2.586183e+003;4.126945e-002
2.588111e+003;4.149017e-002
2.590040e+003;4.168102e-002
2.591969e+003;4.168139e-002
2.593897e+003;4.179924e-002
2.595826e+003;4.197428e-002
2.597754e+003;4.186615e-002
2.599683e+003;4.186302e-002
2.601611e+003;4.200848e-002
2.603540e+003;4.203421e-002
2.605468e+003;4.218780e-002
2.607397e+003;4.244661e-002
2.609325e+003;4.245454e-002
2.611254e+003;4.242298e-002
2.613183e+003;4.252700e-002
2.615111e+003;4.280642e-002
2.617040e+003;4.308983e-002
2.618968e+003;4.320884e-002
2.620897e+003;4.307564e-002
2.622825e+003;4.298490e-002
2.624754e+003;4.324537e-002
2.626682e+003;4.335735e-002
2.628611e+003;4.334198e-002
2.630540e+003;4.342081e-002
2.632468e+003;4.356360e-002
2.634396e+003;4.357162e-002
2.636325e+003;4.366365e-002
2.638254e+003;4.362441e-002
2.640182e+003;4.351954e-002
2.642111e+003;4.375156e-002
2.644039e+003;4.405458e-002
2.645968e+003;4.412961e-002
2.647896e+003;4.413955e-002
2.649825e+003;4.392097e-002
2.651753e+003;4.369040e-002
2.653682e+003;4.388288e-002
2.655611e+003;4.397405e-002
2.657539e+003;4.381086e-002
2.659468e+003;4.385931e-002
2.661396e+003;4.378054e-002
2.663325e+003;4.360371e-002
2.665253e+003;4.374507e-002
2.667182e+003;4.391048e-002
2.669110e+003;4.383669e-002
2.671039e+003;4.370843e-002
2.672968e+003;4.356133e-002
2.674896e+003;4.361577e-002
2.676825e+003;4.380572e-002
2.678753e+003;4.387591e-002
2.680682e+003;4.379847e-002
2.682610e+003;4.380811e-002
2.684539e+003;4.398828e-002
2.686467e+003;4.401219e-002
2.688396e+003;4.410075e-002
2.690324e+003;4.430104e-002
2.692253e+003;4.422642e-002
2.694182e+003;4.433146e-002
2.696110e+003;4.464396e-002
2.698039e+003;4.468953e-002
2.699967e+003;4.454104e-002
2.701896e+003;4.464792e-002
2.703824e+003;4.487742e-002
2.705753e+003;4.527595e-002
2.707681e+003;4.567109e-002
2.709610e+003;4.591189e-002
2.711539e+003;4.607636e-002
2.713467e+003;4.641061e-002
2.715396e+003;4.678782e-002
2.717324e+003;4.701276e-002
2.719253e+003;4.724067e-002
2.721181e+003;4.748160e-002
2.723110e+003;4.763246e-002
2.725038e+003;4.749339e-002
2.726967e+003;4.752436e-002
2.728896e+003;4.766489e-002
2.730824e+003;4.750248e-002
2.732752e+003;4.761180e-002
2.734681e+003;4.785604e-002
2.736610e+003;4.770609e-002
2.738538e+003;4.735613e-002
2.740467e+003;4.740698e-002
2.742395e+003;4.765365e-002
2.744324e+003;4.765727e-002
2.746252e+003;4.772635e-002
2.748181e+003;4.773956e-002
2.750109e+003;4.737719e-002
2.752038e+003;4.713093e-002
2.753967e+003;4.733828e-002
2.755895e+003;4.736961e-002
2.757824e+003;4.716679e-002
2.759752e+003;4.729904e-002
2.761681e+003;4.758976e-002
2.763609e+003;4.760455e-002
2.765538e+003;4.740705e-002
2.767466e+003;4.751157e-002
2.769395e+003;4.761287e-002
2.771323e+003;4.765572e-002
2.773252e+003;4.784024e-002
2.775181e+003;4.793661e-002
2.777109e+003;4.802084e-002
2.779038e+003;4.803253e-002
2.780966e+003;4.820777e-002
2.782895e+003;4.879562e-002
2.784823e+003;4.904810e-002
2.786752e+003;4.872864e-002
2.788680e+003;4.889440e-002
2.790609e+003;4.944461e-002
2.792538e+003;4.980380e-002
2.794466e+003;5.001596e-002
2.796395e+003;5.001875e-002
2.798323e+003;5.017046e-002
2.800252e+003;5.033574e-002
2.802180e+003;5.028588e-002
2.804109e+003;5.035706e-002
2.806037e+003;5.073816e-002
2.807966e+003;5.124790e-002
2.809895e+003;5.111713e-002
2.811823e+003;5.093673e-002
2.813751e+003;5.122628e-002
2.815680e+003;5.165400e-002
2.817609e+003;5.185348e-002
2.819537e+003;5.203912e-002
2.821466e+003;5.228070e-002
2.823394e+003;5.255088e-002
2.825323e+003;5.266854e-002
2.827251e+003;5.289989e-002
2.829180e+003;5.332477e-002
2.831108e+003;5.379409e-002
2.833037e+003;5.424958e-002
2.834966e+003;5.453661e-002
2.836894e+003;5.475952e-002
2.838823e+003;5.527469e-002
2.840751e+003;5.568457e-002
2.842680e+003;5.596875e-002
2.844608e+003;5.626567e-002
2.846537e+003;5.637809e-002
2.848465e+003;5.634439e-002
2.850394e+003;5.646713e-002
2.852323e+003;5.716231e-002
2.854251e+003;5.826119e-002
2.856180e+003;5.963627e-002
2.858108e+003;6.095543e-002
2.860037e+003;6.201264e-002
2.861965e+003;6.354056e-002
2.863894e+003;6.495183e-002
2.865822e+003;6.561449e-002
2.867751e+003;6.625979e-002
2.869679e+003;6.692579e-002
2.871608e+003;6.712990e-002
2.873536e+003;6.738529e-002
2.875465e+003;6.788138e-002
2.877394e+003;6.827054e-002
2.879322e+003;6.857172e-002
2.881251e+003;6.862931e-002
2.883179e+003;6.874909e-002
2.885108e+003;6.887273e-002
2.887036e+003;6.887305e-002
2.888965e+003;6.878678e-002
2.890893e+003;6.856773e-002
2.892822e+003;6.835756e-002
2.894750e+003;6.776936e-002
2.896679e+003;6.724845e-002
2.898608e+003;6.701425e-002
2.900536e+003;6.656244e-002
2.902465e+003;6.631525e-002
2.904393e+003;6.609814e-002
2.906322e+003;6.581832e-002
2.908250e+003;6.531419e-002
2.910179e+003;6.464188e-002
2.912107e+003;6.394830e-002
2.914036e+003;6.298412e-002
2.915965e+003;6.182235e-002
2.917893e+003;6.105850e-002
2.919822e+003;6.077890e-002
2.921750e+003;6.045550e-002
2.923679e+003;6.089085e-002
2.925607e+003;6.180183e-002
2.927536e+003;6.250871e-002
2.929464e+003;6.314281e-002
2.931393e+003;6.373237e-002
2.933322e+003;6.461304e-002
2.935250e+003;6.595992e-002
2.937178e+003;6.711265e-002
2.939107e+003;6.813144e-002
2.941036e+003;6.891087e-002
2.942964e+003;6.926830e-002
2.944893e+003;6.960141e-002
2.946821e+003;6.990784e-002
2.948750e+003;6.992092e-002
2.950678e+003;6.962265e-002
2.952607e+003;6.894143e-002
2.954535e+003;6.830086e-002
2.956464e+003;6.796119e-002
2.958393e+003;6.779027e-002
2.960321e+003;6.773257e-002
2.962250e+003;6.740696e-002
2.964178e+003;6.674845e-002
2.966107e+003;6.607175e-002
2.968035e+003;6.569982e-002
2.969964e+003;6.539796e-002
2.971892e+003;6.490739e-002
2.973821e+003;6.448291e-002
2.975750e+003;6.413507e-002
2.977678e+003;6.403300e-002
2.979607e+003;6.394178e-002
2.981535e+003;6.334607e-002
2.983464e+003;6.282239e-002
2.985392e+003;6.293540e-002
2.987321e+003;6.301166e-002
2.989249e+003;6.282189e-002
2.991178e+003;6.263442e-002
2.993106e+003;6.241287e-002
2.995035e+003;6.198722e-002
2.996964e+003;6.127623e-002
2.998892e+003;6.112524e-002
3.000821e+003;6.116625e-002
3.002749e+003;6.073054e-002
3.004678e+003;6.035345e-002
3.006606e+003;6.015353e-002
3.008535e+003;5.991939e-002
3.010463e+003;5.948368e-002
3.012392e+003;5.916682e-002
3.014321e+003;5.932374e-002
3.016249e+003;5.936146e-002
3.018177e+003;5.921049e-002
3.020106e+003;5.896927e-002
3.022035e+003;5.858433e-002
3.023963e+003;5.839319e-002
3.025892e+003;5.837833e-002
3.027820e+003;5.828666e-002
3.029749e+003;5.808401e-002
3.031677e+003;5.758620e-002
3.033606e+003;5.728773e-002
3.035534e+003;5.721250e-002
3.037463e+003;5.675355e-002
3.039392e+003;5.598402e-002
3.041320e+003;5.516877e-002
3.043249e+003;5.465786e-002
3.045177e+003;5.430522e-002
3.047106e+003;5.408217e-002
3.049034e+003;5.393831e-002
3.050963e+003;5.354754e-002
3.052891e+003;5.303595e-002
3.054820e+003;5.286269e-002
3.056749e+003;5.235571e-002
3.058677e+003;5.191049e-002
3.060606e+003;5.168442e-002
3.062534e+003;5.137763e-002
3.064463e+003;5.103551e-002
3.066391e+003;5.051377e-002
3.068320e+003;5.039352e-002
3.070248e+003;5.043539e-002
3.072177e+003;5.051377e-002
3.074105e+003;5.028551e-002
3.076034e+003;4.984092e-002
3.077963e+003;4.955898e-002
3.079891e+003;4.941442e-002
3.081820e+003;4.948935e-002
3.083748e+003;4.931349e-002
3.085677e+003;4.930447e-002
3.087605e+003;4.929649e-002
3.089534e+003;4.895581e-002
3.091462e+003;4.888476e-002
3.093391e+003;4.868738e-002
3.095320e+003;4.848279e-002
3.097248e+003;4.845079e-002
3.099177e+003;4.830008e-002
3.101105e+003;4.842138e-002
3.103034e+003;4.877546e-002
3.104962e+003;4.868808e-002
3.106891e+003;4.858246e-002
3.108819e+003;4.847105e-002
3.110748e+003;4.852714e-002
3.112677e+003;4.840004e-002
3.114605e+003;4.817919e-002
3.116533e+003;4.810245e-002
3.118462e+003;4.807357e-002
3.120391e+003;4.816664e-002
3.122319e+003;4.808279e-002
3.124248e+003;4.765469e-002
3.126176e+003;4.718973e-002
3.128105e+003;4.737649e-002
3.130033e+003;4.754126e-002
3.131962e+003;4.734962e-002
3.133890e+003;4.716779e-002
3.135819e+003;4.699807e-002
3.137748e+003;4.687669e-002
3.139676e+003;4.700169e-002
3.141605e+003;4.712030e-002
3.143533e+003;4.697743e-002
3.145462e+003;4.674741e-002
3.147390e+003;4.674468e-002
3.149319e+003;4.696281e-002
3.151247e+003;4.686492e-002
3.153176e+003;4.668373e-002
3.155104e+003;4.670605e-002
3.157033e+003;4.679859e-002
3.158962e+003;4.679029e-002
3.160890e+003;4.672690e-002
3.162819e+003;4.676553e-002
3.164747e+003;4.682904e-002
3.166676e+003;4.693741e-002
3.168604e+003;4.696613e-002
3.170533e+003;4.689297e-002
3.172461e+003;4.663518e-002
3.174390e+003;4.655200e-002
3.176319e+003;4.641953e-002
3.178247e+003;4.655395e-002
3.180176e+003;4.659921e-002
3.182104e+003;4.664942e-002
3.184033e+003;4.674044e-002
3.185961e+003;4.687208e-002
3.187890e+003;4.712554e-002
3.189818e+003;4.720598e-002
3.191747e+003;4.707945e-002
3.193676e+003;4.703709e-002
3.195604e+003;4.710611e-002
3.197532e+003;4.694620e-002
3.199461e+003;4.675704e-002
3.201390e+003;4.690652e-002
3.203318e+003;4.739762e-002
3.205247e+003;4.736075e-002
3.207175e+003;4.715841e-002
3.209104e+003;4.714478e-002
3.211032e+003;4.710700e-002
3.212961e+003;4.738322e-002
3.214889e+003;4.795456e-002
3.216818e+003;4.799889e-002
3.218747e+003;4.799393e-002
3.220675e+003;4.828278e-002
3.222604e+003;4.853778e-002
3.224532e+003;4.848713e-002
3.226461e+003;4.831315e-002
3.228389e+003;4.829497e-002
3.230318e+003;4.826149e-002
3.232246e+003;4.851425e-002
3.234175e+003;4.847253e-002
3.236104e+003;4.851380e-002
3.238032e+003;4.912664e-002
3.239961e+003;4.927748e-002
3.241889e+003;4.916804e-002
3.243818e+003;4.901801e-002
3.245746e+003;4.896067e-002
3.247675e+003;4.966176e-002
3.249603e+003;5.001630e-002
3.251532e+003;5.000890e-002
3.253460e+003;5.006690e-002
3.255389e+003;5.029429e-002
3.257318e+003;5.028187e-002
3.259246e+003;4.992700e-002
3.261175e+003;5.005440e-002
3.263103e+003;5.030869e-002
3.265032e+003;5.058717e-002
3.266960e+003;5.126084e-002
3.268889e+003;5.139180e-002
3.270817e+003;5.083525e-002
3.272746e+003;5.063434e-002
3.274675e+003;5.095741e-002
3.276603e+003;5.110773e-002
3.278531e+003;5.178453e-002
3.280460e+003;5.234592e-002
3.282389e+003;5.216090e-002
3.284317e+003;5.221799e-002
3.286246e+003;5.251898e-002
3.288174e+003;5.273281e-002
3.290103e+003;5.243153e-002
3.292031e+003;5.243407e-002
3.293960e+003;5.278070e-002
3.295888e+003;5.296629e-002
3.297817e+003;5.296052e-002
3.299746e+003;5.286433e-002
3.301674e+003;5.304748e-002
3.303603e+003;5.338842e-002
3.305531e+003;5.370353e-002
3.307460e+003;5.372202e-002
3.309388e+003;5.390872e-002
3.311317e+003;5.440436e-002
3.313245e+003;5.473498e-002
3.315174e+003;5.508732e-002
3.317103e+003;5.525554e-002
3.319031e+003;5.492324e-002
3.320960e+003;5.475666e-002
3.322888e+003;5.505182e-002
3.324817e+003;5.539016e-002
3.326745e+003;5.558492e-002
3.328674e+003;5.561053e-002
3.330602e+003;5.591361e-002
3.332531e+003;5.645339e-002
3.334459e+003;5.639302e-002
3.336388e+003;5.620058e-002
3.338317e+003;5.635654e-002
3.340245e+003;5.669915e-002
3.342174e+003;5.715150e-002
3.344102e+003;5.758945e-002
3.346031e+003;5.769956e-002
3.347959e+003;5.750766e-002
3.349888e+003;5.746685e-002
3.351816e+003;5.772756e-002
3.353745e+003;5.809185e-002
3.355674e+003;5.818030e-002
3.357602e+003;5.807386e-002
3.359531e+003;5.816125e-002
3.361459e+003;5.823929e-002
3.363388e+003;5.849857e-002
3.365316e+003;5.854729e-002
3.367245e+003;5.845039e-002
3.369173e+003;5.897872e-002
3.371102e+003;5.928785e-002
3.373031e+003;5.937286e-002
3.374959e+003;5.987797e-002
3.376887e+003;6.019280e-002
3.378816e+003;6.015535e-002
3.380745e+003;6.006997e-002
3.382673e+003;5.989193e-002
3.384602e+003;5.966410e-002
3.386530e+003;5.986542e-002
3.388459e+003;6.049320e-002
3.390387e+003;6.071252e-002
3.392316e+003;6.091437e-002
3.394244e+003;6.153466e-002
3.396173e+003;6.159815e-002
3.398102e+003;6.131596e-002
3.400030e+003;6.162519e-002
3.401959e+003;6.202777e-002
3.403887e+003;6.193437e-002
3.405816e+003;6.231338e-002
3.407744e+003;6.251686e-002
3.409673e+003;6.239734e-002
3.411601e+003;6.267243e-002
3.413530e+003;6.278548e-002
3.415458e+003;6.263454e-002
3.417387e+003;6.275833e-002
3.419316e+003;6.297887e-002
3.421244e+003;6.323701e-002
3.423173e+003;6.375785e-002
3.425101e+003;6.416807e-002
3.427030e+003;6.409782e-002
3.428958e+003;6.430275e-002
3.430887e+003;6.471233e-002
3.432815e+003;6.509727e-002
3.434744e+003;6.529582e-002
3.436673e+003;6.506044e-002
3.438601e+003;6.511309e-002
3.440530e+003;6.558451e-002
3.442458e+003;6.603093e-002
3.444387e+003;6.586379e-002
3.446315e+003;6.570055e-002
3.448244e+003;6.583564e-002
3.450172e+003;6.612137e-002
3.452101e+003;6.658804e-002
3.454030e+003;6.691184e-002
3.455958e+003;6.723816e-002
3.457886e+003;6.754138e-002
3.459815e+003;6.764095e-002
3.461744e+003;6.751150e-002
3.463672e+003;6.747968e-002
3.465601e+003;6.797576e-002
3.467529e+003;6.836667e-002
3.469458e+003;6.865823e-002
3.471386e+003;6.887802e-002
3.473315e+003;6.870472e-002
3.475243e+003;6.867065e-002
3.477172e+003;6.895397e-002
3.479101e+003;6.882016e-002
3.481029e+003;6.858554e-002
3.482958e+003;6.873992e-002
3.484886e+003;6.925762e-002
3.486815e+003;6.949085e-002
3.488743e+003;6.935964e-002
3.490672e+003;6.922936e-002
3.492600e+003;6.893385e-002
3.494529e+003;6.875293e-002
3.496458e+003;6.898640e-002
3.498386e+003;6.911614e-002
3.500315e+003;6.895265e-002
3.502243e+003;6.857747e-002
3.504172e+003;6.827674e-002
3.506100e+003;6.845262e-002
3.508029e+003;6.868337e-002
3.509957e+003;6.816950e-002
3.511886e+003;6.793442e-002
3.513814e+003;6.807470e-002
3.515743e+003;6.783257e-002
3.517672e+003;6.724969e-002
3.519600e+003;6.711795e-002
3.521529e+003;6.762055e-002
3.523457e+003;6.793302e-002
3.525386e+003;6.775413e-002
3.527314e+003;6.726922e-002
3.529243e+003;6.677561e-002
3.531171e+003;6.641149e-002
3.533100e+003;6.620321e-002
3.535029e+003;6.603487e-002
3.536957e+003;6.590890e-002
3.538885e+003;6.571142e-002
3.540814e+003;6.558944e-002
3.542743e+003;6.542697e-002
3.544671e+003;6.503869e-002
3.546600e+003;6.459624e-002
3.548528e+003;6.413096e-002
3.550457e+003;6.376503e-002
3.552385e+003;6.347221e-002
3.554314e+003;6.306059e-002
3.556242e+003;6.293548e-002
3.558171e+003;6.273995e-002
3.560100e+003;6.208060e-002
3.562028e+003;6.181020e-002
3.563957e+003;6.183985e-002
3.565885e+003;6.115969e-002
3.567814e+003;6.067419e-002
3.569742e+003;6.092024e-002
3.571671e+003;6.084888e-002
3.573599e+003;6.023585e-002
3.575528e+003;5.977465e-002
3.577457e+003;5.937977e-002
3.579385e+003;5.880015e-002
3.581314e+003;5.831860e-002
3.583242e+003;5.840695e-002
3.585171e+003;5.790142e-002
3.587099e+003;5.679396e-002
3.589028e+003;5.642755e-002
3.590956e+003;5.650977e-002
3.592885e+003;5.610778e-002
3.594813e+003;5.557991e-002
3.596742e+003;5.526314e-002
3.598671e+003;5.500496e-002
3.600599e+003;5.495246e-002
3.602528e+003;5.440774e-002
3.604456e+003;5.389386e-002
3.606385e+003;5.363586e-002
3.608313e+003;5.299275e-002
3.610242e+003;5.256576e-002
3.612170e+003;5.238342e-002
3.614099e+003;5.226261e-002
3.616028e+003;5.176855e-002
3.617956e+003;5.096102e-002
3.619885e+003;5.067820e-002
3.621813e+003;5.048269e-002
3.623742e+003;5.025017e-002
3.625670e+003;5.005939e-002
3.627599e+003;4.917160e-002
3.629527e+003;4.837715e-002
3.631456e+003;4.849965e-002
3.633385e+003;4.843104e-002
3.635313e+003;4.807376e-002
3.637241e+003;4.754772e-002
3.639170e+003;4.689736e-002
3.641099e+003;4.658055e-002
3.643027e+003;4.672737e-002
3.644956e+003;4.605856e-002
3.646884e+003;4.490630e-002
3.648813e+003;4.417121e-002
3.650741e+003;4.383207e-002
3.652670e+003;4.373774e-002
3.654598e+003;4.301501e-002
3.656527e+003;4.207013e-002
3.658456e+003;4.162315e-002
3.660384e+003;4.093836e-002
3.662313e+003;4.026386e-002
3.664241e+003;3.966964e-002
3.666170e+003;3.908806e-002
3.668098e+003;3.811734e-002
3.670027e+003;3.670637e-002
3.671955e+003;3.612834e-002
3.673884e+003;3.546708e-002
3.675813e+003;3.449013e-002
3.677741e+003;3.431335e-002
3.679669e+003;3.375107e-002
3.681598e+003;3.331431e-002
3.683527e+003;3.307762e-002
3.685455e+003;3.243191e-002
3.687384e+003;3.166476e-002
3.689312e+003;3.152792e-002
3.691241e+003;3.173005e-002
3.693169e+003;3.158924e-002
3.695098e+003;3.146967e-002
3.697026e+003;3.137777e-002
3.698955e+003;3.128275e-002
3.700884e+003;3.068039e-002
3.702812e+003;3.005769e-002
3.704741e+003;3.024919e-002
3.706669e+003;3.060053e-002
3.708598e+003;3.028802e-002
3.710526e+003;2.973961e-002
3.712455e+003;2.961722e-002
3.714383e+003;2.982262e-002
3.716312e+003;2.939805e-002
3.718240e+003;2.898733e-002
3.720169e+003;2.927494e-002
3.722098e+003;2.953993e-002
3.724026e+003;2.909899e-002
3.725955e+003;2.892000e-002
3.727883e+003;2.927770e-002
3.729812e+003;2.906218e-002
3.731740e+003;2.853977e-002
3.733669e+003;2.857621e-002
3.735597e+003;2.871945e-002
3.737526e+003;2.883547e-002
3.739455e+003;2.858701e-002
3.741383e+003;2.804919e-002
3.743312e+003;2.706881e-002
3.745240e+003;2.722788e-002
3.747169e+003;2.741991e-002
3.749097e+003;2.686037e-002
3.751026e+003;2.697487e-002
3.752954e+003;2.752545e-002
3.754883e+003;2.814841e-002
3.756812e+003;2.812752e-002
3.758740e+003;2.799282e-002
3.760668e+003;2.819335e-002
3.762597e+003;2.819649e-002
3.764526e+003;2.818967e-002
3.766454e+003;2.855364e-002
3.768383e+003;2.825226e-002
3.770311e+003;2.760033e-002
3.772240e+003;2.801872e-002
3.774168e+003;2.872982e-002
3.776097e+003;2.882963e-002
3.778025e+003;2.850665e-002
3.779954e+003;2.844119e-002
3.781883e+003;2.867892e-002
3.783811e+003;2.862247e-002
3.785740e+003;2.847024e-002
3.787668e+003;2.817864e-002
3.789597e+003;2.800342e-002
3.791525e+003;2.840012e-002
3.793454e+003;2.868929e-002
3.795382e+003;2.856652e-002
3.797311e+003;2.864048e-002
3.799240e+003;2.817125e-002
3.801168e+003;2.732876e-002
3.803097e+003;2.778697e-002
3.805025e+003;2.821053e-002
3.806954e+003;2.807273e-002
3.808882e+003;2.859065e-002
3.810811e+003;2.901496e-002
3.812739e+003;2.893204e-002
3.814668e+003;2.809560e-002
3.816596e+003;2.795267e-002
3.818525e+003;2.837154e-002
3.820454e+003;2.824462e-002
3.822382e+003;2.848241e-002
3.824311e+003;2.876076e-002
3.826239e+003;2.871917e-002
3.828168e+003;2.866522e-002
3.830096e+003;2.877581e-002
3.832025e+003;2.886234e-002
3.833953e+003;2.857724e-002
3.835882e+003;2.805838e-002
3.837811e+003;2.776479e-002
3.839739e+003;2.818235e-002
3.841667e+003;2.835825e-002
3.843596e+003;2.821778e-002
3.845525e+003;2.846267e-002
3.847453e+003;2.854108e-002
3.849382e+003;2.839790e-002
3.851310e+003;2.764676e-002
3.853239e+003;2.690063e-002
3.855167e+003;2.772103e-002
3.857096e+003;2.843111e-002
3.859024e+003;2.825409e-002
3.860953e+003;2.844130e-002
3.862882e+003;2.872610e-002
3.864810e+003;2.891755e-002
3.866739e+003;2.893735e-002
3.868667e+003;2.870253e-002
3.870596e+003;2.912273e-002
3.872524e+003;2.932070e-002
3.874453e+003;2.885445e-002
3.876381e+003;2.891716e-002
3.878310e+003;2.927143e-002
3.880239e+003;2.906023e-002
3.882167e+003;2.894359e-002
3.884096e+003;2.901917e-002
3.886024e+003;2.947120e-002
3.887953e+003;2.980952e-002
3.889881e+003;2.933311e-002
3.891810e+003;2.918938e-002
3.893738e+003;2.953642e-002
3.895667e+003;2.980902e-002
3.897595e+003;2.983447e-002
3.899524e+003;2.958661e-002
3.901453e+003;2.982418e-002
3.903381e+003;3.011738e-002
3.905310e+003;3.033151e-002
3.907238e+003;3.058240e-002
3.909167e+003;3.095026e-002
3.911095e+003;3.109165e-002
3.913024e+003;3.118626e-002
3.914952e+003;3.091258e-002
3.916881e+003;3.065468e-002
3.918810e+003;3.078341e-002
3.920738e+003;3.074020e-002
3.922667e+003;3.076488e-002
3.924595e+003;3.109097e-002
3.926524e+003;3.137282e-002
3.928452e+003;3.171159e-002
3.930381e+003;3.220094e-002
3.932309e+003;3.262393e-002
3.934238e+003;3.257367e-002
3.936167e+003;3.242445e-002
3.938095e+003;3.263811e-002
3.940023e+003;3.281210e-002
3.941952e+003;3.276064e-002
3.943881e+003;3.264061e-002
3.945809e+003;3.270594e-002
3.947738e+003;3.279473e-002
3.949666e+003;3.303678e-002
3.951595e+003;3.293218e-002
3.953523e+003;3.273435e-002
3.955452e+003;3.301891e-002
3.957380e+003;3.348707e-002
3.959309e+003;3.364422e-002
3.961238e+003;3.371419e-002
3.963166e+003;3.362467e-002
3.965095e+003;3.409185e-002
3.967023e+003;3.475532e-002
3.968952e+003;3.516791e-002
3.970880e+003;3.478386e-002
3.972809e+003;3.455034e-002
3.974737e+003;3.501621e-002
3.976666e+003;3.513679e-002
3.978594e+003;3.511836e-002
3.980523e+003;3.523661e-002
3.982452e+003;3.483699e-002
3.984380e+003;3.487996e-002
3.986309e+003;3.526809e-002
3.988237e+003;3.526076e-002
3.990166e+003;3.473866e-002
3.992094e+003;3.451220e-002
3.994023e+003;3.467991e-002
3.995951e+003;3.472305e-002
3.997880e+003;3.489364e-002
3.999809e+003;3.535276e-002
4.001737e+003;0.000000e+000
