3.992094e+002;0.000000e+000
4.011380e+002;0.000000e+000
4.030665e+002;0.000000e+000
4.049951e+002;0.000000e+000
4.069236e+002;0.000000e+000
4.088522e+002;0.000000e+000
4.107807e+002;0.000000e+000
4.127093e+002;0.000000e+000
4.146378e+002;0.000000e+000
4.165664e+002;0.000000e+000
4.184949e+002;0.000000e+000
4.204235e+002;0.000000e+000
4.223520e+002;0.000000e+000
4.242806e+002;0.000000e+000
4.262091e+002;0.000000e+000
4.281377e+002;0.000000e+000
4.300662e+002;0.000000e+000
4.319948e+002;0.000000e+000
4.339233e+002;0.000000e+000
4.358519e+002;0.000000e+000
4.377804e+002;0.000000e+000
4.397090e+002;0.000000e+000
4.416375e+002;0.000000e+000
4.435660e+002;0.000000e+000
4.454946e+002;0.000000e+000
4.474232e+002;0.000000e+000
4.493517e+002;0.000000e+000
4.512802e+002;0.000000e+000
4.532088e+002;0.000000e+000
4.551373e+002;0.000000e+000
4.570659e+002;0.000000e+000
4.589944e+002;0.000000e+000
4.609230e+002;0.000000e+000
4.628515e+002;0.000000e+000
4.647801e+002;0.000000e+000
4.667086e+002;0.000000e+000
4.686372e+002;0.000000e+000
4.705657e+002;0.000000e+000
4.724943e+002;0.000000e+000
4.744228e+002;0.000000e+000
4.763513e+002;0.000000e+000
4.782799e+002;0.000000e+000
4.802085e+002;0.000000e+000
4.821370e+002;0.000000e+000
4.840656e+002;0.000000e+000
4.859941e+002;0.000000e+000
4.879226e+002;0.000000e+000
4.898512e+002;0.000000e+000
4.917798e+002;0.000000e+000
4.937083e+002;0.000000e+000
4.956368e+002;0.000000e+000
4.975654e+002;0.000000e+000
4.994939e+002;0.000000e+000
5.014225e+002;0.000000e+000
5.033510e+002;0.000000e+000
5.052796e+002;0.000000e+000
5.072081e+002;0.000000e+000
5.091367e+002;0.000000e+000
5.110652e+002;0.000000e+000
5.129938e+002;0.000000e+000
5.149223e+002;0.000000e+000
5.168509e+002;0.000000e+000
5.187794e+002;0.000000e+000
5.207079e+002;0.000000e+000
5.226365e+002;0.000000e+000
5.245651e+002;0.000000e+000
5.264936e+002;0.000000e+000
5.284222e+002;0.000000e+000
5.303507e+002;0.000000e+000
5.322792e+002;0.000000e+000
5.342078e+002;0.000000e+000
5.361364e+002;0.000000e+000
5.380649e+002;0.000000e+000
5.399935e+002;0.000000e+000
5.419220e+002;0.000000e+000
5.438505e+002;0.000000e+000
5.457791e+002;0.000000e+000
5.477076e+002;0.000000e+000
5.496362e+002;0.000000e+000
5.515648e+002;0.000000e+000
5.534933e+002;0.000000e+000
5.554218e+002;0.000000e+000
5.573504e+002;0.000000e+000
5.592789e+002;0.000000e+000
5.612075e+002;0.000000e+000
5.631360e+002;0.000000e+000
5.650646e+002;0.000000e+000
5.669931e+002;0.000000e+000
5.689217e+002;0.000000e+000
5.708502e+002;0.000000e+000
5.727787e+002;0.000000e+000
5.747073e+002;0.000000e+000
5.766359e+002;0.000000e+000
5.785644e+002;0.000000e+000
5.804930e+002;0.000000e+000
5.824215e+002;0.000000e+000
5.843500e+002;0.000000e+000
5.862786e+002;0.000000e+000
5.882072e+002;0.000000e+000
5.901357e+002;0.000000e+000
5.920643e+002;0.000000e+000
5.939928e+002;0.000000e+000
5.959213e+002;0.000000e+000
5.978499e+002;0.000000e+000
5.997784e+002;1.809257e-001
6.017070e+002;1.853141e-001
6.036355e+002;1.830163e-001
6.055641e+002;1.782323e-001
6.074926e+002;1.680561e-001
6.094211e+002;1.582672e-001
6.113497e+002;1.534815e-001
6.132783e+002;1.531882e-001
6.152068e+002;1.513177e-001
6.171354e+002;1.475282e-001
6.190639e+002;1.443921e-001
6.209924e+002;1.419896e-001
6.229210e+002;1.390895e-001
6.248495e+002;1.359999e-001
6.267781e+002;1.353204e-001
6.287067e+002;1.352679e-001
6.306352e+002;1.288134e-001
6.325637e+002;1.243775e-001
6.344923e+002;1.260402e-001
6.364208e+002;1.259091e-001
6.383494e+002;1.250276e-001
6.402780e+002;1.264945e-001
6.422065e+002;1.281471e-001
6.441350e+002;1.233685e-001
6.460636e+002;1.182082e-001
6.479921e+002;1.173873e-001
6.499207e+002;1.146122e-001
6.518492e+002;1.115077e-001
6.537778e+002;1.138345e-001
6.557063e+002;1.169495e-001
6.576349e+002;1.143178e-001
6.595634e+002;1.117430e-001
6.614919e+002;1.108832e-001
6.634205e+002;1.092131e-001
6.653491e+002;1.080302e-001
6.672776e+002;1.064092e-001
6.692062e+002;1.059949e-001
6.711347e+002;1.058908e-001
6.730632e+002;1.052677e-001
6.749918e+002;1.064184e-001
6.769203e+002;1.082935e-001
6.788489e+002;1.093863e-001
6.807775e+002;1.093649e-001
6.827060e+002;1.095643e-001
6.846345e+002;1.088747e-001
6.865631e+002;1.070168e-001
6.884916e+002;1.057655e-001
6.904202e+002;1.056080e-001
6.923488e+002;1.054926e-001
6.942773e+002;1.044196e-001
6.962058e+002;1.029663e-001
6.981344e+002;1.009472e-001
7.000629e+002;9.944657e-002
7.019915e+002;9.823462e-002
7.039200e+002;9.709851e-002
7.058486e+002;9.649099e-002
7.077771e+002;9.587076e-002
7.097057e+002;9.470521e-002
7.116342e+002;9.425101e-002
7.135627e+002;9.452751e-002
7.154913e+002;9.457666e-002
7.174199e+002;9.287495e-002
7.193484e+002;9.152206e-002
7.212770e+002;9.052936e-002
7.232055e+002;8.923221e-002
7.251340e+002;8.789413e-002
7.270626e+002;8.752290e-002
7.289911e+002;8.774836e-002
7.309197e+002;8.613055e-002
7.328483e+002;8.310152e-002
7.347768e+002;8.023597e-002
7.367053e+002;7.836460e-002
7.386339e+002;7.691083e-002
7.405624e+002;7.611547e-002
7.424910e+002;7.599203e-002
7.444196e+002;7.569929e-002
7.463481e+002;7.472826e-002
7.482766e+002;7.312635e-002
7.502052e+002;7.270548e-002
7.521337e+002;7.283127e-002
7.540623e+002;7.298059e-002
7.559908e+002;7.352903e-002
7.579194e+002;7.387701e-002
7.598479e+002;7.323502e-002
7.617765e+002;7.186796e-002
7.637050e+002;7.140674e-002
7.656335e+002;7.165232e-002
7.675621e+002;7.175322e-002
7.694907e+002;7.159194e-002
7.714192e+002;7.148822e-002
7.733478e+002;7.116611e-002
7.752763e+002;7.092214e-002
7.772048e+002;7.093513e-002
7.791334e+002;7.106682e-002
7.810620e+002;7.158682e-002
7.829905e+002;7.181600e-002
7.849191e+002;7.191581e-002
7.868476e+002;7.219955e-002
7.887761e+002;7.242196e-002
7.907047e+002;7.296660e-002
7.926332e+002;7.343089e-002
7.945618e+002;7.360604e-002
7.964903e+002;7.443721e-002
7.984189e+002;7.516115e-002
8.003474e+002;7.576947e-002
8.022759e+002;7.669286e-002
8.042045e+002;7.760975e-002
8.061331e+002;7.829992e-002
8.080616e+002;7.917857e-002
8.099902e+002;8.009981e-002
8.119187e+002;8.138919e-002
8.138472e+002;8.305189e-002
8.157758e+002;8.452334e-002
8.177043e+002;8.552805e-002
8.196329e+002;8.703059e-002
8.215615e+002;8.938312e-002
8.234900e+002;9.211434e-002
8.254185e+002;9.554166e-002
8.273471e+002;9.919044e-002
8.292756e+002;1.029430e-001
8.312042e+002;1.070722e-001
8.331328e+002;1.109186e-001
8.350613e+002;1.142463e-001
8.369898e+002;1.166322e-001
8.389184e+002;1.175206e-001
8.408469e+002;1.173737e-001
8.427755e+002;1.158723e-001
8.447040e+002;1.135420e-001
8.466326e+002;1.111211e-001
8.485611e+002;1.086417e-001
8.504897e+002;1.068704e-001
8.524182e+002;1.053814e-001
8.543467e+002;1.042362e-001
8.562753e+002;1.044181e-001
8.582039e+002;1.061089e-001
8.601324e+002;1.079806e-001
8.620610e+002;1.101223e-001
8.639895e+002;1.129380e-001
8.659180e+002;1.170715e-001
8.678466e+002;1.220721e-001
8.697751e+002;1.276002e-001
8.717037e+002;1.331420e-001
8.736323e+002;1.378470e-001
8.755608e+002;1.416666e-001
8.774893e+002;1.448833e-001
8.794179e+002;1.475070e-001
8.813464e+002;1.502130e-001
8.832750e+002;1.530720e-001
8.852036e+002;1.556510e-001
8.871321e+002;1.592461e-001
8.890606e+002;1.639217e-001
8.909892e+002;1.691261e-001
8.929177e+002;1.750613e-001
8.948463e+002;1.808630e-001
8.967748e+002;1.853177e-001
8.987034e+002;1.870909e-001
9.006319e+002;1.866214e-001
9.025605e+002;1.838622e-001
9.044890e+002;1.795018e-001
9.064175e+002;1.745626e-001
9.083461e+002;1.690253e-001
9.102747e+002;1.637251e-001
9.122032e+002;1.590089e-001
9.141318e+002;1.548156e-001
9.160603e+002;1.511734e-001
9.179888e+002;1.482779e-001
9.199174e+002;1.460295e-001
9.218459e+002;1.442203e-001
9.237745e+002;1.422345e-001
9.257031e+002;1.402273e-001
9.276316e+002;1.390836e-001
9.295601e+002;1.388268e-001
9.314887e+002;1.388125e-001
9.334172e+002;1.388135e-001
9.353458e+002;1.391806e-001
9.372744e+002;1.400499e-001
9.392029e+002;1.409909e-001
9.411314e+002;1.420661e-001
9.430600e+002;1.438569e-001
9.449885e+002;1.458604e-001
9.469171e+002;1.476848e-001
9.488456e+002;1.493385e-001
9.507742e+002;1.511169e-001
9.527027e+002;1.527458e-001
9.546313e+002;1.541209e-001
9.565598e+002;1.559649e-001
9.584883e+002;1.575320e-001
9.604169e+002;1.591684e-001
9.623455e+002;1.618569e-001
9.642740e+002;1.652974e-001
9.662026e+002;1.695583e-001
9.681311e+002;1.744783e-001
9.700596e+002;1.803853e-001
9.719882e+002;1.871143e-001
9.739167e+002;1.937741e-001
9.758453e+002;2.001160e-001
9.777739e+002;2.062460e-001
9.797024e+002;2.124265e-001
9.816309e+002;2.185443e-001
9.835595e+002;2.240624e-001
9.854880e+002;2.285434e-001
9.874166e+002;2.328096e-001
9.893452e+002;2.374883e-001
9.912737e+002;2.413004e-001
9.932022e+002;2.450576e-001
9.951307e+002;2.494342e-001
9.970593e+002;2.546922e-001
9.989879e+002;2.617808e-001
1.000916e+003;2.702405e-001
1.002845e+003;2.791075e-001
1.004773e+003;2.888862e-001
1.006702e+003;3.001446e-001
1.008631e+003;3.127215e-001
1.010559e+003;3.261261e-001
1.012488e+003;3.403899e-001
1.014416e+003;3.551917e-001
1.016345e+003;3.711560e-001
1.018273e+003;3.880719e-001
1.020202e+003;4.046950e-001
1.022130e+003;4.210461e-001
1.024059e+003;4.377362e-001
1.025988e+003;4.539084e-001
1.027916e+003;4.674156e-001
1.029845e+003;4.778397e-001
1.031773e+003;4.849499e-001
1.033702e+003;4.878742e-001
1.035630e+003;4.880174e-001
1.037559e+003;4.857590e-001
1.039487e+003;4.800256e-001
1.041416e+003;4.726813e-001
1.043344e+003;4.648648e-001
1.045273e+003;4.555287e-001
1.047202e+003;4.443156e-001
1.049130e+003;4.313652e-001
1.051059e+003;4.171812e-001
1.052987e+003;4.031196e-001
1.054916e+003;3.891413e-001
1.056844e+003;3.753724e-001
1.058773e+003;3.626565e-001
1.060701e+003;3.512192e-001
1.062630e+003;3.417406e-001
1.064558e+003;3.333527e-001
1.066487e+003;3.247173e-001
1.068416e+003;3.163078e-001
1.070344e+003;3.089254e-001
1.072273e+003;3.016079e-001
1.074201e+003;2.933205e-001
1.076130e+003;2.848989e-001
1.078058e+003;2.767510e-001
1.079987e+003;2.687134e-001
1.081915e+003;2.603839e-001
1.083844e+003;2.522971e-001
1.085773e+003;2.444676e-001
1.087701e+003;2.371234e-001
1.089630e+003;2.299058e-001
1.091558e+003;2.228033e-001
1.093487e+003;2.155138e-001
1.095415e+003;2.087301e-001
1.097344e+003;2.036637e-001
1.099272e+003;1.993624e-001
1.101201e+003;1.953630e-001
1.103129e+003;1.923928e-001
1.105058e+003;1.904902e-001
1.106987e+003;1.890693e-001
1.108915e+003;1.872589e-001
1.110844e+003;1.861352e-001
1.112772e+003;1.861493e-001
1.114701e+003;1.852671e-001
1.116629e+003;1.837968e-001
1.118558e+003;1.827961e-001
1.120486e+003;1.816242e-001
1.122415e+003;1.801872e-001
1.124344e+003;1.786410e-001
1.126272e+003;1.765935e-001
1.128201e+003;1.740626e-001
1.130129e+003;1.716488e-001
1.132058e+003;1.691972e-001
1.133986e+003;1.666617e-001
1.135915e+003;1.646567e-001
1.137843e+003;1.636480e-001
1.139772e+003;1.631911e-001
1.141700e+003;1.630408e-001
1.143629e+003;1.632520e-001
1.145557e+003;1.639819e-001
1.147486e+003;1.653820e-001
1.149415e+003;1.677151e-001
1.151343e+003;1.697395e-001
1.153272e+003;1.717129e-001
1.155200e+003;1.741251e-001
1.157129e+003;1.759970e-001
1.159057e+003;1.771449e-001
1.160986e+003;1.779041e-001
1.162914e+003;1.784286e-001
1.164843e+003;1.783758e-001
1.166771e+003;1.773381e-001
1.168700e+003;1.756759e-001
1.170629e+003;1.744595e-001
1.172557e+003;1.730120e-001
1.174486e+003;1.714270e-001
1.176414e+003;1.699882e-001
1.178343e+003;1.688185e-001
1.180271e+003;1.684560e-001
1.182200e+003;1.691175e-001
1.184128e+003;1.712254e-001
1.186057e+003;1.753743e-001
1.187986e+003;1.816396e-001
1.189914e+003;1.901527e-001
1.191843e+003;2.018197e-001
1.193771e+003;2.169085e-001
1.195700e+003;2.350135e-001
1.197628e+003;2.564723e-001
1.199557e+003;2.812341e-001
1.201485e+003;3.085613e-001
1.203414e+003;3.370258e-001
1.205343e+003;3.649326e-001
1.207271e+003;3.897173e-001
1.209200e+003;4.098428e-001
1.211128e+003;4.252206e-001
1.213057e+003;4.358138e-001
1.214985e+003;4.420653e-001
1.216914e+003;4.447348e-001
1.218842e+003;4.447728e-001
1.220771e+003;4.436674e-001
1.222699e+003;4.418964e-001
1.224628e+003;4.385836e-001
1.226557e+003;4.339558e-001
1.228485e+003;4.275192e-001
1.230414e+003;4.181594e-001
1.232342e+003;4.061858e-001
1.234271e+003;3.924702e-001
1.236199e+003;3.765682e-001
1.238128e+003;3.600502e-001
1.240056e+003;3.438614e-001
1.241985e+003;3.269883e-001
1.243913e+003;3.099588e-001
1.245842e+003;2.937087e-001
1.247771e+003;2.783827e-001
1.249699e+003;2.637104e-001
1.251628e+003;2.493607e-001
1.253556e+003;2.357408e-001
1.255485e+003;2.233741e-001
1.257413e+003;2.115131e-001
1.259342e+003;2.000017e-001
1.261270e+003;1.895705e-001
1.263199e+003;1.800119e-001
1.265127e+003;1.710530e-001
1.267056e+003;1.629389e-001
1.268985e+003;1.552548e-001
1.270913e+003;1.481347e-001
1.272842e+003;1.417999e-001
1.274770e+003;1.359954e-001
1.276699e+003;1.306238e-001
1.278627e+003;1.259576e-001
1.280556e+003;1.217299e-001
1.282484e+003;1.178821e-001
1.284413e+003;1.146306e-001
1.286342e+003;1.117011e-001
1.288270e+003;1.090382e-001
1.290199e+003;1.065871e-001
1.292127e+003;1.044175e-001
1.294056e+003;1.023482e-001
1.295984e+003;1.006492e-001
1.297913e+003;9.939124e-002
1.299841e+003;9.796076e-002
1.301770e+003;9.641816e-002
1.303698e+003;9.553535e-002
1.305627e+003;9.512804e-002
1.307556e+003;9.483013e-002
1.309484e+003;9.462444e-002
1.311413e+003;9.448591e-002
1.313341e+003;9.475520e-002
1.315270e+003;9.518773e-002
1.317198e+003;9.518810e-002
1.319127e+003;9.500770e-002
1.321055e+003;9.506688e-002
1.322984e+003;9.487221e-002
1.324912e+003;9.440099e-002
1.326841e+003;9.407642e-002
1.328770e+003;9.372680e-002
1.330698e+003;9.349341e-002
1.332627e+003;9.330590e-002
1.334555e+003;9.293178e-002
1.336484e+003;9.294718e-002
1.338412e+003;9.297866e-002
1.340341e+003;9.293950e-002
1.342269e+003;9.369395e-002
1.344198e+003;9.500357e-002
1.346126e+003;9.674756e-002
1.348055e+003;9.991450e-002
1.349984e+003;1.048098e-001
1.351912e+003;1.119076e-001
1.353841e+003;1.219643e-001
1.355769e+003;1.354636e-001
1.357698e+003;1.521751e-001
1.359626e+003;1.700882e-001
1.361555e+003;1.868120e-001
1.363483e+003;1.997111e-001
1.365412e+003;2.067136e-001
1.367341e+003;2.077248e-001
1.369269e+003;2.044915e-001
1.371198e+003;1.981628e-001
1.373126e+003;1.900642e-001
1.375055e+003;1.814755e-001
1.376983e+003;1.724308e-001
1.378912e+003;1.629096e-001
1.380840e+003;1.533460e-001
1.382769e+003;1.438752e-001
1.384698e+003;1.341590e-001
1.386626e+003;1.248655e-001
1.388555e+003;1.170047e-001
1.390483e+003;1.102749e-001
1.392412e+003;1.043773e-001
1.394340e+003;9.961670e-002
1.396269e+003;9.645499e-002
1.398197e+003;9.428534e-002
1.400126e+003;9.275346e-002
1.402054e+003;9.197505e-002
1.403983e+003;9.179585e-002
1.405911e+003;9.185095e-002
1.407840e+003;9.217407e-002
1.409769e+003;9.275305e-002
1.411697e+003;9.360097e-002
1.413626e+003;9.424594e-002
1.415554e+003;9.521656e-002
1.417483e+003;9.659916e-002
1.419411e+003;9.832756e-002
1.421340e+003;1.008936e-001
1.423268e+003;1.036411e-001
1.425197e+003;1.059496e-001
1.427125e+003;1.076221e-001
1.429054e+003;1.087456e-001
1.430983e+003;1.093938e-001
1.432911e+003;1.093093e-001
1.434840e+003;1.077689e-001
1.436768e+003;1.057188e-001
1.438697e+003;1.042546e-001
1.440625e+003;1.022857e-001
1.442554e+003;9.977961e-002
1.444482e+003;9.721404e-002
1.446411e+003;9.462531e-002
1.448340e+003;9.219579e-002
1.450268e+003;9.035818e-002
1.452197e+003;8.858939e-002
1.454125e+003;8.655535e-002
1.456054e+003;8.392917e-002
1.457982e+003;8.186986e-002
1.459911e+003;8.062979e-002
1.461839e+003;7.902802e-002
1.463768e+003;7.661147e-002
1.465697e+003;7.424053e-002
1.467625e+003;7.259342e-002
1.469554e+003;7.108063e-002
1.471482e+003;6.916871e-002
1.473411e+003;6.767018e-002
1.475339e+003;6.692819e-002
1.477268e+003;6.639041e-002
1.479196e+003;6.564617e-002
1.481125e+003;6.478482e-002
1.483053e+003;6.414071e-002
1.484982e+003;6.353289e-002
1.486911e+003;6.292797e-002
1.488839e+003;6.233698e-002
1.490768e+003;6.191955e-002
1.492696e+003;6.180355e-002
1.494625e+003;6.138480e-002
1.496553e+003;6.092684e-002
1.498482e+003;6.097415e-002
1.500410e+003;6.125445e-002
1.502339e+003;6.117361e-002
1.504267e+003;6.025751e-002
1.506196e+003;5.941130e-002
1.508125e+003;5.982587e-002
1.510053e+003;6.026916e-002
1.511982e+003;6.035265e-002
1.513910e+003;6.033776e-002
1.515839e+003;6.004915e-002
1.517767e+003;6.002203e-002
1.519696e+003;5.967451e-002
1.521624e+003;5.934706e-002
1.523553e+003;5.976906e-002
1.525481e+003;6.007236e-002
1.527410e+003;6.043760e-002
1.529339e+003;6.070974e-002
1.531267e+003;6.060805e-002
1.533196e+003;6.049712e-002
1.535124e+003;6.061830e-002
1.537053e+003;5.970450e-002
1.538981e+003;5.831712e-002
1.540910e+003;5.824323e-002
1.542838e+003;5.894437e-002
1.544767e+003;5.960271e-002
1.546695e+003;6.025325e-002
1.548624e+003;6.058397e-002
1.550553e+003;6.065971e-002
1.552481e+003;6.064443e-002
1.554410e+003;6.038551e-002
1.556338e+003;5.990269e-002
1.558267e+003;5.877921e-002
1.560195e+003;5.905501e-002
1.562124e+003;6.045534e-002
1.564052e+003;6.102140e-002
1.565981e+003;6.121248e-002
1.567910e+003;6.074983e-002
1.569838e+003;6.026611e-002
1.571767e+003;6.058233e-002
1.573695e+003;6.044777e-002
1.575624e+003;5.989741e-002
1.577552e+003;6.040805e-002
1.579481e+003;6.116514e-002
1.581409e+003;6.156803e-002
1.583338e+003;6.191584e-002
1.585266e+003;6.187981e-002
1.587195e+003;6.202219e-002
1.589124e+003;6.257851e-002
1.591052e+003;6.317087e-002
1.592981e+003;6.354152e-002
1.594909e+003;6.377343e-002
1.596838e+003;6.422941e-002
1.598766e+003;6.489465e-002
1.600695e+003;6.522986e-002
1.602623e+003;6.567939e-002
1.604552e+003;6.655727e-002
1.606480e+003;6.726354e-002
1.608409e+003;6.757587e-002
1.610338e+003;6.778152e-002
1.612266e+003;6.819536e-002
1.614195e+003;6.847633e-002
1.616123e+003;6.841259e-002
1.618052e+003;6.923305e-002
1.619980e+003;7.024090e-002
1.621909e+003;7.066957e-002
1.623837e+003;7.120592e-002
1.625766e+003;7.193646e-002
1.627694e+003;7.253104e-002
1.629623e+003;7.313376e-002
1.631552e+003;7.372833e-002
1.633480e+003;7.387478e-002
1.635409e+003;7.390958e-002
1.637337e+003;7.498088e-002
1.639266e+003;7.618041e-002
1.641194e+003;7.676897e-002
1.643123e+003;7.704711e-002
1.645051e+003;7.687037e-002
1.646980e+003;7.710247e-002
1.648909e+003;7.802641e-002
1.650837e+003;7.780134e-002
1.652766e+003;7.680721e-002
1.654694e+003;7.779623e-002
1.656623e+003;7.922871e-002
1.658551e+003;7.959256e-002
1.660480e+003;7.952292e-002
1.662408e+003;7.986319e-002
1.664337e+003;8.069945e-002
1.666266e+003;8.135926e-002
1.668194e+003;8.159373e-002
1.670123e+003;8.215797e-002
1.672051e+003;8.332144e-002
1.673980e+003;8.432695e-002
1.675908e+003;8.550429e-002
1.677837e+003;8.732778e-002
1.679765e+003;8.889000e-002
1.681694e+003;9.012260e-002
1.683622e+003;9.107134e-002
1.685551e+003;9.343223e-002
1.687479e+003;9.698283e-002
1.689408e+003;1.002349e-001
1.691337e+003;1.034227e-001
1.693265e+003;1.065533e-001
1.695194e+003;1.097462e-001
1.697122e+003;1.142149e-001
1.699051e+003;1.190529e-001
1.700979e+003;1.245631e-001
1.702908e+003;1.314808e-001
1.704836e+003;1.384494e-001
1.706765e+003;1.459060e-001
1.708693e+003;1.544228e-001
1.710622e+003;1.640123e-001
1.712551e+003;1.744006e-001
1.714479e+003;1.855813e-001
1.716408e+003;1.975518e-001
1.718336e+003;2.109541e-001
1.720265e+003;2.255964e-001
1.722193e+003;2.400910e-001
1.724122e+003;2.544045e-001
1.726050e+003;2.685720e-001
1.727979e+003;2.819986e-001
1.729908e+003;2.938998e-001
1.731836e+003;3.037186e-001
1.733765e+003;3.110922e-001
1.735693e+003;3.164991e-001
1.737622e+003;3.185299e-001
1.739550e+003;3.170893e-001
1.741479e+003;3.135207e-001
1.743407e+003;3.077662e-001
1.745336e+003;3.000098e-001
1.747265e+003;2.904885e-001
1.749193e+003;2.792220e-001
1.751122e+003;2.668184e-001
1.753050e+003;2.536086e-001
1.754979e+003;2.387806e-001
1.756907e+003;2.220075e-001
1.758836e+003;2.044898e-001
1.760764e+003;1.861451e-001
1.762693e+003;1.678082e-001
1.764621e+003;1.508868e-001
1.766550e+003;1.352725e-001
1.768479e+003;1.216392e-001
1.770407e+003;1.103101e-001
1.772336e+003;1.006557e-001
1.774264e+003;9.348749e-002
1.776193e+003;8.794151e-002
1.778121e+003;8.334505e-002
1.780050e+003;7.924724e-002
1.781978e+003;7.569026e-002
1.783907e+003;7.318827e-002
1.785835e+003;7.124707e-002
1.787764e+003;6.944349e-002
1.789693e+003;6.766535e-002
1.791621e+003;6.599548e-002
1.793550e+003;6.507410e-002
1.795478e+003;6.456222e-002
1.797407e+003;6.368329e-002
1.799335e+003;6.271587e-002
1.801264e+003;6.207865e-002
1.803192e+003;6.155367e-002
1.805121e+003;6.099623e-002
1.807049e+003;6.037580e-002
1.808978e+003;5.974481e-002
1.810907e+003;5.928265e-002
1.812835e+003;5.876020e-002
1.814764e+003;5.830913e-002
1.816692e+003;5.786462e-002
1.818621e+003;5.736607e-002
1.820549e+003;5.692222e-002
1.822478e+003;5.652286e-002
1.824406e+003;5.598100e-002
1.826335e+003;5.560827e-002
1.828264e+003;5.502970e-002
1.830192e+003;5.443531e-002
1.832121e+003;5.433943e-002
1.834049e+003;5.429152e-002
1.835978e+003;5.401853e-002
1.837906e+003;5.369941e-002
1.839835e+003;5.344714e-002
1.841763e+003;5.294106e-002
1.843692e+003;5.241672e-002
1.845620e+003;5.241586e-002
1.847549e+003;5.235698e-002
1.849478e+003;5.218223e-002
1.851406e+003;5.210580e-002
1.853335e+003;5.205156e-002
1.855263e+003;5.189425e-002
1.857192e+003;5.167337e-002
1.859120e+003;5.148867e-002
1.861049e+003;5.125111e-002
1.862977e+003;5.108124e-002
1.864906e+003;5.105902e-002
1.866834e+003;5.072300e-002
1.868763e+003;5.021993e-002
1.870692e+003;5.013818e-002
1.872620e+003;5.025713e-002
1.874549e+003;5.008400e-002
1.876477e+003;5.000462e-002
1.878406e+003;4.984341e-002
1.880334e+003;4.962238e-002
1.882263e+003;4.948326e-002
1.884191e+003;4.952678e-002
1.886120e+003;4.944732e-002
1.888048e+003;4.894001e-002
1.889977e+003;4.867296e-002
1.891906e+003;4.885502e-002
1.893834e+003;4.899090e-002
1.895763e+003;4.904561e-002
1.897691e+003;4.902235e-002
1.899620e+003;4.885257e-002
1.901548e+003;4.864179e-002
1.903477e+003;4.875892e-002
1.905405e+003;4.912831e-002
1.907334e+003;4.931040e-002
1.909262e+003;4.946677e-002
1.911191e+003;4.974587e-002
1.913120e+003;4.969281e-002
1.915048e+003;4.964835e-002
1.916977e+003;4.974167e-002
1.918905e+003;5.004801e-002
1.920834e+003;5.027275e-002
1.922762e+003;5.026371e-002
1.924691e+003;5.027729e-002
1.926619e+003;5.015879e-002
1.928548e+003;5.013703e-002
1.930477e+003;5.010137e-002
1.932405e+003;5.015726e-002
1.934334e+003;5.029682e-002
1.936262e+003;5.021249e-002
1.938191e+003;5.005332e-002
1.940119e+003;5.016463e-002
1.942048e+003;5.022707e-002
1.943976e+003;5.035661e-002
1.945905e+003;5.029567e-002
1.947833e+003;5.021684e-002
1.949762e+003;5.023883e-002
1.951691e+003;5.000265e-002
1.953619e+003;4.985385e-002
1.955548e+003;4.997258e-002
1.957476e+003;4.992912e-002
1.959405e+003;4.974873e-002
1.961333e+003;4.956715e-002
1.963262e+003;4.936857e-002
1.965190e+003;4.908119e-002
1.967119e+003;4.886329e-002
1.969047e+003;4.878910e-002
1.970976e+003;4.871948e-002
1.972905e+003;4.869939e-002
1.974833e+003;4.847542e-002
1.976762e+003;4.819088e-002
1.978690e+003;4.822250e-002
1.980619e+003;4.814098e-002
1.982547e+003;4.783166e-002
1.984476e+003;4.780295e-002
1.986404e+003;4.780584e-002
1.988333e+003;4.758691e-002
1.990261e+003;4.742073e-002
1.992190e+003;4.743876e-002
1.994119e+003;4.750935e-002
1.996047e+003;4.755168e-002
1.997976e+003;4.750669e-002
1.999904e+003;4.736891e-002
2.001833e+003;4.748400e-002
2.003761e+003;4.778786e-002
2.005690e+003;4.793835e-002
2.007618e+003;4.815701e-002
2.009547e+003;4.818800e-002
2.011476e+003;4.813161e-002
2.013404e+003;4.835689e-002
2.015333e+003;4.863561e-002
2.017261e+003;4.867897e-002
2.019190e+003;4.861070e-002
2.021118e+003;4.862664e-002
2.023047e+003;4.876456e-002
2.024975e+003;4.904650e-002
2.026904e+003;4.928765e-002
2.028833e+003;4.927396e-002
2.030761e+003;4.934719e-002
2.032690e+003;4.946759e-002
2.034618e+003;4.948163e-002
2.036547e+003;4.958030e-002
2.038475e+003;4.975185e-002
2.040404e+003;4.971641e-002
2.042332e+003;4.968516e-002
2.044261e+003;4.971971e-002
2.046189e+003;4.960255e-002
2.048118e+003;4.947899e-002
2.050047e+003;4.976805e-002
2.051975e+003;4.993258e-002
2.053904e+003;4.983865e-002
2.055832e+003;4.997573e-002
2.057761e+003;5.017009e-002
2.059689e+003;5.031092e-002
2.061618e+003;5.037440e-002
2.063546e+003;5.009371e-002
2.065475e+003;5.001183e-002
2.067404e+003;5.030013e-002
2.069332e+003;5.050018e-002
2.071260e+003;5.075786e-002
2.073189e+003;5.100309e-002
2.075118e+003;5.101911e-002
2.077046e+003;5.094127e-002
2.078975e+003;5.095685e-002
2.080903e+003;5.101326e-002
2.082832e+003;5.112216e-002
2.084760e+003;5.150815e-002
2.086689e+003;5.190023e-002
2.088617e+003;5.205036e-002
2.090546e+003;5.211962e-002
2.092475e+003;5.246469e-002
2.094403e+003;5.280510e-002
2.096332e+003;5.305302e-002
2.098260e+003;5.326356e-002
2.100189e+003;5.343271e-002
2.102117e+003;5.366499e-002
2.104046e+003;5.404521e-002
2.105974e+003;5.428912e-002
2.107903e+003;5.438044e-002
2.109832e+003;5.451693e-002
2.111760e+003;5.455822e-002
2.113688e+003;5.447384e-002
2.115617e+003;5.445416e-002
2.117546e+003;5.443734e-002
2.119474e+003;5.433256e-002
2.121403e+003;5.440519e-002
2.123331e+003;5.441897e-002
2.125260e+003;5.424076e-002
2.127188e+003;5.406450e-002
2.129117e+003;5.399515e-002
2.131045e+003;5.400427e-002
2.132974e+003;5.392567e-002
2.134903e+003;5.356133e-002
2.136831e+003;5.323191e-002
2.138760e+003;5.327079e-002
2.140688e+003;5.333732e-002
2.142617e+003;5.318120e-002
2.144545e+003;5.283578e-002
2.146474e+003;5.244237e-002
2.148402e+003;5.221956e-002
2.150331e+003;5.202018e-002
2.152260e+003;5.187062e-002
2.154188e+003;5.173947e-002
2.156117e+003;5.149882e-002
2.158045e+003;5.126099e-002
2.159974e+003;5.096709e-002
2.161902e+003;5.061182e-002
2.163831e+003;5.030943e-002
2.165759e+003;5.016980e-002
2.167688e+003;5.000325e-002
2.169616e+003;4.985616e-002
2.171545e+003;4.939074e-002
2.173474e+003;4.896846e-002
2.175402e+003;4.896672e-002
2.177331e+003;4.888183e-002
2.179259e+003;4.872797e-002
2.181188e+003;4.845123e-002
2.183116e+003;4.830245e-002
2.185045e+003;4.805485e-002
2.186973e+003;4.770882e-002
2.188902e+003;4.754810e-002
2.190831e+003;4.744478e-002
2.192759e+003;4.739766e-002
2.194688e+003;4.736415e-002
2.196616e+003;4.733196e-002
2.198545e+003;4.719368e-002
2.200473e+003;4.710526e-002
2.202402e+003;4.711996e-002
2.204330e+003;4.710848e-002
2.206259e+003;4.711660e-002
2.208188e+003;4.713377e-002
2.210116e+003;4.685679e-002
2.212044e+003;4.670889e-002
2.213973e+003;4.674354e-002
2.215902e+003;4.682653e-002
2.217830e+003;4.660176e-002
2.219759e+003;4.643834e-002
2.221687e+003;4.654123e-002
2.223616e+003;4.647610e-002
2.225544e+003;4.621295e-002
2.227473e+003;4.593564e-002
2.229401e+003;4.586173e-002
2.231330e+003;4.585009e-002
2.233259e+003;4.590448e-002
2.235187e+003;4.608284e-002
2.237116e+003;4.621056e-002
2.239044e+003;4.611364e-002
2.240973e+003;4.603841e-002
2.242901e+003;4.611180e-002
2.244830e+003;4.608700e-002
2.246758e+003;4.605646e-002
2.248687e+003;4.603487e-002
2.250615e+003;4.607411e-002
2.252544e+003;4.616785e-002
2.254473e+003;4.608225e-002
2.256401e+003;4.594356e-002
2.258330e+003;4.603329e-002
2.260258e+003;4.623927e-002
2.262187e+003;4.623083e-002
2.264115e+003;4.588386e-002
2.266044e+003;4.566506e-002
2.267972e+003;4.569557e-002
2.269901e+003;4.566715e-002
2.271830e+003;4.556304e-002
2.273758e+003;4.534612e-002
2.275687e+003;4.503595e-002
2.277615e+003;4.515910e-002
2.279544e+003;4.539140e-002
2.281472e+003;4.523870e-002
2.283401e+003;4.496021e-002
2.285329e+003;4.474885e-002
2.287258e+003;4.450323e-002
2.289187e+003;4.432134e-002
2.291115e+003;4.439036e-002
2.293043e+003;4.417767e-002
2.294972e+003;4.373745e-002
2.296901e+003;4.351412e-002
2.298829e+003;4.327063e-002
2.300758e+003;4.288892e-002
2.302686e+003;4.276039e-002
2.304615e+003;4.274584e-002
2.306543e+003;4.272562e-002
2.308472e+003;4.279765e-002
2.310400e+003;4.283202e-002
2.312329e+003;4.274664e-002
2.314258e+003;4.270807e-002
2.316186e+003;4.254425e-002
2.318115e+003;4.224151e-002
2.320043e+003;4.251743e-002
2.321972e+003;4.279319e-002
2.323900e+003;4.275662e-002
2.325829e+003;4.269246e-002
2.327757e+003;4.252276e-002
2.329686e+003;4.234999e-002
2.331615e+003;4.243657e-002
2.333543e+003;4.261164e-002
2.335472e+003;4.287097e-002
2.337400e+003;4.309898e-002
2.339329e+003;4.312873e-002
2.341257e+003;4.310791e-002
2.343186e+003;4.317049e-002
2.345114e+003;4.349181e-002
2.347043e+003;4.377604e-002
2.348971e+003;4.387185e-002
2.350900e+003;4.394817e-002
2.352829e+003;4.397823e-002
2.354757e+003;4.391496e-002
2.356686e+003;4.372565e-002
2.358614e+003;4.378022e-002
2.360543e+003;4.387595e-002
2.362471e+003;4.374987e-002
2.364400e+003;4.367215e-002
2.366328e+003;4.361599e-002
2.368257e+003;4.369688e-002
2.370186e+003;4.381921e-002
2.372114e+003;4.370289e-002
2.374042e+003;4.344087e-002
2.375971e+003;4.345596e-002
2.377900e+003;4.371521e-002
2.379828e+003;4.369575e-002
2.381757e+003;4.357782e-002
2.383685e+003;4.368897e-002
2.385614e+003;4.389545e-002
2.387542e+003;4.407845e-002
2.389471e+003;4.424703e-002
2.391399e+003;4.433880e-002
2.393328e+003;4.424806e-002
2.395257e+003;4.428145e-002
2.397185e+003;4.454736e-002
2.399114e+003;4.484829e-002
2.401042e+003;4.509583e-002
2.402971e+003;4.522708e-002
2.404899e+003;4.540718e-002
2.406828e+003;4.588253e-002
2.408756e+003;4.623570e-002
2.410685e+003;4.618483e-002
2.412614e+003;4.613129e-002
2.414542e+003;4.630046e-002
2.416471e+003;4.634771e-002
2.418399e+003;4.618391e-002
2.420328e+003;4.608211e-002
2.422256e+003;4.597509e-002
2.424185e+003;4.597815e-002
2.426113e+003;4.604994e-002
2.428042e+003;4.610513e-002
2.429970e+003;4.621918e-002
2.431899e+003;4.628704e-002
2.433828e+003;4.632998e-002
2.435756e+003;4.628914e-002
2.437685e+003;4.619548e-002
2.439613e+003;4.624373e-002
2.441542e+003;4.630492e-002
2.443470e+003;4.645423e-002
2.445399e+003;4.647481e-002
2.447327e+003;4.637194e-002
2.449256e+003;4.634171e-002
2.451185e+003;4.622759e-002
2.453113e+003;4.608778e-002
2.455042e+003;4.611899e-002
2.456970e+003;4.610248e-002
2.458899e+003;4.619652e-002
2.460827e+003;4.648591e-002
2.462756e+003;4.630521e-002
2.464684e+003;4.610340e-002
2.466613e+003;4.631837e-002
2.468542e+003;4.629570e-002
2.470470e+003;4.592356e-002
2.472398e+003;4.578271e-002
2.474327e+003;4.579983e-002
2.476256e+003;4.584468e-002
2.478184e+003;4.592860e-002
2.480113e+003;4.592242e-002
2.482041e+003;4.581007e-002
2.483970e+003;4.561898e-002
2.485898e+003;4.538033e-002
2.487827e+003;4.538750e-002
2.489755e+003;4.526926e-002
2.491684e+003;4.515134e-002
2.493613e+003;4.510697e-002
2.495541e+003;4.473757e-002
2.497470e+003;4.450367e-002
2.499398e+003;4.458616e-002
2.501327e+003;4.442783e-002
2.503255e+003;4.420242e-002
2.505184e+003;4.418838e-002
2.507112e+003;4.403386e-002
2.509041e+003;4.396287e-002
2.510969e+003;4.407709e-002
2.512898e+003;4.393405e-002
2.514827e+003;4.379953e-002
2.516755e+003;4.393636e-002
2.518684e+003;4.388746e-002
2.520612e+003;4.383944e-002
2.522541e+003;4.371744e-002
2.524469e+003;4.355947e-002
2.526398e+003;4.351987e-002
2.528326e+003;4.343564e-002
2.530255e+003;4.341857e-002
2.532184e+003;4.359522e-002
2.534112e+003;4.371345e-002
2.536041e+003;4.358609e-002
2.537969e+003;4.341308e-002
2.539898e+003;4.332513e-002
2.541826e+003;4.316865e-002
2.543755e+003;4.300045e-002
2.545683e+003;4.295813e-002
2.547612e+003;4.322721e-002
2.549541e+003;4.328271e-002
2.551469e+003;4.335900e-002
2.553397e+003;4.331880e-002
2.555326e+003;4.325273e-002
2.557255e+003;4.341799e-002
2.559183e+003;4.354199e-002
2.561112e+003;4.354976e-002
2.563040e+003;4.370670e-002
2.564969e+003;4.396445e-002
2.566897e+003;4.406686e-002
2.568826e+003;4.421604e-002
2.570754e+003;4.441554e-002
2.572683e+003;4.453399e-002
2.574612e+003;4.465314e-002
2.576540e+003;4.494176e-002
2.578469e+003;4.504680e-002
2.580397e+003;4.519024e-002
2.582326e+003;4.519248e-002
2.584254e+003;4.524322e-002
2.586183e+003;4.536532e-002
2.588111e+003;4.545666e-002
2.590040e+003;4.573117e-002
2.591969e+003;4.596537e-002
2.593897e+003;4.597222e-002
2.595826e+003;4.598419e-002
2.597754e+003;4.591542e-002
2.599683e+003;4.603388e-002
2.601611e+003;4.615713e-002
2.603540e+003;4.604250e-002
2.605468e+003;4.619655e-002
2.607397e+003;4.643141e-002
2.609325e+003;4.647197e-002
2.611254e+003;4.646098e-002
2.613183e+003;4.658416e-002
2.615111e+003;4.671527e-002
2.617040e+003;4.674438e-002
2.618968e+003;4.685990e-002
2.620897e+003;4.701036e-002
2.622825e+003;4.718936e-002
2.624754e+003;4.736060e-002
2.626682e+003;4.727495e-002
2.628611e+003;4.725899e-002
2.630540e+003;4.742508e-002
2.632468e+003;4.763613e-002
2.634396e+003;4.781397e-002
2.636325e+003;4.788859e-002
2.638254e+003;4.765916e-002
2.640182e+003;4.767976e-002
2.642111e+003;4.779341e-002
2.644039e+003;4.790639e-002
2.645968e+003;4.813580e-002
2.647896e+003;4.799397e-002
2.649825e+003;4.764844e-002
2.651753e+003;4.762806e-002
2.653682e+003;4.794180e-002
2.655611e+003;4.802624e-002
2.657539e+003;4.792896e-002
2.659468e+003;4.778919e-002
2.661396e+003;4.789344e-002
2.663325e+003;4.777728e-002
2.665253e+003;4.752433e-002
2.667182e+003;4.745192e-002
2.669110e+003;4.754111e-002
2.671039e+003;4.772036e-002
2.672968e+003;4.783240e-002
2.674896e+003;4.787720e-002
2.676825e+003;4.781390e-002
2.678753e+003;4.771060e-002
2.680682e+003;4.773386e-002
2.682610e+003;4.779371e-002
2.684539e+003;4.801917e-002
2.686467e+003;4.817338e-002
2.688396e+003;4.810485e-002
2.690324e+003;4.823057e-002
2.692253e+003;4.819533e-002
2.694182e+003;4.803053e-002
2.696110e+003;4.808546e-002
2.698039e+003;4.834381e-002
2.699967e+003;4.854204e-002
2.701896e+003;4.873475e-002
2.703824e+003;4.897510e-002
2.705753e+003;4.924475e-002
2.707681e+003;4.935970e-002
2.709610e+003;4.950910e-002
2.711539e+003;4.985137e-002
2.713467e+003;5.016674e-002
2.715396e+003;5.033734e-002
2.717324e+003;5.055795e-002
2.719253e+003;5.068833e-002
2.721181e+003;5.076680e-002
2.723110e+003;5.086542e-002
2.725038e+003;5.089984e-002
2.726967e+003;5.103983e-002
2.728896e+003;5.112160e-002
2.730824e+003;5.113055e-002
2.732752e+003;5.140098e-002
2.734681e+003;5.135738e-002
2.736610e+003;5.117092e-002
2.738538e+003;5.105336e-002
2.740467e+003;5.104699e-002
2.742395e+003;5.126628e-002
2.744324e+003;5.133851e-002
2.746252e+003;5.125409e-002
2.748181e+003;5.103357e-002
2.750109e+003;5.083350e-002
2.752038e+003;5.084725e-002
2.753967e+003;5.094131e-002
2.755895e+003;5.096955e-002
2.757824e+003;5.085529e-002
2.759752e+003;5.081953e-002
2.761681e+003;5.079015e-002
2.763609e+003;5.085108e-002
2.765538e+003;5.095510e-002
2.767466e+003;5.112373e-002
2.769395e+003;5.128903e-002
2.771323e+003;5.139083e-002
2.773252e+003;5.137942e-002
2.775181e+003;5.140325e-002
2.777109e+003;5.154859e-002
2.779038e+003;5.163960e-002
2.780966e+003;5.176885e-002
2.782895e+003;5.204382e-002
2.784823e+003;5.221553e-002
2.786752e+003;5.220361e-002
2.788680e+003;5.254628e-002
2.790609e+003;5.290221e-002
2.792538e+003;5.299627e-002
2.794466e+003;5.317528e-002
2.796395e+003;5.333065e-002
2.798323e+003;5.348742e-002
2.800252e+003;5.377110e-002
2.802180e+003;5.386892e-002
2.804109e+003;5.399095e-002
2.806037e+003;5.431255e-002
2.807966e+003;5.459778e-002
2.809895e+003;5.450506e-002
2.811823e+003;5.465136e-002
2.813751e+003;5.522716e-002
2.815680e+003;5.536291e-002
2.817609e+003;5.526874e-002
2.819537e+003;5.530762e-002
2.821466e+003;5.535971e-002
2.823394e+003;5.556583e-002
2.825323e+003;5.587766e-002
2.827251e+003;5.618598e-002
2.829180e+003;5.651453e-002
2.831108e+003;5.693654e-002
2.833037e+003;5.742227e-002
2.834966e+003;5.753528e-002
2.836894e+003;5.766395e-002
2.838823e+003;5.826597e-002
2.840751e+003;5.870015e-002
2.842680e+003;5.894566e-002
2.844608e+003;5.916686e-002
2.846537e+003;5.907031e-002
2.848465e+003;5.910038e-002
2.850394e+003;5.942129e-002
2.852323e+003;5.996466e-002
2.854251e+003;6.099200e-002
2.856180e+003;6.236872e-002
2.858108e+003;6.373398e-002
2.860037e+003;6.479806e-002
2.861965e+003;6.600166e-002
2.863894e+003;6.711605e-002
2.865822e+003;6.784156e-002
2.867751e+003;6.835492e-002
2.869679e+003;6.872479e-002
2.871608e+003;6.895553e-002
2.873536e+003;6.931883e-002
2.875465e+003;7.006274e-002
2.877394e+003;7.032306e-002
2.879322e+003;7.032064e-002
2.881251e+003;7.057078e-002
2.883179e+003;7.078328e-002
2.885108e+003;7.083534e-002
2.887036e+003;7.083254e-002
2.888965e+003;7.075489e-002
2.890893e+003;7.058252e-002
2.892822e+003;7.026712e-002
2.894750e+003;6.970609e-002
2.896679e+003;6.953506e-002
2.898608e+003;6.976437e-002
2.900536e+003;6.942861e-002
2.902465e+003;6.892753e-002
2.904393e+003;6.856745e-002
2.906322e+003;6.806342e-002
2.908250e+003;6.755500e-002
2.910179e+003;6.709711e-002
2.912107e+003;6.655773e-002
2.914036e+003;6.562925e-002
2.915965e+003;6.456140e-002
2.917893e+003;6.392419e-002
2.919822e+003;6.355345e-002
2.921750e+003;6.316768e-002
2.923679e+003;6.373306e-002
2.925607e+003;6.476144e-002
2.927536e+003;6.531781e-002
2.929464e+003;6.583668e-002
2.931393e+003;6.660972e-002
2.933322e+003;6.745557e-002
2.935250e+003;6.842733e-002
2.937178e+003;6.941126e-002
2.939107e+003;7.032505e-002
2.941036e+003;7.112829e-002
2.942964e+003;7.172512e-002
2.944893e+003;7.194029e-002
2.946821e+003;7.185192e-002
2.948750e+003;7.163172e-002
2.950678e+003;7.149384e-002
2.952607e+003;7.112056e-002
2.954535e+003;7.040457e-002
2.956464e+003;7.006819e-002
2.958393e+003;7.017563e-002
2.960321e+003;7.003724e-002
2.962250e+003;6.963778e-002
2.964178e+003;6.919229e-002
2.966107e+003;6.880141e-002
2.968035e+003;6.834018e-002
2.969964e+003;6.763294e-002
2.971892e+003;6.707217e-002
2.973821e+003;6.668246e-002
2.975750e+003;6.652922e-002
2.977678e+003;6.617091e-002
2.979607e+003;6.571470e-002
2.981535e+003;6.544122e-002
2.983464e+003;6.542446e-002
2.985392e+003;6.520218e-002
2.987321e+003;6.484337e-002
2.989249e+003;6.478748e-002
2.991178e+003;6.475914e-002
2.993106e+003;6.446792e-002
2.995035e+003;6.407474e-002
2.996964e+003;6.365809e-002
2.998892e+003;6.346945e-002
3.000821e+003;6.326104e-002
3.002749e+003;6.254032e-002
3.004678e+003;6.195738e-002
3.006606e+003;6.188046e-002
3.008535e+003;6.174763e-002
3.010463e+003;6.163836e-002
3.012392e+003;6.171520e-002
3.014321e+003;6.165146e-002
3.016249e+003;6.152340e-002
3.018177e+003;6.119421e-002
3.020106e+003;6.070566e-002
3.022035e+003;6.062176e-002
3.023963e+003;6.097972e-002
3.025892e+003;6.094396e-002
3.027820e+003;6.025793e-002
3.029749e+003;5.985359e-002
3.031677e+003;5.966048e-002
3.033606e+003;5.939899e-002
3.035534e+003;5.938775e-002
3.037463e+003;5.896806e-002
3.039392e+003;5.829567e-002
3.041320e+003;5.756252e-002
3.043249e+003;5.702249e-002
3.045177e+003;5.679494e-002
3.047106e+003;5.664807e-002
3.049034e+003;5.642653e-002
3.050963e+003;5.620842e-002
3.052891e+003;5.578214e-002
3.054820e+003;5.552990e-002
3.056749e+003;5.511682e-002
3.058677e+003;5.473708e-002
3.060606e+003;5.466654e-002
3.062534e+003;5.433819e-002
3.064463e+003;5.371793e-002
3.066391e+003;5.324150e-002
3.068320e+003;5.315993e-002
3.070248e+003;5.329993e-002
3.072177e+003;5.321187e-002
3.074105e+003;5.296512e-002
3.076034e+003;5.296044e-002
3.077963e+003;5.284772e-002
3.079891e+003;5.219920e-002
3.081820e+003;5.202190e-002
3.083748e+003;5.224285e-002
3.085677e+003;5.220690e-002
3.087605e+003;5.195262e-002
3.089534e+003;5.185053e-002
3.091462e+003;5.182970e-002
3.093391e+003;5.170256e-002
3.095320e+003;5.160448e-002
3.097248e+003;5.126505e-002
3.099177e+003;5.106704e-002
3.101105e+003;5.144887e-002
3.103034e+003;5.173268e-002
3.104962e+003;5.149841e-002
3.106891e+003;5.118620e-002
3.108819e+003;5.109819e-002
3.110748e+003;5.135100e-002
3.112677e+003;5.144342e-002
3.114605e+003;5.101464e-002
3.116533e+003;5.075432e-002
3.118462e+003;5.105701e-002
3.120391e+003;5.122255e-002
3.122319e+003;5.105985e-002
3.124248e+003;5.080992e-002
3.126176e+003;5.059801e-002
3.128105e+003;5.065255e-002
3.130033e+003;5.050346e-002
3.131962e+003;5.014544e-002
3.133890e+003;5.026706e-002
3.135819e+003;5.045228e-002
3.137748e+003;5.033492e-002
3.139676e+003;5.039386e-002
3.141605e+003;5.023410e-002
3.143533e+003;4.984248e-002
3.145462e+003;4.986794e-002
3.147390e+003;4.999715e-002
3.149319e+003;4.995971e-002
3.151247e+003;4.986801e-002
3.153176e+003;4.981974e-002
3.155104e+003;4.972844e-002
3.157033e+003;4.962457e-002
3.158962e+003;4.953239e-002
3.160890e+003;4.961228e-002
3.162819e+003;4.970370e-002
3.164747e+003;4.963787e-002
3.166676e+003;4.963367e-002
3.168604e+003;4.960730e-002
3.170533e+003;4.968416e-002
3.172461e+003;4.974331e-002
3.174390e+003;4.971020e-002
3.176319e+003;4.954498e-002
3.178247e+003;4.964924e-002
3.180176e+003;4.957309e-002
3.182104e+003;4.948085e-002
3.184033e+003;4.948363e-002
3.185961e+003;4.982115e-002
3.187890e+003;4.997246e-002
3.189818e+003;4.986170e-002
3.191747e+003;4.965176e-002
3.193676e+003;4.958416e-002
3.195604e+003;4.973799e-002
3.197532e+003;4.988775e-002
3.199461e+003;5.005273e-002
3.201390e+003;5.015406e-002
3.203318e+003;5.020078e-002
3.205247e+003;4.997410e-002
3.207175e+003;4.967320e-002
3.209104e+003;4.962383e-002
3.211032e+003;4.984490e-002
3.212961e+003;5.040443e-002
3.214889e+003;5.072616e-002
3.216818e+003;5.033071e-002
3.218747e+003;5.012479e-002
3.220675e+003;5.057790e-002
3.222604e+003;5.082203e-002
3.224532e+003;5.093714e-002
3.226461e+003;5.116898e-002
3.228389e+003;5.119872e-002
3.230318e+003;5.115224e-002
3.232246e+003;5.119794e-002
3.234175e+003;5.111504e-002
3.236104e+003;5.125122e-002
3.238032e+003;5.168042e-002
3.239961e+003;5.165456e-002
3.241889e+003;5.156650e-002
3.243818e+003;5.176317e-002
3.245746e+003;5.191964e-002
3.247675e+003;5.214345e-002
3.249603e+003;5.216236e-002
3.251532e+003;5.209481e-002
3.253460e+003;5.210109e-002
3.255389e+003;5.233744e-002
3.257318e+003;5.255503e-002
3.259246e+003;5.236368e-002
3.261175e+003;5.216613e-002
3.263103e+003;5.242835e-002
3.265032e+003;5.298324e-002
3.266960e+003;5.372697e-002
3.268889e+003;5.383689e-002
3.270817e+003;5.348308e-002
3.272746e+003;5.352322e-002
3.274675e+003;5.367267e-002
3.276603e+003;5.387308e-002
3.278531e+003;5.417874e-002
3.280460e+003;5.419661e-002
3.282389e+003;5.410045e-002
3.284317e+003;5.426760e-002
3.286246e+003;5.422559e-002
3.288174e+003;5.440661e-002
3.290103e+003;5.458906e-002
3.292031e+003;5.446776e-002
3.293960e+003;5.443084e-002
3.295888e+003;5.487997e-002
3.297817e+003;5.524278e-002
3.299746e+003;5.538658e-002
3.301674e+003;5.544041e-002
3.303603e+003;5.570469e-002
3.305531e+003;5.610250e-002
3.307460e+003;5.607675e-002
3.309388e+003;5.608365e-002
3.311317e+003;5.647490e-002
3.313245e+003;5.660217e-002
3.315174e+003;5.669431e-002
3.317103e+003;5.704591e-002
3.319031e+003;5.688305e-002
3.320960e+003;5.651694e-002
3.322888e+003;5.646260e-002
3.324817e+003;5.697757e-002
3.326745e+003;5.735945e-002
3.328674e+003;5.725922e-002
3.330602e+003;5.760243e-002
3.332531e+003;5.799058e-002
3.334459e+003;5.782161e-002
3.336388e+003;5.792902e-002
3.338317e+003;5.787654e-002
3.340245e+003;5.767488e-002
3.342174e+003;5.805610e-002
3.344102e+003;5.854513e-002
3.346031e+003;5.886112e-002
3.347959e+003;5.909305e-002
3.349888e+003;5.905475e-002
3.351816e+003;5.927581e-002
3.353745e+003;5.945940e-002
3.355674e+003;5.915372e-002
3.357602e+003;5.921930e-002
3.359531e+003;5.942806e-002
3.361459e+003;5.943026e-002
3.363388e+003;5.962969e-002
3.365316e+003;6.001575e-002
3.367245e+003;6.039023e-002
3.369173e+003;6.084358e-002
3.371102e+003;6.086234e-002
3.373031e+003;6.065438e-002
3.374959e+003;6.064077e-002
3.376887e+003;6.084114e-002
3.378816e+003;6.136740e-002
3.380745e+003;6.149393e-002
3.382673e+003;6.112536e-002
3.384602e+003;6.108467e-002
3.386530e+003;6.136683e-002
3.388459e+003;6.188646e-002
3.390387e+003;6.205709e-002
3.392316e+003;6.239998e-002
3.394244e+003;6.301320e-002
3.396173e+003;6.260457e-002
3.398102e+003;6.218933e-002
3.400030e+003;6.284674e-002
3.401959e+003;6.337701e-002
3.403887e+003;6.318811e-002
3.405816e+003;6.347026e-002
3.407744e+003;6.361812e-002
3.409673e+003;6.326028e-002
3.411601e+003;6.340810e-002
3.413530e+003;6.377051e-002
3.415458e+003;6.371622e-002
3.417387e+003;6.369013e-002
3.419316e+003;6.391072e-002
3.421244e+003;6.405012e-002
3.423173e+003;6.449290e-002
3.425101e+003;6.509188e-002
3.427030e+003;6.529343e-002
3.428958e+003;6.556173e-002
3.430887e+003;6.600262e-002
3.432815e+003;6.605837e-002
3.434744e+003;6.591650e-002
3.436673e+003;6.571215e-002
3.438601e+003;6.587940e-002
3.440530e+003;6.621706e-002
3.442458e+003;6.663386e-002
3.444387e+003;6.699058e-002
3.446315e+003;6.724171e-002
3.448244e+003;6.732009e-002
3.450172e+003;6.728794e-002
3.452101e+003;6.789509e-002
3.454030e+003;6.829551e-002
3.455958e+003;6.832699e-002
3.457886e+003;6.868411e-002
3.459815e+003;6.898259e-002
3.461744e+003;6.896741e-002
3.463672e+003;6.919680e-002
3.465601e+003;6.961806e-002
3.467529e+003;6.973308e-002
3.469458e+003;6.988928e-002
3.471386e+003;7.004736e-002
3.473315e+003;6.994027e-002
3.475243e+003;6.991197e-002
3.477172e+003;6.999784e-002
3.479101e+003;6.994673e-002
3.481029e+003;6.985044e-002
3.482958e+003;6.988060e-002
3.484886e+003;7.008006e-002
3.486815e+003;6.987048e-002
3.488743e+003;6.964941e-002
3.490672e+003;6.987803e-002
3.492600e+003;6.979701e-002
3.494529e+003;6.962549e-002
3.496458e+003;6.978853e-002
3.498386e+003;6.984098e-002
3.500315e+003;6.975339e-002
3.502243e+003;6.957765e-002
3.504172e+003;6.958161e-002
3.506100e+003;6.942488e-002
3.508029e+003;6.911614e-002
3.509957e+003;6.884870e-002
3.511886e+003;6.909656e-002
3.513814e+003;6.942689e-002
3.515743e+003;6.874780e-002
3.517672e+003;6.806187e-002
3.519600e+003;6.824029e-002
3.521529e+003;6.860541e-002
3.523457e+003;6.847023e-002
3.525386e+003;6.802912e-002
3.527314e+003;6.777191e-002
3.529243e+003;6.772796e-002
3.531171e+003;6.749249e-002
3.533100e+003;6.727506e-002
3.535029e+003;6.701568e-002
3.536957e+003;6.655568e-002
3.538885e+003;6.642161e-002
3.540814e+003;6.667051e-002
3.542743e+003;6.668674e-002
3.544671e+003;6.592256e-002
3.546600e+003;6.521284e-002
3.548528e+003;6.487815e-002
3.550457e+003;6.462123e-002
3.552385e+003;6.458917e-002
3.554314e+003;6.472445e-002
3.556242e+003;6.436846e-002
3.558171e+003;6.334457e-002
3.560100e+003;6.273215e-002
3.562028e+003;6.285743e-002
3.563957e+003;6.247940e-002
3.565885e+003;6.153813e-002
3.567814e+003;6.115061e-002
3.569742e+003;6.136435e-002
3.571671e+003;6.140178e-002
3.573599e+003;6.094868e-002
3.575528e+003;6.061110e-002
3.577457e+003;6.028869e-002
3.579385e+003;5.967847e-002
3.581314e+003;5.929829e-002
3.583242e+003;5.913470e-002
3.585171e+003;5.851904e-002
3.587099e+003;5.764318e-002
3.589028e+003;5.722479e-002
3.590956e+003;5.743141e-002
3.592885e+003;5.737579e-002
3.594813e+003;5.679683e-002
3.596742e+003;5.617780e-002
3.598671e+003;5.584940e-002
3.600599e+003;5.570220e-002
3.602528e+003;5.521166e-002
3.604456e+003;5.507657e-002
3.606385e+003;5.486906e-002
3.608313e+003;5.410161e-002
3.610242e+003;5.353022e-002
3.612170e+003;5.321726e-002
3.614099e+003;5.300009e-002
3.616028e+003;5.251782e-002
3.617956e+003;5.204879e-002
3.619885e+003;5.227342e-002
3.621813e+003;5.235538e-002
3.623742e+003;5.217951e-002
3.625670e+003;5.182958e-002
3.627599e+003;5.090879e-002
3.629527e+003;5.033838e-002
3.631456e+003;5.043818e-002
3.633385e+003;5.024954e-002
3.635313e+003;4.993957e-002
3.637241e+003;4.969281e-002
3.639170e+003;4.904001e-002
3.641099e+003;4.857880e-002
3.643027e+003;4.835793e-002
3.644956e+003;4.784853e-002
3.646884e+003;4.669288e-002
3.648813e+003;4.593520e-002
3.650741e+003;4.596610e-002
3.652670e+003;4.610642e-002
3.654598e+003;4.538316e-002
3.656527e+003;4.448598e-002
3.658456e+003;4.418988e-002
3.660384e+003;4.370388e-002
3.662313e+003;4.325258e-002
3.664241e+003;4.270273e-002
3.666170e+003;4.216498e-002
3.668098e+003;4.100074e-002
3.670027e+003;3.959977e-002
3.671955e+003;3.921964e-002
3.673884e+003;3.844107e-002
3.675813e+003;3.754643e-002
3.677741e+003;3.767722e-002
3.679669e+003;3.739692e-002
3.681598e+003;3.688373e-002
3.683527e+003;3.624805e-002
3.685455e+003;3.554022e-002
3.687384e+003;3.487985e-002
3.689312e+003;3.464779e-002
3.691241e+003;3.491450e-002
3.693169e+003;3.495174e-002
3.695098e+003;3.487691e-002
3.697026e+003;3.455740e-002
3.698955e+003;3.410593e-002
3.700884e+003;3.348886e-002
3.702812e+003;3.321190e-002
3.704741e+003;3.347115e-002
3.706669e+003;3.362636e-002
3.708598e+003;3.335292e-002
3.710526e+003;3.274035e-002
3.712455e+003;3.268562e-002
3.714383e+003;3.313540e-002
3.716312e+003;3.305981e-002
3.718240e+003;3.287728e-002
3.720169e+003;3.267244e-002
3.722098e+003;3.236686e-002
3.724026e+003;3.215583e-002
3.725955e+003;3.229344e-002
3.727883e+003;3.276221e-002
3.729812e+003;3.251978e-002
3.731740e+003;3.168076e-002
3.733669e+003;3.130736e-002
3.735597e+003;3.151099e-002
3.737526e+003;3.208419e-002
3.739455e+003;3.241516e-002
3.741383e+003;3.219394e-002
3.743312e+003;3.104876e-002
3.745240e+003;3.080820e-002
3.747169e+003;3.106154e-002
3.749097e+003;3.078018e-002
3.751026e+003;3.065599e-002
3.752954e+003;3.103933e-002
3.754883e+003;3.154805e-002
3.756812e+003;3.110813e-002
3.758740e+003;3.128439e-002
3.760668e+003;3.203254e-002
3.762597e+003;3.192704e-002
3.764526e+003;3.157452e-002
3.766454e+003;3.161101e-002
3.768383e+003;3.128938e-002
3.770311e+003;3.099310e-002
3.772240e+003;3.148036e-002
3.774168e+003;3.190550e-002
3.776097e+003;3.205070e-002
3.778025e+003;3.198414e-002
3.779954e+003;3.189398e-002
3.781883e+003;3.208522e-002
3.783811e+003;3.219622e-002
3.785740e+003;3.208605e-002
3.787668e+003;3.177383e-002
3.789597e+003;3.172075e-002
3.791525e+003;3.208993e-002
3.793454e+003;3.248122e-002
3.795382e+003;3.253078e-002
3.797311e+003;3.264704e-002
3.799240e+003;3.208915e-002
3.801168e+003;3.117711e-002
3.803097e+003;3.144915e-002
3.805025e+003;3.163863e-002
3.806954e+003;3.149536e-002
3.808882e+003;3.202951e-002
3.810811e+003;3.256110e-002
3.812739e+003;3.241181e-002
3.814668e+003;3.176688e-002
3.816596e+003;3.149432e-002
3.818525e+003;3.165399e-002
3.820454e+003;3.175076e-002
3.822382e+003;3.194644e-002
3.824311e+003;3.190382e-002
3.826239e+003;3.185918e-002
3.828168e+003;3.211377e-002
3.830096e+003;3.234530e-002
3.832025e+003;3.192433e-002
3.833953e+003;3.131014e-002
3.835882e+003;3.124145e-002
3.837811e+003;3.138193e-002
3.839739e+003;3.178370e-002
3.841667e+003;3.179247e-002
3.843596e+003;3.142703e-002
3.845525e+003;3.149468e-002
3.847453e+003;3.172160e-002
3.849382e+003;3.193085e-002
3.851310e+003;3.116540e-002
3.853239e+003;3.052303e-002
3.855167e+003;3.137004e-002
3.857096e+003;3.193160e-002
3.859024e+003;3.174025e-002
3.860953e+003;3.183518e-002
3.862882e+003;3.202330e-002
3.864810e+003;3.211159e-002
3.866739e+003;3.233809e-002
3.868667e+003;3.230222e-002
3.870596e+003;3.233056e-002
3.872524e+003;3.233952e-002
3.874453e+003;3.220311e-002
3.876381e+003;3.260832e-002
3.878310e+003;3.284347e-002
3.880239e+003;3.275157e-002
3.882167e+003;3.283519e-002
3.884096e+003;3.303893e-002
3.886024e+003;3.338047e-002
3.887953e+003;3.333857e-002
3.889881e+003;3.275325e-002
3.891810e+003;3.298151e-002
3.893738e+003;3.364608e-002
3.895667e+003;3.371773e-002
3.897595e+003;3.310654e-002
3.899524e+003;3.287978e-002
3.901453e+003;3.335943e-002
3.903381e+003;3.355150e-002
3.905310e+003;3.384766e-002
3.907238e+003;3.426205e-002
3.909167e+003;3.458535e-002
3.911095e+003;3.448106e-002
3.913024e+003;3.409726e-002
3.914952e+003;3.406016e-002
3.916881e+003;3.442941e-002
3.918810e+003;3.495282e-002
3.920738e+003;3.514143e-002
3.922667e+003;3.475503e-002
3.924595e+003;3.450972e-002
3.926524e+003;3.495199e-002
3.928452e+003;3.549185e-002
3.930381e+003;3.586329e-002
3.932309e+003;3.614404e-002
3.934238e+003;3.594527e-002
3.936167e+003;3.582479e-002
3.938095e+003;3.586278e-002
3.940023e+003;3.614314e-002
3.941952e+003;3.612661e-002
3.943881e+003;3.577956e-002
3.945809e+003;3.564386e-002
3.947738e+003;3.569178e-002
3.949666e+003;3.644288e-002
3.951595e+003;3.656458e-002
3.953523e+003;3.612142e-002
3.955452e+003;3.659504e-002
3.957380e+003;3.688705e-002
3.959309e+003;3.666934e-002
3.961238e+003;3.669941e-002
3.963166e+003;3.703727e-002
3.965095e+003;3.777032e-002
3.967023e+003;3.812834e-002
3.968952e+003;3.816668e-002
3.970880e+003;3.818235e-002
3.972809e+003;3.850797e-002
3.974737e+003;3.869763e-002
3.976666e+003;3.844034e-002
3.978594e+003;3.830125e-002
3.980523e+003;3.854737e-002
3.982452e+003;3.838677e-002
3.984380e+003;3.824056e-002
3.986309e+003;3.816972e-002
3.988237e+003;3.846246e-002
3.990166e+003;3.837852e-002
3.992094e+003;3.786807e-002
3.994023e+003;3.785614e-002
3.995951e+003;3.821144e-002
3.997880e+003;3.861287e-002
3.999809e+003;3.903981e-002
4.001737e+003;0.000000e+000
