3.992094e+002;0.000000e+000
4.011380e+002;0.000000e+000
4.030665e+002;0.000000e+000
4.049951e+002;0.000000e+000
4.069236e+002;0.000000e+000
4.088522e+002;0.000000e+000
4.107807e+002;0.000000e+000
4.127093e+002;0.000000e+000
4.146378e+002;0.000000e+000
4.165664e+002;0.000000e+000
4.184949e+002;0.000000e+000
4.204235e+002;0.000000e+000
4.223520e+002;0.000000e+000
4.242806e+002;0.000000e+000
4.262091e+002;0.000000e+000
4.281377e+002;0.000000e+000
4.300662e+002;0.000000e+000
4.319948e+002;0.000000e+000
4.339233e+002;0.000000e+000
4.358519e+002;0.000000e+000
4.377804e+002;0.000000e+000
4.397090e+002;0.000000e+000
4.416375e+002;0.000000e+000
4.435660e+002;0.000000e+000
4.454946e+002;0.000000e+000
4.474232e+002;0.000000e+000
4.493517e+002;0.000000e+000
4.512802e+002;0.000000e+000
4.532088e+002;0.000000e+000
4.551373e+002;0.000000e+000
4.570659e+002;0.000000e+000
4.589944e+002;0.000000e+000
4.609230e+002;0.000000e+000
4.628515e+002;0.000000e+000
4.647801e+002;0.000000e+000
4.667086e+002;0.000000e+000
4.686372e+002;0.000000e+000
4.705657e+002;0.000000e+000
4.724943e+002;0.000000e+000
4.744228e+002;0.000000e+000
4.763513e+002;0.000000e+000
4.782799e+002;0.000000e+000
4.802085e+002;0.000000e+000
4.821370e+002;0.000000e+000
4.840656e+002;0.000000e+000
4.859941e+002;0.000000e+000
4.879226e+002;0.000000e+000
4.898512e+002;0.000000e+000
4.917798e+002;0.000000e+000
4.937083e+002;0.000000e+000
4.956368e+002;0.000000e+000
4.975654e+002;0.000000e+000
4.994939e+002;0.000000e+000
5.014225e+002;0.000000e+000
5.033510e+002;0.000000e+000
5.052796e+002;0.000000e+000
5.072081e+002;0.000000e+000
5.091367e+002;0.000000e+000
5.110652e+002;0.000000e+000
5.129938e+002;0.000000e+000
5.149223e+002;0.000000e+000
5.168509e+002;0.000000e+000
5.187794e+002;0.000000e+000
5.207079e+002;0.000000e+000
5.226365e+002;0.000000e+000
5.245651e+002;0.000000e+000
5.264936e+002;0.000000e+000
5.284222e+002;0.000000e+000
5.303507e+002;0.000000e+000
5.322792e+002;0.000000e+000
5.342078e+002;0.000000e+000
5.361364e+002;0.000000e+000
5.380649e+002;0.000000e+000
5.399935e+002;0.000000e+000
5.419220e+002;0.000000e+000
5.438505e+002;0.000000e+000
5.457791e+002;0.000000e+000
5.477076e+002;0.000000e+000
5.496362e+002;0.000000e+000
5.515648e+002;0.000000e+000
5.534933e+002;0.000000e+000
5.554218e+002;0.000000e+000
5.573504e+002;0.000000e+000
5.592789e+002;0.000000e+000
5.612075e+002;0.000000e+000
5.631360e+002;0.000000e+000
5.650646e+002;0.000000e+000
5.669931e+002;0.000000e+000
5.689217e+002;0.000000e+000
5.708502e+002;0.000000e+000
5.727787e+002;0.000000e+000
5.747073e+002;0.000000e+000
5.766359e+002;0.000000e+000
5.785644e+002;0.000000e+000
5.804930e+002;0.000000e+000
5.824215e+002;0.000000e+000
5.843500e+002;0.000000e+000
5.862786e+002;0.000000e+000
5.882072e+002;0.000000e+000
5.901357e+002;0.000000e+000
5.920643e+002;0.000000e+000
5.939928e+002;0.000000e+000
5.959213e+002;0.000000e+000
5.978499e+002;0.000000e+000
5.997784e+002;1.933764e-001
6.017070e+002;1.923990e-001
6.036355e+002;1.914743e-001
6.055641e+002;1.843096e-001
6.074926e+002;1.733961e-001
6.094211e+002;1.638534e-001
6.113497e+002;1.600451e-001
6.132783e+002;1.588747e-001
6.152068e+002;1.575418e-001
6.171354e+002;1.536696e-001
6.190639e+002;1.485902e-001
6.209924e+002;1.479799e-001
6.229210e+002;1.467164e-001
6.248495e+002;1.421668e-001
6.267781e+002;1.415228e-001
6.287067e+002;1.407542e-001
6.306352e+002;1.343077e-001
6.325637e+002;1.311140e-001
6.344923e+002;1.318461e-001
6.364208e+002;1.310026e-001
6.383494e+002;1.298677e-001
6.402780e+002;1.325171e-001
6.422065e+002;1.316476e-001
6.441350e+002;1.247198e-001
6.460636e+002;1.223954e-001
6.479921e+002;1.223512e-001
6.499207e+002;1.206302e-001
6.518492e+002;1.197228e-001
6.537778e+002;1.214265e-001
6.557063e+002;1.210538e-001
6.576349e+002;1.195339e-001
6.595634e+002;1.177480e-001
6.614919e+002;1.142197e-001
6.634205e+002;1.108238e-001
6.653491e+002;1.090327e-001
6.672776e+002;1.080821e-001
6.692062e+002;1.096086e-001
6.711347e+002;1.113799e-001
6.730632e+002;1.110975e-001
6.749918e+002;1.116411e-001
6.769203e+002;1.124881e-001
6.788489e+002;1.126916e-001
6.807775e+002;1.113975e-001
6.827060e+002;1.107620e-001
6.846345e+002;1.116499e-001
6.865631e+002;1.125793e-001
6.884916e+002;1.121889e-001
6.904202e+002;1.114208e-001
6.923488e+002;1.102742e-001
6.942773e+002;1.089653e-001
6.962058e+002;1.078979e-001
6.981344e+002;1.066517e-001
7.000629e+002;1.052804e-001
7.019915e+002;1.037493e-001
7.039200e+002;1.023329e-001
7.058486e+002;1.006925e-001
7.077771e+002;9.976730e-002
7.097057e+002;9.938096e-002
7.116342e+002;9.882823e-002
7.135627e+002;9.888635e-002
7.154913e+002;9.864485e-002
7.174199e+002;9.659900e-002
7.193484e+002;9.474077e-002
7.212770e+002;9.470648e-002
7.232055e+002;9.472767e-002
7.251340e+002;9.312024e-002
7.270626e+002;9.083332e-002
7.289911e+002;8.918932e-002
7.309197e+002;8.757762e-002
7.328483e+002;8.515996e-002
7.347768e+002;8.283363e-002
7.367053e+002;8.076393e-002
7.386339e+002;7.923018e-002
7.405624e+002;7.853516e-002
7.424910e+002;7.804191e-002
7.444196e+002;7.742969e-002
7.463481e+002;7.662819e-002
7.482766e+002;7.567181e-002
7.502052e+002;7.523758e-002
7.521337e+002;7.499848e-002
7.540623e+002;7.500683e-002
7.559908e+002;7.464897e-002
7.579194e+002;7.497773e-002
7.598479e+002;7.538792e-002
7.617765e+002;7.452319e-002
7.637050e+002;7.397876e-002
7.656335e+002;7.394803e-002
7.675621e+002;7.404551e-002
7.694907e+002;7.374459e-002
7.714192e+002;7.300290e-002
7.733478e+002;7.275295e-002
7.752763e+002;7.328699e-002
7.772048e+002;7.375645e-002
7.791334e+002;7.361378e-002
7.810620e+002;7.402755e-002
7.829905e+002;7.471897e-002
7.849191e+002;7.511813e-002
7.868476e+002;7.507548e-002
7.887761e+002;7.460443e-002
7.907047e+002;7.500557e-002
7.926332e+002;7.574734e-002
7.945618e+002;7.637312e-002
7.964903e+002;7.710199e-002
7.984189e+002;7.799464e-002
8.003474e+002;7.881749e-002
8.022759e+002;7.968498e-002
8.042045e+002;8.105499e-002
8.061331e+002;8.250620e-002
8.080616e+002;8.310268e-002
8.099902e+002;8.346670e-002
8.119187e+002;8.477024e-002
8.138472e+002;8.616158e-002
8.157758e+002;8.814462e-002
8.177043e+002;8.965487e-002
8.196329e+002;9.122694e-002
8.215615e+002;9.349304e-002
8.234900e+002;9.599445e-002
8.254185e+002;9.911204e-002
8.273471e+002;1.025793e-001
8.292756e+002;1.065718e-001
8.312042e+002;1.113635e-001
8.331328e+002;1.158075e-001
8.350613e+002;1.186858e-001
8.369898e+002;1.206984e-001
8.389184e+002;1.223250e-001
8.408469e+002;1.225792e-001
8.427755e+002;1.206976e-001
8.447040e+002;1.183936e-001
8.466326e+002;1.161847e-001
8.485611e+002;1.134041e-001
8.504897e+002;1.111103e-001
8.524182e+002;1.092088e-001
8.543467e+002;1.078967e-001
8.562753e+002;1.084308e-001
8.582039e+002;1.097695e-001
8.601324e+002;1.115744e-001
8.620610e+002;1.145184e-001
8.639895e+002;1.182329e-001
8.659180e+002;1.227239e-001
8.678466e+002;1.282699e-001
8.697751e+002;1.348777e-001
8.717037e+002;1.418918e-001
8.736323e+002;1.478643e-001
8.755608e+002;1.522187e-001
8.774893e+002;1.555484e-001
8.794179e+002;1.582687e-001
8.813464e+002;1.607917e-001
8.832750e+002;1.635453e-001
8.852036e+002;1.665626e-001
8.871321e+002;1.703919e-001
8.890606e+002;1.755353e-001
8.909892e+002;1.817462e-001
8.929177e+002;1.884027e-001
8.948463e+002;1.951179e-001
8.967748e+002;2.002551e-001
8.987034e+002;2.020845e-001
9.006319e+002;2.013867e-001
9.025605e+002;1.987504e-001
9.044890e+002;1.939345e-001
9.064175e+002;1.881524e-001
9.083461e+002;1.820225e-001
9.102747e+002;1.757904e-001
9.122032e+002;1.698427e-001
9.141318e+002;1.649628e-001
9.160603e+002;1.608101e-001
9.179888e+002;1.574159e-001
9.199174e+002;1.546514e-001
9.218459e+002;1.520898e-001
9.237745e+002;1.499163e-001
9.257031e+002;1.482587e-001
9.276316e+002;1.472272e-001
9.295601e+002;1.466541e-001
9.314887e+002;1.463771e-001
9.334172e+002;1.459751e-001
9.353458e+002;1.461434e-001
9.372744e+002;1.470069e-001
9.392029e+002;1.480298e-001
9.411314e+002;1.494980e-001
9.430600e+002;1.517904e-001
9.449885e+002;1.542185e-001
9.469171e+002;1.564778e-001
9.488456e+002;1.583127e-001
9.507742e+002;1.601477e-001
9.527027e+002;1.620703e-001
9.546313e+002;1.637904e-001
9.565598e+002;1.655471e-001
9.584883e+002;1.673392e-001
9.604169e+002;1.692625e-001
9.623455e+002;1.716362e-001
9.642740e+002;1.751399e-001
9.662026e+002;1.797689e-001
9.681311e+002;1.852596e-001
9.700596e+002;1.919928e-001
9.719882e+002;1.994061e-001
9.739167e+002;2.067502e-001
9.758453e+002;2.139092e-001
9.777739e+002;2.212528e-001
9.797024e+002;2.285598e-001
9.816309e+002;2.349872e-001
9.835595e+002;2.411576e-001
9.854880e+002;2.470893e-001
9.874166e+002;2.522274e-001
9.893452e+002;2.568821e-001
9.912737e+002;2.611282e-001
9.932022e+002;2.657599e-001
9.951307e+002;2.704684e-001
9.970593e+002;2.763823e-001
9.989879e+002;2.842615e-001
1.000916e+003;2.932515e-001
1.002845e+003;3.034891e-001
1.004773e+003;3.155350e-001
1.006702e+003;3.289289e-001
1.008631e+003;3.432249e-001
1.010559e+003;3.584805e-001
1.012488e+003;3.750500e-001
1.014416e+003;3.930202e-001
1.016345e+003;4.115184e-001
1.018273e+003;4.303688e-001
1.020202e+003;4.492757e-001
1.022130e+003;4.680510e-001
1.024059e+003;4.863242e-001
1.025988e+003;5.026856e-001
1.027916e+003;5.174996e-001
1.029845e+003;5.295818e-001
1.031773e+003;5.362316e-001
1.033702e+003;5.391299e-001
1.035630e+003;5.390572e-001
1.037559e+003;5.358918e-001
1.039487e+003;5.295649e-001
1.041416e+003;5.220671e-001
1.043344e+003;5.130231e-001
1.045273e+003;5.013167e-001
1.047202e+003;4.873634e-001
1.049130e+003;4.723951e-001
1.051059e+003;4.564864e-001
1.052987e+003;4.401793e-001
1.054916e+003;4.244956e-001
1.056844e+003;4.096536e-001
1.058773e+003;3.954364e-001
1.060701e+003;3.824735e-001
1.062630e+003;3.715024e-001
1.064558e+003;3.618852e-001
1.066487e+003;3.523259e-001
1.068416e+003;3.432043e-001
1.070344e+003;3.343885e-001
1.072273e+003;3.252147e-001
1.074201e+003;3.157450e-001
1.076130e+003;3.065668e-001
1.078058e+003;2.978844e-001
1.079987e+003;2.887188e-001
1.081915e+003;2.797709e-001
1.083844e+003;2.714834e-001
1.085773e+003;2.630939e-001
1.087701e+003;2.550431e-001
1.089630e+003;2.468379e-001
1.091558e+003;2.383026e-001
1.093487e+003;2.305649e-001
1.095415e+003;2.238646e-001
1.097344e+003;2.183609e-001
1.099272e+003;2.133826e-001
1.101201e+003;2.091406e-001
1.103129e+003;2.062365e-001
1.105058e+003;2.037941e-001
1.106987e+003;2.018648e-001
1.108915e+003;2.003450e-001
1.110844e+003;1.989998e-001
1.112772e+003;1.984558e-001
1.114701e+003;1.981493e-001
1.116629e+003;1.973938e-001
1.118558e+003;1.961166e-001
1.120486e+003;1.944861e-001
1.122415e+003;1.928346e-001
1.124344e+003;1.906797e-001
1.126272e+003;1.882020e-001
1.128201e+003;1.857166e-001
1.130129e+003;1.832478e-001
1.132058e+003;1.801882e-001
1.133986e+003;1.771533e-001
1.135915e+003;1.753122e-001
1.137843e+003;1.744259e-001
1.139772e+003;1.737594e-001
1.141700e+003;1.736492e-001
1.143629e+003;1.742366e-001
1.145557e+003;1.754068e-001
1.147486e+003;1.767440e-001
1.149415e+003;1.789470e-001
1.151343e+003;1.815288e-001
1.153272e+003;1.838231e-001
1.155200e+003;1.858969e-001
1.157129e+003;1.877964e-001
1.159057e+003;1.891884e-001
1.160986e+003;1.901136e-001
1.162914e+003;1.902417e-001
1.164843e+003;1.896702e-001
1.166771e+003;1.888595e-001
1.168700e+003;1.873197e-001
1.170629e+003;1.856317e-001
1.172557e+003;1.840310e-001
1.174486e+003;1.821996e-001
1.176414e+003;1.805987e-001
1.178343e+003;1.792402e-001
1.180271e+003;1.788692e-001
1.182200e+003;1.794645e-001
1.184128e+003;1.814861e-001
1.186057e+003;1.862206e-001
1.187986e+003;1.931534e-001
1.189914e+003;2.028216e-001
1.191843e+003;2.160029e-001
1.193771e+003;2.325393e-001
1.195700e+003;2.529657e-001
1.197628e+003;2.770227e-001
1.199557e+003;3.049425e-001
1.201485e+003;3.359434e-001
1.203414e+003;3.681546e-001
1.205343e+003;3.988817e-001
1.207271e+003;4.265486e-001
1.209200e+003;4.498261e-001
1.211128e+003;4.671041e-001
1.213057e+003;4.787443e-001
1.214985e+003;4.860088e-001
1.216914e+003;4.891696e-001
1.218842e+003;4.892161e-001
1.220771e+003;4.881883e-001
1.222699e+003;4.859954e-001
1.224628e+003;4.824073e-001
1.226557e+003;4.772482e-001
1.228485e+003;4.697155e-001
1.230414e+003;4.592584e-001
1.232342e+003;4.463142e-001
1.234271e+003;4.316442e-001
1.236199e+003;4.148091e-001
1.238128e+003;3.965538e-001
1.240056e+003;3.779142e-001
1.241985e+003;3.593942e-001
1.243913e+003;3.412726e-001
1.245842e+003;3.231983e-001
1.247771e+003;3.061901e-001
1.249699e+003;2.903822e-001
1.251628e+003;2.747074e-001
1.253556e+003;2.598239e-001
1.255485e+003;2.459712e-001
1.257413e+003;2.326262e-001
1.259342e+003;2.200796e-001
1.261270e+003;2.083724e-001
1.263199e+003;1.974217e-001
1.265127e+003;1.876061e-001
1.267056e+003;1.786522e-001
1.268985e+003;1.701064e-001
1.270913e+003;1.621882e-001
1.272842e+003;1.551238e-001
1.274770e+003;1.487947e-001
1.276699e+003;1.426749e-001
1.278627e+003;1.373072e-001
1.280556e+003;1.325748e-001
1.282484e+003;1.280890e-001
1.284413e+003;1.243289e-001
1.286342e+003;1.210198e-001
1.288270e+003;1.178918e-001
1.290199e+003;1.150861e-001
1.292127e+003;1.125001e-001
1.294056e+003;1.103041e-001
1.295984e+003;1.082364e-001
1.297913e+003;1.064193e-001
1.299841e+003;1.048047e-001
1.301770e+003;1.034358e-001
1.303698e+003;1.024464e-001
1.305627e+003;1.016981e-001
1.307556e+003;1.013135e-001
1.309484e+003;1.011199e-001
1.311413e+003;1.011759e-001
1.313341e+003;1.015015e-001
1.315270e+003;1.016737e-001
1.317198e+003;1.016389e-001
1.319127e+003;1.015326e-001
1.321055e+003;1.015129e-001
1.322984e+003;1.011751e-001
1.324912e+003;1.007994e-001
1.326841e+003;1.005579e-001
1.328770e+003;1.000008e-001
1.330698e+003;9.951460e-002
1.332627e+003;9.911621e-002
1.334555e+003;9.872295e-002
1.336484e+003;9.853239e-002
1.338412e+003;9.840016e-002
1.340341e+003;9.852997e-002
1.342269e+003;9.918269e-002
1.344198e+003;1.004055e-001
1.346126e+003;1.024238e-001
1.348055e+003;1.058262e-001
1.349984e+003;1.111057e-001
1.351912e+003;1.191423e-001
1.353841e+003;1.304699e-001
1.355769e+003;1.454643e-001
1.357698e+003;1.639022e-001
1.359626e+003;1.838585e-001
1.361555e+003;2.024402e-001
1.363483e+003;2.167697e-001
1.365412e+003;2.247507e-001
1.367341e+003;2.261884e-001
1.369269e+003;2.227503e-001
1.371198e+003;2.160803e-001
1.373126e+003;2.073446e-001
1.375055e+003;1.978446e-001
1.376983e+003;1.881703e-001
1.378912e+003;1.780341e-001
1.380840e+003;1.674441e-001
1.382769e+003;1.567317e-001
1.384698e+003;1.460909e-001
1.386626e+003;1.361984e-001
1.388555e+003;1.273618e-001
1.390483e+003;1.196430e-001
1.392412e+003;1.132000e-001
1.394340e+003;1.082299e-001
1.396269e+003;1.048057e-001
1.398197e+003;1.024195e-001
1.400126e+003;1.007461e-001
1.402054e+003;9.995233e-002
1.403983e+003;9.959549e-002
1.405911e+003;9.960878e-002
1.407840e+003;1.002331e-001
1.409769e+003;1.011452e-001
1.411697e+003;1.021148e-001
1.413626e+003;1.032481e-001
1.415554e+003;1.047439e-001
1.417483e+003;1.065094e-001
1.419411e+003;1.085377e-001
1.421340e+003;1.110388e-001
1.423268e+003;1.138584e-001
1.425197e+003;1.164099e-001
1.427125e+003;1.184329e-001
1.429054e+003;1.197390e-001
1.430983e+003;1.202115e-001
1.432911e+003;1.198579e-001
1.434840e+003;1.185779e-001
1.436768e+003;1.166130e-001
1.438697e+003;1.144350e-001
1.440625e+003;1.119253e-001
1.442554e+003;1.092056e-001
1.444482e+003;1.065532e-001
1.446411e+003;1.039733e-001
1.448340e+003;1.015149e-001
1.450268e+003;9.924652e-002
1.452197e+003;9.705355e-002
1.454125e+003;9.503739e-002
1.456054e+003;9.300444e-002
1.457982e+003;9.090640e-002
1.459911e+003;8.909367e-002
1.461839e+003;8.724887e-002
1.463768e+003;8.499399e-002
1.465697e+003;8.254487e-002
1.467625e+003;8.070412e-002
1.469554e+003;7.898295e-002
1.471482e+003;7.689327e-002
1.473411e+003;7.478935e-002
1.475339e+003;7.313462e-002
1.477268e+003;7.200212e-002
1.479196e+003;7.097122e-002
1.481125e+003;6.997000e-002
1.483053e+003;6.926970e-002
1.484982e+003;6.861464e-002
1.486911e+003;6.801474e-002
1.488839e+003;6.755729e-002
1.490768e+003;6.702898e-002
1.492696e+003;6.647180e-002
1.494625e+003;6.609146e-002
1.496553e+003;6.584724e-002
1.498482e+003;6.568892e-002
1.500410e+003;6.580583e-002
1.502339e+003;6.589521e-002
1.504267e+003;6.566035e-002
1.506196e+003;6.542069e-002
1.508125e+003;6.555846e-002
1.510053e+003;6.552929e-002
1.511982e+003;6.540065e-002
1.513910e+003;6.554678e-002
1.515839e+003;6.575359e-002
1.517767e+003;6.578382e-002
1.519696e+003;6.563041e-002
1.521624e+003;6.539850e-002
1.523553e+003;6.552023e-002
1.525481e+003;6.575787e-002
1.527410e+003;6.599090e-002
1.529339e+003;6.619908e-002
1.531267e+003;6.606712e-002
1.533196e+003;6.607094e-002
1.535124e+003;6.619927e-002
1.537053e+003;6.598191e-002
1.538981e+003;6.559063e-002
1.540910e+003;6.551592e-002
1.542838e+003;6.582322e-002
1.544767e+003;6.608464e-002
1.546695e+003;6.623609e-002
1.548624e+003;6.621224e-002
1.550553e+003;6.621363e-002
1.552481e+003;6.621961e-002
1.554410e+003;6.607109e-002
1.556338e+003;6.590682e-002
1.558267e+003;6.564405e-002
1.560195e+003;6.584412e-002
1.562124e+003;6.631985e-002
1.564052e+003;6.648806e-002
1.565981e+003;6.644802e-002
1.567910e+003;6.621401e-002
1.569838e+003;6.613680e-002
1.571767e+003;6.638370e-002
1.573695e+003;6.645609e-002
1.575624e+003;6.617249e-002
1.577552e+003;6.619267e-002
1.579481e+003;6.670108e-002
1.581409e+003;6.712982e-002
1.583338e+003;6.728678e-002
1.585266e+003;6.720207e-002
1.587195e+003;6.748130e-002
1.589124e+003;6.808295e-002
1.591052e+003;6.856618e-002
1.592981e+003;6.904474e-002
1.594909e+003;6.952523e-002
1.596838e+003;7.013334e-002
1.598766e+003;7.097192e-002
1.600695e+003;7.159401e-002
1.602623e+003;7.231068e-002
1.604552e+003;7.334340e-002
1.606480e+003;7.407180e-002
1.608409e+003;7.446396e-002
1.610338e+003;7.478757e-002
1.612266e+003;7.538343e-002
1.614195e+003;7.621864e-002
1.616123e+003;7.702575e-002
1.618052e+003;7.792847e-002
1.619980e+003;7.882699e-002
1.621909e+003;7.950493e-002
1.623837e+003;8.027054e-002
1.625766e+003;8.134887e-002
1.627694e+003;8.248056e-002
1.629623e+003;8.349621e-002
1.631552e+003;8.402120e-002
1.633480e+003;8.421314e-002
1.635409e+003;8.461130e-002
1.637337e+003;8.543042e-002
1.639266e+003;8.643792e-002
1.641194e+003;8.730047e-002
1.643123e+003;8.844561e-002
1.645051e+003;8.941230e-002
1.646980e+003;8.972155e-002
1.648909e+003;8.990740e-002
1.650837e+003;8.947386e-002
1.652766e+003;8.849026e-002
1.654694e+003;8.824801e-002
1.656623e+003;8.827846e-002
1.658551e+003;8.784460e-002
1.660480e+003;8.785251e-002
1.662408e+003;8.840155e-002
1.664337e+003;8.891318e-002
1.666266e+003;8.924791e-002
1.668194e+003;8.947358e-002
1.670123e+003;8.983225e-002
1.672051e+003;9.076092e-002
1.673980e+003;9.181546e-002
1.675908e+003;9.275400e-002
1.677837e+003;9.399964e-002
1.679765e+003;9.564745e-002
1.681694e+003;9.759390e-002
1.683622e+003;9.930303e-002
1.685551e+003;1.014036e-001
1.687479e+003;1.042032e-001
1.689408e+003;1.072920e-001
1.691337e+003;1.106406e-001
1.693265e+003;1.145332e-001
1.695194e+003;1.187903e-001
1.697122e+003;1.235951e-001
1.699051e+003;1.289149e-001
1.700979e+003;1.349631e-001
1.702908e+003;1.419926e-001
1.704836e+003;1.496053e-001
1.706765e+003;1.580566e-001
1.708693e+003;1.676780e-001
1.710622e+003;1.784578e-001
1.712551e+003;1.904617e-001
1.714479e+003;2.034762e-001
1.716408e+003;2.175857e-001
1.718336e+003;2.327308e-001
1.720265e+003;2.487413e-001
1.722193e+003;2.653847e-001
1.724122e+003;2.821124e-001
1.726050e+003;2.977558e-001
1.727979e+003;3.120376e-001
1.729908e+003;3.247652e-001
1.731836e+003;3.354020e-001
1.733765e+003;3.431414e-001
1.735693e+003;3.482703e-001
1.737622e+003;3.497834e-001
1.739550e+003;3.474095e-001
1.741479e+003;3.422685e-001
1.743407e+003;3.351253e-001
1.745336e+003;3.261212e-001
1.747265e+003;3.152990e-001
1.749193e+003;3.029009e-001
1.751122e+003;2.893092e-001
1.753050e+003;2.742862e-001
1.754979e+003;2.575065e-001
1.756907e+003;2.388832e-001
1.758836e+003;2.194140e-001
1.760764e+003;1.994300e-001
1.762693e+003;1.794958e-001
1.764621e+003;1.611541e-001
1.766550e+003;1.446979e-001
1.768479e+003;1.300956e-001
1.770407e+003;1.178937e-001
1.772336e+003;1.079291e-001
1.774264e+003;1.002908e-001
1.776193e+003;9.415407e-002
1.778121e+003;8.901554e-002
1.780050e+003;8.473995e-002
1.781978e+003;8.125322e-002
1.783907e+003;7.840373e-002
1.785835e+003;7.596239e-002
1.787764e+003;7.398410e-002
1.789693e+003;7.222831e-002
1.791621e+003;7.084061e-002
1.793550e+003;6.987107e-002
1.795478e+003;6.907146e-002
1.797407e+003;6.807709e-002
1.799335e+003;6.709084e-002
1.801264e+003;6.637408e-002
1.803192e+003;6.556860e-002
1.805121e+003;6.486049e-002
1.807049e+003;6.420939e-002
1.808978e+003;6.367148e-002
1.810907e+003;6.324050e-002
1.812835e+003;6.252998e-002
1.814764e+003;6.193185e-002
1.816692e+003;6.144041e-002
1.818621e+003;6.086542e-002
1.820549e+003;6.048460e-002
1.822478e+003;6.019007e-002
1.824406e+003;5.971774e-002
1.826335e+003;5.928162e-002
1.828264e+003;5.888347e-002
1.830192e+003;5.842984e-002
1.832121e+003;5.815204e-002
1.834049e+003;5.784512e-002
1.835978e+003;5.740498e-002
1.837906e+003;5.700375e-002
1.839835e+003;5.675046e-002
1.841763e+003;5.653887e-002
1.843692e+003;5.632821e-002
1.845620e+003;5.613707e-002
1.847549e+003;5.580739e-002
1.849478e+003;5.544113e-002
1.851406e+003;5.530216e-002
1.853335e+003;5.534454e-002
1.855263e+003;5.512073e-002
1.857192e+003;5.472073e-002
1.859120e+003;5.463347e-002
1.861049e+003;5.448868e-002
1.862977e+003;5.425848e-002
1.864906e+003;5.416028e-002
1.866834e+003;5.384547e-002
1.868763e+003;5.365933e-002
1.870692e+003;5.357202e-002
1.872620e+003;5.345384e-002
1.874549e+003;5.336265e-002
1.876477e+003;5.325970e-002
1.878406e+003;5.306152e-002
1.880334e+003;5.281572e-002
1.882263e+003;5.251618e-002
1.884191e+003;5.244274e-002
1.886120e+003;5.244600e-002
1.888048e+003;5.205648e-002
1.889977e+003;5.190415e-002
1.891906e+003;5.215081e-002
1.893834e+003;5.235422e-002
1.895763e+003;5.243855e-002
1.897691e+003;5.241878e-002
1.899620e+003;5.218377e-002
1.901548e+003;5.201910e-002
1.903477e+003;5.205379e-002
1.905405e+003;5.227405e-002
1.907334e+003;5.247127e-002
1.909262e+003;5.258342e-002
1.911191e+003;5.276611e-002
1.913120e+003;5.286111e-002
1.915048e+003;5.308066e-002
1.916977e+003;5.326708e-002
1.918905e+003;5.330368e-002
1.920834e+003;5.355234e-002
1.922762e+003;5.366904e-002
1.924691e+003;5.367342e-002
1.926619e+003;5.372535e-002
1.928548e+003;5.375243e-002
1.930477e+003;5.354514e-002
1.932405e+003;5.347420e-002
1.934334e+003;5.351186e-002
1.936262e+003;5.349278e-002
1.938191e+003;5.345778e-002
1.940119e+003;5.359323e-002
1.942048e+003;5.378989e-002
1.943976e+003;5.392079e-002
1.945905e+003;5.368973e-002
1.947833e+003;5.346190e-002
1.949762e+003;5.328671e-002
1.951691e+003;5.311874e-002
1.953619e+003;5.310121e-002
1.955548e+003;5.304707e-002
1.957476e+003;5.299904e-002
1.959405e+003;5.295273e-002
1.961333e+003;5.269809e-002
1.963262e+003;5.246596e-002
1.965190e+003;5.225955e-002
1.967119e+003;5.208510e-002
1.969047e+003;5.198276e-002
1.970976e+003;5.193316e-002
1.972905e+003;5.173126e-002
1.974833e+003;5.147375e-002
1.976762e+003;5.138957e-002
1.978690e+003;5.148118e-002
1.980619e+003;5.141325e-002
1.982547e+003;5.103685e-002
1.984476e+003;5.076408e-002
1.986404e+003;5.060150e-002
1.988333e+003;5.041001e-002
1.990261e+003;5.036130e-002
1.992190e+003;5.049039e-002
1.994119e+003;5.049765e-002
1.996047e+003;5.064216e-002
1.997976e+003;5.068822e-002
1.999904e+003;5.059410e-002
2.001833e+003;5.050465e-002
2.003761e+003;5.052973e-002
2.005690e+003;5.072054e-002
2.007618e+003;5.080706e-002
2.009547e+003;5.080635e-002
2.011476e+003;5.100771e-002
2.013404e+003;5.112872e-002
2.015333e+003;5.135406e-002
2.017261e+003;5.177340e-002
2.019190e+003;5.197107e-002
2.021118e+003;5.196323e-002
2.023047e+003;5.195075e-002
2.024975e+003;5.213964e-002
2.026904e+003;5.225529e-002
2.028833e+003;5.214696e-002
2.030761e+003;5.232129e-002
2.032690e+003;5.251789e-002
2.034618e+003;5.249509e-002
2.036547e+003;5.246955e-002
2.038475e+003;5.258970e-002
2.040404e+003;5.270711e-002
2.042332e+003;5.279810e-002
2.044261e+003;5.281969e-002
2.046189e+003;5.268754e-002
2.048118e+003;5.253196e-002
2.050047e+003;5.273150e-002
2.051975e+003;5.287874e-002
2.053904e+003;5.290924e-002
2.055832e+003;5.319082e-002
2.057761e+003;5.332458e-002
2.059689e+003;5.331495e-002
2.061618e+003;5.337677e-002
2.063546e+003;5.336455e-002
2.065475e+003;5.335298e-002
2.067404e+003;5.349788e-002
2.069332e+003;5.354353e-002
2.071260e+003;5.352947e-002
2.073189e+003;5.368621e-002
2.075118e+003;5.389851e-002
2.077046e+003;5.397279e-002
2.078975e+003;5.399294e-002
2.080903e+003;5.412132e-002
2.082832e+003;5.432118e-002
2.084760e+003;5.466602e-002
2.086689e+003;5.505050e-002
2.088617e+003;5.526999e-002
2.090546e+003;5.537442e-002
2.092475e+003;5.546684e-002
2.094403e+003;5.584604e-002
2.096332e+003;5.633757e-002
2.098260e+003;5.664761e-002
2.100189e+003;5.666502e-002
2.102117e+003;5.669107e-002
2.104046e+003;5.714605e-002
2.105974e+003;5.740574e-002
2.107903e+003;5.737522e-002
2.109832e+003;5.737526e-002
2.111760e+003;5.749416e-002
2.113688e+003;5.759842e-002
2.115617e+003;5.771549e-002
2.117546e+003;5.763455e-002
2.119474e+003;5.754704e-002
2.121403e+003;5.770538e-002
2.123331e+003;5.758820e-002
2.125260e+003;5.745214e-002
2.127188e+003;5.753797e-002
2.129117e+003;5.746152e-002
2.131045e+003;5.731389e-002
2.132974e+003;5.705782e-002
2.134903e+003;5.687825e-002
2.136831e+003;5.668106e-002
2.138760e+003;5.660300e-002
2.140688e+003;5.660934e-002
2.142617e+003;5.635458e-002
2.144545e+003;5.600037e-002
2.146474e+003;5.564909e-002
2.148402e+003;5.538805e-002
2.150331e+003;5.529467e-002
2.152260e+003;5.517517e-002
2.154188e+003;5.501052e-002
2.156117e+003;5.492384e-002
2.158045e+003;5.472025e-002
2.159974e+003;5.423851e-002
2.161902e+003;5.390740e-002
2.163831e+003;5.361771e-002
2.165759e+003;5.339790e-002
2.167688e+003;5.312057e-002
2.169616e+003;5.288978e-002
2.171545e+003;5.264763e-002
2.173474e+003;5.244154e-002
2.175402e+003;5.227128e-002
2.177331e+003;5.207150e-002
2.179259e+003;5.194250e-002
2.181188e+003;5.155329e-002
2.183116e+003;5.121506e-002
2.185045e+003;5.102381e-002
2.186973e+003;5.098189e-002
2.188902e+003;5.088193e-002
2.190831e+003;5.060232e-002
2.192759e+003;5.039025e-002
2.194688e+003;5.032041e-002
2.196616e+003;5.045012e-002
2.198545e+003;5.028320e-002
2.200473e+003;5.016901e-002
2.202402e+003;5.022157e-002
2.204330e+003;5.023343e-002
2.206259e+003;5.026319e-002
2.208188e+003;5.027283e-002
2.210116e+003;5.006902e-002
2.212044e+003;4.992934e-002
2.213973e+003;4.984631e-002
2.215902e+003;4.980220e-002
2.217830e+003;4.979804e-002
2.219759e+003;4.976761e-002
2.221687e+003;4.969386e-002
2.223616e+003;4.963442e-002
2.225544e+003;4.942515e-002
2.227473e+003;4.924861e-002
2.229401e+003;4.913131e-002
2.231330e+003;4.912281e-002
2.233259e+003;4.928446e-002
2.235187e+003;4.938903e-002
2.237116e+003;4.935313e-002
2.239044e+003;4.941572e-002
2.240973e+003;4.952901e-002
2.242901e+003;4.961603e-002
2.244830e+003;4.967019e-002
2.246758e+003;4.966324e-002
2.248687e+003;4.955315e-002
2.250615e+003;4.943061e-002
2.252544e+003;4.938372e-002
2.254473e+003;4.935179e-002
2.256401e+003;4.920653e-002
2.258330e+003;4.919580e-002
2.260258e+003;4.928316e-002
2.262187e+003;4.941457e-002
2.264115e+003;4.932852e-002
2.266044e+003;4.906045e-002
2.267972e+003;4.914905e-002
2.269901e+003;4.932662e-002
2.271830e+003;4.915168e-002
2.273758e+003;4.878146e-002
2.275687e+003;4.864898e-002
2.277615e+003;4.879336e-002
2.279544e+003;4.879955e-002
2.281472e+003;4.863093e-002
2.283401e+003;4.842867e-002
2.285329e+003;4.819833e-002
2.287258e+003;4.805018e-002
2.289187e+003;4.777743e-002
2.291115e+003;4.745036e-002
2.293043e+003;4.710205e-002
2.294972e+003;4.693767e-002
2.296901e+003;4.693117e-002
2.298829e+003;4.667358e-002
2.300758e+003;4.647599e-002
2.302686e+003;4.652161e-002
2.304615e+003;4.647920e-002
2.306543e+003;4.640291e-002
2.308472e+003;4.644660e-002
2.310400e+003;4.640025e-002
2.312329e+003;4.613781e-002
2.314258e+003;4.604475e-002
2.316186e+003;4.608369e-002
2.318115e+003;4.588589e-002
2.320043e+003;4.591819e-002
2.321972e+003;4.603517e-002
2.323900e+003;4.608152e-002
2.325829e+003;4.623282e-002
2.327757e+003;4.622316e-002
2.329686e+003;4.608159e-002
2.331615e+003;4.609909e-002
2.333543e+003;4.616077e-002
2.335472e+003;4.635649e-002
2.337400e+003;4.679881e-002
2.339329e+003;4.701934e-002
2.341257e+003;4.716273e-002
2.343186e+003;4.730817e-002
2.345114e+003;4.744578e-002
2.347043e+003;4.751121e-002
2.348971e+003;4.741762e-002
2.350900e+003;4.735838e-002
2.352829e+003;4.755335e-002
2.354757e+003;4.781638e-002
2.356686e+003;4.781161e-002
2.358614e+003;4.788752e-002
2.360543e+003;4.785063e-002
2.362471e+003;4.777595e-002
2.364400e+003;4.765654e-002
2.366328e+003;4.760459e-002
2.368257e+003;4.775050e-002
2.370186e+003;4.767270e-002
2.372114e+003;4.760155e-002
2.374042e+003;4.750289e-002
2.375971e+003;4.743606e-002
2.377900e+003;4.730883e-002
2.379828e+003;4.727233e-002
2.381757e+003;4.740657e-002
2.383685e+003;4.748718e-002
2.385614e+003;4.758566e-002
2.387542e+003;4.785911e-002
2.389471e+003;4.799157e-002
2.391399e+003;4.798590e-002
2.393328e+003;4.801251e-002
2.395257e+003;4.810863e-002
2.397185e+003;4.812939e-002
2.399114e+003;4.832033e-002
2.401042e+003;4.885194e-002
2.402971e+003;4.917150e-002
2.404899e+003;4.934533e-002
2.406828e+003;4.961975e-002
2.408756e+003;4.985408e-002
2.410685e+003;4.999291e-002
2.412614e+003;5.000708e-002
2.414542e+003;5.013261e-002
2.416471e+003;5.012438e-002
2.418399e+003;4.982702e-002
2.420328e+003;4.977511e-002
2.422256e+003;4.986597e-002
2.424185e+003;4.990292e-002
2.426113e+003;4.982851e-002
2.428042e+003;4.981309e-002
2.429970e+003;4.980867e-002
2.431899e+003;4.989363e-002
2.433828e+003;5.004701e-002
2.435756e+003;5.005440e-002
2.437685e+003;5.011457e-002
2.439613e+003;5.019125e-002
2.441542e+003;5.010631e-002
2.443470e+003;5.026606e-002
2.445399e+003;5.040591e-002
2.447327e+003;5.022473e-002
2.449256e+003;5.011777e-002
2.451185e+003;4.993321e-002
2.453113e+003;4.983970e-002
2.455042e+003;5.020654e-002
2.456970e+003;5.036416e-002
2.458899e+003;5.024526e-002
2.460827e+003;5.021930e-002
2.462756e+003;4.997284e-002
2.464684e+003;4.984051e-002
2.466613e+003;5.000343e-002
2.468542e+003;5.013859e-002
2.470470e+003;4.980621e-002
2.472398e+003;4.961031e-002
2.474327e+003;4.974431e-002
2.476256e+003;5.005173e-002
2.478184e+003;5.024393e-002
2.480113e+003;5.008627e-002
2.482041e+003;4.992607e-002
2.483970e+003;4.976136e-002
2.485898e+003;4.959259e-002
2.487827e+003;4.953525e-002
2.489755e+003;4.940614e-002
2.491684e+003;4.923551e-002
2.493613e+003;4.918133e-002
2.495541e+003;4.890145e-002
2.497470e+003;4.864850e-002
2.499398e+003;4.869672e-002
2.501327e+003;4.851088e-002
2.503255e+003;4.828512e-002
2.505184e+003;4.854100e-002
2.507112e+003;4.852629e-002
2.509041e+003;4.822058e-002
2.510969e+003;4.809512e-002
2.512898e+003;4.805048e-002
2.514827e+003;4.798931e-002
2.516755e+003;4.802617e-002
2.518684e+003;4.808039e-002
2.520612e+003;4.791575e-002
2.522541e+003;4.783702e-002
2.524469e+003;4.796107e-002
2.526398e+003;4.777236e-002
2.528326e+003;4.774070e-002
2.530255e+003;4.799016e-002
2.532184e+003;4.792034e-002
2.534112e+003;4.775542e-002
2.536041e+003;4.774440e-002
2.537969e+003;4.753919e-002
2.539898e+003;4.733181e-002
2.541826e+003;4.719808e-002
2.543755e+003;4.734660e-002
2.545683e+003;4.766715e-002
2.547612e+003;4.777029e-002
2.549541e+003;4.762784e-002
2.551469e+003;4.744083e-002
2.553397e+003;4.737009e-002
2.555326e+003;4.761971e-002
2.557255e+003;4.802842e-002
2.559183e+003;4.822706e-002
2.561112e+003;4.819133e-002
2.563040e+003;4.808398e-002
2.564969e+003;4.838115e-002
2.566897e+003;4.872882e-002
2.568826e+003;4.892533e-002
2.570754e+003;4.897918e-002
2.572683e+003;4.895852e-002
2.574612e+003;4.908913e-002
2.576540e+003;4.938134e-002
2.578469e+003;4.964913e-002
2.580397e+003;4.980681e-002
2.582326e+003;4.985211e-002
2.584254e+003;4.992388e-002
2.586183e+003;5.001280e-002
2.588111e+003;5.020966e-002
2.590040e+003;5.042091e-002
2.591969e+003;5.033801e-002
2.593897e+003;5.037276e-002
2.595826e+003;5.069060e-002
2.597754e+003;5.080244e-002
2.599683e+003;5.083976e-002
2.601611e+003;5.107017e-002
2.603540e+003;5.103890e-002
2.605468e+003;5.093081e-002
2.607397e+003;5.103819e-002
2.609325e+003;5.118542e-002
2.611254e+003;5.137737e-002
2.613183e+003;5.176433e-002
2.615111e+003;5.204378e-002
2.617040e+003;5.189261e-002
2.618968e+003;5.182447e-002
2.620897e+003;5.180581e-002
2.622825e+003;5.193921e-002
2.624754e+003;5.215507e-002
2.626682e+003;5.220271e-002
2.628611e+003;5.239410e-002
2.630540e+003;5.253540e-002
2.632468e+003;5.258872e-002
2.634396e+003;5.260414e-002
2.636325e+003;5.258973e-002
2.638254e+003;5.260787e-002
2.640182e+003;5.269263e-002
2.642111e+003;5.286755e-002
2.644039e+003;5.306283e-002
2.645968e+003;5.307878e-002
2.647896e+003;5.295592e-002
2.649825e+003;5.275840e-002
2.651753e+003;5.280136e-002
2.653682e+003;5.291576e-002
2.655611e+003;5.271889e-002
2.657539e+003;5.251965e-002
2.659468e+003;5.256445e-002
2.661396e+003;5.268717e-002
2.663325e+003;5.256082e-002
2.665253e+003;5.265601e-002
2.667182e+003;5.298212e-002
2.669110e+003;5.297740e-002
2.671039e+003;5.272207e-002
2.672968e+003;5.240693e-002
2.674896e+003;5.252396e-002
2.676825e+003;5.280539e-002
2.678753e+003;5.277651e-002
2.680682e+003;5.266907e-002
2.682610e+003;5.263207e-002
2.684539e+003;5.277801e-002
2.686467e+003;5.293144e-002
2.688396e+003;5.302940e-002
2.690324e+003;5.297882e-002
2.692253e+003;5.276312e-002
2.694182e+003;5.292904e-002
2.696110e+003;5.340847e-002
2.698039e+003;5.361655e-002
2.699967e+003;5.345516e-002
2.701896e+003;5.339397e-002
2.703824e+003;5.360973e-002
2.705753e+003;5.412732e-002
2.707681e+003;5.450258e-002
2.709610e+003;5.455641e-002
2.711539e+003;5.463866e-002
2.713467e+003;5.496698e-002
2.715396e+003;5.539780e-002
2.717324e+003;5.560149e-002
2.719253e+003;5.567222e-002
2.721181e+003;5.589401e-002
2.723110e+003;5.599480e-002
2.725038e+003;5.591840e-002
2.726967e+003;5.615514e-002
2.728896e+003;5.639962e-002
2.730824e+003;5.644894e-002
2.732752e+003;5.647901e-002
2.734681e+003;5.631407e-002
2.736610e+003;5.613391e-002
2.738538e+003;5.583346e-002
2.740467e+003;5.588478e-002
2.742395e+003;5.633968e-002
2.744324e+003;5.661459e-002
2.746252e+003;5.668012e-002
2.748181e+003;5.632444e-002
2.750109e+003;5.565282e-002
2.752038e+003;5.534235e-002
2.753967e+003;5.573637e-002
2.755895e+003;5.608976e-002
2.757824e+003;5.588030e-002
2.759752e+003;5.589175e-002
2.761681e+003;5.617637e-002
2.763609e+003;5.624199e-002
2.765538e+003;5.617641e-002
2.767466e+003;5.624485e-002
2.769395e+003;5.634545e-002
2.771323e+003;5.629547e-002
2.773252e+003;5.627503e-002
2.775181e+003;5.654642e-002
2.777109e+003;5.667661e-002
2.779038e+003;5.665033e-002
2.780966e+003;5.691810e-002
2.782895e+003;5.739689e-002
2.784823e+003;5.751039e-002
2.786752e+003;5.749340e-002
2.788680e+003;5.770103e-002
2.790609e+003;5.796684e-002
2.792538e+003;5.827051e-002
2.794466e+003;5.862502e-002
2.796395e+003;5.876961e-002
2.798323e+003;5.886669e-002
2.800252e+003;5.910360e-002
2.802180e+003;5.923061e-002
2.804109e+003;5.936093e-002
2.806037e+003;5.961183e-002
2.807966e+003;5.987824e-002
2.809895e+003;5.985694e-002
2.811823e+003;5.987109e-002
2.813751e+003;6.018683e-002
2.815680e+003;6.042248e-002
2.817609e+003;6.063738e-002
2.819537e+003;6.094270e-002
2.821466e+003;6.135610e-002
2.823394e+003;6.170321e-002
2.825323e+003;6.170145e-002
2.827251e+003;6.194427e-002
2.829180e+003;6.225349e-002
2.831108e+003;6.240112e-002
2.833037e+003;6.295945e-002
2.834966e+003;6.371069e-002
2.836894e+003;6.421654e-002
2.838823e+003;6.483541e-002
2.840751e+003;6.545243e-002
2.842680e+003;6.610540e-002
2.844608e+003;6.696480e-002
2.846537e+003;6.798661e-002
2.848465e+003;6.923705e-002
2.850394e+003;6.999239e-002
2.852323e+003;7.009327e-002
2.854251e+003;7.053843e-002
2.856180e+003;7.130001e-002
2.858108e+003;7.219967e-002
2.860037e+003;7.316200e-002
2.861965e+003;7.437016e-002
2.863894e+003;7.526957e-002
2.865822e+003;7.574915e-002
2.867751e+003;7.628614e-002
2.869679e+003;7.681385e-002
2.871608e+003;7.733988e-002
2.873536e+003;7.768971e-002
2.875465e+003;7.814622e-002
2.877394e+003;7.855942e-002
2.879322e+003;7.848681e-002
2.881251e+003;7.848705e-002
2.883179e+003;7.875668e-002
2.885108e+003;7.892958e-002
2.887036e+003;7.904046e-002
2.888965e+003;7.917575e-002
2.890893e+003;7.901523e-002
2.892822e+003;7.864209e-002
2.894750e+003;7.825297e-002
2.896679e+003;7.801435e-002
2.898608e+003;7.787297e-002
2.900536e+003;7.793628e-002
2.902465e+003;7.789318e-002
2.904393e+003;7.765840e-002
2.906322e+003;7.742648e-002
2.908250e+003;7.728889e-002
2.910179e+003;7.708327e-002
2.912107e+003;7.685158e-002
2.914036e+003;7.693543e-002
2.915965e+003;7.719306e-002
2.917893e+003;7.772917e-002
2.919822e+003;7.813575e-002
2.921750e+003;7.813781e-002
2.923679e+003;7.824155e-002
2.925607e+003;7.822239e-002
2.927536e+003;7.832297e-002
2.929464e+003;7.872577e-002
2.931393e+003;7.869122e-002
2.933322e+003;7.913042e-002
2.935250e+003;7.999228e-002
2.937178e+003;8.040744e-002
2.939107e+003;8.074223e-002
2.941036e+003;8.102651e-002
2.942964e+003;8.101098e-002
2.944893e+003;8.107355e-002
2.946821e+003;8.093233e-002
2.948750e+003;8.048265e-002
2.950678e+003;8.008271e-002
2.952607e+003;7.941020e-002
2.954535e+003;7.870663e-002
2.956464e+003;7.822394e-002
2.958393e+003;7.809588e-002
2.960321e+003;7.797009e-002
2.962250e+003;7.735944e-002
2.964178e+003;7.646830e-002
2.966107e+003;7.593630e-002
2.968035e+003;7.541094e-002
2.969964e+003;7.475372e-002
2.971892e+003;7.402347e-002
2.973821e+003;7.337808e-002
2.975750e+003;7.305531e-002
2.977678e+003;7.266125e-002
2.979607e+003;7.224361e-002
2.981535e+003;7.195836e-002
2.983464e+003;7.169452e-002
2.985392e+003;7.136577e-002
2.987321e+003;7.108691e-002
2.989249e+003;7.092651e-002
2.991178e+003;7.085571e-002
2.993106e+003;7.065947e-002
2.995035e+003;7.024422e-002
2.996964e+003;6.976075e-002
2.998892e+003;6.924187e-002
3.000821e+003;6.911517e-002
3.002749e+003;6.890170e-002
3.004678e+003;6.854007e-002
3.006606e+003;6.846728e-002
3.008535e+003;6.833413e-002
3.010463e+003;6.783269e-002
3.012392e+003;6.784245e-002
3.014321e+003;6.812442e-002
3.016249e+003;6.807183e-002
3.018177e+003;6.771859e-002
3.020106e+003;6.713759e-002
3.022035e+003;6.683075e-002
3.023963e+003;6.700636e-002
3.025892e+003;6.695305e-002
3.027820e+003;6.641056e-002
3.029749e+003;6.594411e-002
3.031677e+003;6.564667e-002
3.033606e+003;6.560158e-002
3.035534e+003;6.561060e-002
3.037463e+003;6.505828e-002
3.039392e+003;6.437141e-002
3.041320e+003;6.378682e-002
3.043249e+003;6.340852e-002
3.045177e+003;6.313024e-002
3.047106e+003;6.286485e-002
3.049034e+003;6.264602e-002
3.050963e+003;6.222917e-002
3.052891e+003;6.180615e-002
3.054820e+003;6.160468e-002
3.056749e+003;6.120993e-002
3.058677e+003;6.071362e-002
3.060606e+003;6.045896e-002
3.062534e+003;6.055631e-002
3.064463e+003;6.044567e-002
3.066391e+003;6.000452e-002
3.068320e+003;5.961419e-002
3.070248e+003;5.928686e-002
3.072177e+003;5.924630e-002
3.074105e+003;5.932621e-002
3.076034e+003;5.922123e-002
3.077963e+003;5.882427e-002
3.079891e+003;5.822618e-002
3.081820e+003;5.828912e-002
3.083748e+003;5.847980e-002
3.085677e+003;5.839982e-002
3.087605e+003;5.831853e-002
3.089534e+003;5.816924e-002
3.091462e+003;5.834486e-002
3.093391e+003;5.834623e-002
3.095320e+003;5.820565e-002
3.097248e+003;5.783921e-002
3.099177e+003;5.749870e-002
3.101105e+003;5.784599e-002
3.103034e+003;5.816557e-002
3.104962e+003;5.822539e-002
3.106891e+003;5.814954e-002
3.108819e+003;5.810522e-002
3.110748e+003;5.834839e-002
3.112677e+003;5.839558e-002
3.114605e+003;5.798778e-002
3.116533e+003;5.781472e-002
3.118462e+003;5.775992e-002
3.120391e+003;5.780231e-002
3.122319e+003;5.780151e-002
3.124248e+003;5.756202e-002
3.126176e+003;5.730928e-002
3.128105e+003;5.739659e-002
3.130033e+003;5.759006e-002
3.131962e+003;5.722909e-002
3.133890e+003;5.703964e-002
3.135819e+003;5.715822e-002
3.137748e+003;5.711816e-002
3.139676e+003;5.744076e-002
3.141605e+003;5.762763e-002
3.143533e+003;5.769104e-002
3.145462e+003;5.754791e-002
3.147390e+003;5.735023e-002
3.149319e+003;5.737560e-002
3.151247e+003;5.734039e-002
3.153176e+003;5.733484e-002
3.155104e+003;5.744276e-002
3.157033e+003;5.743108e-002
3.158962e+003;5.732380e-002
3.160890e+003;5.763175e-002
3.162819e+003;5.797237e-002
3.164747e+003;5.796090e-002
3.166676e+003;5.811761e-002
3.168604e+003;5.821395e-002
3.170533e+003;5.822304e-002
3.172461e+003;5.850319e-002
3.174390e+003;5.868555e-002
3.176319e+003;5.857265e-002
3.178247e+003;5.854778e-002
3.180176e+003;5.816591e-002
3.182104e+003;5.822645e-002
3.184033e+003;5.862863e-002
3.185961e+003;5.896088e-002
3.187890e+003;5.913178e-002
3.189818e+003;5.893705e-002
3.191747e+003;5.879017e-002
3.193676e+003;5.882181e-002
3.195604e+003;5.884249e-002
3.197532e+003;5.872189e-002
3.199461e+003;5.879021e-002
3.201390e+003;5.903679e-002
3.203318e+003;5.932439e-002
3.205247e+003;5.940606e-002
3.207175e+003;5.905205e-002
3.209104e+003;5.863651e-002
3.211032e+003;5.857144e-002
3.212961e+003;5.913394e-002
3.214889e+003;5.956044e-002
3.216818e+003;5.949660e-002
3.218747e+003;5.963251e-002
3.220675e+003;6.017283e-002
3.222604e+003;6.041334e-002
3.224532e+003;6.033304e-002
3.226461e+003;6.039308e-002
3.228389e+003;6.030833e-002
3.230318e+003;6.016540e-002
3.232246e+003;6.029501e-002
3.234175e+003;6.039575e-002
3.236104e+003;6.044937e-002
3.238032e+003;6.094582e-002
3.239961e+003;6.112902e-002
3.241889e+003;6.111716e-002
3.243818e+003;6.088048e-002
3.245746e+003;6.077932e-002
3.247675e+003;6.108806e-002
3.249603e+003;6.136820e-002
3.251532e+003;6.148434e-002
3.253460e+003;6.153569e-002
3.255389e+003;6.178506e-002
3.257318e+003;6.190384e-002
3.259246e+003;6.162752e-002
3.261175e+003;6.159674e-002
3.263103e+003;6.194095e-002
3.265032e+003;6.253017e-002
3.266960e+003;6.283817e-002
3.268889e+003;6.288159e-002
3.270817e+003;6.281037e-002
3.272746e+003;6.272135e-002
3.274675e+003;6.287792e-002
3.276603e+003;6.305921e-002
3.278531e+003;6.348280e-002
3.280460e+003;6.390734e-002
3.282389e+003;6.350995e-002
3.284317e+003;6.324870e-002
3.286246e+003;6.345683e-002
3.288174e+003;6.382348e-002
3.290103e+003;6.393863e-002
3.292031e+003;6.375236e-002
3.293960e+003;6.383572e-002
3.295888e+003;6.413592e-002
3.297817e+003;6.439266e-002
3.299746e+003;6.460662e-002
3.301674e+003;6.474537e-002
3.303603e+003;6.474752e-002
3.305531e+003;6.497307e-002
3.307460e+003;6.513715e-002
3.309388e+003;6.532042e-002
3.311317e+003;6.568390e-002
3.313245e+003;6.608236e-002
3.315174e+003;6.637269e-002
3.317103e+003;6.626248e-002
3.319031e+003;6.595164e-002
3.320960e+003;6.583718e-002
3.322888e+003;6.577696e-002
3.324817e+003;6.605081e-002
3.326745e+003;6.618658e-002
3.328674e+003;6.628796e-002
3.330602e+003;6.652679e-002
3.332531e+003;6.656309e-002
3.334459e+003;6.638238e-002
3.336388e+003;6.641670e-002
3.338317e+003;6.697941e-002
3.340245e+003;6.740890e-002
3.342174e+003;6.744272e-002
3.344102e+003;6.758156e-002
3.346031e+003;6.784876e-002
3.347959e+003;6.808554e-002
3.349888e+003;6.844261e-002
3.351816e+003;6.880312e-002
3.353745e+003;6.894050e-002
3.355674e+003;6.855908e-002
3.357602e+003;6.845588e-002
3.359531e+003;6.881621e-002
3.361459e+003;6.911991e-002
3.363388e+003;6.931373e-002
3.365316e+003;6.916851e-002
3.367245e+003;6.917927e-002
3.369173e+003;6.981534e-002
3.371102e+003;6.980316e-002
3.373031e+003;6.957877e-002
3.374959e+003;7.002921e-002
3.376887e+003;7.035910e-002
3.378816e+003;7.045604e-002
3.380745e+003;7.073048e-002
3.382673e+003;7.100496e-002
3.384602e+003;7.110405e-002
3.386530e+003;7.120752e-002
3.388459e+003;7.181752e-002
3.390387e+003;7.207932e-002
3.392316e+003;7.212181e-002
3.394244e+003;7.262350e-002
3.396173e+003;7.247332e-002
3.398102e+003;7.197103e-002
3.400030e+003;7.189337e-002
3.401959e+003;7.203391e-002
3.403887e+003;7.188915e-002
3.405816e+003;7.196141e-002
3.407744e+003;7.199214e-002
3.409673e+003;7.185841e-002
3.411601e+003;7.214833e-002
3.413530e+003;7.260580e-002
3.415458e+003;7.283547e-002
3.417387e+003;7.289296e-002
3.419316e+003;7.304668e-002
3.421244e+003;7.308561e-002
3.423173e+003;7.306934e-002
3.425101e+003;7.353830e-002
3.427030e+003;7.356891e-002
3.428958e+003;7.372256e-002
3.430887e+003;7.433752e-002
3.432815e+003;7.447764e-002
3.434744e+003;7.424588e-002
3.436673e+003;7.395880e-002
3.438601e+003;7.418495e-002
3.440530e+003;7.462335e-002
3.442458e+003;7.504027e-002
3.444387e+003;7.516927e-002
3.446315e+003;7.557057e-002
3.448244e+003;7.593377e-002
3.450172e+003;7.579492e-002
3.452101e+003;7.575823e-002
3.454030e+003;7.589557e-002
3.455958e+003;7.622781e-002
3.457886e+003;7.667812e-002
3.459815e+003;7.679044e-002
3.461744e+003;7.658507e-002
3.463672e+003;7.672663e-002
3.465601e+003;7.732883e-002
3.467529e+003;7.753472e-002
3.469458e+003;7.742790e-002
3.471386e+003;7.749884e-002
3.473315e+003;7.743701e-002
3.475243e+003;7.753900e-002
3.477172e+003;7.769565e-002
3.479101e+003;7.760012e-002
3.481029e+003;7.737762e-002
3.482958e+003;7.726577e-002
3.484886e+003;7.759383e-002
3.486815e+003;7.765464e-002
3.488743e+003;7.755286e-002
3.490672e+003;7.762686e-002
3.492600e+003;7.759038e-002
3.494529e+003;7.708581e-002
3.496458e+003;7.707556e-002
3.498386e+003;7.740248e-002
3.500315e+003;7.753488e-002
3.502243e+003;7.747428e-002
3.504172e+003;7.738280e-002
3.506100e+003;7.720141e-002
3.508029e+003;7.706741e-002
3.509957e+003;7.687958e-002
3.511886e+003;7.665717e-002
3.513814e+003;7.661499e-002
3.515743e+003;7.602068e-002
3.517672e+003;7.550508e-002
3.519600e+003;7.586006e-002
3.521529e+003;7.635680e-002
3.523457e+003;7.631264e-002
3.525386e+003;7.583977e-002
3.527314e+003;7.523923e-002
3.529243e+003;7.495965e-002
3.531171e+003;7.488492e-002
3.533100e+003;7.479245e-002
3.535029e+003;7.462217e-002
3.536957e+003;7.412391e-002
3.538885e+003;7.356232e-002
3.540814e+003;7.362736e-002
3.542743e+003;7.403208e-002
3.544671e+003;7.382851e-002
3.546600e+003;7.325310e-002
3.548528e+003;7.263196e-002
3.550457e+003;7.186236e-002
3.552385e+003;7.149541e-002
3.554314e+003;7.167009e-002
3.556242e+003;7.165778e-002
3.558171e+003;7.111010e-002
3.560100e+003;7.076483e-002
3.562028e+003;7.085489e-002
3.563957e+003;7.054704e-002
3.565885e+003;6.946950e-002
3.567814e+003;6.882964e-002
3.569742e+003;6.912903e-002
3.571671e+003;6.916412e-002
3.573599e+003;6.885627e-002
3.575528e+003;6.885818e-002
3.577457e+003;6.843489e-002
3.579385e+003;6.769586e-002
3.581314e+003;6.724628e-002
3.583242e+003;6.702967e-002
3.585171e+003;6.647628e-002
3.587099e+003;6.557325e-002
3.589028e+003;6.522932e-002
3.590956e+003;6.502699e-002
3.592885e+003;6.457955e-002
3.594813e+003;6.467798e-002
3.596742e+003;6.501345e-002
3.598671e+003;6.489170e-002
3.600599e+003;6.433138e-002
3.602528e+003;6.339457e-002
3.604456e+003;6.323122e-002
3.606385e+003;6.351532e-002
3.608313e+003;6.334810e-002
3.610242e+003;6.308250e-002
3.612170e+003;6.269207e-002
3.614099e+003;6.227452e-002
3.616028e+003;6.200137e-002
3.617956e+003;6.190250e-002
3.619885e+003;6.178430e-002
3.621813e+003;6.145251e-002
3.623742e+003;6.125830e-002
3.625670e+003;6.111373e-002
3.627599e+003;6.064229e-002
3.629527e+003;6.030578e-002
3.631456e+003;6.015250e-002
3.633385e+003;5.976758e-002
3.635313e+003;5.944952e-002
3.637241e+003;5.905866e-002
3.639170e+003;5.858475e-002
3.641099e+003;5.838072e-002
3.643027e+003;5.827855e-002
3.644956e+003;5.791024e-002
3.646884e+003;5.707660e-002
3.648813e+003;5.662832e-002
3.650741e+003;5.635677e-002
3.652670e+003;5.597614e-002
3.654598e+003;5.489372e-002
3.656527e+003;5.376761e-002
3.658456e+003;5.331420e-002
3.660384e+003;5.273221e-002
3.662313e+003;5.218474e-002
3.664241e+003;5.178934e-002
3.666170e+003;5.106119e-002
3.668098e+003;5.031256e-002
3.670027e+003;4.936761e-002
3.671955e+003;4.822076e-002
3.673884e+003;4.724606e-002
3.675813e+003;4.662728e-002
3.677741e+003;4.620440e-002
3.679669e+003;4.527014e-002
3.681598e+003;4.444626e-002
3.683527e+003;4.355368e-002
3.685455e+003;4.248301e-002
3.687384e+003;4.197924e-002
3.689312e+003;4.214811e-002
3.691241e+003;4.214486e-002
3.693169e+003;4.159404e-002
3.695098e+003;4.118190e-002
3.697026e+003;4.102477e-002
3.698955e+003;4.073656e-002
3.700884e+003;4.016997e-002
3.702812e+003;3.958768e-002
3.704741e+003;3.917265e-002
3.706669e+003;3.905528e-002
3.708598e+003;3.911945e-002
3.710526e+003;3.904151e-002
3.712455e+003;3.872859e-002
3.714383e+003;3.858144e-002
3.716312e+003;3.856315e-002
3.718240e+003;3.833158e-002
3.720169e+003;3.816592e-002
3.722098e+003;3.798721e-002
3.724026e+003;3.778268e-002
3.725955e+003;3.768864e-002
3.727883e+003;3.767451e-002
3.729812e+003;3.790249e-002
3.731740e+003;3.803863e-002
3.733669e+003;3.777874e-002
3.735597e+003;3.766360e-002
3.737526e+003;3.775774e-002
3.739455e+003;3.750113e-002
3.741383e+003;3.740920e-002
3.743312e+003;3.728517e-002
3.745240e+003;3.715712e-002
3.747169e+003;3.702663e-002
3.749097e+003;3.680041e-002
3.751026e+003;3.663376e-002
3.752954e+003;3.679836e-002
3.754883e+003;3.681819e-002
3.756812e+003;3.648608e-002
3.758740e+003;3.684654e-002
3.760668e+003;3.724325e-002
3.762597e+003;3.692640e-002
3.764526e+003;3.694083e-002
3.766454e+003;3.739689e-002
3.768383e+003;3.711428e-002
3.770311e+003;3.636923e-002
3.772240e+003;3.662759e-002
3.774168e+003;3.731954e-002
3.776097e+003;3.750524e-002
3.778025e+003;3.720737e-002
3.779954e+003;3.690793e-002
3.781883e+003;3.687450e-002
3.783811e+003;3.684567e-002
3.785740e+003;3.692200e-002
3.787668e+003;3.676226e-002
3.789597e+003;3.672612e-002
3.791525e+003;3.714756e-002
3.793454e+003;3.758111e-002
3.795382e+003;3.741603e-002
3.797311e+003;3.722830e-002
3.799240e+003;3.719380e-002
3.801168e+003;3.682191e-002
3.803097e+003;3.685336e-002
3.805025e+003;3.718456e-002
3.806954e+003;3.708217e-002
3.808882e+003;3.725556e-002
3.810811e+003;3.764694e-002
3.812739e+003;3.751279e-002
3.814668e+003;3.691193e-002
3.816596e+003;3.676745e-002
3.818525e+003;3.686663e-002
3.820454e+003;3.692550e-002
3.822382e+003;3.706437e-002
3.824311e+003;3.688156e-002
3.826239e+003;3.676370e-002
3.828168e+003;3.699769e-002
3.830096e+003;3.729560e-002
3.832025e+003;3.736699e-002
3.833953e+003;3.741599e-002
3.835882e+003;3.738450e-002
3.837811e+003;3.705236e-002
3.839739e+003;3.714677e-002
3.841667e+003;3.744485e-002
3.843596e+003;3.722072e-002
3.845525e+003;3.680348e-002
3.847453e+003;3.669822e-002
3.849382e+003;3.698777e-002
3.851310e+003;3.705326e-002
3.853239e+003;3.708891e-002
3.855167e+003;3.717189e-002
3.857096e+003;3.693106e-002
3.859024e+003;3.683150e-002
3.860953e+003;3.725293e-002
3.862882e+003;3.763530e-002
3.864810e+003;3.779276e-002
3.866739e+003;3.796026e-002
3.868667e+003;3.795810e-002
3.870596e+003;3.794030e-002
3.872524e+003;3.751572e-002
3.874453e+003;3.726809e-002
3.876381e+003;3.765117e-002
3.878310e+003;3.800547e-002
3.880239e+003;3.784446e-002
3.882167e+003;3.778131e-002
3.884096e+003;3.800742e-002
3.886024e+003;3.837997e-002
3.887953e+003;3.822276e-002
3.889881e+003;3.781102e-002
3.891810e+003;3.809227e-002
3.893738e+003;3.834109e-002
3.895667e+003;3.813260e-002
3.897595e+003;3.802572e-002
3.899524e+003;3.819964e-002
3.901453e+003;3.888555e-002
3.903381e+003;3.916311e-002
3.905310e+003;3.940282e-002
3.907238e+003;3.981684e-002
3.909167e+003;3.972672e-002
3.911095e+003;3.912130e-002
3.913024e+003;3.888877e-002
3.914952e+003;3.887163e-002
3.916881e+003;3.907874e-002
3.918810e+003;3.969876e-002
3.920738e+003;3.989463e-002
3.922667e+003;3.952130e-002
3.924595e+003;3.945086e-002
3.926524e+003;3.978216e-002
3.928452e+003;4.037060e-002
3.930381e+003;4.093684e-002
3.932309e+003;4.103886e-002
3.934238e+003;4.071745e-002
3.936167e+003;4.076276e-002
3.938095e+003;4.097554e-002
3.940023e+003;4.129620e-002
3.941952e+003;4.120744e-002
3.943881e+003;4.094561e-002
3.945809e+003;4.101326e-002
3.947738e+003;4.108647e-002
3.949666e+003;4.139540e-002
3.951595e+003;4.132327e-002
3.953523e+003;4.132495e-002
3.955452e+003;4.172326e-002
3.957380e+003;4.174095e-002
3.959309e+003;4.180829e-002
3.961238e+003;4.221000e-002
3.963166e+003;4.236785e-002
3.965095e+003;4.265145e-002
3.967023e+003;4.323413e-002
3.968952e+003;4.365094e-002
3.970880e+003;4.344428e-002
3.972809e+003;4.374075e-002
3.974737e+003;4.413581e-002
3.976666e+003;4.365500e-002
3.978594e+003;4.315691e-002
3.980523e+003;4.344856e-002
3.982452e+003;4.346050e-002
3.984380e+003;4.328611e-002
3.986309e+003;4.340674e-002
3.988237e+003;4.361917e-002
3.990166e+003;4.355749e-002
3.992094e+003;4.319987e-002
3.994023e+003;4.300180e-002
3.995951e+003;4.314692e-002
3.997880e+003;4.331814e-002
3.999809e+003;4.334095e-002
4.001737e+003;0.000000e+000
