3.992094e+002;0.000000e+000
4.011380e+002;0.000000e+000
4.030665e+002;0.000000e+000
4.049951e+002;0.000000e+000
4.069236e+002;0.000000e+000
4.088522e+002;0.000000e+000
4.107807e+002;0.000000e+000
4.127093e+002;0.000000e+000
4.146378e+002;0.000000e+000
4.165664e+002;0.000000e+000
4.184949e+002;0.000000e+000
4.204235e+002;0.000000e+000
4.223520e+002;0.000000e+000
4.242806e+002;0.000000e+000
4.262091e+002;0.000000e+000
4.281377e+002;0.000000e+000
4.300662e+002;0.000000e+000
4.319948e+002;0.000000e+000
4.339233e+002;0.000000e+000
4.358519e+002;0.000000e+000
4.377804e+002;0.000000e+000
4.397090e+002;0.000000e+000
4.416375e+002;0.000000e+000
4.435660e+002;0.000000e+000
4.454946e+002;0.000000e+000
4.474232e+002;0.000000e+000
4.493517e+002;0.000000e+000
4.512802e+002;0.000000e+000
4.532088e+002;0.000000e+000
4.551373e+002;0.000000e+000
4.570659e+002;0.000000e+000
4.589944e+002;0.000000e+000
4.609230e+002;0.000000e+000
4.628515e+002;0.000000e+000
4.647801e+002;0.000000e+000
4.667086e+002;0.000000e+000
4.686372e+002;0.000000e+000
4.705657e+002;0.000000e+000
4.724943e+002;0.000000e+000
4.744228e+002;0.000000e+000
4.763513e+002;0.000000e+000
4.782799e+002;0.000000e+000
4.802085e+002;0.000000e+000
4.821370e+002;0.000000e+000
4.840656e+002;0.000000e+000
4.859941e+002;0.000000e+000
4.879226e+002;0.000000e+000
4.898512e+002;0.000000e+000
4.917798e+002;0.000000e+000
4.937083e+002;0.000000e+000
4.956368e+002;0.000000e+000
4.975654e+002;0.000000e+000
4.994939e+002;0.000000e+000
5.014225e+002;0.000000e+000
5.033510e+002;0.000000e+000
5.052796e+002;0.000000e+000
5.072081e+002;0.000000e+000
5.091367e+002;0.000000e+000
5.110652e+002;0.000000e+000
5.129938e+002;0.000000e+000
5.149223e+002;0.000000e+000
5.168509e+002;0.000000e+000
5.187794e+002;0.000000e+000
5.207079e+002;0.000000e+000
5.226365e+002;0.000000e+000
5.245651e+002;0.000000e+000
5.264936e+002;0.000000e+000
5.284222e+002;0.000000e+000
5.303507e+002;0.000000e+000
5.322792e+002;0.000000e+000
5.342078e+002;0.000000e+000
5.361364e+002;0.000000e+000
5.380649e+002;0.000000e+000
5.399935e+002;0.000000e+000
5.419220e+002;0.000000e+000
5.438505e+002;0.000000e+000
5.457791e+002;0.000000e+000
5.477076e+002;0.000000e+000
5.496362e+002;0.000000e+000
5.515648e+002;0.000000e+000
5.534933e+002;0.000000e+000
5.554218e+002;0.000000e+000
5.573504e+002;0.000000e+000
5.592789e+002;0.000000e+000
5.612075e+002;0.000000e+000
5.631360e+002;0.000000e+000
5.650646e+002;0.000000e+000
5.669931e+002;0.000000e+000
5.689217e+002;0.000000e+000
5.708502e+002;0.000000e+000
5.727787e+002;0.000000e+000
5.747073e+002;0.000000e+000
5.766359e+002;0.000000e+000
5.785644e+002;0.000000e+000
5.804930e+002;0.000000e+000
5.824215e+002;0.000000e+000
5.843500e+002;0.000000e+000
5.862786e+002;0.000000e+000
5.882072e+002;0.000000e+000
5.901357e+002;0.000000e+000
5.920643e+002;0.000000e+000
5.939928e+002;0.000000e+000
5.959213e+002;0.000000e+000
5.978499e+002;0.000000e+000
5.997784e+002;1.899347e-001
6.017070e+002;1.930442e-001
6.036355e+002;1.963140e-001
6.055641e+002;1.981903e-001
6.074926e+002;1.868454e-001
6.094211e+002;1.699847e-001
6.113497e+002;1.622946e-001
6.132783e+002;1.584189e-001
6.152068e+002;1.539100e-001
6.171354e+002;1.500667e-001
6.190639e+002;1.498183e-001
6.209924e+002;1.466176e-001
6.229210e+002;1.384479e-001
6.248495e+002;1.354613e-001
6.267781e+002;1.394499e-001
6.287067e+002;1.420614e-001
6.306352e+002;1.367470e-001
6.325637e+002;1.305333e-001
6.344923e+002;1.284506e-001
6.364208e+002;1.261655e-001
6.383494e+002;1.259188e-001
6.402780e+002;1.263599e-001
6.422065e+002;1.259018e-001
6.441350e+002;1.226859e-001
6.460636e+002;1.211985e-001
6.479921e+002;1.215552e-001
6.499207e+002;1.183520e-001
6.518492e+002;1.136201e-001
6.537778e+002;1.123462e-001
6.557063e+002;1.117304e-001
6.576349e+002;1.118504e-001
6.595634e+002;1.119955e-001
6.614919e+002;1.109888e-001
6.634205e+002;1.079991e-001
6.653491e+002;1.058392e-001
6.672776e+002;1.044901e-001
6.692062e+002;1.046521e-001
6.711347e+002;1.059310e-001
6.730632e+002;1.061713e-001
6.749918e+002;1.053685e-001
6.769203e+002;1.055997e-001
6.788489e+002;1.071825e-001
6.807775e+002;1.075817e-001
6.827060e+002;1.075365e-001
6.846345e+002;1.074260e-001
6.865631e+002;1.065733e-001
6.884916e+002;1.055321e-001
6.904202e+002;1.054352e-001
6.923488e+002;1.052360e-001
6.942773e+002;1.035915e-001
6.962058e+002;1.023071e-001
6.981344e+002;1.005108e-001
7.000629e+002;9.869821e-002
7.019915e+002;9.653791e-002
7.039200e+002;9.428822e-002
7.058486e+002;9.370303e-002
7.077771e+002;9.356093e-002
7.097057e+002;9.251227e-002
7.116342e+002;9.213347e-002
7.135627e+002;9.193541e-002
7.154913e+002;9.158633e-002
7.174199e+002;9.037026e-002
7.193484e+002;8.901785e-002
7.212770e+002;8.911377e-002
7.232055e+002;8.838546e-002
7.251340e+002;8.656073e-002
7.270626e+002;8.563417e-002
7.289911e+002;8.448108e-002
7.309197e+002;8.211041e-002
7.328483e+002;7.890991e-002
7.347768e+002;7.628933e-002
7.367053e+002;7.414746e-002
7.386339e+002;7.237776e-002
7.405624e+002;7.159468e-002
7.424910e+002;7.107700e-002
7.444196e+002;7.000208e-002
7.463481e+002;6.883895e-002
7.482766e+002;6.790807e-002
7.502052e+002;6.752284e-002
7.521337e+002;6.733828e-002
7.540623e+002;6.712553e-002
7.559908e+002;6.663112e-002
7.579194e+002;6.653861e-002
7.598479e+002;6.646532e-002
7.617765e+002;6.584096e-002
7.637050e+002;6.526463e-002
7.656335e+002;6.494845e-002
7.675621e+002;6.477156e-002
7.694907e+002;6.508057e-002
7.714192e+002;6.527899e-002
7.733478e+002;6.476925e-002
7.752763e+002;6.429292e-002
7.772048e+002;6.431793e-002
7.791334e+002;6.449182e-002
7.810620e+002;6.515382e-002
7.829905e+002;6.554370e-002
7.849191e+002;6.581227e-002
7.868476e+002;6.593744e-002
7.887761e+002;6.596598e-002
7.907047e+002;6.647620e-002
7.926332e+002;6.754699e-002
7.945618e+002;6.837947e-002
7.964903e+002;6.918336e-002
7.984189e+002;7.010090e-002
8.003474e+002;7.093977e-002
8.022759e+002;7.178301e-002
8.042045e+002;7.265130e-002
8.061331e+002;7.363034e-002
8.080616e+002;7.452858e-002
8.099902e+002;7.568304e-002
8.119187e+002;7.740889e-002
8.138472e+002;7.882433e-002
8.157758e+002;8.020182e-002
8.177043e+002;8.181165e-002
8.196329e+002;8.439757e-002
8.215615e+002;8.770533e-002
8.234900e+002;9.061883e-002
8.254185e+002;9.405486e-002
8.273471e+002;9.855109e-002
8.292756e+002;1.033466e-001
8.312042e+002;1.085276e-001
8.331328e+002;1.136071e-001
8.350613e+002;1.177390e-001
8.369898e+002;1.210373e-001
8.389184e+002;1.230863e-001
8.408469e+002;1.233892e-001
8.427755e+002;1.218595e-001
8.447040e+002;1.196094e-001
8.466326e+002;1.168648e-001
8.485611e+002;1.132389e-001
8.504897e+002;1.102873e-001
8.524182e+002;1.080995e-001
8.543467e+002;1.065697e-001
8.562753e+002;1.065447e-001
8.582039e+002;1.080083e-001
8.601324e+002;1.103875e-001
8.620610e+002;1.135357e-001
8.639895e+002;1.170889e-001
8.659180e+002;1.215656e-001
8.678466e+002;1.274484e-001
8.697751e+002;1.340206e-001
8.717037e+002;1.406206e-001
8.736323e+002;1.465958e-001
8.755608e+002;1.514288e-001
8.774893e+002;1.553378e-001
8.794179e+002;1.584801e-001
8.813464e+002;1.619846e-001
8.832750e+002;1.657750e-001
8.852036e+002;1.696078e-001
8.871321e+002;1.745631e-001
8.890606e+002;1.798380e-001
8.909892e+002;1.854808e-001
8.929177e+002;1.924095e-001
8.948463e+002;1.991250e-001
8.967748e+002;2.042519e-001
8.987034e+002;2.065160e-001
9.006319e+002;2.062185e-001
9.025605e+002;2.034050e-001
9.044890e+002;1.980582e-001
9.064175e+002;1.922045e-001
9.083461e+002;1.861762e-001
9.102747e+002;1.797935e-001
9.122032e+002;1.741574e-001
9.141318e+002;1.689535e-001
9.160603e+002;1.644598e-001
9.179888e+002;1.611924e-001
9.199174e+002;1.579476e-001
9.218459e+002;1.555219e-001
9.237745e+002;1.537883e-001
9.257031e+002;1.520038e-001
9.276316e+002;1.509950e-001
9.295601e+002;1.502786e-001
9.314887e+002;1.496236e-001
9.334172e+002;1.493516e-001
9.353458e+002;1.499518e-001
9.372744e+002;1.511625e-001
9.392029e+002;1.525280e-001
9.411314e+002;1.542036e-001
9.430600e+002;1.565742e-001
9.449885e+002;1.592974e-001
9.469171e+002;1.615849e-001
9.488456e+002;1.636034e-001
9.507742e+002;1.657296e-001
9.527027e+002;1.679589e-001
9.546313e+002;1.700713e-001
9.565598e+002;1.719117e-001
9.584883e+002;1.739090e-001
9.604169e+002;1.764547e-001
9.623455e+002;1.797752e-001
9.642740e+002;1.836552e-001
9.662026e+002;1.882604e-001
9.681311e+002;1.939775e-001
9.700596e+002;2.010970e-001
9.719882e+002;2.091068e-001
9.739167e+002;2.171779e-001
9.758453e+002;2.250402e-001
9.777739e+002;2.326026e-001
9.797024e+002;2.400413e-001
9.816309e+002;2.470759e-001
9.835595e+002;2.536196e-001
9.854880e+002;2.598130e-001
9.874166e+002;2.649718e-001
9.893452e+002;2.695562e-001
9.912737e+002;2.743675e-001
9.932022e+002;2.794829e-001
9.951307e+002;2.848139e-001
9.970593e+002;2.910405e-001
9.989879e+002;2.985647e-001
1.000916e+003;3.075497e-001
1.002845e+003;3.182407e-001
1.004773e+003;3.305932e-001
1.006702e+003;3.444112e-001
1.008631e+003;3.595022e-001
1.010559e+003;3.755515e-001
1.012488e+003;3.922839e-001
1.014416e+003;4.099456e-001
1.016345e+003;4.291306e-001
1.018273e+003;4.494509e-001
1.020202e+003;4.705474e-001
1.022130e+003;4.907620e-001
1.024059e+003;5.099305e-001
1.025988e+003;5.286057e-001
1.027916e+003;5.453138e-001
1.029845e+003;5.588389e-001
1.031773e+003;5.665536e-001
1.033702e+003;5.689324e-001
1.035630e+003;5.677429e-001
1.037559e+003;5.628565e-001
1.039487e+003;5.562817e-001
1.041416e+003;5.481860e-001
1.043344e+003;5.380769e-001
1.045273e+003;5.252681e-001
1.047202e+003;5.106063e-001
1.049130e+003;4.948035e-001
1.051059e+003;4.779089e-001
1.052987e+003;4.607694e-001
1.054916e+003;4.433326e-001
1.056844e+003;4.260285e-001
1.058773e+003;4.106670e-001
1.060701e+003;3.967683e-001
1.062630e+003;3.842060e-001
1.064558e+003;3.733352e-001
1.066487e+003;3.630965e-001
1.068416e+003;3.536817e-001
1.070344e+003;3.440458e-001
1.072273e+003;3.350670e-001
1.074201e+003;3.267656e-001
1.076130e+003;3.170282e-001
1.078058e+003;3.066508e-001
1.079987e+003;2.975854e-001
1.081915e+003;2.892578e-001
1.083844e+003;2.802036e-001
1.085773e+003;2.707854e-001
1.087701e+003;2.622999e-001
1.089630e+003;2.541986e-001
1.091558e+003;2.452440e-001
1.093487e+003;2.369176e-001
1.095415e+003;2.302738e-001
1.097344e+003;2.242960e-001
1.099272e+003;2.189807e-001
1.101201e+003;2.149521e-001
1.103129e+003;2.116416e-001
1.105058e+003;2.085415e-001
1.106987e+003;2.063874e-001
1.108915e+003;2.046481e-001
1.110844e+003;2.031878e-001
1.112772e+003;2.025573e-001
1.114701e+003;2.019225e-001
1.116629e+003;2.007576e-001
1.118558e+003;1.996616e-001
1.120486e+003;1.983590e-001
1.122415e+003;1.965975e-001
1.124344e+003;1.943278e-001
1.126272e+003;1.922443e-001
1.128201e+003;1.899131e-001
1.130129e+003;1.869139e-001
1.132058e+003;1.837764e-001
1.133986e+003;1.809397e-001
1.135915e+003;1.790964e-001
1.137843e+003;1.780328e-001
1.139772e+003;1.770498e-001
1.141700e+003;1.766858e-001
1.143629e+003;1.770468e-001
1.145557e+003;1.782408e-001
1.147486e+003;1.800055e-001
1.149415e+003;1.821202e-001
1.151343e+003;1.842718e-001
1.153272e+003;1.861362e-001
1.155200e+003;1.881113e-001
1.157129e+003;1.905283e-001
1.159057e+003;1.925021e-001
1.160986e+003;1.931879e-001
1.162914e+003;1.931169e-001
1.164843e+003;1.929480e-001
1.166771e+003;1.923209e-001
1.168700e+003;1.909391e-001
1.170629e+003;1.894918e-001
1.172557e+003;1.879532e-001
1.174486e+003;1.858014e-001
1.176414e+003;1.840070e-001
1.178343e+003;1.831159e-001
1.180271e+003;1.831246e-001
1.182200e+003;1.841250e-001
1.184128e+003;1.867816e-001
1.186057e+003;1.916950e-001
1.187986e+003;1.994005e-001
1.189914e+003;2.100990e-001
1.191843e+003;2.241199e-001
1.193771e+003;2.420438e-001
1.195700e+003;2.644684e-001
1.197628e+003;2.907605e-001
1.199557e+003;3.211053e-001
1.201485e+003;3.550471e-001
1.203414e+003;3.895874e-001
1.205343e+003;4.230671e-001
1.207271e+003;4.540374e-001
1.209200e+003;4.794675e-001
1.211128e+003;4.978285e-001
1.213057e+003;5.102657e-001
1.214985e+003;5.179855e-001
1.216914e+003;5.210006e-001
1.218842e+003;5.207352e-001
1.220771e+003;5.191337e-001
1.222699e+003;5.165318e-001
1.224628e+003;5.119590e-001
1.226557e+003;5.055887e-001
1.228485e+003;4.968492e-001
1.230414e+003;4.852825e-001
1.232342e+003;4.702153e-001
1.234271e+003;4.530069e-001
1.236199e+003;4.342389e-001
1.238128e+003;4.141974e-001
1.240056e+003;3.939838e-001
1.241985e+003;3.736904e-001
1.243913e+003;3.538739e-001
1.245842e+003;3.344738e-001
1.247771e+003;3.159197e-001
1.249699e+003;2.986068e-001
1.251628e+003;2.817153e-001
1.253556e+003;2.657754e-001
1.255485e+003;2.510956e-001
1.257413e+003;2.367520e-001
1.259342e+003;2.231119e-001
1.261270e+003;2.108136e-001
1.263199e+003;1.995739e-001
1.265127e+003;1.894316e-001
1.267056e+003;1.800870e-001
1.268985e+003;1.712819e-001
1.270913e+003;1.630325e-001
1.272842e+003;1.553358e-001
1.274770e+003;1.486508e-001
1.276699e+003;1.425150e-001
1.278627e+003;1.368818e-001
1.280556e+003;1.317419e-001
1.282484e+003;1.268487e-001
1.284413e+003;1.228020e-001
1.286342e+003;1.195150e-001
1.288270e+003;1.163562e-001
1.290199e+003;1.132582e-001
1.292127e+003;1.106391e-001
1.294056e+003;1.085450e-001
1.295984e+003;1.065733e-001
1.297913e+003;1.046530e-001
1.299841e+003;1.029150e-001
1.301770e+003;1.013983e-001
1.303698e+003;1.003085e-001
1.305627e+003;9.973591e-002
1.307556e+003;9.942349e-002
1.309484e+003;9.905693e-002
1.311413e+003;9.881671e-002
1.313341e+003;9.897906e-002
1.315270e+003;9.924506e-002
1.317198e+003;9.922512e-002
1.319127e+003;9.897207e-002
1.321055e+003;9.889438e-002
1.322984e+003;9.888494e-002
1.324912e+003;9.861745e-002
1.326841e+003;9.821738e-002
1.328770e+003;9.770293e-002
1.330698e+003;9.731539e-002
1.332627e+003;9.705454e-002
1.334555e+003;9.661696e-002
1.336484e+003;9.637874e-002
1.338412e+003;9.624816e-002
1.340341e+003;9.631575e-002
1.342269e+003;9.705873e-002
1.344198e+003;9.856261e-002
1.346126e+003;1.009489e-001
1.348055e+003;1.048701e-001
1.349984e+003;1.106376e-001
1.351912e+003;1.191685e-001
1.353841e+003;1.311720e-001
1.355769e+003;1.470303e-001
1.357698e+003;1.668263e-001
1.359626e+003;1.881108e-001
1.361555e+003;2.077588e-001
1.363483e+003;2.229840e-001
1.365412e+003;2.315597e-001
1.367341e+003;2.331295e-001
1.369269e+003;2.290740e-001
1.371198e+003;2.213318e-001
1.373126e+003;2.115781e-001
1.375055e+003;2.009883e-001
1.376983e+003;1.901631e-001
1.378912e+003;1.790037e-001
1.380840e+003;1.674643e-001
1.382769e+003;1.559882e-001
1.384698e+003;1.448972e-001
1.386626e+003;1.344830e-001
1.388555e+003;1.252772e-001
1.390483e+003;1.174050e-001
1.392412e+003;1.104575e-001
1.394340e+003;1.048950e-001
1.396269e+003;1.012665e-001
1.398197e+003;9.862339e-002
1.400126e+003;9.678760e-002
1.402054e+003;9.594011e-002
1.403983e+003;9.574005e-002
1.405911e+003;9.580602e-002
1.407840e+003;9.604682e-002
1.409769e+003;9.667528e-002
1.411697e+003;9.757756e-002
1.413626e+003;9.841828e-002
1.415554e+003;9.967801e-002
1.417483e+003;1.014154e-001
1.419411e+003;1.035335e-001
1.421340e+003;1.063440e-001
1.423268e+003;1.093836e-001
1.425197e+003;1.121373e-001
1.427125e+003;1.143454e-001
1.429054e+003;1.157939e-001
1.430983e+003;1.165429e-001
1.432911e+003;1.162636e-001
1.434840e+003;1.147338e-001
1.436768e+003;1.125518e-001
1.438697e+003;1.105497e-001
1.440625e+003;1.080476e-001
1.442554e+003;1.051013e-001
1.444482e+003;1.021793e-001
1.446411e+003;9.938767e-002
1.448340e+003;9.662466e-002
1.450268e+003;9.418062e-002
1.452197e+003;9.191236e-002
1.454125e+003;8.951527e-002
1.456054e+003;8.657326e-002
1.457982e+003;8.422006e-002
1.459911e+003;8.260694e-002
1.461839e+003;8.061144e-002
1.463768e+003;7.793358e-002
1.465697e+003;7.540755e-002
1.467625e+003;7.338632e-002
1.469554e+003;7.133141e-002
1.471482e+003;6.900990e-002
1.473411e+003;6.706838e-002
1.475339e+003;6.567966e-002
1.477268e+003;6.453796e-002
1.479196e+003;6.340542e-002
1.481125e+003;6.241004e-002
1.483053e+003;6.166624e-002
1.484982e+003;6.091582e-002
1.486911e+003;6.019699e-002
1.488839e+003;5.922530e-002
1.490768e+003;5.860598e-002
1.492696e+003;5.839372e-002
1.494625e+003;5.792292e-002
1.496553e+003;5.731850e-002
1.498482e+003;5.723212e-002
1.500410e+003;5.740540e-002
1.502339e+003;5.721492e-002
1.504267e+003;5.632636e-002
1.506196e+003;5.534149e-002
1.508125e+003;5.567395e-002
1.510053e+003;5.632633e-002
1.511982e+003;5.653830e-002
1.513910e+003;5.654962e-002
1.515839e+003;5.638469e-002
1.517767e+003;5.632365e-002
1.519696e+003;5.596242e-002
1.521624e+003;5.562149e-002
1.523553e+003;5.601342e-002
1.525481e+003;5.637065e-002
1.527410e+003;5.679305e-002
1.529339e+003;5.724645e-002
1.531267e+003;5.682999e-002
1.533196e+003;5.636880e-002
1.535124e+003;5.667170e-002
1.537053e+003;5.610472e-002
1.538981e+003;5.464339e-002
1.540910e+003;5.446682e-002
1.542838e+003;5.513619e-002
1.544767e+003;5.584356e-002
1.546695e+003;5.650596e-002
1.548624e+003;5.655827e-002
1.550553e+003;5.620096e-002
1.552481e+003;5.599578e-002
1.554410e+003;5.605345e-002
1.556338e+003;5.580644e-002
1.558267e+003;5.472825e-002
1.560195e+003;5.475456e-002
1.562124e+003;5.585938e-002
1.564052e+003;5.633176e-002
1.565981e+003;5.653159e-002
1.567910e+003;5.624297e-002
1.569838e+003;5.595737e-002
1.571767e+003;5.633915e-002
1.573695e+003;5.628212e-002
1.575624e+003;5.571814e-002
1.577552e+003;5.612203e-002
1.579481e+003;5.686504e-002
1.581409e+003;5.721897e-002
1.583338e+003;5.743883e-002
1.585266e+003;5.757156e-002
1.587195e+003;5.782173e-002
1.589124e+003;5.830806e-002
1.591052e+003;5.895910e-002
1.592981e+003;5.935299e-002
1.594909e+003;5.986759e-002
1.596838e+003;6.060595e-002
1.598766e+003;6.123331e-002
1.600695e+003;6.192104e-002
1.602623e+003;6.266543e-002
1.604552e+003;6.356759e-002
1.606480e+003;6.425618e-002
1.608409e+003;6.479517e-002
1.610338e+003;6.512430e-002
1.612266e+003;6.554570e-002
1.614195e+003;6.593093e-002
1.616123e+003;6.602882e-002
1.618052e+003;6.696959e-002
1.619980e+003;6.799044e-002
1.621909e+003;6.839556e-002
1.623837e+003;6.894667e-002
1.625766e+003;6.966205e-002
1.627694e+003;7.028141e-002
1.629623e+003;7.105679e-002
1.631552e+003;7.184985e-002
1.633480e+003;7.229448e-002
1.635409e+003;7.228962e-002
1.637337e+003;7.320341e-002
1.639266e+003;7.468096e-002
1.641194e+003;7.561845e-002
1.643123e+003;7.603963e-002
1.645051e+003;7.601097e-002
1.646980e+003;7.630936e-002
1.648909e+003;7.717461e-002
1.650837e+003;7.700059e-002
1.652766e+003;7.629206e-002
1.654694e+003;7.736024e-002
1.656623e+003;7.851797e-002
1.658551e+003;7.870016e-002
1.660480e+003;7.888456e-002
1.662408e+003;7.946423e-002
1.664337e+003;8.016651e-002
1.666266e+003;8.083968e-002
1.668194e+003;8.128342e-002
1.670123e+003;8.186173e-002
1.672051e+003;8.309073e-002
1.673980e+003;8.432518e-002
1.675908e+003;8.557566e-002
1.677837e+003;8.746227e-002
1.679765e+003;8.943103e-002
1.681694e+003;9.118830e-002
1.683622e+003;9.253380e-002
1.685551e+003;9.521157e-002
1.687479e+003;9.890091e-002
1.689408e+003;1.026602e-001
1.691337e+003;1.065286e-001
1.693265e+003;1.104381e-001
1.695194e+003;1.144658e-001
1.697122e+003;1.197289e-001
1.699051e+003;1.254919e-001
1.700979e+003;1.322599e-001
1.702908e+003;1.402320e-001
1.704836e+003;1.484142e-001
1.706765e+003;1.577359e-001
1.708693e+003;1.682559e-001
1.710622e+003;1.796752e-001
1.712551e+003;1.921393e-001
1.714479e+003;2.059729e-001
1.716408e+003;2.209157e-001
1.718336e+003;2.373781e-001
1.720265e+003;2.551652e-001
1.722193e+003;2.732890e-001
1.724122e+003;2.918618e-001
1.726050e+003;3.100650e-001
1.727979e+003;3.268749e-001
1.729908e+003;3.419929e-001
1.731836e+003;3.543969e-001
1.733765e+003;3.635417e-001
1.735693e+003;3.698093e-001
1.737622e+003;3.719602e-001
1.739550e+003;3.698513e-001
1.741479e+003;3.644967e-001
1.743407e+003;3.564489e-001
1.745336e+003;3.458975e-001
1.747265e+003;3.336031e-001
1.749193e+003;3.199563e-001
1.751122e+003;3.045983e-001
1.753050e+003;2.878371e-001
1.754979e+003;2.698636e-001
1.756907e+003;2.501402e-001
1.758836e+003;2.290012e-001
1.760764e+003;2.067600e-001
1.762693e+003;1.851444e-001
1.764621e+003;1.652755e-001
1.766550e+003;1.470723e-001
1.768479e+003;1.311863e-001
1.770407e+003;1.178875e-001
1.772336e+003;1.068155e-001
1.774264e+003;9.816346e-002
1.776193e+003;9.126213e-002
1.778121e+003;8.576446e-002
1.780050e+003;8.110866e-002
1.781978e+003;7.685779e-002
1.783907e+003;7.346828e-002
1.785835e+003;7.085208e-002
1.787764e+003;6.869920e-002
1.789693e+003;6.674288e-002
1.791621e+003;6.492582e-002
1.793550e+003;6.369039e-002
1.795478e+003;6.280489e-002
1.797407e+003;6.168350e-002
1.799335e+003;6.058134e-002
1.801264e+003;5.976838e-002
1.803192e+003;5.897371e-002
1.805121e+003;5.836067e-002
1.807049e+003;5.767125e-002
1.808978e+003;5.675779e-002
1.810907e+003;5.603373e-002
1.812835e+003;5.534348e-002
1.814764e+003;5.466492e-002
1.816692e+003;5.401167e-002
1.818621e+003;5.335781e-002
1.820549e+003;5.277198e-002
1.822478e+003;5.232783e-002
1.824406e+003;5.177254e-002
1.826335e+003;5.131908e-002
1.828264e+003;5.072922e-002
1.830192e+003;4.994198e-002
1.832121e+003;4.956143e-002
1.834049e+003;4.934938e-002
1.835978e+003;4.899683e-002
1.837906e+003;4.848061e-002
1.839835e+003;4.793106e-002
1.841763e+003;4.748148e-002
1.843692e+003;4.705253e-002
1.845620e+003;4.688551e-002
1.847549e+003;4.668081e-002
1.849478e+003;4.635918e-002
1.851406e+003;4.618108e-002
1.853335e+003;4.594161e-002
1.855263e+003;4.569288e-002
1.857192e+003;4.542642e-002
1.859120e+003;4.528202e-002
1.861049e+003;4.503764e-002
1.862977e+003;4.476494e-002
1.864906e+003;4.457364e-002
1.866834e+003;4.422579e-002
1.868763e+003;4.391352e-002
1.870692e+003;4.388801e-002
1.872620e+003;4.385931e-002
1.874549e+003;4.358969e-002
1.876477e+003;4.325759e-002
1.878406e+003;4.300129e-002
1.880334e+003;4.275545e-002
1.882263e+003;4.261782e-002
1.884191e+003;4.248772e-002
1.886120e+003;4.234352e-002
1.888048e+003;4.193826e-002
1.889977e+003;4.174795e-002
1.891906e+003;4.183168e-002
1.893834e+003;4.165538e-002
1.895763e+003;4.151857e-002
1.897691e+003;4.157246e-002
1.899620e+003;4.163554e-002
1.901548e+003;4.166191e-002
1.903477e+003;4.182106e-002
1.905405e+003;4.197873e-002
1.907334e+003;4.208254e-002
1.909262e+003;4.221263e-002
1.911191e+003;4.230152e-002
1.913120e+003;4.232234e-002
1.915048e+003;4.251801e-002
1.916977e+003;4.264465e-002
1.918905e+003;4.294156e-002
1.920834e+003;4.330994e-002
1.922762e+003;4.315804e-002
1.924691e+003;4.305390e-002
1.926619e+003;4.315153e-002
1.928548e+003;4.314944e-002
1.930477e+003;4.304007e-002
1.932405e+003;4.298860e-002
1.934334e+003;4.301659e-002
1.936262e+003;4.303180e-002
1.938191e+003;4.303550e-002
1.940119e+003;4.322096e-002
1.942048e+003;4.328827e-002
1.943976e+003;4.322813e-002
1.945905e+003;4.310864e-002
1.947833e+003;4.288278e-002
1.949762e+003;4.277809e-002
1.951691e+003;4.266987e-002
1.953619e+003;4.240120e-002
1.955548e+003;4.218864e-002
1.957476e+003;4.211405e-002
1.959405e+003;4.203005e-002
1.961333e+003;4.185608e-002
1.963262e+003;4.166683e-002
1.965190e+003;4.145747e-002
1.967119e+003;4.117556e-002
1.969047e+003;4.088033e-002
1.970976e+003;4.080334e-002
1.972905e+003;4.077958e-002
1.974833e+003;4.050098e-002
1.976762e+003;4.027931e-002
1.978690e+003;4.022216e-002
1.980619e+003;4.009907e-002
1.982547e+003;3.960869e-002
1.984476e+003;3.925468e-002
1.986404e+003;3.926012e-002
1.988333e+003;3.911137e-002
1.990261e+003;3.871990e-002
1.992190e+003;3.861501e-002
1.994119e+003;3.872845e-002
1.996047e+003;3.892538e-002
1.997976e+003;3.906873e-002
1.999904e+003;3.915520e-002
2.001833e+003;3.904941e-002
2.003761e+003;3.896383e-002
2.005690e+003;3.908791e-002
2.007618e+003;3.928739e-002
2.009547e+003;3.941480e-002
2.011476e+003;3.970377e-002
2.013404e+003;3.998414e-002
2.015333e+003;4.014871e-002
2.017261e+003;4.035017e-002
2.019190e+003;4.052440e-002
2.021118e+003;4.055292e-002
2.023047e+003;4.055278e-002
2.024975e+003;4.073758e-002
2.026904e+003;4.088528e-002
2.028833e+003;4.093064e-002
2.030761e+003;4.110111e-002
2.032690e+003;4.122223e-002
2.034618e+003;4.114128e-002
2.036547e+003;4.123895e-002
2.038475e+003;4.139201e-002
2.040404e+003;4.144672e-002
2.042332e+003;4.136748e-002
2.044261e+003;4.145776e-002
2.046189e+003;4.166395e-002
2.048118e+003;4.149976e-002
2.050047e+003;4.145160e-002
2.051975e+003;4.159911e-002
2.053904e+003;4.169309e-002
2.055832e+003;4.182430e-002
2.057761e+003;4.203082e-002
2.059689e+003;4.206279e-002
2.061618e+003;4.206097e-002
2.063546e+003;4.192826e-002
2.065475e+003;4.193669e-002
2.067404e+003;4.213956e-002
2.069332e+003;4.225448e-002
2.071260e+003;4.249207e-002
2.073189e+003;4.267777e-002
2.075118e+003;4.275618e-002
2.077046e+003;4.278445e-002
2.078975e+003;4.281465e-002
2.080903e+003;4.292744e-002
2.082832e+003;4.313663e-002
2.084760e+003;4.357602e-002
2.086689e+003;4.412015e-002
2.088617e+003;4.439187e-002
2.090546e+003;4.457915e-002
2.092475e+003;4.495826e-002
2.094403e+003;4.537397e-002
2.096332e+003;4.565843e-002
2.098260e+003;4.580307e-002
2.100189e+003;4.599137e-002
2.102117e+003;4.626702e-002
2.104046e+003;4.661795e-002
2.105974e+003;4.672586e-002
2.107903e+003;4.684716e-002
2.109832e+003;4.696805e-002
2.111760e+003;4.690231e-002
2.113688e+003;4.692674e-002
2.115617e+003;4.714711e-002
2.117546e+003;4.724710e-002
2.119474e+003;4.715180e-002
2.121403e+003;4.711235e-002
2.123331e+003;4.709958e-002
2.125260e+003;4.685772e-002
2.127188e+003;4.671273e-002
2.129117e+003;4.670915e-002
2.131045e+003;4.654979e-002
2.132974e+003;4.630908e-002
2.134903e+003;4.602813e-002
2.136831e+003;4.566112e-002
2.138760e+003;4.551616e-002
2.140688e+003;4.547844e-002
2.142617e+003;4.536087e-002
2.144545e+003;4.509984e-002
2.146474e+003;4.463695e-002
2.148402e+003;4.434280e-002
2.150331e+003;4.427030e-002
2.152260e+003;4.401409e-002
2.154188e+003;4.372711e-002
2.156117e+003;4.353423e-002
2.158045e+003;4.318655e-002
2.159974e+003;4.287993e-002
2.161902e+003;4.262023e-002
2.163831e+003;4.210521e-002
2.165759e+003;4.166804e-002
2.167688e+003;4.144493e-002
2.169616e+003;4.121032e-002
2.171545e+003;4.086686e-002
2.173474e+003;4.045679e-002
2.175402e+003;4.023707e-002
2.177331e+003;3.998563e-002
2.179259e+003;3.977457e-002
2.181188e+003;3.949858e-002
2.183116e+003;3.923081e-002
2.185045e+003;3.916804e-002
2.186973e+003;3.913813e-002
2.188902e+003;3.892577e-002
2.190831e+003;3.863486e-002
2.192759e+003;3.837530e-002
2.194688e+003;3.810359e-002
2.196616e+003;3.805726e-002
2.198545e+003;3.799216e-002
2.200473e+003;3.795907e-002
2.202402e+003;3.790823e-002
2.204330e+003;3.765547e-002
2.206259e+003;3.751290e-002
2.208188e+003;3.765221e-002
2.210116e+003;3.758783e-002
2.212044e+003;3.750734e-002
2.213973e+003;3.747638e-002
2.215902e+003;3.749267e-002
2.217830e+003;3.740725e-002
2.219759e+003;3.732286e-002
2.221687e+003;3.728098e-002
2.223616e+003;3.710147e-002
2.225544e+003;3.702461e-002
2.227473e+003;3.697168e-002
2.229401e+003;3.682699e-002
2.231330e+003;3.663971e-002
2.233259e+003;3.659936e-002
2.235187e+003;3.674430e-002
2.237116e+003;3.679464e-002
2.239044e+003;3.684070e-002
2.240973e+003;3.688091e-002
2.242901e+003;3.701158e-002
2.244830e+003;3.708877e-002
2.246758e+003;3.708592e-002
2.248687e+003;3.691702e-002
2.250615e+003;3.682616e-002
2.252544e+003;3.694325e-002
2.254473e+003;3.704784e-002
2.256401e+003;3.697406e-002
2.258330e+003;3.687929e-002
2.260258e+003;3.693142e-002
2.262187e+003;3.708401e-002
2.264115e+003;3.707036e-002
2.266044e+003;3.684088e-002
2.267972e+003;3.665067e-002
2.269901e+003;3.660019e-002
2.271830e+003;3.651715e-002
2.273758e+003;3.629869e-002
2.275687e+003;3.606579e-002
2.277615e+003;3.607987e-002
2.279544e+003;3.603923e-002
2.281472e+003;3.576930e-002
2.283401e+003;3.556136e-002
2.285329e+003;3.545820e-002
2.287258e+003;3.526870e-002
2.289187e+003;3.515562e-002
2.291115e+003;3.527272e-002
2.293043e+003;3.492355e-002
2.294972e+003;3.427639e-002
2.296901e+003;3.395446e-002
2.298829e+003;3.376264e-002
2.300758e+003;3.354159e-002
2.302686e+003;3.351710e-002
2.304615e+003;3.355175e-002
2.306543e+003;3.345529e-002
2.308472e+003;3.338988e-002
2.310400e+003;3.356009e-002
2.312329e+003;3.347183e-002
2.314258e+003;3.334304e-002
2.316186e+003;3.323819e-002
2.318115e+003;3.303171e-002
2.320043e+003;3.330941e-002
2.321972e+003;3.341360e-002
2.323900e+003;3.327890e-002
2.325829e+003;3.326205e-002
2.327757e+003;3.329539e-002
2.329686e+003;3.309724e-002
2.331615e+003;3.310901e-002
2.333543e+003;3.325354e-002
2.335472e+003;3.347211e-002
2.337400e+003;3.374258e-002
2.339329e+003;3.388083e-002
2.341257e+003;3.399781e-002
2.343186e+003;3.406643e-002
2.345114e+003;3.433896e-002
2.347043e+003;3.459414e-002
2.348971e+003;3.463480e-002
2.350900e+003;3.467298e-002
2.352829e+003;3.481616e-002
2.354757e+003;3.497645e-002
2.356686e+003;3.490660e-002
2.358614e+003;3.484374e-002
2.360543e+003;3.489949e-002
2.362471e+003;3.484653e-002
2.364400e+003;3.482769e-002
2.366328e+003;3.485619e-002
2.368257e+003;3.485066e-002
2.370186e+003;3.475963e-002
2.372114e+003;3.458320e-002
2.374042e+003;3.445879e-002
2.375971e+003;3.444397e-002
2.377900e+003;3.456336e-002
2.379828e+003;3.444354e-002
2.381757e+003;3.432257e-002
2.383685e+003;3.443117e-002
2.385614e+003;3.455109e-002
2.387542e+003;3.468055e-002
2.389471e+003;3.505640e-002
2.391399e+003;3.525684e-002
2.393328e+003;3.506469e-002
2.395257e+003;3.513360e-002
2.397185e+003;3.556949e-002
2.399114e+003;3.592487e-002
2.401042e+003;3.615592e-002
2.402971e+003;3.646868e-002
2.404899e+003;3.676738e-002
2.406828e+003;3.703803e-002
2.408756e+003;3.724228e-002
2.410685e+003;3.732189e-002
2.412614e+003;3.734868e-002
2.414542e+003;3.734045e-002
2.416471e+003;3.741578e-002
2.418399e+003;3.732344e-002
2.420328e+003;3.713294e-002
2.422256e+003;3.721369e-002
2.424185e+003;3.745966e-002
2.426113e+003;3.739598e-002
2.428042e+003;3.721589e-002
2.429970e+003;3.729036e-002
2.431899e+003;3.742322e-002
2.433828e+003;3.758216e-002
2.435756e+003;3.761597e-002
2.437685e+003;3.749683e-002
2.439613e+003;3.736532e-002
2.441542e+003;3.727657e-002
2.443470e+003;3.736244e-002
2.445399e+003;3.742918e-002
2.447327e+003;3.735474e-002
2.449256e+003;3.731246e-002
2.451185e+003;3.721907e-002
2.453113e+003;3.718355e-002
2.455042e+003;3.730954e-002
2.456970e+003;3.727874e-002
2.458899e+003;3.714731e-002
2.460827e+003;3.721794e-002
2.462756e+003;3.715720e-002
2.464684e+003;3.695158e-002
2.466613e+003;3.706643e-002
2.468542e+003;3.734868e-002
2.470470e+003;3.718802e-002
2.472398e+003;3.698964e-002
2.474327e+003;3.694960e-002
2.476256e+003;3.689560e-002
2.478184e+003;3.686277e-002
2.480113e+003;3.679911e-002
2.482041e+003;3.691605e-002
2.483970e+003;3.680120e-002
2.485898e+003;3.653495e-002
2.487827e+003;3.648086e-002
2.489755e+003;3.630982e-002
2.491684e+003;3.607814e-002
2.493613e+003;3.591968e-002
2.495541e+003;3.574775e-002
2.497470e+003;3.538590e-002
2.499398e+003;3.529270e-002
2.501327e+003;3.540945e-002
2.503255e+003;3.514922e-002
2.505184e+003;3.510370e-002
2.507112e+003;3.514664e-002
2.509041e+003;3.479832e-002
2.510969e+003;3.463010e-002
2.512898e+003;3.464919e-002
2.514827e+003;3.474591e-002
2.516755e+003;3.477452e-002
2.518684e+003;3.452275e-002
2.520612e+003;3.441811e-002
2.522541e+003;3.444060e-002
2.524469e+003;3.449663e-002
2.526398e+003;3.426409e-002
2.528326e+003;3.383208e-002
2.530255e+003;3.384885e-002
2.532184e+003;3.400279e-002
2.534112e+003;3.389566e-002
2.536041e+003;3.379945e-002
2.537969e+003;3.367229e-002
2.539898e+003;3.354205e-002
2.541826e+003;3.355522e-002
2.543755e+003;3.354781e-002
2.545683e+003;3.359313e-002
2.547612e+003;3.371358e-002
2.549541e+003;3.370885e-002
2.551469e+003;3.369907e-002
2.553397e+003;3.367709e-002
2.555326e+003;3.374738e-002
2.557255e+003;3.388037e-002
2.559183e+003;3.395990e-002
2.561112e+003;3.417020e-002
2.563040e+003;3.427926e-002
2.564969e+003;3.437712e-002
2.566897e+003;3.476379e-002
2.568826e+003;3.518124e-002
2.570754e+003;3.544766e-002
2.572683e+003;3.566786e-002
2.574612e+003;3.572304e-002
2.576540e+003;3.572145e-002
2.578469e+003;3.583925e-002
2.580397e+003;3.604308e-002
2.582326e+003;3.625943e-002
2.584254e+003;3.642875e-002
2.586183e+003;3.646453e-002
2.588111e+003;3.660344e-002
2.590040e+003;3.700660e-002
2.591969e+003;3.711132e-002
2.593897e+003;3.693585e-002
2.595826e+003;3.701999e-002
2.597754e+003;3.714583e-002
2.599683e+003;3.723419e-002
2.601611e+003;3.726502e-002
2.603540e+003;3.722838e-002
2.605468e+003;3.746244e-002
2.607397e+003;3.780321e-002
2.609325e+003;3.779580e-002
2.611254e+003;3.781406e-002
2.613183e+003;3.798070e-002
2.615111e+003;3.819172e-002
2.617040e+003;3.849787e-002
2.618968e+003;3.854099e-002
2.620897e+003;3.829625e-002
2.622825e+003;3.828630e-002
2.624754e+003;3.847934e-002
2.626682e+003;3.859506e-002
2.628611e+003;3.871653e-002
2.630540e+003;3.899170e-002
2.632468e+003;3.932359e-002
2.634396e+003;3.950224e-002
2.636325e+003;3.945123e-002
2.638254e+003;3.935207e-002
2.640182e+003;3.957370e-002
2.642111e+003;3.972239e-002
2.644039e+003;3.991592e-002
2.645968e+003;3.996689e-002
2.647896e+003;3.978503e-002
2.649825e+003;3.946156e-002
2.651753e+003;3.925700e-002
2.653682e+003;3.942543e-002
2.655611e+003;3.937369e-002
2.657539e+003;3.920550e-002
2.659468e+003;3.904191e-002
2.661396e+003;3.887722e-002
2.663325e+003;3.874548e-002
2.665253e+003;3.906659e-002
2.667182e+003;3.936132e-002
2.669110e+003;3.918741e-002
2.671039e+003;3.907124e-002
2.672968e+003;3.913990e-002
2.674896e+003;3.928895e-002
2.676825e+003;3.931837e-002
2.678753e+003;3.929051e-002
2.680682e+003;3.921083e-002
2.682610e+003;3.926063e-002
2.684539e+003;3.937532e-002
2.686467e+003;3.913708e-002
2.688396e+003;3.901773e-002
2.690324e+003;3.927738e-002
2.692253e+003;3.955374e-002
2.694182e+003;3.977159e-002
2.696110e+003;3.997858e-002
2.698039e+003;4.008166e-002
2.699967e+003;4.000260e-002
2.701896e+003;4.017462e-002
2.703824e+003;4.052670e-002
2.705753e+003;4.093574e-002
2.707681e+003;4.112063e-002
2.709610e+003;4.116518e-002
2.711539e+003;4.161815e-002
2.713467e+003;4.208889e-002
2.715396e+003;4.243280e-002
2.717324e+003;4.270402e-002
2.719253e+003;4.293666e-002
2.721181e+003;4.318527e-002
2.723110e+003;4.330562e-002
2.725038e+003;4.329914e-002
2.726967e+003;4.333912e-002
2.728896e+003;4.345343e-002
2.730824e+003;4.351958e-002
2.732752e+003;4.347197e-002
2.734681e+003;4.335801e-002
2.736610e+003;4.318512e-002
2.738538e+003;4.306327e-002
2.740467e+003;4.312950e-002
2.742395e+003;4.337233e-002
2.744324e+003;4.339858e-002
2.746252e+003;4.339869e-002
2.748181e+003;4.328410e-002
2.750109e+003;4.302749e-002
2.752038e+003;4.274419e-002
2.753967e+003;4.292188e-002
2.755895e+003;4.327099e-002
2.757824e+003;4.314545e-002
2.759752e+003;4.290780e-002
2.761681e+003;4.283480e-002
2.763609e+003;4.298490e-002
2.765538e+003;4.316616e-002
2.767466e+003;4.316697e-002
2.769395e+003;4.309664e-002
2.771323e+003;4.324606e-002
2.773252e+003;4.351855e-002
2.775181e+003;4.371953e-002
2.777109e+003;4.377846e-002
2.779038e+003;4.388247e-002
2.780966e+003;4.415133e-002
2.782895e+003;4.446230e-002
2.784823e+003;4.455187e-002
2.786752e+003;4.473383e-002
2.788680e+003;4.506837e-002
2.790609e+003;4.538199e-002
2.792538e+003;4.566392e-002
2.794466e+003;4.582340e-002
2.796395e+003;4.594791e-002
2.798323e+003;4.615546e-002
2.800252e+003;4.648030e-002
2.802180e+003;4.654012e-002
2.804109e+003;4.655130e-002
2.806037e+003;4.681852e-002
2.807966e+003;4.714382e-002
2.809895e+003;4.706309e-002
2.811823e+003;4.716085e-002
2.813751e+003;4.777007e-002
2.815680e+003;4.805518e-002
2.817609e+003;4.818518e-002
2.819537e+003;4.837904e-002
2.821466e+003;4.850143e-002
2.823394e+003;4.878491e-002
2.825323e+003;4.920178e-002
2.827251e+003;4.951122e-002
2.829180e+003;4.995614e-002
2.831108e+003;5.039211e-002
2.833037e+003;5.079480e-002
2.834966e+003;5.142399e-002
2.836894e+003;5.212731e-002
2.838823e+003;5.276824e-002
2.840751e+003;5.334976e-002
2.842680e+003;5.403632e-002
2.844608e+003;5.450356e-002
2.846537e+003;5.500563e-002
2.848465e+003;5.586628e-002
2.850394e+003;5.652725e-002
2.852323e+003;5.720229e-002
2.854251e+003;5.844830e-002
2.856180e+003;5.985280e-002
2.858108e+003;6.114622e-002
2.860037e+003;6.242725e-002
2.861965e+003;6.404878e-002
2.863894e+003;6.539415e-002
2.865822e+003;6.609116e-002
2.867751e+003;6.677507e-002
2.869679e+003;6.749729e-002
2.871608e+003;6.801590e-002
2.873536e+003;6.849545e-002
2.875465e+003;6.888586e-002
2.877394e+003;6.908359e-002
2.879322e+003;6.929555e-002
2.881251e+003;6.961304e-002
2.883179e+003;7.015277e-002
2.885108e+003;7.032773e-002
2.887036e+003;7.046251e-002
2.888965e+003;7.045448e-002
2.890893e+003;7.008030e-002
2.892822e+003;6.978857e-002
2.894750e+003;6.955995e-002
2.896679e+003;6.949221e-002
2.898608e+003;6.935567e-002
2.900536e+003;6.888854e-002
2.902465e+003;6.879932e-002
2.904393e+003;6.868532e-002
2.906322e+003;6.846791e-002
2.908250e+003;6.809733e-002
2.910179e+003;6.731797e-002
2.912107e+003;6.655688e-002
2.914036e+003;6.584821e-002
2.915965e+003;6.509770e-002
2.917893e+003;6.484476e-002
2.919822e+003;6.483241e-002
2.921750e+003;6.463526e-002
2.923679e+003;6.495403e-002
2.925607e+003;6.554520e-002
2.927536e+003;6.621239e-002
2.929464e+003;6.695992e-002
2.931393e+003;6.773307e-002
2.933322e+003;6.896403e-002
2.935250e+003;7.021866e-002
2.937178e+003;7.113121e-002
2.939107e+003;7.212580e-002
2.941036e+003;7.277247e-002
2.942964e+003;7.308381e-002
2.944893e+003;7.313353e-002
2.946821e+003;7.295135e-002
2.948750e+003;7.286838e-002
2.950678e+003;7.245868e-002
2.952607e+003;7.159635e-002
2.954535e+003;7.095073e-002
2.956464e+003;7.059554e-002
2.958393e+003;7.043936e-002
2.960321e+003;7.016748e-002
2.962250e+003;6.971313e-002
2.964178e+003;6.902656e-002
2.966107e+003;6.823297e-002
2.968035e+003;6.760990e-002
2.969964e+003;6.694968e-002
2.971892e+003;6.621602e-002
2.973821e+003;6.543737e-002
2.975750e+003;6.500101e-002
2.977678e+003;6.467433e-002
2.979607e+003;6.432626e-002
2.981535e+003;6.395633e-002
2.983464e+003;6.358029e-002
2.985392e+003;6.308744e-002
2.987321e+003;6.265796e-002
2.989249e+003;6.259439e-002
2.991178e+003;6.266003e-002
2.993106e+003;6.230627e-002
2.995035e+003;6.173602e-002
2.996964e+003;6.117132e-002
2.998892e+003;6.087438e-002
3.000821e+003;6.058637e-002
3.002749e+003;6.000433e-002
3.004678e+003;5.937730e-002
3.006606e+003;5.898646e-002
3.008535e+003;5.885262e-002
3.010463e+003;5.854975e-002
3.012392e+003;5.818189e-002
3.014321e+003;5.816333e-002
3.016249e+003;5.825915e-002
3.018177e+003;5.813568e-002
3.020106e+003;5.768930e-002
3.022035e+003;5.718861e-002
3.023963e+003;5.704081e-002
3.025892e+003;5.690598e-002
3.027820e+003;5.657299e-002
3.029749e+003;5.618572e-002
3.031677e+003;5.557792e-002
3.033606e+003;5.514285e-002
3.035534e+003;5.512351e-002
3.037463e+003;5.444650e-002
3.039392e+003;5.363110e-002
3.041320e+003;5.301169e-002
3.043249e+003;5.252063e-002
3.045177e+003;5.190161e-002
3.047106e+003;5.131065e-002
3.049034e+003;5.089660e-002
3.050963e+003;5.032156e-002
3.052891e+003;4.970232e-002
3.054820e+003;4.948452e-002
3.056749e+003;4.894439e-002
3.058677e+003;4.831474e-002
3.060606e+003;4.813706e-002
3.062534e+003;4.785614e-002
3.064463e+003;4.744600e-002
3.066391e+003;4.704681e-002
3.068320e+003;4.693830e-002
3.070248e+003;4.665410e-002
3.072177e+003;4.646622e-002
3.074105e+003;4.639513e-002
3.076034e+003;4.613450e-002
3.077963e+003;4.561401e-002
3.079891e+003;4.516844e-002
3.081820e+003;4.534712e-002
3.083748e+003;4.529217e-002
3.085677e+003;4.502191e-002
3.087605e+003;4.472916e-002
3.089534e+003;4.465046e-002
3.091462e+003;4.467282e-002
3.093391e+003;4.440148e-002
3.095320e+003;4.450037e-002
3.097248e+003;4.466908e-002
3.099177e+003;4.436930e-002
3.101105e+003;4.424883e-002
3.103034e+003;4.443118e-002
3.104962e+003;4.435388e-002
3.106891e+003;4.410930e-002
3.108819e+003;4.404416e-002
3.110748e+003;4.404468e-002
3.112677e+003;4.415878e-002
3.114605e+003;4.397834e-002
3.116533e+003;4.358818e-002
3.118462e+003;4.350731e-002
3.120391e+003;4.345226e-002
3.122319e+003;4.321283e-002
3.124248e+003;4.289778e-002
3.126176e+003;4.270416e-002
3.128105e+003;4.296080e-002
3.130033e+003;4.293878e-002
3.131962e+003;4.280207e-002
3.133890e+003;4.276039e-002
3.135819e+003;4.278854e-002
3.137748e+003;4.268190e-002
3.139676e+003;4.250329e-002
3.141605e+003;4.252057e-002
3.143533e+003;4.267024e-002
3.145462e+003;4.271469e-002
3.147390e+003;4.251439e-002
3.149319e+003;4.241804e-002
3.151247e+003;4.227037e-002
3.153176e+003;4.202976e-002
3.155104e+003;4.186247e-002
3.157033e+003;4.209327e-002
3.158962e+003;4.240219e-002
3.160890e+003;4.261431e-002
3.162819e+003;4.253979e-002
3.164747e+003;4.214913e-002
3.166676e+003;4.185411e-002
3.168604e+003;4.169831e-002
3.170533e+003;4.195337e-002
3.172461e+003;4.250054e-002
3.174390e+003;4.258412e-002
3.176319e+003;4.214136e-002
3.178247e+003;4.201946e-002
3.180176e+003;4.205640e-002
3.182104e+003;4.226825e-002
3.184033e+003;4.257952e-002
3.185961e+003;4.270731e-002
3.187890e+003;4.277593e-002
3.189818e+003;4.266271e-002
3.191747e+003;4.233804e-002
3.193676e+003;4.239620e-002
3.195604e+003;4.241103e-002
3.197532e+003;4.233195e-002
3.199461e+003;4.247892e-002
3.201390e+003;4.262623e-002
3.203318e+003;4.275348e-002
3.205247e+003;4.278902e-002
3.207175e+003;4.280119e-002
3.209104e+003;4.267981e-002
3.211032e+003;4.248823e-002
3.212961e+003;4.283480e-002
3.214889e+003;4.331854e-002
3.216818e+003;4.304556e-002
3.218747e+003;4.282102e-002
3.220675e+003;4.327872e-002
3.222604e+003;4.370667e-002
3.224532e+003;4.387639e-002
3.226461e+003;4.395283e-002
3.228389e+003;4.407911e-002
3.230318e+003;4.420532e-002
3.232246e+003;4.427573e-002
3.234175e+003;4.448443e-002
3.236104e+003;4.470437e-002
3.238032e+003;4.493515e-002
3.239961e+003;4.490807e-002
3.241889e+003;4.506495e-002
3.243818e+003;4.516913e-002
3.245746e+003;4.506955e-002
3.247675e+003;4.532843e-002
3.249603e+003;4.556344e-002
3.251532e+003;4.563694e-002
3.253460e+003;4.566748e-002
3.255389e+003;4.584383e-002
3.257318e+003;4.600422e-002
3.259246e+003;4.591690e-002
3.261175e+003;4.600135e-002
3.263103e+003;4.629013e-002
3.265032e+003;4.656564e-002
3.266960e+003;4.711893e-002
3.268889e+003;4.742342e-002
3.270817e+003;4.726239e-002
3.272746e+003;4.739293e-002
3.274675e+003;4.806836e-002
3.276603e+003;4.811944e-002
3.278531e+003;4.829212e-002
3.280460e+003;4.865187e-002
3.282389e+003;4.815457e-002
3.284317e+003;4.828534e-002
3.286246e+003;4.860373e-002
3.288174e+003;4.885843e-002
3.290103e+003;4.911851e-002
3.292031e+003;4.922868e-002
3.293960e+003;4.933583e-002
3.295888e+003;4.954346e-002
3.297817e+003;4.988381e-002
3.299746e+003;5.013167e-002
3.301674e+003;5.022265e-002
3.303603e+003;5.032443e-002
3.305531e+003;5.066934e-002
3.307460e+003;5.082005e-002
3.309388e+003;5.106898e-002
3.311317e+003;5.148110e-002
3.313245e+003;5.168856e-002
3.315174e+003;5.194022e-002
3.317103e+003;5.222831e-002
3.319031e+003;5.212320e-002
3.320960e+003;5.193570e-002
3.322888e+003;5.219031e-002
3.324817e+003;5.271055e-002
3.326745e+003;5.309668e-002
3.328674e+003;5.318468e-002
3.330602e+003;5.343859e-002
3.332531e+003;5.394946e-002
3.334459e+003;5.385039e-002
3.336388e+003;5.376747e-002
3.338317e+003;5.393730e-002
3.340245e+003;5.402626e-002
3.342174e+003;5.426193e-002
3.344102e+003;5.466429e-002
3.346031e+003;5.503448e-002
3.347959e+003;5.518927e-002
3.349888e+003;5.520271e-002
3.351816e+003;5.553461e-002
3.353745e+003;5.587837e-002
3.355674e+003;5.586044e-002
3.357602e+003;5.605375e-002
3.359531e+003;5.671009e-002
3.361459e+003;5.710418e-002
3.363388e+003;5.739927e-002
3.365316e+003;5.717043e-002
3.367245e+003;5.695633e-002
3.369173e+003;5.721084e-002
3.371102e+003;5.738528e-002
3.373031e+003;5.773906e-002
3.374959e+003;5.829715e-002
3.376887e+003;5.862207e-002
3.378816e+003;5.872113e-002
3.380745e+003;5.870209e-002
3.382673e+003;5.888221e-002
3.384602e+003;5.893959e-002
3.386530e+003;5.890005e-002
3.388459e+003;5.950614e-002
3.390387e+003;5.995017e-002
3.392316e+003;5.996314e-002
3.394244e+003;6.040146e-002
3.396173e+003;6.084595e-002
3.398102e+003;6.070208e-002
3.400030e+003;6.085490e-002
3.401959e+003;6.103913e-002
3.403887e+003;6.078340e-002
3.405816e+003;6.109965e-002
3.407744e+003;6.150065e-002
3.409673e+003;6.153645e-002
3.411601e+003;6.183205e-002
3.413530e+003;6.188909e-002
3.415458e+003;6.188187e-002
3.417387e+003;6.221693e-002
3.419316e+003;6.247959e-002
3.421244e+003;6.248609e-002
3.423173e+003;6.272208e-002
3.425101e+003;6.349622e-002
3.427030e+003;6.401695e-002
3.428958e+003;6.436116e-002
3.430887e+003;6.470102e-002
3.432815e+003;6.470148e-002
3.434744e+003;6.465084e-002
3.436673e+003;6.457790e-002
3.438601e+003;6.495141e-002
3.440530e+003;6.537489e-002
3.442458e+003;6.559202e-002
3.444387e+003;6.575606e-002
3.446315e+003;6.597254e-002
3.448244e+003;6.600895e-002
3.450172e+003;6.604733e-002
3.452101e+003;6.659330e-002
3.454030e+003;6.670281e-002
3.455958e+003;6.682388e-002
3.457886e+003;6.743830e-002
3.459815e+003;6.785426e-002
3.461744e+003;6.777548e-002
3.463672e+003;6.782316e-002
3.465601e+003;6.820785e-002
3.467529e+003;6.851500e-002
3.469458e+003;6.884571e-002
3.471386e+003;6.916373e-002
3.473315e+003;6.901634e-002
3.475243e+003;6.893370e-002
3.477172e+003;6.908557e-002
3.479101e+003;6.916603e-002
3.481029e+003;6.900827e-002
3.482958e+003;6.863020e-002
3.484886e+003;6.872366e-002
3.486815e+003;6.894640e-002
3.488743e+003;6.892201e-002
3.490672e+003;6.893960e-002
3.492600e+003;6.885911e-002
3.494529e+003;6.860261e-002
3.496458e+003;6.883337e-002
3.498386e+003;6.890178e-002
3.500315e+003;6.853145e-002
3.502243e+003;6.827480e-002
3.504172e+003;6.837799e-002
3.506100e+003;6.836027e-002
3.508029e+003;6.833258e-002
3.509957e+003;6.819013e-002
3.511886e+003;6.804962e-002
3.513814e+003;6.792864e-002
3.515743e+003;6.755365e-002
3.517672e+003;6.726555e-002
3.519600e+003;6.741722e-002
3.521529e+003;6.740274e-002
3.523457e+003;6.712735e-002
3.525386e+003;6.670988e-002
3.527314e+003;6.648837e-002
3.529243e+003;6.649674e-002
3.531171e+003;6.607106e-002
3.533100e+003;6.577850e-002
3.535029e+003;6.558763e-002
3.536957e+003;6.515928e-002
3.538885e+003;6.521380e-002
3.540814e+003;6.541025e-002
3.542743e+003;6.505150e-002
3.544671e+003;6.432150e-002
3.546600e+003;6.380567e-002
3.548528e+003;6.337785e-002
3.550457e+003;6.276182e-002
3.552385e+003;6.237886e-002
3.554314e+003;6.230581e-002
3.556242e+003;6.213072e-002
3.558171e+003;6.159002e-002
3.560100e+003;6.132931e-002
3.562028e+003;6.105732e-002
3.563957e+003;6.046951e-002
3.565885e+003;5.965706e-002
3.567814e+003;5.904678e-002
3.569742e+003;5.913413e-002
3.571671e+003;5.876779e-002
3.573599e+003;5.793920e-002
3.575528e+003;5.777623e-002
3.577457e+003;5.766380e-002
3.579385e+003;5.682806e-002
3.581314e+003;5.615649e-002
3.583242e+003;5.603724e-002
3.585171e+003;5.545969e-002
3.587099e+003;5.447876e-002
3.589028e+003;5.410961e-002
3.590956e+003;5.380486e-002
3.592885e+003;5.313263e-002
3.594813e+003;5.257537e-002
3.596742e+003;5.220122e-002
3.598671e+003;5.174507e-002
3.600599e+003;5.107438e-002
3.602528e+003;5.025043e-002
3.604456e+003;4.990764e-002
3.606385e+003;4.944966e-002
3.608313e+003;4.857120e-002
3.610242e+003;4.790269e-002
3.612170e+003;4.729908e-002
3.614099e+003;4.688699e-002
3.616028e+003;4.658962e-002
3.617956e+003;4.608351e-002
3.619885e+003;4.594238e-002
3.621813e+003;4.596397e-002
3.623742e+003;4.555700e-002
3.625670e+003;4.485795e-002
3.627599e+003;4.361885e-002
3.629527e+003;4.285151e-002
3.631456e+003;4.308863e-002
3.633385e+003;4.297031e-002
3.635313e+003;4.251385e-002
3.637241e+003;4.192399e-002
3.639170e+003;4.135851e-002
3.641099e+003;4.105493e-002
3.643027e+003;4.060309e-002
3.644956e+003;3.993455e-002
3.646884e+003;3.887852e-002
3.648813e+003;3.785324e-002
3.650741e+003;3.761261e-002
3.652670e+003;3.766746e-002
3.654598e+003;3.669339e-002
3.656527e+003;3.551656e-002
3.658456e+003;3.487745e-002
3.660384e+003;3.413633e-002
3.662313e+003;3.342834e-002
3.664241e+003;3.281010e-002
3.666170e+003;3.208205e-002
3.668098e+003;3.080034e-002
3.670027e+003;2.958029e-002
3.671955e+003;2.911904e-002
3.673884e+003;2.824338e-002
3.675813e+003;2.758674e-002
3.677741e+003;2.781898e-002
3.679669e+003;2.736831e-002
3.681598e+003;2.684109e-002
3.683527e+003;2.618674e-002
3.685455e+003;2.523436e-002
3.687384e+003;2.450529e-002
3.689312e+003;2.461413e-002
3.691241e+003;2.498307e-002
3.693169e+003;2.458667e-002
3.695098e+003;2.420285e-002
3.697026e+003;2.405045e-002
3.698955e+003;2.379684e-002
3.700884e+003;2.333833e-002
3.702812e+003;2.292610e-002
3.704741e+003;2.285817e-002
3.706669e+003;2.293951e-002
3.708598e+003;2.283295e-002
3.710526e+003;2.250735e-002
3.712455e+003;2.243969e-002
3.714383e+003;2.262905e-002
3.716312e+003;2.258015e-002
3.718240e+003;2.247228e-002
3.720169e+003;2.245148e-002
3.722098e+003;2.237047e-002
3.724026e+003;2.237183e-002
3.725955e+003;2.238195e-002
3.727883e+003;2.232303e-002
3.729812e+003;2.199195e-002
3.731740e+003;2.138673e-002
3.733669e+003;2.130582e-002
3.735597e+003;2.159165e-002
3.737526e+003;2.195149e-002
3.739455e+003;2.167200e-002
3.741383e+003;2.128942e-002
3.743312e+003;2.084451e-002
3.745240e+003;2.070881e-002
3.747169e+003;2.064122e-002
3.749097e+003;2.027761e-002
3.751026e+003;2.028056e-002
3.752954e+003;2.064539e-002
3.754883e+003;2.101808e-002
3.756812e+003;2.090017e-002
3.758740e+003;2.115982e-002
3.760668e+003;2.173518e-002
3.762597e+003;2.166517e-002
3.764526e+003;2.134413e-002
3.766454e+003;2.158445e-002
3.768383e+003;2.135464e-002
3.770311e+003;2.060804e-002
3.772240e+003;2.102441e-002
3.774168e+003;2.190242e-002
3.776097e+003;2.206787e-002
3.778025e+003;2.175232e-002
3.779954e+003;2.147397e-002
3.781883e+003;2.146533e-002
3.783811e+003;2.141225e-002
3.785740e+003;2.128153e-002
3.787668e+003;2.113435e-002
3.789597e+003;2.122056e-002
3.791525e+003;2.181590e-002
3.793454e+003;2.212672e-002
3.795382e+003;2.181695e-002
3.797311e+003;2.169788e-002
3.799240e+003;2.117130e-002
3.801168e+003;2.065867e-002
3.803097e+003;2.123699e-002
3.805025e+003;2.129701e-002
3.806954e+003;2.107477e-002
3.808882e+003;2.169899e-002
3.810811e+003;2.200018e-002
3.812739e+003;2.138346e-002
3.814668e+003;2.045558e-002
3.816596e+003;2.032980e-002
3.818525e+003;2.087437e-002
3.820454e+003;2.113672e-002
3.822382e+003;2.160705e-002
3.824311e+003;2.199809e-002
3.826239e+003;2.180315e-002
3.828168e+003;2.145844e-002
3.830096e+003;2.149040e-002
3.832025e+003;2.131758e-002
3.833953e+003;2.103731e-002
3.835882e+003;2.103025e-002
3.837811e+003;2.111387e-002
3.839739e+003;2.133428e-002
3.841667e+003;2.156404e-002
3.843596e+003;2.163968e-002
3.845525e+003;2.151888e-002
3.847453e+003;2.127391e-002
3.849382e+003;2.126228e-002
3.851310e+003;2.092743e-002
3.853239e+003;2.065582e-002
3.855167e+003;2.125651e-002
3.857096e+003;2.173020e-002
3.859024e+003;2.151592e-002
3.860953e+003;2.145297e-002
3.862882e+003;2.190078e-002
3.864810e+003;2.190078e-002
3.866739e+003;2.184513e-002
3.868667e+003;2.184405e-002
3.870596e+003;2.234657e-002
3.872524e+003;2.244115e-002
3.874453e+003;2.239918e-002
3.876381e+003;2.277921e-002
3.878310e+003;2.284406e-002
3.880239e+003;2.239772e-002
3.882167e+003;2.201994e-002
3.884096e+003;2.210877e-002
3.886024e+003;2.286812e-002
3.887953e+003;2.339319e-002
3.889881e+003;2.304711e-002
3.891810e+003;2.298971e-002
3.893738e+003;2.331889e-002
3.895667e+003;2.324677e-002
3.897595e+003;2.293916e-002
3.899524e+003;2.321437e-002
3.901453e+003;2.358867e-002
3.903381e+003;2.349527e-002
3.905310e+003;2.409265e-002
3.907238e+003;2.474000e-002
3.909167e+003;2.471099e-002
3.911095e+003;2.445523e-002
3.913024e+003;2.440259e-002
3.914952e+003;2.459551e-002
3.916881e+003;2.477413e-002
3.918810e+003;2.510052e-002
3.920738e+003;2.497314e-002
3.922667e+003;2.443508e-002
3.924595e+003;2.457436e-002
3.926524e+003;2.506475e-002
3.928452e+003;2.542607e-002
3.930381e+003;2.566753e-002
3.932309e+003;2.577556e-002
3.934238e+003;2.560781e-002
3.936167e+003;2.564791e-002
3.938095e+003;2.596649e-002
3.940023e+003;2.606985e-002
3.941952e+003;2.578273e-002
3.943881e+003;2.583084e-002
3.945809e+003;2.570767e-002
3.947738e+003;2.562974e-002
3.949666e+003;2.632916e-002
3.951595e+003;2.643324e-002
3.953523e+003;2.622275e-002
3.955452e+003;2.668103e-002
3.957380e+003;2.708697e-002
3.959309e+003;2.720354e-002
3.961238e+003;2.734908e-002
3.963166e+003;2.740883e-002
3.965095e+003;2.757607e-002
3.967023e+003;2.833649e-002
3.968952e+003;2.915161e-002
3.970880e+003;2.894079e-002
3.972809e+003;2.889726e-002
3.974737e+003;2.913052e-002
3.976666e+003;2.891681e-002
3.978594e+003;2.869407e-002
3.980523e+003;2.892878e-002
3.982452e+003;2.880608e-002
3.984380e+003;2.839004e-002
3.986309e+003;2.856577e-002
3.988237e+003;2.900231e-002
3.990166e+003;2.885937e-002
3.992094e+003;2.859699e-002
3.994023e+003;2.860003e-002
3.995951e+003;2.864568e-002
3.997880e+003;2.861974e-002
3.999809e+003;2.845634e-002
4.001737e+003;0.000000e+000
