3.992094e+002;0.000000e+000
4.011380e+002;0.000000e+000
4.030665e+002;0.000000e+000
4.049951e+002;0.000000e+000
4.069236e+002;0.000000e+000
4.088522e+002;0.000000e+000
4.107807e+002;0.000000e+000
4.127093e+002;0.000000e+000
4.146378e+002;0.000000e+000
4.165664e+002;0.000000e+000
4.184949e+002;0.000000e+000
4.204235e+002;0.000000e+000
4.223520e+002;0.000000e+000
4.242806e+002;0.000000e+000
4.262091e+002;0.000000e+000
4.281377e+002;0.000000e+000
4.300662e+002;0.000000e+000
4.319948e+002;0.000000e+000
4.339233e+002;0.000000e+000
4.358519e+002;0.000000e+000
4.377804e+002;0.000000e+000
4.397090e+002;0.000000e+000
4.416375e+002;0.000000e+000
4.435660e+002;0.000000e+000
4.454946e+002;0.000000e+000
4.474232e+002;0.000000e+000
4.493517e+002;0.000000e+000
4.512802e+002;0.000000e+000
4.532088e+002;0.000000e+000
4.551373e+002;0.000000e+000
4.570659e+002;0.000000e+000
4.589944e+002;0.000000e+000
4.609230e+002;0.000000e+000
4.628515e+002;0.000000e+000
4.647801e+002;0.000000e+000
4.667086e+002;0.000000e+000
4.686372e+002;0.000000e+000
4.705657e+002;0.000000e+000
4.724943e+002;0.000000e+000
4.744228e+002;0.000000e+000
4.763513e+002;0.000000e+000
4.782799e+002;0.000000e+000
4.802085e+002;0.000000e+000
4.821370e+002;0.000000e+000
4.840656e+002;0.000000e+000
4.859941e+002;0.000000e+000
4.879226e+002;0.000000e+000
4.898512e+002;0.000000e+000
4.917798e+002;0.000000e+000
4.937083e+002;0.000000e+000
4.956368e+002;0.000000e+000
4.975654e+002;0.000000e+000
4.994939e+002;0.000000e+000
5.014225e+002;0.000000e+000
5.033510e+002;0.000000e+000
5.052796e+002;0.000000e+000
5.072081e+002;0.000000e+000
5.091367e+002;0.000000e+000
5.110652e+002;0.000000e+000
5.129938e+002;0.000000e+000
5.149223e+002;0.000000e+000
5.168509e+002;0.000000e+000
5.187794e+002;0.000000e+000
5.207079e+002;0.000000e+000
5.226365e+002;0.000000e+000
5.245651e+002;0.000000e+000
5.264936e+002;0.000000e+000
5.284222e+002;0.000000e+000
5.303507e+002;0.000000e+000
5.322792e+002;0.000000e+000
5.342078e+002;0.000000e+000
5.361364e+002;0.000000e+000
5.380649e+002;0.000000e+000
5.399935e+002;0.000000e+000
5.419220e+002;0.000000e+000
5.438505e+002;0.000000e+000
5.457791e+002;0.000000e+000
5.477076e+002;0.000000e+000
5.496362e+002;0.000000e+000
5.515648e+002;0.000000e+000
5.534933e+002;0.000000e+000
5.554218e+002;0.000000e+000
5.573504e+002;0.000000e+000
5.592789e+002;0.000000e+000
5.612075e+002;0.000000e+000
5.631360e+002;0.000000e+000
5.650646e+002;0.000000e+000
5.669931e+002;0.000000e+000
5.689217e+002;0.000000e+000
5.708502e+002;0.000000e+000
5.727787e+002;0.000000e+000
5.747073e+002;0.000000e+000
5.766359e+002;0.000000e+000
5.785644e+002;0.000000e+000
5.804930e+002;0.000000e+000
5.824215e+002;0.000000e+000
5.843500e+002;0.000000e+000
5.862786e+002;0.000000e+000
5.882072e+002;0.000000e+000
5.901357e+002;0.000000e+000
5.920643e+002;0.000000e+000
5.939928e+002;0.000000e+000
5.959213e+002;0.000000e+000
5.978499e+002;0.000000e+000
5.997784e+002;1.788571e-001
6.017070e+002;1.871263e-001
6.036355e+002;1.902374e-001
6.055641e+002;1.853910e-001
6.074926e+002;1.749279e-001
6.094211e+002;1.647850e-001
6.113497e+002;1.611832e-001
6.132783e+002;1.566887e-001
6.152068e+002;1.510188e-001
6.171354e+002;1.501646e-001
6.190639e+002;1.473390e-001
6.209924e+002;1.437267e-001
6.229210e+002;1.415191e-001
6.248495e+002;1.377556e-001
6.267781e+002;1.360676e-001
6.287067e+002;1.342730e-001
6.306352e+002;1.303547e-001
6.325637e+002;1.274356e-001
6.344923e+002;1.255862e-001
6.364208e+002;1.248422e-001
6.383494e+002;1.278752e-001
6.402780e+002;1.296147e-001
6.422065e+002;1.241859e-001
6.441350e+002;1.191984e-001
6.460636e+002;1.197983e-001
6.479921e+002;1.215597e-001
6.499207e+002;1.212042e-001
6.518492e+002;1.163936e-001
6.537778e+002;1.144805e-001
6.557063e+002;1.154203e-001
6.576349e+002;1.137060e-001
6.595634e+002;1.109915e-001
6.614919e+002;1.092943e-001
6.634205e+002;1.074516e-001
6.653491e+002;1.056915e-001
6.672776e+002;1.049209e-001
6.692062e+002;1.062844e-001
6.711347e+002;1.069432e-001
6.730632e+002;1.066438e-001
6.749918e+002;1.071528e-001
6.769203e+002;1.077223e-001
6.788489e+002;1.075093e-001
6.807775e+002;1.076528e-001
6.827060e+002;1.077757e-001
6.846345e+002;1.075317e-001
6.865631e+002;1.074008e-001
6.884916e+002;1.076587e-001
6.904202e+002;1.071533e-001
6.923488e+002;1.057072e-001
6.942773e+002;1.047772e-001
6.962058e+002;1.039678e-001
6.981344e+002;1.023328e-001
7.000629e+002;1.012891e-001
7.019915e+002;9.997097e-002
7.039200e+002;9.799709e-002
7.058486e+002;9.673435e-002
7.077771e+002;9.601970e-002
7.097057e+002;9.577835e-002
7.116342e+002;9.514999e-002
7.135627e+002;9.367553e-002
7.154913e+002;9.300645e-002
7.174199e+002;9.168240e-002
7.193484e+002;9.055614e-002
7.212770e+002;9.048320e-002
7.232055e+002;9.008411e-002
7.251340e+002;8.921939e-002
7.270626e+002;8.802156e-002
7.289911e+002;8.634801e-002
7.309197e+002;8.467476e-002
7.328483e+002;8.223544e-002
7.347768e+002;7.918274e-002
7.367053e+002;7.786718e-002
7.386339e+002;7.621066e-002
7.405624e+002;7.471122e-002
7.424910e+002;7.482710e-002
7.444196e+002;7.467981e-002
7.463481e+002;7.383707e-002
7.482766e+002;7.290079e-002
7.502052e+002;7.242865e-002
7.521337e+002;7.208770e-002
7.540623e+002;7.209298e-002
7.559908e+002;7.193501e-002
7.579194e+002;7.193235e-002
7.598479e+002;7.178883e-002
7.617765e+002;7.078745e-002
7.637050e+002;7.033432e-002
7.656335e+002;7.097223e-002
7.675621e+002;7.143936e-002
7.694907e+002;7.142013e-002
7.714192e+002;7.087864e-002
7.733478e+002;7.052062e-002
7.752763e+002;7.039416e-002
7.772048e+002;7.049840e-002
7.791334e+002;7.075360e-002
7.810620e+002;7.180208e-002
7.829905e+002;7.252630e-002
7.849191e+002;7.222357e-002
7.868476e+002;7.184849e-002
7.887761e+002;7.230317e-002
7.907047e+002;7.342736e-002
7.926332e+002;7.418153e-002
7.945618e+002;7.436308e-002
7.964903e+002;7.478821e-002
7.984189e+002;7.535557e-002
8.003474e+002;7.620016e-002
8.022759e+002;7.692855e-002
8.042045e+002;7.762029e-002
8.061331e+002;7.841472e-002
8.080616e+002;7.939253e-002
8.099902e+002;8.031749e-002
8.119187e+002;8.168166e-002
8.138472e+002;8.295266e-002
8.157758e+002;8.400314e-002
8.177043e+002;8.504581e-002
8.196329e+002;8.670492e-002
8.215615e+002;8.918790e-002
8.234900e+002;9.193349e-002
8.254185e+002;9.500815e-002
8.273471e+002;9.881513e-002
8.292756e+002;1.030641e-001
8.312042e+002;1.076373e-001
8.331328e+002;1.114676e-001
8.350613e+002;1.141573e-001
8.369898e+002;1.167046e-001
8.389184e+002;1.189280e-001
8.408469e+002;1.191481e-001
8.427755e+002;1.174938e-001
8.447040e+002;1.148556e-001
8.466326e+002;1.119301e-001
8.485611e+002;1.092649e-001
8.504897e+002;1.072074e-001
8.524182e+002;1.051436e-001
8.543467e+002;1.041985e-001
8.562753e+002;1.049424e-001
8.582039e+002;1.062639e-001
8.601324e+002;1.081582e-001
8.620610e+002;1.110182e-001
8.639895e+002;1.148512e-001
8.659180e+002;1.192904e-001
8.678466e+002;1.244180e-001
8.697751e+002;1.304836e-001
8.717037e+002;1.367329e-001
8.736323e+002;1.422294e-001
8.755608e+002;1.465771e-001
8.774893e+002;1.502232e-001
8.794179e+002;1.530562e-001
8.813464e+002;1.561002e-001
8.832750e+002;1.593794e-001
8.852036e+002;1.624652e-001
8.871321e+002;1.669171e-001
8.890606e+002;1.725548e-001
8.909892e+002;1.785411e-001
8.929177e+002;1.848410e-001
8.948463e+002;1.914857e-001
8.967748e+002;1.971339e-001
8.987034e+002;1.996378e-001
9.006319e+002;1.992244e-001
9.025605e+002;1.963722e-001
9.044890e+002;1.909844e-001
9.064175e+002;1.847626e-001
9.083461e+002;1.785904e-001
9.102747e+002;1.726082e-001
9.122032e+002;1.671482e-001
9.141318e+002;1.622626e-001
9.160603e+002;1.578415e-001
9.179888e+002;1.541611e-001
9.199174e+002;1.517374e-001
9.218459e+002;1.496215e-001
9.237745e+002;1.471796e-001
9.257031e+002;1.448725e-001
9.276316e+002;1.435123e-001
9.295601e+002;1.429789e-001
9.314887e+002;1.426244e-001
9.334172e+002;1.425221e-001
9.353458e+002;1.428649e-001
9.372744e+002;1.435595e-001
9.392029e+002;1.448289e-001
9.411314e+002;1.463214e-001
9.430600e+002;1.483042e-001
9.449885e+002;1.503225e-001
9.469171e+002;1.521544e-001
9.488456e+002;1.538196e-001
9.507742e+002;1.556979e-001
9.527027e+002;1.574971e-001
9.546313e+002;1.588695e-001
9.565598e+002;1.600412e-001
9.584883e+002;1.615205e-001
9.604169e+002;1.633296e-001
9.623455e+002;1.656610e-001
9.642740e+002;1.692162e-001
9.662026e+002;1.737270e-001
9.681311e+002;1.789916e-001
9.700596e+002;1.856147e-001
9.719882e+002;1.929888e-001
9.739167e+002;2.004291e-001
9.758453e+002;2.080150e-001
9.777739e+002;2.154031e-001
9.797024e+002;2.226650e-001
9.816309e+002;2.294350e-001
9.835595e+002;2.358742e-001
9.854880e+002;2.414722e-001
9.874166e+002;2.462505e-001
9.893452e+002;2.510230e-001
9.912737e+002;2.557878e-001
9.932022e+002;2.605467e-001
9.951307e+002;2.654096e-001
9.970593e+002;2.711428e-001
9.989879e+002;2.789281e-001
1.000916e+003;2.884086e-001
1.002845e+003;2.988210e-001
1.004773e+003;3.108069e-001
1.006702e+003;3.242932e-001
1.008631e+003;3.394085e-001
1.010559e+003;3.559058e-001
1.012488e+003;3.725554e-001
1.014416e+003;3.906416e-001
1.016345e+003;4.105178e-001
1.018273e+003;4.304722e-001
1.020202e+003;4.503772e-001
1.022130e+003;4.707217e-001
1.024059e+003;4.911409e-001
1.025988e+003;5.099479e-001
1.027916e+003;5.256403e-001
1.029845e+003;5.386479e-001
1.031773e+003;5.468699e-001
1.033702e+003;5.483283e-001
1.035630e+003;5.469382e-001
1.037559e+003;5.431248e-001
1.039487e+003;5.362597e-001
1.041416e+003;5.282905e-001
1.043344e+003;5.186065e-001
1.045273e+003;5.068284e-001
1.047202e+003;4.928869e-001
1.049130e+003;4.776433e-001
1.051059e+003;4.619835e-001
1.052987e+003;4.456621e-001
1.054916e+003;4.294779e-001
1.056844e+003;4.138198e-001
1.058773e+003;3.991727e-001
1.060701e+003;3.865399e-001
1.062630e+003;3.759945e-001
1.064558e+003;3.665240e-001
1.066487e+003;3.575009e-001
1.068416e+003;3.488826e-001
1.070344e+003;3.401044e-001
1.072273e+003;3.306592e-001
1.074201e+003;3.216091e-001
1.076130e+003;3.126957e-001
1.078058e+003;3.032296e-001
1.079987e+003;2.939239e-001
1.081915e+003;2.846058e-001
1.083844e+003;2.751549e-001
1.085773e+003;2.660389e-001
1.087701e+003;2.579075e-001
1.089630e+003;2.495244e-001
1.091558e+003;2.400796e-001
1.093487e+003;2.315990e-001
1.095415e+003;2.243468e-001
1.097344e+003;2.175930e-001
1.099272e+003;2.128170e-001
1.101201e+003;2.091802e-001
1.103129e+003;2.056700e-001
1.105058e+003;2.030566e-001
1.106987e+003;2.013567e-001
1.108915e+003;1.996643e-001
1.110844e+003;1.985699e-001
1.112772e+003;1.983109e-001
1.114701e+003;1.975273e-001
1.116629e+003;1.962671e-001
1.118558e+003;1.952028e-001
1.120486e+003;1.943344e-001
1.122415e+003;1.933179e-001
1.124344e+003;1.914543e-001
1.126272e+003;1.890388e-001
1.128201e+003;1.863346e-001
1.130129e+003;1.836461e-001
1.132058e+003;1.805295e-001
1.133986e+003;1.774267e-001
1.135915e+003;1.748152e-001
1.137843e+003;1.730097e-001
1.139772e+003;1.722229e-001
1.141700e+003;1.721878e-001
1.143629e+003;1.729673e-001
1.145557e+003;1.743078e-001
1.147486e+003;1.760666e-001
1.149415e+003;1.788782e-001
1.151343e+003;1.819564e-001
1.153272e+003;1.846309e-001
1.155200e+003;1.870555e-001
1.157129e+003;1.892434e-001
1.159057e+003;1.908261e-001
1.160986e+003;1.916838e-001
1.162914e+003;1.922836e-001
1.164843e+003;1.919835e-001
1.166771e+003;1.910156e-001
1.168700e+003;1.894962e-001
1.170629e+003;1.872312e-001
1.172557e+003;1.847234e-001
1.174486e+003;1.825912e-001
1.176414e+003;1.807005e-001
1.178343e+003;1.789509e-001
1.180271e+003;1.778153e-001
1.182200e+003;1.782533e-001
1.184128e+003;1.802129e-001
1.186057e+003;1.844945e-001
1.187986e+003;1.912014e-001
1.189914e+003;2.004129e-001
1.191843e+003;2.134062e-001
1.193771e+003;2.304380e-001
1.195700e+003;2.516974e-001
1.197628e+003;2.772110e-001
1.199557e+003;3.070176e-001
1.201485e+003;3.397889e-001
1.203414e+003;3.735642e-001
1.205343e+003;4.063695e-001
1.207271e+003;4.349589e-001
1.209200e+003;4.587993e-001
1.211128e+003;4.770514e-001
1.213057e+003;4.884548e-001
1.214985e+003;4.940490e-001
1.216914e+003;4.957805e-001
1.218842e+003;4.955195e-001
1.220771e+003;4.936352e-001
1.222699e+003;4.902607e-001
1.224628e+003;4.852870e-001
1.226557e+003;4.787894e-001
1.228485e+003;4.701942e-001
1.230414e+003;4.588279e-001
1.232342e+003;4.451726e-001
1.234271e+003;4.294806e-001
1.236199e+003;4.114645e-001
1.238128e+003;3.922631e-001
1.240056e+003;3.727472e-001
1.241985e+003;3.533078e-001
1.243913e+003;3.341112e-001
1.245842e+003;3.155912e-001
1.247771e+003;2.983015e-001
1.249699e+003;2.821961e-001
1.251628e+003;2.665495e-001
1.253556e+003;2.513747e-001
1.255485e+003;2.375257e-001
1.257413e+003;2.246232e-001
1.259342e+003;2.123362e-001
1.261270e+003;2.005684e-001
1.263199e+003;1.898882e-001
1.265127e+003;1.802416e-001
1.267056e+003;1.712203e-001
1.268985e+003;1.632289e-001
1.270913e+003;1.557146e-001
1.272842e+003;1.486934e-001
1.274770e+003;1.425778e-001
1.276699e+003;1.369101e-001
1.278627e+003;1.318344e-001
1.280556e+003;1.274060e-001
1.282484e+003;1.232640e-001
1.284413e+003;1.194734e-001
1.286342e+003;1.162090e-001
1.288270e+003;1.134625e-001
1.290199e+003;1.109566e-001
1.292127e+003;1.086367e-001
1.294056e+003;1.065193e-001
1.295984e+003;1.043978e-001
1.297913e+003;1.025110e-001
1.299841e+003;1.011198e-001
1.301770e+003;9.980645e-002
1.303698e+003;9.890307e-002
1.305627e+003;9.841728e-002
1.307556e+003;9.817592e-002
1.309484e+003;9.811478e-002
1.311413e+003;9.814842e-002
1.313341e+003;9.843964e-002
1.315270e+003;9.863412e-002
1.317198e+003;9.852785e-002
1.319127e+003;9.834451e-002
1.321055e+003;9.820674e-002
1.322984e+003;9.795810e-002
1.324912e+003;9.755308e-002
1.326841e+003;9.725565e-002
1.328770e+003;9.687543e-002
1.330698e+003;9.633461e-002
1.332627e+003;9.581825e-002
1.334555e+003;9.557362e-002
1.336484e+003;9.552391e-002
1.338412e+003;9.544036e-002
1.340341e+003;9.563746e-002
1.342269e+003;9.629325e-002
1.344198e+003;9.743679e-002
1.346126e+003;9.953094e-002
1.348055e+003;1.029892e-001
1.349984e+003;1.080901e-001
1.351912e+003;1.156117e-001
1.353841e+003;1.265901e-001
1.355769e+003;1.417032e-001
1.357698e+003;1.602481e-001
1.359626e+003;1.804042e-001
1.361555e+003;1.993279e-001
1.363483e+003;2.139253e-001
1.365412e+003;2.220127e-001
1.367341e+003;2.234233e-001
1.369269e+003;2.198901e-001
1.371198e+003;2.127547e-001
1.373126e+003;2.035879e-001
1.375055e+003;1.938419e-001
1.376983e+003;1.840159e-001
1.378912e+003;1.737804e-001
1.380840e+003;1.629857e-001
1.382769e+003;1.521314e-001
1.384698e+003;1.416471e-001
1.386626e+003;1.318024e-001
1.388555e+003;1.231362e-001
1.390483e+003;1.157698e-001
1.392412e+003;1.093660e-001
1.394340e+003;1.040904e-001
1.396269e+003;1.005601e-001
1.398197e+003;9.796072e-002
1.400126e+003;9.617084e-002
1.402054e+003;9.537407e-002
1.403983e+003;9.535818e-002
1.405911e+003;9.541027e-002
1.407840e+003;9.558217e-002
1.409769e+003;9.599276e-002
1.411697e+003;9.667445e-002
1.413626e+003;9.762182e-002
1.415554e+003;9.894864e-002
1.417483e+003;1.004738e-001
1.419411e+003;1.022269e-001
1.421340e+003;1.044884e-001
1.423268e+003;1.069151e-001
1.425197e+003;1.093919e-001
1.427125e+003;1.115718e-001
1.429054e+003;1.131182e-001
1.430983e+003;1.139360e-001
1.432911e+003;1.137232e-001
1.434840e+003;1.121239e-001
1.436768e+003;1.098630e-001
1.438697e+003;1.079337e-001
1.440625e+003;1.057397e-001
1.442554e+003;1.032076e-001
1.444482e+003;1.006841e-001
1.446411e+003;9.808986e-002
1.448340e+003;9.558679e-002
1.450268e+003;9.346522e-002
1.452197e+003;9.148610e-002
1.454125e+003;8.947016e-002
1.456054e+003;8.709918e-002
1.457982e+003;8.513634e-002
1.459911e+003;8.357971e-002
1.461839e+003;8.177441e-002
1.463768e+003;7.948953e-002
1.465697e+003;7.703853e-002
1.467625e+003;7.508008e-002
1.469554e+003;7.321070e-002
1.471482e+003;7.134148e-002
1.473411e+003;6.977838e-002
1.475339e+003;6.860936e-002
1.477268e+003;6.772331e-002
1.479196e+003;6.685784e-002
1.481125e+003;6.606685e-002
1.483053e+003;6.553631e-002
1.484982e+003;6.499428e-002
1.486911e+003;6.439709e-002
1.488839e+003;6.362870e-002
1.490768e+003;6.321149e-002
1.492696e+003;6.315503e-002
1.494625e+003;6.280611e-002
1.496553e+003;6.242301e-002
1.498482e+003;6.244948e-002
1.500410e+003;6.260323e-002
1.502339e+003;6.262343e-002
1.504267e+003;6.200324e-002
1.506196e+003;6.139129e-002
1.508125e+003;6.168854e-002
1.510053e+003;6.208197e-002
1.511982e+003;6.235660e-002
1.513910e+003;6.256622e-002
1.515839e+003;6.242354e-002
1.517767e+003;6.223452e-002
1.519696e+003;6.174213e-002
1.521624e+003;6.146656e-002
1.523553e+003;6.194056e-002
1.525481e+003;6.211703e-002
1.527410e+003;6.224531e-002
1.529339e+003;6.244730e-002
1.531267e+003;6.227192e-002
1.533196e+003;6.206523e-002
1.535124e+003;6.230210e-002
1.537053e+003;6.198967e-002
1.538981e+003;6.104096e-002
1.540910e+003;6.092383e-002
1.542838e+003;6.129508e-002
1.544767e+003;6.167521e-002
1.546695e+003;6.201749e-002
1.548624e+003;6.212353e-002
1.550553e+003;6.225035e-002
1.552481e+003;6.220657e-002
1.554410e+003;6.216845e-002
1.556338e+003;6.185467e-002
1.558267e+003;6.100382e-002
1.560195e+003;6.121920e-002
1.562124e+003;6.204524e-002
1.564052e+003;6.216505e-002
1.565981e+003;6.226141e-002
1.567910e+003;6.201952e-002
1.569838e+003;6.168335e-002
1.571767e+003;6.204169e-002
1.573695e+003;6.229303e-002
1.575624e+003;6.193991e-002
1.577552e+003;6.227012e-002
1.579481e+003;6.281282e-002
1.581409e+003;6.297673e-002
1.583338e+003;6.339936e-002
1.585266e+003;6.343203e-002
1.587195e+003;6.339341e-002
1.589124e+003;6.379726e-002
1.591052e+003;6.414087e-002
1.592981e+003;6.451251e-002
1.594909e+003;6.501868e-002
1.596838e+003;6.560555e-002
1.598766e+003;6.617855e-002
1.600695e+003;6.663718e-002
1.602623e+003;6.698316e-002
1.604552e+003;6.742975e-002
1.606480e+003;6.784086e-002
1.608409e+003;6.822370e-002
1.610338e+003;6.859384e-002
1.612266e+003;6.918277e-002
1.614195e+003;6.963474e-002
1.616123e+003;6.974410e-002
1.618052e+003;7.042537e-002
1.619980e+003;7.121982e-002
1.621909e+003;7.160601e-002
1.623837e+003;7.209247e-002
1.625766e+003;7.272866e-002
1.627694e+003;7.334724e-002
1.629623e+003;7.410033e-002
1.631552e+003;7.484347e-002
1.633480e+003;7.527229e-002
1.635409e+003;7.545797e-002
1.637337e+003;7.638394e-002
1.639266e+003;7.768665e-002
1.641194e+003;7.831205e-002
1.643123e+003;7.847323e-002
1.645051e+003;7.854433e-002
1.646980e+003;7.895100e-002
1.648909e+003;7.976145e-002
1.650837e+003;7.959928e-002
1.652766e+003;7.887597e-002
1.654694e+003;7.961584e-002
1.656623e+003;8.051260e-002
1.658551e+003;8.070679e-002
1.660480e+003;8.087453e-002
1.662408e+003;8.121642e-002
1.664337e+003;8.171661e-002
1.666266e+003;8.215753e-002
1.668194e+003;8.248188e-002
1.670123e+003;8.317287e-002
1.672051e+003;8.425658e-002
1.673980e+003;8.520129e-002
1.675908e+003;8.616061e-002
1.677837e+003;8.768582e-002
1.679765e+003;8.932349e-002
1.681694e+003;9.091526e-002
1.683622e+003;9.215862e-002
1.685551e+003;9.447817e-002
1.687479e+003;9.768571e-002
1.689408e+003;1.008435e-001
1.691337e+003;1.039893e-001
1.693265e+003;1.073318e-001
1.695194e+003;1.108716e-001
1.697122e+003;1.154464e-001
1.699051e+003;1.206007e-001
1.700979e+003;1.263837e-001
1.702908e+003;1.334244e-001
1.704836e+003;1.407705e-001
1.706765e+003;1.489433e-001
1.708693e+003;1.582327e-001
1.710622e+003;1.689696e-001
1.712551e+003;1.810948e-001
1.714479e+003;1.939677e-001
1.716408e+003;2.077959e-001
1.718336e+003;2.234112e-001
1.720265e+003;2.401816e-001
1.722193e+003;2.572507e-001
1.724122e+003;2.746388e-001
1.726050e+003;2.919095e-001
1.727979e+003;3.082435e-001
1.729908e+003;3.227144e-001
1.731836e+003;3.348390e-001
1.733765e+003;3.441837e-001
1.735693e+003;3.507748e-001
1.737622e+003;3.535043e-001
1.739550e+003;3.520548e-001
1.741479e+003;3.472595e-001
1.743407e+003;3.398550e-001
1.745336e+003;3.304987e-001
1.747265e+003;3.193289e-001
1.749193e+003;3.065744e-001
1.751122e+003;2.923844e-001
1.753050e+003;2.769601e-001
1.754979e+003;2.602941e-001
1.756907e+003;2.414816e-001
1.758836e+003;2.211465e-001
1.760764e+003;1.999054e-001
1.762693e+003;1.790489e-001
1.764621e+003;1.601112e-001
1.766550e+003;1.430959e-001
1.768479e+003;1.282556e-001
1.770407e+003;1.160115e-001
1.772336e+003;1.058318e-001
1.774264e+003;9.800195e-002
1.776193e+003;9.181055e-002
1.778121e+003;8.685006e-002
1.780050e+003;8.280560e-002
1.781978e+003;7.933310e-002
1.783907e+003;7.658692e-002
1.785835e+003;7.427477e-002
1.787764e+003;7.234598e-002
1.789693e+003;7.061000e-002
1.791621e+003;6.887098e-002
1.793550e+003;6.772091e-002
1.795478e+003;6.702789e-002
1.797407e+003;6.626195e-002
1.799335e+003;6.542335e-002
1.801264e+003;6.458697e-002
1.803192e+003;6.386895e-002
1.805121e+003;6.328216e-002
1.807049e+003;6.277805e-002
1.808978e+003;6.199957e-002
1.810907e+003;6.127166e-002
1.812835e+003;6.081195e-002
1.814764e+003;6.034309e-002
1.816692e+003;5.977518e-002
1.818621e+003;5.932917e-002
1.820549e+003;5.891276e-002
1.822478e+003;5.859362e-002
1.824406e+003;5.814621e-002
1.826335e+003;5.766391e-002
1.828264e+003;5.721103e-002
1.830192e+003;5.679396e-002
1.832121e+003;5.659292e-002
1.834049e+003;5.636873e-002
1.835978e+003;5.610740e-002
1.837906e+003;5.589752e-002
1.839835e+003;5.553503e-002
1.841763e+003;5.509417e-002
1.843692e+003;5.457636e-002
1.845620e+003;5.437326e-002
1.847549e+003;5.429370e-002
1.849478e+003;5.401358e-002
1.851406e+003;5.387931e-002
1.853335e+003;5.380632e-002
1.855263e+003;5.381295e-002
1.857192e+003;5.372479e-002
1.859120e+003;5.356347e-002
1.861049e+003;5.327086e-002
1.862977e+003;5.294098e-002
1.864906e+003;5.268406e-002
1.866834e+003;5.252975e-002
1.868763e+003;5.238887e-002
1.870692e+003;5.238651e-002
1.872620e+003;5.247834e-002
1.874549e+003;5.242162e-002
1.876477e+003;5.228343e-002
1.878406e+003;5.206821e-002
1.880334e+003;5.178213e-002
1.882263e+003;5.154008e-002
1.884191e+003;5.139885e-002
1.886120e+003;5.136812e-002
1.888048e+003;5.102250e-002
1.889977e+003;5.078519e-002
1.891906e+003;5.102425e-002
1.893834e+003;5.122702e-002
1.895763e+003;5.123601e-002
1.897691e+003;5.112794e-002
1.899620e+003;5.100968e-002
1.901548e+003;5.104043e-002
1.903477e+003;5.116782e-002
1.905405e+003;5.124306e-002
1.907334e+003;5.148703e-002
1.909262e+003;5.166415e-002
1.911191e+003;5.164456e-002
1.913120e+003;5.153661e-002
1.915048e+003;5.160978e-002
1.916977e+003;5.179042e-002
1.918905e+003;5.218164e-002
1.920834e+003;5.250862e-002
1.922762e+003;5.246061e-002
1.924691e+003;5.236659e-002
1.926619e+003;5.232376e-002
1.928548e+003;5.243370e-002
1.930477e+003;5.242323e-002
1.932405e+003;5.227091e-002
1.934334e+003;5.215507e-002
1.936262e+003;5.239792e-002
1.938191e+003;5.242966e-002
1.940119e+003;5.242891e-002
1.942048e+003;5.246024e-002
1.943976e+003;5.247329e-002
1.945905e+003;5.224741e-002
1.947833e+003;5.195041e-002
1.949762e+003;5.190403e-002
1.951691e+003;5.202197e-002
1.953619e+003;5.205619e-002
1.955548e+003;5.192311e-002
1.957476e+003;5.190971e-002
1.959405e+003;5.197682e-002
1.961333e+003;5.186072e-002
1.963262e+003;5.163546e-002
1.965190e+003;5.133124e-002
1.967119e+003;5.106898e-002
1.969047e+003;5.096259e-002
1.970976e+003;5.091236e-002
1.972905e+003;5.083480e-002
1.974833e+003;5.065355e-002
1.976762e+003;5.043915e-002
1.978690e+003;5.029388e-002
1.980619e+003;5.024054e-002
1.982547e+003;5.002559e-002
1.984476e+003;4.992637e-002
1.986404e+003;4.981599e-002
1.988333e+003;4.955697e-002
1.990261e+003;4.929652e-002
1.992190e+003;4.919888e-002
1.994119e+003;4.922341e-002
1.996047e+003;4.944253e-002
1.997976e+003;4.969144e-002
1.999904e+003;4.962506e-002
2.001833e+003;4.947580e-002
2.003761e+003;4.962253e-002
2.005690e+003;4.994529e-002
2.007618e+003;5.010125e-002
2.009547e+003;4.997849e-002
2.011476e+003;4.993611e-002
2.013404e+003;5.015916e-002
2.015333e+003;5.049311e-002
2.017261e+003;5.072385e-002
2.019190e+003;5.086378e-002
2.021118e+003;5.085038e-002
2.023047e+003;5.091109e-002
2.024975e+003;5.130816e-002
2.026904e+003;5.151740e-002
2.028833e+003;5.140422e-002
2.030761e+003;5.145980e-002
2.032690e+003;5.162583e-002
2.034618e+003;5.167408e-002
2.036547e+003;5.161299e-002
2.038475e+003;5.155340e-002
2.040404e+003;5.159396e-002
2.042332e+003;5.160191e-002
2.044261e+003;5.166117e-002
2.046189e+003;5.164721e-002
2.048118e+003;5.160571e-002
2.050047e+003;5.170983e-002
2.051975e+003;5.171058e-002
2.053904e+003;5.170371e-002
2.055832e+003;5.185844e-002
2.057761e+003;5.210781e-002
2.059689e+003;5.233131e-002
2.061618e+003;5.224404e-002
2.063546e+003;5.202414e-002
2.065475e+003;5.219681e-002
2.067404e+003;5.231060e-002
2.069332e+003;5.219311e-002
2.071260e+003;5.247766e-002
2.073189e+003;5.274605e-002
2.075118e+003;5.279002e-002
2.077046e+003;5.282481e-002
2.078975e+003;5.287283e-002
2.080903e+003;5.310780e-002
2.082832e+003;5.341195e-002
2.084760e+003;5.356966e-002
2.086689e+003;5.382271e-002
2.088617e+003;5.412229e-002
2.090546e+003;5.420089e-002
2.092475e+003;5.443185e-002
2.094403e+003;5.481658e-002
2.096332e+003;5.520903e-002
2.098260e+003;5.552900e-002
2.100189e+003;5.570830e-002
2.102117e+003;5.583986e-002
2.104046e+003;5.589032e-002
2.105974e+003;5.594938e-002
2.107903e+003;5.613730e-002
2.109832e+003;5.617422e-002
2.111760e+003;5.631312e-002
2.113688e+003;5.643385e-002
2.115617e+003;5.651373e-002
2.117546e+003;5.636492e-002
2.119474e+003;5.620842e-002
2.121403e+003;5.623048e-002
2.123331e+003;5.614613e-002
2.125260e+003;5.608949e-002
2.127188e+003;5.608772e-002
2.129117e+003;5.599103e-002
2.131045e+003;5.583029e-002
2.132974e+003;5.563316e-002
2.134903e+003;5.549218e-002
2.136831e+003;5.524568e-002
2.138760e+003;5.526916e-002
2.140688e+003;5.534853e-002
2.142617e+003;5.521031e-002
2.144545e+003;5.490027e-002
2.146474e+003;5.449781e-002
2.148402e+003;5.417514e-002
2.150331e+003;5.392369e-002
2.152260e+003;5.391236e-002
2.154188e+003;5.381648e-002
2.156117e+003;5.361119e-002
2.158045e+003;5.347820e-002
2.159974e+003;5.329997e-002
2.161902e+003;5.305534e-002
2.163831e+003;5.266334e-002
2.165759e+003;5.243104e-002
2.167688e+003;5.235474e-002
2.169616e+003;5.219281e-002
2.171545e+003;5.170830e-002
2.173474e+003;5.123698e-002
2.175402e+003;5.112384e-002
2.177331e+003;5.098096e-002
2.179259e+003;5.077167e-002
2.181188e+003;5.055002e-002
2.183116e+003;5.045854e-002
2.185045e+003;5.021048e-002
2.186973e+003;5.006567e-002
2.188902e+003;5.005604e-002
2.190831e+003;4.993741e-002
2.192759e+003;4.975780e-002
2.194688e+003;4.950394e-002
2.196616e+003;4.936802e-002
2.198545e+003;4.940562e-002
2.200473e+003;4.956065e-002
2.202402e+003;4.950521e-002
2.204330e+003;4.939174e-002
2.206259e+003;4.921951e-002
2.208188e+003;4.912341e-002
2.210116e+003;4.892028e-002
2.212044e+003;4.884104e-002
2.213973e+003;4.881390e-002
2.215902e+003;4.910586e-002
2.217830e+003;4.923569e-002
2.219759e+003;4.900225e-002
2.221687e+003;4.890189e-002
2.223616e+003;4.882628e-002
2.225544e+003;4.881312e-002
2.227473e+003;4.880007e-002
2.229401e+003;4.857061e-002
2.231330e+003;4.844482e-002
2.233259e+003;4.843849e-002
2.235187e+003;4.826182e-002
2.237116e+003;4.826649e-002
2.239044e+003;4.859877e-002
2.240973e+003;4.872408e-002
2.242901e+003;4.866451e-002
2.244830e+003;4.872967e-002
2.246758e+003;4.858554e-002
2.248687e+003;4.846264e-002
2.250615e+003;4.849576e-002
2.252544e+003;4.861730e-002
2.254473e+003;4.862441e-002
2.256401e+003;4.853303e-002
2.258330e+003;4.850580e-002
2.260258e+003;4.859669e-002
2.262187e+003;4.886021e-002
2.264115e+003;4.900451e-002
2.266044e+003;4.878146e-002
2.267972e+003;4.852781e-002
2.269901e+003;4.844445e-002
2.271830e+003;4.831756e-002
2.273758e+003;4.818744e-002
2.275687e+003;4.793954e-002
2.277615e+003;4.772447e-002
2.279544e+003;4.773153e-002
2.281472e+003;4.760181e-002
2.283401e+003;4.741473e-002
2.285329e+003;4.743891e-002
2.287258e+003;4.742457e-002
2.289187e+003;4.710844e-002
2.291115e+003;4.693723e-002
2.293043e+003;4.673918e-002
2.294972e+003;4.659973e-002
2.296901e+003;4.655974e-002
2.298829e+003;4.628884e-002
2.300758e+003;4.602776e-002
2.302686e+003;4.593270e-002
2.304615e+003;4.579876e-002
2.306543e+003;4.576990e-002
2.308472e+003;4.584678e-002
2.310400e+003;4.573886e-002
2.312329e+003;4.559071e-002
2.314258e+003;4.542771e-002
2.316186e+003;4.539711e-002
2.318115e+003;4.545696e-002
2.320043e+003;4.565497e-002
2.321972e+003;4.563661e-002
2.323900e+003;4.556013e-002
2.325829e+003;4.544493e-002
2.327757e+003;4.542639e-002
2.329686e+003;4.527547e-002
2.331615e+003;4.524345e-002
2.333543e+003;4.541874e-002
2.335472e+003;4.562777e-002
2.337400e+003;4.596801e-002
2.339329e+003;4.621458e-002
2.341257e+003;4.643638e-002
2.343186e+003;4.649679e-002
2.345114e+003;4.653813e-002
2.347043e+003;4.654934e-002
2.348971e+003;4.658058e-002
2.350900e+003;4.681731e-002
2.352829e+003;4.705811e-002
2.354757e+003;4.694413e-002
2.356686e+003;4.677656e-002
2.358614e+003;4.689725e-002
2.360543e+003;4.704345e-002
2.362471e+003;4.702945e-002
2.364400e+003;4.682520e-002
2.366328e+003;4.677704e-002
2.368257e+003;4.693963e-002
2.370186e+003;4.700693e-002
2.372114e+003;4.681188e-002
2.374042e+003;4.662691e-002
2.375971e+003;4.660423e-002
2.377900e+003;4.656502e-002
2.379828e+003;4.646795e-002
2.381757e+003;4.672173e-002
2.383685e+003;4.712103e-002
2.385614e+003;4.712133e-002
2.387542e+003;4.718212e-002
2.389471e+003;4.732461e-002
2.391399e+003;4.726247e-002
2.393328e+003;4.707059e-002
2.395257e+003;4.728855e-002
2.397185e+003;4.753412e-002
2.399114e+003;4.758211e-002
2.401042e+003;4.788049e-002
2.402971e+003;4.824698e-002
2.404899e+003;4.832015e-002
2.406828e+003;4.852347e-002
2.408756e+003;4.891339e-002
2.410685e+003;4.919892e-002
2.412614e+003;4.913535e-002
2.414542e+003;4.892477e-002
2.416471e+003;4.894483e-002
2.418399e+003;4.882503e-002
2.420328e+003;4.873434e-002
2.422256e+003;4.890449e-002
2.424185e+003;4.895655e-002
2.426113e+003;4.894254e-002
2.428042e+003;4.903968e-002
2.429970e+003;4.909729e-002
2.431899e+003;4.921083e-002
2.433828e+003;4.931482e-002
2.435756e+003;4.923885e-002
2.437685e+003;4.915376e-002
2.439613e+003;4.908824e-002
2.441542e+003;4.911287e-002
2.443470e+003;4.921424e-002
2.445399e+003;4.923120e-002
2.447327e+003;4.937648e-002
2.449256e+003;4.928580e-002
2.451185e+003;4.898370e-002
2.453113e+003;4.905147e-002
2.455042e+003;4.909365e-002
2.456970e+003;4.894944e-002
2.458899e+003;4.900455e-002
2.460827e+003;4.924709e-002
2.462756e+003;4.919461e-002
2.464684e+003;4.885695e-002
2.466613e+003;4.900655e-002
2.468542e+003;4.917936e-002
2.470470e+003;4.893812e-002
2.472398e+003;4.878331e-002
2.474327e+003;4.885825e-002
2.476256e+003;4.907106e-002
2.478184e+003;4.910682e-002
2.480113e+003;4.880118e-002
2.482041e+003;4.856486e-002
2.483970e+003;4.840482e-002
2.485898e+003;4.835692e-002
2.487827e+003;4.853715e-002
2.489755e+003;4.846357e-002
2.491684e+003;4.824235e-002
2.493613e+003;4.804308e-002
2.495541e+003;4.778575e-002
2.497470e+003;4.764323e-002
2.499398e+003;4.758140e-002
2.501327e+003;4.750935e-002
2.503255e+003;4.738569e-002
2.505184e+003;4.740014e-002
2.507112e+003;4.744999e-002
2.509041e+003;4.736045e-002
2.510969e+003;4.716284e-002
2.512898e+003;4.694568e-002
2.514827e+003;4.695093e-002
2.516755e+003;4.691714e-002
2.518684e+003;4.677424e-002
2.520612e+003;4.678988e-002
2.522541e+003;4.676225e-002
2.524469e+003;4.676605e-002
2.526398e+003;4.672889e-002
2.528326e+003;4.666871e-002
2.530255e+003;4.661043e-002
2.532184e+003;4.655712e-002
2.534112e+003;4.658235e-002
2.536041e+003;4.664661e-002
2.537969e+003;4.653769e-002
2.539898e+003;4.625847e-002
2.541826e+003;4.606519e-002
2.543755e+003;4.603937e-002
2.545683e+003;4.614172e-002
2.547612e+003;4.633315e-002
2.549541e+003;4.634904e-002
2.551469e+003;4.626529e-002
2.553397e+003;4.626267e-002
2.555326e+003;4.641869e-002
2.557255e+003;4.669837e-002
2.559183e+003;4.671520e-002
2.561112e+003;4.662127e-002
2.563040e+003;4.661784e-002
2.564969e+003;4.683580e-002
2.566897e+003;4.709540e-002
2.568826e+003;4.723254e-002
2.570754e+003;4.747516e-002
2.572683e+003;4.770353e-002
2.574612e+003;4.779570e-002
2.576540e+003;4.789891e-002
2.578469e+003;4.809075e-002
2.580397e+003;4.820273e-002
2.582326e+003;4.806454e-002
2.584254e+003;4.822243e-002
2.586183e+003;4.860070e-002
2.588111e+003;4.891046e-002
2.590040e+003;4.910426e-002
2.591969e+003;4.911142e-002
2.593897e+003;4.917895e-002
2.595826e+003;4.918411e-002
2.597754e+003;4.891416e-002
2.599683e+003;4.887401e-002
2.601611e+003;4.905169e-002
2.603540e+003;4.892114e-002
2.605468e+003;4.905125e-002
2.607397e+003;4.934240e-002
2.609325e+003;4.940700e-002
2.611254e+003;4.950985e-002
2.613183e+003;4.959935e-002
2.615111e+003;4.987998e-002
2.617040e+003;5.018084e-002
2.618968e+003;5.022001e-002
2.620897e+003;5.003254e-002
2.622825e+003;5.005087e-002
2.624754e+003;5.019817e-002
2.626682e+003;5.014071e-002
2.628611e+003;5.013089e-002
2.630540e+003;5.041432e-002
2.632468e+003;5.077868e-002
2.634396e+003;5.097377e-002
2.636325e+003;5.095294e-002
2.638254e+003;5.074776e-002
2.640182e+003;5.066990e-002
2.642111e+003;5.071503e-002
2.644039e+003;5.079294e-002
2.645968e+003;5.075138e-002
2.647896e+003;5.073909e-002
2.649825e+003;5.048876e-002
2.651753e+003;5.037957e-002
2.653682e+003;5.072896e-002
2.655611e+003;5.089288e-002
2.657539e+003;5.082925e-002
2.659468e+003;5.056353e-002
2.661396e+003;5.051235e-002
2.663325e+003;5.059439e-002
2.665253e+003;5.063364e-002
2.667182e+003;5.067359e-002
2.669110e+003;5.057779e-002
2.671039e+003;5.053744e-002
2.672968e+003;5.046277e-002
2.674896e+003;5.048034e-002
2.676825e+003;5.059227e-002
2.678753e+003;5.070810e-002
2.680682e+003;5.062232e-002
2.682610e+003;5.061189e-002
2.684539e+003;5.075384e-002
2.686467e+003;5.080959e-002
2.688396e+003;5.097201e-002
2.690324e+003;5.089921e-002
2.692253e+003;5.066208e-002
2.694182e+003;5.083823e-002
2.696110e+003;5.111799e-002
2.698039e+003;5.128940e-002
2.699967e+003;5.138397e-002
2.701896e+003;5.146767e-002
2.703824e+003;5.172734e-002
2.705753e+003;5.196659e-002
2.707681e+003;5.213385e-002
2.709610e+003;5.231269e-002
2.711539e+003;5.255596e-002
2.713467e+003;5.279522e-002
2.715396e+003;5.300914e-002
2.717324e+003;5.318880e-002
2.719253e+003;5.333821e-002
2.721181e+003;5.348907e-002
2.723110e+003;5.358724e-002
2.725038e+003;5.356362e-002
2.726967e+003;5.361288e-002
2.728896e+003;5.379593e-002
2.730824e+003;5.389791e-002
2.732752e+003;5.381645e-002
2.734681e+003;5.368103e-002
2.736610e+003;5.393955e-002
2.738538e+003;5.397144e-002
2.740467e+003;5.381326e-002
2.742395e+003;5.375861e-002
2.744324e+003;5.350032e-002
2.746252e+003;5.340176e-002
2.748181e+003;5.349252e-002
2.750109e+003;5.333784e-002
2.752038e+003;5.328158e-002
2.753967e+003;5.352370e-002
2.755895e+003;5.367286e-002
2.757824e+003;5.352659e-002
2.759752e+003;5.338430e-002
2.761681e+003;5.347165e-002
2.763609e+003;5.361520e-002
2.765538e+003;5.368100e-002
2.767466e+003;5.382023e-002
2.769395e+003;5.377215e-002
2.771323e+003;5.365666e-002
2.773252e+003;5.374410e-002
2.775181e+003;5.382619e-002
2.777109e+003;5.380189e-002
2.779038e+003;5.403594e-002
2.780966e+003;5.436579e-002
2.782895e+003;5.467357e-002
2.784823e+003;5.475080e-002
2.786752e+003;5.481970e-002
2.788680e+003;5.529941e-002
2.790609e+003;5.580901e-002
2.792538e+003;5.585241e-002
2.794466e+003;5.582897e-002
2.796395e+003;5.602936e-002
2.798323e+003;5.620846e-002
2.800252e+003;5.622848e-002
2.802180e+003;5.630464e-002
2.804109e+003;5.637360e-002
2.806037e+003;5.668325e-002
2.807966e+003;5.712221e-002
2.809895e+003;5.712070e-002
2.811823e+003;5.705902e-002
2.813751e+003;5.741054e-002
2.815680e+003;5.758291e-002
2.817609e+003;5.761639e-002
2.819537e+003;5.773551e-002
2.821466e+003;5.783100e-002
2.823394e+003;5.809950e-002
2.825323e+003;5.843170e-002
2.827251e+003;5.870804e-002
2.829180e+003;5.894430e-002
2.831108e+003;5.914305e-002
2.833037e+003;5.946966e-002
2.834966e+003;5.996668e-002
2.836894e+003;6.026771e-002
2.838823e+003;6.057665e-002
2.840751e+003;6.098590e-002
2.842680e+003;6.143190e-002
2.844608e+003;6.172517e-002
2.846537e+003;6.170699e-002
2.848465e+003;6.177043e-002
2.850394e+003;6.209956e-002
2.852323e+003;6.270856e-002
2.854251e+003;6.371096e-002
2.856180e+003;6.487677e-002
2.858108e+003;6.585700e-002
2.860037e+003;6.702414e-002
2.861965e+003;6.857223e-002
2.863894e+003;6.967213e-002
2.865822e+003;7.019339e-002
2.867751e+003;7.074627e-002
2.869679e+003;7.145291e-002
2.871608e+003;7.178821e-002
2.873536e+003;7.219184e-002
2.875465e+003;7.278563e-002
2.877394e+003;7.289131e-002
2.879322e+003;7.282986e-002
2.881251e+003;7.307915e-002
2.883179e+003;7.327538e-002
2.885108e+003;7.326412e-002
2.887036e+003;7.343681e-002
2.888965e+003;7.363733e-002
2.890893e+003;7.335614e-002
2.892822e+003;7.287046e-002
2.894750e+003;7.253887e-002
2.896679e+003;7.248401e-002
2.898608e+003;7.230677e-002
2.900536e+003;7.212193e-002
2.902465e+003;7.201002e-002
2.904393e+003;7.159710e-002
2.906322e+003;7.102959e-002
2.908250e+003;7.054673e-002
2.910179e+003;6.984460e-002
2.912107e+003;6.895820e-002
2.914036e+003;6.832618e-002
2.915965e+003;6.787743e-002
2.917893e+003;6.750251e-002
2.919822e+003;6.705163e-002
2.921750e+003;6.655402e-002
2.923679e+003;6.685007e-002
2.925607e+003;6.776506e-002
2.927536e+003;6.855675e-002
2.929464e+003;6.913440e-002
2.931393e+003;7.002193e-002
2.933322e+003;7.123173e-002
2.935250e+003;7.237013e-002
2.937178e+003;7.318262e-002
2.939107e+003;7.390860e-002
2.941036e+003;7.470831e-002
2.942964e+003;7.513972e-002
2.944893e+003;7.514121e-002
2.946821e+003;7.493240e-002
2.948750e+003;7.487701e-002
2.950678e+003;7.471941e-002
2.952607e+003;7.392333e-002
2.954535e+003;7.332390e-002
2.956464e+003;7.289112e-002
2.958393e+003;7.270234e-002
2.960321e+003;7.271331e-002
2.962250e+003;7.253429e-002
2.964178e+003;7.182445e-002
2.966107e+003;7.089783e-002
2.968035e+003;7.040569e-002
2.969964e+003;6.999679e-002
2.971892e+003;6.952573e-002
2.973821e+003;6.894372e-002
2.975750e+003;6.839250e-002
2.977678e+003;6.815555e-002
2.979607e+003;6.806132e-002
2.981535e+003;6.782258e-002
2.983464e+003;6.757540e-002
2.985392e+003;6.733708e-002
2.987321e+003;6.683547e-002
2.989249e+003;6.656723e-002
2.991178e+003;6.651977e-002
2.993106e+003;6.635775e-002
2.995035e+003;6.607592e-002
2.996964e+003;6.548568e-002
2.998892e+003;6.507757e-002
3.000821e+003;6.485961e-002
3.002749e+003;6.450843e-002
3.004678e+003;6.413142e-002
3.006606e+003;6.395947e-002
3.008535e+003;6.387261e-002
3.010463e+003;6.334744e-002
3.012392e+003;6.329071e-002
3.014321e+003;6.356200e-002
3.016249e+003;6.349722e-002
3.018177e+003;6.327868e-002
3.020106e+003;6.306943e-002
3.022035e+003;6.297776e-002
3.023963e+003;6.292617e-002
3.025892e+003;6.264150e-002
3.027820e+003;6.241084e-002
3.029749e+003;6.213576e-002
3.031677e+003;6.162588e-002
3.033606e+003;6.141445e-002
3.035534e+003;6.154959e-002
3.037463e+003;6.096394e-002
3.039392e+003;6.031945e-002
3.041320e+003;6.003028e-002
3.043249e+003;5.949877e-002
3.045177e+003;5.909248e-002
3.047106e+003;5.886415e-002
3.049034e+003;5.839068e-002
3.050963e+003;5.807011e-002
3.052891e+003;5.780526e-002
3.054820e+003;5.728818e-002
3.056749e+003;5.672267e-002
3.058677e+003;5.656714e-002
3.060606e+003;5.673581e-002
3.062534e+003;5.668816e-002
3.064463e+003;5.634719e-002
3.066391e+003;5.589379e-002
3.068320e+003;5.562352e-002
3.070248e+003;5.550087e-002
3.072177e+003;5.569527e-002
3.074105e+003;5.565218e-002
3.076034e+003;5.525136e-002
3.077963e+003;5.480448e-002
3.079891e+003;5.454398e-002
3.081820e+003;5.459812e-002
3.083748e+003;5.446622e-002
3.085677e+003;5.432655e-002
3.087605e+003;5.420018e-002
3.089534e+003;5.411771e-002
3.091462e+003;5.424590e-002
3.093391e+003;5.421542e-002
3.095320e+003;5.419094e-002
3.097248e+003;5.398555e-002
3.099177e+003;5.350459e-002
3.101105e+003;5.357378e-002
3.103034e+003;5.391292e-002
3.104962e+003;5.370432e-002
3.106891e+003;5.373514e-002
3.108819e+003;5.392571e-002
3.110748e+003;5.400641e-002
3.112677e+003;5.385058e-002
3.114605e+003;5.360819e-002
3.116533e+003;5.352599e-002
3.118462e+003;5.340217e-002
3.120391e+003;5.342938e-002
3.122319e+003;5.343781e-002
3.124248e+003;5.293144e-002
3.126176e+003;5.250286e-002
3.128105e+003;5.271425e-002
3.130033e+003;5.264037e-002
3.131962e+003;5.244805e-002
3.133890e+003;5.266723e-002
3.135819e+003;5.272641e-002
3.137748e+003;5.278321e-002
3.139676e+003;5.295981e-002
3.141605e+003;5.289461e-002
3.143533e+003;5.262175e-002
3.145462e+003;5.253076e-002
3.147390e+003;5.258132e-002
3.149319e+003;5.253016e-002
3.151247e+003;5.222801e-002
3.153176e+003;5.216004e-002
3.155104e+003;5.220514e-002
3.157033e+003;5.227640e-002
3.158962e+003;5.252564e-002
3.160890e+003;5.280150e-002
3.162819e+003;5.255851e-002
3.164747e+003;5.240678e-002
3.166676e+003;5.261464e-002
3.168604e+003;5.230279e-002
3.170533e+003;5.215126e-002
3.172461e+003;5.238397e-002
3.174390e+003;5.236461e-002
3.176319e+003;5.223956e-002
3.178247e+003;5.206885e-002
3.180176e+003;5.197129e-002
3.182104e+003;5.212937e-002
3.184033e+003;5.222061e-002
3.185961e+003;5.231527e-002
3.187890e+003;5.245523e-002
3.189818e+003;5.254504e-002
3.191747e+003;5.248779e-002
3.193676e+003;5.254905e-002
3.195604e+003;5.246603e-002
3.197532e+003;5.208689e-002
3.199461e+003;5.200647e-002
3.201390e+003;5.246660e-002
3.203318e+003;5.296449e-002
3.205247e+003;5.284738e-002
3.207175e+003;5.248013e-002
3.209104e+003;5.234566e-002
3.211032e+003;5.249355e-002
3.212961e+003;5.286164e-002
3.214889e+003;5.308747e-002
3.216818e+003;5.279054e-002
3.218747e+003;5.273809e-002
3.220675e+003;5.329543e-002
3.222604e+003;5.338883e-002
3.224532e+003;5.313281e-002
3.226461e+003;5.338940e-002
3.228389e+003;5.355511e-002
3.230318e+003;5.355504e-002
3.232246e+003;5.344811e-002
3.234175e+003;5.320816e-002
3.236104e+003;5.346415e-002
3.238032e+003;5.429767e-002
3.239961e+003;5.457351e-002
3.241889e+003;5.444391e-002
3.243818e+003;5.417874e-002
3.245746e+003;5.421887e-002
3.247675e+003;5.458891e-002
3.249603e+003;5.496423e-002
3.251532e+003;5.525098e-002
3.253460e+003;5.535244e-002
3.255389e+003;5.543025e-002
3.257318e+003;5.522129e-002
3.259246e+003;5.476407e-002
3.261175e+003;5.479538e-002
3.263103e+003;5.509312e-002
3.265032e+003;5.535741e-002
3.266960e+003;5.581767e-002
3.268889e+003;5.581191e-002
3.270817e+003;5.568201e-002
3.272746e+003;5.581025e-002
3.274675e+003;5.588535e-002
3.276603e+003;5.599691e-002
3.278531e+003;5.646434e-002
3.280460e+003;5.682693e-002
3.282389e+003;5.665105e-002
3.284317e+003;5.660031e-002
3.286246e+003;5.660107e-002
3.288174e+003;5.701417e-002
3.290103e+003;5.715686e-002
3.292031e+003;5.671376e-002
3.293960e+003;5.661179e-002
3.295888e+003;5.703099e-002
3.297817e+003;5.745237e-002
3.299746e+003;5.768419e-002
3.301674e+003;5.756040e-002
3.303603e+003;5.771091e-002
3.305531e+003;5.806655e-002
3.307460e+003;5.826385e-002
3.309388e+003;5.845565e-002
3.311317e+003;5.863909e-002
3.313245e+003;5.881737e-002
3.315174e+003;5.915793e-002
3.317103e+003;5.933077e-002
3.319031e+003;5.916192e-002
3.320960e+003;5.902681e-002
3.322888e+003;5.914522e-002
3.324817e+003;5.958340e-002
3.326745e+003;5.979815e-002
3.328674e+003;5.992388e-002
3.330602e+003;6.003283e-002
3.332531e+003;6.004021e-002
3.334459e+003;5.989509e-002
3.336388e+003;5.984603e-002
3.338317e+003;6.021458e-002
3.340245e+003;6.066729e-002
3.342174e+003;6.112364e-002
3.344102e+003;6.146724e-002
3.346031e+003;6.129089e-002
3.347959e+003;6.104386e-002
3.349888e+003;6.131107e-002
3.351816e+003;6.168774e-002
3.353745e+003;6.188279e-002
3.355674e+003;6.195413e-002
3.357602e+003;6.184874e-002
3.359531e+003;6.208136e-002
3.361459e+003;6.242465e-002
3.363388e+003;6.257192e-002
3.365316e+003;6.236639e-002
3.367245e+003;6.245128e-002
3.369173e+003;6.307354e-002
3.371102e+003;6.340764e-002
3.373031e+003;6.308123e-002
3.374959e+003;6.293865e-002
3.376887e+003;6.310913e-002
3.378816e+003;6.335691e-002
3.380745e+003;6.360841e-002
3.382673e+003;6.375536e-002
3.384602e+003;6.372919e-002
3.386530e+003;6.369592e-002
3.388459e+003;6.423202e-002
3.390387e+003;6.472883e-002
3.392316e+003;6.484757e-002
3.394244e+003;6.536934e-002
3.396173e+003;6.557641e-002
3.398102e+003;6.522763e-002
3.400030e+003;6.526759e-002
3.401959e+003;6.542461e-002
3.403887e+003;6.540748e-002
3.405816e+003;6.595152e-002
3.407744e+003;6.614135e-002
3.409673e+003;6.593351e-002
3.411601e+003;6.621359e-002
3.413530e+003;6.651239e-002
3.415458e+003;6.632984e-002
3.417387e+003;6.647725e-002
3.419316e+003;6.728528e-002
3.421244e+003;6.733731e-002
3.423173e+003;6.707669e-002
3.425101e+003;6.754699e-002
3.427030e+003;6.794287e-002
3.428958e+003;6.824433e-002
3.430887e+003;6.879240e-002
3.432815e+003;6.887223e-002
3.434744e+003;6.844556e-002
3.436673e+003;6.829403e-002
3.438601e+003;6.864064e-002
3.440530e+003;6.909594e-002
3.442458e+003;6.966038e-002
3.444387e+003;6.978682e-002
3.446315e+003;6.975332e-002
3.448244e+003;6.960289e-002
3.450172e+003;6.948852e-002
3.452101e+003;7.004062e-002
3.454030e+003;7.051380e-002
3.455958e+003;7.061370e-002
3.457886e+003;7.089476e-002
3.459815e+003;7.117181e-002
3.461744e+003;7.107861e-002
3.463672e+003;7.120182e-002
3.465601e+003;7.171879e-002
3.467529e+003;7.201057e-002
3.469458e+003;7.227577e-002
3.471386e+003;7.260536e-002
3.473315e+003;7.283261e-002
3.475243e+003;7.298525e-002
3.477172e+003;7.285773e-002
3.479101e+003;7.258954e-002
3.481029e+003;7.264296e-002
3.482958e+003;7.275793e-002
3.484886e+003;7.273654e-002
3.486815e+003;7.267367e-002
3.488743e+003;7.279249e-002
3.490672e+003;7.321788e-002
3.492600e+003;7.284871e-002
3.494529e+003;7.230359e-002
3.496458e+003;7.234485e-002
3.498386e+003;7.246984e-002
3.500315e+003;7.235338e-002
3.502243e+003;7.215123e-002
3.504172e+003;7.208218e-002
3.506100e+003;7.209767e-002
3.508029e+003;7.214019e-002
3.509957e+003;7.195891e-002
3.511886e+003;7.188344e-002
3.513814e+003;7.194608e-002
3.515743e+003;7.140490e-002
3.517672e+003;7.072061e-002
3.519600e+003;7.081089e-002
3.521529e+003;7.124454e-002
3.523457e+003;7.142154e-002
3.525386e+003;7.090583e-002
3.527314e+003;7.014474e-002
3.529243e+003;6.990212e-002
3.531171e+003;6.973609e-002
3.533100e+003;6.958185e-002
3.535029e+003;6.936236e-002
3.536957e+003;6.910037e-002
3.538885e+003;6.893906e-002
3.540814e+003;6.901405e-002
3.542743e+003;6.892042e-002
3.544671e+003;6.824476e-002
3.546600e+003;6.747422e-002
3.548528e+003;6.715859e-002
3.550457e+003;6.689804e-002
3.552385e+003;6.627619e-002
3.554314e+003;6.599013e-002
3.556242e+003;6.615632e-002
3.558171e+003;6.605879e-002
3.560100e+003;6.563110e-002
3.562028e+003;6.538559e-002
3.563957e+003;6.488969e-002
3.565885e+003;6.371353e-002
3.567814e+003;6.332403e-002
3.569742e+003;6.370144e-002
3.571671e+003;6.354140e-002
3.573599e+003;6.292211e-002
3.575528e+003;6.255608e-002
3.577457e+003;6.233966e-002
3.579385e+003;6.185582e-002
3.581314e+003;6.130634e-002
3.583242e+003;6.111178e-002
3.585171e+003;6.069705e-002
3.587099e+003;5.995557e-002
3.589028e+003;5.954099e-002
3.590956e+003;5.924341e-002
3.592885e+003;5.880352e-002
3.594813e+003;5.868282e-002
3.596742e+003;5.855957e-002
3.598671e+003;5.839770e-002
3.600599e+003;5.791399e-002
3.602528e+003;5.682300e-002
3.604456e+003;5.637024e-002
3.606385e+003;5.676911e-002
3.608313e+003;5.658982e-002
3.610242e+003;5.578764e-002
3.612170e+003;5.507777e-002
3.614099e+003;5.467120e-002
3.616028e+003;5.448185e-002
3.617956e+003;5.434379e-002
3.619885e+003;5.429084e-002
3.621813e+003;5.397077e-002
3.623742e+003;5.335991e-002
3.625670e+003;5.318502e-002
3.627599e+003;5.282302e-002
3.629527e+003;5.216086e-002
3.631456e+003;5.199486e-002
3.633385e+003;5.190109e-002
3.635313e+003;5.168054e-002
3.637241e+003;5.114691e-002
3.639170e+003;5.056822e-002
3.641099e+003;5.038496e-002
3.643027e+003;5.038411e-002
3.644956e+003;4.990656e-002
3.646884e+003;4.887664e-002
3.648813e+003;4.814117e-002
3.650741e+003;4.815120e-002
3.652670e+003;4.826275e-002
3.654598e+003;4.751435e-002
3.656527e+003;4.670468e-002
3.658456e+003;4.620846e-002
3.660384e+003;4.561537e-002
3.662313e+003;4.519233e-002
3.664241e+003;4.479712e-002
3.666170e+003;4.412338e-002
3.668098e+003;4.321400e-002
3.670027e+003;4.231971e-002
3.671955e+003;4.201545e-002
3.673884e+003;4.166822e-002
3.675813e+003;4.099655e-002
3.677741e+003;4.061000e-002
3.679669e+003;4.023987e-002
3.681598e+003;4.002945e-002
3.683527e+003;3.976854e-002
3.685455e+003;3.901954e-002
3.687384e+003;3.803693e-002
3.689312e+003;3.790455e-002
3.691241e+003;3.834826e-002
3.693169e+003;3.810026e-002
3.695098e+003;3.787121e-002
3.697026e+003;3.807773e-002
3.698955e+003;3.808825e-002
3.700884e+003;3.741281e-002
3.702812e+003;3.686162e-002
3.704741e+003;3.680470e-002
3.706669e+003;3.678577e-002
3.708598e+003;3.642435e-002
3.710526e+003;3.606803e-002
3.712455e+003;3.638144e-002
3.714383e+003;3.691829e-002
3.716312e+003;3.657385e-002
3.718240e+003;3.618135e-002
3.720169e+003;3.610007e-002
3.722098e+003;3.598883e-002
3.724026e+003;3.597785e-002
3.725955e+003;3.614054e-002
3.727883e+003;3.613666e-002
3.729812e+003;3.553353e-002
3.731740e+003;3.497828e-002
3.733669e+003;3.491540e-002
3.735597e+003;3.492431e-002
3.737526e+003;3.521954e-002
3.739455e+003;3.555798e-002
3.741383e+003;3.540219e-002
3.743312e+003;3.473712e-002
3.745240e+003;3.460236e-002
3.747169e+003;3.460469e-002
3.749097e+003;3.429740e-002
3.751026e+003;3.434767e-002
3.752954e+003;3.489511e-002
3.754883e+003;3.517509e-002
3.756812e+003;3.479796e-002
3.758740e+003;3.485397e-002
3.760668e+003;3.533123e-002
3.762597e+003;3.535344e-002
3.764526e+003;3.509613e-002
3.766454e+003;3.511279e-002
3.768383e+003;3.504853e-002
3.770311e+003;3.467323e-002
3.772240e+003;3.496305e-002
3.774168e+003;3.524757e-002
3.776097e+003;3.540017e-002
3.778025e+003;3.538195e-002
3.779954e+003;3.533673e-002
3.781883e+003;3.572498e-002
3.783811e+003;3.557502e-002
3.785740e+003;3.527096e-002
3.787668e+003;3.495020e-002
3.789597e+003;3.522295e-002
3.791525e+003;3.586916e-002
3.793454e+003;3.575117e-002
3.795382e+003;3.559869e-002
3.797311e+003;3.594679e-002
3.799240e+003;3.555863e-002
3.801168e+003;3.487605e-002
3.803097e+003;3.532250e-002
3.805025e+003;3.558118e-002
3.806954e+003;3.539867e-002
3.808882e+003;3.566116e-002
3.810811e+003;3.597533e-002
3.812739e+003;3.579197e-002
3.814668e+003;3.500615e-002
3.816596e+003;3.498338e-002
3.818525e+003;3.552422e-002
3.820454e+003;3.536193e-002
3.822382e+003;3.525860e-002
3.824311e+003;3.531488e-002
3.826239e+003;3.517933e-002
3.828168e+003;3.535941e-002
3.830096e+003;3.582356e-002
3.832025e+003;3.567724e-002
3.833953e+003;3.549063e-002
3.835882e+003;3.548427e-002
3.837811e+003;3.497300e-002
3.839739e+003;3.490229e-002
3.841667e+003;3.506897e-002
3.843596e+003;3.532214e-002
3.845525e+003;3.573772e-002
3.847453e+003;3.568041e-002
3.849382e+003;3.533073e-002
3.851310e+003;3.480370e-002
3.853239e+003;3.444437e-002
3.855167e+003;3.519942e-002
3.857096e+003;3.589280e-002
3.859024e+003;3.582583e-002
3.860953e+003;3.582288e-002
3.862882e+003;3.603901e-002
3.864810e+003;3.619751e-002
3.866739e+003;3.608527e-002
3.868667e+003;3.571038e-002
3.870596e+003;3.583288e-002
3.872524e+003;3.597731e-002
3.874453e+003;3.594916e-002
3.876381e+003;3.627178e-002
3.878310e+003;3.646558e-002
3.880239e+003;3.634934e-002
3.882167e+003;3.597882e-002
3.884096e+003;3.568285e-002
3.886024e+003;3.617284e-002
3.887953e+003;3.668913e-002
3.889881e+003;3.643981e-002
3.891810e+003;3.657676e-002
3.893738e+003;3.701638e-002
3.895667e+003;3.708231e-002
3.897595e+003;3.691821e-002
3.899524e+003;3.681267e-002
3.901453e+003;3.700837e-002
3.903381e+003;3.710811e-002
3.905310e+003;3.734767e-002
3.907238e+003;3.762721e-002
3.909167e+003;3.774198e-002
3.911095e+003;3.781876e-002
3.913024e+003;3.767820e-002
3.914952e+003;3.758031e-002
3.916881e+003;3.787230e-002
3.918810e+003;3.824516e-002
3.920738e+003;3.827443e-002
3.922667e+003;3.784706e-002
3.924595e+003;3.791662e-002
3.926524e+003;3.831761e-002
3.928452e+003;3.866441e-002
3.930381e+003;3.899616e-002
3.932309e+003;3.887403e-002
3.934238e+003;3.826180e-002
3.936167e+003;3.821972e-002
3.938095e+003;3.884359e-002
3.940023e+003;3.919912e-002
3.941952e+003;3.895937e-002
3.943881e+003;3.901225e-002
3.945809e+003;3.930317e-002
3.947738e+003;3.941429e-002
3.949666e+003;3.956895e-002
3.951595e+003;3.947648e-002
3.953523e+003;3.923785e-002
3.955452e+003;3.949212e-002
3.957380e+003;3.956528e-002
3.959309e+003;3.950268e-002
3.961238e+003;3.996805e-002
3.963166e+003;4.042002e-002
3.965095e+003;4.090269e-002
3.967023e+003;4.134503e-002
3.968952e+003;4.156732e-002
3.970880e+003;4.130957e-002
3.972809e+003;4.125571e-002
3.974737e+003;4.160291e-002
3.976666e+003;4.149954e-002
3.978594e+003;4.117053e-002
3.980523e+003;4.129773e-002
3.982452e+003;4.118809e-002
3.984380e+003;4.093840e-002
3.986309e+003;4.106254e-002
3.988237e+003;4.164178e-002
3.990166e+003;4.179144e-002
3.992094e+003;4.140877e-002
3.994023e+003;4.090312e-002
3.995951e+003;4.083170e-002
3.997880e+003;4.109062e-002
3.999809e+003;4.120627e-002
4.001737e+003;0.000000e+000
