3.992094e+002;0.000000e+000
4.011380e+002;0.000000e+000
4.030665e+002;0.000000e+000
4.049951e+002;0.000000e+000
4.069236e+002;0.000000e+000
4.088522e+002;0.000000e+000
4.107807e+002;0.000000e+000
4.127093e+002;0.000000e+000
4.146378e+002;0.000000e+000
4.165664e+002;0.000000e+000
4.184949e+002;0.000000e+000
4.204235e+002;0.000000e+000
4.223520e+002;0.000000e+000
4.242806e+002;0.000000e+000
4.262091e+002;0.000000e+000
4.281377e+002;0.000000e+000
4.300662e+002;0.000000e+000
4.319948e+002;0.000000e+000
4.339233e+002;0.000000e+000
4.358519e+002;0.000000e+000
4.377804e+002;0.000000e+000
4.397090e+002;0.000000e+000
4.416375e+002;0.000000e+000
4.435660e+002;0.000000e+000
4.454946e+002;0.000000e+000
4.474232e+002;0.000000e+000
4.493517e+002;0.000000e+000
4.512802e+002;0.000000e+000
4.532088e+002;0.000000e+000
4.551373e+002;0.000000e+000
4.570659e+002;0.000000e+000
4.589944e+002;0.000000e+000
4.609230e+002;0.000000e+000
4.628515e+002;0.000000e+000
4.647801e+002;0.000000e+000
4.667086e+002;0.000000e+000
4.686372e+002;0.000000e+000
4.705657e+002;0.000000e+000
4.724943e+002;0.000000e+000
4.744228e+002;0.000000e+000
4.763513e+002;0.000000e+000
4.782799e+002;0.000000e+000
4.802085e+002;0.000000e+000
4.821370e+002;0.000000e+000
4.840656e+002;0.000000e+000
4.859941e+002;0.000000e+000
4.879226e+002;0.000000e+000
4.898512e+002;0.000000e+000
4.917798e+002;0.000000e+000
4.937083e+002;0.000000e+000
4.956368e+002;0.000000e+000
4.975654e+002;0.000000e+000
4.994939e+002;0.000000e+000
5.014225e+002;0.000000e+000
5.033510e+002;0.000000e+000
5.052796e+002;0.000000e+000
5.072081e+002;0.000000e+000
5.091367e+002;0.000000e+000
5.110652e+002;0.000000e+000
5.129938e+002;0.000000e+000
5.149223e+002;0.000000e+000
5.168509e+002;0.000000e+000
5.187794e+002;0.000000e+000
5.207079e+002;0.000000e+000
5.226365e+002;0.000000e+000
5.245651e+002;0.000000e+000
5.264936e+002;0.000000e+000
5.284222e+002;0.000000e+000
5.303507e+002;0.000000e+000
5.322792e+002;0.000000e+000
5.342078e+002;0.000000e+000
5.361364e+002;0.000000e+000
5.380649e+002;0.000000e+000
5.399935e+002;0.000000e+000
5.419220e+002;0.000000e+000
5.438505e+002;0.000000e+000
5.457791e+002;0.000000e+000
5.477076e+002;0.000000e+000
5.496362e+002;0.000000e+000
5.515648e+002;0.000000e+000
5.534933e+002;0.000000e+000
5.554218e+002;0.000000e+000
5.573504e+002;0.000000e+000
5.592789e+002;0.000000e+000
5.612075e+002;0.000000e+000
5.631360e+002;0.000000e+000
5.650646e+002;0.000000e+000
5.669931e+002;0.000000e+000
5.689217e+002;0.000000e+000
5.708502e+002;0.000000e+000
5.727787e+002;0.000000e+000
5.747073e+002;0.000000e+000
5.766359e+002;0.000000e+000
5.785644e+002;0.000000e+000
5.804930e+002;0.000000e+000
5.824215e+002;0.000000e+000
5.843500e+002;0.000000e+000
5.862786e+002;0.000000e+000
5.882072e+002;0.000000e+000
5.901357e+002;0.000000e+000
5.920643e+002;0.000000e+000
5.939928e+002;0.000000e+000
5.959213e+002;0.000000e+000
5.978499e+002;0.000000e+000
5.997784e+002;1.910969e-001
6.017070e+002;1.981375e-001
6.036355e+002;2.006527e-001
6.055641e+002;1.955062e-001
6.074926e+002;1.823688e-001
6.094211e+002;1.706995e-001
6.113497e+002;1.629571e-001
6.132783e+002;1.581039e-001
6.152068e+002;1.527857e-001
6.171354e+002;1.455649e-001
6.190639e+002;1.447928e-001
6.209924e+002;1.473313e-001
6.229210e+002;1.454354e-001
6.248495e+002;1.419200e-001
6.267781e+002;1.395199e-001
6.287067e+002;1.395421e-001
6.306352e+002;1.345631e-001
6.325637e+002;1.284334e-001
6.344923e+002;1.279075e-001
6.364208e+002;1.282020e-001
6.383494e+002;1.272656e-001
6.402780e+002;1.258462e-001
6.422065e+002;1.253114e-001
6.441350e+002;1.227009e-001
6.460636e+002;1.198517e-001
6.479921e+002;1.202567e-001
6.499207e+002;1.193863e-001
6.518492e+002;1.155523e-001
6.537778e+002;1.149848e-001
6.557063e+002;1.148915e-001
6.576349e+002;1.140375e-001
6.595634e+002;1.121680e-001
6.614919e+002;1.080559e-001
6.634205e+002;1.054109e-001
6.653491e+002;1.064235e-001
6.672776e+002;1.062845e-001
6.692062e+002;1.057903e-001
6.711347e+002;1.043973e-001
6.730632e+002;1.034750e-001
6.749918e+002;1.041335e-001
6.769203e+002;1.063259e-001
6.788489e+002;1.093582e-001
6.807775e+002;1.091198e-001
6.827060e+002;1.079813e-001
6.846345e+002;1.078101e-001
6.865631e+002;1.078501e-001
6.884916e+002;1.075205e-001
6.904202e+002;1.070476e-001
6.923488e+002;1.061443e-001
6.942773e+002;1.043872e-001
6.962058e+002;1.031335e-001
6.981344e+002;1.019638e-001
7.000629e+002;1.001005e-001
7.019915e+002;9.764107e-002
7.039200e+002;9.592874e-002
7.058486e+002;9.494766e-002
7.077771e+002;9.483656e-002
7.097057e+002;9.431856e-002
7.116342e+002;9.332167e-002
7.135627e+002;9.240249e-002
7.154913e+002;9.134930e-002
7.174199e+002;8.909310e-002
7.193484e+002;8.779455e-002
7.212770e+002;8.824094e-002
7.232055e+002;8.798322e-002
7.251340e+002;8.671884e-002
7.270626e+002;8.626794e-002
7.289911e+002;8.502478e-002
7.309197e+002;8.246514e-002
7.328483e+002;7.939190e-002
7.347768e+002;7.610472e-002
7.367053e+002;7.406288e-002
7.386339e+002;7.354163e-002
7.405624e+002;7.338451e-002
7.424910e+002;7.231878e-002
7.444196e+002;7.098351e-002
7.463481e+002;7.010257e-002
7.482766e+002;6.900920e-002
7.502052e+002;6.836753e-002
7.521337e+002;6.821339e-002
7.540623e+002;6.831280e-002
7.559908e+002;6.835694e-002
7.579194e+002;6.864794e-002
7.598479e+002;6.845833e-002
7.617765e+002;6.746269e-002
7.637050e+002;6.737538e-002
7.656335e+002;6.810597e-002
7.675621e+002;6.798261e-002
7.694907e+002;6.760092e-002
7.714192e+002;6.731298e-002
7.733478e+002;6.692931e-002
7.752763e+002;6.706258e-002
7.772048e+002;6.727348e-002
7.791334e+002;6.719259e-002
7.810620e+002;6.815761e-002
7.829905e+002;6.927063e-002
7.849191e+002;6.943525e-002
7.868476e+002;6.942239e-002
7.887761e+002;6.932353e-002
7.907047e+002;6.928307e-002
7.926332e+002;6.990310e-002
7.945618e+002;7.041516e-002
7.964903e+002;7.109269e-002
7.984189e+002;7.196266e-002
8.003474e+002;7.284629e-002
8.022759e+002;7.392231e-002
8.042045e+002;7.502463e-002
8.061331e+002;7.599704e-002
8.080616e+002;7.698140e-002
8.099902e+002;7.856268e-002
8.119187e+002;8.007837e-002
8.138472e+002;8.093744e-002
8.157758e+002;8.219793e-002
8.177043e+002;8.378512e-002
8.196329e+002;8.612348e-002
8.215615e+002;8.838591e-002
8.234900e+002;9.071114e-002
8.254185e+002;9.410115e-002
8.273471e+002;9.822078e-002
8.292756e+002;1.022222e-001
8.312042e+002;1.067302e-001
8.331328e+002;1.119415e-001
8.350613e+002;1.164047e-001
8.369898e+002;1.191179e-001
8.389184e+002;1.209212e-001
8.408469e+002;1.210859e-001
8.427755e+002;1.192214e-001
8.447040e+002;1.166324e-001
8.466326e+002;1.135086e-001
8.485611e+002;1.102389e-001
8.504897e+002;1.081386e-001
8.524182e+002;1.065658e-001
8.543467e+002;1.050301e-001
8.562753e+002;1.049530e-001
8.582039e+002;1.063968e-001
8.601324e+002;1.084681e-001
8.620610e+002;1.113278e-001
8.639895e+002;1.149835e-001
8.659180e+002;1.196847e-001
8.678466e+002;1.251974e-001
8.697751e+002;1.309908e-001
8.717037e+002;1.368289e-001
8.736323e+002;1.425835e-001
8.755608e+002;1.476607e-001
8.774893e+002;1.513668e-001
8.794179e+002;1.546411e-001
8.813464e+002;1.582183e-001
8.832750e+002;1.613975e-001
8.852036e+002;1.650334e-001
8.871321e+002;1.697243e-001
8.890606e+002;1.751076e-001
8.909892e+002;1.811097e-001
8.929177e+002;1.877220e-001
8.948463e+002;1.941731e-001
8.967748e+002;1.989160e-001
8.987034e+002;2.011823e-001
9.006319e+002;2.007225e-001
9.025605e+002;1.976205e-001
9.044890e+002;1.925604e-001
9.064175e+002;1.863443e-001
9.083461e+002;1.798510e-001
9.102747e+002;1.738034e-001
9.122032e+002;1.680655e-001
9.141318e+002;1.626742e-001
9.160603e+002;1.581555e-001
9.179888e+002;1.547587e-001
9.199174e+002;1.520301e-001
9.218459e+002;1.493100e-001
9.237745e+002;1.469292e-001
9.257031e+002;1.452070e-001
9.276316e+002;1.442567e-001
9.295601e+002;1.436504e-001
9.314887e+002;1.432521e-001
9.334172e+002;1.430508e-001
9.353458e+002;1.435629e-001
9.372744e+002;1.445408e-001
9.392029e+002;1.457784e-001
9.411314e+002;1.473769e-001
9.430600e+002;1.494094e-001
9.449885e+002;1.516626e-001
9.469171e+002;1.537794e-001
9.488456e+002;1.558328e-001
9.507742e+002;1.579925e-001
9.527027e+002;1.596561e-001
9.546313e+002;1.614078e-001
9.565598e+002;1.631748e-001
9.584883e+002;1.646917e-001
9.604169e+002;1.670235e-001
9.623455e+002;1.703743e-001
9.642740e+002;1.742008e-001
9.662026e+002;1.788217e-001
9.681311e+002;1.842832e-001
9.700596e+002;1.911374e-001
9.719882e+002;1.988728e-001
9.739167e+002;2.071552e-001
9.758453e+002;2.151582e-001
9.777739e+002;2.224780e-001
9.797024e+002;2.300170e-001
9.816309e+002;2.372829e-001
9.835595e+002;2.434068e-001
9.854880e+002;2.490410e-001
9.874166e+002;2.546660e-001
9.893452e+002;2.601194e-001
9.912737e+002;2.653162e-001
9.932022e+002;2.702028e-001
9.951307e+002;2.753999e-001
9.970593e+002;2.816785e-001
9.989879e+002;2.893104e-001
1.000916e+003;2.987594e-001
1.002845e+003;3.100756e-001
1.004773e+003;3.225365e-001
1.006702e+003;3.357737e-001
1.008631e+003;3.501942e-001
1.010559e+003;3.663118e-001
1.012488e+003;3.838618e-001
1.014416e+003;4.024492e-001
1.016345e+003;4.222934e-001
1.018273e+003;4.419618e-001
1.020202e+003;4.610383e-001
1.022130e+003;4.810181e-001
1.024059e+003;5.005227e-001
1.025988e+003;5.183681e-001
1.027916e+003;5.338615e-001
1.029845e+003;5.467696e-001
1.031773e+003;5.550257e-001
1.033702e+003;5.581899e-001
1.035630e+003;5.572512e-001
1.037559e+003;5.534616e-001
1.039487e+003;5.469964e-001
1.041416e+003;5.376558e-001
1.043344e+003;5.271133e-001
1.045273e+003;5.141579e-001
1.047202e+003;4.989157e-001
1.049130e+003;4.844307e-001
1.051059e+003;4.691579e-001
1.052987e+003;4.524128e-001
1.054916e+003;4.345790e-001
1.056844e+003;4.177355e-001
1.058773e+003;4.028618e-001
1.060701e+003;3.891908e-001
1.062630e+003;3.774695e-001
1.064558e+003;3.674297e-001
1.066487e+003;3.581363e-001
1.068416e+003;3.488328e-001
1.070344e+003;3.394281e-001
1.072273e+003;3.304403e-001
1.074201e+003;3.211849e-001
1.076130e+003;3.117577e-001
1.078058e+003;3.025330e-001
1.079987e+003;2.929677e-001
1.081915e+003;2.834598e-001
1.083844e+003;2.747761e-001
1.085773e+003;2.658414e-001
1.087701e+003;2.572073e-001
1.089630e+003;2.494429e-001
1.091558e+003;2.412250e-001
1.093487e+003;2.331014e-001
1.095415e+003;2.258644e-001
1.097344e+003;2.194511e-001
1.099272e+003;2.144254e-001
1.101201e+003;2.106106e-001
1.103129e+003;2.074230e-001
1.105058e+003;2.047990e-001
1.106987e+003;2.028967e-001
1.108915e+003;2.012546e-001
1.110844e+003;2.001791e-001
1.112772e+003;1.993164e-001
1.114701e+003;1.983099e-001
1.116629e+003;1.971556e-001
1.118558e+003;1.959933e-001
1.120486e+003;1.949089e-001
1.122415e+003;1.935754e-001
1.124344e+003;1.913583e-001
1.126272e+003;1.886533e-001
1.128201e+003;1.856304e-001
1.130129e+003;1.826969e-001
1.132058e+003;1.800721e-001
1.133986e+003;1.774748e-001
1.135915e+003;1.752567e-001
1.137843e+003;1.740119e-001
1.139772e+003;1.733937e-001
1.141700e+003;1.735069e-001
1.143629e+003;1.739777e-001
1.145557e+003;1.745767e-001
1.147486e+003;1.760806e-001
1.149415e+003;1.782252e-001
1.151343e+003;1.804440e-001
1.153272e+003;1.828002e-001
1.155200e+003;1.851256e-001
1.157129e+003;1.874558e-001
1.159057e+003;1.892565e-001
1.160986e+003;1.901047e-001
1.162914e+003;1.904124e-001
1.164843e+003;1.901078e-001
1.166771e+003;1.889211e-001
1.168700e+003;1.875867e-001
1.170629e+003;1.861973e-001
1.172557e+003;1.845110e-001
1.174486e+003;1.827310e-001
1.176414e+003;1.808647e-001
1.178343e+003;1.791858e-001
1.180271e+003;1.785799e-001
1.182200e+003;1.796453e-001
1.184128e+003;1.824649e-001
1.186057e+003;1.875644e-001
1.187986e+003;1.950671e-001
1.189914e+003;2.055446e-001
1.191843e+003;2.197837e-001
1.193771e+003;2.378558e-001
1.195700e+003;2.601804e-001
1.197628e+003;2.868340e-001
1.199557e+003;3.172662e-001
1.201485e+003;3.505695e-001
1.203414e+003;3.849379e-001
1.205343e+003;4.178635e-001
1.207271e+003;4.480128e-001
1.209200e+003;4.735078e-001
1.211128e+003;4.920094e-001
1.213057e+003;5.039111e-001
1.214985e+003;5.112007e-001
1.216914e+003;5.134737e-001
1.218842e+003;5.128992e-001
1.220771e+003;5.116670e-001
1.222699e+003;5.085860e-001
1.224628e+003;5.037419e-001
1.226557e+003;4.970298e-001
1.228485e+003;4.876018e-001
1.230414e+003;4.755308e-001
1.232342e+003;4.609966e-001
1.234271e+003;4.443052e-001
1.236199e+003;4.255602e-001
1.238128e+003;4.060439e-001
1.240056e+003;3.862750e-001
1.241985e+003;3.662345e-001
1.243913e+003;3.466685e-001
1.245842e+003;3.275591e-001
1.247771e+003;3.094105e-001
1.249699e+003;2.922981e-001
1.251628e+003;2.759509e-001
1.253556e+003;2.605026e-001
1.255485e+003;2.460816e-001
1.257413e+003;2.322647e-001
1.259342e+003;2.195716e-001
1.261270e+003;2.078653e-001
1.263199e+003;1.967188e-001
1.265127e+003;1.864426e-001
1.267056e+003;1.767629e-001
1.268985e+003;1.680219e-001
1.270913e+003;1.602813e-001
1.272842e+003;1.533267e-001
1.274770e+003;1.469502e-001
1.276699e+003;1.407160e-001
1.278627e+003;1.352264e-001
1.280556e+003;1.304218e-001
1.282484e+003;1.259082e-001
1.284413e+003;1.220293e-001
1.286342e+003;1.188449e-001
1.288270e+003;1.158260e-001
1.290199e+003;1.127694e-001
1.292127e+003;1.103430e-001
1.294056e+003;1.081699e-001
1.295984e+003;1.060240e-001
1.297913e+003;1.041645e-001
1.299841e+003;1.026052e-001
1.301770e+003;1.011956e-001
1.303698e+003;1.001476e-001
1.305627e+003;9.944886e-002
1.307556e+003;9.907866e-002
1.309484e+003;9.866602e-002
1.311413e+003;9.853500e-002
1.313341e+003;9.874187e-002
1.315270e+003;9.881900e-002
1.317198e+003;9.886871e-002
1.319127e+003;9.870611e-002
1.321055e+003;9.858639e-002
1.322984e+003;9.850295e-002
1.324912e+003;9.817970e-002
1.326841e+003;9.772940e-002
1.328770e+003;9.724177e-002
1.330698e+003;9.665111e-002
1.332627e+003;9.619668e-002
1.334555e+003;9.601685e-002
1.336484e+003;9.598792e-002
1.338412e+003;9.571015e-002
1.340341e+003;9.577070e-002
1.342269e+003;9.649003e-002
1.344198e+003;9.770226e-002
1.346126e+003;9.964541e-002
1.348055e+003;1.032569e-001
1.349984e+003;1.088284e-001
1.351912e+003;1.169197e-001
1.353841e+003;1.283917e-001
1.355769e+003;1.440391e-001
1.357698e+003;1.632441e-001
1.359626e+003;1.839625e-001
1.361555e+003;2.034385e-001
1.363483e+003;2.184434e-001
1.365412e+003;2.267768e-001
1.367341e+003;2.282831e-001
1.369269e+003;2.244906e-001
1.371198e+003;2.172713e-001
1.373126e+003;2.078554e-001
1.375055e+003;1.977313e-001
1.376983e+003;1.874101e-001
1.378912e+003;1.765159e-001
1.380840e+003;1.654018e-001
1.382769e+003;1.542435e-001
1.384698e+003;1.433630e-001
1.386626e+003;1.334599e-001
1.388555e+003;1.244578e-001
1.390483e+003;1.164930e-001
1.392412e+003;1.098978e-001
1.394340e+003;1.047532e-001
1.396269e+003;1.010431e-001
1.398197e+003;9.867209e-002
1.400126e+003;9.708168e-002
1.402054e+003;9.594949e-002
1.403983e+003;9.537737e-002
1.405911e+003;9.518430e-002
1.407840e+003;9.548201e-002
1.409769e+003;9.613367e-002
1.411697e+003;9.702169e-002
1.413626e+003;9.798634e-002
1.415554e+003;9.919847e-002
1.417483e+003;1.006826e-001
1.419411e+003;1.027131e-001
1.421340e+003;1.054837e-001
1.423268e+003;1.084054e-001
1.425197e+003;1.111533e-001
1.427125e+003;1.133763e-001
1.429054e+003;1.146944e-001
1.430983e+003;1.152925e-001
1.432911e+003;1.151482e-001
1.434840e+003;1.137872e-001
1.436768e+003;1.117445e-001
1.438697e+003;1.096092e-001
1.440625e+003;1.071240e-001
1.442554e+003;1.042423e-001
1.444482e+003;1.013808e-001
1.446411e+003;9.854099e-002
1.448340e+003;9.578215e-002
1.450268e+003;9.350073e-002
1.452197e+003;9.152799e-002
1.454125e+003;8.922639e-002
1.456054e+003;8.639478e-002
1.457982e+003;8.406096e-002
1.459911e+003;8.237389e-002
1.461839e+003;8.051503e-002
1.463768e+003;7.814538e-002
1.465697e+003;7.543818e-002
1.467625e+003;7.323156e-002
1.469554e+003;7.148845e-002
1.471482e+003;6.967306e-002
1.473411e+003;6.796630e-002
1.475339e+003;6.666144e-002
1.477268e+003;6.576597e-002
1.479196e+003;6.490281e-002
1.481125e+003;6.395840e-002
1.483053e+003;6.326465e-002
1.484982e+003;6.272610e-002
1.486911e+003;6.206126e-002
1.488839e+003;6.135793e-002
1.490768e+003;6.084522e-002
1.492696e+003;6.062759e-002
1.494625e+003;6.038063e-002
1.496553e+003;6.012297e-002
1.498482e+003;6.013100e-002
1.500410e+003;6.010288e-002
1.502339e+003;5.987554e-002
1.504267e+003;5.932332e-002
1.506196e+003;5.874893e-002
1.508125e+003;5.912263e-002
1.510053e+003;5.947148e-002
1.511982e+003;5.954471e-002
1.513910e+003;5.960450e-002
1.515839e+003;5.952415e-002
1.517767e+003;5.948524e-002
1.519696e+003;5.918117e-002
1.521624e+003;5.902343e-002
1.523553e+003;5.933912e-002
1.525481e+003;5.954889e-002
1.527410e+003;5.978344e-002
1.529339e+003;5.998729e-002
1.531267e+003;5.972888e-002
1.533196e+003;5.966421e-002
1.535124e+003;5.990041e-002
1.537053e+003;5.946730e-002
1.538981e+003;5.842351e-002
1.540910e+003;5.808114e-002
1.542838e+003;5.848701e-002
1.544767e+003;5.896138e-002
1.546695e+003;5.934383e-002
1.548624e+003;5.941651e-002
1.550553e+003;5.931835e-002
1.552481e+003;5.919329e-002
1.554410e+003;5.912297e-002
1.556338e+003;5.886647e-002
1.558267e+003;5.827044e-002
1.560195e+003;5.854979e-002
1.562124e+003;5.929305e-002
1.564052e+003;5.952727e-002
1.565981e+003;5.939405e-002
1.567910e+003;5.893227e-002
1.569838e+003;5.877712e-002
1.571767e+003;5.918733e-002
1.573695e+003;5.920836e-002
1.575624e+003;5.866211e-002
1.577552e+003;5.898586e-002
1.579481e+003;5.969534e-002
1.581409e+003;6.003287e-002
1.583338e+003;6.023254e-002
1.585266e+003;6.016069e-002
1.587195e+003;6.044937e-002
1.589124e+003;6.090305e-002
1.591052e+003;6.123583e-002
1.592981e+003;6.168610e-002
1.594909e+003;6.208346e-002
1.596838e+003;6.250182e-002
1.598766e+003;6.306158e-002
1.600695e+003;6.364236e-002
1.602623e+003;6.420533e-002
1.604552e+003;6.502507e-002
1.606480e+003;6.554697e-002
1.608409e+003;6.584458e-002
1.610338e+003;6.613263e-002
1.612266e+003;6.645354e-002
1.614195e+003;6.683218e-002
1.616123e+003;6.721135e-002
1.618052e+003;6.793384e-002
1.619980e+003;6.878060e-002
1.621909e+003;6.918059e-002
1.623837e+003;6.971379e-002
1.625766e+003;7.043823e-002
1.627694e+003;7.095242e-002
1.629623e+003;7.185654e-002
1.631552e+003;7.276036e-002
1.633480e+003;7.293171e-002
1.635409e+003;7.303210e-002
1.637337e+003;7.415158e-002
1.639266e+003;7.527604e-002
1.641194e+003;7.587557e-002
1.643123e+003;7.642396e-002
1.645051e+003;7.669255e-002
1.646980e+003;7.689165e-002
1.648909e+003;7.744548e-002
1.650837e+003;7.746430e-002
1.652766e+003;7.712285e-002
1.654694e+003;7.797851e-002
1.656623e+003;7.873860e-002
1.658551e+003;7.879373e-002
1.660480e+003;7.889155e-002
1.662408e+003;7.940761e-002
1.664337e+003;8.014140e-002
1.666266e+003;8.076832e-002
1.668194e+003;8.109396e-002
1.670123e+003;8.170573e-002
1.672051e+003;8.289959e-002
1.673980e+003;8.407017e-002
1.675908e+003;8.524043e-002
1.677837e+003;8.678123e-002
1.679765e+003;8.839419e-002
1.681694e+003;9.012770e-002
1.683622e+003;9.172897e-002
1.685551e+003;9.418824e-002
1.687479e+003;9.753591e-002
1.689408e+003;1.008723e-001
1.691337e+003;1.043748e-001
1.693265e+003;1.081280e-001
1.695194e+003;1.119752e-001
1.697122e+003;1.169052e-001
1.699051e+003;1.226188e-001
1.700979e+003;1.289093e-001
1.702908e+003;1.360763e-001
1.704836e+003;1.438644e-001
1.706765e+003;1.526224e-001
1.708693e+003;1.623990e-001
1.710622e+003;1.732574e-001
1.712551e+003;1.855655e-001
1.714479e+003;1.990521e-001
1.716408e+003;2.135299e-001
1.718336e+003;2.294739e-001
1.720265e+003;2.465320e-001
1.722193e+003;2.638371e-001
1.724122e+003;2.814684e-001
1.726050e+003;2.987008e-001
1.727979e+003;3.149532e-001
1.729908e+003;3.296429e-001
1.731836e+003;3.421368e-001
1.733765e+003;3.510680e-001
1.735693e+003;3.566097e-001
1.737622e+003;3.585567e-001
1.739550e+003;3.566948e-001
1.741479e+003;3.518484e-001
1.743407e+003;3.444573e-001
1.745336e+003;3.346536e-001
1.747265e+003;3.230756e-001
1.749193e+003;3.101016e-001
1.751122e+003;2.956453e-001
1.753050e+003;2.797472e-001
1.754979e+003;2.623111e-001
1.756907e+003;2.432168e-001
1.758836e+003;2.229817e-001
1.760764e+003;2.020130e-001
1.762693e+003;1.812270e-001
1.764621e+003;1.617694e-001
1.766550e+003;1.440617e-001
1.768479e+003;1.287514e-001
1.770407e+003;1.163131e-001
1.772336e+003;1.058120e-001
1.774264e+003;9.743717e-002
1.776193e+003;9.096085e-002
1.778121e+003;8.563639e-002
1.780050e+003;8.119921e-002
1.781978e+003;7.737789e-002
1.783907e+003;7.425508e-002
1.785835e+003;7.178614e-002
1.787764e+003;6.977810e-002
1.789693e+003;6.787077e-002
1.791621e+003;6.611253e-002
1.793550e+003;6.497969e-002
1.795478e+003;6.402159e-002
1.797407e+003;6.288978e-002
1.799335e+003;6.192474e-002
1.801264e+003;6.124029e-002
1.803192e+003;6.051899e-002
1.805121e+003;5.983321e-002
1.807049e+003;5.917172e-002
1.808978e+003;5.840596e-002
1.810907e+003;5.777903e-002
1.812835e+003;5.710641e-002
1.814764e+003;5.645966e-002
1.816692e+003;5.591825e-002
1.818621e+003;5.535632e-002
1.820549e+003;5.486824e-002
1.822478e+003;5.455438e-002
1.824406e+003;5.426253e-002
1.826335e+003;5.382406e-002
1.828264e+003;5.318093e-002
1.830192e+003;5.260660e-002
1.832121e+003;5.235392e-002
1.834049e+003;5.210845e-002
1.835978e+003;5.189892e-002
1.837906e+003;5.166509e-002
1.839835e+003;5.119996e-002
1.841763e+003;5.068178e-002
1.843692e+003;5.033205e-002
1.845620e+003;5.008873e-002
1.847549e+003;4.989671e-002
1.849478e+003;4.971354e-002
1.851406e+003;4.955984e-002
1.853335e+003;4.950380e-002
1.855263e+003;4.938602e-002
1.857192e+003;4.917580e-002
1.859120e+003;4.894962e-002
1.861049e+003;4.872967e-002
1.862977e+003;4.863264e-002
1.864906e+003;4.849532e-002
1.866834e+003;4.815779e-002
1.868763e+003;4.797699e-002
1.870692e+003;4.786140e-002
1.872620e+003;4.767783e-002
1.874549e+003;4.754895e-002
1.876477e+003;4.738473e-002
1.878406e+003;4.705637e-002
1.880334e+003;4.676033e-002
1.882263e+003;4.657254e-002
1.884191e+003;4.648233e-002
1.886120e+003;4.640803e-002
1.888048e+003;4.619773e-002
1.889977e+003;4.597321e-002
1.891906e+003;4.602386e-002
1.893834e+003;4.611272e-002
1.895763e+003;4.608807e-002
1.897691e+003;4.612116e-002
1.899620e+003;4.611059e-002
1.901548e+003;4.614695e-002
1.903477e+003;4.635505e-002
1.905405e+003;4.646338e-002
1.907334e+003;4.643978e-002
1.909262e+003;4.642355e-002
1.911191e+003;4.664801e-002
1.913120e+003;4.685111e-002
1.915048e+003;4.699530e-002
1.916977e+003;4.702982e-002
1.918905e+003;4.732199e-002
1.920834e+003;4.769237e-002
1.922762e+003;4.772354e-002
1.924691e+003;4.767218e-002
1.926619e+003;4.749912e-002
1.928548e+003;4.747095e-002
1.930477e+003;4.749598e-002
1.932405e+003;4.732823e-002
1.934334e+003;4.718367e-002
1.936262e+003;4.731914e-002
1.938191e+003;4.730015e-002
1.940119e+003;4.748758e-002
1.942048e+003;4.772110e-002
1.943976e+003;4.772902e-002
1.945905e+003;4.755630e-002
1.947833e+003;4.735228e-002
1.949762e+003;4.725083e-002
1.951691e+003;4.723036e-002
1.953619e+003;4.707901e-002
1.955548e+003;4.682406e-002
1.957476e+003;4.674420e-002
1.959405e+003;4.659843e-002
1.961333e+003;4.641460e-002
1.963262e+003;4.625390e-002
1.965190e+003;4.595516e-002
1.967119e+003;4.578149e-002
1.969047e+003;4.566738e-002
1.970976e+003;4.555016e-002
1.972905e+003;4.566141e-002
1.974833e+003;4.551182e-002
1.976762e+003;4.516454e-002
1.978690e+003;4.507153e-002
1.980619e+003;4.502386e-002
1.982547e+003;4.476482e-002
1.984476e+003;4.454956e-002
1.986404e+003;4.442387e-002
1.988333e+003;4.426755e-002
1.990261e+003;4.406279e-002
1.992190e+003;4.400460e-002
1.994119e+003;4.404849e-002
1.996047e+003;4.403745e-002
1.997976e+003;4.410680e-002
1.999904e+003;4.422304e-002
2.001833e+003;4.439569e-002
2.003761e+003;4.467356e-002
2.005690e+003;4.488301e-002
2.007618e+003;4.496760e-002
2.009547e+003;4.481405e-002
2.011476e+003;4.471579e-002
2.013404e+003;4.488143e-002
2.015333e+003;4.513009e-002
2.017261e+003;4.540005e-002
2.019190e+003;4.560087e-002
2.021118e+003;4.562273e-002
2.023047e+003;4.572992e-002
2.024975e+003;4.600065e-002
2.026904e+003;4.611047e-002
2.028833e+003;4.607102e-002
2.030761e+003;4.616158e-002
2.032690e+003;4.640106e-002
2.034618e+003;4.642772e-002
2.036547e+003;4.631247e-002
2.038475e+003;4.630123e-002
2.040404e+003;4.639365e-002
2.042332e+003;4.638963e-002
2.044261e+003;4.636338e-002
2.046189e+003;4.630967e-002
2.048118e+003;4.625121e-002
2.050047e+003;4.658283e-002
2.051975e+003;4.678763e-002
2.053904e+003;4.674365e-002
2.055832e+003;4.687208e-002
2.057761e+003;4.695351e-002
2.059689e+003;4.703263e-002
2.061618e+003;4.702683e-002
2.063546e+003;4.684148e-002
2.065475e+003;4.683358e-002
2.067404e+003;4.703533e-002
2.069332e+003;4.719383e-002
2.071260e+003;4.750355e-002
2.073189e+003;4.760573e-002
2.075118e+003;4.750632e-002
2.077046e+003;4.754610e-002
2.078975e+003;4.770357e-002
2.080903e+003;4.788896e-002
2.082832e+003;4.800026e-002
2.084760e+003;4.840482e-002
2.086689e+003;4.896501e-002
2.088617e+003;4.938977e-002
2.090546e+003;4.948207e-002
2.092475e+003;4.952886e-002
2.094403e+003;4.981008e-002
2.096332e+003;5.010642e-002
2.098260e+003;5.038574e-002
2.100189e+003;5.045879e-002
2.102117e+003;5.064019e-002
2.104046e+003;5.104669e-002
2.105974e+003;5.113334e-002
2.107903e+003;5.117860e-002
2.109832e+003;5.132684e-002
2.111760e+003;5.130230e-002
2.113688e+003;5.137543e-002
2.115617e+003;5.162467e-002
2.117546e+003;5.168535e-002
2.119474e+003;5.156180e-002
2.121403e+003;5.144555e-002
2.123331e+003;5.132710e-002
2.125260e+003;5.124193e-002
2.127188e+003;5.115220e-002
2.129117e+003;5.105522e-002
2.131045e+003;5.103189e-002
2.132974e+003;5.088152e-002
2.134903e+003;5.062649e-002
2.136831e+003;5.041287e-002
2.138760e+003;5.040748e-002
2.140688e+003;5.034474e-002
2.142617e+003;5.003373e-002
2.144545e+003;4.978500e-002
2.146474e+003;4.950844e-002
2.148402e+003;4.909714e-002
2.150331e+003;4.874294e-002
2.152260e+003;4.857164e-002
2.154188e+003;4.854367e-002
2.156117e+003;4.834004e-002
2.158045e+003;4.795475e-002
2.159974e+003;4.761616e-002
2.161902e+003;4.735750e-002
2.163831e+003;4.711088e-002
2.165759e+003;4.693121e-002
2.167688e+003;4.671383e-002
2.169616e+003;4.648631e-002
2.171545e+003;4.627322e-002
2.173474e+003;4.598327e-002
2.175402e+003;4.570893e-002
2.177331e+003;4.552973e-002
2.179259e+003;4.542823e-002
2.181188e+003;4.514380e-002
2.183116e+003;4.494419e-002
2.185045e+003;4.484660e-002
2.186973e+003;4.476203e-002
2.188902e+003;4.454739e-002
2.190831e+003;4.422990e-002
2.192759e+003;4.403936e-002
2.194688e+003;4.391950e-002
2.196616e+003;4.392834e-002
2.198545e+003;4.379018e-002
2.200473e+003;4.365504e-002
2.202402e+003;4.371355e-002
2.204330e+003;4.391374e-002
2.206259e+003;4.391848e-002
2.208188e+003;4.377325e-002
2.210116e+003;4.354258e-002
2.212044e+003;4.343981e-002
2.213973e+003;4.340953e-002
2.215902e+003;4.340510e-002
2.217830e+003;4.343458e-002
2.219759e+003;4.347625e-002
2.221687e+003;4.339733e-002
2.223616e+003;4.327385e-002
2.225544e+003;4.328772e-002
2.227473e+003;4.321733e-002
2.229401e+003;4.313312e-002
2.231330e+003;4.300367e-002
2.233259e+003;4.277289e-002
2.235187e+003;4.276562e-002
2.237116e+003;4.296365e-002
2.239044e+003;4.310945e-002
2.240973e+003;4.326971e-002
2.242901e+003;4.321264e-002
2.244830e+003;4.307556e-002
2.246758e+003;4.310286e-002
2.248687e+003;4.305855e-002
2.250615e+003;4.295875e-002
2.252544e+003;4.316313e-002
2.254473e+003;4.323230e-002
2.256401e+003;4.301004e-002
2.258330e+003;4.293867e-002
2.260258e+003;4.316694e-002
2.262187e+003;4.337339e-002
2.264115e+003;4.320906e-002
2.266044e+003;4.290414e-002
2.267972e+003;4.279128e-002
2.269901e+003;4.287488e-002
2.271830e+003;4.291164e-002
2.273758e+003;4.278313e-002
2.275687e+003;4.244800e-002
2.277615e+003;4.226065e-002
2.279544e+003;4.234086e-002
2.281472e+003;4.215880e-002
2.283401e+003;4.177797e-002
2.285329e+003;4.169747e-002
2.287258e+003;4.171330e-002
2.289187e+003;4.152652e-002
2.291115e+003;4.144344e-002
2.293043e+003;4.127455e-002
2.294972e+003;4.092795e-002
2.296901e+003;4.082358e-002
2.298829e+003;4.067706e-002
2.300758e+003;4.046097e-002
2.302686e+003;4.037497e-002
2.304615e+003;4.031588e-002
2.306543e+003;4.013526e-002
2.308472e+003;4.011426e-002
2.310400e+003;4.026542e-002
2.312329e+003;4.029123e-002
2.314258e+003;4.028076e-002
2.316186e+003;4.004834e-002
2.318115e+003;3.969872e-002
2.320043e+003;3.987858e-002
2.321972e+003;4.026124e-002
2.323900e+003;4.045959e-002
2.325829e+003;4.039322e-002
2.327757e+003;4.009634e-002
2.329686e+003;3.982715e-002
2.331615e+003;3.996786e-002
2.333543e+003;4.007875e-002
2.335472e+003;4.018363e-002
2.337400e+003;4.043166e-002
2.339329e+003;4.057348e-002
2.341257e+003;4.086657e-002
2.343186e+003;4.107172e-002
2.345114e+003;4.127922e-002
2.347043e+003;4.136099e-002
2.348971e+003;4.117494e-002
2.350900e+003;4.123229e-002
2.352829e+003;4.162012e-002
2.354757e+003;4.167307e-002
2.356686e+003;4.156229e-002
2.358614e+003;4.169820e-002
2.360543e+003;4.170805e-002
2.362471e+003;4.161235e-002
2.364400e+003;4.166508e-002
2.366328e+003;4.176860e-002
2.368257e+003;4.180066e-002
2.370186e+003;4.171071e-002
2.372114e+003;4.157734e-002
2.374042e+003;4.161268e-002
2.375971e+003;4.160728e-002
2.377900e+003;4.147362e-002
2.379828e+003;4.140862e-002
2.381757e+003;4.150308e-002
2.383685e+003;4.159306e-002
2.385614e+003;4.155922e-002
2.387542e+003;4.168474e-002
2.389471e+003;4.188243e-002
2.391399e+003;4.205560e-002
2.393328e+003;4.204429e-002
2.395257e+003;4.207385e-002
2.397185e+003;4.227822e-002
2.399114e+003;4.249536e-002
2.401042e+003;4.269707e-002
2.402971e+003;4.303886e-002
2.404899e+003;4.348585e-002
2.406828e+003;4.392647e-002
2.408756e+003;4.412602e-002
2.410685e+003;4.423060e-002
2.412614e+003;4.416996e-002
2.414542e+003;4.416589e-002
2.416471e+003;4.414894e-002
2.418399e+003;4.389820e-002
2.420328e+003;4.391598e-002
2.422256e+003;4.401358e-002
2.424185e+003;4.408513e-002
2.426113e+003;4.415620e-002
2.428042e+003;4.410644e-002
2.429970e+003;4.397769e-002
2.431899e+003;4.400174e-002
2.433828e+003;4.416618e-002
2.435756e+003;4.410548e-002
2.437685e+003;4.409033e-002
2.439613e+003;4.407236e-002
2.441542e+003;4.384204e-002
2.443470e+003;4.382562e-002
2.445399e+003;4.389061e-002
2.447327e+003;4.407262e-002
2.449256e+003;4.426241e-002
2.451185e+003;4.427767e-002
2.453113e+003;4.414832e-002
2.455042e+003;4.406162e-002
2.456970e+003;4.384857e-002
2.458899e+003;4.386286e-002
2.460827e+003;4.409690e-002
2.462756e+003;4.414032e-002
2.464684e+003;4.405597e-002
2.466613e+003;4.407431e-002
2.468542e+003;4.413519e-002
2.470470e+003;4.391334e-002
2.472398e+003;4.370249e-002
2.474327e+003;4.365779e-002
2.476256e+003;4.369527e-002
2.478184e+003;4.376391e-002
2.480113e+003;4.372920e-002
2.482041e+003;4.352712e-002
2.483970e+003;4.324215e-002
2.485898e+003;4.317261e-002
2.487827e+003;4.337445e-002
2.489755e+003;4.316060e-002
2.491684e+003;4.282888e-002
2.493613e+003;4.278167e-002
2.495541e+003;4.273769e-002
2.497470e+003;4.260832e-002
2.499398e+003;4.245560e-002
2.501327e+003;4.235854e-002
2.503255e+003;4.213822e-002
2.505184e+003;4.205728e-002
2.507112e+003;4.194599e-002
2.509041e+003;4.172461e-002
2.510969e+003;4.163638e-002
2.512898e+003;4.170298e-002
2.514827e+003;4.185422e-002
2.516755e+003;4.194662e-002
2.518684e+003;4.179187e-002
2.520612e+003;4.167467e-002
2.522541e+003;4.148926e-002
2.524469e+003;4.150388e-002
2.526398e+003;4.151540e-002
2.528326e+003;4.141019e-002
2.530255e+003;4.130778e-002
2.532184e+003;4.123881e-002
2.534112e+003;4.130010e-002
2.536041e+003;4.128279e-002
2.537969e+003;4.123119e-002
2.539898e+003;4.127776e-002
2.541826e+003;4.102350e-002
2.543755e+003;4.086508e-002
2.545683e+003;4.086995e-002
2.547612e+003;4.093563e-002
2.549541e+003;4.108923e-002
2.551469e+003;4.120019e-002
2.553397e+003;4.106760e-002
2.555326e+003;4.116023e-002
2.557255e+003;4.145051e-002
2.559183e+003;4.145893e-002
2.561112e+003;4.134324e-002
2.563040e+003;4.125885e-002
2.564969e+003;4.155827e-002
2.566897e+003;4.201709e-002
2.568826e+003;4.236354e-002
2.570754e+003;4.252236e-002
2.572683e+003;4.274565e-002
2.574612e+003;4.268818e-002
2.576540e+003;4.270131e-002
2.578469e+003;4.304596e-002
2.580397e+003;4.329010e-002
2.582326e+003;4.352785e-002
2.584254e+003;4.359613e-002
2.586183e+003;4.359309e-002
2.588111e+003;4.391327e-002
2.590040e+003;4.409444e-002
2.591969e+003;4.400067e-002
2.593897e+003;4.405854e-002
2.595826e+003;4.420510e-002
2.597754e+003;4.416072e-002
2.599683e+003;4.414414e-002
2.601611e+003;4.416314e-002
2.603540e+003;4.410511e-002
2.605468e+003;4.428013e-002
2.607397e+003;4.451409e-002
2.609325e+003;4.456909e-002
2.611254e+003;4.458422e-002
2.613183e+003;4.470602e-002
2.615111e+003;4.505268e-002
2.617040e+003;4.533903e-002
2.618968e+003;4.534005e-002
2.620897e+003;4.500776e-002
2.622825e+003;4.507469e-002
2.624754e+003;4.545254e-002
2.626682e+003;4.545468e-002
2.628611e+003;4.524389e-002
2.630540e+003;4.532457e-002
2.632468e+003;4.565847e-002
2.634396e+003;4.582203e-002
2.636325e+003;4.582836e-002
2.638254e+003;4.580373e-002
2.640182e+003;4.584011e-002
2.642111e+003;4.591708e-002
2.644039e+003;4.609854e-002
2.645968e+003;4.610679e-002
2.647896e+003;4.601778e-002
2.649825e+003;4.590938e-002
2.651753e+003;4.595354e-002
2.653682e+003;4.620042e-002
2.655611e+003;4.611751e-002
2.657539e+003;4.587451e-002
2.659468e+003;4.567746e-002
2.661396e+003;4.549971e-002
2.663325e+003;4.540189e-002
2.665253e+003;4.567378e-002
2.667182e+003;4.592842e-002
2.669110e+003;4.585978e-002
2.671039e+003;4.581091e-002
2.672968e+003;4.566491e-002
2.674896e+003;4.576220e-002
2.676825e+003;4.608402e-002
2.678753e+003;4.603278e-002
2.680682e+003;4.568033e-002
2.682610e+003;4.573014e-002
2.684539e+003;4.615510e-002
2.686467e+003;4.621174e-002
2.688396e+003;4.611029e-002
2.690324e+003;4.619611e-002
2.692253e+003;4.625795e-002
2.694182e+003;4.639328e-002
2.696110e+003;4.661459e-002
2.698039e+003;4.658328e-002
2.699967e+003;4.635122e-002
2.701896e+003;4.643705e-002
2.703824e+003;4.680852e-002
2.705753e+003;4.733573e-002
2.707681e+003;4.774266e-002
2.709610e+003;4.792348e-002
2.711539e+003;4.811399e-002
2.713467e+003;4.827286e-002
2.715396e+003;4.844723e-002
2.717324e+003;4.868193e-002
2.719253e+003;4.893801e-002
2.721181e+003;4.901397e-002
2.723110e+003;4.906798e-002
2.725038e+003;4.916856e-002
2.726967e+003;4.933178e-002
2.728896e+003;4.937867e-002
2.730824e+003;4.931775e-002
2.732752e+003;4.926546e-002
2.734681e+003;4.925418e-002
2.736610e+003;4.936976e-002
2.738538e+003;4.938439e-002
2.740467e+003;4.924753e-002
2.742395e+003;4.934404e-002
2.744324e+003;4.952103e-002
2.746252e+003;4.956470e-002
2.748181e+003;4.934808e-002
2.750109e+003;4.895210e-002
2.752038e+003;4.882406e-002
2.753967e+003;4.903311e-002
2.755895e+003;4.921324e-002
2.757824e+003;4.915224e-002
2.759752e+003;4.900722e-002
2.761681e+003;4.920385e-002
2.763609e+003;4.942794e-002
2.765538e+003;4.925206e-002
2.767466e+003;4.922560e-002
2.769395e+003;4.918341e-002
2.771323e+003;4.928583e-002
2.773252e+003;4.939820e-002
2.775181e+003;4.936646e-002
2.777109e+003;4.955805e-002
2.779038e+003;4.989132e-002
2.780966e+003;5.021141e-002
2.782895e+003;5.053870e-002
2.784823e+003;5.067842e-002
2.786752e+003;5.074937e-002
2.788680e+003;5.087977e-002
2.790609e+003;5.107423e-002
2.792538e+003;5.136689e-002
2.794466e+003;5.172846e-002
2.796395e+003;5.177934e-002
2.798323e+003;5.185527e-002
2.800252e+003;5.221516e-002
2.802180e+003;5.221568e-002
2.804109e+003;5.217088e-002
2.806037e+003;5.251591e-002
2.807966e+003;5.281299e-002
2.809895e+003;5.269555e-002
2.811823e+003;5.273898e-002
2.813751e+003;5.331765e-002
2.815680e+003;5.363470e-002
2.817609e+003;5.358581e-002
2.819537e+003;5.369622e-002
2.821466e+003;5.378037e-002
2.823394e+003;5.401737e-002
2.825323e+003;5.433203e-002
2.827251e+003;5.470006e-002
2.829180e+003;5.512889e-002
2.831108e+003;5.525554e-002
2.833037e+003;5.546036e-002
2.834966e+003;5.605458e-002
2.836894e+003;5.664093e-002
2.838823e+003;5.710112e-002
2.840751e+003;5.750418e-002
2.842680e+003;5.785932e-002
2.844608e+003;5.799547e-002
2.846537e+003;5.799339e-002
2.848465e+003;5.820216e-002
2.850394e+003;5.857652e-002
2.852323e+003;5.917977e-002
2.854251e+003;6.021819e-002
2.856180e+003;6.149217e-002
2.858108e+003;6.272227e-002
2.860037e+003;6.398547e-002
2.861965e+003;6.554805e-002
2.863894e+003;6.668284e-002
2.865822e+003;6.728233e-002
2.867751e+003;6.802694e-002
2.869679e+003;6.867173e-002
2.871608e+003;6.872339e-002
2.873536e+003;6.897599e-002
2.875465e+003;6.975129e-002
2.877394e+003;7.046516e-002
2.879322e+003;7.073414e-002
2.881251e+003;7.058809e-002
2.883179e+003;7.070380e-002
2.885108e+003;7.082337e-002
2.887036e+003;7.092787e-002
2.888965e+003;7.097574e-002
2.890893e+003;7.064364e-002
2.892822e+003;7.029817e-002
2.894750e+003;6.983285e-002
2.896679e+003;6.945711e-002
2.898608e+003;6.961849e-002
2.900536e+003;6.957462e-002
2.902465e+003;6.926578e-002
2.904393e+003;6.884264e-002
2.906322e+003;6.849471e-002
2.908250e+003;6.792667e-002
2.910179e+003;6.685286e-002
2.912107e+003;6.616906e-002
2.914036e+003;6.559245e-002
2.915965e+003;6.463604e-002
2.917893e+003;6.387571e-002
2.919822e+003;6.360239e-002
2.921750e+003;6.337310e-002
2.923679e+003;6.363741e-002
2.925607e+003;6.427221e-002
2.927536e+003;6.486803e-002
2.929464e+003;6.532525e-002
2.931393e+003;6.603819e-002
2.933322e+003;6.760200e-002
2.935250e+003;6.908001e-002
2.937178e+003;7.004646e-002
2.939107e+003;7.100578e-002
2.941036e+003;7.171699e-002
2.942964e+003;7.223061e-002
2.944893e+003;7.251397e-002
2.946821e+003;7.238293e-002
2.948750e+003;7.214814e-002
2.950678e+003;7.183981e-002
2.952607e+003;7.115588e-002
2.954535e+003;7.059132e-002
2.956464e+003;7.033143e-002
2.958393e+003;6.999375e-002
2.960321e+003;6.975725e-002
2.962250e+003;6.965711e-002
2.964178e+003;6.908036e-002
2.966107e+003;6.831296e-002
2.968035e+003;6.788579e-002
2.969964e+003;6.758640e-002
2.971892e+003;6.717886e-002
2.973821e+003;6.651107e-002
2.975750e+003;6.596132e-002
2.977678e+003;6.586479e-002
2.979607e+003;6.559765e-002
2.981535e+003;6.511975e-002
2.983464e+003;6.477159e-002
2.985392e+003;6.439497e-002
2.987321e+003;6.446615e-002
2.989249e+003;6.449540e-002
2.991178e+003;6.433583e-002
2.993106e+003;6.414821e-002
2.995035e+003;6.383119e-002
2.996964e+003;6.330957e-002
2.998892e+003;6.277931e-002
3.000821e+003;6.224841e-002
3.002749e+003;6.196231e-002
3.004678e+003;6.187186e-002
3.006606e+003;6.166780e-002
3.008535e+003;6.127917e-002
3.010463e+003;6.088338e-002
3.012392e+003;6.088205e-002
3.014321e+003;6.095147e-002
3.016249e+003;6.097091e-002
3.018177e+003;6.079945e-002
3.020106e+003;6.050928e-002
3.022035e+003;6.036277e-002
3.023963e+003;6.046106e-002
3.025892e+003;6.049739e-002
3.027820e+003;5.995519e-002
3.029749e+003;5.935808e-002
3.031677e+003;5.891652e-002
3.033606e+003;5.865130e-002
3.035534e+003;5.870710e-002
3.037463e+003;5.840338e-002
3.039392e+003;5.772703e-002
3.041320e+003;5.691739e-002
3.043249e+003;5.633263e-002
3.045177e+003;5.598228e-002
3.047106e+003;5.575317e-002
3.049034e+003;5.554203e-002
3.050963e+003;5.517731e-002
3.052891e+003;5.462277e-002
3.054820e+003;5.420480e-002
3.056749e+003;5.389634e-002
3.058677e+003;5.359747e-002
3.060606e+003;5.340472e-002
3.062534e+003;5.333844e-002
3.064463e+003;5.302846e-002
3.066391e+003;5.266933e-002
3.068320e+003;5.228720e-002
3.070248e+003;5.205167e-002
3.072177e+003;5.189589e-002
3.074105e+003;5.164310e-002
3.076034e+003;5.161217e-002
3.077963e+003;5.151195e-002
3.079891e+003;5.100216e-002
3.081820e+003;5.069168e-002
3.083748e+003;5.066569e-002
3.085677e+003;5.080065e-002
3.087605e+003;5.064458e-002
3.089534e+003;5.047338e-002
3.091462e+003;5.035111e-002
3.093391e+003;5.017701e-002
3.095320e+003;5.038217e-002
3.097248e+003;5.055464e-002
3.099177e+003;5.037614e-002
3.101105e+003;5.029671e-002
3.103034e+003;5.028741e-002
3.104962e+003;5.011461e-002
3.106891e+003;5.001153e-002
3.108819e+003;5.018731e-002
3.110748e+003;5.043557e-002
3.112677e+003;5.028056e-002
3.114605e+003;4.981450e-002
3.116533e+003;4.958602e-002
3.118462e+003;4.968368e-002
3.120391e+003;4.955935e-002
3.122319e+003;4.917420e-002
3.124248e+003;4.896030e-002
3.126176e+003;4.882139e-002
3.128105e+003;4.891928e-002
3.130033e+003;4.910408e-002
3.131962e+003;4.897669e-002
3.133890e+003;4.879151e-002
3.135819e+003;4.870269e-002
3.137748e+003;4.861137e-002
3.139676e+003;4.857405e-002
3.141605e+003;4.859981e-002
3.143533e+003;4.861834e-002
3.145462e+003;4.866377e-002
3.147390e+003;4.838259e-002
3.149319e+003;4.817471e-002
3.151247e+003;4.809512e-002
3.153176e+003;4.803257e-002
3.155104e+003;4.823209e-002
3.157033e+003;4.845045e-002
3.158962e+003;4.851217e-002
3.160890e+003;4.861407e-002
3.162819e+003;4.856760e-002
3.164747e+003;4.853844e-002
3.166676e+003;4.851843e-002
3.168604e+003;4.849228e-002
3.170533e+003;4.859032e-002
3.172461e+003;4.852455e-002
3.174390e+003;4.865825e-002
3.176319e+003;4.882740e-002
3.178247e+003;4.866466e-002
3.180176e+003;4.819525e-002
3.182104e+003;4.810259e-002
3.184033e+003;4.836518e-002
3.185961e+003;4.878691e-002
3.187890e+003;4.904157e-002
3.189818e+003;4.870569e-002
3.191747e+003;4.835826e-002
3.193676e+003;4.842860e-002
3.195604e+003;4.862938e-002
3.197532e+003;4.851992e-002
3.199461e+003;4.850906e-002
3.201390e+003;4.875766e-002
3.203318e+003;4.902951e-002
3.205247e+003;4.870169e-002
3.207175e+003;4.824235e-002
3.209104e+003;4.831593e-002
3.211032e+003;4.873538e-002
3.212961e+003;4.917576e-002
3.214889e+003;4.928298e-002
3.216818e+003;4.932013e-002
3.218747e+003;4.951104e-002
3.220675e+003;4.980161e-002
3.222604e+003;4.984245e-002
3.224532e+003;4.976742e-002
3.226461e+003;4.990797e-002
3.228389e+003;5.000875e-002
3.230318e+003;4.996008e-002
3.232246e+003;4.998317e-002
3.234175e+003;5.003410e-002
3.236104e+003;5.021822e-002
3.238032e+003;5.049463e-002
3.239961e+003;5.042166e-002
3.241889e+003;5.063643e-002
3.243818e+003;5.070159e-002
3.245746e+003;5.061383e-002
3.247675e+003;5.095700e-002
3.249603e+003;5.124980e-002
3.251532e+003;5.149572e-002
3.253460e+003;5.174948e-002
3.255389e+003;5.182085e-002
3.257318e+003;5.162754e-002
3.259246e+003;5.128489e-002
3.261175e+003;5.144421e-002
3.263103e+003;5.181708e-002
3.265032e+003;5.211711e-002
3.266960e+003;5.260963e-002
3.268889e+003;5.280547e-002
3.270817e+003;5.258656e-002
3.272746e+003;5.246966e-002
3.274675e+003;5.260645e-002
3.276603e+003;5.264894e-002
3.278531e+003;5.308653e-002
3.280460e+003;5.356156e-002
3.282389e+003;5.374826e-002
3.284317e+003;5.379634e-002
3.286246e+003;5.372607e-002
3.288174e+003;5.403354e-002
3.290103e+003;5.414474e-002
3.292031e+003;5.392620e-002
3.293960e+003;5.402660e-002
3.295888e+003;5.441352e-002
3.297817e+003;5.492832e-002
3.299746e+003;5.502056e-002
3.301674e+003;5.468341e-002
3.303603e+003;5.459815e-002
3.305531e+003;5.488387e-002
3.307460e+003;5.501394e-002
3.309388e+003;5.524331e-002
3.311317e+003;5.590683e-002
3.313245e+003;5.604787e-002
3.315174e+003;5.605289e-002
3.317103e+003;5.648683e-002
3.319031e+003;5.652022e-002
3.320960e+003;5.628626e-002
3.322888e+003;5.641095e-002
3.324817e+003;5.659956e-002
3.326745e+003;5.672735e-002
3.328674e+003;5.709137e-002
3.330602e+003;5.731729e-002
3.332531e+003;5.749647e-002
3.334459e+003;5.764227e-002
3.336388e+003;5.787295e-002
3.338317e+003;5.793807e-002
3.340245e+003;5.784558e-002
3.342174e+003;5.819803e-002
3.344102e+003;5.860307e-002
3.346031e+003;5.856973e-002
3.347959e+003;5.868502e-002
3.349888e+003;5.911894e-002
3.351816e+003;5.951571e-002
3.353745e+003;5.998882e-002
3.355674e+003;5.999178e-002
3.357602e+003;5.970078e-002
3.359531e+003;5.967930e-002
3.361459e+003;5.988421e-002
3.363388e+003;6.017659e-002
3.365316e+003;6.019364e-002
3.367245e+003;6.027076e-002
3.369173e+003;6.044899e-002
3.371102e+003;6.051952e-002
3.373031e+003;6.080448e-002
3.374959e+003;6.126006e-002
3.376887e+003;6.136122e-002
3.378816e+003;6.128241e-002
3.380745e+003;6.139892e-002
3.382673e+003;6.160361e-002
3.384602e+003;6.165623e-002
3.386530e+003;6.196636e-002
3.388459e+003;6.242312e-002
3.390387e+003;6.243360e-002
3.392316e+003;6.278685e-002
3.394244e+003;6.336953e-002
3.396173e+003;6.321858e-002
3.398102e+003;6.281037e-002
3.400030e+003;6.313722e-002
3.401959e+003;6.361374e-002
3.403887e+003;6.350040e-002
3.405816e+003;6.403008e-002
3.407744e+003;6.460989e-002
3.409673e+003;6.414222e-002
3.411601e+003;6.399280e-002
3.413530e+003;6.463334e-002
3.415458e+003;6.491140e-002
3.417387e+003;6.469102e-002
3.419316e+003;6.464876e-002
3.421244e+003;6.472948e-002
3.423173e+003;6.490212e-002
3.425101e+003;6.516182e-002
3.427030e+003;6.557364e-002
3.428958e+003;6.616257e-002
3.430887e+003;6.660153e-002
3.432815e+003;6.671043e-002
3.434744e+003;6.674617e-002
3.436673e+003;6.656163e-002
3.438601e+003;6.698057e-002
3.440530e+003;6.738858e-002
3.442458e+003;6.764320e-002
3.444387e+003;6.793454e-002
3.446315e+003;6.808423e-002
3.448244e+003;6.809415e-002
3.450172e+003;6.842229e-002
3.452101e+003;6.912686e-002
3.454030e+003;6.950625e-002
3.455958e+003;6.958056e-002
3.457886e+003;6.961833e-002
3.459815e+003;6.966863e-002
3.461744e+003;6.982748e-002
3.463672e+003;7.019728e-002
3.465601e+003;7.068435e-002
3.467529e+003;7.077482e-002
3.469458e+003;7.052764e-002
3.471386e+003;7.098347e-002
3.473315e+003;7.115436e-002
3.475243e+003;7.113922e-002
3.477172e+003;7.131188e-002
3.479101e+003;7.113913e-002
3.481029e+003;7.105004e-002
3.482958e+003;7.131696e-002
3.484886e+003;7.161609e-002
3.486815e+003;7.163285e-002
3.488743e+003;7.149334e-002
3.490672e+003;7.118519e-002
3.492600e+003;7.090680e-002
3.494529e+003;7.105792e-002
3.496458e+003;7.133672e-002
3.498386e+003;7.140299e-002
3.500315e+003;7.124707e-002
3.502243e+003;7.078075e-002
3.504172e+003;7.063787e-002
3.506100e+003;7.077302e-002
3.508029e+003;7.093930e-002
3.509957e+003;7.047541e-002
3.511886e+003;6.996911e-002
3.513814e+003;6.996763e-002
3.515743e+003;6.964758e-002
3.517672e+003;6.936850e-002
3.519600e+003;6.941515e-002
3.521529e+003;6.967263e-002
3.523457e+003;6.979394e-002
3.525386e+003;6.950742e-002
3.527314e+003;6.902838e-002
3.529243e+003;6.850076e-002
3.531171e+003;6.811566e-002
3.533100e+003;6.795150e-002
3.535029e+003;6.757602e-002
3.536957e+003;6.691899e-002
3.538885e+003;6.665105e-002
3.540814e+003;6.724972e-002
3.542743e+003;6.765400e-002
3.544671e+003;6.698184e-002
3.546600e+003;6.605674e-002
3.548528e+003;6.537319e-002
3.550457e+003;6.491497e-002
3.552385e+003;6.475990e-002
3.554314e+003;6.441960e-002
3.556242e+003;6.421293e-002
3.558171e+003;6.418804e-002
3.560100e+003;6.401814e-002
3.562028e+003;6.373920e-002
3.563957e+003;6.314319e-002
3.565885e+003;6.213075e-002
3.567814e+003;6.168178e-002
3.569742e+003;6.211852e-002
3.571671e+003;6.190636e-002
3.573599e+003;6.095174e-002
3.575528e+003;6.023726e-002
3.577457e+003;5.987573e-002
3.579385e+003;5.956383e-002
3.581314e+003;5.929958e-002
3.583242e+003;5.922017e-002
3.585171e+003;5.871927e-002
3.587099e+003;5.773327e-002
3.589028e+003;5.754175e-002
3.590956e+003;5.752454e-002
3.592885e+003;5.692589e-002
3.594813e+003;5.628510e-002
3.596742e+003;5.580674e-002
3.598671e+003;5.545637e-002
3.600599e+003;5.504975e-002
3.602528e+003;5.467158e-002
3.604456e+003;5.431908e-002
3.606385e+003;5.416974e-002
3.608313e+003;5.357820e-002
3.610242e+003;5.274545e-002
3.612170e+003;5.205271e-002
3.614099e+003;5.155694e-002
3.616028e+003;5.117677e-002
3.617956e+003;5.092246e-002
3.619885e+003;5.088915e-002
3.621813e+003;5.078202e-002
3.623742e+003;5.035073e-002
3.625670e+003;4.980146e-002
3.627599e+003;4.901286e-002
3.629527e+003;4.858165e-002
3.631456e+003;4.854411e-002
3.633385e+003;4.826616e-002
3.635313e+003;4.786699e-002
3.637241e+003;4.728970e-002
3.639170e+003;4.662783e-002
3.641099e+003;4.636195e-002
3.643027e+003;4.620724e-002
3.644956e+003;4.563870e-002
3.646884e+003;4.466452e-002
3.648813e+003;4.403397e-002
3.650741e+003;4.374489e-002
3.652670e+003;4.348387e-002
3.654598e+003;4.285777e-002
3.656527e+003;4.238023e-002
3.658456e+003;4.214124e-002
3.660384e+003;4.136023e-002
3.662313e+003;4.042199e-002
3.664241e+003;3.980475e-002
3.666170e+003;3.937786e-002
3.668098e+003;3.853274e-002
3.670027e+003;3.745265e-002
3.671955e+003;3.676410e-002
3.673884e+003;3.620223e-002
3.675813e+003;3.569055e-002
3.677741e+003;3.557711e-002
3.679669e+003;3.485874e-002
3.681598e+003;3.437984e-002
3.683527e+003;3.424720e-002
3.685455e+003;3.362492e-002
3.687384e+003;3.301594e-002
3.689312e+003;3.307147e-002
3.691241e+003;3.329450e-002
3.693169e+003;3.296965e-002
3.695098e+003;3.266926e-002
3.697026e+003;3.261296e-002
3.698955e+003;3.273560e-002
3.700884e+003;3.220176e-002
3.702812e+003;3.165396e-002
3.704741e+003;3.166244e-002
3.706669e+003;3.168486e-002
3.708598e+003;3.143558e-002
3.710526e+003;3.122934e-002
3.712455e+003;3.117195e-002
3.714383e+003;3.128874e-002
3.716312e+003;3.126765e-002
3.718240e+003;3.106588e-002
3.720169e+003;3.095022e-002
3.722098e+003;3.082250e-002
3.724026e+003;3.063238e-002
3.725955e+003;3.058787e-002
3.727883e+003;3.067349e-002
3.729812e+003;3.031613e-002
3.731740e+003;2.997340e-002
3.733669e+003;2.998987e-002
3.735597e+003;3.031179e-002
3.737526e+003;3.069724e-002
3.739455e+003;3.064703e-002
3.741383e+003;3.033155e-002
3.743312e+003;2.988118e-002
3.745240e+003;2.968182e-002
3.747169e+003;2.943188e-002
3.749097e+003;2.899232e-002
3.751026e+003;2.892269e-002
3.752954e+003;2.918715e-002
3.754883e+003;2.946255e-002
3.756812e+003;2.944624e-002
3.758740e+003;2.967387e-002
3.760668e+003;3.021683e-002
3.762597e+003;3.042255e-002
3.764526e+003;3.009068e-002
3.766454e+003;2.995427e-002
3.768383e+003;2.959196e-002
3.770311e+003;2.879681e-002
3.772240e+003;2.905329e-002
3.774168e+003;2.973706e-002
3.776097e+003;3.001533e-002
3.778025e+003;2.988324e-002
3.779954e+003;2.973773e-002
3.781883e+003;2.994379e-002
3.783811e+003;2.991312e-002
3.785740e+003;2.974458e-002
3.787668e+003;2.961339e-002
3.789597e+003;2.982411e-002
3.791525e+003;3.029911e-002
3.793454e+003;3.042898e-002
3.795382e+003;3.043055e-002
3.797311e+003;3.033638e-002
3.799240e+003;2.992125e-002
3.801168e+003;2.959913e-002
3.803097e+003;2.989062e-002
3.805025e+003;2.974852e-002
3.806954e+003;2.946078e-002
3.808882e+003;2.967674e-002
3.810811e+003;3.015162e-002
3.812739e+003;3.019833e-002
3.814668e+003;2.961874e-002
3.816596e+003;2.959679e-002
3.818525e+003;2.985669e-002
3.820454e+003;2.979660e-002
3.822382e+003;3.013770e-002
3.824311e+003;3.047401e-002
3.826239e+003;3.032877e-002
3.828168e+003;3.014249e-002
3.830096e+003;3.039881e-002
3.832025e+003;3.031776e-002
3.833953e+003;3.009153e-002
3.835882e+003;3.019666e-002
3.837811e+003;3.025370e-002
3.839739e+003;3.042529e-002
3.841667e+003;3.065208e-002
3.843596e+003;3.061621e-002
3.845525e+003;3.022877e-002
3.847453e+003;2.988700e-002
3.849382e+003;3.005879e-002
3.851310e+003;2.984998e-002
3.853239e+003;2.969615e-002
3.855167e+003;3.034757e-002
3.857096e+003;3.050629e-002
3.859024e+003;3.020891e-002
3.860953e+003;3.046655e-002
3.862882e+003;3.099093e-002
3.864810e+003;3.095328e-002
3.866739e+003;3.093154e-002
3.868667e+003;3.083944e-002
3.870596e+003;3.083310e-002
3.872524e+003;3.078078e-002
3.874453e+003;3.062413e-002
3.876381e+003;3.073096e-002
3.878310e+003;3.098823e-002
3.880239e+003;3.123675e-002
3.882167e+003;3.089415e-002
3.884096e+003;3.090433e-002
3.886024e+003;3.156893e-002
3.887953e+003;3.174028e-002
3.889881e+003;3.107890e-002
3.891810e+003;3.115394e-002
3.893738e+003;3.174948e-002
3.895667e+003;3.185568e-002
3.897595e+003;3.167705e-002
3.899524e+003;3.169163e-002
3.901453e+003;3.215619e-002
3.903381e+003;3.246590e-002
3.905310e+003;3.255835e-002
3.907238e+003;3.272020e-002
3.909167e+003;3.266429e-002
3.911095e+003;3.255217e-002
3.913024e+003;3.277408e-002
3.914952e+003;3.259939e-002
3.916881e+003;3.257285e-002
3.918810e+003;3.294827e-002
3.920738e+003;3.311169e-002
3.922667e+003;3.289751e-002
3.924595e+003;3.295081e-002
3.926524e+003;3.305941e-002
3.928452e+003;3.333624e-002
3.930381e+003;3.365586e-002
3.932309e+003;3.395145e-002
3.934238e+003;3.398770e-002
3.936167e+003;3.412234e-002
3.938095e+003;3.416833e-002
3.940023e+003;3.414009e-002
3.941952e+003;3.407453e-002
3.943881e+003;3.411321e-002
3.945809e+003;3.435617e-002
3.947738e+003;3.448142e-002
3.949666e+003;3.468310e-002
3.951595e+003;3.462278e-002
3.953523e+003;3.412915e-002
3.955452e+003;3.431411e-002
3.957380e+003;3.454969e-002
3.959309e+003;3.466957e-002
3.961238e+003;3.515989e-002
3.963166e+003;3.560797e-002
3.965095e+003;3.592098e-002
3.967023e+003;3.636339e-002
3.968952e+003;3.690130e-002
3.970880e+003;3.665726e-002
3.972809e+003;3.668509e-002
3.974737e+003;3.706557e-002
3.976666e+003;3.678148e-002
3.978594e+003;3.654807e-002
3.980523e+003;3.673925e-002
3.982452e+003;3.679165e-002
3.984380e+003;3.657810e-002
3.986309e+003;3.670110e-002
3.988237e+003;3.720149e-002
3.990166e+003;3.720253e-002
3.992094e+003;3.666462e-002
3.994023e+003;3.646403e-002
3.995951e+003;3.640648e-002
3.997880e+003;3.633943e-002
3.999809e+003;3.633608e-002
4.001737e+003;0.000000e+000
