3.992094e+002;0.000000e+000
4.011380e+002;0.000000e+000
4.030665e+002;0.000000e+000
4.049951e+002;0.000000e+000
4.069236e+002;0.000000e+000
4.088522e+002;0.000000e+000
4.107807e+002;0.000000e+000
4.127093e+002;0.000000e+000
4.146378e+002;0.000000e+000
4.165664e+002;0.000000e+000
4.184949e+002;0.000000e+000
4.204235e+002;0.000000e+000
4.223520e+002;0.000000e+000
4.242806e+002;0.000000e+000
4.262091e+002;0.000000e+000
4.281377e+002;0.000000e+000
4.300662e+002;0.000000e+000
4.319948e+002;0.000000e+000
4.339233e+002;0.000000e+000
4.358519e+002;0.000000e+000
4.377804e+002;0.000000e+000
4.397090e+002;0.000000e+000
4.416375e+002;0.000000e+000
4.435660e+002;0.000000e+000
4.454946e+002;0.000000e+000
4.474232e+002;0.000000e+000
4.493517e+002;0.000000e+000
4.512802e+002;0.000000e+000
4.532088e+002;0.000000e+000
4.551373e+002;0.000000e+000
4.570659e+002;0.000000e+000
4.589944e+002;0.000000e+000
4.609230e+002;0.000000e+000
4.628515e+002;0.000000e+000
4.647801e+002;0.000000e+000
4.667086e+002;0.000000e+000
4.686372e+002;0.000000e+000
4.705657e+002;0.000000e+000
4.724943e+002;0.000000e+000
4.744228e+002;0.000000e+000
4.763513e+002;0.000000e+000
4.782799e+002;0.000000e+000
4.802085e+002;0.000000e+000
4.821370e+002;0.000000e+000
4.840656e+002;0.000000e+000
4.859941e+002;0.000000e+000
4.879226e+002;0.000000e+000
4.898512e+002;0.000000e+000
4.917798e+002;0.000000e+000
4.937083e+002;0.000000e+000
4.956368e+002;0.000000e+000
4.975654e+002;0.000000e+000
4.994939e+002;0.000000e+000
5.014225e+002;0.000000e+000
5.033510e+002;0.000000e+000
5.052796e+002;0.000000e+000
5.072081e+002;0.000000e+000
5.091367e+002;0.000000e+000
5.110652e+002;0.000000e+000
5.129938e+002;0.000000e+000
5.149223e+002;0.000000e+000
5.168509e+002;0.000000e+000
5.187794e+002;0.000000e+000
5.207079e+002;0.000000e+000
5.226365e+002;0.000000e+000
5.245651e+002;0.000000e+000
5.264936e+002;0.000000e+000
5.284222e+002;0.000000e+000
5.303507e+002;0.000000e+000
5.322792e+002;0.000000e+000
5.342078e+002;0.000000e+000
5.361364e+002;0.000000e+000
5.380649e+002;0.000000e+000
5.399935e+002;0.000000e+000
5.419220e+002;0.000000e+000
5.438505e+002;0.000000e+000
5.457791e+002;0.000000e+000
5.477076e+002;0.000000e+000
5.496362e+002;0.000000e+000
5.515648e+002;0.000000e+000
5.534933e+002;0.000000e+000
5.554218e+002;0.000000e+000
5.573504e+002;0.000000e+000
5.592789e+002;0.000000e+000
5.612075e+002;0.000000e+000
5.631360e+002;0.000000e+000
5.650646e+002;0.000000e+000
5.669931e+002;0.000000e+000
5.689217e+002;0.000000e+000
5.708502e+002;0.000000e+000
5.727787e+002;0.000000e+000
5.747073e+002;0.000000e+000
5.766359e+002;0.000000e+000
5.785644e+002;0.000000e+000
5.804930e+002;0.000000e+000
5.824215e+002;0.000000e+000
5.843500e+002;0.000000e+000
5.862786e+002;0.000000e+000
5.882072e+002;0.000000e+000
5.901357e+002;0.000000e+000
5.920643e+002;0.000000e+000
5.939928e+002;0.000000e+000
5.959213e+002;0.000000e+000
5.978499e+002;0.000000e+000
5.997784e+002;1.956739e-001
6.017070e+002;1.917404e-001
6.036355e+002;1.868426e-001
6.055641e+002;1.832791e-001
6.074926e+002;1.750477e-001
6.094211e+002;1.623065e-001
6.113497e+002;1.565871e-001
6.132783e+002;1.556064e-001
6.152068e+002;1.532281e-001
6.171354e+002;1.521377e-001
6.190639e+002;1.519189e-001
6.209924e+002;1.498649e-001
6.229210e+002;1.475142e-001
6.248495e+002;1.439641e-001
6.267781e+002;1.433890e-001
6.287067e+002;1.437515e-001
6.306352e+002;1.381840e-001
6.325637e+002;1.314450e-001
6.344923e+002;1.274734e-001
6.364208e+002;1.266955e-001
6.383494e+002;1.297408e-001
6.402780e+002;1.329265e-001
6.422065e+002;1.329655e-001
6.441350e+002;1.284685e-001
6.460636e+002;1.258482e-001
6.479921e+002;1.250979e-001
6.499207e+002;1.227539e-001
6.518492e+002;1.216388e-001
6.537778e+002;1.219228e-001
6.557063e+002;1.223605e-001
6.576349e+002;1.215604e-001
6.595634e+002;1.190027e-001
6.614919e+002;1.162315e-001
6.634205e+002;1.137770e-001
6.653491e+002;1.118650e-001
6.672776e+002;1.117796e-001
6.692062e+002;1.130962e-001
6.711347e+002;1.132779e-001
6.730632e+002;1.133090e-001
6.749918e+002;1.141623e-001
6.769203e+002;1.153196e-001
6.788489e+002;1.163899e-001
6.807775e+002;1.157740e-001
6.827060e+002;1.155382e-001
6.846345e+002;1.159970e-001
6.865631e+002;1.159244e-001
6.884916e+002;1.151039e-001
6.904202e+002;1.145914e-001
6.923488e+002;1.138688e-001
6.942773e+002;1.133882e-001
6.962058e+002;1.123452e-001
6.981344e+002;1.103491e-001
7.000629e+002;1.087557e-001
7.019915e+002;1.075471e-001
7.039200e+002;1.068896e-001
7.058486e+002;1.064285e-001
7.077771e+002;1.057861e-001
7.097057e+002;1.042316e-001
7.116342e+002;1.026242e-001
7.135627e+002;1.024630e-001
7.154913e+002;1.031600e-001
7.174199e+002;1.027914e-001
7.193484e+002;1.017313e-001
7.212770e+002;1.012395e-001
7.232055e+002;1.007781e-001
7.251340e+002;9.976009e-002
7.270626e+002;9.925647e-002
7.289911e+002;9.853210e-002
7.309197e+002;9.651925e-002
7.328483e+002;9.392555e-002
7.347768e+002;9.122219e-002
7.367053e+002;8.953767e-002
7.386339e+002;8.871634e-002
7.405624e+002;8.765712e-002
7.424910e+002;8.676436e-002
7.444196e+002;8.616877e-002
7.463481e+002;8.561557e-002
7.482766e+002;8.562295e-002
7.502052e+002;8.548976e-002
7.521337e+002;8.463618e-002
7.540623e+002;8.486853e-002
7.559908e+002;8.531576e-002
7.579194e+002;8.517641e-002
7.598479e+002;8.468007e-002
7.617765e+002;8.370955e-002
7.637050e+002;8.324389e-002
7.656335e+002;8.374760e-002
7.675621e+002;8.403615e-002
7.694907e+002;8.390991e-002
7.714192e+002;8.400511e-002
7.733478e+002;8.407073e-002
7.752763e+002;8.408758e-002
7.772048e+002;8.449496e-002
7.791334e+002;8.483332e-002
7.810620e+002;8.523068e-002
7.829905e+002;8.524076e-002
7.849191e+002;8.566403e-002
7.868476e+002;8.606926e-002
7.887761e+002;8.564470e-002
7.907047e+002;8.620878e-002
7.926332e+002;8.761066e-002
7.945618e+002;8.807477e-002
7.964903e+002;8.848181e-002
7.984189e+002;8.954031e-002
8.003474e+002;9.066276e-002
8.022759e+002;9.169746e-002
8.042045e+002;9.300895e-002
8.061331e+002;9.426323e-002
8.080616e+002;9.490994e-002
8.099902e+002;9.549373e-002
8.119187e+002;9.666481e-002
8.138472e+002;9.792240e-002
8.157758e+002;9.989565e-002
8.177043e+002;1.015191e-001
8.196329e+002;1.032329e-001
8.215615e+002;1.055807e-001
8.234900e+002;1.084075e-001
8.254185e+002;1.123403e-001
8.273471e+002;1.162406e-001
8.292756e+002;1.197337e-001
8.312042e+002;1.243100e-001
8.331328e+002;1.288361e-001
8.350613e+002;1.318475e-001
8.369898e+002;1.335971e-001
8.389184e+002;1.346912e-001
8.408469e+002;1.347530e-001
8.427755e+002;1.328193e-001
8.447040e+002;1.307726e-001
8.466326e+002;1.292639e-001
8.485611e+002;1.267328e-001
8.504897e+002;1.242186e-001
8.524182e+002;1.222196e-001
8.543467e+002;1.212517e-001
8.562753e+002;1.219679e-001
8.582039e+002;1.236875e-001
8.601324e+002;1.257882e-001
8.620610e+002;1.285309e-001
8.639895e+002;1.321013e-001
8.659180e+002;1.366720e-001
8.678466e+002;1.415899e-001
8.697751e+002;1.467656e-001
8.717037e+002;1.524078e-001
8.736323e+002;1.575810e-001
8.755608e+002;1.611778e-001
8.774893e+002;1.636566e-001
8.794179e+002;1.658624e-001
8.813464e+002;1.687166e-001
8.832750e+002;1.720614e-001
8.852036e+002;1.750616e-001
8.871321e+002;1.783955e-001
8.890606e+002;1.827434e-001
8.909892e+002;1.879478e-001
8.929177e+002;1.929744e-001
8.948463e+002;1.975046e-001
8.967748e+002;2.009186e-001
8.987034e+002;2.018583e-001
9.006319e+002;2.006734e-001
9.025605e+002;1.979093e-001
9.044890e+002;1.936200e-001
9.064175e+002;1.889426e-001
9.083461e+002;1.839539e-001
9.102747e+002;1.786621e-001
9.122032e+002;1.740537e-001
9.141318e+002;1.703497e-001
9.160603e+002;1.671930e-001
9.179888e+002;1.649659e-001
9.199174e+002;1.632367e-001
9.218459e+002;1.613360e-001
9.237745e+002;1.596738e-001
9.257031e+002;1.585552e-001
9.276316e+002;1.576008e-001
9.295601e+002;1.569971e-001
9.314887e+002;1.569294e-001
9.334172e+002;1.571379e-001
9.353458e+002;1.576346e-001
9.372744e+002;1.586266e-001
9.392029e+002;1.597016e-001
9.411314e+002;1.608100e-001
9.430600e+002;1.627961e-001
9.449885e+002;1.649647e-001
9.469171e+002;1.667626e-001
9.488456e+002;1.687155e-001
9.507742e+002;1.705946e-001
9.527027e+002;1.720682e-001
9.546313e+002;1.740058e-001
9.565598e+002;1.758317e-001
9.584883e+002;1.773248e-001
9.604169e+002;1.796681e-001
9.623455e+002;1.826898e-001
9.642740e+002;1.860710e-001
9.662026e+002;1.900336e-001
9.681311e+002;1.948721e-001
9.700596e+002;2.008191e-001
9.719882e+002;2.073215e-001
9.739167e+002;2.131268e-001
9.758453e+002;2.186248e-001
9.777739e+002;2.246340e-001
9.797024e+002;2.303216e-001
9.816309e+002;2.356568e-001
9.835595e+002;2.405319e-001
9.854880e+002;2.447105e-001
9.874166e+002;2.486357e-001
9.893452e+002;2.521273e-001
9.912737e+002;2.554041e-001
9.932022e+002;2.596878e-001
9.951307e+002;2.640124e-001
9.970593e+002;2.687046e-001
9.989879e+002;2.745446e-001
1.000916e+003;2.812732e-001
1.002845e+003;2.893019e-001
1.004773e+003;2.982023e-001
1.006702e+003;3.077546e-001
1.008631e+003;3.189967e-001
1.010559e+003;3.311612e-001
1.012488e+003;3.433865e-001
1.014416e+003;3.564279e-001
1.016345e+003;3.699559e-001
1.018273e+003;3.838839e-001
1.020202e+003;3.985890e-001
1.022130e+003;4.130944e-001
1.024059e+003;4.268284e-001
1.025988e+003;4.384388e-001
1.027916e+003;4.481438e-001
1.029845e+003;4.568568e-001
1.031773e+003;4.619372e-001
1.033702e+003;4.635478e-001
1.035630e+003;4.626652e-001
1.037559e+003;4.586918e-001
1.039487e+003;4.528169e-001
1.041416e+003;4.460251e-001
1.043344e+003;4.378909e-001
1.045273e+003;4.289507e-001
1.047202e+003;4.191281e-001
1.049130e+003;4.078459e-001
1.051059e+003;3.960875e-001
1.052987e+003;3.836488e-001
1.054916e+003;3.703181e-001
1.056844e+003;3.575430e-001
1.058773e+003;3.463867e-001
1.060701e+003;3.367950e-001
1.062630e+003;3.278186e-001
1.064558e+003;3.195989e-001
1.066487e+003;3.127608e-001
1.068416e+003;3.061990e-001
1.070344e+003;2.990170e-001
1.072273e+003;2.919402e-001
1.074201e+003;2.843961e-001
1.076130e+003;2.765124e-001
1.078058e+003;2.688231e-001
1.079987e+003;2.610548e-001
1.081915e+003;2.539273e-001
1.083844e+003;2.469048e-001
1.085773e+003;2.392343e-001
1.087701e+003;2.321950e-001
1.089630e+003;2.256754e-001
1.091558e+003;2.179981e-001
1.093487e+003;2.106747e-001
1.095415e+003;2.047174e-001
1.097344e+003;1.996049e-001
1.099272e+003;1.958814e-001
1.101201e+003;1.926061e-001
1.103129e+003;1.894935e-001
1.105058e+003;1.878032e-001
1.106987e+003;1.867021e-001
1.108915e+003;1.850471e-001
1.110844e+003;1.839343e-001
1.112772e+003;1.835955e-001
1.114701e+003;1.831630e-001
1.116629e+003;1.823508e-001
1.118558e+003;1.814593e-001
1.120486e+003;1.804081e-001
1.122415e+003;1.791611e-001
1.124344e+003;1.771757e-001
1.126272e+003;1.750792e-001
1.128201e+003;1.728609e-001
1.130129e+003;1.706038e-001
1.132058e+003;1.681084e-001
1.133986e+003;1.658034e-001
1.135915e+003;1.644640e-001
1.137843e+003;1.638453e-001
1.139772e+003;1.634655e-001
1.141700e+003;1.636315e-001
1.143629e+003;1.642420e-001
1.145557e+003;1.652565e-001
1.147486e+003;1.667013e-001
1.149415e+003;1.685064e-001
1.151343e+003;1.704570e-001
1.153272e+003;1.726738e-001
1.155200e+003;1.750866e-001
1.157129e+003;1.774649e-001
1.159057e+003;1.790704e-001
1.160986e+003;1.797641e-001
1.162914e+003;1.797946e-001
1.164843e+003;1.795667e-001
1.166771e+003;1.788943e-001
1.168700e+003;1.776962e-001
1.170629e+003;1.762238e-001
1.172557e+003;1.745779e-001
1.174486e+003;1.729602e-001
1.176414e+003;1.714015e-001
1.178343e+003;1.703891e-001
1.180271e+003;1.704823e-001
1.182200e+003;1.717959e-001
1.184128e+003;1.743147e-001
1.186057e+003;1.784219e-001
1.187986e+003;1.847154e-001
1.189914e+003;1.934676e-001
1.191843e+003;2.044859e-001
1.193771e+003;2.186317e-001
1.195700e+003;2.361169e-001
1.197628e+003;2.561327e-001
1.199557e+003;2.786329e-001
1.201485e+003;3.032433e-001
1.203414e+003;3.283789e-001
1.205343e+003;3.521851e-001
1.207271e+003;3.730661e-001
1.209200e+003;3.900570e-001
1.211128e+003;4.025607e-001
1.213057e+003;4.106716e-001
1.214985e+003;4.150731e-001
1.216914e+003;4.164242e-001
1.218842e+003;4.157715e-001
1.220771e+003;4.144535e-001
1.222699e+003;4.126422e-001
1.224628e+003;4.098055e-001
1.226557e+003;4.053694e-001
1.228485e+003;3.989446e-001
1.230414e+003;3.904461e-001
1.232342e+003;3.794565e-001
1.234271e+003;3.672814e-001
1.236199e+003;3.535948e-001
1.238128e+003;3.390297e-001
1.240056e+003;3.243269e-001
1.241985e+003;3.091026e-001
1.243913e+003;2.938236e-001
1.245842e+003;2.785747e-001
1.247771e+003;2.641125e-001
1.249699e+003;2.506108e-001
1.251628e+003;2.375943e-001
1.253556e+003;2.251361e-001
1.255485e+003;2.133747e-001
1.257413e+003;2.020870e-001
1.259342e+003;1.913731e-001
1.261270e+003;1.814998e-001
1.263199e+003;1.722871e-001
1.265127e+003;1.637981e-001
1.267056e+003;1.560557e-001
1.268985e+003;1.489050e-001
1.270913e+003;1.423103e-001
1.272842e+003;1.363866e-001
1.274770e+003;1.310843e-001
1.276699e+003;1.259974e-001
1.278627e+003;1.215355e-001
1.280556e+003;1.177349e-001
1.282484e+003;1.141827e-001
1.284413e+003;1.111923e-001
1.286342e+003;1.087072e-001
1.288270e+003;1.062255e-001
1.290199e+003;1.037824e-001
1.292127e+003;1.018679e-001
1.294056e+003;9.994799e-002
1.295984e+003;9.799805e-002
1.297913e+003;9.651519e-002
1.299841e+003;9.541303e-002
1.301770e+003;9.424537e-002
1.303698e+003;9.353948e-002
1.305627e+003;9.322651e-002
1.307556e+003;9.286855e-002
1.309484e+003;9.261873e-002
1.311413e+003;9.260507e-002
1.313341e+003;9.276392e-002
1.315270e+003;9.290753e-002
1.317198e+003;9.297710e-002
1.319127e+003;9.283129e-002
1.321055e+003;9.277061e-002
1.322984e+003;9.255820e-002
1.324912e+003;9.232031e-002
1.326841e+003;9.211902e-002
1.328770e+003;9.151809e-002
1.330698e+003;9.106737e-002
1.332627e+003;9.104539e-002
1.334555e+003;9.094802e-002
1.336484e+003;9.084688e-002
1.338412e+003;9.077313e-002
1.340341e+003;9.106737e-002
1.342269e+003;9.187359e-002
1.344198e+003;9.288361e-002
1.346126e+003;9.477308e-002
1.348055e+003;9.816487e-002
1.349984e+003;1.028871e-001
1.351912e+003;1.098413e-001
1.353841e+003;1.197265e-001
1.355769e+003;1.329113e-001
1.357698e+003;1.488567e-001
1.359626e+003;1.657128e-001
1.361555e+003;1.813234e-001
1.363483e+003;1.931015e-001
1.365412e+003;1.994142e-001
1.367341e+003;2.002072e-001
1.369269e+003;1.966177e-001
1.371198e+003;1.902826e-001
1.373126e+003;1.820715e-001
1.375055e+003;1.732791e-001
1.376983e+003;1.647065e-001
1.378912e+003;1.557820e-001
1.380840e+003;1.464853e-001
1.382769e+003;1.372692e-001
1.384698e+003;1.282194e-001
1.386626e+003;1.195592e-001
1.388555e+003;1.119403e-001
1.390483e+003;1.055537e-001
1.392412e+003;1.001018e-001
1.394340e+003;9.578554e-002
1.396269e+003;9.276872e-002
1.398197e+003;9.077035e-002
1.400126e+003;8.938353e-002
1.402054e+003;8.855969e-002
1.403983e+003;8.854596e-002
1.405911e+003;8.876169e-002
1.407840e+003;8.898808e-002
1.409769e+003;8.931783e-002
1.411697e+003;9.000302e-002
1.413626e+003;9.095934e-002
1.415554e+003;9.218059e-002
1.417483e+003;9.335400e-002
1.419411e+003;9.486182e-002
1.421340e+003;9.732845e-002
1.423268e+003;9.988126e-002
1.425197e+003;1.021443e-001
1.427125e+003;1.039553e-001
1.429054e+003;1.048410e-001
1.430983e+003;1.051001e-001
1.432911e+003;1.048608e-001
1.434840e+003;1.036504e-001
1.436768e+003;1.017656e-001
1.438697e+003;1.000738e-001
1.440625e+003;9.811112e-002
1.442554e+003;9.606034e-002
1.444482e+003;9.382483e-002
1.446411e+003;9.137805e-002
1.448340e+003;8.912142e-002
1.450268e+003;8.710048e-002
1.452197e+003;8.520592e-002
1.454125e+003;8.316155e-002
1.456054e+003;8.065588e-002
1.457982e+003;7.881797e-002
1.459911e+003;7.774871e-002
1.461839e+003;7.623507e-002
1.463768e+003;7.419969e-002
1.465697e+003;7.205691e-002
1.467625e+003;7.023627e-002
1.469554e+003;6.855434e-002
1.471482e+003;6.679033e-002
1.473411e+003;6.534146e-002
1.475339e+003;6.419376e-002
1.477268e+003;6.338613e-002
1.479196e+003;6.260790e-002
1.481125e+003;6.171554e-002
1.483053e+003;6.115095e-002
1.484982e+003;6.063712e-002
1.486911e+003;5.988596e-002
1.488839e+003;5.904898e-002
1.490768e+003;5.851229e-002
1.492696e+003;5.838200e-002
1.494625e+003;5.806553e-002
1.496553e+003;5.768245e-002
1.498482e+003;5.775746e-002
1.500410e+003;5.797752e-002
1.502339e+003;5.785159e-002
1.504267e+003;5.709334e-002
1.506196e+003;5.618734e-002
1.508125e+003;5.646041e-002
1.510053e+003;5.691527e-002
1.511982e+003;5.702324e-002
1.513910e+003;5.706858e-002
1.515839e+003;5.696117e-002
1.517767e+003;5.689548e-002
1.519696e+003;5.650924e-002
1.521624e+003;5.621928e-002
1.523553e+003;5.661847e-002
1.525481e+003;5.685333e-002
1.527410e+003;5.698890e-002
1.529339e+003;5.714258e-002
1.531267e+003;5.701780e-002
1.533196e+003;5.695070e-002
1.535124e+003;5.720615e-002
1.537053e+003;5.660681e-002
1.538981e+003;5.531390e-002
1.540910e+003;5.524609e-002
1.542838e+003;5.591218e-002
1.544767e+003;5.639759e-002
1.546695e+003;5.691229e-002
1.548624e+003;5.708053e-002
1.550553e+003;5.697454e-002
1.552481e+003;5.697016e-002
1.554410e+003;5.693624e-002
1.556338e+003;5.660556e-002
1.558267e+003;5.575532e-002
1.560195e+003;5.602141e-002
1.562124e+003;5.694549e-002
1.564052e+003;5.708710e-002
1.565981e+003;5.703050e-002
1.567910e+003;5.670942e-002
1.569838e+003;5.642490e-002
1.571767e+003;5.679015e-002
1.573695e+003;5.691021e-002
1.575624e+003;5.641366e-002
1.577552e+003;5.664422e-002
1.579481e+003;5.735726e-002
1.581409e+003;5.763765e-002
1.583338e+003;5.782146e-002
1.585266e+003;5.805534e-002
1.587195e+003;5.833334e-002
1.589124e+003;5.871385e-002
1.591052e+003;5.910763e-002
1.592981e+003;5.930919e-002
1.594909e+003;5.953510e-002
1.596838e+003;6.004120e-002
1.598766e+003;6.078104e-002
1.600695e+003;6.134935e-002
1.602623e+003;6.178628e-002
1.604552e+003;6.250182e-002
1.606480e+003;6.302749e-002
1.608409e+003;6.338030e-002
1.610338e+003;6.366480e-002
1.612266e+003;6.400140e-002
1.614195e+003;6.417544e-002
1.616123e+003;6.415612e-002
1.618052e+003;6.485480e-002
1.619980e+003;6.579450e-002
1.621909e+003;6.620085e-002
1.623837e+003;6.654085e-002
1.625766e+003;6.723642e-002
1.627694e+003;6.792112e-002
1.629623e+003;6.875207e-002
1.631552e+003;6.949777e-002
1.633480e+003;6.965972e-002
1.635409e+003;6.972133e-002
1.637337e+003;7.078815e-002
1.639266e+003;7.188614e-002
1.641194e+003;7.229628e-002
1.643123e+003;7.274230e-002
1.645051e+003;7.302940e-002
1.646980e+003;7.325843e-002
1.648909e+003;7.392117e-002
1.650837e+003;7.365837e-002
1.652766e+003;7.291224e-002
1.654694e+003;7.397062e-002
1.656623e+003;7.518388e-002
1.658551e+003;7.562460e-002
1.660480e+003;7.583910e-002
1.662408e+003;7.620376e-002
1.664337e+003;7.672773e-002
1.666266e+003;7.728805e-002
1.668194e+003;7.770555e-002
1.670123e+003;7.830392e-002
1.672051e+003;7.944409e-002
1.673980e+003;8.040828e-002
1.675908e+003;8.140881e-002
1.677837e+003;8.299096e-002
1.679765e+003;8.464806e-002
1.681694e+003;8.619807e-002
1.683622e+003;8.742831e-002
1.685551e+003;8.969650e-002
1.687479e+003;9.279548e-002
1.689408e+003;9.570754e-002
1.691337e+003;9.870536e-002
1.693265e+003;1.019312e-001
1.695194e+003;1.051907e-001
1.697122e+003;1.095602e-001
1.699051e+003;1.145038e-001
1.700979e+003;1.200177e-001
1.702908e+003;1.265347e-001
1.704836e+003;1.332153e-001
1.706765e+003;1.405826e-001
1.708693e+003;1.488596e-001
1.710622e+003;1.579067e-001
1.712551e+003;1.677331e-001
1.714479e+003;1.785711e-001
1.716408e+003;1.901714e-001
1.718336e+003;2.029990e-001
1.720265e+003;2.167441e-001
1.722193e+003;2.305221e-001
1.724122e+003;2.445745e-001
1.726050e+003;2.581545e-001
1.727979e+003;2.707784e-001
1.729908e+003;2.818968e-001
1.731836e+003;2.908286e-001
1.733765e+003;2.975860e-001
1.735693e+003;3.024848e-001
1.737622e+003;3.043071e-001
1.739550e+003;3.027268e-001
1.741479e+003;2.988976e-001
1.743407e+003;2.932779e-001
1.745336e+003;2.858358e-001
1.747265e+003;2.767347e-001
1.749193e+003;2.660149e-001
1.751122e+003;2.541884e-001
1.753050e+003;2.414841e-001
1.754979e+003;2.272739e-001
1.756907e+003;2.114847e-001
1.758836e+003;1.948973e-001
1.760764e+003;1.772789e-001
1.762693e+003;1.596844e-001
1.764621e+003;1.433945e-001
1.766550e+003;1.284252e-001
1.768479e+003;1.152398e-001
1.770407e+003;1.042780e-001
1.772336e+003;9.510985e-002
1.774264e+003;8.794131e-002
1.776193e+003;8.234853e-002
1.778121e+003;7.798877e-002
1.780050e+003;7.426290e-002
1.781978e+003;7.080168e-002
1.783907e+003;6.808609e-002
1.785835e+003;6.610308e-002
1.787764e+003;6.462454e-002
1.789693e+003;6.310013e-002
1.791621e+003;6.160926e-002
1.793550e+003;6.069126e-002
1.795478e+003;5.991776e-002
1.797407e+003;5.895830e-002
1.799335e+003;5.807628e-002
1.801264e+003;5.742639e-002
1.803192e+003;5.684887e-002
1.805121e+003;5.630950e-002
1.807049e+003;5.579894e-002
1.808978e+003;5.517065e-002
1.810907e+003;5.459327e-002
1.812835e+003;5.402292e-002
1.814764e+003;5.344249e-002
1.816692e+003;5.295569e-002
1.818621e+003;5.259643e-002
1.820549e+003;5.214326e-002
1.822478e+003;5.170222e-002
1.824406e+003;5.117684e-002
1.826335e+003;5.079663e-002
1.828264e+003;5.036156e-002
1.830192e+003;4.973524e-002
1.832121e+003;4.920303e-002
1.834049e+003;4.890560e-002
1.835978e+003;4.870480e-002
1.837906e+003;4.833996e-002
1.839835e+003;4.795497e-002
1.841763e+003;4.744194e-002
1.843692e+003;4.696333e-002
1.845620e+003;4.687374e-002
1.847549e+003;4.676383e-002
1.849478e+003;4.655783e-002
1.851406e+003;4.644380e-002
1.853335e+003;4.629850e-002
1.855263e+003;4.617949e-002
1.857192e+003;4.598548e-002
1.859120e+003;4.575352e-002
1.861049e+003;4.549526e-002
1.862977e+003;4.534263e-002
1.864906e+003;4.520671e-002
1.866834e+003;4.494441e-002
1.868763e+003;4.461543e-002
1.870692e+003;4.449670e-002
1.872620e+003;4.456865e-002
1.874549e+003;4.440042e-002
1.876477e+003;4.409763e-002
1.878406e+003;4.369077e-002
1.880334e+003;4.343900e-002
1.882263e+003;4.341799e-002
1.884191e+003;4.343640e-002
1.886120e+003;4.329035e-002
1.888048e+003;4.292598e-002
1.889977e+003;4.280822e-002
1.891906e+003;4.301820e-002
1.893834e+003;4.304530e-002
1.895763e+003;4.290538e-002
1.897691e+003;4.280752e-002
1.899620e+003;4.278368e-002
1.901548e+003;4.276470e-002
1.903477e+003;4.294573e-002
1.905405e+003;4.318703e-002
1.907334e+003;4.323794e-002
1.909262e+003;4.338320e-002
1.911191e+003;4.351613e-002
1.913120e+003;4.340990e-002
1.915048e+003;4.341652e-002
1.916977e+003;4.355628e-002
1.918905e+003;4.385066e-002
1.920834e+003;4.417983e-002
1.922762e+003;4.419956e-002
1.924691e+003;4.402994e-002
1.926619e+003;4.398854e-002
1.928548e+003;4.399110e-002
1.930477e+003;4.393963e-002
1.932405e+003;4.393937e-002
1.934334e+003;4.391730e-002
1.936262e+003;4.394300e-002
1.938191e+003;4.389153e-002
1.940119e+003;4.403320e-002
1.942048e+003;4.416879e-002
1.943976e+003;4.417884e-002
1.945905e+003;4.392053e-002
1.947833e+003;4.375577e-002
1.949762e+003;4.370483e-002
1.951691e+003;4.351785e-002
1.953619e+003;4.337848e-002
1.955548e+003;4.344494e-002
1.957476e+003;4.344985e-002
1.959405e+003;4.322597e-002
1.961333e+003;4.310085e-002
1.963262e+003;4.290114e-002
1.965190e+003;4.258723e-002
1.967119e+003;4.253025e-002
1.969047e+003;4.257385e-002
1.970976e+003;4.231153e-002
1.972905e+003;4.205940e-002
1.974833e+003;4.190801e-002
1.976762e+003;4.178308e-002
1.978690e+003;4.173095e-002
1.980619e+003;4.142353e-002
1.982547e+003;4.103490e-002
1.984476e+003;4.090192e-002
1.986404e+003;4.081386e-002
1.988333e+003;4.069056e-002
1.990261e+003;4.043370e-002
1.992190e+003;4.033734e-002
1.994119e+003;4.043061e-002
1.996047e+003;4.052859e-002
1.997976e+003;4.057664e-002
1.999904e+003;4.063020e-002
2.001833e+003;4.065297e-002
2.003761e+003;4.077386e-002
2.005690e+003;4.091699e-002
2.007618e+003;4.101731e-002
2.009547e+003;4.111579e-002
2.011476e+003;4.124857e-002
2.013404e+003;4.130538e-002
2.015333e+003;4.145988e-002
2.017261e+003;4.180285e-002
2.019190e+003;4.194048e-002
2.021118e+003;4.184922e-002
2.023047e+003;4.178957e-002
2.024975e+003;4.207122e-002
2.026904e+003;4.231879e-002
2.028833e+003;4.228059e-002
2.030761e+003;4.237625e-002
2.032690e+003;4.243171e-002
2.034618e+003;4.251812e-002
2.036547e+003;4.268493e-002
2.038475e+003;4.265602e-002
2.040404e+003;4.272716e-002
2.042332e+003;4.281981e-002
2.044261e+003;4.294390e-002
2.046189e+003;4.289928e-002
2.048118e+003;4.281008e-002
2.050047e+003;4.297312e-002
2.051975e+003;4.294884e-002
2.053904e+003;4.278302e-002
2.055832e+003;4.303316e-002
2.057761e+003;4.344439e-002
2.059689e+003;4.371546e-002
2.061618e+003;4.362998e-002
2.063546e+003;4.324185e-002
2.065475e+003;4.307648e-002
2.067404e+003;4.328827e-002
2.069332e+003;4.357617e-002
2.071260e+003;4.380422e-002
2.073189e+003;4.402821e-002
2.075118e+003;4.402542e-002
2.077046e+003;4.392907e-002
2.078975e+003;4.398850e-002
2.080903e+003;4.412162e-002
2.082832e+003;4.430038e-002
2.084760e+003;4.473419e-002
2.086689e+003;4.521392e-002
2.088617e+003;4.551881e-002
2.090546e+003;4.556716e-002
2.092475e+003;4.587219e-002
2.094403e+003;4.644472e-002
2.096332e+003;4.659556e-002
2.098260e+003;4.665919e-002
2.100189e+003;4.681420e-002
2.102117e+003;4.708381e-002
2.104046e+003;4.741814e-002
2.105974e+003;4.756211e-002
2.107903e+003;4.772609e-002
2.109832e+003;4.782766e-002
2.111760e+003;4.784257e-002
2.113688e+003;4.795315e-002
2.115617e+003;4.811507e-002
2.117546e+003;4.803349e-002
2.119474e+003;4.796004e-002
2.121403e+003;4.796485e-002
2.123331e+003;4.776393e-002
2.125260e+003;4.743717e-002
2.127188e+003;4.745964e-002
2.129117e+003;4.758636e-002
2.131045e+003;4.754980e-002
2.132974e+003;4.739910e-002
2.134903e+003;4.707853e-002
2.136831e+003;4.681524e-002
2.138760e+003;4.686960e-002
2.140688e+003;4.671826e-002
2.142617e+003;4.650811e-002
2.144545e+003;4.612834e-002
2.146474e+003;4.567831e-002
2.148402e+003;4.541638e-002
2.150331e+003;4.515005e-002
2.152260e+003;4.489028e-002
2.154188e+003;4.461921e-002
2.156117e+003;4.443019e-002
2.158045e+003;4.442317e-002
2.159974e+003;4.430875e-002
2.161902e+003;4.403078e-002
2.163831e+003;4.336493e-002
2.165759e+003;4.294862e-002
2.167688e+003;4.299866e-002
2.169616e+003;4.289595e-002
2.171545e+003;4.258522e-002
2.173474e+003;4.226229e-002
2.175402e+003;4.206743e-002
2.177331e+003;4.186247e-002
2.179259e+003;4.164626e-002
2.181188e+003;4.135140e-002
2.183116e+003;4.121739e-002
2.185045e+003;4.108869e-002
2.186973e+003;4.082245e-002
2.188902e+003;4.056518e-002
2.190831e+003;4.023997e-002
2.192759e+003;4.003555e-002
2.194688e+003;3.992442e-002
2.196616e+003;4.007705e-002
2.198545e+003;4.018589e-002
2.200473e+003;4.018869e-002
2.202402e+003;4.015830e-002
2.204330e+003;4.008475e-002
2.206259e+003;3.990567e-002
2.208188e+003;3.993325e-002
2.210116e+003;3.998247e-002
2.212044e+003;3.991719e-002
2.213973e+003;3.963730e-002
2.215902e+003;3.950094e-002
2.217830e+003;3.939045e-002
2.219759e+003;3.923096e-002
2.221687e+003;3.928406e-002
2.223616e+003;3.934757e-002
2.225544e+003;3.920017e-002
2.227473e+003;3.906804e-002
2.229401e+003;3.904231e-002
2.231330e+003;3.907518e-002
2.233259e+003;3.910078e-002
2.235187e+003;3.899801e-002
2.237116e+003;3.905391e-002
2.239044e+003;3.927082e-002
2.240973e+003;3.929690e-002
2.242901e+003;3.933974e-002
2.244830e+003;3.928819e-002
2.246758e+003;3.933346e-002
2.248687e+003;3.932363e-002
2.250615e+003;3.916289e-002
2.252544e+003;3.916155e-002
2.254473e+003;3.917700e-002
2.256401e+003;3.904096e-002
2.258330e+003;3.893672e-002
2.260258e+003;3.895162e-002
2.262187e+003;3.898416e-002
2.264115e+003;3.885134e-002
2.266044e+003;3.863453e-002
2.267972e+003;3.848502e-002
2.269901e+003;3.852046e-002
2.271830e+003;3.849874e-002
2.273758e+003;3.827758e-002
2.275687e+003;3.814639e-002
2.277615e+003;3.819588e-002
2.279544e+003;3.809585e-002
2.281472e+003;3.785172e-002
2.283401e+003;3.765666e-002
2.285329e+003;3.759469e-002
2.287258e+003;3.749574e-002
2.289187e+003;3.723578e-002
2.291115e+003;3.704117e-002
2.293043e+003;3.668488e-002
2.294972e+003;3.636054e-002
2.296901e+003;3.619906e-002
2.298829e+003;3.615938e-002
2.300758e+003;3.614710e-002
2.302686e+003;3.606662e-002
2.304615e+003;3.586667e-002
2.306543e+003;3.558060e-002
2.308472e+003;3.545845e-002
2.310400e+003;3.559383e-002
2.312329e+003;3.570293e-002
2.314258e+003;3.569401e-002
2.316186e+003;3.552497e-002
2.318115e+003;3.507601e-002
2.320043e+003;3.506444e-002
2.321972e+003;3.520491e-002
2.323900e+003;3.540197e-002
2.325829e+003;3.554514e-002
2.327757e+003;3.534000e-002
2.329686e+003;3.508510e-002
2.331615e+003;3.518224e-002
2.333543e+003;3.529242e-002
2.335472e+003;3.554183e-002
2.337400e+003;3.593962e-002
2.339329e+003;3.614245e-002
2.341257e+003;3.623389e-002
2.343186e+003;3.620288e-002
2.345114e+003;3.641585e-002
2.347043e+003;3.671516e-002
2.348971e+003;3.673579e-002
2.350900e+003;3.674174e-002
2.352829e+003;3.698773e-002
2.354757e+003;3.704702e-002
2.356686e+003;3.684528e-002
2.358614e+003;3.691763e-002
2.360543e+003;3.692178e-002
2.362471e+003;3.688257e-002
2.364400e+003;3.682879e-002
2.366328e+003;3.674080e-002
2.368257e+003;3.666487e-002
2.370186e+003;3.659695e-002
2.372114e+003;3.656815e-002
2.374042e+003;3.664176e-002
2.375971e+003;3.670027e-002
2.377900e+003;3.649423e-002
2.379828e+003;3.618855e-002
2.381757e+003;3.610004e-002
2.383685e+003;3.621008e-002
2.385614e+003;3.645747e-002
2.387542e+003;3.674354e-002
2.389471e+003;3.695505e-002
2.391399e+003;3.694805e-002
2.393328e+003;3.685238e-002
2.395257e+003;3.708667e-002
2.397185e+003;3.745204e-002
2.399114e+003;3.759870e-002
2.401042e+003;3.774578e-002
2.402971e+003;3.809578e-002
2.404899e+003;3.837175e-002
2.406828e+003;3.855634e-002
2.408756e+003;3.867734e-002
2.410685e+003;3.882775e-002
2.412614e+003;3.896397e-002
2.414542e+003;3.900823e-002
2.416471e+003;3.894614e-002
2.418399e+003;3.869781e-002
2.420328e+003;3.856486e-002
2.422256e+003;3.859035e-002
2.424185e+003;3.887587e-002
2.426113e+003;3.918011e-002
2.428042e+003;3.909531e-002
2.429970e+003;3.886834e-002
2.431899e+003;3.884207e-002
2.433828e+003;3.888943e-002
2.435756e+003;3.873312e-002
2.437685e+003;3.872027e-002
2.439613e+003;3.879308e-002
2.441542e+003;3.873265e-002
2.443470e+003;3.886794e-002
2.445399e+003;3.894948e-002
2.447327e+003;3.881837e-002
2.449256e+003;3.870234e-002
2.451185e+003;3.856757e-002
2.453113e+003;3.856236e-002
2.455042e+003;3.866572e-002
2.456970e+003;3.859169e-002
2.458899e+003;3.857181e-002
2.460827e+003;3.881457e-002
2.462756e+003;3.873280e-002
2.464684e+003;3.834033e-002
2.466613e+003;3.834935e-002
2.468542e+003;3.858846e-002
2.470470e+003;3.847727e-002
2.472398e+003;3.837631e-002
2.474327e+003;3.843433e-002
2.476256e+003;3.845019e-002
2.478184e+003;3.842518e-002
2.480113e+003;3.838829e-002
2.482041e+003;3.829310e-002
2.483970e+003;3.821813e-002
2.485898e+003;3.817189e-002
2.487827e+003;3.810023e-002
2.489755e+003;3.778619e-002
2.491684e+003;3.759614e-002
2.493613e+003;3.753617e-002
2.495541e+003;3.741011e-002
2.497470e+003;3.713059e-002
2.499398e+003;3.688503e-002
2.501327e+003;3.693477e-002
2.503255e+003;3.696994e-002
2.505184e+003;3.693885e-002
2.507112e+003;3.669083e-002
2.509041e+003;3.627340e-002
2.510969e+003;3.621858e-002
2.512898e+003;3.649899e-002
2.514827e+003;3.666443e-002
2.516755e+003;3.654522e-002
2.518684e+003;3.628295e-002
2.520612e+003;3.626757e-002
2.522541e+003;3.628446e-002
2.524469e+003;3.611624e-002
2.526398e+003;3.584180e-002
2.528326e+003;3.572523e-002
2.530255e+003;3.586340e-002
2.532184e+003;3.586916e-002
2.534112e+003;3.584145e-002
2.536041e+003;3.593484e-002
2.537969e+003;3.579989e-002
2.539898e+003;3.571329e-002
2.541826e+003;3.574980e-002
2.543755e+003;3.564109e-002
2.545683e+003;3.566329e-002
2.547612e+003;3.577664e-002
2.549541e+003;3.585786e-002
2.551469e+003;3.584627e-002
2.553397e+003;3.549566e-002
2.555326e+003;3.539032e-002
2.557255e+003;3.579237e-002
2.559183e+003;3.601003e-002
2.561112e+003;3.590899e-002
2.563040e+003;3.597252e-002
2.564969e+003;3.629811e-002
2.566897e+003;3.662128e-002
2.568826e+003;3.666191e-002
2.570754e+003;3.671671e-002
2.572683e+003;3.707906e-002
2.574612e+003;3.723690e-002
2.576540e+003;3.747346e-002
2.578469e+003;3.764806e-002
2.580397e+003;3.770129e-002
2.582326e+003;3.796388e-002
2.584254e+003;3.814852e-002
2.586183e+003;3.821925e-002
2.588111e+003;3.822135e-002
2.590040e+003;3.848303e-002
2.591969e+003;3.875367e-002
2.593897e+003;3.873852e-002
2.595826e+003;3.869998e-002
2.597754e+003;3.858742e-002
2.599683e+003;3.866637e-002
2.601611e+003;3.896825e-002
2.603540e+003;3.903201e-002
2.605468e+003;3.901613e-002
2.607397e+003;3.884210e-002
2.609325e+003;3.874953e-002
2.611254e+003;3.896582e-002
2.613183e+003;3.917982e-002
2.615111e+003;3.953345e-002
2.617040e+003;3.985868e-002
2.618968e+003;3.983961e-002
2.620897e+003;3.965694e-002
2.622825e+003;3.972486e-002
2.624754e+003;3.981967e-002
2.626682e+003;3.978735e-002
2.628611e+003;3.992446e-002
2.630540e+003;3.998105e-002
2.632468e+003;4.011549e-002
2.634396e+003;4.031985e-002
2.636325e+003;4.050953e-002
2.638254e+003;4.034501e-002
2.640182e+003;4.026724e-002
2.642111e+003;4.037479e-002
2.644039e+003;4.048792e-002
2.645968e+003;4.047607e-002
2.647896e+003;4.049214e-002
2.649825e+003;4.048032e-002
2.651753e+003;4.055434e-002
2.653682e+003;4.072629e-002
2.655611e+003;4.056526e-002
2.657539e+003;4.018476e-002
2.659468e+003;3.995955e-002
2.661396e+003;4.009471e-002
2.663325e+003;4.014831e-002
2.665253e+003;4.028393e-002
2.667182e+003;4.045097e-002
2.669110e+003;4.031199e-002
2.671039e+003;4.018193e-002
2.672968e+003;4.004489e-002
2.674896e+003;4.028745e-002
2.676825e+003;4.054947e-002
2.678753e+003;4.046250e-002
2.680682e+003;4.024946e-002
2.682610e+003;4.020973e-002
2.684539e+003;4.050680e-002
2.686467e+003;4.074096e-002
2.688396e+003;4.074871e-002
2.690324e+003;4.069977e-002
2.692253e+003;4.059909e-002
2.694182e+003;4.068474e-002
2.696110e+003;4.100361e-002
2.698039e+003;4.123272e-002
2.699967e+003;4.122679e-002
2.701896e+003;4.127980e-002
2.703824e+003;4.151208e-002
2.705753e+003;4.180030e-002
2.707681e+003;4.193176e-002
2.709610e+003;4.205801e-002
2.711539e+003;4.239612e-002
2.713467e+003;4.284544e-002
2.715396e+003;4.312840e-002
2.717324e+003;4.334201e-002
2.719253e+003;4.360258e-002
2.721181e+003;4.374610e-002
2.723110e+003;4.380466e-002
2.725038e+003;4.364951e-002
2.726967e+003;4.371275e-002
2.728896e+003;4.382529e-002
2.730824e+003;4.391206e-002
2.732752e+003;4.402660e-002
2.734681e+003;4.399360e-002
2.736610e+003;4.392786e-002
2.738538e+003;4.365640e-002
2.740467e+003;4.357584e-002
2.742395e+003;4.377428e-002
2.744324e+003;4.387467e-002
2.746252e+003;4.406294e-002
2.748181e+003;4.399459e-002
2.750109e+003;4.358932e-002
2.752038e+003;4.326265e-002
2.753967e+003;4.325229e-002
2.755895e+003;4.345695e-002
2.757824e+003;4.347054e-002
2.759752e+003;4.345611e-002
2.761681e+003;4.359785e-002
2.763609e+003;4.355551e-002
2.765538e+003;4.349405e-002
2.767466e+003;4.361470e-002
2.769395e+003;4.363170e-002
2.771323e+003;4.353939e-002
2.773252e+003;4.353844e-002
2.775181e+003;4.380924e-002
2.777109e+003;4.411890e-002
2.779038e+003;4.436588e-002
2.780966e+003;4.454126e-002
2.782895e+003;4.463511e-002
2.784823e+003;4.494760e-002
2.786752e+003;4.506436e-002
2.788680e+003;4.519377e-002
2.790609e+003;4.565085e-002
2.792538e+003;4.589343e-002
2.794466e+003;4.599262e-002
2.796395e+003;4.606914e-002
2.798323e+003;4.620724e-002
2.800252e+003;4.652644e-002
2.802180e+003;4.655949e-002
2.804109e+003;4.639616e-002
2.806037e+003;4.675029e-002
2.807966e+003;4.732114e-002
2.809895e+003;4.723199e-002
2.811823e+003;4.708429e-002
2.813751e+003;4.753653e-002
2.815680e+003;4.793702e-002
2.817609e+003;4.789022e-002
2.819537e+003;4.796166e-002
2.821466e+003;4.804578e-002
2.823394e+003;4.849569e-002
2.825323e+003;4.909848e-002
2.827251e+003;4.936761e-002
2.829180e+003;4.946198e-002
2.831108e+003;4.967840e-002
2.833037e+003;5.017106e-002
2.834966e+003;5.080661e-002
2.836894e+003;5.117669e-002
2.838823e+003;5.181700e-002
2.840751e+003;5.262874e-002
2.842680e+003;5.315004e-002
2.844608e+003;5.345635e-002
2.846537e+003;5.402303e-002
2.848465e+003;5.450976e-002
2.850394e+003;5.474573e-002
2.852323e+003;5.520775e-002
2.854251e+003;5.615887e-002
2.856180e+003;5.745755e-002
2.858108e+003;5.881320e-002
2.860037e+003;5.987322e-002
2.861965e+003;6.108039e-002
2.863894e+003;6.188516e-002
2.865822e+003;6.241405e-002
2.867751e+003;6.326863e-002
2.869679e+003;6.395855e-002
2.871608e+003;6.411149e-002
2.873536e+003;6.438021e-002
2.875465e+003;6.482483e-002
2.877394e+003;6.506209e-002
2.879322e+003;6.504800e-002
2.881251e+003;6.515759e-002
2.883179e+003;6.565091e-002
2.885108e+003;6.578845e-002
2.887036e+003;6.581447e-002
2.888965e+003;6.566197e-002
2.890893e+003;6.544996e-002
2.892822e+003;6.534203e-002
2.894750e+003;6.485242e-002
2.896679e+003;6.451693e-002
2.898608e+003;6.456829e-002
2.900536e+003;6.459066e-002
2.902465e+003;6.431901e-002
2.904393e+003;6.394166e-002
2.906322e+003;6.357619e-002
2.908250e+003;6.337015e-002
2.910179e+003;6.289197e-002
2.912107e+003;6.223946e-002
2.914036e+003;6.186197e-002
2.915965e+003;6.143174e-002
2.917893e+003;6.111022e-002
2.919822e+003;6.089371e-002
2.921750e+003;6.080448e-002
2.923679e+003;6.125353e-002
2.925607e+003;6.155596e-002
2.927536e+003;6.179775e-002
2.929464e+003;6.256997e-002
2.931393e+003;6.337233e-002
2.933322e+003;6.467876e-002
2.935250e+003;6.589290e-002
2.937178e+003;6.637195e-002
2.939107e+003;6.676054e-002
2.941036e+003;6.720401e-002
2.942964e+003;6.751463e-002
2.944893e+003;6.756886e-002
2.946821e+003;6.744837e-002
2.948750e+003;6.738722e-002
2.950678e+003;6.704641e-002
2.952607e+003;6.637705e-002
2.954535e+003;6.582376e-002
2.956464e+003;6.528877e-002
2.958393e+003;6.529836e-002
2.960321e+003;6.534284e-002
2.962250e+003;6.496684e-002
2.964178e+003;6.444978e-002
2.966107e+003;6.391210e-002
2.968035e+003;6.319761e-002
2.969964e+003;6.257946e-002
2.971892e+003;6.205629e-002
2.973821e+003;6.148889e-002
2.975750e+003;6.121492e-002
2.977678e+003;6.090404e-002
2.979607e+003;6.058355e-002
2.981535e+003;6.026619e-002
2.983464e+003;5.979066e-002
2.985392e+003;5.953392e-002
2.987321e+003;5.934182e-002
2.989249e+003;5.908196e-002
2.991178e+003;5.900912e-002
2.993106e+003;5.891303e-002
2.995035e+003;5.834448e-002
2.996964e+003;5.744420e-002
2.998892e+003;5.700533e-002
3.000821e+003;5.688498e-002
3.002749e+003;5.657510e-002
3.004678e+003;5.631271e-002
3.006606e+003;5.591131e-002
3.008535e+003;5.549188e-002
3.010463e+003;5.506205e-002
3.012392e+003;5.481440e-002
3.014321e+003;5.480290e-002
3.016249e+003;5.493478e-002
3.018177e+003;5.497164e-002
3.020106e+003;5.452733e-002
3.022035e+003;5.426193e-002
3.023963e+003;5.439561e-002
3.025892e+003;5.437465e-002
3.027820e+003;5.386543e-002
3.029749e+003;5.322505e-002
3.031677e+003;5.278126e-002
3.033606e+003;5.265265e-002
3.035534e+003;5.281943e-002
3.037463e+003;5.222614e-002
3.039392e+003;5.110968e-002
3.041320e+003;5.034002e-002
3.043249e+003;4.982751e-002
3.045177e+003;4.938394e-002
3.047106e+003;4.908223e-002
3.049034e+003;4.889121e-002
3.050963e+003;4.866133e-002
3.052891e+003;4.801869e-002
3.054820e+003;4.754518e-002
3.056749e+003;4.737113e-002
3.058677e+003;4.714973e-002
3.060606e+003;4.687038e-002
3.062534e+003;4.669771e-002
3.064463e+003;4.625976e-002
3.066391e+003;4.570580e-002
3.068320e+003;4.535915e-002
3.070248e+003;4.522524e-002
3.072177e+003;4.548117e-002
3.074105e+003;4.538449e-002
3.076034e+003;4.497359e-002
3.077963e+003;4.484869e-002
3.079891e+003;4.459134e-002
3.081820e+003;4.437510e-002
3.083748e+003;4.419795e-002
3.085677e+003;4.401776e-002
3.087605e+003;4.380763e-002
3.089534e+003;4.386301e-002
3.091462e+003;4.400130e-002
3.093391e+003;4.377069e-002
3.095320e+003;4.359877e-002
3.097248e+003;4.341861e-002
3.099177e+003;4.316339e-002
3.101105e+003;4.333000e-002
3.103034e+003;4.346717e-002
3.104962e+003;4.322172e-002
3.106891e+003;4.319965e-002
3.108819e+003;4.331441e-002
3.110748e+003;4.343677e-002
3.112677e+003;4.324182e-002
3.114605e+003;4.275721e-002
3.116533e+003;4.270884e-002
3.118462e+003;4.270029e-002
3.120391e+003;4.256958e-002
3.122319e+003;4.256848e-002
3.124248e+003;4.229827e-002
3.126176e+003;4.184463e-002
3.128105e+003;4.185981e-002
3.130033e+003;4.183065e-002
3.131962e+003;4.170520e-002
3.133890e+003;4.167394e-002
3.135819e+003;4.166238e-002
3.137748e+003;4.167766e-002
3.139676e+003;4.165987e-002
3.141605e+003;4.170546e-002
3.143533e+003;4.163675e-002
3.145462e+003;4.137112e-002
3.147390e+003;4.120256e-002
3.149319e+003;4.141530e-002
3.151247e+003;4.151806e-002
3.153176e+003;4.151532e-002
3.155104e+003;4.149185e-002
3.157033e+003;4.133829e-002
3.158962e+003;4.123874e-002
3.160890e+003;4.132888e-002
3.162819e+003;4.116369e-002
3.164747e+003;4.091899e-002
3.166676e+003;4.095944e-002
3.168604e+003;4.112129e-002
3.170533e+003;4.109954e-002
3.172461e+003;4.097955e-002
3.174390e+003;4.088608e-002
3.176319e+003;4.082853e-002
3.178247e+003;4.102488e-002
3.180176e+003;4.089060e-002
3.182104e+003;4.091881e-002
3.184033e+003;4.116842e-002
3.185961e+003;4.131198e-002
3.187890e+003;4.116165e-002
3.189818e+003;4.097721e-002
3.191747e+003;4.108548e-002
3.193676e+003;4.141879e-002
3.195604e+003;4.136478e-002
3.197532e+003;4.113130e-002
3.199461e+003;4.122832e-002
3.201390e+003;4.166410e-002
3.203318e+003;4.188097e-002
3.205247e+003;4.160433e-002
3.207175e+003;4.136004e-002
3.209104e+003;4.126041e-002
3.211032e+003;4.120711e-002
3.212961e+003;4.169864e-002
3.214889e+003;4.240310e-002
3.216818e+003;4.228432e-002
3.218747e+003;4.202268e-002
3.220675e+003;4.229030e-002
3.222604e+003;4.245516e-002
3.224532e+003;4.241702e-002
3.226461e+003;4.257466e-002
3.228389e+003;4.270756e-002
3.230318e+003;4.267097e-002
3.232246e+003;4.252554e-002
3.234175e+003;4.226051e-002
3.236104e+003;4.245180e-002
3.238032e+003;4.286541e-002
3.239961e+003;4.279904e-002
3.241889e+003;4.272138e-002
3.243818e+003;4.264761e-002
3.245746e+003;4.281623e-002
3.247675e+003;4.343732e-002
3.249603e+003;4.365940e-002
3.251532e+003;4.381008e-002
3.253460e+003;4.394612e-002
3.255389e+003;4.416838e-002
3.257318e+003;4.404471e-002
3.259246e+003;4.384223e-002
3.261175e+003;4.394388e-002
3.263103e+003;4.427066e-002
3.265032e+003;4.463001e-002
3.266960e+003;4.514851e-002
3.268889e+003;4.529022e-002
3.270817e+003;4.492464e-002
3.272746e+003;4.508263e-002
3.274675e+003;4.534601e-002
3.276603e+003;4.534873e-002
3.278531e+003;4.576747e-002
3.280460e+003;4.598334e-002
3.282389e+003;4.555873e-002
3.284317e+003;4.580016e-002
3.286246e+003;4.631019e-002
3.288174e+003;4.687311e-002
3.290103e+003;4.685045e-002
3.292031e+003;4.662061e-002
3.293960e+003;4.679092e-002
3.295888e+003;4.705563e-002
3.297817e+003;4.721836e-002
3.299746e+003;4.730488e-002
3.301674e+003;4.736348e-002
3.303603e+003;4.761516e-002
3.305531e+003;4.775272e-002
3.307460e+003;4.776119e-002
3.309388e+003;4.798143e-002
3.311317e+003;4.854682e-002
3.313245e+003;4.881312e-002
3.315174e+003;4.902792e-002
3.317103e+003;4.939207e-002
3.319031e+003;4.946191e-002
3.320960e+003;4.941706e-002
3.322888e+003;4.939103e-002
3.324817e+003;4.962836e-002
3.326745e+003;4.975713e-002
3.328674e+003;4.985048e-002
3.330602e+003;5.029865e-002
3.332531e+003;5.066137e-002
3.334459e+003;5.050952e-002
3.336388e+003;5.035308e-002
3.338317e+003;5.027041e-002
3.340245e+003;5.060958e-002
3.342174e+003;5.137118e-002
3.344102e+003;5.184343e-002
3.346031e+003;5.176314e-002
3.347959e+003;5.171282e-002
3.349888e+003;5.208383e-002
3.351816e+003;5.232790e-002
3.353745e+003;5.243739e-002
3.355674e+003;5.262519e-002
3.357602e+003;5.275021e-002
3.359531e+003;5.275567e-002
3.361459e+003;5.289060e-002
3.363388e+003;5.308152e-002
3.365316e+003;5.298388e-002
3.367245e+003;5.318449e-002
3.369173e+003;5.381562e-002
3.371102e+003;5.379252e-002
3.373031e+003;5.386663e-002
3.374959e+003;5.424846e-002
3.376887e+003;5.462261e-002
3.378816e+003;5.505626e-002
3.380745e+003;5.523619e-002
3.382673e+003;5.533084e-002
3.384602e+003;5.514402e-002
3.386530e+003;5.530306e-002
3.388459e+003;5.603962e-002
3.390387e+003;5.635492e-002
3.392316e+003;5.625104e-002
3.394244e+003;5.636654e-002
3.396173e+003;5.628283e-002
3.398102e+003;5.620269e-002
3.400030e+003;5.682134e-002
3.401959e+003;5.705661e-002
3.403887e+003;5.695626e-002
3.405816e+003;5.740226e-002
3.407744e+003;5.749246e-002
3.409673e+003;5.730614e-002
3.411601e+003;5.749866e-002
3.413530e+003;5.782536e-002
3.415458e+003;5.773104e-002
3.417387e+003;5.769903e-002
3.419316e+003;5.803921e-002
3.421244e+003;5.836726e-002
3.423173e+003;5.892024e-002
3.425101e+003;5.935102e-002
3.427030e+003;5.954669e-002
3.428958e+003;5.991160e-002
3.430887e+003;6.025789e-002
3.432815e+003;6.049034e-002
3.434744e+003;6.042515e-002
3.436673e+003;6.015597e-002
3.438601e+003;6.036845e-002
3.440530e+003;6.071191e-002
3.442458e+003;6.080356e-002
3.444387e+003;6.090008e-002
3.446315e+003;6.109515e-002
3.448244e+003;6.149030e-002
3.450172e+003;6.158368e-002
3.452101e+003;6.189127e-002
3.454030e+003;6.242216e-002
3.455958e+003;6.262458e-002
3.457886e+003;6.269394e-002
3.459815e+003;6.289825e-002
3.461744e+003;6.287561e-002
3.463672e+003;6.256205e-002
3.465601e+003;6.275833e-002
3.467529e+003;6.321520e-002
3.469458e+003;6.370275e-002
3.471386e+003;6.381898e-002
3.473315e+003;6.354950e-002
3.475243e+003;6.367865e-002
3.477172e+003;6.388991e-002
3.479101e+003;6.382094e-002
3.481029e+003;6.376065e-002
3.482958e+003;6.369005e-002
3.484886e+003;6.399441e-002
3.486815e+003;6.403538e-002
3.488743e+003;6.367923e-002
3.490672e+003;6.362533e-002
3.492600e+003;6.375340e-002
3.494529e+003;6.392400e-002
3.496458e+003;6.412950e-002
3.498386e+003;6.406000e-002
3.500315e+003;6.373560e-002
3.502243e+003;6.328166e-002
3.504172e+003;6.321298e-002
3.506100e+003;6.339852e-002
3.508029e+003;6.357507e-002
3.509957e+003;6.304204e-002
3.511886e+003;6.259599e-002
3.513814e+003;6.266225e-002
3.515743e+003;6.231675e-002
3.517672e+003;6.196571e-002
3.519600e+003;6.212487e-002
3.521529e+003;6.220848e-002
3.523457e+003;6.216210e-002
3.525386e+003;6.216784e-002
3.527314e+003;6.189559e-002
3.529243e+003;6.155295e-002
3.531171e+003;6.114668e-002
3.533100e+003;6.075223e-002
3.535029e+003;6.041186e-002
3.536957e+003;6.024255e-002
3.538885e+003;5.988752e-002
3.540814e+003;5.989558e-002
3.542743e+003;6.020281e-002
3.544671e+003;5.955775e-002
3.546600e+003;5.873976e-002
3.548528e+003;5.856416e-002
3.550457e+003;5.858748e-002
3.552385e+003;5.827256e-002
3.554314e+003;5.793450e-002
3.556242e+003;5.770622e-002
3.558171e+003;5.732493e-002
3.560100e+003;5.692581e-002
3.562028e+003;5.680083e-002
3.563957e+003;5.636280e-002
3.565885e+003;5.548789e-002
3.567814e+003;5.507597e-002
3.569742e+003;5.515064e-002
3.571671e+003;5.489534e-002
3.573599e+003;5.426216e-002
3.575528e+003;5.378336e-002
3.577457e+003;5.348705e-002
3.579385e+003;5.293997e-002
3.581314e+003;5.243272e-002
3.583242e+003;5.216613e-002
3.585171e+003;5.177161e-002
3.587099e+003;5.093490e-002
3.589028e+003;5.043040e-002
3.590956e+003;5.016589e-002
3.592885e+003;4.956188e-002
3.594813e+003;4.920920e-002
3.596742e+003;4.906568e-002
3.598671e+003;4.852618e-002
3.600599e+003;4.792030e-002
3.602528e+003;4.745694e-002
3.604456e+003;4.687854e-002
3.606385e+003;4.651257e-002
3.608313e+003;4.609946e-002
3.610242e+003;4.564168e-002
3.612170e+003;4.480659e-002
3.614099e+003;4.398003e-002
3.616028e+003;4.339144e-002
3.617956e+003;4.276441e-002
3.619885e+003;4.240340e-002
3.621813e+003;4.238374e-002
3.623742e+003;4.232990e-002
3.625670e+003;4.204447e-002
3.627599e+003;4.114566e-002
3.629527e+003;4.004405e-002
3.631456e+003;3.979153e-002
3.633385e+003;3.966877e-002
3.635313e+003;3.937939e-002
3.637241e+003;3.884910e-002
3.639170e+003;3.850019e-002
3.641099e+003;3.838265e-002
3.643027e+003;3.814093e-002
3.644956e+003;3.746406e-002
3.646884e+003;3.645884e-002
3.648813e+003;3.576362e-002
3.650741e+003;3.548405e-002
3.652670e+003;3.559757e-002
3.654598e+003;3.512124e-002
3.656527e+003;3.426595e-002
3.658456e+003;3.412865e-002
3.660384e+003;3.378953e-002
3.662313e+003;3.292310e-002
3.664241e+003;3.196459e-002
3.666170e+003;3.125291e-002
3.668098e+003;3.028930e-002
3.670027e+003;2.947585e-002
3.671955e+003;2.944734e-002
3.673884e+003;2.871095e-002
3.675813e+003;2.784985e-002
3.677741e+003;2.790946e-002
3.679669e+003;2.783240e-002
3.681598e+003;2.755080e-002
3.683527e+003;2.697075e-002
3.685455e+003;2.599315e-002
3.687384e+003;2.538574e-002
3.689312e+003;2.553285e-002
3.691241e+003;2.598196e-002
3.693169e+003;2.567213e-002
3.695098e+003;2.542206e-002
3.697026e+003;2.549760e-002
3.698955e+003;2.538388e-002
3.700884e+003;2.485794e-002
3.702812e+003;2.458050e-002
3.704741e+003;2.447574e-002
3.706669e+003;2.408583e-002
3.708598e+003;2.383163e-002
3.710526e+003;2.372810e-002
3.712455e+003;2.372359e-002
3.714383e+003;2.392881e-002
3.716312e+003;2.399414e-002
3.718240e+003;2.384216e-002
3.720169e+003;2.351923e-002
3.722098e+003;2.312906e-002
3.724026e+003;2.307524e-002
3.725955e+003;2.336043e-002
3.727883e+003;2.365584e-002
3.729812e+003;2.348940e-002
3.731740e+003;2.324310e-002
3.733669e+003;2.312860e-002
3.735597e+003;2.293504e-002
3.737526e+003;2.302273e-002
3.739455e+003;2.308541e-002
3.741383e+003;2.286770e-002
3.743312e+003;2.215971e-002
3.745240e+003;2.201810e-002
3.747169e+003;2.193305e-002
3.749097e+003;2.166531e-002
3.751026e+003;2.194522e-002
3.752954e+003;2.259387e-002
3.754883e+003;2.310421e-002
3.756812e+003;2.270745e-002
3.758740e+003;2.257753e-002
3.760668e+003;2.292662e-002
3.762597e+003;2.268829e-002
3.764526e+003;2.227685e-002
3.766454e+003;2.260221e-002
3.768383e+003;2.274733e-002
3.770311e+003;2.221711e-002
3.772240e+003;2.260364e-002
3.774168e+003;2.326568e-002
3.776097e+003;2.310274e-002
3.778025e+003;2.277292e-002
3.779954e+003;2.248749e-002
3.781883e+003;2.268019e-002
3.783811e+003;2.309411e-002
3.785740e+003;2.336015e-002
3.787668e+003;2.312098e-002
3.789597e+003;2.288083e-002
3.791525e+003;2.317711e-002
3.793454e+003;2.312588e-002
3.795382e+003;2.268448e-002
3.797311e+003;2.277149e-002
3.799240e+003;2.255142e-002
3.801168e+003;2.202625e-002
3.803097e+003;2.259167e-002
3.805025e+003;2.279136e-002
3.806954e+003;2.274684e-002
3.808882e+003;2.333200e-002
3.810811e+003;2.377171e-002
3.812739e+003;2.344498e-002
3.814668e+003;2.275127e-002
3.816596e+003;2.245794e-002
3.818525e+003;2.240930e-002
3.820454e+003;2.244583e-002
3.822382e+003;2.291597e-002
3.824311e+003;2.287280e-002
3.826239e+003;2.269478e-002
3.828168e+003;2.280634e-002
3.830096e+003;2.295240e-002
3.832025e+003;2.308775e-002
3.833953e+003;2.296760e-002
3.835882e+003;2.251359e-002
3.837811e+003;2.226227e-002
3.839739e+003;2.260702e-002
3.841667e+003;2.255991e-002
3.843596e+003;2.241649e-002
3.845525e+003;2.250093e-002
3.847453e+003;2.256633e-002
3.849382e+003;2.258392e-002
3.851310e+003;2.221296e-002
3.853239e+003;2.188810e-002
3.855167e+003;2.276706e-002
3.857096e+003;2.342267e-002
3.859024e+003;2.298636e-002
3.860953e+003;2.271193e-002
3.862882e+003;2.289550e-002
3.864810e+003;2.307772e-002
3.866739e+003;2.318927e-002
3.868667e+003;2.310900e-002
3.870596e+003;2.323618e-002
3.872524e+003;2.321231e-002
3.874453e+003;2.331693e-002
3.876381e+003;2.330935e-002
3.878310e+003;2.314083e-002
3.880239e+003;2.316578e-002
3.882167e+003;2.305421e-002
3.884096e+003;2.290221e-002
3.886024e+003;2.349706e-002
3.887953e+003;2.370718e-002
3.889881e+003;2.323090e-002
3.891810e+003;2.352658e-002
3.893738e+003;2.406968e-002
3.895667e+003;2.417690e-002
3.897595e+003;2.398332e-002
3.899524e+003;2.389653e-002
3.901453e+003;2.438086e-002
3.903381e+003;2.475866e-002
3.905310e+003;2.505022e-002
3.907238e+003;2.546904e-002
3.909167e+003;2.558911e-002
3.911095e+003;2.524100e-002
3.913024e+003;2.516055e-002
3.914952e+003;2.499494e-002
3.916881e+003;2.506169e-002
3.918810e+003;2.546542e-002
3.920738e+003;2.561779e-002
3.922667e+003;2.571579e-002
3.924595e+003;2.564338e-002
3.926524e+003;2.555407e-002
3.928452e+003;2.595407e-002
3.930381e+003;2.628142e-002
3.932309e+003;2.643405e-002
3.934238e+003;2.648335e-002
3.936167e+003;2.655699e-002
3.938095e+003;2.662364e-002
3.940023e+003;2.666789e-002
3.941952e+003;2.641739e-002
3.943881e+003;2.662907e-002
3.945809e+003;2.671729e-002
3.947738e+003;2.668801e-002
3.949666e+003;2.724503e-002
3.951595e+003;2.741507e-002
3.953523e+003;2.733440e-002
3.955452e+003;2.724161e-002
3.957380e+003;2.714506e-002
3.959309e+003;2.738631e-002
3.961238e+003;2.770828e-002
3.963166e+003;2.784000e-002
3.965095e+003;2.813611e-002
3.967023e+003;2.861677e-002
3.968952e+003;2.922071e-002
3.970880e+003;2.934654e-002
3.972809e+003;2.975885e-002
3.974737e+003;2.978060e-002
3.976666e+003;2.916706e-002
3.978594e+003;2.911543e-002
3.980523e+003;2.950720e-002
3.982452e+003;2.904539e-002
3.984380e+003;2.852434e-002
3.986309e+003;2.880385e-002
3.988237e+003;2.911189e-002
3.990166e+003;2.901053e-002
3.992094e+003;2.882655e-002
3.994023e+003;2.876979e-002
3.995951e+003;2.863864e-002
3.997880e+003;2.855608e-002
3.999809e+003;2.853449e-002
4.001737e+003;0.000000e+000
