3.992094e+002;0.000000e+000
4.011380e+002;0.000000e+000
4.030665e+002;0.000000e+000
4.049951e+002;0.000000e+000
4.069236e+002;0.000000e+000
4.088522e+002;0.000000e+000
4.107807e+002;0.000000e+000
4.127093e+002;0.000000e+000
4.146378e+002;0.000000e+000
4.165664e+002;0.000000e+000
4.184949e+002;0.000000e+000
4.204235e+002;0.000000e+000
4.223520e+002;0.000000e+000
4.242806e+002;0.000000e+000
4.262091e+002;0.000000e+000
4.281377e+002;0.000000e+000
4.300662e+002;0.000000e+000
4.319948e+002;0.000000e+000
4.339233e+002;0.000000e+000
4.358519e+002;0.000000e+000
4.377804e+002;0.000000e+000
4.397090e+002;0.000000e+000
4.416375e+002;0.000000e+000
4.435660e+002;0.000000e+000
4.454946e+002;0.000000e+000
4.474232e+002;0.000000e+000
4.493517e+002;0.000000e+000
4.512802e+002;0.000000e+000
4.532088e+002;0.000000e+000
4.551373e+002;0.000000e+000
4.570659e+002;0.000000e+000
4.589944e+002;0.000000e+000
4.609230e+002;0.000000e+000
4.628515e+002;0.000000e+000
4.647801e+002;0.000000e+000
4.667086e+002;0.000000e+000
4.686372e+002;0.000000e+000
4.705657e+002;0.000000e+000
4.724943e+002;0.000000e+000
4.744228e+002;0.000000e+000
4.763513e+002;0.000000e+000
4.782799e+002;0.000000e+000
4.802085e+002;0.000000e+000
4.821370e+002;0.000000e+000
4.840656e+002;0.000000e+000
4.859941e+002;0.000000e+000
4.879226e+002;0.000000e+000
4.898512e+002;0.000000e+000
4.917798e+002;0.000000e+000
4.937083e+002;0.000000e+000
4.956368e+002;0.000000e+000
4.975654e+002;0.000000e+000
4.994939e+002;0.000000e+000
5.014225e+002;0.000000e+000
5.033510e+002;0.000000e+000
5.052796e+002;0.000000e+000
5.072081e+002;0.000000e+000
5.091367e+002;0.000000e+000
5.110652e+002;0.000000e+000
5.129938e+002;0.000000e+000
5.149223e+002;0.000000e+000
5.168509e+002;0.000000e+000
5.187794e+002;0.000000e+000
5.207079e+002;0.000000e+000
5.226365e+002;0.000000e+000
5.245651e+002;0.000000e+000
5.264936e+002;0.000000e+000
5.284222e+002;0.000000e+000
5.303507e+002;0.000000e+000
5.322792e+002;0.000000e+000
5.342078e+002;0.000000e+000
5.361364e+002;0.000000e+000
5.380649e+002;0.000000e+000
5.399935e+002;0.000000e+000
5.419220e+002;0.000000e+000
5.438505e+002;0.000000e+000
5.457791e+002;0.000000e+000
5.477076e+002;0.000000e+000
5.496362e+002;0.000000e+000
5.515648e+002;0.000000e+000
5.534933e+002;0.000000e+000
5.554218e+002;0.000000e+000
5.573504e+002;0.000000e+000
5.592789e+002;0.000000e+000
5.612075e+002;0.000000e+000
5.631360e+002;0.000000e+000
5.650646e+002;0.000000e+000
5.669931e+002;0.000000e+000
5.689217e+002;0.000000e+000
5.708502e+002;0.000000e+000
5.727787e+002;0.000000e+000
5.747073e+002;0.000000e+000
5.766359e+002;0.000000e+000
5.785644e+002;0.000000e+000
5.804930e+002;0.000000e+000
5.824215e+002;0.000000e+000
5.843500e+002;0.000000e+000
5.862786e+002;0.000000e+000
5.882072e+002;0.000000e+000
5.901357e+002;0.000000e+000
5.920643e+002;0.000000e+000
5.939928e+002;0.000000e+000
5.959213e+002;0.000000e+000
5.978499e+002;0.000000e+000
5.997784e+002;1.932830e-001
6.017070e+002;1.998379e-001
6.036355e+002;1.979764e-001
6.055641e+002;1.923575e-001
6.074926e+002;1.822324e-001
6.094211e+002;1.694752e-001
6.113497e+002;1.643591e-001
6.132783e+002;1.654946e-001
6.152068e+002;1.626440e-001
6.171354e+002;1.567618e-001
6.190639e+002;1.541377e-001
6.209924e+002;1.498309e-001
6.229210e+002;1.473209e-001
6.248495e+002;1.472214e-001
6.267781e+002;1.475273e-001
6.287067e+002;1.445885e-001
6.306352e+002;1.362253e-001
6.325637e+002;1.310059e-001
6.344923e+002;1.334888e-001
6.364208e+002;1.362204e-001
6.383494e+002;1.356470e-001
6.402780e+002;1.340794e-001
6.422065e+002;1.334884e-001
6.441350e+002;1.290431e-001
6.460636e+002;1.237555e-001
6.479921e+002;1.226304e-001
6.499207e+002;1.235858e-001
6.518492e+002;1.229317e-001
6.537778e+002;1.241002e-001
6.557063e+002;1.217849e-001
6.576349e+002;1.174992e-001
6.595634e+002;1.174793e-001
6.614919e+002;1.167090e-001
6.634205e+002;1.156430e-001
6.653491e+002;1.152346e-001
6.672776e+002;1.133550e-001
6.692062e+002;1.130750e-001
6.711347e+002;1.125722e-001
6.730632e+002;1.115083e-001
6.749918e+002;1.119787e-001
6.769203e+002;1.131210e-001
6.788489e+002;1.135093e-001
6.807775e+002;1.130748e-001
6.827060e+002;1.129806e-001
6.846345e+002;1.138795e-001
6.865631e+002;1.139194e-001
6.884916e+002;1.127382e-001
6.904202e+002;1.121055e-001
6.923488e+002;1.112101e-001
6.942773e+002;1.092595e-001
6.962058e+002;1.076942e-001
6.981344e+002;1.067952e-001
7.000629e+002;1.058138e-001
7.019915e+002;1.039508e-001
7.039200e+002;1.023494e-001
7.058486e+002;1.015860e-001
7.077771e+002;1.008404e-001
7.097057e+002;9.920821e-002
7.116342e+002;9.861832e-002
7.135627e+002;9.891202e-002
7.154913e+002;9.860767e-002
7.174199e+002;9.693971e-002
7.193484e+002;9.606525e-002
7.212770e+002;9.568124e-002
7.232055e+002;9.449003e-002
7.251340e+002;9.278784e-002
7.270626e+002;9.181755e-002
7.289911e+002;9.131876e-002
7.309197e+002;9.019041e-002
7.328483e+002;8.780992e-002
7.347768e+002;8.502889e-002
7.367053e+002;8.301783e-002
7.386339e+002;8.159649e-002
7.405624e+002;8.017571e-002
7.424910e+002;7.912036e-002
7.444196e+002;7.916509e-002
7.463481e+002;7.900915e-002
7.482766e+002;7.828928e-002
7.502052e+002;7.772180e-002
7.521337e+002;7.708526e-002
7.540623e+002;7.708822e-002
7.559908e+002;7.729194e-002
7.579194e+002;7.745610e-002
7.598479e+002;7.727946e-002
7.617765e+002;7.621911e-002
7.637050e+002;7.549830e-002
7.656335e+002;7.566703e-002
7.675621e+002;7.535414e-002
7.694907e+002;7.525267e-002
7.714192e+002;7.532695e-002
7.733478e+002;7.483312e-002
7.752763e+002;7.476569e-002
7.772048e+002;7.506566e-002
7.791334e+002;7.538032e-002
7.810620e+002;7.634163e-002
7.829905e+002;7.668895e-002
7.849191e+002;7.634072e-002
7.868476e+002;7.637268e-002
7.887761e+002;7.649674e-002
7.907047e+002;7.692911e-002
7.926332e+002;7.736625e-002
7.945618e+002;7.762896e-002
7.964903e+002;7.835936e-002
7.984189e+002;7.964684e-002
8.003474e+002;8.057757e-002
8.022759e+002;8.087453e-002
8.042045e+002;8.177349e-002
8.061331e+002;8.318510e-002
8.080616e+002;8.427827e-002
8.099902e+002;8.527620e-002
8.119187e+002;8.665998e-002
8.138472e+002;8.746968e-002
8.157758e+002;8.863246e-002
8.177043e+002;9.010127e-002
8.196329e+002;9.205069e-002
8.215615e+002;9.428707e-002
8.234900e+002;9.692136e-002
8.254185e+002;1.007832e-001
8.273471e+002;1.049620e-001
8.292756e+002;1.090887e-001
8.312042e+002;1.133561e-001
8.331328e+002;1.175171e-001
8.350613e+002;1.211977e-001
8.369898e+002;1.238636e-001
8.389184e+002;1.251566e-001
8.408469e+002;1.248995e-001
8.427755e+002;1.232757e-001
8.447040e+002;1.206944e-001
8.466326e+002;1.174981e-001
8.485611e+002;1.142532e-001
8.504897e+002;1.120216e-001
8.524182e+002;1.103643e-001
8.543467e+002;1.092965e-001
8.562753e+002;1.094224e-001
8.582039e+002;1.104629e-001
8.601324e+002;1.125564e-001
8.620610e+002;1.157753e-001
8.639895e+002;1.196884e-001
8.659180e+002;1.243240e-001
8.678466e+002;1.292745e-001
8.697751e+002;1.346922e-001
8.717037e+002;1.410552e-001
8.736323e+002;1.469751e-001
8.755608e+002;1.514759e-001
8.774893e+002;1.552370e-001
8.794179e+002;1.581774e-001
8.813464e+002;1.607511e-001
8.832750e+002;1.638484e-001
8.852036e+002;1.672158e-001
8.871321e+002;1.723087e-001
8.890606e+002;1.779584e-001
8.909892e+002;1.837199e-001
8.929177e+002;1.901756e-001
8.948463e+002;1.964553e-001
8.967748e+002;2.014023e-001
8.987034e+002;2.035946e-001
9.006319e+002;2.031276e-001
9.025605e+002;1.999959e-001
9.044890e+002;1.947503e-001
9.064175e+002;1.887048e-001
9.083461e+002;1.823705e-001
9.102747e+002;1.759144e-001
9.122032e+002;1.702617e-001
9.141318e+002;1.652311e-001
9.160603e+002;1.605931e-001
9.179888e+002;1.572186e-001
9.199174e+002;1.549614e-001
9.218459e+002;1.527732e-001
9.237745e+002;1.505297e-001
9.257031e+002;1.483028e-001
9.276316e+002;1.470071e-001
9.295601e+002;1.467574e-001
9.314887e+002;1.464678e-001
9.334172e+002;1.459772e-001
9.353458e+002;1.463690e-001
9.372744e+002;1.477471e-001
9.392029e+002;1.491311e-001
9.411314e+002;1.505087e-001
9.430600e+002;1.524997e-001
9.449885e+002;1.545507e-001
9.469171e+002;1.566845e-001
9.488456e+002;1.587703e-001
9.507742e+002;1.607389e-001
9.527027e+002;1.625182e-001
9.546313e+002;1.641563e-001
9.565598e+002;1.658686e-001
9.584883e+002;1.672319e-001
9.604169e+002;1.690635e-001
9.623455e+002;1.721824e-001
9.642740e+002;1.760849e-001
9.662026e+002;1.807074e-001
9.681311e+002;1.864784e-001
9.700596e+002;1.932460e-001
9.719882e+002;2.003204e-001
9.739167e+002;2.076628e-001
9.758453e+002;2.156566e-001
9.777739e+002;2.234131e-001
9.797024e+002;2.308742e-001
9.816309e+002;2.378485e-001
9.835595e+002;2.441645e-001
9.854880e+002;2.502131e-001
9.874166e+002;2.553813e-001
9.893452e+002;2.599862e-001
9.912737e+002;2.643844e-001
9.932022e+002;2.690892e-001
9.951307e+002;2.743131e-001
9.970593e+002;2.803682e-001
9.989879e+002;2.881669e-001
1.000916e+003;2.978104e-001
1.002845e+003;3.085247e-001
1.004773e+003;3.202934e-001
1.006702e+003;3.335222e-001
1.008631e+003;3.485877e-001
1.010559e+003;3.649670e-001
1.012488e+003;3.817934e-001
1.014416e+003;3.989013e-001
1.016345e+003;4.173192e-001
1.018273e+003;4.370185e-001
1.020202e+003;4.565006e-001
1.022130e+003;4.756786e-001
1.024059e+003;4.943044e-001
1.025988e+003;5.118196e-001
1.027916e+003;5.269608e-001
1.029845e+003;5.383385e-001
1.031773e+003;5.450041e-001
1.033702e+003;5.477372e-001
1.035630e+003;5.473071e-001
1.037559e+003;5.433091e-001
1.039487e+003;5.370926e-001
1.041416e+003;5.288990e-001
1.043344e+003;5.186298e-001
1.045273e+003;5.064310e-001
1.047202e+003;4.924682e-001
1.049130e+003;4.767509e-001
1.051059e+003;4.603482e-001
1.052987e+003;4.441446e-001
1.054916e+003;4.275575e-001
1.056844e+003;4.113697e-001
1.058773e+003;3.965324e-001
1.060701e+003;3.836541e-001
1.062630e+003;3.723237e-001
1.064558e+003;3.622423e-001
1.066487e+003;3.533015e-001
1.068416e+003;3.442691e-001
1.070344e+003;3.354272e-001
1.072273e+003;3.265944e-001
1.074201e+003;3.168721e-001
1.076130e+003;3.074654e-001
1.078058e+003;2.987652e-001
1.079987e+003;2.902065e-001
1.081915e+003;2.819052e-001
1.083844e+003;2.730965e-001
1.085773e+003;2.644019e-001
1.087701e+003;2.558953e-001
1.089630e+003;2.476289e-001
1.091558e+003;2.392024e-001
1.093487e+003;2.308928e-001
1.095415e+003;2.237002e-001
1.097344e+003;2.178874e-001
1.099272e+003;2.128276e-001
1.101201e+003;2.084699e-001
1.103129e+003;2.052416e-001
1.105058e+003;2.027125e-001
1.106987e+003;2.009407e-001
1.108915e+003;1.995814e-001
1.110844e+003;1.985453e-001
1.112772e+003;1.983086e-001
1.114701e+003;1.976081e-001
1.116629e+003;1.960331e-001
1.118558e+003;1.949322e-001
1.120486e+003;1.938629e-001
1.122415e+003;1.922409e-001
1.124344e+003;1.901651e-001
1.126272e+003;1.880826e-001
1.128201e+003;1.860387e-001
1.130129e+003;1.830277e-001
1.132058e+003;1.794697e-001
1.133986e+003;1.765441e-001
1.135915e+003;1.747694e-001
1.137843e+003;1.740354e-001
1.139772e+003;1.733255e-001
1.141700e+003;1.729622e-001
1.143629e+003;1.731825e-001
1.145557e+003;1.743264e-001
1.147486e+003;1.762569e-001
1.149415e+003;1.783103e-001
1.151343e+003;1.802144e-001
1.153272e+003;1.824928e-001
1.155200e+003;1.849468e-001
1.157129e+003;1.869497e-001
1.159057e+003;1.881947e-001
1.160986e+003;1.891034e-001
1.162914e+003;1.894150e-001
1.164843e+003;1.890301e-001
1.166771e+003;1.880013e-001
1.168700e+003;1.865115e-001
1.170629e+003;1.849346e-001
1.172557e+003;1.832500e-001
1.174486e+003;1.814443e-001
1.176414e+003;1.794234e-001
1.178343e+003;1.779843e-001
1.180271e+003;1.775574e-001
1.182200e+003;1.783885e-001
1.184128e+003;1.810200e-001
1.186057e+003;1.859397e-001
1.187986e+003;1.930653e-001
1.189914e+003;2.028693e-001
1.191843e+003;2.165354e-001
1.193771e+003;2.344586e-001
1.195700e+003;2.562526e-001
1.197628e+003;2.819413e-001
1.199557e+003;3.113313e-001
1.201485e+003;3.432476e-001
1.203414e+003;3.762866e-001
1.205343e+003;4.082594e-001
1.207271e+003;4.364823e-001
1.209200e+003;4.598763e-001
1.211128e+003;4.775111e-001
1.213057e+003;4.895830e-001
1.214985e+003;4.965125e-001
1.216914e+003;4.990803e-001
1.218842e+003;4.989353e-001
1.220771e+003;4.977337e-001
1.222699e+003;4.949162e-001
1.224628e+003;4.903659e-001
1.226557e+003;4.841256e-001
1.228485e+003;4.761064e-001
1.230414e+003;4.650240e-001
1.232342e+003;4.508708e-001
1.234271e+003;4.347177e-001
1.236199e+003;4.168405e-001
1.238128e+003;3.980837e-001
1.240056e+003;3.790944e-001
1.241985e+003;3.600534e-001
1.243913e+003;3.411145e-001
1.245842e+003;3.226631e-001
1.247771e+003;3.052391e-001
1.249699e+003;2.886808e-001
1.251628e+003;2.727910e-001
1.253556e+003;2.577579e-001
1.255485e+003;2.438785e-001
1.257413e+003;2.308695e-001
1.259342e+003;2.182902e-001
1.261270e+003;2.063461e-001
1.263199e+003;1.949909e-001
1.265127e+003;1.850349e-001
1.267056e+003;1.759806e-001
1.268985e+003;1.672634e-001
1.270913e+003;1.593692e-001
1.272842e+003;1.522081e-001
1.274770e+003;1.457979e-001
1.276699e+003;1.400720e-001
1.278627e+003;1.348604e-001
1.280556e+003;1.301321e-001
1.282484e+003;1.256852e-001
1.284413e+003;1.220116e-001
1.286342e+003;1.186792e-001
1.288270e+003;1.155308e-001
1.290199e+003;1.126739e-001
1.292127e+003;1.102828e-001
1.294056e+003;1.082121e-001
1.295984e+003;1.061663e-001
1.297913e+003;1.043324e-001
1.299841e+003;1.026982e-001
1.301770e+003;1.013318e-001
1.303698e+003;1.004639e-001
1.305627e+003;9.988868e-002
1.307556e+003;9.939825e-002
1.309484e+003;9.899645e-002
1.311413e+003;9.888094e-002
1.313341e+003;9.910613e-002
1.315270e+003;9.943082e-002
1.317198e+003;9.947198e-002
1.319127e+003;9.920625e-002
1.321055e+003;9.908990e-002
1.322984e+003;9.893046e-002
1.324912e+003;9.831563e-002
1.326841e+003;9.771886e-002
1.328770e+003;9.720289e-002
1.330698e+003;9.679750e-002
1.332627e+003;9.655654e-002
1.334555e+003;9.641168e-002
1.336484e+003;9.632295e-002
1.338412e+003;9.600193e-002
1.340341e+003;9.592345e-002
1.342269e+003;9.655314e-002
1.344198e+003;9.768608e-002
1.346126e+003;9.970498e-002
1.348055e+003;1.034101e-001
1.349984e+003;1.088214e-001
1.351912e+003;1.165292e-001
1.353841e+003;1.276882e-001
1.355769e+003;1.427937e-001
1.357698e+003;1.611917e-001
1.359626e+003;1.812227e-001
1.361555e+003;2.002036e-001
1.363483e+003;2.147713e-001
1.365412e+003;2.226195e-001
1.367341e+003;2.241616e-001
1.369269e+003;2.207818e-001
1.371198e+003;2.138645e-001
1.373126e+003;2.047765e-001
1.375055e+003;1.948335e-001
1.376983e+003;1.847468e-001
1.378912e+003;1.743355e-001
1.380840e+003;1.636549e-001
1.382769e+003;1.531919e-001
1.384698e+003;1.426373e-001
1.386626e+003;1.325029e-001
1.388555e+003;1.237360e-001
1.390483e+003;1.163223e-001
1.392412e+003;1.099815e-001
1.394340e+003;1.049908e-001
1.396269e+003;1.015950e-001
1.398197e+003;9.926464e-002
1.400126e+003;9.757888e-002
1.402054e+003;9.659432e-002
1.403983e+003;9.633854e-002
1.405911e+003;9.641283e-002
1.407840e+003;9.679128e-002
1.409769e+003;9.742385e-002
1.411697e+003;9.833629e-002
1.413626e+003;9.930433e-002
1.415554e+003;1.004476e-001
1.417483e+003;1.017403e-001
1.419411e+003;1.035053e-001
1.421340e+003;1.060890e-001
1.423268e+003;1.089503e-001
1.425197e+003;1.116498e-001
1.427125e+003;1.136909e-001
1.429054e+003;1.148257e-001
1.430983e+003;1.154436e-001
1.432911e+003;1.152998e-001
1.434840e+003;1.139675e-001
1.436768e+003;1.119917e-001
1.438697e+003;1.100160e-001
1.440625e+003;1.076620e-001
1.442554e+003;1.050519e-001
1.444482e+003;1.024235e-001
1.446411e+003;9.966659e-002
1.448340e+003;9.716936e-002
1.450268e+003;9.523497e-002
1.452197e+003;9.322992e-002
1.454125e+003;9.086445e-002
1.456054e+003;8.805740e-002
1.457982e+003;8.596550e-002
1.459911e+003;8.451485e-002
1.461839e+003;8.278075e-002
1.463768e+003;8.042570e-002
1.465697e+003;7.784573e-002
1.467625e+003;7.591195e-002
1.469554e+003;7.409990e-002
1.471482e+003;7.198530e-002
1.473411e+003;7.027978e-002
1.475339e+003;6.926414e-002
1.477268e+003;6.842749e-002
1.479196e+003;6.751080e-002
1.481125e+003;6.661740e-002
1.483053e+003;6.604374e-002
1.484982e+003;6.537003e-002
1.486911e+003;6.471963e-002
1.488839e+003;6.403434e-002
1.490768e+003;6.342839e-002
1.492696e+003;6.313419e-002
1.494625e+003;6.264774e-002
1.496553e+003;6.213221e-002
1.498482e+003;6.223594e-002
1.500410e+003;6.245675e-002
1.502339e+003;6.232837e-002
1.504267e+003;6.158070e-002
1.506196e+003;6.071157e-002
1.508125e+003;6.118269e-002
1.510053e+003;6.176321e-002
1.511982e+003;6.175894e-002
1.513910e+003;6.162473e-002
1.515839e+003;6.139507e-002
1.517767e+003;6.131596e-002
1.519696e+003;6.105831e-002
1.521624e+003;6.078047e-002
1.523553e+003;6.116511e-002
1.525481e+003;6.152523e-002
1.527410e+003;6.185100e-002
1.529339e+003;6.205193e-002
1.531267e+003;6.186009e-002
1.533196e+003;6.166204e-002
1.535124e+003;6.190266e-002
1.537053e+003;6.141758e-002
1.538981e+003;5.995412e-002
1.540910e+003;5.964953e-002
1.542838e+003;6.049834e-002
1.544767e+003;6.127417e-002
1.546695e+003;6.182208e-002
1.548624e+003;6.181058e-002
1.550553e+003;6.161281e-002
1.552481e+003;6.162007e-002
1.554410e+003;6.152080e-002
1.556338e+003;6.107616e-002
1.558267e+003;6.010041e-002
1.560195e+003;6.046612e-002
1.562124e+003;6.180531e-002
1.564052e+003;6.217388e-002
1.565981e+003;6.216745e-002
1.567910e+003;6.175294e-002
1.569838e+003;6.139312e-002
1.571767e+003;6.159319e-002
1.573695e+003;6.152618e-002
1.575624e+003;6.106674e-002
1.577552e+003;6.153733e-002
1.579481e+003;6.233384e-002
1.581409e+003;6.263921e-002
1.583338e+003;6.295244e-002
1.585266e+003;6.308863e-002
1.587195e+003;6.310710e-002
1.589124e+003;6.344959e-002
1.591052e+003;6.401902e-002
1.592981e+003;6.443471e-002
1.594909e+003;6.489408e-002
1.596838e+003;6.553688e-002
1.598766e+003;6.611365e-002
1.600695e+003;6.652065e-002
1.602623e+003;6.714746e-002
1.604552e+003;6.792887e-002
1.606480e+003;6.841290e-002
1.608409e+003;6.873705e-002
1.610338e+003;6.902011e-002
1.612266e+003;6.951601e-002
1.614195e+003;6.993011e-002
1.616123e+003;7.007469e-002
1.618052e+003;7.095085e-002
1.619980e+003;7.195918e-002
1.621909e+003;7.240090e-002
1.623837e+003;7.284676e-002
1.625766e+003;7.363486e-002
1.627694e+003;7.444724e-002
1.629623e+003;7.524247e-002
1.631552e+003;7.589127e-002
1.633480e+003;7.599889e-002
1.635409e+003;7.582474e-002
1.637337e+003;7.669267e-002
1.639266e+003;7.803283e-002
1.641194e+003;7.892124e-002
1.643123e+003;7.942010e-002
1.645051e+003;7.944827e-002
1.646980e+003;7.973801e-002
1.648909e+003;8.053868e-002
1.650837e+003;8.010610e-002
1.652766e+003;7.888269e-002
1.654694e+003;7.985371e-002
1.656623e+003;8.116917e-002
1.658551e+003;8.140138e-002
1.660480e+003;8.147040e-002
1.662408e+003;8.191599e-002
1.664337e+003;8.258430e-002
1.666266e+003;8.301739e-002
1.668194e+003;8.324362e-002
1.670123e+003;8.392692e-002
1.672051e+003;8.516154e-002
1.673980e+003;8.627469e-002
1.675908e+003;8.743864e-002
1.677837e+003;8.918737e-002
1.679765e+003;9.076492e-002
1.681694e+003;9.220140e-002
1.683622e+003;9.337935e-002
1.685551e+003;9.587643e-002
1.687479e+003;9.935876e-002
1.689408e+003;1.027636e-001
1.691337e+003;1.063677e-001
1.693265e+003;1.098296e-001
1.695194e+003;1.131818e-001
1.697122e+003;1.180733e-001
1.699051e+003;1.235769e-001
1.700979e+003;1.298935e-001
1.702908e+003;1.374683e-001
1.704836e+003;1.450029e-001
1.706765e+003;1.537728e-001
1.708693e+003;1.638396e-001
1.710622e+003;1.748374e-001
1.712551e+003;1.869370e-001
1.714479e+003;2.001647e-001
1.716408e+003;2.145638e-001
1.718336e+003;2.307966e-001
1.720265e+003;2.480747e-001
1.722193e+003;2.653991e-001
1.724122e+003;2.830507e-001
1.726050e+003;3.000253e-001
1.727979e+003;3.158905e-001
1.729908e+003;3.301418e-001
1.731836e+003;3.416504e-001
1.733765e+003;3.497743e-001
1.735693e+003;3.553302e-001
1.737622e+003;3.569852e-001
1.739550e+003;3.546731e-001
1.741479e+003;3.496054e-001
1.743407e+003;3.419660e-001
1.745336e+003;3.321805e-001
1.747265e+003;3.208925e-001
1.749193e+003;3.079975e-001
1.751122e+003;2.935831e-001
1.753050e+003;2.783239e-001
1.754979e+003;2.614250e-001
1.756907e+003;2.420395e-001
1.758836e+003;2.217646e-001
1.760764e+003;2.010139e-001
1.762693e+003;1.803358e-001
1.764621e+003;1.613507e-001
1.766550e+003;1.443042e-001
1.768479e+003;1.294397e-001
1.770407e+003;1.170037e-001
1.772336e+003;1.066419e-001
1.774264e+003;9.878372e-002
1.776193e+003;9.248296e-002
1.778121e+003;8.745092e-002
1.780050e+003;8.336560e-002
1.781978e+003;7.961954e-002
1.783907e+003;7.658788e-002
1.785835e+003;7.428943e-002
1.787764e+003;7.235871e-002
1.789693e+003;7.039794e-002
1.791621e+003;6.871524e-002
1.793550e+003;6.781483e-002
1.795478e+003;6.713895e-002
1.797407e+003;6.610751e-002
1.799335e+003;6.506394e-002
1.801264e+003;6.433871e-002
1.803192e+003;6.383786e-002
1.805121e+003;6.327718e-002
1.807049e+003;6.264628e-002
1.808978e+003;6.190178e-002
1.810907e+003;6.128219e-002
1.812835e+003;6.075223e-002
1.814764e+003;6.033883e-002
1.816692e+003;5.991840e-002
1.818621e+003;5.940541e-002
1.820549e+003;5.881221e-002
1.822478e+003;5.841051e-002
1.824406e+003;5.794359e-002
1.826335e+003;5.756104e-002
1.828264e+003;5.711072e-002
1.830192e+003;5.661179e-002
1.832121e+003;5.647026e-002
1.834049e+003;5.630792e-002
1.835978e+003;5.595801e-002
1.837906e+003;5.557976e-002
1.839835e+003;5.522073e-002
1.841763e+003;5.472896e-002
1.843692e+003;5.428202e-002
1.845620e+003;5.418280e-002
1.847549e+003;5.422274e-002
1.849478e+003;5.417961e-002
1.851406e+003;5.409276e-002
1.853335e+003;5.391029e-002
1.855263e+003;5.368486e-002
1.857192e+003;5.342481e-002
1.859120e+003;5.325371e-002
1.861049e+003;5.303191e-002
1.862977e+003;5.292096e-002
1.864906e+003;5.286598e-002
1.866834e+003;5.254635e-002
1.868763e+003;5.216456e-002
1.870692e+003;5.218720e-002
1.872620e+003;5.237089e-002
1.874549e+003;5.214110e-002
1.876477e+003;5.174134e-002
1.878406e+003;5.144160e-002
1.880334e+003;5.133266e-002
1.882263e+003;5.132643e-002
1.884191e+003;5.136301e-002
1.886120e+003;5.125006e-002
1.888048e+003;5.084352e-002
1.889977e+003;5.062935e-002
1.891906e+003;5.084348e-002
1.893834e+003;5.100875e-002
1.895763e+003;5.107024e-002
1.897691e+003;5.094701e-002
1.899620e+003;5.073536e-002
1.901548e+003;5.073164e-002
1.903477e+003;5.101673e-002
1.905405e+003;5.121688e-002
1.907334e+003;5.123441e-002
1.909262e+003;5.116201e-002
1.911191e+003;5.131237e-002
1.913120e+003;5.149871e-002
1.915048e+003;5.160411e-002
1.916977e+003;5.157620e-002
1.918905e+003;5.167184e-002
1.920834e+003;5.205271e-002
1.922762e+003;5.203975e-002
1.924691e+003;5.193779e-002
1.926619e+003;5.200005e-002
1.928548e+003;5.200162e-002
1.930477e+003;5.192693e-002
1.932405e+003;5.210860e-002
1.934334e+003;5.222166e-002
1.936262e+003;5.210157e-002
1.938191e+003;5.197114e-002
1.940119e+003;5.202631e-002
1.942048e+003;5.218179e-002
1.943976e+003;5.230178e-002
1.945905e+003;5.214999e-002
1.947833e+003;5.187487e-002
1.949762e+003;5.170241e-002
1.951691e+003;5.165975e-002
1.953619e+003;5.154833e-002
1.955548e+003;5.139792e-002
1.957476e+003;5.133284e-002
1.959405e+003;5.140922e-002
1.961333e+003;5.130965e-002
1.963262e+003;5.116767e-002
1.965190e+003;5.090782e-002
1.967119e+003;5.062474e-002
1.969047e+003;5.055129e-002
1.970976e+003;5.047818e-002
1.972905e+003;5.036409e-002
1.974833e+003;5.005002e-002
1.976762e+003;4.988240e-002
1.978690e+003;4.990555e-002
1.980619e+003;4.975389e-002
1.982547e+003;4.924471e-002
1.984476e+003;4.909106e-002
1.986404e+003;4.915914e-002
1.988333e+003;4.894487e-002
1.990261e+003;4.867585e-002
1.992190e+003;4.861619e-002
1.994119e+003;4.868879e-002
1.996047e+003;4.883377e-002
1.997976e+003;4.892607e-002
1.999904e+003;4.898804e-002
2.001833e+003;4.904279e-002
2.003761e+003;4.925091e-002
2.005690e+003;4.946243e-002
2.007618e+003;4.958784e-002
2.009547e+003;4.958732e-002
2.011476e+003;4.948389e-002
2.013404e+003;4.962119e-002
2.015333e+003;4.997674e-002
2.017261e+003;5.017169e-002
2.019190e+003;5.020148e-002
2.021118e+003;5.026948e-002
2.023047e+003;5.029243e-002
2.024975e+003;5.037775e-002
2.026904e+003;5.029775e-002
2.028833e+003;5.045005e-002
2.030761e+003;5.094250e-002
2.032690e+003;5.099083e-002
2.034618e+003;5.070144e-002
2.036547e+003;5.070546e-002
2.038475e+003;5.072702e-002
2.040404e+003;5.080009e-002
2.042332e+003;5.098271e-002
2.044261e+003;5.097850e-002
2.046189e+003;5.090908e-002
2.048118e+003;5.079588e-002
2.050047e+003;5.093442e-002
2.051975e+003;5.103871e-002
2.053904e+003;5.116413e-002
2.055832e+003;5.151490e-002
2.057761e+003;5.152385e-002
2.059689e+003;5.139430e-002
2.061618e+003;5.130032e-002
2.063546e+003;5.105284e-002
2.065475e+003;5.111825e-002
2.067404e+003;5.135555e-002
2.069332e+003;5.145025e-002
2.071260e+003;5.181267e-002
2.073189e+003;5.214442e-002
2.075118e+003;5.212783e-002
2.077046e+003;5.206127e-002
2.078975e+003;5.213602e-002
2.080903e+003;5.227289e-002
2.082832e+003;5.233923e-002
2.084760e+003;5.264184e-002
2.086689e+003;5.305879e-002
2.088617e+003;5.327607e-002
2.090546e+003;5.352850e-002
2.092475e+003;5.369700e-002
2.094403e+003;5.384086e-002
2.096332e+003;5.409685e-002
2.098260e+003;5.423843e-002
2.100189e+003;5.436609e-002
2.102117e+003;5.464373e-002
2.104046e+003;5.493791e-002
2.105974e+003;5.500300e-002
2.107903e+003;5.508044e-002
2.109832e+003;5.533204e-002
2.111760e+003;5.546337e-002
2.113688e+003;5.550227e-002
2.115617e+003;5.553898e-002
2.117546e+003;5.549180e-002
2.119474e+003;5.543518e-002
2.121403e+003;5.547738e-002
2.123331e+003;5.539851e-002
2.125260e+003;5.518766e-002
2.127188e+003;5.498104e-002
2.129117e+003;5.495178e-002
2.131045e+003;5.514883e-002
2.132974e+003;5.516791e-002
2.134903e+003;5.490343e-002
2.136831e+003;5.461672e-002
2.138760e+003;5.440075e-002
2.140688e+003;5.416925e-002
2.142617e+003;5.390268e-002
2.144545e+003;5.375006e-002
2.146474e+003;5.340116e-002
2.148402e+003;5.306384e-002
2.150331e+003;5.277707e-002
2.152260e+003;5.256531e-002
2.154188e+003;5.263619e-002
2.156117e+003;5.248323e-002
2.158045e+003;5.206074e-002
2.159974e+003;5.169800e-002
2.161902e+003;5.153091e-002
2.163831e+003;5.132576e-002
2.165759e+003;5.110461e-002
2.167688e+003;5.087772e-002
2.169616e+003;5.056271e-002
2.171545e+003;5.017329e-002
2.173474e+003;4.998399e-002
2.175402e+003;4.986872e-002
2.177331e+003;4.954799e-002
2.179259e+003;4.939111e-002
2.181188e+003;4.919595e-002
2.183116e+003;4.904060e-002
2.185045e+003;4.892429e-002
2.186973e+003;4.886666e-002
2.188902e+003;4.855460e-002
2.190831e+003;4.815856e-002
2.192759e+003;4.799930e-002
2.194688e+003;4.805008e-002
2.196616e+003;4.796640e-002
2.198545e+003;4.786299e-002
2.200473e+003;4.800167e-002
2.202402e+003;4.805918e-002
2.204330e+003;4.797495e-002
2.206259e+003;4.785955e-002
2.208188e+003;4.785518e-002
2.210116e+003;4.772262e-002
2.212044e+003;4.758447e-002
2.213973e+003;4.748400e-002
2.215902e+003;4.741559e-002
2.217830e+003;4.720975e-002
2.219759e+003;4.713725e-002
2.221687e+003;4.726612e-002
2.223616e+003;4.737253e-002
2.225544e+003;4.734597e-002
2.227473e+003;4.733791e-002
2.229401e+003;4.712063e-002
2.231330e+003;4.684845e-002
2.233259e+003;4.680586e-002
2.235187e+003;4.682236e-002
2.237116e+003;4.697326e-002
2.239044e+003;4.713064e-002
2.240973e+003;4.704518e-002
2.242901e+003;4.694402e-002
2.244830e+003;4.693261e-002
2.246758e+003;4.693287e-002
2.248687e+003;4.691951e-002
2.250615e+003;4.684675e-002
2.252544e+003;4.688090e-002
2.254473e+003;4.696322e-002
2.256401e+003;4.684827e-002
2.258330e+003;4.671863e-002
2.260258e+003;4.688241e-002
2.262187e+003;4.717772e-002
2.264115e+003;4.704016e-002
2.266044e+003;4.677505e-002
2.267972e+003;4.674929e-002
2.269901e+003;4.673235e-002
2.271830e+003;4.655019e-002
2.273758e+003;4.640578e-002
2.275687e+003;4.624450e-002
2.277615e+003;4.620359e-002
2.279544e+003;4.622375e-002
2.281472e+003;4.605024e-002
2.283401e+003;4.569959e-002
2.285329e+003;4.558762e-002
2.287258e+003;4.549357e-002
2.289187e+003;4.515469e-002
2.291115e+003;4.513417e-002
2.293043e+003;4.500299e-002
2.294972e+003;4.465791e-002
2.296901e+003;4.438137e-002
2.298829e+003;4.407746e-002
2.300758e+003;4.392196e-002
2.302686e+003;4.412206e-002
2.304615e+003;4.414788e-002
2.306543e+003;4.385773e-002
2.308472e+003;4.386426e-002
2.310400e+003;4.402564e-002
2.312329e+003;4.368706e-002
2.314258e+003;4.353203e-002
2.316186e+003;4.358734e-002
2.318115e+003;4.342256e-002
2.320043e+003;4.357122e-002
2.321972e+003;4.357683e-002
2.323900e+003;4.355342e-002
2.325829e+003;4.355969e-002
2.327757e+003;4.339038e-002
2.329686e+003;4.329808e-002
2.331615e+003;4.328168e-002
2.333543e+003;4.318655e-002
2.335472e+003;4.340726e-002
2.337400e+003;4.389853e-002
2.339329e+003;4.424858e-002
2.341257e+003;4.438086e-002
2.343186e+003;4.437803e-002
2.345114e+003;4.445536e-002
2.347043e+003;4.452970e-002
2.348971e+003;4.452867e-002
2.350900e+003;4.452779e-002
2.352829e+003;4.460019e-002
2.354757e+003;4.461480e-002
2.356686e+003;4.462281e-002
2.358614e+003;4.487830e-002
2.360543e+003;4.496469e-002
2.362471e+003;4.476251e-002
2.364400e+003;4.464741e-002
2.366328e+003;4.466952e-002
2.368257e+003;4.456722e-002
2.370186e+003;4.441308e-002
2.372114e+003;4.448389e-002
2.374042e+003;4.454376e-002
2.375971e+003;4.454354e-002
2.377900e+003;4.451883e-002
2.379828e+003;4.437425e-002
2.381757e+003;4.437359e-002
2.383685e+003;4.459200e-002
2.385614e+003;4.476141e-002
2.387542e+003;4.481971e-002
2.389471e+003;4.493926e-002
2.391399e+003;4.493489e-002
2.393328e+003;4.484127e-002
2.395257e+003;4.505168e-002
2.397185e+003;4.517619e-002
2.399114e+003;4.529305e-002
2.401042e+003;4.556988e-002
2.402971e+003;4.591741e-002
2.404899e+003;4.612333e-002
2.406828e+003;4.644170e-002
2.408756e+003;4.680273e-002
2.410685e+003;4.695694e-002
2.412614e+003;4.691844e-002
2.414542e+003;4.690877e-002
2.416471e+003;4.687547e-002
2.418399e+003;4.660404e-002
2.420328e+003;4.648093e-002
2.422256e+003;4.654399e-002
2.424185e+003;4.661168e-002
2.426113e+003;4.665488e-002
2.428042e+003;4.681273e-002
2.429970e+003;4.685237e-002
2.431899e+003;4.678228e-002
2.433828e+003;4.683539e-002
2.435756e+003;4.668664e-002
2.437685e+003;4.658578e-002
2.439613e+003;4.682882e-002
2.441542e+003;4.695447e-002
2.443470e+003;4.694627e-002
2.445399e+003;4.693690e-002
2.447327e+003;4.691678e-002
2.449256e+003;4.675830e-002
2.451185e+003;4.664540e-002
2.453113e+003;4.673704e-002
2.455042e+003;4.687699e-002
2.456970e+003;4.667963e-002
2.458899e+003;4.667052e-002
2.460827e+003;4.698319e-002
2.462756e+003;4.686019e-002
2.464684e+003;4.655277e-002
2.466613e+003;4.665016e-002
2.468542e+003;4.681852e-002
2.470470e+003;4.658047e-002
2.472398e+003;4.637286e-002
2.474327e+003;4.636338e-002
2.476256e+003;4.634934e-002
2.478184e+003;4.639756e-002
2.480113e+003;4.648945e-002
2.482041e+003;4.636578e-002
2.483970e+003;4.610605e-002
2.485898e+003;4.602541e-002
2.487827e+003;4.603252e-002
2.489755e+003;4.581522e-002
2.491684e+003;4.555108e-002
2.493613e+003;4.557165e-002
2.495541e+003;4.536595e-002
2.497470e+003;4.510395e-002
2.499398e+003;4.496021e-002
2.501327e+003;4.501985e-002
2.503255e+003;4.503386e-002
2.505184e+003;4.493687e-002
2.507112e+003;4.466647e-002
2.509041e+003;4.434471e-002
2.510969e+003;4.435458e-002
2.512898e+003;4.445856e-002
2.514827e+003;4.468586e-002
2.516755e+003;4.472064e-002
2.518684e+003;4.460727e-002
2.520612e+003;4.449864e-002
2.522541e+003;4.418177e-002
2.524469e+003;4.407644e-002
2.526398e+003;4.393948e-002
2.528326e+003;4.392368e-002
2.530255e+003;4.420760e-002
2.532184e+003;4.432097e-002
2.534112e+003;4.429356e-002
2.536041e+003;4.417114e-002
2.537969e+003;4.392214e-002
2.539898e+003;4.368461e-002
2.541826e+003;4.365841e-002
2.543755e+003;4.382339e-002
2.545683e+003;4.391928e-002
2.547612e+003;4.397079e-002
2.549541e+003;4.391305e-002
2.551469e+003;4.397647e-002
2.553397e+003;4.406378e-002
2.555326e+003;4.408623e-002
2.557255e+003;4.416211e-002
2.559183e+003;4.429539e-002
2.561112e+003;4.447992e-002
2.563040e+003;4.455903e-002
2.564969e+003;4.470275e-002
2.566897e+003;4.494488e-002
2.568826e+003;4.495892e-002
2.570754e+003;4.498523e-002
2.572683e+003;4.535197e-002
2.574612e+003;4.539986e-002
2.576540e+003;4.522484e-002
2.578469e+003;4.527095e-002
2.580397e+003;4.563392e-002
2.582326e+003;4.589229e-002
2.584254e+003;4.599015e-002
2.586183e+003;4.605963e-002
2.588111e+003;4.616648e-002
2.590040e+003;4.642020e-002
2.591969e+003;4.640700e-002
2.593897e+003;4.628177e-002
2.595826e+003;4.636080e-002
2.597754e+003;4.632766e-002
2.599683e+003;4.643211e-002
2.601611e+003;4.662850e-002
2.603540e+003;4.658966e-002
2.605468e+003;4.668424e-002
2.607397e+003;4.676317e-002
2.609325e+003;4.675922e-002
2.611254e+003;4.676833e-002
2.613183e+003;4.704703e-002
2.615111e+003;4.750381e-002
2.617040e+003;4.768297e-002
2.618968e+003;4.777784e-002
2.620897e+003;4.773334e-002
2.622825e+003;4.761261e-002
2.624754e+003;4.764563e-002
2.626682e+003;4.756429e-002
2.628611e+003;4.757338e-002
2.630540e+003;4.777825e-002
2.632468e+003;4.807106e-002
2.634396e+003;4.839767e-002
2.636325e+003;4.852851e-002
2.638254e+003;4.821173e-002
2.640182e+003;4.816082e-002
2.642111e+003;4.829730e-002
2.644039e+003;4.821936e-002
2.645968e+003;4.827827e-002
2.647896e+003;4.832644e-002
2.649825e+003;4.807865e-002
2.651753e+003;4.813709e-002
2.653682e+003;4.843074e-002
2.655611e+003;4.830978e-002
2.657539e+003;4.802365e-002
2.659468e+003;4.785167e-002
2.661396e+003;4.783321e-002
2.663325e+003;4.788607e-002
2.665253e+003;4.803490e-002
2.667182e+003;4.815168e-002
2.669110e+003;4.808957e-002
2.671039e+003;4.800385e-002
2.672968e+003;4.810685e-002
2.674896e+003;4.817604e-002
2.676825e+003;4.815009e-002
2.678753e+003;4.817600e-002
2.680682e+003;4.799571e-002
2.682610e+003;4.790261e-002
2.684539e+003;4.813121e-002
2.686467e+003;4.844315e-002
2.688396e+003;4.844675e-002
2.690324e+003;4.839689e-002
2.692253e+003;4.850765e-002
2.694182e+003;4.863279e-002
2.696110e+003;4.873794e-002
2.698039e+003;4.891713e-002
2.699967e+003;4.901215e-002
2.701896e+003;4.897002e-002
2.703824e+003;4.908761e-002
2.705753e+003;4.952132e-002
2.707681e+003;4.982661e-002
2.709610e+003;4.996837e-002
2.711539e+003;5.012018e-002
2.713467e+003;5.034627e-002
2.715396e+003;5.063829e-002
2.717324e+003;5.094932e-002
2.719253e+003;5.103536e-002
2.721181e+003;5.135011e-002
2.723110e+003;5.153001e-002
2.725038e+003;5.130819e-002
2.726967e+003;5.142153e-002
2.728896e+003;5.149453e-002
2.730824e+003;5.130838e-002
2.732752e+003;5.137364e-002
2.734681e+003;5.149908e-002
2.736610e+003;5.172943e-002
2.738538e+003;5.155672e-002
2.740467e+003;5.113282e-002
2.742395e+003;5.126688e-002
2.744324e+003;5.148267e-002
2.746252e+003;5.151811e-002
2.748181e+003;5.137010e-002
2.750109e+003;5.112354e-002
2.752038e+003;5.092242e-002
2.753967e+003;5.115064e-002
2.755895e+003;5.128496e-002
2.757824e+003;5.089582e-002
2.759752e+003;5.090525e-002
2.761681e+003;5.130991e-002
2.763609e+003;5.158478e-002
2.765538e+003;5.146819e-002
2.767466e+003;5.151826e-002
2.769395e+003;5.148729e-002
2.771323e+003;5.150830e-002
2.773252e+003;5.156978e-002
2.775181e+003;5.168587e-002
2.777109e+003;5.185699e-002
2.779038e+003;5.204304e-002
2.780966e+003;5.227132e-002
2.782895e+003;5.228885e-002
2.784823e+003;5.234839e-002
2.786752e+003;5.255712e-002
2.788680e+003;5.283877e-002
2.790609e+003;5.327592e-002
2.792538e+003;5.363259e-002
2.794466e+003;5.383718e-002
2.796395e+003;5.381161e-002
2.798323e+003;5.392781e-002
2.800252e+003;5.424159e-002
2.802180e+003;5.437510e-002
2.804109e+003;5.457268e-002
2.806037e+003;5.487613e-002
2.807966e+003;5.508101e-002
2.809895e+003;5.493012e-002
2.811823e+003;5.494005e-002
2.813751e+003;5.525930e-002
2.815680e+003;5.544222e-002
2.817609e+003;5.551627e-002
2.819537e+003;5.548562e-002
2.821466e+003;5.542324e-002
2.823394e+003;5.575027e-002
2.825323e+003;5.624120e-002
2.827251e+003;5.653619e-002
2.829180e+003;5.682560e-002
2.831108e+003;5.709617e-002
2.833037e+003;5.756036e-002
2.834966e+003;5.807114e-002
2.836894e+003;5.852283e-002
2.838823e+003;5.903277e-002
2.840751e+003;5.952396e-002
2.842680e+003;6.002469e-002
2.844608e+003;6.036792e-002
2.846537e+003;6.058020e-002
2.848465e+003;6.109866e-002
2.850394e+003;6.157196e-002
2.852323e+003;6.195680e-002
2.854251e+003;6.288362e-002
2.856180e+003;6.404363e-002
2.858108e+003;6.533972e-002
2.860037e+003;6.648922e-002
2.861965e+003;6.771189e-002
2.863894e+003;6.863444e-002
2.865822e+003;6.909303e-002
2.867751e+003;6.981495e-002
2.869679e+003;7.056147e-002
2.871608e+003;7.095924e-002
2.873536e+003;7.140467e-002
2.875465e+003;7.181283e-002
2.877394e+003;7.199285e-002
2.879322e+003;7.215745e-002
2.881251e+003;7.235694e-002
2.883179e+003;7.264841e-002
2.885108e+003;7.277571e-002
2.887036e+003;7.273333e-002
2.888965e+003;7.242106e-002
2.890893e+003;7.226900e-002
2.892822e+003;7.249302e-002
2.894750e+003;7.222725e-002
2.896679e+003;7.179559e-002
2.898608e+003;7.167424e-002
2.900536e+003;7.133004e-002
2.902465e+003;7.092885e-002
2.904393e+003;7.064470e-002
2.906322e+003;7.040265e-002
2.908250e+003;7.001707e-002
2.910179e+003;6.942363e-002
2.912107e+003;6.885872e-002
2.914036e+003;6.824057e-002
2.915965e+003;6.756054e-002
2.917893e+003;6.724980e-002
2.919822e+003;6.718474e-002
2.921750e+003;6.689549e-002
2.923679e+003;6.697965e-002
2.925607e+003;6.763022e-002
2.927536e+003;6.845406e-002
2.929464e+003;6.947681e-002
2.931393e+003;7.024861e-002
2.933322e+003;7.103232e-002
2.935250e+003;7.192821e-002
2.937178e+003;7.265334e-002
2.939107e+003;7.351632e-002
2.941036e+003;7.409153e-002
2.942964e+003;7.430005e-002
2.944893e+003;7.445447e-002
2.946821e+003;7.439623e-002
2.948750e+003;7.422999e-002
2.950678e+003;7.391810e-002
2.952607e+003;7.307154e-002
2.954535e+003;7.259169e-002
2.956464e+003;7.248350e-002
2.958393e+003;7.236211e-002
2.960321e+003;7.207796e-002
2.962250e+003;7.160374e-002
2.964178e+003;7.080063e-002
2.966107e+003;7.019105e-002
2.968035e+003;6.974931e-002
2.969964e+003;6.906941e-002
2.971892e+003;6.838211e-002
2.973821e+003;6.797025e-002
2.975750e+003;6.767351e-002
2.977678e+003;6.743417e-002
2.979607e+003;6.702453e-002
2.981535e+003;6.641875e-002
2.983464e+003;6.599984e-002
2.985392e+003;6.583001e-002
2.987321e+003;6.566097e-002
2.989249e+003;6.538895e-002
2.991178e+003;6.523875e-002
2.993106e+003;6.517703e-002
2.995035e+003;6.501825e-002
2.996964e+003;6.457094e-002
2.998892e+003;6.406537e-002
3.000821e+003;6.369016e-002
3.002749e+003;6.318474e-002
3.004678e+003;6.269030e-002
3.006606e+003;6.259420e-002
3.008535e+003;6.255447e-002
3.010463e+003;6.235461e-002
3.012392e+003;6.216566e-002
3.014321e+003;6.218822e-002
3.016249e+003;6.220917e-002
3.018177e+003;6.194817e-002
3.020106e+003;6.167331e-002
3.022035e+003;6.153829e-002
3.023963e+003;6.160835e-002
3.025892e+003;6.148366e-002
3.027820e+003;6.096470e-002
3.029749e+003;6.063296e-002
3.031677e+003;6.033259e-002
3.033606e+003;6.004455e-002
3.035534e+003;5.995488e-002
3.037463e+003;5.937259e-002
3.039392e+003;5.865149e-002
3.041320e+003;5.815742e-002
3.043249e+003;5.779387e-002
3.045177e+003;5.752503e-002
3.047106e+003;5.733684e-002
3.049034e+003;5.702290e-002
3.050963e+003;5.655540e-002
3.052891e+003;5.605602e-002
3.054820e+003;5.592258e-002
3.056749e+003;5.561249e-002
3.058677e+003;5.524184e-002
3.060606e+003;5.512329e-002
3.062534e+003;5.502297e-002
3.064463e+003;5.483707e-002
3.066391e+003;5.454176e-002
3.068320e+003;5.429760e-002
3.070248e+003;5.391659e-002
3.072177e+003;5.364092e-002
3.074105e+003;5.347420e-002
3.076034e+003;5.331945e-002
3.077963e+003;5.309545e-002
3.079891e+003;5.292036e-002
3.081820e+003;5.296325e-002
3.083748e+003;5.286680e-002
3.085677e+003;5.279447e-002
3.087605e+003;5.259508e-002
3.089534e+003;5.241818e-002
3.091462e+003;5.256520e-002
3.093391e+003;5.239945e-002
3.095320e+003;5.227506e-002
3.097248e+003;5.197469e-002
3.099177e+003;5.170502e-002
3.101105e+003;5.206074e-002
3.103034e+003;5.232073e-002
3.104962e+003;5.192155e-002
3.106891e+003;5.156803e-002
3.108819e+003;5.157012e-002
3.110748e+003;5.189795e-002
3.112677e+003;5.204464e-002
3.114605e+003;5.177825e-002
3.116533e+003;5.148285e-002
3.118462e+003;5.156560e-002
3.120391e+003;5.204039e-002
3.122319e+003;5.210930e-002
3.124248e+003;5.160012e-002
3.126176e+003;5.095476e-002
3.128105e+003;5.078504e-002
3.130033e+003;5.093025e-002
3.131962e+003;5.119470e-002
3.133890e+003;5.115843e-002
3.135819e+003;5.071566e-002
3.137748e+003;5.050383e-002
3.139676e+003;5.075879e-002
3.141605e+003;5.086278e-002
3.143533e+003;5.089184e-002
3.145462e+003;5.119101e-002
3.147390e+003;5.110572e-002
3.149319e+003;5.088178e-002
3.151247e+003;5.058862e-002
3.153176e+003;5.069209e-002
3.155104e+003;5.083458e-002
3.157033e+003;5.071313e-002
3.158962e+003;5.076002e-002
3.160890e+003;5.084248e-002
3.162819e+003;5.069615e-002
3.164747e+003;5.053290e-002
3.166676e+003;5.074907e-002
3.168604e+003;5.085507e-002
3.170533e+003;5.099877e-002
3.172461e+003;5.099202e-002
3.174390e+003;5.077558e-002
3.176319e+003;5.080944e-002
3.178247e+003;5.083231e-002
3.180176e+003;5.045850e-002
3.182104e+003;5.041112e-002
3.184033e+003;5.062742e-002
3.185961e+003;5.080970e-002
3.187890e+003;5.093189e-002
3.189818e+003;5.096791e-002
3.191747e+003;5.089977e-002
3.193676e+003;5.096929e-002
3.195604e+003;5.098088e-002
3.197532e+003;5.088044e-002
3.199461e+003;5.095636e-002
3.201390e+003;5.103420e-002
3.203318e+003;5.109741e-002
3.205247e+003;5.118124e-002
3.207175e+003;5.114259e-002
3.209104e+003;5.112864e-002
3.211032e+003;5.100961e-002
3.212961e+003;5.119966e-002
3.214889e+003;5.165057e-002
3.216818e+003;5.157351e-002
3.218747e+003;5.148028e-002
3.220675e+003;5.187883e-002
3.222604e+003;5.205290e-002
3.224532e+003;5.191628e-002
3.226461e+003;5.196173e-002
3.228389e+003;5.210916e-002
3.230318e+003;5.219569e-002
3.232246e+003;5.206713e-002
3.234175e+003;5.196139e-002
3.236104e+003;5.226732e-002
3.238032e+003;5.273958e-002
3.239961e+003;5.277576e-002
3.241889e+003;5.264935e-002
3.243818e+003;5.268283e-002
3.245746e+003;5.273801e-002
3.247675e+003;5.305550e-002
3.249603e+003;5.346647e-002
3.251532e+003;5.350313e-002
3.253460e+003;5.352303e-002
3.255389e+003;5.395629e-002
3.257318e+003;5.389431e-002
3.259246e+003;5.346790e-002
3.261175e+003;5.334837e-002
3.263103e+003;5.376049e-002
3.265032e+003;5.421553e-002
3.266960e+003;5.448365e-002
3.268889e+003;5.444188e-002
3.270817e+003;5.428784e-002
3.272746e+003;5.437541e-002
3.274675e+003;5.444762e-002
3.276603e+003;5.448616e-002
3.278531e+003;5.493347e-002
3.280460e+003;5.520015e-002
3.282389e+003;5.502151e-002
3.284317e+003;5.513833e-002
3.286246e+003;5.512118e-002
3.288174e+003;5.521738e-002
3.290103e+003;5.532760e-002
3.292031e+003;5.521038e-002
3.293960e+003;5.531590e-002
3.295888e+003;5.568510e-002
3.297817e+003;5.591346e-002
3.299746e+003;5.628891e-002
3.301674e+003;5.629822e-002
3.303603e+003;5.614677e-002
3.305531e+003;5.654766e-002
3.307460e+003;5.678588e-002
3.309388e+003;5.670126e-002
3.311317e+003;5.711151e-002
3.313245e+003;5.767148e-002
3.315174e+003;5.788979e-002
3.317103e+003;5.783085e-002
3.319031e+003;5.760027e-002
3.320960e+003;5.749424e-002
3.322888e+003;5.736278e-002
3.324817e+003;5.767122e-002
3.326745e+003;5.814598e-002
3.328674e+003;5.809996e-002
3.330602e+003;5.819186e-002
3.332531e+003;5.871138e-002
3.334459e+003;5.881039e-002
3.336388e+003;5.883608e-002
3.338317e+003;5.878702e-002
3.340245e+003;5.873554e-002
3.342174e+003;5.927254e-002
3.344102e+003;5.973948e-002
3.346031e+003;5.974766e-002
3.347959e+003;5.992107e-002
3.349888e+003;6.004737e-002
3.351816e+003;6.026516e-002
3.353745e+003;6.051198e-002
3.355674e+003;6.048501e-002
3.357602e+003;6.040112e-002
3.359531e+003;6.063673e-002
3.361459e+003;6.079956e-002
3.363388e+003;6.078100e-002
3.365316e+003;6.094217e-002
3.367245e+003;6.116652e-002
3.369173e+003;6.144144e-002
3.371102e+003;6.150145e-002
3.373031e+003;6.131840e-002
3.374959e+003;6.164822e-002
3.376887e+003;6.227097e-002
3.378816e+003;6.253982e-002
3.380745e+003;6.268108e-002
3.382673e+003;6.259271e-002
3.384602e+003;6.237672e-002
3.386530e+003;6.230447e-002
3.388459e+003;6.270466e-002
3.390387e+003;6.300458e-002
3.392316e+003;6.306342e-002
3.394244e+003;6.351325e-002
3.396173e+003;6.362192e-002
3.398102e+003;6.333622e-002
3.400030e+003;6.375263e-002
3.401959e+003;6.417675e-002
3.403887e+003;6.419875e-002
3.405816e+003;6.438552e-002
3.407744e+003;6.425484e-002
3.409673e+003;6.421124e-002
3.411601e+003;6.466633e-002
3.413530e+003;6.484476e-002
3.415458e+003;6.463215e-002
3.417387e+003;6.465983e-002
3.419316e+003;6.493671e-002
3.421244e+003;6.526532e-002
3.423173e+003;6.587547e-002
3.425101e+003;6.636115e-002
3.427030e+003;6.653093e-002
3.428958e+003;6.680796e-002
3.430887e+003;6.724392e-002
3.432815e+003;6.737202e-002
3.434744e+003;6.714057e-002
3.436673e+003;6.666078e-002
3.438601e+003;6.700238e-002
3.440530e+003;6.769365e-002
3.442458e+003;6.785953e-002
3.444387e+003;6.796987e-002
3.446315e+003;6.814334e-002
3.448244e+003;6.813873e-002
3.450172e+003;6.850530e-002
3.452101e+003;6.921514e-002
3.454030e+003;6.957695e-002
3.455958e+003;6.976367e-002
3.457886e+003;6.999379e-002
3.459815e+003;6.993420e-002
3.461744e+003;6.962747e-002
3.463672e+003;6.959932e-002
3.465601e+003;6.993229e-002
3.467529e+003;7.036988e-002
3.469458e+003;7.064750e-002
3.471386e+003;7.106272e-002
3.473315e+003;7.111704e-002
3.475243e+003;7.116342e-002
3.477172e+003;7.147845e-002
3.479101e+003;7.142201e-002
3.481029e+003;7.111955e-002
3.482958e+003;7.112005e-002
3.484886e+003;7.120480e-002
3.486815e+003;7.127647e-002
3.488743e+003;7.124422e-002
3.490672e+003;7.114530e-002
3.492600e+003;7.069776e-002
3.494529e+003;7.058384e-002
3.496458e+003;7.090517e-002
3.498386e+003;7.084650e-002
3.500315e+003;7.084365e-002
3.502243e+003;7.074545e-002
3.504172e+003;7.045846e-002
3.506100e+003;7.052596e-002
3.508029e+003;7.083979e-002
3.509957e+003;7.050690e-002
3.511886e+003;6.994256e-002
3.513814e+003;6.984130e-002
3.515743e+003;6.958792e-002
3.517672e+003;6.935921e-002
3.519600e+003;6.940291e-002
3.521529e+003;6.957271e-002
3.523457e+003;6.961417e-002
3.525386e+003;6.929201e-002
3.527314e+003;6.849463e-002
3.529243e+003;6.812903e-002
3.531171e+003;6.805757e-002
3.533100e+003;6.807365e-002
3.535029e+003;6.774376e-002
3.536957e+003;6.752934e-002
3.538885e+003;6.743900e-002
3.540814e+003;6.739999e-002
3.542743e+003;6.726187e-002
3.544671e+003;6.662729e-002
3.546600e+003;6.613788e-002
3.548528e+003;6.593274e-002
3.550457e+003;6.556886e-002
3.552385e+003;6.510836e-002
3.554314e+003;6.512176e-002
3.556242e+003;6.480737e-002
3.558171e+003;6.407109e-002
3.560100e+003;6.388661e-002
3.562028e+003;6.372926e-002
3.563957e+003;6.314469e-002
3.565885e+003;6.223429e-002
3.567814e+003;6.180099e-002
3.569742e+003;6.222672e-002
3.571671e+003;6.232669e-002
3.573599e+003;6.148034e-002
3.575528e+003;6.079171e-002
3.577457e+003;6.056344e-002
3.579385e+003;6.012388e-002
3.581314e+003;5.970230e-002
3.583242e+003;5.965322e-002
3.585171e+003;5.910213e-002
3.587099e+003;5.816799e-002
3.589028e+003;5.806326e-002
3.590956e+003;5.807628e-002
3.592885e+003;5.751069e-002
3.594813e+003;5.701776e-002
3.596742e+003;5.673479e-002
3.598671e+003;5.646581e-002
3.600599e+003;5.596151e-002
3.602528e+003;5.544670e-002
3.604456e+003;5.547151e-002
3.606385e+003;5.550539e-002
3.608313e+003;5.508646e-002
3.610242e+003;5.456392e-002
3.612170e+003;5.418498e-002
3.614099e+003;5.393873e-002
3.616028e+003;5.351632e-002
3.617956e+003;5.305347e-002
3.619885e+003;5.280453e-002
3.621813e+003;5.248817e-002
3.623742e+003;5.211368e-002
3.625670e+003;5.211850e-002
3.627599e+003;5.141217e-002
3.629527e+003;5.056208e-002
3.631456e+003;5.071902e-002
3.633385e+003;5.088513e-002
3.635313e+003;5.064801e-002
3.637241e+003;5.032483e-002
3.639170e+003;4.981513e-002
3.641099e+003;4.919320e-002
3.643027e+003;4.895774e-002
3.644956e+003;4.840682e-002
3.646884e+003;4.752348e-002
3.648813e+003;4.715715e-002
3.650741e+003;4.689485e-002
3.652670e+003;4.690397e-002
3.654598e+003;4.647426e-002
3.656527e+003;4.556937e-002
3.658456e+003;4.522124e-002
3.660384e+003;4.459542e-002
3.662313e+003;4.388911e-002
3.664241e+003;4.335808e-002
3.666170e+003;4.283955e-002
3.668098e+003;4.158281e-002
3.670027e+003;4.037122e-002
3.671955e+003;4.038071e-002
3.673884e+003;3.974853e-002
3.675813e+003;3.902364e-002
3.677741e+003;3.912489e-002
3.679669e+003;3.857709e-002
3.681598e+003;3.798171e-002
3.683527e+003;3.736608e-002
3.685455e+003;3.656746e-002
3.687384e+003;3.590864e-002
3.689312e+003;3.570275e-002
3.691241e+003;3.585451e-002
3.693169e+003;3.571483e-002
3.695098e+003;3.583036e-002
3.697026e+003;3.602803e-002
3.698955e+003;3.600733e-002
3.700884e+003;3.520574e-002
3.702812e+003;3.447938e-002
3.704741e+003;3.443350e-002
3.706669e+003;3.431289e-002
3.708598e+003;3.404894e-002
3.710526e+003;3.377449e-002
3.712455e+003;3.372081e-002
3.714383e+003;3.418486e-002
3.716312e+003;3.422540e-002
3.718240e+003;3.374111e-002
3.720169e+003;3.318780e-002
3.722098e+003;3.336412e-002
3.724026e+003;3.370480e-002
3.725955e+003;3.372844e-002
3.727883e+003;3.366169e-002
3.729812e+003;3.344413e-002
3.731740e+003;3.313504e-002
3.733669e+003;3.288500e-002
3.735597e+003;3.285634e-002
3.737526e+003;3.317674e-002
3.739455e+003;3.295964e-002
3.741383e+003;3.267501e-002
3.743312e+003;3.209943e-002
3.745240e+003;3.184528e-002
3.747169e+003;3.190618e-002
3.749097e+003;3.142436e-002
3.751026e+003;3.161974e-002
3.752954e+003;3.247318e-002
3.754883e+003;3.288282e-002
3.756812e+003;3.261764e-002
3.758740e+003;3.272567e-002
3.760668e+003;3.307969e-002
3.762597e+003;3.292067e-002
3.764526e+003;3.275836e-002
3.766454e+003;3.300250e-002
3.768383e+003;3.278487e-002
3.770311e+003;3.225372e-002
3.772240e+003;3.257921e-002
3.774168e+003;3.291581e-002
3.776097e+003;3.281517e-002
3.778025e+003;3.298369e-002
3.779954e+003;3.286842e-002
3.781883e+003;3.268869e-002
3.783811e+003;3.265515e-002
3.785740e+003;3.286052e-002
3.787668e+003;3.301991e-002
3.789597e+003;3.293193e-002
3.791525e+003;3.304057e-002
3.793454e+003;3.308698e-002
3.795382e+003;3.323436e-002
3.797311e+003;3.354513e-002
3.799240e+003;3.301215e-002
3.801168e+003;3.206949e-002
3.803097e+003;3.219301e-002
3.805025e+003;3.247922e-002
3.806954e+003;3.257821e-002
3.808882e+003;3.323386e-002
3.810811e+003;3.383061e-002
3.812739e+003;3.349681e-002
3.814668e+003;3.227327e-002
3.816596e+003;3.194016e-002
3.818525e+003;3.259224e-002
3.820454e+003;3.272752e-002
3.822382e+003;3.306113e-002
3.824311e+003;3.343225e-002
3.826239e+003;3.335803e-002
3.828168e+003;3.326180e-002
3.830096e+003;3.338795e-002
3.832025e+003;3.314574e-002
3.833953e+003;3.254482e-002
3.835882e+003;3.218605e-002
3.837811e+003;3.214003e-002
3.839739e+003;3.288164e-002
3.841667e+003;3.346839e-002
3.843596e+003;3.316190e-002
3.845525e+003;3.300189e-002
3.847453e+003;3.305931e-002
3.849382e+003;3.281071e-002
3.851310e+003;3.229712e-002
3.853239e+003;3.215897e-002
3.855167e+003;3.295567e-002
3.857096e+003;3.333353e-002
3.859024e+003;3.309549e-002
3.860953e+003;3.332540e-002
3.862882e+003;3.375698e-002
3.864810e+003;3.360574e-002
3.866739e+003;3.347276e-002
3.868667e+003;3.356446e-002
3.870596e+003;3.369052e-002
3.872524e+003;3.363352e-002
3.874453e+003;3.341904e-002
3.876381e+003;3.333700e-002
3.878310e+003;3.356199e-002
3.880239e+003;3.378409e-002
3.882167e+003;3.382854e-002
3.884096e+003;3.367104e-002
3.886024e+003;3.415299e-002
3.887953e+003;3.466462e-002
3.889881e+003;3.432487e-002
3.891810e+003;3.458374e-002
3.893738e+003;3.491077e-002
3.895667e+003;3.452077e-002
3.897595e+003;3.441990e-002
3.899524e+003;3.440233e-002
3.901453e+003;3.434323e-002
3.903381e+003;3.457484e-002
3.905310e+003;3.491386e-002
3.907238e+003;3.527114e-002
3.909167e+003;3.545270e-002
3.911095e+003;3.536466e-002
3.913024e+003;3.547858e-002
3.914952e+003;3.526863e-002
3.916881e+003;3.516643e-002
3.918810e+003;3.577294e-002
3.920738e+003;3.602119e-002
3.922667e+003;3.541448e-002
3.924595e+003;3.498478e-002
3.926524e+003;3.537641e-002
3.928452e+003;3.630582e-002
3.930381e+003;3.681581e-002
3.932309e+003;3.685985e-002
3.934238e+003;3.645188e-002
3.936167e+003;3.631854e-002
3.938095e+003;3.639542e-002
3.940023e+003;3.642590e-002
3.941952e+003;3.652749e-002
3.943881e+003;3.684272e-002
3.945809e+003;3.675057e-002
3.947738e+003;3.668600e-002
3.949666e+003;3.766490e-002
3.951595e+003;3.783687e-002
3.953523e+003;3.735811e-002
3.955452e+003;3.760380e-002
3.957380e+003;3.751774e-002
3.959309e+003;3.771300e-002
3.961238e+003;3.828677e-002
3.963166e+003;3.813271e-002
3.965095e+003;3.818463e-002
3.967023e+003;3.885957e-002
3.968952e+003;3.960183e-002
3.970880e+003;3.940061e-002
3.972809e+003;3.908233e-002
3.974737e+003;3.922530e-002
3.976666e+003;3.908313e-002
3.978594e+003;3.913599e-002
3.980523e+003;3.968747e-002
3.982452e+003;3.966129e-002
3.984380e+003;3.909451e-002
3.986309e+003;3.905303e-002
3.988237e+003;3.935751e-002
3.990166e+003;3.917450e-002
3.992094e+003;3.888493e-002
3.994023e+003;3.890004e-002
3.995951e+003;3.881478e-002
3.997880e+003;3.852408e-002
3.999809e+003;3.850906e-002
4.001737e+003;0.000000e+000
