3.992094e+002;0.000000e+000
4.011380e+002;0.000000e+000
4.030665e+002;0.000000e+000
4.049951e+002;0.000000e+000
4.069236e+002;0.000000e+000
4.088522e+002;0.000000e+000
4.107807e+002;0.000000e+000
4.127093e+002;0.000000e+000
4.146378e+002;0.000000e+000
4.165664e+002;0.000000e+000
4.184949e+002;0.000000e+000
4.204235e+002;0.000000e+000
4.223520e+002;0.000000e+000
4.242806e+002;0.000000e+000
4.262091e+002;0.000000e+000
4.281377e+002;0.000000e+000
4.300662e+002;0.000000e+000
4.319948e+002;0.000000e+000
4.339233e+002;0.000000e+000
4.358519e+002;0.000000e+000
4.377804e+002;0.000000e+000
4.397090e+002;0.000000e+000
4.416375e+002;0.000000e+000
4.435660e+002;0.000000e+000
4.454946e+002;0.000000e+000
4.474232e+002;0.000000e+000
4.493517e+002;0.000000e+000
4.512802e+002;0.000000e+000
4.532088e+002;0.000000e+000
4.551373e+002;0.000000e+000
4.570659e+002;0.000000e+000
4.589944e+002;0.000000e+000
4.609230e+002;0.000000e+000
4.628515e+002;0.000000e+000
4.647801e+002;0.000000e+000
4.667086e+002;0.000000e+000
4.686372e+002;0.000000e+000
4.705657e+002;0.000000e+000
4.724943e+002;0.000000e+000
4.744228e+002;0.000000e+000
4.763513e+002;0.000000e+000
4.782799e+002;0.000000e+000
4.802085e+002;0.000000e+000
4.821370e+002;0.000000e+000
4.840656e+002;0.000000e+000
4.859941e+002;0.000000e+000
4.879226e+002;0.000000e+000
4.898512e+002;0.000000e+000
4.917798e+002;0.000000e+000
4.937083e+002;0.000000e+000
4.956368e+002;0.000000e+000
4.975654e+002;0.000000e+000
4.994939e+002;0.000000e+000
5.014225e+002;0.000000e+000
5.033510e+002;0.000000e+000
5.052796e+002;0.000000e+000
5.072081e+002;0.000000e+000
5.091367e+002;0.000000e+000
5.110652e+002;0.000000e+000
5.129938e+002;0.000000e+000
5.149223e+002;0.000000e+000
5.168509e+002;0.000000e+000
5.187794e+002;0.000000e+000
5.207079e+002;0.000000e+000
5.226365e+002;0.000000e+000
5.245651e+002;0.000000e+000
5.264936e+002;0.000000e+000
5.284222e+002;0.000000e+000
5.303507e+002;0.000000e+000
5.322792e+002;0.000000e+000
5.342078e+002;0.000000e+000
5.361364e+002;0.000000e+000
5.380649e+002;0.000000e+000
5.399935e+002;0.000000e+000
5.419220e+002;0.000000e+000
5.438505e+002;0.000000e+000
5.457791e+002;0.000000e+000
5.477076e+002;0.000000e+000
5.496362e+002;0.000000e+000
5.515648e+002;0.000000e+000
5.534933e+002;0.000000e+000
5.554218e+002;0.000000e+000
5.573504e+002;0.000000e+000
5.592789e+002;0.000000e+000
5.612075e+002;0.000000e+000
5.631360e+002;0.000000e+000
5.650646e+002;0.000000e+000
5.669931e+002;0.000000e+000
5.689217e+002;0.000000e+000
5.708502e+002;0.000000e+000
5.727787e+002;0.000000e+000
5.747073e+002;0.000000e+000
5.766359e+002;0.000000e+000
5.785644e+002;0.000000e+000
5.804930e+002;0.000000e+000
5.824215e+002;0.000000e+000
5.843500e+002;0.000000e+000
5.862786e+002;0.000000e+000
5.882072e+002;0.000000e+000
5.901357e+002;0.000000e+000
5.920643e+002;0.000000e+000
5.939928e+002;0.000000e+000
5.959213e+002;0.000000e+000
5.978499e+002;0.000000e+000
5.997784e+002;1.949512e-001
6.017070e+002;1.933208e-001
6.036355e+002;1.957448e-001
6.055641e+002;1.962275e-001
6.074926e+002;1.881868e-001
6.094211e+002;1.774697e-001
6.113497e+002;1.722753e-001
6.132783e+002;1.672836e-001
6.152068e+002;1.618042e-001
6.171354e+002;1.546566e-001
6.190639e+002;1.502280e-001
6.209924e+002;1.469875e-001
6.229210e+002;1.443280e-001
6.248495e+002;1.425240e-001
6.267781e+002;1.420069e-001
6.287067e+002;1.436237e-001
6.306352e+002;1.424063e-001
6.325637e+002;1.386345e-001
6.344923e+002;1.366799e-001
6.364208e+002;1.377811e-001
6.383494e+002;1.375473e-001
6.402780e+002;1.352752e-001
6.422065e+002;1.325370e-001
6.441350e+002;1.285622e-001
6.460636e+002;1.277842e-001
6.479921e+002;1.267126e-001
6.499207e+002;1.243980e-001
6.518492e+002;1.211887e-001
6.537778e+002;1.200604e-001
6.557063e+002;1.206694e-001
6.576349e+002;1.206146e-001
6.595634e+002;1.177987e-001
6.614919e+002;1.145358e-001
6.634205e+002;1.114367e-001
6.653491e+002;1.098230e-001
6.672776e+002;1.085482e-001
6.692062e+002;1.093634e-001
6.711347e+002;1.102144e-001
6.730632e+002;1.099144e-001
6.749918e+002;1.099039e-001
6.769203e+002;1.115574e-001
6.788489e+002;1.133435e-001
6.807775e+002;1.124487e-001
6.827060e+002;1.121088e-001
6.846345e+002;1.126311e-001
6.865631e+002;1.119915e-001
6.884916e+002;1.102525e-001
6.904202e+002;1.100628e-001
6.923488e+002;1.094328e-001
6.942773e+002;1.079475e-001
6.962058e+002;1.067045e-001
6.981344e+002;1.054221e-001
7.000629e+002;1.043422e-001
7.019915e+002;1.022363e-001
7.039200e+002;1.001721e-001
7.058486e+002;9.936788e-002
7.077771e+002;9.874412e-002
7.097057e+002;9.775418e-002
7.116342e+002;9.734453e-002
7.135627e+002;9.731286e-002
7.154913e+002;9.707028e-002
7.174199e+002;9.503438e-002
7.193484e+002;9.343293e-002
7.212770e+002;9.279276e-002
7.232055e+002;9.206982e-002
7.251340e+002;9.135658e-002
7.270626e+002;9.077468e-002
7.289911e+002;8.988625e-002
7.309197e+002;8.792151e-002
7.328483e+002;8.498368e-002
7.347768e+002;8.217234e-002
7.367053e+002;7.956251e-002
7.386339e+002;7.749183e-002
7.405624e+002;7.652646e-002
7.424910e+002;7.622555e-002
7.444196e+002;7.615913e-002
7.463481e+002;7.586207e-002
7.482766e+002;7.476605e-002
7.502052e+002;7.409577e-002
7.521337e+002;7.385125e-002
7.540623e+002;7.343917e-002
7.559908e+002;7.279538e-002
7.579194e+002;7.292102e-002
7.598479e+002;7.329208e-002
7.617765e+002;7.255551e-002
7.637050e+002;7.207463e-002
7.656335e+002;7.224963e-002
7.675621e+002;7.219716e-002
7.694907e+002;7.212384e-002
7.714192e+002;7.189411e-002
7.733478e+002;7.183160e-002
7.752763e+002;7.200345e-002
7.772048e+002;7.225644e-002
7.791334e+002;7.227194e-002
7.810620e+002;7.258081e-002
7.829905e+002;7.270645e-002
7.849191e+002;7.302359e-002
7.868476e+002;7.329581e-002
7.887761e+002;7.383754e-002
7.907047e+002;7.462308e-002
7.926332e+002;7.478821e-002
7.945618e+002;7.547634e-002
7.964903e+002;7.638797e-002
7.984189e+002;7.707267e-002
8.003474e+002;7.797264e-002
8.022759e+002;7.880681e-002
8.042045e+002;7.960286e-002
8.061331e+002;8.073959e-002
8.080616e+002;8.217578e-002
8.099902e+002;8.370283e-002
8.119187e+002;8.530076e-002
8.138472e+002;8.655235e-002
8.157758e+002;8.811681e-002
8.177043e+002;8.978727e-002
8.196329e+002;9.174141e-002
8.215615e+002;9.408930e-002
8.234900e+002;9.671544e-002
8.254185e+002;1.006827e-001
8.273471e+002;1.052600e-001
8.292756e+002;1.099259e-001
8.312042e+002;1.153258e-001
8.331328e+002;1.207798e-001
8.350613e+002;1.249732e-001
8.369898e+002;1.278598e-001
8.389184e+002;1.296409e-001
8.408469e+002;1.298806e-001
8.427755e+002;1.283596e-001
8.447040e+002;1.257388e-001
8.466326e+002;1.226435e-001
8.485611e+002;1.191150e-001
8.504897e+002;1.160966e-001
8.524182e+002;1.134190e-001
8.543467e+002;1.115564e-001
8.562753e+002;1.120639e-001
8.582039e+002;1.139405e-001
8.601324e+002;1.156609e-001
8.620610e+002;1.186968e-001
8.639895e+002;1.228113e-001
8.659180e+002;1.273910e-001
8.678466e+002;1.327310e-001
8.697751e+002;1.388246e-001
8.717037e+002;1.454496e-001
8.736323e+002;1.516937e-001
8.755608e+002;1.567242e-001
8.774893e+002;1.607130e-001
8.794179e+002;1.642309e-001
8.813464e+002;1.678956e-001
8.832750e+002;1.716947e-001
8.852036e+002;1.759437e-001
8.871321e+002;1.810726e-001
8.890606e+002;1.870942e-001
8.909892e+002;1.936507e-001
8.929177e+002;1.998958e-001
8.948463e+002;2.060848e-001
8.967748e+002;2.114712e-001
8.987034e+002;2.137681e-001
9.006319e+002;2.134293e-001
9.025605e+002;2.109015e-001
9.044890e+002;2.060626e-001
9.064175e+002;2.001067e-001
9.083461e+002;1.934005e-001
9.102747e+002;1.861682e-001
9.122032e+002;1.800978e-001
9.141318e+002;1.748023e-001
9.160603e+002;1.700339e-001
9.179888e+002;1.666663e-001
9.199174e+002;1.636875e-001
9.218459e+002;1.610374e-001
9.237745e+002;1.587121e-001
9.257031e+002;1.566447e-001
9.276316e+002;1.553975e-001
9.295601e+002;1.549487e-001
9.314887e+002;1.546856e-001
9.334172e+002;1.543523e-001
9.353458e+002;1.545602e-001
9.372744e+002;1.556090e-001
9.392029e+002;1.572329e-001
9.411314e+002;1.592269e-001
9.430600e+002;1.616777e-001
9.449885e+002;1.640254e-001
9.469171e+002;1.661634e-001
9.488456e+002;1.681819e-001
9.507742e+002;1.703101e-001
9.527027e+002;1.722213e-001
9.546313e+002;1.740226e-001
9.565598e+002;1.758192e-001
9.584883e+002;1.778671e-001
9.604169e+002;1.805226e-001
9.623455e+002;1.838062e-001
9.642740e+002;1.879517e-001
9.662026e+002;1.929249e-001
9.681311e+002;1.989412e-001
9.700596e+002;2.062306e-001
9.719882e+002;2.144423e-001
9.739167e+002;2.228397e-001
9.758453e+002;2.312464e-001
9.777739e+002;2.396017e-001
9.797024e+002;2.477057e-001
9.816309e+002;2.556348e-001
9.835595e+002;2.626491e-001
9.854880e+002;2.686066e-001
9.874166e+002;2.742015e-001
9.893452e+002;2.796237e-001
9.912737e+002;2.844381e-001
9.932022e+002;2.894806e-001
9.951307e+002;2.952350e-001
9.970593e+002;3.018678e-001
9.989879e+002;3.099589e-001
1.000916e+003;3.191043e-001
1.002845e+003;3.297662e-001
1.004773e+003;3.428976e-001
1.006702e+003;3.575091e-001
1.008631e+003;3.732331e-001
1.010559e+003;3.894500e-001
1.012488e+003;4.064089e-001
1.014416e+003;4.252217e-001
1.016345e+003;4.457580e-001
1.018273e+003;4.661995e-001
1.020202e+003;4.868114e-001
1.022130e+003;5.079504e-001
1.024059e+003;5.276479e-001
1.025988e+003;5.453072e-001
1.027916e+003;5.612391e-001
1.029845e+003;5.733670e-001
1.031773e+003;5.802807e-001
1.033702e+003;5.824218e-001
1.035630e+003;5.817283e-001
1.037559e+003;5.788861e-001
1.039487e+003;5.728539e-001
1.041416e+003;5.636238e-001
1.043344e+003;5.523353e-001
1.045273e+003;5.387859e-001
1.047202e+003;5.230575e-001
1.049130e+003;5.071055e-001
1.051059e+003;4.905002e-001
1.052987e+003;4.727945e-001
1.054916e+003;4.544763e-001
1.056844e+003;4.368765e-001
1.058773e+003;4.218152e-001
1.060701e+003;4.079801e-001
1.062630e+003;3.948997e-001
1.064558e+003;3.837082e-001
1.066487e+003;3.736573e-001
1.068416e+003;3.641025e-001
1.070344e+003;3.540421e-001
1.072273e+003;3.441269e-001
1.074201e+003;3.349851e-001
1.076130e+003;3.252073e-001
1.078058e+003;3.148054e-001
1.079987e+003;3.052521e-001
1.081915e+003;2.963111e-001
1.083844e+003;2.874513e-001
1.085773e+003;2.787310e-001
1.087701e+003;2.699861e-001
1.089630e+003;2.613572e-001
1.091558e+003;2.524705e-001
1.093487e+003;2.446615e-001
1.095415e+003;2.373943e-001
1.097344e+003;2.309791e-001
1.099272e+003;2.258276e-001
1.101201e+003;2.216327e-001
1.103129e+003;2.181430e-001
1.105058e+003;2.158087e-001
1.106987e+003;2.141341e-001
1.108915e+003;2.123234e-001
1.110844e+003;2.109103e-001
1.112772e+003;2.101740e-001
1.114701e+003;2.094832e-001
1.116629e+003;2.084689e-001
1.118558e+003;2.071970e-001
1.120486e+003;2.061523e-001
1.122415e+003;2.045365e-001
1.124344e+003;2.018350e-001
1.126272e+003;1.990860e-001
1.128201e+003;1.963755e-001
1.130129e+003;1.937519e-001
1.132058e+003;1.911096e-001
1.133986e+003;1.883281e-001
1.135915e+003;1.860195e-001
1.137843e+003;1.844946e-001
1.139772e+003;1.838132e-001
1.141700e+003;1.842920e-001
1.143629e+003;1.852299e-001
1.145557e+003;1.861515e-001
1.147486e+003;1.874269e-001
1.149415e+003;1.895611e-001
1.151343e+003;1.917798e-001
1.153272e+003;1.935667e-001
1.155200e+003;1.953467e-001
1.157129e+003;1.972935e-001
1.159057e+003;1.988829e-001
1.160986e+003;1.998312e-001
1.162914e+003;2.001823e-001
1.164843e+003;1.999727e-001
1.166771e+003;1.989246e-001
1.168700e+003;1.975093e-001
1.170629e+003;1.960856e-001
1.172557e+003;1.945267e-001
1.174486e+003;1.927938e-001
1.176414e+003;1.907400e-001
1.178343e+003;1.891713e-001
1.180271e+003;1.888223e-001
1.182200e+003;1.898559e-001
1.184128e+003;1.927996e-001
1.186057e+003;1.982001e-001
1.187986e+003;2.066226e-001
1.189914e+003;2.176176e-001
1.191843e+003;2.319873e-001
1.193771e+003;2.508411e-001
1.195700e+003;2.744194e-001
1.197628e+003;3.020339e-001
1.199557e+003;3.332923e-001
1.201485e+003;3.673450e-001
1.203414e+003;4.024355e-001
1.205343e+003;4.365314e-001
1.207271e+003;4.664702e-001
1.209200e+003;4.911068e-001
1.211128e+003;5.091708e-001
1.213057e+003;5.209603e-001
1.214985e+003;5.282588e-001
1.216914e+003;5.318710e-001
1.218842e+003;5.325734e-001
1.220771e+003;5.308056e-001
1.222699e+003;5.277498e-001
1.224628e+003;5.235628e-001
1.226557e+003;5.172034e-001
1.228485e+003;5.082546e-001
1.230414e+003;4.963765e-001
1.232342e+003;4.811749e-001
1.234271e+003;4.640968e-001
1.236199e+003;4.452988e-001
1.238128e+003;4.249216e-001
1.240056e+003;4.042380e-001
1.241985e+003;3.836813e-001
1.243913e+003;3.632350e-001
1.245842e+003;3.435386e-001
1.247771e+003;3.250147e-001
1.249699e+003;3.073564e-001
1.251628e+003;2.904940e-001
1.253556e+003;2.744316e-001
1.255485e+003;2.595873e-001
1.257413e+003;2.452074e-001
1.259342e+003;2.312707e-001
1.261270e+003;2.187747e-001
1.263199e+003;2.073756e-001
1.265127e+003;1.968195e-001
1.267056e+003;1.871032e-001
1.268985e+003;1.780352e-001
1.270913e+003;1.697255e-001
1.272842e+003;1.622927e-001
1.274770e+003;1.555451e-001
1.276699e+003;1.490182e-001
1.278627e+003;1.431735e-001
1.280556e+003;1.379879e-001
1.282484e+003;1.332721e-001
1.284413e+003;1.294184e-001
1.286342e+003;1.260296e-001
1.288270e+003;1.226700e-001
1.290199e+003;1.194953e-001
1.292127e+003;1.168050e-001
1.294056e+003;1.143907e-001
1.295984e+003;1.120408e-001
1.297913e+003;1.100030e-001
1.299841e+003;1.084307e-001
1.301770e+003;1.070230e-001
1.303698e+003;1.059790e-001
1.305627e+003;1.052295e-001
1.307556e+003;1.047521e-001
1.309484e+003;1.043717e-001
1.311413e+003;1.042037e-001
1.313341e+003;1.044887e-001
1.315270e+003;1.047343e-001
1.317198e+003;1.047956e-001
1.319127e+003;1.045952e-001
1.321055e+003;1.043016e-001
1.322984e+003;1.040898e-001
1.324912e+003;1.039634e-001
1.326841e+003;1.039130e-001
1.328770e+003;1.033705e-001
1.330698e+003;1.027310e-001
1.332627e+003;1.023955e-001
1.334555e+003;1.019085e-001
1.336484e+003;1.016058e-001
1.338412e+003;1.016089e-001
1.340341e+003;1.017276e-001
1.342269e+003;1.024852e-001
1.344198e+003;1.038087e-001
1.346126e+003;1.061182e-001
1.348055e+003;1.101049e-001
1.349984e+003;1.158822e-001
1.351912e+003;1.245080e-001
1.353841e+003;1.369046e-001
1.355769e+003;1.535945e-001
1.357698e+003;1.739462e-001
1.359626e+003;1.955718e-001
1.361555e+003;2.159204e-001
1.363483e+003;2.317608e-001
1.365412e+003;2.404427e-001
1.367341e+003;2.420986e-001
1.369269e+003;2.381915e-001
1.371198e+003;2.305586e-001
1.373126e+003;2.206258e-001
1.375055e+003;2.097694e-001
1.376983e+003;1.988732e-001
1.378912e+003;1.874318e-001
1.380840e+003;1.754993e-001
1.382769e+003;1.637007e-001
1.384698e+003;1.524023e-001
1.386626e+003;1.417481e-001
1.388555e+003;1.322945e-001
1.390483e+003;1.241420e-001
1.392412e+003;1.171032e-001
1.394340e+003;1.116078e-001
1.396269e+003;1.077336e-001
1.398197e+003;1.050289e-001
1.400126e+003;1.031526e-001
1.402054e+003;1.020447e-001
1.403983e+003;1.014681e-001
1.405911e+003;1.014419e-001
1.407840e+003;1.016854e-001
1.409769e+003;1.021832e-001
1.411697e+003;1.030421e-001
1.413626e+003;1.041051e-001
1.415554e+003;1.055905e-001
1.417483e+003;1.072244e-001
1.419411e+003;1.093552e-001
1.421340e+003;1.124915e-001
1.423268e+003;1.157062e-001
1.425197e+003;1.185045e-001
1.427125e+003;1.207579e-001
1.429054e+003;1.220691e-001
1.430983e+003;1.227239e-001
1.432911e+003;1.227397e-001
1.434840e+003;1.213589e-001
1.436768e+003;1.190762e-001
1.438697e+003;1.168415e-001
1.440625e+003;1.142787e-001
1.442554e+003;1.115561e-001
1.444482e+003;1.087428e-001
1.446411e+003;1.057467e-001
1.448340e+003;1.029233e-001
1.450268e+003;1.006003e-001
1.452197e+003;9.817646e-002
1.454125e+003;9.547214e-002
1.456054e+003;9.235080e-002
1.457982e+003;8.995162e-002
1.459911e+003;8.821578e-002
1.461839e+003;8.624846e-002
1.463768e+003;8.370982e-002
1.465697e+003;8.096459e-002
1.467625e+003;7.883056e-002
1.469554e+003;7.679962e-002
1.471482e+003;7.472011e-002
1.473411e+003;7.301015e-002
1.475339e+003;7.176194e-002
1.477268e+003;7.078554e-002
1.479196e+003;6.989243e-002
1.481125e+003;6.886777e-002
1.483053e+003;6.814384e-002
1.484982e+003;6.737732e-002
1.486911e+003;6.653482e-002
1.488839e+003;6.576420e-002
1.490768e+003;6.522678e-002
1.492696e+003;6.506655e-002
1.494625e+003;6.457648e-002
1.496553e+003;6.392899e-002
1.498482e+003;6.388565e-002
1.500410e+003;6.420793e-002
1.502339e+003;6.402532e-002
1.504267e+003;6.314484e-002
1.506196e+003;6.224661e-002
1.508125e+003;6.260870e-002
1.510053e+003;6.330838e-002
1.511982e+003;6.353737e-002
1.513910e+003;6.354907e-002
1.515839e+003;6.317933e-002
1.517767e+003;6.290174e-002
1.519696e+003;6.261172e-002
1.521624e+003;6.244156e-002
1.523553e+003;6.275826e-002
1.525481e+003;6.286199e-002
1.527410e+003;6.326143e-002
1.529339e+003;6.392757e-002
1.531267e+003;6.384555e-002
1.533196e+003;6.345688e-002
1.535124e+003;6.350780e-002
1.537053e+003;6.294046e-002
1.538981e+003;6.169297e-002
1.540910e+003;6.147362e-002
1.542838e+003;6.215591e-002
1.544767e+003;6.285861e-002
1.546695e+003;6.332659e-002
1.548624e+003;6.335305e-002
1.550553e+003;6.322552e-002
1.552481e+003;6.330550e-002
1.554410e+003;6.343095e-002
1.556338e+003;6.307189e-002
1.558267e+003;6.197259e-002
1.560195e+003;6.232294e-002
1.562124e+003;6.354535e-002
1.564052e+003;6.377224e-002
1.565981e+003;6.376564e-002
1.567910e+003;6.341596e-002
1.569838e+003;6.323076e-002
1.571767e+003;6.377032e-002
1.573695e+003;6.380332e-002
1.575624e+003;6.320382e-002
1.577552e+003;6.347881e-002
1.579481e+003;6.438402e-002
1.581409e+003;6.493890e-002
1.583338e+003;6.524626e-002
1.585266e+003;6.525677e-002
1.587195e+003;6.543093e-002
1.589124e+003;6.584312e-002
1.591052e+003;6.622984e-002
1.592981e+003;6.656151e-002
1.594909e+003;6.702979e-002
1.596838e+003;6.768308e-002
1.598766e+003;6.838575e-002
1.600695e+003;6.902307e-002
1.602623e+003;6.961647e-002
1.604552e+003;7.037554e-002
1.606480e+003;7.093407e-002
1.608409e+003;7.140057e-002
1.610338e+003;7.189294e-002
1.612266e+003;7.255524e-002
1.614195e+003;7.281717e-002
1.616123e+003;7.267676e-002
1.618052e+003;7.352978e-002
1.619980e+003;7.465007e-002
1.621909e+003;7.514740e-002
1.623837e+003;7.566648e-002
1.625766e+003;7.651757e-002
1.627694e+003;7.727242e-002
1.629623e+003;7.804187e-002
1.631552e+003;7.881443e-002
1.633480e+003;7.891349e-002
1.635409e+003;7.880049e-002
1.637337e+003;7.990493e-002
1.639266e+003;8.118742e-002
1.641194e+003;8.185225e-002
1.643123e+003;8.231337e-002
1.645051e+003;8.236039e-002
1.646980e+003;8.257128e-002
1.648909e+003;8.343714e-002
1.650837e+003;8.321793e-002
1.652766e+003;8.238823e-002
1.654694e+003;8.346630e-002
1.656623e+003;8.477709e-002
1.658551e+003;8.511063e-002
1.660480e+003;8.528120e-002
1.662408e+003;8.572159e-002
1.664337e+003;8.644585e-002
1.666266e+003;8.707080e-002
1.668194e+003;8.731656e-002
1.670123e+003;8.806682e-002
1.672051e+003;8.945733e-002
1.673980e+003;9.065476e-002
1.675908e+003;9.200925e-002
1.677837e+003;9.398089e-002
1.679765e+003;9.588634e-002
1.681694e+003;9.759133e-002
1.683622e+003;9.888393e-002
1.685551e+003;1.017646e-001
1.687479e+003;1.056399e-001
1.689408e+003;1.091745e-001
1.691337e+003;1.131141e-001
1.693265e+003;1.174157e-001
1.695194e+003;1.216973e-001
1.697122e+003;1.271069e-001
1.699051e+003;1.329913e-001
1.700979e+003;1.399157e-001
1.702908e+003;1.483469e-001
1.704836e+003;1.570858e-001
1.706765e+003;1.668165e-001
1.708693e+003;1.778046e-001
1.710622e+003;1.898721e-001
1.712551e+003;2.034085e-001
1.714479e+003;2.182791e-001
1.716408e+003;2.336825e-001
1.718336e+003;2.507212e-001
1.720265e+003;2.695678e-001
1.722193e+003;2.886155e-001
1.724122e+003;3.076926e-001
1.726050e+003;3.261214e-001
1.727979e+003;3.435135e-001
1.729908e+003;3.588932e-001
1.731836e+003;3.711353e-001
1.733765e+003;3.796240e-001
1.735693e+003;3.853204e-001
1.737622e+003;3.869516e-001
1.739550e+003;3.840572e-001
1.741479e+003;3.780497e-001
1.743407e+003;3.699474e-001
1.745336e+003;3.594825e-001
1.747265e+003;3.467089e-001
1.749193e+003;3.325920e-001
1.751122e+003;3.171360e-001
1.753050e+003;3.001287e-001
1.754979e+003;2.815868e-001
1.756907e+003;2.611149e-001
1.758836e+003;2.393907e-001
1.760764e+003;2.169740e-001
1.762693e+003;1.952443e-001
1.764621e+003;1.750798e-001
1.766550e+003;1.565617e-001
1.768479e+003;1.403055e-001
1.770407e+003;1.266296e-001
1.772336e+003;1.152615e-001
1.774264e+003;1.064255e-001
1.776193e+003;9.931136e-002
1.778121e+003;9.354905e-002
1.780050e+003;8.873223e-002
1.781978e+003;8.451058e-002
1.783907e+003;8.117951e-002
1.785835e+003;7.852698e-002
1.787764e+003;7.629759e-002
1.789693e+003;7.426380e-002
1.791621e+003;7.233522e-002
1.793550e+003;7.103252e-002
1.795478e+003;7.025851e-002
1.797407e+003;6.922793e-002
1.799335e+003;6.804005e-002
1.801264e+003;6.700609e-002
1.803192e+003;6.621791e-002
1.805121e+003;6.562100e-002
1.807049e+003;6.514212e-002
1.808978e+003;6.441876e-002
1.810907e+003;6.362245e-002
1.812835e+003;6.288929e-002
1.814764e+003;6.242454e-002
1.816692e+003;6.201386e-002
1.818621e+003;6.138698e-002
1.820549e+003;6.077742e-002
1.822478e+003;6.033982e-002
1.824406e+003;5.994480e-002
1.826335e+003;5.949307e-002
1.828264e+003;5.886643e-002
1.830192e+003;5.831428e-002
1.832121e+003;5.811083e-002
1.834049e+003;5.792383e-002
1.835978e+003;5.759864e-002
1.837906e+003;5.725991e-002
1.839835e+003;5.692660e-002
1.841763e+003;5.641008e-002
1.843692e+003;5.576624e-002
1.845620e+003;5.556895e-002
1.847549e+003;5.552953e-002
1.849478e+003;5.545904e-002
1.851406e+003;5.540367e-002
1.853335e+003;5.526648e-002
1.855263e+003;5.518216e-002
1.857192e+003;5.486613e-002
1.859120e+003;5.457625e-002
1.861049e+003;5.439842e-002
1.862977e+003;5.429355e-002
1.864906e+003;5.422097e-002
1.866834e+003;5.393606e-002
1.868763e+003;5.354473e-002
1.870692e+003;5.342222e-002
1.872620e+003;5.343132e-002
1.874549e+003;5.324756e-002
1.876477e+003;5.304520e-002
1.878406e+003;5.272697e-002
1.880334e+003;5.254602e-002
1.882263e+003;5.244143e-002
1.884191e+003;5.227995e-002
1.886120e+003;5.206175e-002
1.888048e+003;5.161165e-002
1.889977e+003;5.137058e-002
1.891906e+003;5.164266e-002
1.893834e+003;5.189455e-002
1.895763e+003;5.197215e-002
1.897691e+003;5.181181e-002
1.899620e+003;5.164127e-002
1.901548e+003;5.169852e-002
1.903477e+003;5.173794e-002
1.905405e+003;5.185277e-002
1.907334e+003;5.208386e-002
1.909262e+003;5.208600e-002
1.911191e+003;5.210845e-002
1.913120e+003;5.217058e-002
1.915048e+003;5.239029e-002
1.916977e+003;5.262205e-002
1.918905e+003;5.280382e-002
1.920834e+003;5.301034e-002
1.922762e+003;5.298496e-002
1.924691e+003;5.299178e-002
1.926619e+003;5.302045e-002
1.928548e+003;5.303434e-002
1.930477e+003;5.300510e-002
1.932405e+003;5.305576e-002
1.934334e+003;5.326150e-002
1.936262e+003;5.328712e-002
1.938191e+003;5.313124e-002
1.940119e+003;5.314259e-002
1.942048e+003;5.301914e-002
1.943976e+003;5.304359e-002
1.945905e+003;5.313064e-002
1.947833e+003;5.297444e-002
1.949762e+003;5.282321e-002
1.951691e+003;5.281411e-002
1.953619e+003;5.287474e-002
1.955548e+003;5.281490e-002
1.957476e+003;5.252163e-002
1.959405e+003;5.229946e-002
1.961333e+003;5.221388e-002
1.963262e+003;5.201656e-002
1.965190e+003;5.175806e-002
1.967119e+003;5.169173e-002
1.969047e+003;5.155956e-002
1.970976e+003;5.130789e-002
1.972905e+003;5.105813e-002
1.974833e+003;5.069366e-002
1.976762e+003;5.054358e-002
1.978690e+003;5.060426e-002
1.980619e+003;5.045232e-002
1.982547e+003;5.010185e-002
1.984476e+003;4.995908e-002
1.986404e+003;4.982539e-002
1.988333e+003;4.973862e-002
1.990261e+003;4.974037e-002
1.992190e+003;4.964987e-002
1.994119e+003;4.951300e-002
1.996047e+003;4.956793e-002
1.997976e+003;4.972149e-002
1.999904e+003;4.954305e-002
2.001833e+003;4.940707e-002
2.003761e+003;4.980811e-002
2.005690e+003;5.008761e-002
2.007618e+003;5.001682e-002
2.009547e+003;4.997856e-002
2.011476e+003;5.030754e-002
2.013404e+003;5.050651e-002
2.015333e+003;5.056011e-002
2.017261e+003;5.063836e-002
2.019190e+003;5.072460e-002
2.021118e+003;5.082490e-002
2.023047e+003;5.101475e-002
2.024975e+003;5.135895e-002
2.026904e+003;5.139054e-002
2.028833e+003;5.117781e-002
2.030761e+003;5.145644e-002
2.032690e+003;5.178960e-002
2.034618e+003;5.179591e-002
2.036547e+003;5.172547e-002
2.038475e+003;5.166550e-002
2.040404e+003;5.177990e-002
2.042332e+003;5.187383e-002
2.044261e+003;5.193578e-002
2.046189e+003;5.195154e-002
2.048118e+003;5.184385e-002
2.050047e+003;5.206743e-002
2.051975e+003;5.212249e-002
2.053904e+003;5.218698e-002
2.055832e+003;5.253099e-002
2.057761e+003;5.264348e-002
2.059689e+003;5.264176e-002
2.061618e+003;5.256082e-002
2.063546e+003;5.238637e-002
2.065475e+003;5.246020e-002
2.067404e+003;5.279091e-002
2.069332e+003;5.290550e-002
2.071260e+003;5.300881e-002
2.073189e+003;5.324569e-002
2.075118e+003;5.328539e-002
2.077046e+003;5.324109e-002
2.078975e+003;5.326521e-002
2.080903e+003;5.349949e-002
2.082832e+003;5.375213e-002
2.084760e+003;5.403947e-002
2.086689e+003;5.449867e-002
2.088617e+003;5.479046e-002
2.090546e+003;5.498104e-002
2.092475e+003;5.517520e-002
2.094403e+003;5.532771e-002
2.096332e+003;5.559931e-002
2.098260e+003;5.595563e-002
2.100189e+003;5.606766e-002
2.102117e+003;5.625949e-002
2.104046e+003;5.670372e-002
2.105974e+003;5.686477e-002
2.107903e+003;5.688279e-002
2.109832e+003;5.682002e-002
2.111760e+003;5.675148e-002
2.113688e+003;5.676360e-002
2.115617e+003;5.701720e-002
2.117546e+003;5.719292e-002
2.119474e+003;5.709099e-002
2.121403e+003;5.713717e-002
2.123331e+003;5.727899e-002
2.125260e+003;5.707686e-002
2.127188e+003;5.675171e-002
2.129117e+003;5.666328e-002
2.131045e+003;5.656717e-002
2.132974e+003;5.628796e-002
2.134903e+003;5.598564e-002
2.136831e+003;5.586179e-002
2.138760e+003;5.594448e-002
2.140688e+003;5.577917e-002
2.142617e+003;5.546646e-002
2.144545e+003;5.519236e-002
2.146474e+003;5.483132e-002
2.148402e+003;5.458403e-002
2.150331e+003;5.432482e-002
2.152260e+003;5.419943e-002
2.154188e+003;5.415836e-002
2.156117e+003;5.390714e-002
2.158045e+003;5.367593e-002
2.159974e+003;5.348772e-002
2.161902e+003;5.324651e-002
2.163831e+003;5.284936e-002
2.165759e+003;5.250294e-002
2.167688e+003;5.228571e-002
2.169616e+003;5.207326e-002
2.171545e+003;5.166076e-002
2.173474e+003;5.135734e-002
2.175402e+003;5.138382e-002
2.177331e+003;5.136331e-002
2.179259e+003;5.121737e-002
2.181188e+003;5.070442e-002
2.183116e+003;5.034623e-002
2.185045e+003;4.998711e-002
2.186973e+003;4.978704e-002
2.188902e+003;4.983817e-002
2.190831e+003;4.965154e-002
2.192759e+003;4.953432e-002
2.194688e+003;4.941873e-002
2.196616e+003;4.926460e-002
2.198545e+003;4.913172e-002
2.200473e+003;4.900911e-002
2.202402e+003;4.897462e-002
2.204330e+003;4.899231e-002
2.206259e+003;4.899861e-002
2.208188e+003;4.905607e-002
2.210116e+003;4.895815e-002
2.212044e+003;4.903968e-002
2.213973e+003;4.894858e-002
2.215902e+003;4.876137e-002
2.217830e+003;4.872667e-002
2.219759e+003;4.865280e-002
2.221687e+003;4.868349e-002
2.223616e+003;4.858984e-002
2.225544e+003;4.835415e-002
2.227473e+003;4.828338e-002
2.229401e+003;4.834922e-002
2.231330e+003;4.831578e-002
2.233259e+003;4.830337e-002
2.235187e+003;4.828867e-002
2.237116e+003;4.830171e-002
2.239044e+003;4.849109e-002
2.240973e+003;4.860455e-002
2.242901e+003;4.853077e-002
2.244830e+003;4.842378e-002
2.246758e+003;4.836970e-002
2.248687e+003;4.841089e-002
2.250615e+003;4.839304e-002
2.252544e+003;4.842941e-002
2.254473e+003;4.850210e-002
2.256401e+003;4.838204e-002
2.258330e+003;4.822428e-002
2.260258e+003;4.843445e-002
2.262187e+003;4.867485e-002
2.264115e+003;4.855356e-002
2.266044e+003;4.823739e-002
2.267972e+003;4.814961e-002
2.269901e+003;4.807594e-002
2.271830e+003;4.790017e-002
2.273758e+003;4.786051e-002
2.275687e+003;4.770098e-002
2.277615e+003;4.759786e-002
2.279544e+003;4.756773e-002
2.281472e+003;4.737471e-002
2.283401e+003;4.716476e-002
2.285329e+003;4.702565e-002
2.287258e+003;4.676557e-002
2.289187e+003;4.650814e-002
2.291115e+003;4.660293e-002
2.293043e+003;4.638764e-002
2.294972e+003;4.597354e-002
2.296901e+003;4.569793e-002
2.298829e+003;4.536121e-002
2.300758e+003;4.504540e-002
2.302686e+003;4.502125e-002
2.304615e+003;4.514847e-002
2.306543e+003;4.508951e-002
2.308472e+003;4.501893e-002
2.310400e+003;4.507076e-002
2.312329e+003;4.489903e-002
2.314258e+003;4.482114e-002
2.316186e+003;4.472420e-002
2.318115e+003;4.456568e-002
2.320043e+003;4.479697e-002
2.321972e+003;4.493900e-002
2.323900e+003;4.492467e-002
2.325829e+003;4.484476e-002
2.327757e+003;4.461690e-002
2.329686e+003;4.437099e-002
2.331615e+003;4.433590e-002
2.333543e+003;4.454126e-002
2.335472e+003;4.488264e-002
2.337400e+003;4.518542e-002
2.339329e+003;4.535171e-002
2.341257e+003;4.554309e-002
2.343186e+003;4.571284e-002
2.345114e+003;4.592522e-002
2.347043e+003;4.612226e-002
2.348971e+003;4.616494e-002
2.350900e+003;4.606247e-002
2.352829e+003;4.619552e-002
2.354757e+003;4.639627e-002
2.356686e+003;4.626577e-002
2.358614e+003;4.609493e-002
2.360543e+003;4.614286e-002
2.362471e+003;4.613542e-002
2.364400e+003;4.600139e-002
2.366328e+003;4.591572e-002
2.368257e+003;4.602474e-002
2.370186e+003;4.608262e-002
2.372114e+003;4.593185e-002
2.374042e+003;4.577167e-002
2.375971e+003;4.579302e-002
2.377900e+003;4.594367e-002
2.379828e+003;4.601623e-002
2.381757e+003;4.601196e-002
2.383685e+003;4.604604e-002
2.385614e+003;4.615488e-002
2.387542e+003;4.637367e-002
2.389471e+003;4.667059e-002
2.391399e+003;4.664123e-002
2.393328e+003;4.653145e-002
2.395257e+003;4.688492e-002
2.397185e+003;4.717351e-002
2.399114e+003;4.723483e-002
2.401042e+003;4.755542e-002
2.402971e+003;4.803801e-002
2.404899e+003;4.834304e-002
2.406828e+003;4.844078e-002
2.408756e+003;4.853726e-002
2.410685e+003;4.870454e-002
2.412614e+003;4.866403e-002
2.414542e+003;4.855000e-002
2.416471e+003;4.846860e-002
2.418399e+003;4.840474e-002
2.420328e+003;4.856975e-002
2.422256e+003;4.868156e-002
2.424185e+003;4.879025e-002
2.426113e+003;4.874543e-002
2.428042e+003;4.861956e-002
2.429970e+003;4.855519e-002
2.431899e+003;4.872467e-002
2.433828e+003;4.886874e-002
2.435756e+003;4.873535e-002
2.437685e+003;4.876022e-002
2.439613e+003;4.877772e-002
2.441542e+003;4.864828e-002
2.443470e+003;4.891969e-002
2.445399e+003;4.902183e-002
2.447327e+003;4.891086e-002
2.449256e+003;4.892937e-002
2.451185e+003;4.890834e-002
2.453113e+003;4.877601e-002
2.455042e+003;4.872052e-002
2.456970e+003;4.860647e-002
2.458899e+003;4.872560e-002
2.460827e+003;4.907577e-002
2.462756e+003;4.915602e-002
2.464684e+003;4.895533e-002
2.466613e+003;4.890445e-002
2.468542e+003;4.894335e-002
2.470470e+003;4.872041e-002
2.472398e+003;4.857817e-002
2.474327e+003;4.852974e-002
2.476256e+003;4.838018e-002
2.478184e+003;4.824072e-002
2.480113e+003;4.825909e-002
2.482041e+003;4.842730e-002
2.483970e+003;4.843779e-002
2.485898e+003;4.831319e-002
2.487827e+003;4.823402e-002
2.489755e+003;4.803427e-002
2.491684e+003;4.780380e-002
2.493613e+003;4.771581e-002
2.495541e+003;4.751394e-002
2.497470e+003;4.742612e-002
2.499398e+003;4.732199e-002
2.501327e+003;4.718973e-002
2.503255e+003;4.700586e-002
2.505184e+003;4.691770e-002
2.507112e+003;4.681524e-002
2.509041e+003;4.669435e-002
2.510969e+003;4.672077e-002
2.512898e+003;4.649690e-002
2.514827e+003;4.635715e-002
2.516755e+003;4.649387e-002
2.518684e+003;4.646017e-002
2.520612e+003;4.643838e-002
2.522541e+003;4.633312e-002
2.524469e+003;4.610675e-002
2.526398e+003;4.598739e-002
2.528326e+003;4.601885e-002
2.530255e+003;4.609400e-002
2.532184e+003;4.597321e-002
2.534112e+003;4.599616e-002
2.536041e+003;4.599303e-002
2.537969e+003;4.573308e-002
2.539898e+003;4.557974e-002
2.541826e+003;4.563149e-002
2.543755e+003;4.566031e-002
2.545683e+003;4.572914e-002
2.547612e+003;4.596978e-002
2.549541e+003;4.599535e-002
2.551469e+003;4.594757e-002
2.553397e+003;4.595549e-002
2.555326e+003;4.590806e-002
2.557255e+003;4.614776e-002
2.559183e+003;4.639306e-002
2.561112e+003;4.651327e-002
2.563040e+003;4.652338e-002
2.564969e+003;4.670284e-002
2.566897e+003;4.712092e-002
2.568826e+003;4.734068e-002
2.570754e+003;4.733621e-002
2.572683e+003;4.751619e-002
2.574612e+003;4.757848e-002
2.576540e+003;4.777998e-002
2.578469e+003;4.798235e-002
2.580397e+003;4.809212e-002
2.582326e+003;4.824031e-002
2.584254e+003;4.828671e-002
2.586183e+003;4.840574e-002
2.588111e+003;4.869264e-002
2.590040e+003;4.887931e-002
2.591969e+003;4.887946e-002
2.593897e+003;4.890523e-002
2.595826e+003;4.925729e-002
2.597754e+003;4.931300e-002
2.599683e+003;4.913320e-002
2.601611e+003;4.916121e-002
2.603540e+003;4.917357e-002
2.605468e+003;4.935569e-002
2.607397e+003;4.939170e-002
2.609325e+003;4.945029e-002
2.611254e+003;4.968234e-002
2.613183e+003;4.988909e-002
2.615111e+003;5.008686e-002
2.617040e+003;5.023392e-002
2.618968e+003;5.030966e-002
2.620897e+003;5.021762e-002
2.622825e+003;5.038783e-002
2.624754e+003;5.057388e-002
2.626682e+003;5.043449e-002
2.628611e+003;5.035111e-002
2.630540e+003;5.064119e-002
2.632468e+003;5.081033e-002
2.634396e+003;5.080270e-002
2.636325e+003;5.084471e-002
2.638254e+003;5.083179e-002
2.640182e+003;5.101646e-002
2.642111e+003;5.119653e-002
2.644039e+003;5.122128e-002
2.645968e+003;5.121468e-002
2.647896e+003;5.131144e-002
2.649825e+003;5.122960e-002
2.651753e+003;5.109913e-002
2.653682e+003;5.131043e-002
2.655611e+003;5.137864e-002
2.657539e+003;5.113692e-002
2.659468e+003;5.101628e-002
2.661396e+003;5.094332e-002
2.663325e+003;5.076128e-002
2.665253e+003;5.091802e-002
2.667182e+003;5.110867e-002
2.669110e+003;5.100574e-002
2.671039e+003;5.086669e-002
2.672968e+003;5.086151e-002
2.674896e+003;5.111832e-002
2.676825e+003;5.119548e-002
2.678753e+003;5.103514e-002
2.680682e+003;5.089526e-002
2.682610e+003;5.089131e-002
2.684539e+003;5.102500e-002
2.686467e+003;5.111105e-002
2.688396e+003;5.118389e-002
2.690324e+003;5.118858e-002
2.692253e+003;5.111068e-002
2.694182e+003;5.122180e-002
2.696110e+003;5.136159e-002
2.698039e+003;5.159288e-002
2.699967e+003;5.183586e-002
2.701896e+003;5.203236e-002
2.703824e+003;5.210777e-002
2.705753e+003;5.230294e-002
2.707681e+003;5.251962e-002
2.709610e+003;5.274744e-002
2.711539e+003;5.310963e-002
2.713467e+003;5.362993e-002
2.715396e+003;5.400585e-002
2.717324e+003;5.407257e-002
2.719253e+003;5.406570e-002
2.721181e+003;5.423453e-002
2.723110e+003;5.438543e-002
2.725038e+003;5.428878e-002
2.726967e+003;5.438284e-002
2.728896e+003;5.462220e-002
2.730824e+003;5.467376e-002
2.732752e+003;5.478065e-002
2.734681e+003;5.464024e-002
2.736610e+003;5.452305e-002
2.738538e+003;5.458264e-002
2.740467e+003;5.465050e-002
2.742395e+003;5.479098e-002
2.744324e+003;5.486598e-002
2.746252e+003;5.489098e-002
2.748181e+003;5.477858e-002
2.750109e+003;5.426633e-002
2.752038e+003;5.398818e-002
2.753967e+003;5.418896e-002
2.755895e+003;5.431961e-002
2.757824e+003;5.415251e-002
2.759752e+003;5.406142e-002
2.761681e+003;5.432914e-002
2.763609e+003;5.447583e-002
2.765538e+003;5.434781e-002
2.767466e+003;5.423348e-002
2.769395e+003;5.426633e-002
2.771323e+003;5.454867e-002
2.773252e+003;5.482218e-002
2.775181e+003;5.493182e-002
2.777109e+003;5.505554e-002
2.779038e+003;5.512916e-002
2.780966e+003;5.526859e-002
2.782895e+003;5.544056e-002
2.784823e+003;5.555506e-002
2.786752e+003;5.560913e-002
2.788680e+003;5.597407e-002
2.790609e+003;5.637631e-002
2.792538e+003;5.647150e-002
2.794466e+003;5.667170e-002
2.796395e+003;5.685434e-002
2.798323e+003;5.705993e-002
2.800252e+003;5.729941e-002
2.802180e+003;5.761162e-002
2.804109e+003;5.781056e-002
2.806037e+003;5.784160e-002
2.807966e+003;5.824744e-002
2.809895e+003;5.850975e-002
2.811823e+003;5.853819e-002
2.813751e+003;5.874908e-002
2.815680e+003;5.880773e-002
2.817609e+003;5.872086e-002
2.819537e+003;5.870057e-002
2.821466e+003;5.876521e-002
2.823394e+003;5.919074e-002
2.825323e+003;5.956189e-002
2.827251e+003;5.983732e-002
2.829180e+003;6.035889e-002
2.831108e+003;6.084656e-002
2.833037e+003;6.122813e-002
2.834966e+003;6.171990e-002
2.836894e+003;6.220562e-002
2.838823e+003;6.277671e-002
2.840751e+003;6.305756e-002
2.842680e+003;6.339364e-002
2.844608e+003;6.382363e-002
2.846537e+003;6.382719e-002
2.848465e+003;6.374975e-002
2.850394e+003;6.408879e-002
2.852323e+003;6.465288e-002
2.854251e+003;6.553306e-002
2.856180e+003;6.701215e-002
2.858108e+003;6.874163e-002
2.860037e+003;7.028168e-002
2.861965e+003;7.172652e-002
2.863894e+003;7.292419e-002
2.865822e+003;7.361633e-002
2.867751e+003;7.433740e-002
2.869679e+003;7.497836e-002
2.871608e+003;7.503510e-002
2.873536e+003;7.544728e-002
2.875465e+003;7.638801e-002
2.877394e+003;7.685103e-002
2.879322e+003;7.688844e-002
2.881251e+003;7.707620e-002
2.883179e+003;7.743963e-002
2.885108e+003;7.749230e-002
2.887036e+003;7.756233e-002
2.888965e+003;7.762758e-002
2.890893e+003;7.722931e-002
2.892822e+003;7.672382e-002
2.894750e+003;7.633997e-002
2.896679e+003;7.602412e-002
2.898608e+003;7.597671e-002
2.900536e+003;7.568108e-002
2.902465e+003;7.533641e-002
2.904393e+003;7.520319e-002
2.906322e+003;7.486193e-002
2.908250e+003;7.417917e-002
2.910179e+003;7.312937e-002
2.912107e+003;7.226959e-002
2.914036e+003;7.150161e-002
2.915965e+003;7.052553e-002
2.917893e+003;6.988624e-002
2.919822e+003;6.958811e-002
2.921750e+003;6.945345e-002
2.923679e+003;6.974978e-002
2.925607e+003;7.043550e-002
2.927536e+003;7.117587e-002
2.929464e+003;7.201588e-002
2.931393e+003;7.304312e-002
2.933322e+003;7.459074e-002
2.935250e+003;7.618650e-002
2.937178e+003;7.717394e-002
2.939107e+003;7.818327e-002
2.941036e+003;7.882909e-002
2.942964e+003;7.885591e-002
2.944893e+003;7.887538e-002
2.946821e+003;7.907584e-002
2.948750e+003;7.913277e-002
2.950678e+003;7.875405e-002
2.952607e+003;7.782876e-002
2.954535e+003;7.725485e-002
2.956464e+003;7.725096e-002
2.958393e+003;7.683402e-002
2.960321e+003;7.634665e-002
2.962250e+003;7.606529e-002
2.964178e+003;7.556241e-002
2.966107e+003;7.503601e-002
2.968035e+003;7.449456e-002
2.969964e+003;7.372241e-002
2.971892e+003;7.304727e-002
2.973821e+003;7.260885e-002
2.975750e+003;7.226188e-002
2.977678e+003;7.193900e-002
2.979607e+003;7.157393e-002
2.981535e+003;7.118168e-002
2.983464e+003;7.076175e-002
2.985392e+003;7.030888e-002
2.987321e+003;7.004821e-002
2.989249e+003;7.011819e-002
2.991178e+003;7.027950e-002
2.993106e+003;7.006741e-002
2.995035e+003;6.965548e-002
2.996964e+003;6.903405e-002
2.998892e+003;6.831548e-002
3.000821e+003;6.785023e-002
3.002749e+003;6.764381e-002
3.004678e+003;6.742445e-002
3.006606e+003;6.715496e-002
3.008535e+003;6.685715e-002
3.010463e+003;6.640875e-002
3.012392e+003;6.615119e-002
3.014321e+003;6.612229e-002
3.016249e+003;6.621128e-002
3.018177e+003;6.621020e-002
3.020106e+003;6.593054e-002
3.022035e+003;6.555561e-002
3.023963e+003;6.554682e-002
3.025892e+003;6.544746e-002
3.027820e+003;6.513711e-002
3.029749e+003;6.471556e-002
3.031677e+003;6.426856e-002
3.033606e+003;6.427228e-002
3.035534e+003;6.434060e-002
3.037463e+003;6.362329e-002
3.039392e+003;6.289132e-002
3.041320e+003;6.247990e-002
3.043249e+003;6.183572e-002
3.045177e+003;6.125312e-002
3.047106e+003;6.098414e-002
3.049034e+003;6.057178e-002
3.050963e+003;6.006723e-002
3.052891e+003;5.943641e-002
3.054820e+003;5.910448e-002
3.056749e+003;5.880307e-002
3.058677e+003;5.855889e-002
3.060606e+003;5.847870e-002
3.062534e+003;5.835726e-002
3.064463e+003;5.797283e-002
3.066391e+003;5.729034e-002
3.068320e+003;5.708589e-002
3.070248e+003;5.706337e-002
3.072177e+003;5.701890e-002
3.074105e+003;5.697889e-002
3.076034e+003;5.691928e-002
3.077963e+003;5.649290e-002
3.079891e+003;5.584043e-002
3.081820e+003;5.580983e-002
3.083748e+003;5.598375e-002
3.085677e+003;5.604546e-002
3.087605e+003;5.583165e-002
3.089534e+003;5.557923e-002
3.091462e+003;5.565218e-002
3.093391e+003;5.571648e-002
3.095320e+003;5.556327e-002
3.097248e+003;5.536475e-002
3.099177e+003;5.500014e-002
3.101105e+003;5.510425e-002
3.103034e+003;5.544764e-002
3.104962e+003;5.521012e-002
3.106891e+003;5.472487e-002
3.108819e+003;5.464140e-002
3.110748e+003;5.503670e-002
3.112677e+003;5.510504e-002
3.114605e+003;5.467575e-002
3.116533e+003;5.455419e-002
3.118462e+003;5.481135e-002
3.120391e+003;5.502354e-002
3.122319e+003;5.473024e-002
3.124248e+003;5.421902e-002
3.126176e+003;5.397440e-002
3.128105e+003;5.412301e-002
3.130033e+003;5.391082e-002
3.131962e+003;5.363781e-002
3.133890e+003;5.380782e-002
3.135819e+003;5.378442e-002
3.137748e+003;5.367995e-002
3.139676e+003;5.375111e-002
3.141605e+003;5.368505e-002
3.143533e+003;5.367957e-002
3.145462e+003;5.368568e-002
3.147390e+003;5.374609e-002
3.149319e+003;5.376177e-002
3.151247e+003;5.338801e-002
3.153176e+003;5.331177e-002
3.155104e+003;5.332053e-002
3.157033e+003;5.315247e-002
3.158962e+003;5.309507e-002
3.160890e+003;5.301869e-002
3.162819e+003;5.294828e-002
3.164747e+003;5.285748e-002
3.166676e+003;5.323202e-002
3.168604e+003;5.363319e-002
3.170533e+003;5.371733e-002
3.172461e+003;5.363856e-002
3.174390e+003;5.342761e-002
3.176319e+003;5.347809e-002
3.178247e+003;5.376593e-002
3.180176e+003;5.350620e-002
3.182104e+003;5.346640e-002
3.184033e+003;5.378063e-002
3.185961e+003;5.366484e-002
3.187890e+003;5.350834e-002
3.189818e+003;5.344032e-002
3.191747e+003;5.357265e-002
3.193676e+003;5.374789e-002
3.195604e+003;5.376904e-002
3.197532e+003;5.380714e-002
3.199461e+003;5.384799e-002
3.201390e+003;5.386828e-002
3.203318e+003;5.402671e-002
3.205247e+003;5.378262e-002
3.207175e+003;5.329368e-002
3.209104e+003;5.303532e-002
3.211032e+003;5.336482e-002
3.212961e+003;5.411239e-002
3.214889e+003;5.444120e-002
3.216818e+003;5.428194e-002
3.218747e+003;5.454244e-002
3.220675e+003;5.493885e-002
3.222604e+003;5.502726e-002
3.224532e+003;5.510617e-002
3.226461e+003;5.516640e-002
3.228389e+003;5.507382e-002
3.230318e+003;5.486158e-002
3.232246e+003;5.480166e-002
3.234175e+003;5.497769e-002
3.236104e+003;5.501075e-002
3.238032e+003;5.532316e-002
3.239961e+003;5.559731e-002
3.241889e+003;5.567361e-002
3.243818e+003;5.566069e-002
3.245746e+003;5.578026e-002
3.247675e+003;5.594422e-002
3.249603e+003;5.612297e-002
3.251532e+003;5.626714e-002
3.253460e+003;5.638008e-002
3.255389e+003;5.670821e-002
3.257318e+003;5.686164e-002
3.259246e+003;5.672475e-002
3.261175e+003;5.650585e-002
3.263103e+003;5.668612e-002
3.265032e+003;5.720676e-002
3.266960e+003;5.747987e-002
3.268889e+003;5.759622e-002
3.270817e+003;5.766758e-002
3.272746e+003;5.772953e-002
3.274675e+003;5.776018e-002
3.276603e+003;5.780011e-002
3.278531e+003;5.815447e-002
3.280460e+003;5.849387e-002
3.282389e+003;5.800096e-002
3.284317e+003;5.789487e-002
3.286246e+003;5.836828e-002
3.288174e+003;5.881965e-002
3.290103e+003;5.891766e-002
3.292031e+003;5.892673e-002
3.293960e+003;5.905141e-002
3.295888e+003;5.924007e-002
3.297817e+003;5.955011e-002
3.299746e+003;5.949451e-002
3.301674e+003;5.955642e-002
3.303603e+003;5.985283e-002
3.305531e+003;5.998954e-002
3.307460e+003;6.024567e-002
3.309388e+003;6.004596e-002
3.311317e+003;6.005345e-002
3.313245e+003;6.067708e-002
3.315174e+003;6.116717e-002
3.317103e+003;6.128482e-002
3.319031e+003;6.133477e-002
3.320960e+003;6.112586e-002
3.322888e+003;6.120527e-002
3.324817e+003;6.176577e-002
3.326745e+003;6.195447e-002
3.328674e+003;6.186063e-002
3.330602e+003;6.229257e-002
3.332531e+003;6.281745e-002
3.334459e+003;6.260966e-002
3.336388e+003;6.241895e-002
3.338317e+003;6.256400e-002
3.340245e+003;6.267966e-002
3.342174e+003;6.305499e-002
3.344102e+003;6.363986e-002
3.346031e+003;6.383342e-002
3.347959e+003;6.391356e-002
3.349888e+003;6.386078e-002
3.351816e+003;6.391137e-002
3.353745e+003;6.429557e-002
3.355674e+003;6.447753e-002
3.357602e+003;6.437396e-002
3.359531e+003;6.445628e-002
3.361459e+003;6.479829e-002
3.363388e+003;6.500236e-002
3.365316e+003;6.493225e-002
3.367245e+003;6.515521e-002
3.369173e+003;6.570005e-002
3.371102e+003;6.565572e-002
3.373031e+003;6.555996e-002
3.374959e+003;6.587338e-002
3.376887e+003;6.598021e-002
3.378816e+003;6.594049e-002
3.380745e+003;6.627592e-002
3.382673e+003;6.673500e-002
3.384602e+003;6.695575e-002
3.386530e+003;6.678350e-002
3.388459e+003;6.714390e-002
3.390387e+003;6.762318e-002
3.392316e+003;6.770623e-002
3.394244e+003;6.822273e-002
3.396173e+003;6.856207e-002
3.398102e+003;6.857657e-002
3.400030e+003;6.897704e-002
3.401959e+003;6.893960e-002
3.403887e+003;6.848525e-002
3.405816e+003;6.881178e-002
3.407744e+003;6.908817e-002
3.409673e+003;6.896403e-002
3.411601e+003;6.940967e-002
3.413530e+003;7.009066e-002
3.415458e+003;7.011020e-002
3.417387e+003;6.981553e-002
3.419316e+003;6.990571e-002
3.421244e+003;7.005125e-002
3.423173e+003;7.022310e-002
3.425101e+003;7.081405e-002
3.427030e+003;7.135710e-002
3.428958e+003;7.151974e-002
3.430887e+003;7.177194e-002
3.432815e+003;7.201353e-002
3.434744e+003;7.223511e-002
3.436673e+003;7.230774e-002
3.438601e+003;7.267841e-002
3.440530e+003;7.299596e-002
3.442458e+003;7.311655e-002
3.444387e+003;7.324529e-002
3.446315e+003;7.341044e-002
3.448244e+003;7.361593e-002
3.450172e+003;7.385777e-002
3.452101e+003;7.422662e-002
3.454030e+003;7.441070e-002
3.455958e+003;7.451906e-002
3.457886e+003;7.476836e-002
3.459815e+003;7.517364e-002
3.461744e+003;7.548265e-002
3.463672e+003;7.530016e-002
3.465601e+003;7.560030e-002
3.467529e+003;7.603059e-002
3.469458e+003;7.624763e-002
3.471386e+003;7.666618e-002
3.473315e+003;7.659155e-002
3.475243e+003;7.687452e-002
3.477172e+003;7.737421e-002
3.479101e+003;7.691909e-002
3.481029e+003;7.641634e-002
3.482958e+003;7.648055e-002
3.484886e+003;7.673232e-002
3.486815e+003;7.666891e-002
3.488743e+003;7.671239e-002
3.490672e+003;7.692024e-002
3.492600e+003;7.678167e-002
3.494529e+003;7.681195e-002
3.496458e+003;7.702816e-002
3.498386e+003;7.687828e-002
3.500315e+003;7.638639e-002
3.502243e+003;7.616892e-002
3.504172e+003;7.627654e-002
3.506100e+003;7.647770e-002
3.508029e+003;7.666590e-002
3.509957e+003;7.624609e-002
3.511886e+003;7.576537e-002
3.513814e+003;7.594727e-002
3.515743e+003;7.546368e-002
3.517672e+003;7.485201e-002
3.519600e+003;7.490394e-002
3.521529e+003;7.491043e-002
3.523457e+003;7.495434e-002
3.525386e+003;7.486815e-002
3.527314e+003;7.444779e-002
3.529243e+003;7.408611e-002
3.531171e+003;7.399601e-002
3.533100e+003;7.380950e-002
3.535029e+003;7.326279e-002
3.536957e+003;7.276431e-002
3.538885e+003;7.272796e-002
3.540814e+003;7.291380e-002
3.542743e+003;7.272996e-002
3.544671e+003;7.210080e-002
3.546600e+003;7.172965e-002
3.548528e+003;7.163625e-002
3.550457e+003;7.132739e-002
3.552385e+003;7.112329e-002
3.554314e+003;7.081448e-002
3.556242e+003;7.043383e-002
3.558171e+003;6.977207e-002
3.560100e+003;6.917368e-002
3.562028e+003;6.881473e-002
3.563957e+003;6.829950e-002
3.565885e+003;6.737635e-002
3.567814e+003;6.706984e-002
3.569742e+003;6.737616e-002
3.571671e+003;6.711961e-002
3.573599e+003;6.627167e-002
3.575528e+003;6.583907e-002
3.577457e+003;6.560300e-002
3.579385e+003;6.514947e-002
3.581314e+003;6.481525e-002
3.583242e+003;6.450993e-002
3.585171e+003;6.383713e-002
3.587099e+003;6.289534e-002
3.589028e+003;6.269578e-002
3.590956e+003;6.269999e-002
3.592885e+003;6.222955e-002
3.594813e+003;6.190724e-002
3.596742e+003;6.171165e-002
3.598671e+003;6.138129e-002
3.600599e+003;6.089341e-002
3.602528e+003;6.006616e-002
3.604456e+003;5.966413e-002
3.606385e+003;5.953415e-002
3.608313e+003;5.885163e-002
3.610242e+003;5.851339e-002
3.612170e+003;5.845884e-002
3.614099e+003;5.795863e-002
3.616028e+003;5.734940e-002
3.617956e+003;5.695569e-002
3.619885e+003;5.669265e-002
3.621813e+003;5.665890e-002
3.623742e+003;5.645404e-002
3.625670e+003;5.615747e-002
3.627599e+003;5.528658e-002
3.629527e+003;5.454477e-002
3.631456e+003;5.477354e-002
3.633385e+003;5.483064e-002
3.635313e+003;5.436376e-002
3.637241e+003;5.359769e-002
3.639170e+003;5.283324e-002
3.641099e+003;5.283196e-002
3.643027e+003;5.302393e-002
3.644956e+003;5.248952e-002
3.646884e+003;5.109014e-002
3.648813e+003;5.021867e-002
3.650741e+003;5.014261e-002
3.652670e+003;4.994670e-002
3.654598e+003;4.905871e-002
3.656527e+003;4.841774e-002
3.658456e+003;4.822654e-002
3.660384e+003;4.737697e-002
3.662313e+003;4.626536e-002
3.664241e+003;4.559458e-002
3.666170e+003;4.521307e-002
3.668098e+003;4.427609e-002
3.670027e+003;4.286753e-002
3.671955e+003;4.211167e-002
3.673884e+003;4.148689e-002
3.675813e+003;4.085146e-002
3.677741e+003;4.093869e-002
3.679669e+003;4.062663e-002
3.681598e+003;4.003849e-002
3.683527e+003;3.931608e-002
3.685455e+003;3.849298e-002
3.687384e+003;3.776389e-002
3.689312e+003;3.774429e-002
3.691241e+003;3.795325e-002
3.693169e+003;3.762201e-002
3.695098e+003;3.753378e-002
3.697026e+003;3.771188e-002
3.698955e+003;3.733265e-002
3.700884e+003;3.653708e-002
3.702812e+003;3.627023e-002
3.704741e+003;3.610882e-002
3.706669e+003;3.584296e-002
3.708598e+003;3.581698e-002
3.710526e+003;3.538260e-002
3.712455e+003;3.521674e-002
3.714383e+003;3.553766e-002
3.716312e+003;3.568447e-002
3.718240e+003;3.563376e-002
3.720169e+003;3.527204e-002
3.722098e+003;3.502019e-002
3.724026e+003;3.483501e-002
3.725955e+003;3.470679e-002
3.727883e+003;3.470578e-002
3.729812e+003;3.463031e-002
3.731740e+003;3.431898e-002
3.733669e+003;3.424186e-002
3.735597e+003;3.408722e-002
3.737526e+003;3.441151e-002
3.739455e+003;3.458295e-002
3.741383e+003;3.449545e-002
3.743312e+003;3.358987e-002
3.745240e+003;3.336519e-002
3.747169e+003;3.352516e-002
3.749097e+003;3.305931e-002
3.751026e+003;3.291471e-002
3.752954e+003;3.347877e-002
3.754883e+003;3.426940e-002
3.756812e+003;3.426620e-002
3.758740e+003;3.414654e-002
3.760668e+003;3.435051e-002
3.762597e+003;3.423899e-002
3.764526e+003;3.387954e-002
3.766454e+003;3.398842e-002
3.768383e+003;3.401261e-002
3.770311e+003;3.371171e-002
3.772240e+003;3.419472e-002
3.774168e+003;3.450022e-002
3.776097e+003;3.421555e-002
3.778025e+003;3.416073e-002
3.779954e+003;3.430579e-002
3.781883e+003;3.411027e-002
3.783811e+003;3.401351e-002
3.785740e+003;3.444272e-002
3.787668e+003;3.429170e-002
3.789597e+003;3.403723e-002
3.791525e+003;3.454018e-002
3.793454e+003;3.480622e-002
3.795382e+003;3.454136e-002
3.797311e+003;3.453806e-002
3.799240e+003;3.415227e-002
3.801168e+003;3.315146e-002
3.803097e+003;3.342706e-002
3.805025e+003;3.411131e-002
3.806954e+003;3.401698e-002
3.808882e+003;3.441176e-002
3.810811e+003;3.490071e-002
3.812739e+003;3.448626e-002
3.814668e+003;3.374777e-002
3.816596e+003;3.376522e-002
3.818525e+003;3.439842e-002
3.820454e+003;3.448242e-002
3.822382e+003;3.462866e-002
3.824311e+003;3.473827e-002
3.826239e+003;3.431235e-002
3.828168e+003;3.423110e-002
3.830096e+003;3.481394e-002
3.832025e+003;3.519873e-002
3.833953e+003;3.482359e-002
3.835882e+003;3.389814e-002
3.837811e+003;3.351714e-002
3.839739e+003;3.412890e-002
3.841667e+003;3.447202e-002
3.843596e+003;3.447216e-002
3.845525e+003;3.448806e-002
3.847453e+003;3.459192e-002
3.849382e+003;3.464718e-002
3.851310e+003;3.392236e-002
3.853239e+003;3.333560e-002
3.855167e+003;3.431615e-002
3.857096e+003;3.524915e-002
3.859024e+003;3.509379e-002
3.860953e+003;3.484768e-002
3.862882e+003;3.499254e-002
3.864810e+003;3.478095e-002
3.866739e+003;3.491978e-002
3.868667e+003;3.528746e-002
3.870596e+003;3.553471e-002
3.872524e+003;3.529396e-002
3.874453e+003;3.494280e-002
3.876381e+003;3.546625e-002
3.878310e+003;3.563239e-002
3.880239e+003;3.523495e-002
3.882167e+003;3.515530e-002
3.884096e+003;3.531675e-002
3.886024e+003;3.571883e-002
3.887953e+003;3.598271e-002
3.889881e+003;3.534432e-002
3.891810e+003;3.539737e-002
3.893738e+003;3.606490e-002
3.895667e+003;3.599628e-002
3.897595e+003;3.578341e-002
3.899524e+003;3.609478e-002
3.901453e+003;3.649772e-002
3.903381e+003;3.640252e-002
3.905310e+003;3.659403e-002
3.907238e+003;3.695263e-002
3.909167e+003;3.715290e-002
3.911095e+003;3.738450e-002
3.913024e+003;3.738479e-002
3.914952e+003;3.707415e-002
3.916881e+003;3.700051e-002
3.918810e+003;3.751633e-002
3.920738e+003;3.767740e-002
3.922667e+003;3.755455e-002
3.924595e+003;3.751449e-002
3.926524e+003;3.762034e-002
3.928452e+003;3.828949e-002
3.930381e+003;3.907544e-002
3.932309e+003;3.921116e-002
3.934238e+003;3.891342e-002
3.936167e+003;3.882083e-002
3.938095e+003;3.896879e-002
3.940023e+003;3.908998e-002
3.941952e+003;3.866876e-002
3.943881e+003;3.844925e-002
3.945809e+003;3.841866e-002
3.947738e+003;3.851395e-002
3.949666e+003;3.947811e-002
3.951595e+003;3.972203e-002
3.953523e+003;3.929835e-002
3.955452e+003;3.931667e-002
3.957380e+003;3.929494e-002
3.959309e+003;3.948504e-002
3.961238e+003;3.974440e-002
3.963166e+003;4.016659e-002
3.965095e+003;4.073256e-002
3.967023e+003;4.095853e-002
3.968952e+003;4.129117e-002
3.970880e+003;4.130647e-002
3.972809e+003;4.153425e-002
3.974737e+003;4.209247e-002
3.976666e+003;4.199548e-002
3.978594e+003;4.189031e-002
3.980523e+003;4.191578e-002
3.982452e+003;4.162478e-002
3.984380e+003;4.153807e-002
3.986309e+003;4.165006e-002
3.988237e+003;4.164422e-002
3.990166e+003;4.160903e-002
3.992094e+003;4.141522e-002
3.994023e+003;4.100147e-002
3.995951e+003;4.103085e-002
3.997880e+003;4.147409e-002
3.999809e+003;4.153392e-002
4.001737e+003;0.000000e+000
