3.992094e+002;0.000000e+000
4.011380e+002;0.000000e+000
4.030665e+002;0.000000e+000
4.049951e+002;0.000000e+000
4.069236e+002;0.000000e+000
4.088522e+002;0.000000e+000
4.107807e+002;0.000000e+000
4.127093e+002;0.000000e+000
4.146378e+002;0.000000e+000
4.165664e+002;0.000000e+000
4.184949e+002;0.000000e+000
4.204235e+002;0.000000e+000
4.223520e+002;0.000000e+000
4.242806e+002;0.000000e+000
4.262091e+002;0.000000e+000
4.281377e+002;0.000000e+000
4.300662e+002;0.000000e+000
4.319948e+002;0.000000e+000
4.339233e+002;0.000000e+000
4.358519e+002;0.000000e+000
4.377804e+002;0.000000e+000
4.397090e+002;0.000000e+000
4.416375e+002;0.000000e+000
4.435660e+002;0.000000e+000
4.454946e+002;0.000000e+000
4.474232e+002;0.000000e+000
4.493517e+002;0.000000e+000
4.512802e+002;0.000000e+000
4.532088e+002;0.000000e+000
4.551373e+002;0.000000e+000
4.570659e+002;0.000000e+000
4.589944e+002;0.000000e+000
4.609230e+002;0.000000e+000
4.628515e+002;0.000000e+000
4.647801e+002;0.000000e+000
4.667086e+002;0.000000e+000
4.686372e+002;0.000000e+000
4.705657e+002;0.000000e+000
4.724943e+002;0.000000e+000
4.744228e+002;0.000000e+000
4.763513e+002;0.000000e+000
4.782799e+002;0.000000e+000
4.802085e+002;0.000000e+000
4.821370e+002;0.000000e+000
4.840656e+002;0.000000e+000
4.859941e+002;0.000000e+000
4.879226e+002;0.000000e+000
4.898512e+002;0.000000e+000
4.917798e+002;0.000000e+000
4.937083e+002;0.000000e+000
4.956368e+002;0.000000e+000
4.975654e+002;0.000000e+000
4.994939e+002;0.000000e+000
5.014225e+002;0.000000e+000
5.033510e+002;0.000000e+000
5.052796e+002;0.000000e+000
5.072081e+002;0.000000e+000
5.091367e+002;0.000000e+000
5.110652e+002;0.000000e+000
5.129938e+002;0.000000e+000
5.149223e+002;0.000000e+000
5.168509e+002;0.000000e+000
5.187794e+002;0.000000e+000
5.207079e+002;0.000000e+000
5.226365e+002;0.000000e+000
5.245651e+002;0.000000e+000
5.264936e+002;0.000000e+000
5.284222e+002;0.000000e+000
5.303507e+002;0.000000e+000
5.322792e+002;0.000000e+000
5.342078e+002;0.000000e+000
5.361364e+002;0.000000e+000
5.380649e+002;0.000000e+000
5.399935e+002;0.000000e+000
5.419220e+002;0.000000e+000
5.438505e+002;0.000000e+000
5.457791e+002;0.000000e+000
5.477076e+002;0.000000e+000
5.496362e+002;0.000000e+000
5.515648e+002;0.000000e+000
5.534933e+002;0.000000e+000
5.554218e+002;0.000000e+000
5.573504e+002;0.000000e+000
5.592789e+002;0.000000e+000
5.612075e+002;0.000000e+000
5.631360e+002;0.000000e+000
5.650646e+002;0.000000e+000
5.669931e+002;0.000000e+000
5.689217e+002;0.000000e+000
5.708502e+002;0.000000e+000
5.727787e+002;0.000000e+000
5.747073e+002;0.000000e+000
5.766359e+002;0.000000e+000
5.785644e+002;0.000000e+000
5.804930e+002;0.000000e+000
5.824215e+002;0.000000e+000
5.843500e+002;0.000000e+000
5.862786e+002;0.000000e+000
5.882072e+002;0.000000e+000
5.901357e+002;0.000000e+000
5.920643e+002;0.000000e+000
5.939928e+002;0.000000e+000
5.959213e+002;0.000000e+000
5.978499e+002;0.000000e+000
5.997784e+002;1.953224e-001
6.017070e+002;1.986123e-001
6.036355e+002;1.947275e-001
6.055641e+002;1.903180e-001
6.074926e+002;1.832352e-001
6.094211e+002;1.725217e-001
6.113497e+002;1.689349e-001
6.132783e+002;1.657391e-001
6.152068e+002;1.607399e-001
6.171354e+002;1.558725e-001
6.190639e+002;1.548639e-001
6.209924e+002;1.526959e-001
6.229210e+002;1.480062e-001
6.248495e+002;1.411328e-001
6.267781e+002;1.366460e-001
6.287067e+002;1.359659e-001
6.306352e+002;1.352321e-001
6.325637e+002;1.346214e-001
6.344923e+002;1.321932e-001
6.364208e+002;1.293876e-001
6.383494e+002;1.288955e-001
6.402780e+002;1.308921e-001
6.422065e+002;1.310820e-001
6.441350e+002;1.247239e-001
6.460636e+002;1.226490e-001
6.479921e+002;1.239165e-001
6.499207e+002;1.224851e-001
6.518492e+002;1.191250e-001
6.537778e+002;1.184075e-001
6.557063e+002;1.190963e-001
6.576349e+002;1.188468e-001
6.595634e+002;1.160693e-001
6.614919e+002;1.131882e-001
6.634205e+002;1.113251e-001
6.653491e+002;1.097547e-001
6.672776e+002;1.086457e-001
6.692062e+002;1.092765e-001
6.711347e+002;1.097764e-001
6.730632e+002;1.094348e-001
6.749918e+002;1.098262e-001
6.769203e+002;1.112032e-001
6.788489e+002;1.123137e-001
6.807775e+002;1.120728e-001
6.827060e+002;1.112462e-001
6.846345e+002;1.108095e-001
6.865631e+002;1.107550e-001
6.884916e+002;1.105905e-001
6.904202e+002;1.101819e-001
6.923488e+002;1.091233e-001
6.942773e+002;1.071829e-001
6.962058e+002;1.067269e-001
6.981344e+002;1.061071e-001
7.000629e+002;1.044377e-001
7.019915e+002;1.020994e-001
7.039200e+002;1.002314e-001
7.058486e+002;9.978285e-002
7.077771e+002;9.943453e-002
7.097057e+002;9.788035e-002
7.116342e+002;9.688657e-002
7.135627e+002;9.611995e-002
7.154913e+002;9.546463e-002
7.174199e+002;9.476665e-002
7.193484e+002;9.371537e-002
7.212770e+002;9.314135e-002
7.232055e+002;9.222828e-002
7.251340e+002;9.101670e-002
7.270626e+002;9.057654e-002
7.289911e+002;8.912247e-002
7.309197e+002;8.649448e-002
7.328483e+002;8.419541e-002
7.347768e+002;8.149810e-002
7.367053e+002;7.952391e-002
7.386339e+002;7.817319e-002
7.405624e+002;7.676522e-002
7.424910e+002;7.607827e-002
7.444196e+002;7.565548e-002
7.463481e+002;7.511175e-002
7.482766e+002;7.378052e-002
7.502052e+002;7.302555e-002
7.521337e+002;7.288688e-002
7.540623e+002;7.257047e-002
7.559908e+002;7.247266e-002
7.579194e+002;7.285706e-002
7.598479e+002;7.224055e-002
7.617765e+002;7.118453e-002
7.637050e+002;7.107345e-002
7.656335e+002;7.120191e-002
7.675621e+002;7.142439e-002
7.694907e+002;7.181440e-002
7.714192e+002;7.152064e-002
7.733478e+002;7.108602e-002
7.752763e+002;7.117087e-002
7.772048e+002;7.097414e-002
7.791334e+002;7.082548e-002
7.810620e+002;7.118906e-002
7.829905e+002;7.120717e-002
7.849191e+002;7.129252e-002
7.868476e+002;7.181706e-002
7.887761e+002;7.191660e-002
7.907047e+002;7.234888e-002
7.926332e+002;7.300976e-002
7.945618e+002;7.357848e-002
7.964903e+002;7.461851e-002
7.984189e+002;7.548647e-002
8.003474e+002;7.578778e-002
8.022759e+002;7.640460e-002
8.042045e+002;7.772378e-002
8.061331e+002;7.910987e-002
8.080616e+002;8.020696e-002
8.099902e+002;8.140953e-002
8.119187e+002;8.275966e-002
8.138472e+002;8.364306e-002
8.157758e+002;8.510567e-002
8.177043e+002;8.678588e-002
8.196329e+002;8.868988e-002
8.215615e+002;9.108674e-002
8.234900e+002;9.428649e-002
8.254185e+002;9.833766e-002
8.273471e+002;1.027626e-001
8.292756e+002;1.077698e-001
8.312042e+002;1.126228e-001
8.331328e+002;1.167186e-001
8.350613e+002;1.203727e-001
8.369898e+002;1.228774e-001
8.389184e+002;1.242749e-001
8.408469e+002;1.246324e-001
8.427755e+002;1.233816e-001
8.447040e+002;1.209840e-001
8.466326e+002;1.178160e-001
8.485611e+002;1.146042e-001
8.504897e+002;1.126930e-001
8.524182e+002;1.110256e-001
8.543467e+002;1.093639e-001
8.562753e+002;1.091721e-001
8.582039e+002;1.106811e-001
8.601324e+002;1.127053e-001
8.620610e+002;1.154854e-001
8.639895e+002;1.193655e-001
8.659180e+002;1.241606e-001
8.678466e+002;1.292132e-001
8.697751e+002;1.348618e-001
8.717037e+002;1.410096e-001
8.736323e+002;1.467762e-001
8.755608e+002;1.513022e-001
8.774893e+002;1.547337e-001
8.794179e+002;1.575296e-001
8.813464e+002;1.605352e-001
8.832750e+002;1.636688e-001
8.852036e+002;1.668675e-001
8.871321e+002;1.712102e-001
8.890606e+002;1.766463e-001
8.909892e+002;1.824590e-001
8.929177e+002;1.886500e-001
8.948463e+002;1.945685e-001
8.967748e+002;1.992050e-001
8.987034e+002;2.012289e-001
9.006319e+002;2.007985e-001
9.025605e+002;1.981253e-001
9.044890e+002;1.937276e-001
9.064175e+002;1.885598e-001
9.083461e+002;1.824792e-001
9.102747e+002;1.763572e-001
9.122032e+002;1.712022e-001
9.141318e+002;1.665533e-001
9.160603e+002;1.623009e-001
9.179888e+002;1.593849e-001
9.199174e+002;1.569610e-001
9.218459e+002;1.541505e-001
9.237745e+002;1.520227e-001
9.257031e+002;1.508107e-001
9.276316e+002;1.498621e-001
9.295601e+002;1.494063e-001
9.314887e+002;1.493492e-001
9.334172e+002;1.491330e-001
9.353458e+002;1.490673e-001
9.372744e+002;1.499065e-001
9.392029e+002;1.513057e-001
9.411314e+002;1.526889e-001
9.430600e+002;1.545814e-001
9.449885e+002;1.569355e-001
9.469171e+002;1.592776e-001
9.488456e+002;1.613232e-001
9.507742e+002;1.630612e-001
9.527027e+002;1.650174e-001
9.546313e+002;1.671853e-001
9.565598e+002;1.689383e-001
9.584883e+002;1.703645e-001
9.604169e+002;1.723075e-001
9.623455e+002;1.753522e-001
9.642740e+002;1.792239e-001
9.662026e+002;1.837190e-001
9.681311e+002;1.889351e-001
9.700596e+002;1.951117e-001
9.719882e+002;2.024774e-001
9.739167e+002;2.103252e-001
9.758453e+002;2.173773e-001
9.777739e+002;2.241586e-001
9.797024e+002;2.311375e-001
9.816309e+002;2.378161e-001
9.835595e+002;2.437482e-001
9.854880e+002;2.488596e-001
9.874166e+002;2.535532e-001
9.893452e+002;2.580328e-001
9.912737e+002;2.621107e-001
9.932022e+002;2.664309e-001
9.951307e+002;2.710735e-001
9.970593e+002;2.770594e-001
9.989879e+002;2.846270e-001
1.000916e+003;2.930495e-001
1.002845e+003;3.028336e-001
1.004773e+003;3.139455e-001
1.006702e+003;3.262099e-001
1.008631e+003;3.396224e-001
1.010559e+003;3.536398e-001
1.012488e+003;3.686767e-001
1.014416e+003;3.844965e-001
1.016345e+003;4.009542e-001
1.018273e+003;4.178173e-001
1.020202e+003;4.348149e-001
1.022130e+003;4.510240e-001
1.024059e+003;4.674008e-001
1.025988e+003;4.826528e-001
1.027916e+003;4.950190e-001
1.029845e+003;5.049702e-001
1.031773e+003;5.108707e-001
1.033702e+003;5.124586e-001
1.035630e+003;5.116829e-001
1.037559e+003;5.086653e-001
1.039487e+003;5.030479e-001
1.041416e+003;4.955951e-001
1.043344e+003;4.866740e-001
1.045273e+003;4.761735e-001
1.047202e+003;4.641457e-001
1.049130e+003;4.513715e-001
1.051059e+003;4.368596e-001
1.052987e+003;4.215973e-001
1.054916e+003;4.070930e-001
1.056844e+003;3.934278e-001
1.058773e+003;3.801847e-001
1.060701e+003;3.679958e-001
1.062630e+003;3.572008e-001
1.064558e+003;3.471533e-001
1.066487e+003;3.383217e-001
1.068416e+003;3.300731e-001
1.070344e+003;3.215468e-001
1.072273e+003;3.132516e-001
1.074201e+003;3.051613e-001
1.076130e+003;2.959531e-001
1.078058e+003;2.867829e-001
1.079987e+003;2.785510e-001
1.081915e+003;2.703969e-001
1.083844e+003;2.629612e-001
1.085773e+003;2.549318e-001
1.087701e+003;2.468546e-001
1.089630e+003;2.394183e-001
1.091558e+003;2.316215e-001
1.093487e+003;2.238503e-001
1.095415e+003;2.167683e-001
1.097344e+003;2.109285e-001
1.099272e+003;2.067509e-001
1.101201e+003;2.037257e-001
1.103129e+003;2.011483e-001
1.105058e+003;1.984146e-001
1.106987e+003;1.960190e-001
1.108915e+003;1.946517e-001
1.110844e+003;1.938272e-001
1.112772e+003;1.940475e-001
1.114701e+003;1.939239e-001
1.116629e+003;1.924268e-001
1.118558e+003;1.907392e-001
1.120486e+003;1.892674e-001
1.122415e+003;1.874128e-001
1.124344e+003;1.856668e-001
1.126272e+003;1.841578e-001
1.128201e+003;1.819428e-001
1.130129e+003;1.792595e-001
1.132058e+003;1.764196e-001
1.133986e+003;1.736360e-001
1.135915e+003;1.713782e-001
1.137843e+003;1.703411e-001
1.139772e+003;1.701486e-001
1.141700e+003;1.703500e-001
1.143629e+003;1.706890e-001
1.145557e+003;1.713986e-001
1.147486e+003;1.729356e-001
1.149415e+003;1.752444e-001
1.151343e+003;1.774763e-001
1.153272e+003;1.795660e-001
1.155200e+003;1.816341e-001
1.157129e+003;1.836907e-001
1.159057e+003;1.851536e-001
1.160986e+003;1.853655e-001
1.162914e+003;1.853596e-001
1.164843e+003;1.851667e-001
1.166771e+003;1.842397e-001
1.168700e+003;1.827596e-001
1.170629e+003;1.811521e-001
1.172557e+003;1.796158e-001
1.174486e+003;1.780419e-001
1.176414e+003;1.762867e-001
1.178343e+003;1.751572e-001
1.180271e+003;1.748398e-001
1.182200e+003;1.758422e-001
1.184128e+003;1.786574e-001
1.186057e+003;1.833302e-001
1.187986e+003;1.906828e-001
1.189914e+003;2.002621e-001
1.191843e+003;2.127701e-001
1.193771e+003;2.288236e-001
1.195700e+003;2.483550e-001
1.197628e+003;2.712685e-001
1.199557e+003;2.980344e-001
1.201485e+003;3.270746e-001
1.203414e+003;3.560643e-001
1.205343e+003;3.835807e-001
1.207271e+003;4.083152e-001
1.209200e+003;4.286681e-001
1.211128e+003;4.438109e-001
1.213057e+003;4.536160e-001
1.214985e+003;4.588710e-001
1.216914e+003;4.604867e-001
1.218842e+003;4.598775e-001
1.220771e+003;4.580654e-001
1.222699e+003;4.552296e-001
1.224628e+003;4.518493e-001
1.226557e+003;4.472744e-001
1.228485e+003;4.401540e-001
1.230414e+003;4.301195e-001
1.232342e+003;4.181875e-001
1.234271e+003;4.049375e-001
1.236199e+003;3.899485e-001
1.238128e+003;3.734753e-001
1.240056e+003;3.564437e-001
1.241985e+003;3.395865e-001
1.243913e+003;3.226437e-001
1.245842e+003;3.059229e-001
1.247771e+003;2.903291e-001
1.249699e+003;2.753244e-001
1.251628e+003;2.607332e-001
1.253556e+003;2.469174e-001
1.255485e+003;2.340575e-001
1.257413e+003;2.220982e-001
1.259342e+003;2.106330e-001
1.261270e+003;1.995825e-001
1.263199e+003;1.889925e-001
1.265127e+003;1.798948e-001
1.267056e+003;1.718244e-001
1.268985e+003;1.638433e-001
1.270913e+003;1.562808e-001
1.272842e+003;1.495235e-001
1.274770e+003;1.436145e-001
1.276699e+003;1.380052e-001
1.278627e+003;1.330099e-001
1.280556e+003;1.287573e-001
1.282484e+003;1.249154e-001
1.284413e+003;1.213939e-001
1.286342e+003;1.180919e-001
1.288270e+003;1.149879e-001
1.290199e+003;1.123753e-001
1.292127e+003;1.101764e-001
1.294056e+003;1.080620e-001
1.295984e+003;1.061651e-001
1.297913e+003;1.044419e-001
1.299841e+003;1.027434e-001
1.301770e+003;1.013163e-001
1.303698e+003;1.006806e-001
1.305627e+003;1.003881e-001
1.307556e+003;1.000536e-001
1.309484e+003;9.969147e-002
1.311413e+003;9.938683e-002
1.313341e+003;9.937371e-002
1.315270e+003;9.961074e-002
1.317198e+003;9.983335e-002
1.319127e+003;9.977852e-002
1.321055e+003;9.955098e-002
1.322984e+003;9.933805e-002
1.324912e+003;9.907316e-002
1.326841e+003;9.870257e-002
1.328770e+003;9.828459e-002
1.330698e+003;9.777397e-002
1.332627e+003;9.736920e-002
1.334555e+003;9.709705e-002
1.336484e+003;9.711703e-002
1.338412e+003;9.707414e-002
1.340341e+003;9.706511e-002
1.342269e+003;9.760157e-002
1.344198e+003;9.870315e-002
1.346126e+003;1.008982e-001
1.348055e+003;1.045053e-001
1.349984e+003;1.096344e-001
1.351912e+003;1.172396e-001
1.353841e+003;1.282828e-001
1.355769e+003;1.431267e-001
1.357698e+003;1.609532e-001
1.359626e+003;1.798601e-001
1.361555e+003;1.974264e-001
1.363483e+003;2.108109e-001
1.365412e+003;2.180176e-001
1.367341e+003;2.192980e-001
1.369269e+003;2.159351e-001
1.371198e+003;2.093586e-001
1.373126e+003;2.008527e-001
1.375055e+003;1.916775e-001
1.376983e+003;1.823258e-001
1.378912e+003;1.724886e-001
1.380840e+003;1.621529e-001
1.382769e+003;1.517083e-001
1.384698e+003;1.415245e-001
1.386626e+003;1.320425e-001
1.388555e+003;1.236534e-001
1.390483e+003;1.164052e-001
1.392412e+003;1.102049e-001
1.394340e+003;1.052854e-001
1.396269e+003;1.018343e-001
1.398197e+003;9.943436e-002
1.400126e+003;9.778559e-002
1.402054e+003;9.680888e-002
1.403983e+003;9.652632e-002
1.405911e+003;9.661886e-002
1.407840e+003;9.699646e-002
1.409769e+003;9.748880e-002
1.411697e+003;9.812467e-002
1.413626e+003;9.905148e-002
1.415554e+003;1.003539e-001
1.417483e+003;1.016333e-001
1.419411e+003;1.036042e-001
1.421340e+003;1.063072e-001
1.423268e+003;1.087932e-001
1.425197e+003;1.111397e-001
1.427125e+003;1.131553e-001
1.429054e+003;1.145179e-001
1.430983e+003;1.152349e-001
1.432911e+003;1.151711e-001
1.434840e+003;1.137854e-001
1.436768e+003;1.116035e-001
1.438697e+003;1.097554e-001
1.440625e+003;1.076323e-001
1.442554e+003;1.053451e-001
1.444482e+003;1.027579e-001
1.446411e+003;9.975484e-002
1.448340e+003;9.734147e-002
1.450268e+003;9.553291e-002
1.452197e+003;9.359940e-002
1.454125e+003;9.125771e-002
1.456054e+003;8.840077e-002
1.457982e+003;8.643517e-002
1.459911e+003;8.521221e-002
1.461839e+003;8.332361e-002
1.463768e+003;8.085915e-002
1.465697e+003;7.853199e-002
1.467625e+003;7.667575e-002
1.469554e+003;7.490800e-002
1.471482e+003;7.282673e-002
1.473411e+003;7.110666e-002
1.475339e+003;7.017933e-002
1.477268e+003;6.940038e-002
1.479196e+003;6.842504e-002
1.481125e+003;6.740085e-002
1.483053e+003;6.661493e-002
1.484982e+003;6.589930e-002
1.486911e+003;6.527102e-002
1.488839e+003;6.452888e-002
1.490768e+003;6.391682e-002
1.492696e+003;6.371081e-002
1.494625e+003;6.320056e-002
1.496553e+003;6.268211e-002
1.498482e+003;6.284904e-002
1.500410e+003;6.313638e-002
1.502339e+003;6.311721e-002
1.504267e+003;6.235893e-002
1.506196e+003;6.147377e-002
1.508125e+003;6.184118e-002
1.510053e+003;6.245358e-002
1.511982e+003;6.259615e-002
1.513910e+003;6.259465e-002
1.515839e+003;6.250282e-002
1.517767e+003;6.243831e-002
1.519696e+003;6.191897e-002
1.521624e+003;6.158670e-002
1.523553e+003;6.213477e-002
1.525481e+003;6.247890e-002
1.527410e+003;6.300186e-002
1.529339e+003;6.358229e-002
1.531267e+003;6.324518e-002
1.533196e+003;6.285988e-002
1.535124e+003;6.311698e-002
1.537053e+003;6.236987e-002
1.538981e+003;6.087938e-002
1.540910e+003;6.082022e-002
1.542838e+003;6.165268e-002
1.544767e+003;6.233575e-002
1.546695e+003;6.279643e-002
1.548624e+003;6.294754e-002
1.550553e+003;6.307921e-002
1.552481e+003;6.298769e-002
1.554410e+003;6.256672e-002
1.556338e+003;6.194962e-002
1.558267e+003;6.075238e-002
1.560195e+003;6.092345e-002
1.562124e+003;6.227686e-002
1.564052e+003;6.287504e-002
1.565981e+003;6.297776e-002
1.567910e+003;6.253476e-002
1.569838e+003;6.235277e-002
1.571767e+003;6.282523e-002
1.573695e+003;6.263190e-002
1.575624e+003;6.184397e-002
1.577552e+003;6.219659e-002
1.579481e+003;6.308319e-002
1.581409e+003;6.351187e-002
1.583338e+003;6.374891e-002
1.585266e+003;6.389475e-002
1.587195e+003;6.415397e-002
1.589124e+003;6.466476e-002
1.591052e+003;6.510605e-002
1.592981e+003;6.536110e-002
1.594909e+003;6.582715e-002
1.596838e+003;6.651227e-002
1.598766e+003;6.724945e-002
1.600695e+003;6.795135e-002
1.602623e+003;6.849855e-002
1.604552e+003;6.917329e-002
1.606480e+003;6.970169e-002
1.608409e+003;7.021169e-002
1.610338e+003;7.066400e-002
1.612266e+003;7.129697e-002
1.614195e+003;7.170894e-002
1.616123e+003;7.177992e-002
1.618052e+003;7.270375e-002
1.619980e+003;7.377483e-002
1.621909e+003;7.405942e-002
1.623837e+003;7.436179e-002
1.625766e+003;7.524042e-002
1.627694e+003;7.600663e-002
1.629623e+003;7.674691e-002
1.631552e+003;7.749669e-002
1.633480e+003;7.771114e-002
1.635409e+003;7.773654e-002
1.637337e+003;7.873677e-002
1.639266e+003;8.000734e-002
1.641194e+003;8.079047e-002
1.643123e+003;8.120743e-002
1.645051e+003;8.117004e-002
1.646980e+003;8.140825e-002
1.648909e+003;8.233123e-002
1.650837e+003;8.203708e-002
1.652766e+003;8.097935e-002
1.654694e+003;8.204352e-002
1.656623e+003;8.335271e-002
1.658551e+003;8.373361e-002
1.660480e+003;8.385392e-002
1.662408e+003;8.420984e-002
1.664337e+003;8.482704e-002
1.666266e+003;8.539585e-002
1.668194e+003;8.574795e-002
1.670123e+003;8.627591e-002
1.672051e+003;8.748237e-002
1.673980e+003;8.873735e-002
1.675908e+003;9.001216e-002
1.677837e+003;9.151461e-002
1.679765e+003;9.292682e-002
1.681694e+003;9.439275e-002
1.683622e+003;9.551504e-002
1.685551e+003;9.809621e-002
1.687479e+003;1.016313e-001
1.689408e+003;1.048166e-001
1.691337e+003;1.082338e-001
1.693265e+003;1.117573e-001
1.695194e+003;1.150884e-001
1.697122e+003;1.196662e-001
1.699051e+003;1.246888e-001
1.700979e+003;1.304459e-001
1.702908e+003;1.376926e-001
1.704836e+003;1.450151e-001
1.706765e+003;1.530670e-001
1.708693e+003;1.621675e-001
1.710622e+003;1.722594e-001
1.712551e+003;1.833625e-001
1.714479e+003;1.953579e-001
1.716408e+003;2.081882e-001
1.718336e+003;2.225225e-001
1.720265e+003;2.382096e-001
1.722193e+003;2.539721e-001
1.724122e+003;2.695283e-001
1.726050e+003;2.846149e-001
1.727979e+003;2.986537e-001
1.729908e+003;3.110434e-001
1.731836e+003;3.212045e-001
1.733765e+003;3.287726e-001
1.735693e+003;3.343883e-001
1.737622e+003;3.362778e-001
1.739550e+003;3.343569e-001
1.741479e+003;3.299333e-001
1.743407e+003;3.233526e-001
1.745336e+003;3.150139e-001
1.747265e+003;3.050657e-001
1.749193e+003;2.936860e-001
1.751122e+003;2.810361e-001
1.753050e+003;2.670107e-001
1.754979e+003;2.514332e-001
1.756907e+003;2.342036e-001
1.758836e+003;2.159161e-001
1.760764e+003;1.965273e-001
1.762693e+003;1.773678e-001
1.764621e+003;1.596549e-001
1.766550e+003;1.432668e-001
1.768479e+003;1.289418e-001
1.770407e+003;1.172733e-001
1.772336e+003;1.074533e-001
1.774264e+003;9.993881e-002
1.776193e+003;9.398413e-002
1.778121e+003;8.894717e-002
1.780050e+003;8.480041e-002
1.781978e+003;8.122861e-002
1.783907e+003;7.831670e-002
1.785835e+003;7.616422e-002
1.787764e+003;7.451116e-002
1.789693e+003;7.265965e-002
1.791621e+003;7.090146e-002
1.793550e+003;6.983760e-002
1.795478e+003;6.912103e-002
1.797407e+003;6.824049e-002
1.799335e+003;6.723576e-002
1.801264e+003;6.646709e-002
1.803192e+003;6.569681e-002
1.805121e+003;6.499266e-002
1.807049e+003;6.438310e-002
1.808978e+003;6.371269e-002
1.810907e+003;6.313595e-002
1.812835e+003;6.251518e-002
1.814764e+003;6.201826e-002
1.816692e+003;6.157696e-002
1.818621e+003;6.105995e-002
1.820549e+003;6.035962e-002
1.822478e+003;5.992905e-002
1.824406e+003;5.947566e-002
1.826335e+003;5.897686e-002
1.828264e+003;5.831693e-002
1.830192e+003;5.768086e-002
1.832121e+003;5.736709e-002
1.834049e+003;5.712160e-002
1.835978e+003;5.684827e-002
1.837906e+003;5.647834e-002
1.839835e+003;5.601300e-002
1.841763e+003;5.549997e-002
1.843692e+003;5.504832e-002
1.845620e+003;5.506103e-002
1.847549e+003;5.500255e-002
1.849478e+003;5.460980e-002
1.851406e+003;5.430620e-002
1.853335e+003;5.418077e-002
1.855263e+003;5.405095e-002
1.857192e+003;5.391236e-002
1.859120e+003;5.373233e-002
1.861049e+003;5.344879e-002
1.862977e+003;5.327611e-002
1.864906e+003;5.319805e-002
1.866834e+003;5.288884e-002
1.868763e+003;5.239395e-002
1.870692e+003;5.226329e-002
1.872620e+003;5.249367e-002
1.874549e+003;5.230854e-002
1.876477e+003;5.192794e-002
1.878406e+003;5.161213e-002
1.880334e+003;5.141612e-002
1.882263e+003;5.116022e-002
1.884191e+003;5.096557e-002
1.886120e+003;5.083544e-002
1.888048e+003;5.055073e-002
1.889977e+003;5.048712e-002
1.891906e+003;5.066178e-002
1.893834e+003;5.069760e-002
1.895763e+003;5.065586e-002
1.897691e+003;5.057485e-002
1.899620e+003;5.064663e-002
1.901548e+003;5.069429e-002
1.903477e+003;5.087053e-002
1.905405e+003;5.108399e-002
1.907334e+003;5.114904e-002
1.909262e+003;5.109577e-002
1.911191e+003;5.114482e-002
1.913120e+003;5.123705e-002
1.915048e+003;5.152165e-002
1.916977e+003;5.166027e-002
1.918905e+003;5.186606e-002
1.920834e+003;5.208782e-002
1.922762e+003;5.204801e-002
1.924691e+003;5.196748e-002
1.926619e+003;5.196815e-002
1.928548e+003;5.207968e-002
1.930477e+003;5.195900e-002
1.932405e+003;5.185105e-002
1.934334e+003;5.186599e-002
1.936262e+003;5.184694e-002
1.938191e+003;5.176403e-002
1.940119e+003;5.178688e-002
1.942048e+003;5.187472e-002
1.943976e+003;5.195165e-002
1.945905e+003;5.180285e-002
1.947833e+003;5.165366e-002
1.949762e+003;5.167539e-002
1.951691e+003;5.167281e-002
1.953619e+003;5.164874e-002
1.955548e+003;5.158366e-002
1.957476e+003;5.143358e-002
1.959405e+003;5.125342e-002
1.961333e+003;5.101557e-002
1.963262e+003;5.075197e-002
1.965190e+003;5.043025e-002
1.967119e+003;5.026145e-002
1.969047e+003;5.014941e-002
1.970976e+003;4.996232e-002
1.972905e+003;4.991719e-002
1.974833e+003;4.969218e-002
1.976762e+003;4.945957e-002
1.978690e+003;4.951951e-002
1.980619e+003;4.935651e-002
1.982547e+003;4.901976e-002
1.984476e+003;4.891391e-002
1.986404e+003;4.873104e-002
1.988333e+003;4.853222e-002
1.990261e+003;4.842267e-002
1.992190e+003;4.835574e-002
1.994119e+003;4.835900e-002
1.996047e+003;4.843941e-002
1.997976e+003;4.847353e-002
1.999904e+003;4.850110e-002
2.001833e+003;4.862927e-002
2.003761e+003;4.881594e-002
2.005690e+003;4.900106e-002
2.007618e+003;4.904610e-002
2.009547e+003;4.904275e-002
2.011476e+003;4.931330e-002
2.013404e+003;4.946087e-002
2.015333e+003;4.944368e-002
2.017261e+003;4.971763e-002
2.019190e+003;4.998112e-002
2.021118e+003;5.001414e-002
2.023047e+003;5.008947e-002
2.024975e+003;5.035758e-002
2.026904e+003;5.043743e-002
2.028833e+003;5.046445e-002
2.030761e+003;5.081134e-002
2.032690e+003;5.087664e-002
2.034618e+003;5.057898e-002
2.036547e+003;5.061829e-002
2.038475e+003;5.076080e-002
2.040404e+003;5.091173e-002
2.042332e+003;5.094157e-002
2.044261e+003;5.092485e-002
2.046189e+003;5.085954e-002
2.048118e+003;5.082635e-002
2.050047e+003;5.116588e-002
2.051975e+003;5.140105e-002
2.053904e+003;5.128787e-002
2.055832e+003;5.138416e-002
2.057761e+003;5.160404e-002
2.059689e+003;5.162989e-002
2.061618e+003;5.151318e-002
2.063546e+003;5.122594e-002
2.065475e+003;5.123135e-002
2.067404e+003;5.159049e-002
2.069332e+003;5.188634e-002
2.071260e+003;5.211682e-002
2.073189e+003;5.230174e-002
2.075118e+003;5.233217e-002
2.077046e+003;5.232888e-002
2.078975e+003;5.250425e-002
2.080903e+003;5.271216e-002
2.082832e+003;5.288855e-002
2.084760e+003;5.306347e-002
2.086689e+003;5.328378e-002
2.088617e+003;5.371339e-002
2.090546e+003;5.410619e-002
2.092475e+003;5.429193e-002
2.094403e+003;5.460127e-002
2.096332e+003;5.495013e-002
2.098260e+003;5.535895e-002
2.100189e+003;5.559396e-002
2.102117e+003;5.565071e-002
2.104046e+003;5.590121e-002
2.105974e+003;5.615163e-002
2.107903e+003;5.641147e-002
2.109832e+003;5.651796e-002
2.111760e+003;5.645147e-002
2.113688e+003;5.637491e-002
2.115617e+003;5.651860e-002
2.117546e+003;5.659692e-002
2.119474e+003;5.663187e-002
2.121403e+003;5.665773e-002
2.123331e+003;5.656023e-002
2.125260e+003;5.631878e-002
2.127188e+003;5.631388e-002
2.129117e+003;5.639099e-002
2.131045e+003;5.639276e-002
2.132974e+003;5.614658e-002
2.134903e+003;5.574146e-002
2.136831e+003;5.536855e-002
2.138760e+003;5.523759e-002
2.140688e+003;5.521433e-002
2.142617e+003;5.511840e-002
2.144545e+003;5.481959e-002
2.146474e+003;5.438363e-002
2.148402e+003;5.411006e-002
2.150331e+003;5.393828e-002
2.152260e+003;5.378644e-002
2.154188e+003;5.368411e-002
2.156117e+003;5.340326e-002
2.158045e+003;5.311874e-002
2.159974e+003;5.276424e-002
2.161902e+003;5.245291e-002
2.163831e+003;5.197084e-002
2.165759e+003;5.167386e-002
2.167688e+003;5.155661e-002
2.169616e+003;5.135988e-002
2.171545e+003;5.097909e-002
2.173474e+003;5.054574e-002
2.175402e+003;5.041481e-002
2.177331e+003;5.025575e-002
2.179259e+003;4.990518e-002
2.181188e+003;4.953165e-002
2.183116e+003;4.954368e-002
2.185045e+003;4.943325e-002
2.186973e+003;4.922723e-002
2.188902e+003;4.909510e-002
2.190831e+003;4.886644e-002
2.192759e+003;4.869568e-002
2.194688e+003;4.856716e-002
2.196616e+003;4.845323e-002
2.198545e+003;4.838696e-002
2.200473e+003;4.835296e-002
2.202402e+003;4.822691e-002
2.204330e+003;4.804952e-002
2.206259e+003;4.793580e-002
2.208188e+003;4.799626e-002
2.210116e+003;4.806632e-002
2.212044e+003;4.814979e-002
2.213973e+003;4.805426e-002
2.215902e+003;4.796537e-002
2.217830e+003;4.777599e-002
2.219759e+003;4.763701e-002
2.221687e+003;4.777624e-002
2.223616e+003;4.781105e-002
2.225544e+003;4.752215e-002
2.227473e+003;4.713355e-002
2.229401e+003;4.709005e-002
2.231330e+003;4.720011e-002
2.233259e+003;4.721200e-002
2.235187e+003;4.710035e-002
2.237116e+003;4.717193e-002
2.239044e+003;4.741425e-002
2.240973e+003;4.749727e-002
2.242901e+003;4.742453e-002
2.244830e+003;4.745713e-002
2.246758e+003;4.745073e-002
2.248687e+003;4.726579e-002
2.250615e+003;4.725885e-002
2.252544e+003;4.726147e-002
2.254473e+003;4.721629e-002
2.256401e+003;4.709179e-002
2.258330e+003;4.706930e-002
2.260258e+003;4.718737e-002
2.262187e+003;4.741533e-002
2.264115e+003;4.729531e-002
2.266044e+003;4.714090e-002
2.267972e+003;4.712746e-002
2.269901e+003;4.705541e-002
2.271830e+003;4.700150e-002
2.273758e+003;4.685967e-002
2.275687e+003;4.648403e-002
2.277615e+003;4.625375e-002
2.279544e+003;4.631100e-002
2.281472e+003;4.617289e-002
2.283401e+003;4.595317e-002
2.285329e+003;4.591704e-002
2.287258e+003;4.589778e-002
2.289187e+003;4.554839e-002
2.291115e+003;4.537441e-002
2.293043e+003;4.527139e-002
2.294972e+003;4.489745e-002
2.296901e+003;4.472923e-002
2.298829e+003;4.462123e-002
2.300758e+003;4.437528e-002
2.302686e+003;4.417840e-002
2.304615e+003;4.401813e-002
2.306543e+003;4.392309e-002
2.308472e+003;4.387998e-002
2.310400e+003;4.382702e-002
2.312329e+003;4.382148e-002
2.314258e+003;4.381734e-002
2.316186e+003;4.358521e-002
2.318115e+003;4.324120e-002
2.320043e+003;4.347233e-002
2.321972e+003;4.381324e-002
2.323900e+003;4.379242e-002
2.325829e+003;4.368428e-002
2.327757e+003;4.364940e-002
2.329686e+003;4.351753e-002
2.331615e+003;4.343824e-002
2.333543e+003;4.351753e-002
2.335472e+003;4.369003e-002
2.337400e+003;4.399657e-002
2.339329e+003;4.422433e-002
2.341257e+003;4.432078e-002
2.343186e+003;4.442534e-002
2.345114e+003;4.466070e-002
2.347043e+003;4.487794e-002
2.348971e+003;4.483018e-002
2.350900e+003;4.486456e-002
2.352829e+003;4.498498e-002
2.354757e+003;4.500196e-002
2.356686e+003;4.498185e-002
2.358614e+003;4.498851e-002
2.360543e+003;4.498748e-002
2.362471e+003;4.510520e-002
2.364400e+003;4.509487e-002
2.366328e+003;4.510804e-002
2.368257e+003;4.515483e-002
2.370186e+003;4.487422e-002
2.372114e+003;4.472494e-002
2.374042e+003;4.493805e-002
2.375971e+003;4.507039e-002
2.377900e+003;4.481049e-002
2.379828e+003;4.464183e-002
2.381757e+003;4.484502e-002
2.383685e+003;4.501982e-002
2.385614e+003;4.504352e-002
2.387542e+003;4.536977e-002
2.389471e+003;4.565114e-002
2.391399e+003;4.561497e-002
2.393328e+003;4.560551e-002
2.395257e+003;4.576574e-002
2.397185e+003;4.592725e-002
2.399114e+003;4.616597e-002
2.401042e+003;4.646780e-002
2.402971e+003;4.662739e-002
2.404899e+003;4.679428e-002
2.406828e+003;4.722194e-002
2.408756e+003;4.764086e-002
2.410685e+003;4.784301e-002
2.412614e+003;4.774917e-002
2.414542e+003;4.764995e-002
2.416471e+003;4.760318e-002
2.418399e+003;4.749095e-002
2.420328e+003;4.746130e-002
2.422256e+003;4.747561e-002
2.424185e+003;4.772953e-002
2.426113e+003;4.806070e-002
2.428042e+003;4.810371e-002
2.429970e+003;4.793021e-002
2.431899e+003;4.772166e-002
2.433828e+003;4.770842e-002
2.435756e+003;4.766792e-002
2.437685e+003;4.768353e-002
2.439613e+003;4.784220e-002
2.441542e+003;4.792851e-002
2.443470e+003;4.799268e-002
2.445399e+003;4.799630e-002
2.447327e+003;4.803594e-002
2.449256e+003;4.804578e-002
2.451185e+003;4.784819e-002
2.453113e+003;4.786791e-002
2.455042e+003;4.797217e-002
2.456970e+003;4.784072e-002
2.458899e+003;4.765531e-002
2.460827e+003;4.769300e-002
2.462756e+003;4.779578e-002
2.464684e+003;4.773893e-002
2.466613e+003;4.775221e-002
2.468542e+003;4.783532e-002
2.470470e+003;4.759571e-002
2.472398e+003;4.743440e-002
2.474327e+003;4.745683e-002
2.476256e+003;4.744164e-002
2.478184e+003;4.758758e-002
2.480113e+003;4.775232e-002
2.482041e+003;4.760640e-002
2.483970e+003;4.726745e-002
2.485898e+003;4.720451e-002
2.487827e+003;4.731257e-002
2.489755e+003;4.708119e-002
2.491684e+003;4.677331e-002
2.493613e+003;4.671232e-002
2.495541e+003;4.661850e-002
2.497470e+003;4.649222e-002
2.499398e+003;4.643982e-002
2.501327e+003;4.618882e-002
2.503255e+003;4.592349e-002
2.505184e+003;4.593564e-002
2.507112e+003;4.574541e-002
2.509041e+003;4.557257e-002
2.510969e+003;4.571294e-002
2.512898e+003;4.571328e-002
2.514827e+003;4.568147e-002
2.516755e+003;4.564901e-002
2.518684e+003;4.552377e-002
2.520612e+003;4.550519e-002
2.522541e+003;4.549136e-002
2.524469e+003;4.549743e-002
2.526398e+003;4.533524e-002
2.528326e+003;4.515454e-002
2.530255e+003;4.503239e-002
2.532184e+003;4.498310e-002
2.534112e+003;4.503797e-002
2.536041e+003;4.497160e-002
2.537969e+003;4.491031e-002
2.539898e+003;4.485799e-002
2.541826e+003;4.483499e-002
2.543755e+003;4.488554e-002
2.545683e+003;4.491666e-002
2.547612e+003;4.490222e-002
2.549541e+003;4.485266e-002
2.551469e+003;4.486857e-002
2.553397e+003;4.488242e-002
2.555326e+003;4.499571e-002
2.557255e+003;4.536172e-002
2.559183e+003;4.555384e-002
2.561112e+003;4.548389e-002
2.563040e+003;4.544938e-002
2.564969e+003;4.560978e-002
2.566897e+003;4.597759e-002
2.568826e+003;4.622475e-002
2.570754e+003;4.629363e-002
2.572683e+003;4.649037e-002
2.574612e+003;4.652559e-002
2.576540e+003;4.658169e-002
2.578469e+003;4.696898e-002
2.580397e+003;4.721887e-002
2.582326e+003;4.744641e-002
2.584254e+003;4.758340e-002
2.586183e+003;4.763853e-002
2.588111e+003;4.784782e-002
2.590040e+003;4.800537e-002
2.591969e+003;4.794350e-002
2.593897e+003;4.798242e-002
2.595826e+003;4.822547e-002
2.597754e+003;4.820532e-002
2.599683e+003;4.823790e-002
2.601611e+003;4.841911e-002
2.603540e+003;4.832407e-002
2.605468e+003;4.827460e-002
2.607397e+003;4.846242e-002
2.609325e+003;4.877049e-002
2.611254e+003;4.884719e-002
2.613183e+003;4.886377e-002
2.615111e+003;4.898263e-002
2.617040e+003;4.899887e-002
2.618968e+003;4.893760e-002
2.620897e+003;4.894814e-002
2.622825e+003;4.910222e-002
2.624754e+003;4.927036e-002
2.626682e+003;4.935844e-002
2.628611e+003;4.937901e-002
2.630540e+003;4.950517e-002
2.632468e+003;4.975653e-002
2.634396e+003;4.991533e-002
2.636325e+003;4.998124e-002
2.638254e+003;4.997194e-002
2.640182e+003;4.996704e-002
2.642111e+003;5.007136e-002
2.644039e+003;5.035482e-002
2.645968e+003;5.049929e-002
2.647896e+003;5.045593e-002
2.649825e+003;5.022220e-002
2.651753e+003;5.013041e-002
2.653682e+003;5.042284e-002
2.655611e+003;5.032249e-002
2.657539e+003;4.979566e-002
2.659468e+003;4.972190e-002
2.661396e+003;4.982487e-002
2.663325e+003;4.980183e-002
2.665253e+003;4.992124e-002
2.667182e+003;5.003306e-002
2.669110e+003;4.994640e-002
2.671039e+003;4.974018e-002
2.672968e+003;4.959133e-002
2.674896e+003;4.972699e-002
2.676825e+003;4.976987e-002
2.678753e+003;4.976612e-002
2.680682e+003;4.971983e-002
2.682610e+003;4.976805e-002
2.684539e+003;5.006683e-002
2.686467e+003;5.000231e-002
2.688396e+003;4.990923e-002
2.690324e+003;5.009676e-002
2.692253e+003;5.029381e-002
2.694182e+003;5.054217e-002
2.696110e+003;5.071305e-002
2.698039e+003;5.060452e-002
2.699967e+003;5.057031e-002
2.701896e+003;5.077391e-002
2.703824e+003;5.107252e-002
2.705753e+003;5.154378e-002
2.707681e+003;5.171749e-002
2.709610e+003;5.182958e-002
2.711539e+003;5.213251e-002
2.713467e+003;5.257691e-002
2.715396e+003;5.319798e-002
2.717324e+003;5.345373e-002
2.719253e+003;5.344095e-002
2.721181e+003;5.364684e-002
2.723110e+003;5.376878e-002
2.725038e+003;5.364751e-002
2.726967e+003;5.376083e-002
2.728896e+003;5.388943e-002
2.730824e+003;5.392571e-002
2.732752e+003;5.391854e-002
2.734681e+003;5.374928e-002
2.736610e+003;5.373957e-002
2.738538e+003;5.353161e-002
2.740467e+003;5.341622e-002
2.742395e+003;5.375355e-002
2.744324e+003;5.388932e-002
2.746252e+003;5.373585e-002
2.748181e+003;5.358315e-002
2.750109e+003;5.355815e-002
2.752038e+003;5.355448e-002
2.753967e+003;5.362618e-002
2.755895e+003;5.361066e-002
2.757824e+003;5.343908e-002
2.759752e+003;5.336860e-002
2.761681e+003;5.334391e-002
2.763609e+003;5.342537e-002
2.765538e+003;5.371088e-002
2.767466e+003;5.388246e-002
2.769395e+003;5.375888e-002
2.771323e+003;5.384626e-002
2.773252e+003;5.390564e-002
2.775181e+003;5.391749e-002
2.777109e+003;5.424004e-002
2.779038e+003;5.447583e-002
2.780966e+003;5.446956e-002
2.782895e+003;5.458793e-002
2.784823e+003;5.468168e-002
2.786752e+003;5.466917e-002
2.788680e+003;5.507935e-002
2.790609e+003;5.566506e-002
2.792538e+003;5.602386e-002
2.794466e+003;5.636156e-002
2.796395e+003;5.644241e-002
2.798323e+003;5.657657e-002
2.800252e+003;5.687395e-002
2.802180e+003;5.673683e-002
2.804109e+003;5.656423e-002
2.806037e+003;5.699185e-002
2.807966e+003;5.759811e-002
2.809895e+003;5.758552e-002
2.811823e+003;5.753838e-002
2.813751e+003;5.796578e-002
2.815680e+003;5.823774e-002
2.817609e+003;5.819216e-002
2.819537e+003;5.838398e-002
2.821466e+003;5.860394e-002
2.823394e+003;5.896999e-002
2.825323e+003;5.922120e-002
2.827251e+003;5.932241e-002
2.829180e+003;5.959773e-002
2.831108e+003;5.985979e-002
2.833037e+003;6.017446e-002
2.834966e+003;6.074308e-002
2.836894e+003;6.148839e-002
2.838823e+003;6.229383e-002
2.840751e+003;6.281255e-002
2.842680e+003;6.312365e-002
2.844608e+003;6.336301e-002
2.846537e+003;6.325399e-002
2.848465e+003;6.329903e-002
2.850394e+003;6.374879e-002
2.852323e+003;6.456167e-002
2.854251e+003;6.574789e-002
2.856180e+003;6.701706e-002
2.858108e+003;6.839809e-002
2.860037e+003;6.967349e-002
2.861965e+003;7.109987e-002
2.863894e+003;7.221762e-002
2.865822e+003;7.288990e-002
2.867751e+003;7.367914e-002
2.869679e+003;7.442702e-002
2.871608e+003;7.466073e-002
2.873536e+003;7.519897e-002
2.875465e+003;7.595591e-002
2.877394e+003;7.633709e-002
2.879322e+003;7.641128e-002
2.881251e+003;7.664990e-002
2.883179e+003;7.702393e-002
2.885108e+003;7.673414e-002
2.887036e+003;7.644454e-002
2.888965e+003;7.649070e-002
2.890893e+003;7.633472e-002
2.892822e+003;7.613283e-002
2.894750e+003;7.595626e-002
2.896679e+003;7.572769e-002
2.898608e+003;7.561864e-002
2.900536e+003;7.510450e-002
2.902465e+003;7.469642e-002
2.904393e+003;7.449196e-002
2.906322e+003;7.413440e-002
2.908250e+003;7.370945e-002
2.910179e+003;7.288555e-002
2.912107e+003;7.189814e-002
2.914036e+003;7.084435e-002
2.915965e+003;6.996666e-002
2.917893e+003;6.917395e-002
2.919822e+003;6.864771e-002
2.921750e+003;6.833316e-002
2.923679e+003;6.873604e-002
2.925607e+003;6.985262e-002
2.927536e+003;7.096833e-002
2.929464e+003;7.128416e-002
2.931393e+003;7.171621e-002
2.933322e+003;7.328573e-002
2.935250e+003;7.497753e-002
2.937178e+003;7.593890e-002
2.939107e+003;7.686099e-002
2.941036e+003;7.767548e-002
2.942964e+003;7.806697e-002
2.944893e+003;7.827769e-002
2.946821e+003;7.834361e-002
2.948750e+003;7.819811e-002
2.950678e+003;7.775719e-002
2.952607e+003;7.713155e-002
2.954535e+003;7.646731e-002
2.956464e+003;7.601776e-002
2.958393e+003;7.590555e-002
2.960321e+003;7.576738e-002
2.962250e+003;7.550547e-002
2.964178e+003;7.496390e-002
2.966107e+003;7.424662e-002
2.968035e+003;7.379002e-002
2.969964e+003;7.350297e-002
2.971892e+003;7.309259e-002
2.973821e+003;7.251298e-002
2.975750e+003;7.205163e-002
2.977678e+003;7.160601e-002
2.979607e+003;7.136992e-002
2.981535e+003;7.102939e-002
2.983464e+003;7.068247e-002
2.985392e+003;7.031635e-002
2.987321e+003;7.001594e-002
2.989249e+003;7.004689e-002
2.991178e+003;6.994233e-002
2.993106e+003;6.949253e-002
2.995035e+003;6.909982e-002
2.996964e+003;6.869971e-002
2.998892e+003;6.828655e-002
3.000821e+003;6.793105e-002
3.002749e+003;6.753940e-002
3.004678e+003;6.715082e-002
3.006606e+003;6.689615e-002
3.008535e+003;6.662806e-002
3.010463e+003;6.628468e-002
3.012392e+003;6.621671e-002
3.014321e+003;6.619896e-002
3.016249e+003;6.588607e-002
3.018177e+003;6.583194e-002
3.020106e+003;6.586456e-002
3.022035e+003;6.563438e-002
3.023963e+003;6.523664e-002
3.025892e+003;6.483010e-002
3.027820e+003;6.451528e-002
3.029749e+003;6.440251e-002
3.031677e+003;6.404993e-002
3.033606e+003;6.372174e-002
3.035534e+003;6.370962e-002
3.037463e+003;6.308384e-002
3.039392e+003;6.219216e-002
3.041320e+003;6.165631e-002
3.043249e+003;6.117418e-002
3.045177e+003;6.065967e-002
3.047106e+003;6.020129e-002
3.049034e+003;5.987797e-002
3.050963e+003;5.970139e-002
3.052891e+003;5.932617e-002
3.054820e+003;5.896771e-002
3.056749e+003;5.843719e-002
3.058677e+003;5.791822e-002
3.060606e+003;5.760424e-002
3.062534e+003;5.738316e-002
3.064463e+003;5.720445e-002
3.066391e+003;5.692048e-002
3.068320e+003;5.662693e-002
3.070248e+003;5.629389e-002
3.072177e+003;5.604659e-002
3.074105e+003;5.601817e-002
3.076034e+003;5.611762e-002
3.077963e+003;5.580023e-002
3.079891e+003;5.522611e-002
3.081820e+003;5.522995e-002
3.083748e+003;5.521753e-002
3.085677e+003;5.506630e-002
3.087605e+003;5.481778e-002
3.089534e+003;5.479655e-002
3.091462e+003;5.484771e-002
3.093391e+003;5.451028e-002
3.095320e+003;5.433609e-002
3.097248e+003;5.430545e-002
3.099177e+003;5.422980e-002
3.101105e+003;5.453966e-002
3.103034e+003;5.473020e-002
3.104962e+003;5.421076e-002
3.106891e+003;5.391449e-002
3.108819e+003;5.392927e-002
3.110748e+003;5.403332e-002
3.112677e+003;5.396672e-002
3.114605e+003;5.373653e-002
3.116533e+003;5.367117e-002
3.118462e+003;5.374583e-002
3.120391e+003;5.381592e-002
3.122319e+003;5.359728e-002
3.124248e+003;5.314708e-002
3.126176e+003;5.271818e-002
3.128105e+003;5.294907e-002
3.130033e+003;5.310746e-002
3.131962e+003;5.298972e-002
3.133890e+003;5.311937e-002
3.135819e+003;5.293675e-002
3.137748e+003;5.258887e-002
3.139676e+003;5.275241e-002
3.141605e+003;5.287915e-002
3.143533e+003;5.268459e-002
3.145462e+003;5.277165e-002
3.147390e+003;5.278688e-002
3.149319e+003;5.258083e-002
3.151247e+003;5.246080e-002
3.153176e+003;5.249774e-002
3.155104e+003;5.246357e-002
3.157033e+003;5.232424e-002
3.158962e+003;5.222423e-002
3.160890e+003;5.229700e-002
3.162819e+003;5.248555e-002
3.164747e+003;5.249284e-002
3.166676e+003;5.265788e-002
3.168604e+003;5.287417e-002
3.170533e+003;5.284787e-002
3.172461e+003;5.261150e-002
3.174390e+003;5.253446e-002
3.176319e+003;5.267135e-002
3.178247e+003;5.273094e-002
3.180176e+003;5.261255e-002
3.182104e+003;5.265949e-002
3.184033e+003;5.267666e-002
3.185961e+003;5.290052e-002
3.187890e+003;5.288787e-002
3.189818e+003;5.266162e-002
3.191747e+003;5.255761e-002
3.193676e+003;5.263772e-002
3.195604e+003;5.276031e-002
3.197532e+003;5.272435e-002
3.199461e+003;5.293189e-002
3.201390e+003;5.329019e-002
3.203318e+003;5.348195e-002
3.205247e+003;5.337467e-002
3.207175e+003;5.322344e-002
3.209104e+003;5.316228e-002
3.211032e+003;5.329094e-002
3.212961e+003;5.377905e-002
3.214889e+003;5.400439e-002
3.216818e+003;5.386760e-002
3.218747e+003;5.387627e-002
3.220675e+003;5.417135e-002
3.222604e+003;5.434480e-002
3.224532e+003;5.432576e-002
3.226461e+003;5.455480e-002
3.228389e+003;5.494810e-002
3.230318e+003;5.481470e-002
3.232246e+003;5.458775e-002
3.234175e+003;5.476783e-002
3.236104e+003;5.512254e-002
3.238032e+003;5.573799e-002
3.239961e+003;5.572454e-002
3.241889e+003;5.556266e-002
3.243818e+003;5.552934e-002
3.245746e+003;5.568612e-002
3.247675e+003;5.609469e-002
3.249603e+003;5.603750e-002
3.251532e+003;5.600550e-002
3.253460e+003;5.604659e-002
3.255389e+003;5.621819e-002
3.257318e+003;5.669605e-002
3.259246e+003;5.674593e-002
3.261175e+003;5.666192e-002
3.263103e+003;5.677032e-002
3.265032e+003;5.688890e-002
3.266960e+003;5.721965e-002
3.268889e+003;5.740464e-002
3.270817e+003;5.725110e-002
3.272746e+003;5.716238e-002
3.274675e+003;5.748043e-002
3.276603e+003;5.779251e-002
3.278531e+003;5.823717e-002
3.280460e+003;5.845251e-002
3.282389e+003;5.837439e-002
3.284317e+003;5.880462e-002
3.286246e+003;5.895553e-002
3.288174e+003;5.885865e-002
3.290103e+003;5.896111e-002
3.292031e+003;5.910866e-002
3.293960e+003;5.923897e-002
3.295888e+003;5.942129e-002
3.297817e+003;5.972458e-002
3.299746e+003;6.018409e-002
3.301674e+003;6.032112e-002
3.303603e+003;6.033323e-002
3.305531e+003;6.049305e-002
3.307460e+003;6.040805e-002
3.309388e+003;6.063563e-002
3.311317e+003;6.116407e-002
3.313245e+003;6.147556e-002
3.315174e+003;6.174461e-002
3.317103e+003;6.181585e-002
3.319031e+003;6.183793e-002
3.320960e+003;6.193055e-002
3.322888e+003;6.212987e-002
3.324817e+003;6.231174e-002
3.326745e+003;6.212299e-002
3.328674e+003;6.193632e-002
3.330602e+003;6.245698e-002
3.332531e+003;6.311637e-002
3.334459e+003;6.314480e-002
3.336388e+003;6.298400e-002
3.338317e+003;6.303745e-002
3.340245e+003;6.325219e-002
3.342174e+003;6.380770e-002
3.344102e+003;6.423763e-002
3.346031e+003;6.422058e-002
3.347959e+003;6.433357e-002
3.349888e+003;6.472771e-002
3.351816e+003;6.486134e-002
3.353745e+003;6.506044e-002
3.355674e+003;6.508938e-002
3.357602e+003;6.496430e-002
3.359531e+003;6.531065e-002
3.361459e+003;6.577472e-002
3.363388e+003;6.623038e-002
3.365316e+003;6.603159e-002
3.367245e+003;6.572511e-002
3.369173e+003;6.603098e-002
3.371102e+003;6.643215e-002
3.373031e+003;6.669512e-002
3.374959e+003;6.703891e-002
3.376887e+003;6.752481e-002
3.378816e+003;6.774817e-002
3.380745e+003;6.761427e-002
3.382673e+003;6.758466e-002
3.384602e+003;6.740008e-002
3.386530e+003;6.731889e-002
3.388459e+003;6.803125e-002
3.390387e+003;6.843591e-002
3.392316e+003;6.840542e-002
3.394244e+003;6.880813e-002
3.396173e+003;6.884043e-002
3.398102e+003;6.872451e-002
3.400030e+003;6.929951e-002
3.401959e+003;6.958535e-002
3.403887e+003;6.923430e-002
3.405816e+003;6.944074e-002
3.407744e+003;6.956388e-002
3.409673e+003;6.930849e-002
3.411601e+003;6.963859e-002
3.413530e+003;7.022999e-002
3.415458e+003;7.030883e-002
3.417387e+003;7.039139e-002
3.419316e+003;7.057539e-002
3.421244e+003;7.070529e-002
3.423173e+003;7.124496e-002
3.425101e+003;7.190236e-002
3.427030e+003;7.210096e-002
3.428958e+003;7.238027e-002
3.430887e+003;7.295845e-002
3.432815e+003;7.300854e-002
3.434744e+003;7.270540e-002
3.436673e+003;7.250762e-002
3.438601e+003;7.266936e-002
3.440530e+003;7.305288e-002
3.442458e+003;7.337290e-002
3.444387e+003;7.376835e-002
3.446315e+003;7.394929e-002
3.448244e+003;7.414415e-002
3.450172e+003;7.428004e-002
3.452101e+003;7.444999e-002
3.454030e+003;7.458716e-002
3.455958e+003;7.476321e-002
3.457886e+003;7.527545e-002
3.459815e+003;7.544070e-002
3.461744e+003;7.514188e-002
3.463672e+003;7.518463e-002
3.465601e+003;7.568813e-002
3.467529e+003;7.598508e-002
3.469458e+003;7.627650e-002
3.471386e+003;7.659657e-002
3.473315e+003;7.651441e-002
3.475243e+003;7.678305e-002
3.477172e+003;7.718803e-002
3.479101e+003;7.698120e-002
3.481029e+003;7.660270e-002
3.482958e+003;7.659519e-002
3.484886e+003;7.681627e-002
3.486815e+003;7.685570e-002
3.488743e+003;7.687816e-002
3.490672e+003;7.701997e-002
3.492600e+003;7.687658e-002
3.494529e+003;7.640737e-002
3.496458e+003;7.626200e-002
3.498386e+003;7.649777e-002
3.500315e+003;7.674240e-002
3.502243e+003;7.626887e-002
3.504172e+003;7.594068e-002
3.506100e+003;7.621746e-002
3.508029e+003;7.641618e-002
3.509957e+003;7.593066e-002
3.511886e+003;7.534938e-002
3.513814e+003;7.544563e-002
3.515743e+003;7.530256e-002
3.517672e+003;7.480710e-002
3.519600e+003;7.470209e-002
3.521529e+003;7.486075e-002
3.523457e+003;7.485335e-002
3.525386e+003;7.445566e-002
3.527314e+003;7.414203e-002
3.529243e+003;7.414474e-002
3.531171e+003;7.372952e-002
3.533100e+003;7.325388e-002
3.535029e+003;7.315952e-002
3.536957e+003;7.333787e-002
3.538885e+003;7.327020e-002
3.540814e+003;7.302207e-002
3.542743e+003;7.277109e-002
3.544671e+003;7.265236e-002
3.546600e+003;7.241057e-002
3.548528e+003;7.181522e-002
3.550457e+003;7.127546e-002
3.552385e+003;7.098124e-002
3.554314e+003;7.066380e-002
3.556242e+003;7.035485e-002
3.558171e+003;6.974974e-002
3.560100e+003;6.940306e-002
3.562028e+003;6.956563e-002
3.563957e+003;6.916544e-002
3.565885e+003;6.820513e-002
3.567814e+003;6.776273e-002
3.569742e+003;6.821696e-002
3.571671e+003;6.824588e-002
3.573599e+003;6.734896e-002
3.575528e+003;6.663331e-002
3.577457e+003;6.646235e-002
3.579385e+003;6.585245e-002
3.581314e+003;6.523941e-002
3.583242e+003;6.495456e-002
3.585171e+003;6.433430e-002
3.587099e+003;6.318918e-002
3.589028e+003;6.282423e-002
3.590956e+003;6.298994e-002
3.592885e+003;6.254751e-002
3.594813e+003;6.206504e-002
3.596742e+003;6.175160e-002
3.598671e+003;6.141484e-002
3.600599e+003;6.080261e-002
3.602528e+003;6.010227e-002
3.604456e+003;5.997809e-002
3.606385e+003;5.988828e-002
3.608313e+003;5.927642e-002
3.610242e+003;5.877526e-002
3.612170e+003;5.833486e-002
3.614099e+003;5.791183e-002
3.616028e+003;5.758926e-002
3.617956e+003;5.701758e-002
3.619885e+003;5.670111e-002
3.621813e+003;5.646147e-002
3.623742e+003;5.638774e-002
3.625670e+003;5.634726e-002
3.627599e+003;5.511227e-002
3.629527e+003;5.451344e-002
3.631456e+003;5.483406e-002
3.633385e+003;5.463843e-002
3.635313e+003;5.426899e-002
3.637241e+003;5.388685e-002
3.639170e+003;5.344852e-002
3.641099e+003;5.301824e-002
3.643027e+003;5.257085e-002
3.644956e+003;5.161370e-002
3.646884e+003;5.019773e-002
3.648813e+003;4.950751e-002
3.650741e+003;4.957198e-002
3.652670e+003;4.955244e-002
3.654598e+003;4.841619e-002
3.656527e+003;4.737132e-002
3.658456e+003;4.725149e-002
3.660384e+003;4.696791e-002
3.662313e+003;4.632202e-002
3.664241e+003;4.531471e-002
3.666170e+003;4.450499e-002
3.668098e+003;4.365614e-002
3.670027e+003;4.259680e-002
3.671955e+003;4.211649e-002
3.673884e+003;4.126023e-002
3.675813e+003;4.039289e-002
3.677741e+003;4.022754e-002
3.679669e+003;3.947521e-002
3.681598e+003;3.874733e-002
3.683527e+003;3.838127e-002
3.685455e+003;3.792262e-002
3.687384e+003;3.720116e-002
3.689312e+003;3.689022e-002
3.691241e+003;3.751110e-002
3.693169e+003;3.762410e-002
3.695098e+003;3.724470e-002
3.697026e+003;3.673453e-002
3.698955e+003;3.638396e-002
3.700884e+003;3.585296e-002
3.702812e+003;3.560168e-002
3.704741e+003;3.550933e-002
3.706669e+003;3.527862e-002
3.708598e+003;3.487404e-002
3.710526e+003;3.466257e-002
3.712455e+003;3.472226e-002
3.714383e+003;3.495519e-002
3.716312e+003;3.524056e-002
3.718240e+003;3.520750e-002
3.720169e+003;3.481074e-002
3.722098e+003;3.433620e-002
3.724026e+003;3.397667e-002
3.725955e+003;3.390201e-002
3.727883e+003;3.402970e-002
3.729812e+003;3.377070e-002
3.731740e+003;3.358443e-002
3.733669e+003;3.374426e-002
3.735597e+003;3.374387e-002
3.737526e+003;3.376930e-002
3.739455e+003;3.378548e-002
3.741383e+003;3.381468e-002
3.743312e+003;3.308838e-002
3.745240e+003;3.269909e-002
3.747169e+003;3.273638e-002
3.749097e+003;3.235276e-002
3.751026e+003;3.228662e-002
3.752954e+003;3.306406e-002
3.754883e+003;3.387317e-002
3.756812e+003;3.356851e-002
3.758740e+003;3.338591e-002
3.760668e+003;3.359886e-002
3.762597e+003;3.356002e-002
3.764526e+003;3.345400e-002
3.766454e+003;3.366936e-002
3.768383e+003;3.352773e-002
3.770311e+003;3.302255e-002
3.772240e+003;3.328748e-002
3.774168e+003;3.382467e-002
3.776097e+003;3.391293e-002
3.778025e+003;3.376493e-002
3.779954e+003;3.361501e-002
3.781883e+003;3.379354e-002
3.783811e+003;3.364472e-002
3.785740e+003;3.374133e-002
3.787668e+003;3.370212e-002
3.789597e+003;3.376414e-002
3.791525e+003;3.412629e-002
3.793454e+003;3.420877e-002
3.795382e+003;3.416923e-002
3.797311e+003;3.416228e-002
3.799240e+003;3.346839e-002
3.801168e+003;3.283197e-002
3.803097e+003;3.340859e-002
3.805025e+003;3.362235e-002
3.806954e+003;3.356851e-002
3.808882e+003;3.411747e-002
3.810811e+003;3.445645e-002
3.812739e+003;3.394833e-002
3.814668e+003;3.312421e-002
3.816596e+003;3.306417e-002
3.818525e+003;3.347312e-002
3.820454e+003;3.353128e-002
3.822382e+003;3.356535e-002
3.824311e+003;3.347605e-002
3.826239e+003;3.329328e-002
3.828168e+003;3.345476e-002
3.830096e+003;3.380662e-002
3.832025e+003;3.369675e-002
3.833953e+003;3.340652e-002
3.835882e+003;3.310658e-002
3.837811e+003;3.324481e-002
3.839739e+003;3.384831e-002
3.841667e+003;3.395818e-002
3.843596e+003;3.392117e-002
3.845525e+003;3.423803e-002
3.847453e+003;3.442184e-002
3.849382e+003;3.437134e-002
3.851310e+003;3.356220e-002
3.853239e+003;3.287239e-002
3.855167e+003;3.359858e-002
3.857096e+003;3.387840e-002
3.859024e+003;3.362961e-002
3.860953e+003;3.402637e-002
3.862882e+003;3.433086e-002
3.864810e+003;3.416575e-002
3.866739e+003;3.406980e-002
3.868667e+003;3.394410e-002
3.870596e+003;3.433735e-002
3.872524e+003;3.457893e-002
3.874453e+003;3.452917e-002
3.876381e+003;3.479574e-002
3.878310e+003;3.469143e-002
3.880239e+003;3.438834e-002
3.882167e+003;3.446599e-002
3.884096e+003;3.429041e-002
3.886024e+003;3.477179e-002
3.887953e+003;3.549930e-002
3.889881e+003;3.527168e-002
3.891810e+003;3.513158e-002
3.893738e+003;3.529928e-002
3.895667e+003;3.536164e-002
3.897595e+003;3.510705e-002
3.899524e+003;3.505266e-002
3.901453e+003;3.513956e-002
3.903381e+003;3.532811e-002
3.905310e+003;3.579942e-002
3.907238e+003;3.610580e-002
3.909167e+003;3.636685e-002
3.911095e+003;3.631681e-002
3.913024e+003;3.621916e-002
3.914952e+003;3.619265e-002
3.916881e+003;3.657110e-002
3.918810e+003;3.696933e-002
3.920738e+003;3.668153e-002
3.922667e+003;3.646940e-002
3.924595e+003;3.647603e-002
3.926524e+003;3.664169e-002
3.928452e+003;3.710299e-002
3.930381e+003;3.755918e-002
3.932309e+003;3.784410e-002
3.934238e+003;3.757095e-002
3.936167e+003;3.767494e-002
3.938095e+003;3.783419e-002
3.940023e+003;3.755271e-002
3.941952e+003;3.727390e-002
3.943881e+003;3.770530e-002
3.945809e+003;3.822573e-002
3.947738e+003;3.804152e-002
3.949666e+003;3.837117e-002
3.951595e+003;3.872472e-002
3.953523e+003;3.870346e-002
3.955452e+003;3.888500e-002
3.957380e+003;3.890813e-002
3.959309e+003;3.863395e-002
3.961238e+003;3.873928e-002
3.963166e+003;3.908193e-002
3.965095e+003;3.964242e-002
3.967023e+003;4.023932e-002
3.968952e+003;4.078678e-002
3.970880e+003;4.054776e-002
3.972809e+003;4.044577e-002
3.974737e+003;4.059443e-002
3.976666e+003;4.053386e-002
3.978594e+003;4.071407e-002
3.980523e+003;4.093243e-002
3.982452e+003;4.053972e-002
3.984380e+003;4.008119e-002
3.986309e+003;4.025910e-002
3.988237e+003;4.083963e-002
3.990166e+003;4.065952e-002
3.992094e+003;4.005877e-002
3.994023e+003;3.986590e-002
3.995951e+003;4.002705e-002
3.997880e+003;4.041980e-002
3.999809e+003;4.078973e-002
4.001737e+003;0.000000e+000
