3.992094e+002;0.000000e+000
4.011380e+002;0.000000e+000
4.030665e+002;0.000000e+000
4.049951e+002;0.000000e+000
4.069236e+002;0.000000e+000
4.088522e+002;0.000000e+000
4.107807e+002;0.000000e+000
4.127093e+002;0.000000e+000
4.146378e+002;0.000000e+000
4.165664e+002;0.000000e+000
4.184949e+002;0.000000e+000
4.204235e+002;0.000000e+000
4.223520e+002;0.000000e+000
4.242806e+002;0.000000e+000
4.262091e+002;0.000000e+000
4.281377e+002;0.000000e+000
4.300662e+002;0.000000e+000
4.319948e+002;0.000000e+000
4.339233e+002;0.000000e+000
4.358519e+002;0.000000e+000
4.377804e+002;0.000000e+000
4.397090e+002;0.000000e+000
4.416375e+002;0.000000e+000
4.435660e+002;0.000000e+000
4.454946e+002;0.000000e+000
4.474232e+002;0.000000e+000
4.493517e+002;0.000000e+000
4.512802e+002;0.000000e+000
4.532088e+002;0.000000e+000
4.551373e+002;0.000000e+000
4.570659e+002;0.000000e+000
4.589944e+002;0.000000e+000
4.609230e+002;0.000000e+000
4.628515e+002;0.000000e+000
4.647801e+002;0.000000e+000
4.667086e+002;0.000000e+000
4.686372e+002;0.000000e+000
4.705657e+002;0.000000e+000
4.724943e+002;0.000000e+000
4.744228e+002;0.000000e+000
4.763513e+002;0.000000e+000
4.782799e+002;0.000000e+000
4.802085e+002;0.000000e+000
4.821370e+002;0.000000e+000
4.840656e+002;0.000000e+000
4.859941e+002;0.000000e+000
4.879226e+002;0.000000e+000
4.898512e+002;0.000000e+000
4.917798e+002;0.000000e+000
4.937083e+002;0.000000e+000
4.956368e+002;0.000000e+000
4.975654e+002;0.000000e+000
4.994939e+002;0.000000e+000
5.014225e+002;0.000000e+000
5.033510e+002;0.000000e+000
5.052796e+002;0.000000e+000
5.072081e+002;0.000000e+000
5.091367e+002;0.000000e+000
5.110652e+002;0.000000e+000
5.129938e+002;0.000000e+000
5.149223e+002;0.000000e+000
5.168509e+002;0.000000e+000
5.187794e+002;0.000000e+000
5.207079e+002;0.000000e+000
5.226365e+002;0.000000e+000
5.245651e+002;0.000000e+000
5.264936e+002;0.000000e+000
5.284222e+002;0.000000e+000
5.303507e+002;0.000000e+000
5.322792e+002;0.000000e+000
5.342078e+002;0.000000e+000
5.361364e+002;0.000000e+000
5.380649e+002;0.000000e+000
5.399935e+002;0.000000e+000
5.419220e+002;0.000000e+000
5.438505e+002;0.000000e+000
5.457791e+002;0.000000e+000
5.477076e+002;0.000000e+000
5.496362e+002;0.000000e+000
5.515648e+002;0.000000e+000
5.534933e+002;0.000000e+000
5.554218e+002;0.000000e+000
5.573504e+002;0.000000e+000
5.592789e+002;0.000000e+000
5.612075e+002;0.000000e+000
5.631360e+002;0.000000e+000
5.650646e+002;0.000000e+000
5.669931e+002;0.000000e+000
5.689217e+002;0.000000e+000
5.708502e+002;0.000000e+000
5.727787e+002;0.000000e+000
5.747073e+002;0.000000e+000
5.766359e+002;0.000000e+000
5.785644e+002;0.000000e+000
5.804930e+002;0.000000e+000
5.824215e+002;0.000000e+000
5.843500e+002;0.000000e+000
5.862786e+002;0.000000e+000
5.882072e+002;0.000000e+000
5.901357e+002;0.000000e+000
5.920643e+002;0.000000e+000
5.939928e+002;0.000000e+000
5.959213e+002;0.000000e+000
5.978499e+002;0.000000e+000
5.997784e+002;1.955664e-001
6.017070e+002;1.997790e-001
6.036355e+002;1.972017e-001
6.055641e+002;1.956418e-001
6.074926e+002;1.869679e-001
6.094211e+002;1.746203e-001
6.113497e+002;1.674860e-001
6.132783e+002;1.612418e-001
6.152068e+002;1.553695e-001
6.171354e+002;1.496715e-001
6.190639e+002;1.475122e-001
6.209924e+002;1.459021e-001
6.229210e+002;1.425216e-001
6.248495e+002;1.409535e-001
6.267781e+002;1.427182e-001
6.287067e+002;1.403825e-001
6.306352e+002;1.361352e-001
6.325637e+002;1.342086e-001
6.344923e+002;1.338937e-001
6.364208e+002;1.334278e-001
6.383494e+002;1.314166e-001
6.402780e+002;1.322807e-001
6.422065e+002;1.324227e-001
6.441350e+002;1.289294e-001
6.460636e+002;1.261196e-001
6.479921e+002;1.245961e-001
6.499207e+002;1.236128e-001
6.518492e+002;1.195697e-001
6.537778e+002;1.173263e-001
6.557063e+002;1.169232e-001
6.576349e+002;1.157952e-001
6.595634e+002;1.135489e-001
6.614919e+002;1.108531e-001
6.634205e+002;1.089647e-001
6.653491e+002;1.083022e-001
6.672776e+002;1.076597e-001
6.692062e+002;1.082668e-001
6.711347e+002;1.084522e-001
6.730632e+002;1.090509e-001
6.749918e+002;1.095834e-001
6.769203e+002;1.102462e-001
6.788489e+002;1.111472e-001
6.807775e+002;1.109020e-001
6.827060e+002;1.107525e-001
6.846345e+002;1.113654e-001
6.865631e+002;1.115105e-001
6.884916e+002;1.110077e-001
6.904202e+002;1.100552e-001
6.923488e+002;1.086769e-001
6.942773e+002;1.070176e-001
6.962058e+002;1.056791e-001
6.981344e+002;1.050321e-001
7.000629e+002;1.043089e-001
7.019915e+002;1.023599e-001
7.039200e+002;1.001183e-001
7.058486e+002;9.879187e-002
7.077771e+002;9.781170e-002
7.097057e+002;9.719336e-002
7.116342e+002;9.675062e-002
7.135627e+002;9.579677e-002
7.154913e+002;9.554439e-002
7.174199e+002;9.423009e-002
7.193484e+002;9.262820e-002
7.212770e+002;9.173425e-002
7.232055e+002;9.123728e-002
7.251340e+002;9.065027e-002
7.270626e+002;8.982117e-002
7.289911e+002;8.827055e-002
7.309197e+002;8.577661e-002
7.328483e+002;8.341293e-002
7.347768e+002;8.056492e-002
7.367053e+002;7.789465e-002
7.386339e+002;7.645739e-002
7.405624e+002;7.592691e-002
7.424910e+002;7.531190e-002
7.444196e+002;7.475538e-002
7.463481e+002;7.433453e-002
7.482766e+002;7.358080e-002
7.502052e+002;7.294532e-002
7.521337e+002;7.282340e-002
7.540623e+002;7.268275e-002
7.559908e+002;7.208864e-002
7.579194e+002;7.181080e-002
7.598479e+002;7.200290e-002
7.617765e+002;7.195465e-002
7.637050e+002;7.136964e-002
7.656335e+002;7.074022e-002
7.675621e+002;7.040160e-002
7.694907e+002;7.006390e-002
7.714192e+002;6.986667e-002
7.733478e+002;7.009385e-002
7.752763e+002;6.992349e-002
7.772048e+002;7.009564e-002
7.791334e+002;7.063129e-002
7.810620e+002;7.130646e-002
7.829905e+002;7.179528e-002
7.849191e+002;7.198878e-002
7.868476e+002;7.220995e-002
7.887761e+002;7.215655e-002
7.907047e+002;7.257442e-002
7.926332e+002;7.375166e-002
7.945618e+002;7.477427e-002
7.964903e+002;7.556418e-002
7.984189e+002;7.643886e-002
8.003474e+002;7.734942e-002
8.022759e+002;7.789195e-002
8.042045e+002;7.865047e-002
8.061331e+002;8.005570e-002
8.080616e+002;8.128334e-002
8.099902e+002;8.243337e-002
8.119187e+002;8.387708e-002
8.138472e+002;8.496107e-002
8.157758e+002;8.643541e-002
8.177043e+002;8.821208e-002
8.196329e+002;9.035435e-002
8.215615e+002;9.287544e-002
8.234900e+002;9.598064e-002
8.254185e+002;9.984602e-002
8.273471e+002;1.040213e-001
8.292756e+002;1.082804e-001
8.312042e+002;1.133555e-001
8.331328e+002;1.188326e-001
8.350613e+002;1.231766e-001
8.369898e+002;1.257098e-001
8.389184e+002;1.271275e-001
8.408469e+002;1.270039e-001
8.427755e+002;1.251729e-001
8.447040e+002;1.226838e-001
8.466326e+002;1.195015e-001
8.485611e+002;1.156961e-001
8.504897e+002;1.130293e-001
8.524182e+002;1.114649e-001
8.543467e+002;1.100648e-001
8.562753e+002;1.097244e-001
8.582039e+002;1.108768e-001
8.601324e+002;1.132135e-001
8.620610e+002;1.168986e-001
8.639895e+002;1.210858e-001
8.659180e+002;1.258097e-001
8.678466e+002;1.313618e-001
8.697751e+002;1.374974e-001
8.717037e+002;1.438281e-001
8.736323e+002;1.497256e-001
8.755608e+002;1.550400e-001
8.774893e+002;1.591151e-001
8.794179e+002;1.620168e-001
8.813464e+002;1.652247e-001
8.832750e+002;1.689641e-001
8.852036e+002;1.726306e-001
8.871321e+002;1.770304e-001
8.890606e+002;1.826399e-001
8.909892e+002;1.895728e-001
8.929177e+002;1.966046e-001
8.948463e+002;2.030376e-001
8.967748e+002;2.079211e-001
8.987034e+002;2.100763e-001
9.006319e+002;2.095551e-001
9.025605e+002;2.067342e-001
9.044890e+002;2.014639e-001
9.064175e+002;1.951133e-001
9.083461e+002;1.884915e-001
9.102747e+002;1.815652e-001
9.122032e+002;1.756176e-001
9.141318e+002;1.707984e-001
9.160603e+002;1.664565e-001
9.179888e+002;1.627537e-001
9.199174e+002;1.595809e-001
9.218459e+002;1.570326e-001
9.237745e+002;1.550289e-001
9.257031e+002;1.530899e-001
9.276316e+002;1.519708e-001
9.295601e+002;1.516017e-001
9.314887e+002;1.512221e-001
9.334172e+002;1.511471e-001
9.353458e+002;1.519086e-001
9.372744e+002;1.529176e-001
9.392029e+002;1.540958e-001
9.411314e+002;1.554546e-001
9.430600e+002;1.575949e-001
9.449885e+002;1.601876e-001
9.469171e+002;1.625963e-001
9.488456e+002;1.646432e-001
9.507742e+002;1.664410e-001
9.527027e+002;1.682236e-001
9.546313e+002;1.702271e-001
9.565598e+002;1.721231e-001
9.584883e+002;1.737032e-001
9.604169e+002;1.759859e-001
9.623455e+002;1.790652e-001
9.642740e+002;1.826214e-001
9.662026e+002;1.874107e-001
9.681311e+002;1.936448e-001
9.700596e+002;2.008503e-001
9.719882e+002;2.083691e-001
9.739167e+002;2.162579e-001
9.758453e+002;2.245641e-001
9.777739e+002;2.325066e-001
9.797024e+002;2.400749e-001
9.816309e+002;2.476282e-001
9.835595e+002;2.544345e-001
9.854880e+002;2.603179e-001
9.874166e+002;2.657182e-001
9.893452e+002;2.710819e-001
9.912737e+002;2.759328e-001
9.932022e+002;2.810092e-001
9.951307e+002;2.865121e-001
9.970593e+002;2.926904e-001
9.989879e+002;3.006134e-001
1.000916e+003;3.102337e-001
1.002845e+003;3.216809e-001
1.004773e+003;3.348341e-001
1.006702e+003;3.487887e-001
1.008631e+003;3.636542e-001
1.010559e+003;3.802085e-001
1.012488e+003;3.980067e-001
1.014416e+003;4.165471e-001
1.016345e+003;4.364145e-001
1.018273e+003;4.574041e-001
1.020202e+003;4.781414e-001
1.022130e+003;4.986565e-001
1.024059e+003;5.190329e-001
1.025988e+003;5.376735e-001
1.027916e+003;5.536309e-001
1.029845e+003;5.668156e-001
1.031773e+003;5.752494e-001
1.033702e+003;5.787551e-001
1.035630e+003;5.771981e-001
1.037559e+003;5.719140e-001
1.039487e+003;5.648670e-001
1.041416e+003;5.570309e-001
1.043344e+003;5.468708e-001
1.045273e+003;5.337430e-001
1.047202e+003;5.184678e-001
1.049130e+003;5.020560e-001
1.051059e+003;4.851623e-001
1.052987e+003;4.676471e-001
1.054916e+003;4.494888e-001
1.056844e+003;4.318405e-001
1.058773e+003;4.159620e-001
1.060701e+003;4.014699e-001
1.062630e+003;3.888196e-001
1.064558e+003;3.785326e-001
1.066487e+003;3.692644e-001
1.068416e+003;3.594992e-001
1.070344e+003;3.494448e-001
1.072273e+003;3.402936e-001
1.074201e+003;3.314709e-001
1.076130e+003;3.218629e-001
1.078058e+003;3.119047e-001
1.079987e+003;3.021833e-001
1.081915e+003;2.934587e-001
1.083844e+003;2.846702e-001
1.085773e+003;2.749224e-001
1.087701e+003;2.659954e-001
1.089630e+003;2.578168e-001
1.091558e+003;2.490961e-001
1.093487e+003;2.411064e-001
1.095415e+003;2.340401e-001
1.097344e+003;2.275203e-001
1.099272e+003;2.220552e-001
1.101201e+003;2.175849e-001
1.103129e+003;2.140443e-001
1.105058e+003;2.115870e-001
1.106987e+003;2.102369e-001
1.108915e+003;2.085779e-001
1.110844e+003;2.070100e-001
1.112772e+003;2.060982e-001
1.114701e+003;2.049847e-001
1.116629e+003;2.036809e-001
1.118558e+003;2.029686e-001
1.120486e+003;2.021043e-001
1.122415e+003;2.004275e-001
1.124344e+003;1.982491e-001
1.126272e+003;1.960491e-001
1.128201e+003;1.933584e-001
1.130129e+003;1.904366e-001
1.132058e+003;1.876502e-001
1.133986e+003;1.845518e-001
1.135915e+003;1.819339e-001
1.137843e+003;1.803277e-001
1.139772e+003;1.797648e-001
1.141700e+003;1.800093e-001
1.143629e+003;1.806120e-001
1.145557e+003;1.815956e-001
1.147486e+003;1.828881e-001
1.149415e+003;1.850889e-001
1.151343e+003;1.877280e-001
1.153272e+003;1.900964e-001
1.155200e+003;1.923159e-001
1.157129e+003;1.945586e-001
1.159057e+003;1.965114e-001
1.160986e+003;1.974468e-001
1.162914e+003;1.975494e-001
1.164843e+003;1.975490e-001
1.166771e+003;1.969363e-001
1.168700e+003;1.954250e-001
1.170629e+003;1.933940e-001
1.172557e+003;1.914749e-001
1.174486e+003;1.899050e-001
1.176414e+003;1.881643e-001
1.178343e+003;1.868367e-001
1.180271e+003;1.865461e-001
1.182200e+003;1.875442e-001
1.184128e+003;1.904066e-001
1.186057e+003;1.955279e-001
1.187986e+003;2.033582e-001
1.189914e+003;2.143455e-001
1.191843e+003;2.289011e-001
1.193771e+003;2.478796e-001
1.195700e+003;2.710488e-001
1.197628e+003;2.978955e-001
1.199557e+003;3.290083e-001
1.201485e+003;3.632334e-001
1.203414e+003;3.982817e-001
1.205343e+003;4.323671e-001
1.207271e+003;4.632457e-001
1.209200e+003;4.886384e-001
1.211128e+003;5.077350e-001
1.213057e+003;5.207730e-001
1.214985e+003;5.283303e-001
1.216914e+003;5.310464e-001
1.218842e+003;5.300002e-001
1.220771e+003;5.271871e-001
1.222699e+003;5.238912e-001
1.224628e+003;5.190913e-001
1.226557e+003;5.119162e-001
1.228485e+003;5.024099e-001
1.230414e+003;4.902588e-001
1.232342e+003;4.746537e-001
1.234271e+003;4.573361e-001
1.236199e+003;4.382554e-001
1.238128e+003;4.178745e-001
1.240056e+003;3.970492e-001
1.241985e+003;3.761308e-001
1.243913e+003;3.557768e-001
1.245842e+003;3.365799e-001
1.247771e+003;3.183494e-001
1.249699e+003;3.004499e-001
1.251628e+003;2.834639e-001
1.253556e+003;2.675037e-001
1.255485e+003;2.526098e-001
1.257413e+003;2.387240e-001
1.259342e+003;2.256068e-001
1.261270e+003;2.134038e-001
1.263199e+003;2.020174e-001
1.265127e+003;1.917172e-001
1.267056e+003;1.823514e-001
1.268985e+003;1.735164e-001
1.270913e+003;1.652557e-001
1.272842e+003;1.577839e-001
1.274770e+003;1.510948e-001
1.276699e+003;1.448996e-001
1.278627e+003;1.393093e-001
1.280556e+003;1.343726e-001
1.282484e+003;1.299027e-001
1.284413e+003;1.260676e-001
1.286342e+003;1.227568e-001
1.288270e+003;1.194491e-001
1.290199e+003;1.165039e-001
1.292127e+003;1.141920e-001
1.294056e+003;1.119006e-001
1.295984e+003;1.096663e-001
1.297913e+003;1.077419e-001
1.299841e+003;1.060285e-001
1.301770e+003;1.045517e-001
1.303698e+003;1.036564e-001
1.305627e+003;1.030544e-001
1.307556e+003;1.024042e-001
1.309484e+003;1.021845e-001
1.311413e+003;1.023122e-001
1.313341e+003;1.025983e-001
1.315270e+003;1.028563e-001
1.317198e+003;1.028123e-001
1.319127e+003;1.025676e-001
1.321055e+003;1.025126e-001
1.322984e+003;1.023743e-001
1.324912e+003;1.019327e-001
1.326841e+003;1.016112e-001
1.328770e+003;1.011191e-001
1.330698e+003;1.006139e-001
1.332627e+003;1.004118e-001
1.334555e+003;1.001727e-001
1.336484e+003;9.982392e-002
1.338412e+003;9.962174e-002
1.340341e+003;9.984807e-002
1.342269e+003;1.006313e-001
1.344198e+003;1.018771e-001
1.346126e+003;1.041888e-001
1.348055e+003;1.080057e-001
1.349984e+003;1.137325e-001
1.351912e+003;1.222235e-001
1.353841e+003;1.341441e-001
1.355769e+003;1.502033e-001
1.357698e+003;1.701265e-001
1.359626e+003;1.916807e-001
1.361555e+003;2.115401e-001
1.363483e+003;2.266804e-001
1.365412e+003;2.351215e-001
1.367341e+003;2.366295e-001
1.369269e+003;2.326062e-001
1.371198e+003;2.249488e-001
1.373126e+003;2.152669e-001
1.375055e+003;2.047167e-001
1.376983e+003;1.937388e-001
1.378912e+003;1.823368e-001
1.380840e+003;1.708804e-001
1.382769e+003;1.593759e-001
1.384698e+003;1.481712e-001
1.386626e+003;1.377094e-001
1.388555e+003;1.284309e-001
1.390483e+003;1.206821e-001
1.392412e+003;1.138923e-001
1.394340e+003;1.083277e-001
1.396269e+003;1.044628e-001
1.398197e+003;1.018692e-001
1.400126e+003;1.003137e-001
1.402054e+003;9.950677e-002
1.403983e+003;9.922287e-002
1.405911e+003;9.921096e-002
1.407840e+003;9.959290e-002
1.409769e+003;1.001751e-001
1.411697e+003;1.009824e-001
1.413626e+003;1.019602e-001
1.415554e+003;1.033706e-001
1.417483e+003;1.051493e-001
1.419411e+003;1.072703e-001
1.421340e+003;1.100321e-001
1.423268e+003;1.130357e-001
1.425197e+003;1.158929e-001
1.427125e+003;1.180797e-001
1.429054e+003;1.193929e-001
1.430983e+003;1.198152e-001
1.432911e+003;1.196590e-001
1.434840e+003;1.182718e-001
1.436768e+003;1.160285e-001
1.438697e+003;1.138376e-001
1.440625e+003;1.113045e-001
1.442554e+003;1.085254e-001
1.444482e+003;1.057499e-001
1.446411e+003;1.028646e-001
1.448340e+003;1.000759e-001
1.450268e+003;9.772538e-002
1.452197e+003;9.539318e-002
1.454125e+003;9.292625e-002
1.456054e+003;9.010001e-002
1.457982e+003;8.786801e-002
1.459911e+003;8.635407e-002
1.461839e+003;8.439757e-002
1.463768e+003;8.178073e-002
1.465697e+003;7.918239e-002
1.467625e+003;7.712087e-002
1.469554e+003;7.521386e-002
1.471482e+003;7.310478e-002
1.473411e+003;7.137311e-002
1.475339e+003;7.020359e-002
1.477268e+003;6.907178e-002
1.479196e+003;6.789889e-002
1.481125e+003;6.706644e-002
1.483053e+003;6.657441e-002
1.484982e+003;6.583194e-002
1.486911e+003;6.494506e-002
1.488839e+003;6.414425e-002
1.490768e+003;6.357972e-002
1.492696e+003;6.337405e-002
1.494625e+003;6.313718e-002
1.496553e+003;6.275887e-002
1.498482e+003;6.256393e-002
1.500410e+003;6.261934e-002
1.502339e+003;6.270462e-002
1.504267e+003;6.219346e-002
1.506196e+003;6.148030e-002
1.508125e+003;6.171413e-002
1.510053e+003;6.208129e-002
1.511982e+003;6.218833e-002
1.513910e+003;6.222110e-002
1.515839e+003;6.208052e-002
1.517767e+003;6.197045e-002
1.519696e+003;6.170997e-002
1.521624e+003;6.149518e-002
1.523553e+003;6.180580e-002
1.525481e+003;6.208798e-002
1.527410e+003;6.234692e-002
1.529339e+003;6.259251e-002
1.531267e+003;6.246272e-002
1.533196e+003;6.224022e-002
1.535124e+003;6.233916e-002
1.537053e+003;6.170985e-002
1.538981e+003;6.047416e-002
1.540910e+003;6.035550e-002
1.542838e+003;6.116484e-002
1.544767e+003;6.182143e-002
1.546695e+003;6.206252e-002
1.548624e+003;6.199146e-002
1.550553e+003;6.196567e-002
1.552481e+003;6.201658e-002
1.554410e+003;6.208457e-002
1.556338e+003;6.183503e-002
1.558267e+003;6.096394e-002
1.560195e+003;6.108897e-002
1.562124e+003;6.181367e-002
1.564052e+003;6.207873e-002
1.565981e+003;6.224026e-002
1.567910e+003;6.195898e-002
1.569838e+003;6.175210e-002
1.571767e+003;6.204291e-002
1.573695e+003;6.208090e-002
1.575624e+003;6.163706e-002
1.577552e+003;6.194465e-002
1.579481e+003;6.265080e-002
1.581409e+003;6.299826e-002
1.583338e+003;6.323555e-002
1.585266e+003;6.341577e-002
1.587195e+003;6.381453e-002
1.589124e+003;6.426924e-002
1.591052e+003;6.466380e-002
1.592981e+003;6.512606e-002
1.594909e+003;6.559461e-002
1.596838e+003;6.618488e-002
1.598766e+003;6.698359e-002
1.600695e+003;6.769492e-002
1.602623e+003;6.817827e-002
1.604552e+003;6.891533e-002
1.606480e+003;6.954794e-002
1.608409e+003;6.985538e-002
1.610338e+003;7.008988e-002
1.612266e+003;7.055800e-002
1.614195e+003;7.104926e-002
1.616123e+003;7.126089e-002
1.618052e+003;7.201847e-002
1.619980e+003;7.295884e-002
1.621909e+003;7.346797e-002
1.623837e+003;7.387321e-002
1.625766e+003;7.451423e-002
1.627694e+003;7.530555e-002
1.629623e+003;7.625181e-002
1.631552e+003;7.719634e-002
1.633480e+003;7.761363e-002
1.635409e+003;7.764453e-002
1.637337e+003;7.856200e-002
1.639266e+003;7.995228e-002
1.641194e+003;8.077846e-002
1.643123e+003;8.136477e-002
1.645051e+003;8.146629e-002
1.646980e+003;8.171725e-002
1.648909e+003;8.262382e-002
1.650837e+003;8.242328e-002
1.652766e+003;8.161948e-002
1.654694e+003;8.245028e-002
1.656623e+003;8.337808e-002
1.658551e+003;8.352634e-002
1.660480e+003;8.383198e-002
1.662408e+003;8.432514e-002
1.664337e+003;8.494008e-002
1.666266e+003;8.550412e-002
1.668194e+003;8.586131e-002
1.670123e+003;8.649635e-002
1.672051e+003;8.774775e-002
1.673980e+003;8.898967e-002
1.675908e+003;9.032803e-002
1.677837e+003;9.205913e-002
1.679765e+003;9.379995e-002
1.681694e+003;9.570102e-002
1.683622e+003;9.733243e-002
1.685551e+003;1.000734e-001
1.687479e+003;1.038420e-001
1.689408e+003;1.075937e-001
1.691337e+003;1.113055e-001
1.693265e+003;1.152685e-001
1.695194e+003;1.194460e-001
1.697122e+003;1.245918e-001
1.699051e+003;1.304362e-001
1.700979e+003;1.373442e-001
1.702908e+003;1.455341e-001
1.704836e+003;1.539377e-001
1.706765e+003;1.631600e-001
1.708693e+003;1.736005e-001
1.710622e+003;1.853211e-001
1.712551e+003;1.982557e-001
1.714479e+003;2.123957e-001
1.716408e+003;2.276469e-001
1.718336e+003;2.442987e-001
1.720265e+003;2.621722e-001
1.722193e+003;2.804383e-001
1.724122e+003;2.990278e-001
1.726050e+003;3.171314e-001
1.727979e+003;3.339169e-001
1.729908e+003;3.488426e-001
1.731836e+003;3.608646e-001
1.733765e+003;3.695773e-001
1.735693e+003;3.755478e-001
1.737622e+003;3.773096e-001
1.739550e+003;3.748874e-001
1.741479e+003;3.692713e-001
1.743407e+003;3.609940e-001
1.745336e+003;3.502189e-001
1.747265e+003;3.375777e-001
1.749193e+003;3.237736e-001
1.751122e+003;3.081569e-001
1.753050e+003;2.911116e-001
1.754979e+003;2.728989e-001
1.756907e+003;2.526518e-001
1.758836e+003;2.316280e-001
1.760764e+003;2.098605e-001
1.762693e+003;1.882168e-001
1.764621e+003;1.682382e-001
1.766550e+003;1.502053e-001
1.768479e+003;1.344368e-001
1.770407e+003;1.214054e-001
1.772336e+003;1.104266e-001
1.774264e+003;1.017499e-001
1.776193e+003;9.509739e-002
1.778121e+003;8.988140e-002
1.780050e+003;8.540723e-002
1.781978e+003;8.144942e-002
1.783907e+003;7.828286e-002
1.785835e+003;7.582944e-002
1.787764e+003;7.382659e-002
1.789693e+003;7.190823e-002
1.791621e+003;7.001976e-002
1.793550e+003;6.868978e-002
1.795478e+003;6.794655e-002
1.797407e+003;6.704521e-002
1.799335e+003;6.597998e-002
1.801264e+003;6.519374e-002
1.803192e+003;6.457102e-002
1.805121e+003;6.390700e-002
1.807049e+003;6.330550e-002
1.808978e+003;6.239309e-002
1.810907e+003;6.171386e-002
1.812835e+003;6.120058e-002
1.814764e+003;6.054036e-002
1.816692e+003;6.002674e-002
1.818621e+003;5.946977e-002
1.820549e+003;5.877359e-002
1.822478e+003;5.829515e-002
1.824406e+003;5.787904e-002
1.826335e+003;5.742801e-002
1.828264e+003;5.686028e-002
1.830192e+003;5.637118e-002
1.832121e+003;5.618259e-002
1.834049e+003;5.593162e-002
1.835978e+003;5.561478e-002
1.837906e+003;5.529761e-002
1.839835e+003;5.485444e-002
1.841763e+003;5.440658e-002
1.843692e+003;5.398701e-002
1.845620e+003;5.379552e-002
1.847549e+003;5.359668e-002
1.849478e+003;5.348383e-002
1.851406e+003;5.342181e-002
1.853335e+003;5.330341e-002
1.855263e+003;5.312705e-002
1.857192e+003;5.280296e-002
1.859120e+003;5.254003e-002
1.861049e+003;5.226145e-002
1.862977e+003;5.207741e-002
1.864906e+003;5.213557e-002
1.866834e+003;5.185710e-002
1.868763e+003;5.145529e-002
1.870692e+003;5.131174e-002
1.872620e+003;5.143970e-002
1.874549e+003;5.142914e-002
1.876477e+003;5.122915e-002
1.878406e+003;5.075424e-002
1.880334e+003;5.044741e-002
1.882263e+003;5.038641e-002
1.884191e+003;5.032305e-002
1.886120e+003;5.015436e-002
1.888048e+003;4.976549e-002
1.889977e+003;4.972997e-002
1.891906e+003;4.998180e-002
1.893834e+003;5.004150e-002
1.895763e+003;4.998603e-002
1.897691e+003;4.992830e-002
1.899620e+003;4.993860e-002
1.901548e+003;4.986289e-002
1.903477e+003;5.004827e-002
1.905405e+003;5.026424e-002
1.907334e+003;5.030464e-002
1.909262e+003;5.041295e-002
1.911191e+003;5.053986e-002
1.913120e+003;5.058993e-002
1.915048e+003;5.076516e-002
1.916977e+003;5.082780e-002
1.918905e+003;5.104464e-002
1.920834e+003;5.133135e-002
1.922762e+003;5.130018e-002
1.924691e+003;5.128586e-002
1.926619e+003;5.117476e-002
1.928548e+003;5.099955e-002
1.930477e+003;5.100249e-002
1.932405e+003;5.112995e-002
1.934334e+003;5.116145e-002
1.936262e+003;5.119116e-002
1.938191e+003;5.104747e-002
1.940119e+003;5.108731e-002
1.942048e+003;5.132468e-002
1.943976e+003;5.153576e-002
1.945905e+003;5.140810e-002
1.947833e+003;5.099817e-002
1.949762e+003;5.073756e-002
1.951691e+003;5.066420e-002
1.953619e+003;5.074255e-002
1.955548e+003;5.097548e-002
1.957476e+003;5.093811e-002
1.959405e+003;5.070743e-002
1.961333e+003;5.056599e-002
1.963262e+003;5.032242e-002
1.965190e+003;5.009530e-002
1.967119e+003;4.991637e-002
1.969047e+003;4.978518e-002
1.970976e+003;4.961306e-002
1.972905e+003;4.929719e-002
1.974833e+003;4.894358e-002
1.976762e+003;4.887460e-002
1.978690e+003;4.889788e-002
1.980619e+003;4.874269e-002
1.982547e+003;4.850702e-002
1.984476e+003;4.848668e-002
1.986404e+003;4.834344e-002
1.988333e+003;4.796966e-002
1.990261e+003;4.788023e-002
1.992190e+003;4.794043e-002
1.994119e+003;4.791445e-002
1.996047e+003;4.793987e-002
1.997976e+003;4.793558e-002
1.999904e+003;4.795145e-002
2.001833e+003;4.799926e-002
2.003761e+003;4.818774e-002
2.005690e+003;4.838570e-002
2.007618e+003;4.847090e-002
2.009547e+003;4.851510e-002
2.011476e+003;4.864661e-002
2.013404e+003;4.879488e-002
2.015333e+003;4.898901e-002
2.017261e+003;4.924222e-002
2.019190e+003;4.942259e-002
2.021118e+003;4.955939e-002
2.023047e+003;4.954721e-002
2.024975e+003;4.958921e-002
2.026904e+003;4.973647e-002
2.028833e+003;4.988723e-002
2.030761e+003;5.002827e-002
2.032690e+003;4.998997e-002
2.034618e+003;4.993440e-002
2.036547e+003;5.003447e-002
2.038475e+003;5.006500e-002
2.040404e+003;5.014756e-002
2.042332e+003;5.024813e-002
2.044261e+003;5.035728e-002
2.046189e+003;5.045898e-002
2.048118e+003;5.027889e-002
2.050047e+003;5.030307e-002
2.051975e+003;5.042549e-002
2.053904e+003;5.048611e-002
2.055832e+003;5.063777e-002
2.057761e+003;5.076315e-002
2.059689e+003;5.092622e-002
2.061618e+003;5.104296e-002
2.063546e+003;5.080799e-002
2.065475e+003;5.064283e-002
2.067404e+003;5.084129e-002
2.069332e+003;5.110814e-002
2.071260e+003;5.127348e-002
2.073189e+003;5.124962e-002
2.075118e+003;5.129451e-002
2.077046e+003;5.143201e-002
2.078975e+003;5.153273e-002
2.080903e+003;5.172962e-002
2.082832e+003;5.192360e-002
2.084760e+003;5.220892e-002
2.086689e+003;5.267629e-002
2.088617e+003;5.306662e-002
2.090546e+003;5.320209e-002
2.092475e+003;5.332833e-002
2.094403e+003;5.368411e-002
2.096332e+003;5.400716e-002
2.098260e+003;5.416429e-002
2.100189e+003;5.431378e-002
2.102117e+003;5.448320e-002
2.104046e+003;5.482609e-002
2.105974e+003;5.492854e-002
2.107903e+003;5.505682e-002
2.109832e+003;5.526129e-002
2.111760e+003;5.538816e-002
2.113688e+003;5.537578e-002
2.115617e+003;5.525599e-002
2.117546e+003;5.522679e-002
2.119474e+003;5.535993e-002
2.121403e+003;5.536746e-002
2.123331e+003;5.523145e-002
2.125260e+003;5.515876e-002
2.127188e+003;5.507442e-002
2.129117e+003;5.487933e-002
2.131045e+003;5.475106e-002
2.132974e+003;5.473986e-002
2.134903e+003;5.455788e-002
2.136831e+003;5.435419e-002
2.138760e+003;5.422477e-002
2.140688e+003;5.400660e-002
2.142617e+003;5.396034e-002
2.144545e+003;5.374294e-002
2.146474e+003;5.323322e-002
2.148402e+003;5.296108e-002
2.150331e+003;5.276446e-002
2.152260e+003;5.247463e-002
2.154188e+003;5.229367e-002
2.156117e+003;5.215350e-002
2.158045e+003;5.194881e-002
2.159974e+003;5.169341e-002
2.161902e+003;5.135026e-002
2.163831e+003;5.095182e-002
2.165759e+003;5.075450e-002
2.167688e+003;5.047919e-002
2.169616e+003;5.025590e-002
2.171545e+003;5.010260e-002
2.173474e+003;4.978236e-002
2.175402e+003;4.951271e-002
2.177331e+003;4.918181e-002
2.179259e+003;4.897569e-002
2.181188e+003;4.872252e-002
2.183116e+003;4.858658e-002
2.185045e+003;4.849476e-002
2.186973e+003;4.831130e-002
2.188902e+003;4.805737e-002
2.190831e+003;4.802824e-002
2.192759e+003;4.805129e-002
2.194688e+003;4.774215e-002
2.196616e+003;4.741551e-002
2.198545e+003;4.720868e-002
2.200473e+003;4.742387e-002
2.202402e+003;4.761206e-002
2.204330e+003;4.747180e-002
2.206259e+003;4.729812e-002
2.208188e+003;4.731981e-002
2.210116e+003;4.710305e-002
2.212044e+003;4.701804e-002
2.213973e+003;4.704234e-002
2.215902e+003;4.688393e-002
2.217830e+003;4.683616e-002
2.219759e+003;4.694007e-002
2.221687e+003;4.691792e-002
2.223616e+003;4.693664e-002
2.225544e+003;4.699360e-002
2.227473e+003;4.675343e-002
2.229401e+003;4.644269e-002
2.231330e+003;4.631826e-002
2.233259e+003;4.638207e-002
2.235187e+003;4.653673e-002
2.237116e+003;4.673586e-002
2.239044e+003;4.675889e-002
2.240973e+003;4.679811e-002
2.242901e+003;4.676741e-002
2.244830e+003;4.662086e-002
2.246758e+003;4.659530e-002
2.248687e+003;4.665123e-002
2.250615e+003;4.663001e-002
2.252544e+003;4.665543e-002
2.254473e+003;4.669170e-002
2.256401e+003;4.654101e-002
2.258330e+003;4.647215e-002
2.260258e+003;4.666676e-002
2.262187e+003;4.692556e-002
2.264115e+003;4.678730e-002
2.266044e+003;4.649354e-002
2.267972e+003;4.645066e-002
2.269901e+003;4.625917e-002
2.271830e+003;4.599052e-002
2.273758e+003;4.586950e-002
2.275687e+003;4.587115e-002
2.277615e+003;4.603587e-002
2.279544e+003;4.596735e-002
2.281472e+003;4.556068e-002
2.283401e+003;4.529827e-002
2.285329e+003;4.539813e-002
2.287258e+003;4.529754e-002
2.289187e+003;4.491806e-002
2.291115e+003;4.481148e-002
2.293043e+003;4.456021e-002
2.294972e+003;4.416435e-002
2.296901e+003;4.392284e-002
2.298829e+003;4.370868e-002
2.300758e+003;4.352067e-002
2.302686e+003;4.351082e-002
2.304615e+003;4.348537e-002
2.306543e+003;4.350009e-002
2.308472e+003;4.357302e-002
2.310400e+003;4.355807e-002
2.312329e+003;4.347705e-002
2.314258e+003;4.333919e-002
2.316186e+003;4.317049e-002
2.318115e+003;4.295469e-002
2.320043e+003;4.309206e-002
2.321972e+003;4.317908e-002
2.323900e+003;4.311977e-002
2.325829e+003;4.316770e-002
2.327757e+003;4.316851e-002
2.329686e+003;4.306114e-002
2.331615e+003;4.304713e-002
2.333543e+003;4.317546e-002
2.335472e+003;4.349757e-002
2.337400e+003;4.367439e-002
2.339329e+003;4.374738e-002
2.341257e+003;4.386481e-002
2.343186e+003;4.386627e-002
2.345114e+003;4.412683e-002
2.347043e+003;4.433319e-002
2.348971e+003;4.425052e-002
2.350900e+003;4.434985e-002
2.352829e+003;4.473181e-002
2.354757e+003;4.487452e-002
2.356686e+003;4.459046e-002
2.358614e+003;4.447361e-002
2.360543e+003;4.465142e-002
2.362471e+003;4.468891e-002
2.364400e+003;4.451086e-002
2.366328e+003;4.444020e-002
2.368257e+003;4.450745e-002
2.370186e+003;4.446561e-002
2.372114e+003;4.437187e-002
2.374042e+003;4.438765e-002
2.375971e+003;4.436170e-002
2.377900e+003;4.437183e-002
2.379828e+003;4.417814e-002
2.381757e+003;4.412239e-002
2.383685e+003;4.419978e-002
2.385614e+003;4.428244e-002
2.387542e+003;4.442890e-002
2.389471e+003;4.467998e-002
2.391399e+003;4.493070e-002
2.393328e+003;4.481941e-002
2.395257e+003;4.485181e-002
2.397185e+003;4.513627e-002
2.399114e+003;4.510678e-002
2.401042e+003;4.519987e-002
2.402971e+003;4.561415e-002
2.404899e+003;4.603749e-002
2.406828e+003;4.648004e-002
2.408756e+003;4.672472e-002
2.410685e+003;4.704201e-002
2.412614e+003;4.719856e-002
2.414542e+003;4.711749e-002
2.416471e+003;4.696237e-002
2.418399e+003;4.659880e-002
2.420328e+003;4.656686e-002
2.422256e+003;4.656738e-002
2.424185e+003;4.665716e-002
2.426113e+003;4.685938e-002
2.428042e+003;4.679513e-002
2.429970e+003;4.667594e-002
2.431899e+003;4.660098e-002
2.433828e+003;4.681708e-002
2.435756e+003;4.695089e-002
2.437685e+003;4.684882e-002
2.439613e+003;4.687776e-002
2.441542e+003;4.685834e-002
2.443470e+003;4.686706e-002
2.445399e+003;4.691559e-002
2.447327e+003;4.686159e-002
2.449256e+003;4.683436e-002
2.451185e+003;4.684041e-002
2.453113e+003;4.691530e-002
2.455042e+003;4.713917e-002
2.456970e+003;4.703673e-002
2.458899e+003;4.690374e-002
2.460827e+003;4.701453e-002
2.462756e+003;4.681110e-002
2.464684e+003;4.652615e-002
2.466613e+003;4.669088e-002
2.468542e+003;4.691515e-002
2.470470e+003;4.668823e-002
2.472398e+003;4.640409e-002
2.474327e+003;4.634764e-002
2.476256e+003;4.647381e-002
2.478184e+003;4.654569e-002
2.480113e+003;4.637511e-002
2.482041e+003;4.627517e-002
2.483970e+003;4.629316e-002
2.485898e+003;4.616070e-002
2.487827e+003;4.610462e-002
2.489755e+003;4.593236e-002
2.491684e+003;4.573264e-002
2.493613e+003;4.570794e-002
2.495541e+003;4.555472e-002
2.497470e+003;4.544427e-002
2.499398e+003;4.532873e-002
2.501327e+003;4.508473e-002
2.503255e+003;4.497807e-002
2.505184e+003;4.509601e-002
2.507112e+003;4.486758e-002
2.509041e+003;4.441095e-002
2.510969e+003;4.444002e-002
2.512898e+003;4.463026e-002
2.514827e+003;4.463335e-002
2.516755e+003;4.460970e-002
2.518684e+003;4.443609e-002
2.520612e+003;4.435080e-002
2.522541e+003;4.447463e-002
2.524469e+003;4.447474e-002
2.526398e+003;4.425493e-002
2.528326e+003;4.415188e-002
2.530255e+003;4.435876e-002
2.532184e+003;4.455672e-002
2.534112e+003;4.444721e-002
2.536041e+003;4.422734e-002
2.537969e+003;4.409870e-002
2.539898e+003;4.407552e-002
2.541826e+003;4.394315e-002
2.543755e+003;4.373532e-002
2.545683e+003;4.366640e-002
2.547612e+003;4.381489e-002
2.549541e+003;4.396870e-002
2.551469e+003;4.398659e-002
2.553397e+003;4.376687e-002
2.555326e+003;4.391246e-002
2.557255e+003;4.426876e-002
2.559183e+003;4.449916e-002
2.561112e+003;4.472417e-002
2.563040e+003;4.476225e-002
2.564969e+003;4.482592e-002
2.566897e+003;4.510700e-002
2.568826e+003;4.533402e-002
2.570754e+003;4.546542e-002
2.572683e+003;4.553227e-002
2.574612e+003;4.562354e-002
2.576540e+003;4.584199e-002
2.578469e+003;4.594779e-002
2.580397e+003;4.609883e-002
2.582326e+003;4.626301e-002
2.584254e+003;4.631151e-002
2.586183e+003;4.630396e-002
2.588111e+003;4.653684e-002
2.590040e+003;4.679712e-002
2.591969e+003;4.669705e-002
2.593897e+003;4.666591e-002
2.595826e+003;4.695136e-002
2.597754e+003;4.706885e-002
2.599683e+003;4.707125e-002
2.601611e+003;4.713189e-002
2.603540e+003;4.720875e-002
2.605468e+003;4.733654e-002
2.607397e+003;4.737298e-002
2.609325e+003;4.738244e-002
2.611254e+003;4.758351e-002
2.613183e+003;4.793477e-002
2.615111e+003;4.806458e-002
2.617040e+003;4.797058e-002
2.618968e+003;4.792330e-002
2.620897e+003;4.773897e-002
2.622825e+003;4.784090e-002
2.624754e+003;4.801285e-002
2.626682e+003;4.792936e-002
2.628611e+003;4.807728e-002
2.630540e+003;4.840274e-002
2.632468e+003;4.867152e-002
2.634396e+003;4.890163e-002
2.636325e+003;4.906357e-002
2.638254e+003;4.880537e-002
2.640182e+003;4.848702e-002
2.642111e+003;4.847283e-002
2.644039e+003;4.878721e-002
2.645968e+003;4.907336e-002
2.647896e+003;4.908646e-002
2.649825e+003;4.876756e-002
2.651753e+003;4.868060e-002
2.653682e+003;4.889685e-002
2.655611e+003;4.898274e-002
2.657539e+003;4.880838e-002
2.659468e+003;4.859158e-002
2.661396e+003;4.861233e-002
2.663325e+003;4.871210e-002
2.665253e+003;4.893282e-002
2.667182e+003;4.882899e-002
2.669110e+003;4.869639e-002
2.671039e+003;4.872956e-002
2.672968e+003;4.862567e-002
2.674896e+003;4.851329e-002
2.676825e+003;4.851751e-002
2.678753e+003;4.861652e-002
2.680682e+003;4.864587e-002
2.682610e+003;4.877497e-002
2.684539e+003;4.904925e-002
2.686467e+003;4.911399e-002
2.688396e+003;4.916259e-002
2.690324e+003;4.919305e-002
2.692253e+003;4.922671e-002
2.694182e+003;4.934448e-002
2.696110e+003;4.943948e-002
2.698039e+003;4.942938e-002
2.699967e+003;4.943633e-002
2.701896e+003;4.964549e-002
2.703824e+003;4.994879e-002
2.705753e+003;5.043367e-002
2.707681e+003;5.060169e-002
2.709610e+003;5.072769e-002
2.711539e+003;5.112794e-002
2.713467e+003;5.144138e-002
2.715396e+003;5.159672e-002
2.717324e+003;5.171334e-002
2.719253e+003;5.198653e-002
2.721181e+003;5.221695e-002
2.723110e+003;5.214091e-002
2.725038e+003;5.214342e-002
2.726967e+003;5.237900e-002
2.728896e+003;5.243295e-002
2.730824e+003;5.224034e-002
2.732752e+003;5.217921e-002
2.734681e+003;5.232914e-002
2.736610e+003;5.239395e-002
2.738538e+003;5.231437e-002
2.740467e+003;5.222771e-002
2.742395e+003;5.232271e-002
2.744324e+003;5.244734e-002
2.746252e+003;5.242779e-002
2.748181e+003;5.233220e-002
2.750109e+003;5.206571e-002
2.752038e+003;5.203777e-002
2.753967e+003;5.220607e-002
2.755895e+003;5.215828e-002
2.757824e+003;5.199975e-002
2.759752e+003;5.192215e-002
2.761681e+003;5.197547e-002
2.763609e+003;5.214024e-002
2.765538e+003;5.213475e-002
2.767466e+003;5.212485e-002
2.769395e+003;5.221904e-002
2.771323e+003;5.240143e-002
2.773252e+003;5.241653e-002
2.775181e+003;5.247433e-002
2.777109e+003;5.272933e-002
2.779038e+003;5.301473e-002
2.780966e+003;5.317030e-002
2.782895e+003;5.330132e-002
2.784823e+003;5.327094e-002
2.786752e+003;5.327588e-002
2.788680e+003;5.359589e-002
2.790609e+003;5.413911e-002
2.792538e+003;5.467428e-002
2.794466e+003;5.492663e-002
2.796395e+003;5.494471e-002
2.798323e+003;5.497637e-002
2.800252e+003;5.508514e-002
2.802180e+003;5.502955e-002
2.804109e+003;5.518626e-002
2.806037e+003;5.562070e-002
2.807966e+003;5.602333e-002
2.809895e+003;5.600931e-002
2.811823e+003;5.588019e-002
2.813751e+003;5.617641e-002
2.815680e+003;5.653574e-002
2.817609e+003;5.657710e-002
2.819537e+003;5.646909e-002
2.821466e+003;5.661719e-002
2.823394e+003;5.709500e-002
2.825323e+003;5.766512e-002
2.827251e+003;5.806409e-002
2.829180e+003;5.830337e-002
2.831108e+003;5.838053e-002
2.833037e+003;5.876764e-002
2.834966e+003;5.954281e-002
2.836894e+003;6.001157e-002
2.838823e+003;6.044198e-002
2.840751e+003;6.099608e-002
2.842680e+003;6.151592e-002
2.844608e+003;6.180944e-002
2.846537e+003;6.209111e-002
2.848465e+003;6.246478e-002
2.850394e+003;6.273134e-002
2.852323e+003;6.301055e-002
2.854251e+003;6.404313e-002
2.856180e+003;6.541140e-002
2.858108e+003;6.671692e-002
2.860037e+003;6.800432e-002
2.861965e+003;6.950594e-002
2.863894e+003;7.056404e-002
2.865822e+003;7.135437e-002
2.867751e+003;7.227268e-002
2.869679e+003;7.299153e-002
2.871608e+003;7.332680e-002
2.873536e+003;7.386119e-002
2.875465e+003;7.462957e-002
2.877394e+003;7.491551e-002
2.879322e+003;7.502814e-002
2.881251e+003;7.521118e-002
2.883179e+003;7.536581e-002
2.885108e+003;7.524538e-002
2.887036e+003;7.533669e-002
2.888965e+003;7.534709e-002
2.890893e+003;7.507402e-002
2.892822e+003;7.489209e-002
2.894750e+003;7.445616e-002
2.896679e+003;7.397664e-002
2.898608e+003;7.381763e-002
2.900536e+003;7.371338e-002
2.902465e+003;7.359996e-002
2.904393e+003;7.334132e-002
2.906322e+003;7.298185e-002
2.908250e+003;7.249736e-002
2.910179e+003;7.179176e-002
2.912107e+003;7.104352e-002
2.914036e+003;7.045916e-002
2.915965e+003;6.968310e-002
2.917893e+003;6.923072e-002
2.919822e+003;6.909135e-002
2.921750e+003;6.866828e-002
2.923679e+003;6.889486e-002
2.925607e+003;6.948265e-002
2.927536e+003;7.011519e-002
2.929464e+003;7.087743e-002
2.931393e+003;7.138116e-002
2.933322e+003;7.245974e-002
2.935250e+003;7.415413e-002
2.937178e+003;7.533889e-002
2.939107e+003;7.609627e-002
2.941036e+003;7.668140e-002
2.942964e+003;7.687578e-002
2.944893e+003;7.704909e-002
2.946821e+003;7.704490e-002
2.948750e+003;7.705174e-002
2.950678e+003;7.703046e-002
2.952607e+003;7.629277e-002
2.954535e+003;7.554561e-002
2.956464e+003;7.509489e-002
2.958393e+003;7.477395e-002
2.960321e+003;7.425158e-002
2.962250e+003;7.367352e-002
2.964178e+003;7.320913e-002
2.966107e+003;7.257932e-002
2.968035e+003;7.183042e-002
2.969964e+003;7.123450e-002
2.971892e+003;7.081842e-002
2.973821e+003;7.029852e-002
2.975750e+003;6.977036e-002
2.977678e+003;6.963980e-002
2.979607e+003;6.929434e-002
2.981535e+003;6.879501e-002
2.983464e+003;6.835988e-002
2.985392e+003;6.789967e-002
2.987321e+003;6.775894e-002
2.989249e+003;6.774542e-002
2.991178e+003;6.777265e-002
2.993106e+003;6.757630e-002
2.995035e+003;6.710291e-002
2.996964e+003;6.644393e-002
2.998892e+003;6.607550e-002
3.000821e+003;6.604078e-002
3.002749e+003;6.561314e-002
3.004678e+003;6.504919e-002
3.006606e+003;6.472637e-002
3.008535e+003;6.441707e-002
3.010463e+003;6.412486e-002
3.012392e+003;6.392185e-002
3.014321e+003;6.373594e-002
3.016249e+003;6.353384e-002
3.018177e+003;6.343575e-002
3.020106e+003;6.347302e-002
3.022035e+003;6.329290e-002
3.023963e+003;6.313124e-002
3.025892e+003;6.314013e-002
3.027820e+003;6.261295e-002
3.029749e+003;6.184412e-002
3.031677e+003;6.153600e-002
3.033606e+003;6.155634e-002
3.035534e+003;6.150240e-002
3.037463e+003;6.084751e-002
3.039392e+003;6.011704e-002
3.041320e+003;5.967538e-002
3.043249e+003;5.925048e-002
3.045177e+003;5.863936e-002
3.047106e+003;5.824118e-002
3.049034e+003;5.800634e-002
3.050963e+003;5.752015e-002
3.052891e+003;5.685053e-002
3.054820e+003;5.646570e-002
3.056749e+003;5.613836e-002
3.058677e+003;5.600761e-002
3.060606e+003;5.596019e-002
3.062534e+003;5.579201e-002
3.064463e+003;5.552877e-002
3.066391e+003;5.509368e-002
3.068320e+003;5.462994e-002
3.070248e+003;5.439039e-002
3.072177e+003;5.446028e-002
3.074105e+003;5.451858e-002
3.076034e+003;5.437000e-002
3.077963e+003;5.393453e-002
3.079891e+003;5.355410e-002
3.081820e+003;5.354653e-002
3.083748e+003;5.350043e-002
3.085677e+003;5.317932e-002
3.087605e+003;5.270400e-002
3.089534e+003;5.268863e-002
3.091462e+003;5.310188e-002
3.093391e+003;5.291310e-002
3.095320e+003;5.256595e-002
3.097248e+003;5.254545e-002
3.099177e+003;5.251233e-002
3.101105e+003;5.268085e-002
3.103034e+003;5.276517e-002
3.104962e+003;5.249669e-002
3.106891e+003;5.235867e-002
3.108819e+003;5.234058e-002
3.110748e+003;5.259153e-002
3.112677e+003;5.253367e-002
3.114605e+003;5.196946e-002
3.116533e+003;5.182910e-002
3.118462e+003;5.207057e-002
3.120391e+003;5.218922e-002
3.122319e+003;5.211850e-002
3.124248e+003;5.172510e-002
3.126176e+003;5.135984e-002
3.128105e+003;5.147681e-002
3.130033e+003;5.128664e-002
3.131962e+003;5.087377e-002
3.133890e+003;5.084855e-002
3.135819e+003;5.096322e-002
3.137748e+003;5.101449e-002
3.139676e+003;5.122139e-002
3.141605e+003;5.140172e-002
3.143533e+003;5.113614e-002
3.145462e+003;5.079577e-002
3.147390e+003;5.055631e-002
3.149319e+003;5.057679e-002
3.151247e+003;5.063948e-002
3.153176e+003;5.078106e-002
3.155104e+003;5.092999e-002
3.157033e+003;5.082132e-002
3.158962e+003;5.065851e-002
3.160890e+003;5.070810e-002
3.162819e+003;5.073037e-002
3.164747e+003;5.071615e-002
3.166676e+003;5.081849e-002
3.168604e+003;5.086594e-002
3.170533e+003;5.102545e-002
3.172461e+003;5.092175e-002
3.174390e+003;5.074929e-002
3.176319e+003;5.078046e-002
3.178247e+003;5.089187e-002
3.180176e+003;5.077301e-002
3.182104e+003;5.080024e-002
3.184033e+003;5.109361e-002
3.185961e+003;5.127740e-002
3.187890e+003;5.132322e-002
3.189818e+003;5.120443e-002
3.191747e+003;5.096631e-002
3.193676e+003;5.076929e-002
3.195604e+003;5.082884e-002
3.197532e+003;5.086568e-002
3.199461e+003;5.071730e-002
3.201390e+003;5.074355e-002
3.203318e+003;5.114922e-002
3.205247e+003;5.117230e-002
3.207175e+003;5.114467e-002
3.209104e+003;5.124417e-002
3.211032e+003;5.122505e-002
3.212961e+003;5.152743e-002
3.214889e+003;5.186207e-002
3.216818e+003;5.169255e-002
3.218747e+003;5.166348e-002
3.220675e+003;5.201443e-002
3.222604e+003;5.192510e-002
3.224532e+003;5.193413e-002
3.226461e+003;5.223970e-002
3.228389e+003;5.224191e-002
3.230318e+003;5.200229e-002
3.232246e+003;5.203557e-002
3.234175e+003;5.220200e-002
3.236104e+003;5.225802e-002
3.238032e+003;5.241721e-002
3.239961e+003;5.236641e-002
3.241889e+003;5.250533e-002
3.243818e+003;5.280244e-002
3.245746e+003;5.304909e-002
3.247675e+003;5.341491e-002
3.249603e+003;5.356771e-002
3.251532e+003;5.343829e-002
3.253460e+003;5.345516e-002
3.255389e+003;5.379165e-002
3.257318e+003;5.384953e-002
3.259246e+003;5.379139e-002
3.261175e+003;5.404660e-002
3.263103e+003;5.417195e-002
3.265032e+003;5.416940e-002
3.266960e+003;5.452801e-002
3.268889e+003;5.482670e-002
3.270817e+003;5.464756e-002
3.272746e+003;5.442179e-002
3.274675e+003;5.457456e-002
3.276603e+003;5.496096e-002
3.278531e+003;5.562845e-002
3.280460e+003;5.574070e-002
3.282389e+003;5.539125e-002
3.284317e+003;5.538835e-002
3.286246e+003;5.567324e-002
3.288174e+003;5.598123e-002
3.290103e+003;5.610314e-002
3.292031e+003;5.575683e-002
3.293960e+003;5.581213e-002
3.295888e+003;5.628532e-002
3.297817e+003;5.674053e-002
3.299746e+003;5.699049e-002
3.301674e+003;5.702294e-002
3.303603e+003;5.710252e-002
3.305531e+003;5.735961e-002
3.307460e+003;5.762800e-002
3.309388e+003;5.764348e-002
3.311317e+003;5.777809e-002
3.313245e+003;5.822501e-002
3.315174e+003;5.863610e-002
3.317103e+003;5.885395e-002
3.319031e+003;5.880246e-002
3.320960e+003;5.853955e-002
3.322888e+003;5.846915e-002
3.324817e+003;5.881274e-002
3.326745e+003;5.906272e-002
3.328674e+003;5.930881e-002
3.330602e+003;5.974249e-002
3.332531e+003;6.002267e-002
3.334459e+003;5.960016e-002
3.336388e+003;5.960445e-002
3.338317e+003;6.020000e-002
3.340245e+003;6.036506e-002
3.342174e+003;6.070429e-002
3.344102e+003;6.136240e-002
3.346031e+003;6.144819e-002
3.347959e+003;6.112917e-002
3.349888e+003;6.113886e-002
3.351816e+003;6.165062e-002
3.353745e+003;6.208239e-002
3.355674e+003;6.208346e-002
3.357602e+003;6.209673e-002
3.359531e+003;6.247687e-002
3.361459e+003;6.286991e-002
3.363388e+003;6.284016e-002
3.365316e+003;6.259894e-002
3.367245e+003;6.285138e-002
3.369173e+003;6.330716e-002
3.371102e+003;6.341891e-002
3.373031e+003;6.356468e-002
3.374959e+003;6.401034e-002
3.376887e+003;6.443679e-002
3.378816e+003;6.451024e-002
3.380745e+003;6.438748e-002
3.382673e+003;6.423460e-002
3.384602e+003;6.451827e-002
3.386530e+003;6.477533e-002
3.388459e+003;6.507983e-002
3.390387e+003;6.538460e-002
3.392316e+003;6.559892e-002
3.394244e+003;6.585731e-002
3.396173e+003;6.597794e-002
3.398102e+003;6.591719e-002
3.400030e+003;6.632629e-002
3.401959e+003;6.660118e-002
3.403887e+003;6.654753e-002
3.405816e+003;6.690504e-002
3.407744e+003;6.698193e-002
3.409673e+003;6.668709e-002
3.411601e+003;6.713245e-002
3.413530e+003;6.775387e-002
3.415458e+003;6.784206e-002
3.417387e+003;6.788041e-002
3.419316e+003;6.815865e-002
3.421244e+003;6.835224e-002
3.423173e+003;6.867906e-002
3.425101e+003;6.913137e-002
3.427030e+003;6.932345e-002
3.428958e+003;6.950648e-002
3.430887e+003;6.991500e-002
3.432815e+003;6.990135e-002
3.434744e+003;6.952593e-002
3.436673e+003;6.966244e-002
3.438601e+003;7.008015e-002
3.440530e+003;7.061608e-002
3.442458e+003;7.118531e-002
3.444387e+003;7.124633e-002
3.446315e+003;7.133828e-002
3.448244e+003;7.154685e-002
3.450172e+003;7.176737e-002
3.452101e+003;7.231276e-002
3.454030e+003;7.245684e-002
3.455958e+003;7.257736e-002
3.457886e+003;7.275284e-002
3.459815e+003;7.290326e-002
3.461744e+003;7.297459e-002
3.463672e+003;7.319031e-002
3.465601e+003;7.360451e-002
3.467529e+003;7.400273e-002
3.469458e+003;7.433017e-002
3.471386e+003;7.450553e-002
3.473315e+003;7.415669e-002
3.475243e+003;7.398261e-002
3.477172e+003;7.414973e-002
3.479101e+003;7.442588e-002
3.481029e+003;7.464110e-002
3.482958e+003;7.437775e-002
3.484886e+003;7.448161e-002
3.486815e+003;7.479202e-002
3.488743e+003;7.469331e-002
3.490672e+003;7.449920e-002
3.492600e+003;7.404936e-002
3.494529e+003;7.371208e-002
3.496458e+003;7.407557e-002
3.498386e+003;7.438848e-002
3.500315e+003;7.399707e-002
3.502243e+003;7.357091e-002
3.504172e+003;7.377243e-002
3.506100e+003;7.405070e-002
3.508029e+003;7.413664e-002
3.509957e+003;7.382486e-002
3.511886e+003;7.334097e-002
3.513814e+003;7.356393e-002
3.515743e+003;7.325985e-002
3.517672e+003;7.263078e-002
3.519600e+003;7.268608e-002
3.521529e+003;7.293203e-002
3.523457e+003;7.312918e-002
3.525386e+003;7.290201e-002
3.527314e+003;7.214735e-002
3.529243e+003;7.172289e-002
3.531171e+003;7.147045e-002
3.533100e+003;7.127823e-002
3.535029e+003;7.117653e-002
3.536957e+003;7.079720e-002
3.538885e+003;7.038192e-002
3.540814e+003;7.038084e-002
3.542743e+003;7.039330e-002
3.544671e+003;6.992548e-002
3.546600e+003;6.920457e-002
3.548528e+003;6.865861e-002
3.550457e+003;6.842811e-002
3.552385e+003;6.837082e-002
3.554314e+003;6.806012e-002
3.556242e+003;6.756867e-002
3.558171e+003;6.691470e-002
3.560100e+003;6.662896e-002
3.562028e+003;6.671773e-002
3.563957e+003;6.631695e-002
3.565885e+003;6.524164e-002
3.567814e+003;6.471214e-002
3.569742e+003;6.488338e-002
3.571671e+003;6.470598e-002
3.573599e+003;6.411456e-002
3.575528e+003;6.380778e-002
3.577457e+003;6.356177e-002
3.579385e+003;6.278858e-002
3.581314e+003;6.223995e-002
3.583242e+003;6.221055e-002
3.585171e+003;6.158571e-002
3.587099e+003;6.040805e-002
3.589028e+003;6.000677e-002
3.590956e+003;6.000666e-002
3.592885e+003;5.939698e-002
3.594813e+003;5.883877e-002
3.596742e+003;5.847575e-002
3.598671e+003;5.797794e-002
3.600599e+003;5.750195e-002
3.602528e+003;5.706647e-002
3.604456e+003;5.668223e-002
3.606385e+003;5.636435e-002
3.608313e+003;5.595202e-002
3.610242e+003;5.559317e-002
3.612170e+003;5.503948e-002
3.614099e+003;5.430932e-002
3.616028e+003;5.390091e-002
3.617956e+003;5.340944e-002
3.619885e+003;5.273562e-002
3.621813e+003;5.245695e-002
3.623742e+003;5.239680e-002
3.625670e+003;5.224004e-002
3.627599e+003;5.132385e-002
3.629527e+003;5.082657e-002
3.631456e+003;5.116935e-002
3.633385e+003;5.097220e-002
3.635313e+003;5.048246e-002
3.637241e+003;4.979217e-002
3.639170e+003;4.926446e-002
3.641099e+003;4.937529e-002
3.643027e+003;4.907763e-002
3.644956e+003;4.809345e-002
3.646884e+003;4.712196e-002
3.648813e+003;4.656616e-002
3.650741e+003;4.633463e-002
3.652670e+003;4.615815e-002
3.654598e+003;4.524752e-002
3.656527e+003;4.440082e-002
3.658456e+003;4.409140e-002
3.660384e+003;4.381294e-002
3.662313e+003;4.348899e-002
3.664241e+003;4.288995e-002
3.666170e+003;4.230258e-002
3.668098e+003;4.146596e-002
3.670027e+003;4.036646e-002
3.671955e+003;3.977149e-002
3.673884e+003;3.909041e-002
3.675813e+003;3.826687e-002
3.677741e+003;3.813767e-002
3.679669e+003;3.774223e-002
3.681598e+003;3.742119e-002
3.683527e+003;3.717192e-002
3.685455e+003;3.651268e-002
3.687384e+003;3.572933e-002
3.689312e+003;3.556391e-002
3.691241e+003;3.589427e-002
3.693169e+003;3.538889e-002
3.695098e+003;3.504379e-002
3.697026e+003;3.520542e-002
3.698955e+003;3.540539e-002
3.700884e+003;3.484768e-002
3.702812e+003;3.395721e-002
3.704741e+003;3.369385e-002
3.706669e+003;3.386622e-002
3.708598e+003;3.399233e-002
3.710526e+003;3.391343e-002
3.712455e+003;3.387586e-002
3.714383e+003;3.396592e-002
3.716312e+003;3.401773e-002
3.718240e+003;3.395399e-002
3.720169e+003;3.374906e-002
3.722098e+003;3.357530e-002
3.724026e+003;3.342276e-002
3.725955e+003;3.339206e-002
3.727883e+003;3.340323e-002
3.729812e+003;3.317288e-002
3.731740e+003;3.294927e-002
3.733669e+003;3.286960e-002
3.735597e+003;3.285545e-002
3.737526e+003;3.331228e-002
3.739455e+003;3.322603e-002
3.741383e+003;3.280945e-002
3.743312e+003;3.229219e-002
3.745240e+003;3.204352e-002
3.747169e+003;3.161572e-002
3.749097e+003;3.134116e-002
3.751026e+003;3.187390e-002
3.752954e+003;3.246593e-002
3.754883e+003;3.290766e-002
3.756812e+003;3.282543e-002
3.758740e+003;3.256574e-002
3.760668e+003;3.288815e-002
3.762597e+003;3.296239e-002
3.764526e+003;3.237886e-002
3.766454e+003;3.234987e-002
3.768383e+003;3.226835e-002
3.770311e+003;3.176887e-002
3.772240e+003;3.228755e-002
3.774168e+003;3.325579e-002
3.776097e+003;3.335889e-002
3.778025e+003;3.299077e-002
3.779954e+003;3.269459e-002
3.781883e+003;3.285584e-002
3.783811e+003;3.287986e-002
3.785740e+003;3.268012e-002
3.787668e+003;3.249336e-002
3.789597e+003;3.286191e-002
3.791525e+003;3.348672e-002
3.793454e+003;3.344771e-002
3.795382e+003;3.292274e-002
3.797311e+003;3.300339e-002
3.799240e+003;3.275575e-002
3.801168e+003;3.193478e-002
3.803097e+003;3.218691e-002
3.805025e+003;3.265522e-002
3.806954e+003;3.271981e-002
3.808882e+003;3.281453e-002
3.810811e+003;3.297823e-002
3.812739e+003;3.292336e-002
3.814668e+003;3.233434e-002
3.816596e+003;3.203636e-002
3.818525e+003;3.258685e-002
3.820454e+003;3.290555e-002
3.822382e+003;3.315929e-002
3.824311e+003;3.317560e-002
3.826239e+003;3.298512e-002
3.828168e+003;3.300775e-002
3.830096e+003;3.290774e-002
3.832025e+003;3.269590e-002
3.833953e+003;3.257439e-002
3.835882e+003;3.238875e-002
3.837811e+003;3.219448e-002
3.839739e+003;3.245426e-002
3.841667e+003;3.257292e-002
3.843596e+003;3.252978e-002
3.845525e+003;3.270716e-002
3.847453e+003;3.291110e-002
3.849382e+003;3.300643e-002
3.851310e+003;3.263821e-002
3.853239e+003;3.232538e-002
3.855167e+003;3.310118e-002
3.857096e+003;3.373295e-002
3.859024e+003;3.357133e-002
3.860953e+003;3.336383e-002
3.862882e+003;3.330566e-002
3.864810e+003;3.300164e-002
3.866739e+003;3.298434e-002
3.868667e+003;3.315632e-002
3.870596e+003;3.327704e-002
3.872524e+003;3.331546e-002
3.874453e+003;3.353113e-002
3.876381e+003;3.418364e-002
3.878310e+003;3.397997e-002
3.880239e+003;3.341464e-002
3.882167e+003;3.319248e-002
3.884096e+003;3.317277e-002
3.886024e+003;3.360434e-002
3.887953e+003;3.391505e-002
3.889881e+003;3.385444e-002
3.891810e+003;3.397373e-002
3.893738e+003;3.428363e-002
3.895667e+003;3.431386e-002
3.897595e+003;3.434724e-002
3.899524e+003;3.423569e-002
3.901453e+003;3.434229e-002
3.903381e+003;3.434566e-002
3.905310e+003;3.448142e-002
3.907238e+003;3.502069e-002
3.909167e+003;3.510755e-002
3.911095e+003;3.516823e-002
3.913024e+003;3.541434e-002
3.914952e+003;3.521217e-002
3.916881e+003;3.509803e-002
3.918810e+003;3.524455e-002
3.920738e+003;3.507536e-002
3.922667e+003;3.498887e-002
3.924595e+003;3.512001e-002
3.926524e+003;3.530320e-002
3.928452e+003;3.577963e-002
3.930381e+003;3.602882e-002
3.932309e+003;3.615002e-002
3.934238e+003;3.613781e-002
3.936167e+003;3.642695e-002
3.938095e+003;3.676641e-002
3.940023e+003;3.665748e-002
3.941952e+003;3.642659e-002
3.943881e+003;3.661148e-002
3.945809e+003;3.682093e-002
3.947738e+003;3.654054e-002
3.949666e+003;3.681870e-002
3.951595e+003;3.695948e-002
3.953523e+003;3.680276e-002
3.955452e+003;3.691237e-002
3.957380e+003;3.688113e-002
3.959309e+003;3.693477e-002
3.961238e+003;3.743900e-002
3.963166e+003;3.782281e-002
3.965095e+003;3.850772e-002
3.967023e+003;3.909052e-002
3.968952e+003;3.931260e-002
3.970880e+003;3.889551e-002
3.972809e+003;3.868748e-002
3.974737e+003;3.919727e-002
3.976666e+003;3.897387e-002
3.978594e+003;3.872113e-002
3.980523e+003;3.896426e-002
3.982452e+003;3.868575e-002
3.984380e+003;3.833748e-002
3.986309e+003;3.868433e-002
3.988237e+003;3.922740e-002
3.990166e+003;3.914962e-002
3.992094e+003;3.865434e-002
3.994023e+003;3.862852e-002
3.995951e+003;3.855370e-002
3.997880e+003;3.843799e-002
3.999809e+003;3.899025e-002
4.001737e+003;0.000000e+000
