3.992094e+002;0.000000e+000
4.011380e+002;0.000000e+000
4.030665e+002;0.000000e+000
4.049951e+002;0.000000e+000
4.069236e+002;0.000000e+000
4.088522e+002;0.000000e+000
4.107807e+002;0.000000e+000
4.127093e+002;0.000000e+000
4.146378e+002;0.000000e+000
4.165664e+002;0.000000e+000
4.184949e+002;0.000000e+000
4.204235e+002;0.000000e+000
4.223520e+002;0.000000e+000
4.242806e+002;0.000000e+000
4.262091e+002;0.000000e+000
4.281377e+002;0.000000e+000
4.300662e+002;0.000000e+000
4.319948e+002;0.000000e+000
4.339233e+002;0.000000e+000
4.358519e+002;0.000000e+000
4.377804e+002;0.000000e+000
4.397090e+002;0.000000e+000
4.416375e+002;0.000000e+000
4.435660e+002;0.000000e+000
4.454946e+002;0.000000e+000
4.474232e+002;0.000000e+000
4.493517e+002;0.000000e+000
4.512802e+002;0.000000e+000
4.532088e+002;0.000000e+000
4.551373e+002;0.000000e+000
4.570659e+002;0.000000e+000
4.589944e+002;0.000000e+000
4.609230e+002;0.000000e+000
4.628515e+002;0.000000e+000
4.647801e+002;0.000000e+000
4.667086e+002;0.000000e+000
4.686372e+002;0.000000e+000
4.705657e+002;0.000000e+000
4.724943e+002;0.000000e+000
4.744228e+002;0.000000e+000
4.763513e+002;0.000000e+000
4.782799e+002;0.000000e+000
4.802085e+002;0.000000e+000
4.821370e+002;0.000000e+000
4.840656e+002;0.000000e+000
4.859941e+002;0.000000e+000
4.879226e+002;0.000000e+000
4.898512e+002;0.000000e+000
4.917798e+002;0.000000e+000
4.937083e+002;0.000000e+000
4.956368e+002;0.000000e+000
4.975654e+002;0.000000e+000
4.994939e+002;0.000000e+000
5.014225e+002;0.000000e+000
5.033510e+002;0.000000e+000
5.052796e+002;0.000000e+000
5.072081e+002;0.000000e+000
5.091367e+002;0.000000e+000
5.110652e+002;0.000000e+000
5.129938e+002;0.000000e+000
5.149223e+002;0.000000e+000
5.168509e+002;0.000000e+000
5.187794e+002;0.000000e+000
5.207079e+002;0.000000e+000
5.226365e+002;0.000000e+000
5.245651e+002;0.000000e+000
5.264936e+002;0.000000e+000
5.284222e+002;0.000000e+000
5.303507e+002;0.000000e+000
5.322792e+002;0.000000e+000
5.342078e+002;0.000000e+000
5.361364e+002;0.000000e+000
5.380649e+002;0.000000e+000
5.399935e+002;0.000000e+000
5.419220e+002;0.000000e+000
5.438505e+002;0.000000e+000
5.457791e+002;0.000000e+000
5.477076e+002;0.000000e+000
5.496362e+002;0.000000e+000
5.515648e+002;0.000000e+000
5.534933e+002;0.000000e+000
5.554218e+002;0.000000e+000
5.573504e+002;0.000000e+000
5.592789e+002;0.000000e+000
5.612075e+002;0.000000e+000
5.631360e+002;0.000000e+000
5.650646e+002;0.000000e+000
5.669931e+002;0.000000e+000
5.689217e+002;0.000000e+000
5.708502e+002;0.000000e+000
5.727787e+002;0.000000e+000
5.747073e+002;0.000000e+000
5.766359e+002;0.000000e+000
5.785644e+002;0.000000e+000
5.804930e+002;0.000000e+000
5.824215e+002;0.000000e+000
5.843500e+002;0.000000e+000
5.862786e+002;0.000000e+000
5.882072e+002;0.000000e+000
5.901357e+002;0.000000e+000
5.920643e+002;0.000000e+000
5.939928e+002;0.000000e+000
5.959213e+002;0.000000e+000
5.978499e+002;0.000000e+000
5.997784e+002;1.979154e-001
6.017070e+002;1.992391e-001
6.036355e+002;1.919805e-001
6.055641e+002;1.862254e-001
6.074926e+002;1.811642e-001
6.094211e+002;1.718630e-001
6.113497e+002;1.654609e-001
6.132783e+002;1.611765e-001
6.152068e+002;1.576611e-001
6.171354e+002;1.552911e-001
6.190639e+002;1.534635e-001
6.209924e+002;1.501140e-001
6.229210e+002;1.459653e-001
6.248495e+002;1.420060e-001
6.267781e+002;1.395867e-001
6.287067e+002;1.379247e-001
6.306352e+002;1.350343e-001
6.325637e+002;1.306004e-001
6.344923e+002;1.297982e-001
6.364208e+002;1.291875e-001
6.383494e+002;1.306746e-001
6.402780e+002;1.345914e-001
6.422065e+002;1.315195e-001
6.441350e+002;1.237756e-001
6.460636e+002;1.206967e-001
6.479921e+002;1.202816e-001
6.499207e+002;1.214623e-001
6.518492e+002;1.203261e-001
6.537778e+002;1.175763e-001
6.557063e+002;1.158018e-001
6.576349e+002;1.154091e-001
6.595634e+002;1.143207e-001
6.614919e+002;1.120931e-001
6.634205e+002;1.105174e-001
6.653491e+002;1.099095e-001
6.672776e+002;1.081086e-001
6.692062e+002;1.066744e-001
6.711347e+002;1.065653e-001
6.730632e+002;1.062741e-001
6.749918e+002;1.070428e-001
6.769203e+002;1.089126e-001
6.788489e+002;1.100443e-001
6.807775e+002;1.095284e-001
6.827060e+002;1.095788e-001
6.846345e+002;1.096600e-001
6.865631e+002;1.092251e-001
6.884916e+002;1.084605e-001
6.904202e+002;1.074404e-001
6.923488e+002;1.065135e-001
6.942773e+002;1.048281e-001
6.962058e+002;1.033277e-001
6.981344e+002;1.022469e-001
7.000629e+002;1.009374e-001
7.019915e+002;9.863117e-002
7.039200e+002;9.687991e-002
7.058486e+002;9.667942e-002
7.077771e+002;9.657308e-002
7.097057e+002;9.560191e-002
7.116342e+002;9.447668e-002
7.135627e+002;9.356048e-002
7.154913e+002;9.334102e-002
7.174199e+002;9.225204e-002
7.193484e+002;9.057067e-002
7.212770e+002;9.017149e-002
7.232055e+002;9.019580e-002
7.251340e+002;8.894319e-002
7.270626e+002;8.783583e-002
7.289911e+002;8.667021e-002
7.309197e+002;8.460288e-002
7.328483e+002;8.180913e-002
7.347768e+002;7.850301e-002
7.367053e+002;7.507540e-002
7.386339e+002;7.270645e-002
7.405624e+002;7.184329e-002
7.424910e+002;7.174228e-002
7.444196e+002;7.180896e-002
7.463481e+002;7.121725e-002
7.482766e+002;7.017796e-002
7.502052e+002;6.934207e-002
7.521337e+002;6.866327e-002
7.540623e+002;6.786224e-002
7.559908e+002;6.703965e-002
7.579194e+002;6.708825e-002
7.598479e+002;6.723054e-002
7.617765e+002;6.638551e-002
7.637050e+002;6.584925e-002
7.656335e+002;6.602395e-002
7.675621e+002;6.630008e-002
7.694907e+002;6.626639e-002
7.714192e+002;6.548140e-002
7.733478e+002;6.522697e-002
7.752763e+002;6.567927e-002
7.772048e+002;6.622663e-002
7.791334e+002;6.617875e-002
7.810620e+002;6.669072e-002
7.829905e+002;6.739140e-002
7.849191e+002;6.795363e-002
7.868476e+002;6.821831e-002
7.887761e+002;6.809535e-002
7.907047e+002;6.876096e-002
7.926332e+002;6.979156e-002
7.945618e+002;7.058837e-002
7.964903e+002;7.123926e-002
7.984189e+002;7.215025e-002
8.003474e+002;7.345828e-002
8.022759e+002;7.426840e-002
8.042045e+002;7.497962e-002
8.061331e+002;7.584810e-002
8.080616e+002;7.716706e-002
8.099902e+002;7.881448e-002
8.119187e+002;8.035676e-002
8.138472e+002;8.206481e-002
8.157758e+002;8.355862e-002
8.177043e+002;8.465209e-002
8.196329e+002;8.686148e-002
8.215615e+002;8.988392e-002
8.234900e+002;9.302828e-002
8.254185e+002;9.716883e-002
8.273471e+002;1.018921e-001
8.292756e+002;1.065443e-001
8.312042e+002;1.112524e-001
8.331328e+002;1.160335e-001
8.350613e+002;1.198125e-001
8.369898e+002;1.226702e-001
8.389184e+002;1.249134e-001
8.408469e+002;1.251182e-001
8.427755e+002;1.231287e-001
8.447040e+002;1.204799e-001
8.466326e+002;1.178503e-001
8.485611e+002;1.145109e-001
8.504897e+002;1.118520e-001
8.524182e+002;1.095299e-001
8.543467e+002;1.079523e-001
8.562753e+002;1.082487e-001
8.582039e+002;1.095509e-001
8.601324e+002;1.113354e-001
8.620610e+002;1.145636e-001
8.639895e+002;1.185077e-001
8.659180e+002;1.230282e-001
8.678466e+002;1.284724e-001
8.697751e+002;1.347540e-001
8.717037e+002;1.412368e-001
8.736323e+002;1.473854e-001
8.755608e+002;1.522465e-001
8.774893e+002;1.560754e-001
8.794179e+002;1.593725e-001
8.813464e+002;1.626247e-001
8.832750e+002;1.662076e-001
8.852036e+002;1.700324e-001
8.871321e+002;1.746059e-001
8.890606e+002;1.800255e-001
8.909892e+002;1.861996e-001
8.929177e+002;1.929872e-001
8.948463e+002;1.995014e-001
8.967748e+002;2.040073e-001
8.987034e+002;2.055783e-001
9.006319e+002;2.052770e-001
9.025605e+002;2.030428e-001
9.044890e+002;1.984584e-001
9.064175e+002;1.924783e-001
9.083461e+002;1.860037e-001
9.102747e+002;1.797452e-001
9.122032e+002;1.743761e-001
9.141318e+002;1.694323e-001
9.160603e+002;1.648827e-001
9.179888e+002;1.616870e-001
9.199174e+002;1.591228e-001
9.218459e+002;1.563152e-001
9.237745e+002;1.538401e-001
9.257031e+002;1.520998e-001
9.276316e+002;1.511299e-001
9.295601e+002;1.505745e-001
9.314887e+002;1.504388e-001
9.334172e+002;1.503802e-001
9.353458e+002;1.507859e-001
9.372744e+002;1.517789e-001
9.392029e+002;1.531852e-001
9.411314e+002;1.547711e-001
9.430600e+002;1.568634e-001
9.449885e+002;1.590692e-001
9.469171e+002;1.614877e-001
9.488456e+002;1.640309e-001
9.507742e+002;1.658682e-001
9.527027e+002;1.676023e-001
9.546313e+002;1.698227e-001
9.565598e+002;1.720054e-001
9.584883e+002;1.738453e-001
9.604169e+002;1.763504e-001
9.623455e+002;1.796591e-001
9.642740e+002;1.834739e-001
9.662026e+002;1.877537e-001
9.681311e+002;1.932731e-001
9.700596e+002;2.004079e-001
9.719882e+002;2.084139e-001
9.739167e+002;2.164100e-001
9.758453e+002;2.241519e-001
9.777739e+002;2.317089e-001
9.797024e+002;2.388495e-001
9.816309e+002;2.456516e-001
9.835595e+002;2.522585e-001
9.854880e+002;2.582532e-001
9.874166e+002;2.634258e-001
9.893452e+002;2.679552e-001
9.912737e+002;2.723831e-001
9.932022e+002;2.778533e-001
9.951307e+002;2.833739e-001
9.970593e+002;2.891414e-001
9.989879e+002;2.963147e-001
1.000916e+003;3.051371e-001
1.002845e+003;3.158709e-001
1.004773e+003;3.281517e-001
1.006702e+003;3.415398e-001
1.008631e+003;3.565486e-001
1.010559e+003;3.724055e-001
1.012488e+003;3.889316e-001
1.014416e+003;4.069690e-001
1.016345e+003;4.256419e-001
1.018273e+003;4.452067e-001
1.020202e+003;4.660173e-001
1.022130e+003;4.867296e-001
1.024059e+003;5.059524e-001
1.025988e+003;5.241753e-001
1.027916e+003;5.401345e-001
1.029845e+003;5.522232e-001
1.031773e+003;5.587134e-001
1.033702e+003;5.612600e-001
1.035630e+003;5.614934e-001
1.037559e+003;5.578863e-001
1.039487e+003;5.511921e-001
1.041416e+003;5.430281e-001
1.043344e+003;5.329226e-001
1.045273e+003;5.204791e-001
1.047202e+003;5.056192e-001
1.049130e+003;4.900224e-001
1.051059e+003;4.737624e-001
1.052987e+003;4.566678e-001
1.054916e+003;4.393386e-001
1.056844e+003;4.230997e-001
1.058773e+003;4.087878e-001
1.060701e+003;3.956697e-001
1.062630e+003;3.832547e-001
1.064558e+003;3.725983e-001
1.066487e+003;3.630474e-001
1.068416e+003;3.535745e-001
1.070344e+003;3.444328e-001
1.072273e+003;3.359541e-001
1.074201e+003;3.266477e-001
1.076130e+003;3.165233e-001
1.078058e+003;3.066734e-001
1.079987e+003;2.975082e-001
1.081915e+003;2.884247e-001
1.083844e+003;2.794399e-001
1.085773e+003;2.708025e-001
1.087701e+003;2.622776e-001
1.089630e+003;2.532005e-001
1.091558e+003;2.441092e-001
1.093487e+003;2.362431e-001
1.095415e+003;2.288901e-001
1.097344e+003;2.223817e-001
1.099272e+003;2.170813e-001
1.101201e+003;2.128922e-001
1.103129e+003;2.096891e-001
1.105058e+003;2.069397e-001
1.106987e+003;2.049868e-001
1.108915e+003;2.034908e-001
1.110844e+003;2.026959e-001
1.112772e+003;2.022760e-001
1.114701e+003;2.012488e-001
1.116629e+003;2.002627e-001
1.118558e+003;1.991594e-001
1.120486e+003;1.972890e-001
1.122415e+003;1.955557e-001
1.124344e+003;1.937351e-001
1.126272e+003;1.917754e-001
1.128201e+003;1.893422e-001
1.130129e+003;1.864533e-001
1.132058e+003;1.835117e-001
1.133986e+003;1.806420e-001
1.135915e+003;1.785036e-001
1.137843e+003;1.772988e-001
1.139772e+003;1.766603e-001
1.141700e+003;1.766389e-001
1.143629e+003;1.767502e-001
1.145557e+003;1.773572e-001
1.147486e+003;1.790981e-001
1.149415e+003;1.818446e-001
1.151343e+003;1.843355e-001
1.153272e+003;1.860749e-001
1.155200e+003;1.880035e-001
1.157129e+003;1.903598e-001
1.159057e+003;1.922628e-001
1.160986e+003;1.931935e-001
1.162914e+003;1.932065e-001
1.164843e+003;1.924882e-001
1.166771e+003;1.914010e-001
1.168700e+003;1.903531e-001
1.170629e+003;1.891875e-001
1.172557e+003;1.873475e-001
1.174486e+003;1.854363e-001
1.176414e+003;1.837357e-001
1.178343e+003;1.828680e-001
1.180271e+003;1.826964e-001
1.182200e+003;1.833767e-001
1.184128e+003;1.858232e-001
1.186057e+003;1.908294e-001
1.187986e+003;1.983610e-001
1.189914e+003;2.085268e-001
1.191843e+003;2.220200e-001
1.193771e+003;2.396350e-001
1.195700e+003;2.616034e-001
1.197628e+003;2.872785e-001
1.199557e+003;3.168646e-001
1.201485e+003;3.493434e-001
1.203414e+003;3.826037e-001
1.205343e+003;4.147493e-001
1.207271e+003;4.439637e-001
1.209200e+003;4.685240e-001
1.211128e+003;4.869862e-001
1.213057e+003;4.998699e-001
1.214985e+003;5.074902e-001
1.216914e+003;5.104167e-001
1.218842e+003;5.104063e-001
1.220771e+003;5.089206e-001
1.222699e+003;5.061941e-001
1.224628e+003;5.016272e-001
1.226557e+003;4.957730e-001
1.228485e+003;4.880749e-001
1.230414e+003;4.769110e-001
1.232342e+003;4.627799e-001
1.234271e+003;4.466721e-001
1.236199e+003;4.285627e-001
1.238128e+003;4.094065e-001
1.240056e+003;3.895876e-001
1.241985e+003;3.697115e-001
1.243913e+003;3.502983e-001
1.245842e+003;3.313079e-001
1.247771e+003;3.134266e-001
1.249699e+003;2.963310e-001
1.251628e+003;2.798136e-001
1.253556e+003;2.640646e-001
1.255485e+003;2.492891e-001
1.257413e+003;2.357180e-001
1.259342e+003;2.227100e-001
1.261270e+003;2.103081e-001
1.263199e+003;1.988543e-001
1.265127e+003;1.885308e-001
1.267056e+003;1.790296e-001
1.268985e+003;1.700768e-001
1.270913e+003;1.618602e-001
1.272842e+003;1.544947e-001
1.274770e+003;1.479608e-001
1.276699e+003;1.417917e-001
1.278627e+003;1.362046e-001
1.280556e+003;1.312128e-001
1.282484e+003;1.266073e-001
1.284413e+003;1.225247e-001
1.286342e+003;1.189731e-001
1.288270e+003;1.158634e-001
1.290199e+003;1.129935e-001
1.292127e+003;1.104949e-001
1.294056e+003;1.081432e-001
1.295984e+003;1.058930e-001
1.297913e+003;1.039772e-001
1.299841e+003;1.021195e-001
1.301770e+003;1.004883e-001
1.303698e+003;9.968606e-002
1.305627e+003;9.922025e-002
1.307556e+003;9.863961e-002
1.309484e+003;9.822930e-002
1.311413e+003;9.812196e-002
1.313341e+003;9.829270e-002
1.315270e+003;9.835728e-002
1.317198e+003;9.832694e-002
1.319127e+003;9.822623e-002
1.321055e+003;9.800290e-002
1.322984e+003;9.770720e-002
1.324912e+003;9.744890e-002
1.326841e+003;9.737442e-002
1.328770e+003;9.706432e-002
1.330698e+003;9.641179e-002
1.332627e+003;9.581061e-002
1.334555e+003;9.542422e-002
1.336484e+003;9.534229e-002
1.338412e+003;9.512597e-002
1.340341e+003;9.510572e-002
1.342269e+003;9.587573e-002
1.344198e+003;9.728372e-002
1.346126e+003;9.960416e-002
1.348055e+003;1.034301e-001
1.349984e+003;1.089801e-001
1.351912e+003;1.174568e-001
1.353841e+003;1.296666e-001
1.355769e+003;1.457327e-001
1.357698e+003;1.651558e-001
1.359626e+003;1.861409e-001
1.361555e+003;2.057644e-001
1.363483e+003;2.209074e-001
1.365412e+003;2.293494e-001
1.367341e+003;2.308807e-001
1.369269e+003;2.269645e-001
1.371198e+003;2.193569e-001
1.373126e+003;2.096834e-001
1.375055e+003;1.991646e-001
1.376983e+003;1.883547e-001
1.378912e+003;1.773766e-001
1.380840e+003;1.661405e-001
1.382769e+003;1.549843e-001
1.384698e+003;1.440364e-001
1.386626e+003;1.336082e-001
1.388555e+003;1.244128e-001
1.390483e+003;1.165203e-001
1.392412e+003;1.098569e-001
1.394340e+003;1.042957e-001
1.396269e+003;1.002961e-001
1.398197e+003;9.762153e-002
1.400126e+003;9.583445e-002
1.402054e+003;9.486718e-002
1.403983e+003;9.470401e-002
1.405911e+003;9.479930e-002
1.407840e+003;9.500448e-002
1.409769e+003;9.534320e-002
1.411697e+003;9.614570e-002
1.413626e+003;9.726125e-002
1.415554e+003;9.866273e-002
1.417483e+003;1.002448e-001
1.419411e+003;1.020613e-001
1.421340e+003;1.049228e-001
1.423268e+003;1.081615e-001
1.425197e+003;1.109619e-001
1.427125e+003;1.133382e-001
1.429054e+003;1.149040e-001
1.430983e+003;1.154769e-001
1.432911e+003;1.150577e-001
1.434840e+003;1.134897e-001
1.436768e+003;1.112721e-001
1.438697e+003;1.091888e-001
1.440625e+003;1.066735e-001
1.442554e+003;1.039378e-001
1.444482e+003;1.011544e-001
1.446411e+003;9.826715e-002
1.448340e+003;9.547941e-002
1.450268e+003;9.308477e-002
1.452197e+003;9.085901e-002
1.454125e+003;8.835208e-002
1.456054e+003;8.525886e-002
1.457982e+003;8.291600e-002
1.459911e+003;8.128729e-002
1.461839e+003;7.921213e-002
1.463768e+003;7.660602e-002
1.465697e+003;7.406218e-002
1.467625e+003;7.206184e-002
1.469554e+003;7.008342e-002
1.471482e+003;6.804691e-002
1.473411e+003;6.635648e-002
1.475339e+003;6.511575e-002
1.477268e+003;6.396566e-002
1.479196e+003;6.297064e-002
1.481125e+003;6.204692e-002
1.483053e+003;6.133763e-002
1.484982e+003;6.060363e-002
1.486911e+003;5.985070e-002
1.488839e+003;5.892843e-002
1.490768e+003;5.829170e-002
1.492696e+003;5.813333e-002
1.494625e+003;5.770538e-002
1.496553e+003;5.709965e-002
1.498482e+003;5.682568e-002
1.500410e+003;5.698712e-002
1.502339e+003;5.699993e-002
1.504267e+003;5.620216e-002
1.506196e+003;5.549508e-002
1.508125e+003;5.595775e-002
1.510053e+003;5.633508e-002
1.511982e+003;5.621815e-002
1.513910e+003;5.619862e-002
1.515839e+003;5.598526e-002
1.517767e+003;5.577981e-002
1.519696e+003;5.542403e-002
1.521624e+003;5.529693e-002
1.523553e+003;5.589778e-002
1.525481e+003;5.613444e-002
1.527410e+003;5.640721e-002
1.529339e+003;5.683641e-002
1.531267e+003;5.659990e-002
1.533196e+003;5.624074e-002
1.535124e+003;5.642094e-002
1.537053e+003;5.571279e-002
1.538981e+003;5.402559e-002
1.540910e+003;5.385069e-002
1.542838e+003;5.473415e-002
1.544767e+003;5.515936e-002
1.546695e+003;5.550475e-002
1.548624e+003;5.558684e-002
1.550553e+003;5.565316e-002
1.552481e+003;5.577020e-002
1.554410e+003;5.573034e-002
1.556338e+003;5.545321e-002
1.558267e+003;5.448898e-002
1.560195e+003;5.477305e-002
1.562124e+003;5.584921e-002
1.564052e+003;5.609330e-002
1.565981e+003;5.598635e-002
1.567910e+003;5.549760e-002
1.569838e+003;5.523706e-002
1.571767e+003;5.575720e-002
1.573695e+003;5.587201e-002
1.575624e+003;5.544290e-002
1.577552e+003;5.580776e-002
1.579481e+003;5.646056e-002
1.581409e+003;5.688268e-002
1.583338e+003;5.722365e-002
1.585266e+003;5.714488e-002
1.587195e+003;5.737632e-002
1.589124e+003;5.809007e-002
1.591052e+003;5.860174e-002
1.592981e+003;5.901349e-002
1.594909e+003;5.963000e-002
1.596838e+003;6.032516e-002
1.598766e+003;6.101682e-002
1.600695e+003;6.162985e-002
1.602623e+003;6.229074e-002
1.604552e+003;6.320493e-002
1.606480e+003;6.380486e-002
1.608409e+003;6.413496e-002
1.610338e+003;6.454030e-002
1.612266e+003;6.516048e-002
1.614195e+003;6.553626e-002
1.616123e+003;6.549203e-002
1.618052e+003;6.624747e-002
1.619980e+003;6.741172e-002
1.621909e+003;6.789141e-002
1.623837e+003;6.816404e-002
1.625766e+003;6.882506e-002
1.627694e+003;6.970496e-002
1.629623e+003;7.055698e-002
1.631552e+003;7.133047e-002
1.633480e+003;7.151298e-002
1.635409e+003;7.166161e-002
1.637337e+003;7.280718e-002
1.639266e+003;7.401490e-002
1.641194e+003;7.467022e-002
1.643123e+003;7.509186e-002
1.645051e+003;7.517955e-002
1.646980e+003;7.543302e-002
1.648909e+003;7.622132e-002
1.650837e+003;7.586823e-002
1.652766e+003;7.508978e-002
1.654694e+003;7.625023e-002
1.656623e+003;7.744548e-002
1.658551e+003;7.757263e-002
1.660480e+003;7.776952e-002
1.662408e+003;7.834642e-002
1.664337e+003;7.918211e-002
1.666266e+003;7.981309e-002
1.668194e+003;8.012212e-002
1.670123e+003;8.083345e-002
1.672051e+003;8.200234e-002
1.673980e+003;8.306184e-002
1.675908e+003;8.442119e-002
1.677837e+003;8.645009e-002
1.679765e+003;8.841275e-002
1.681694e+003;9.011453e-002
1.683622e+003;9.147801e-002
1.685551e+003;9.442949e-002
1.687479e+003;9.835025e-002
1.689408e+003;1.018807e-001
1.691337e+003;1.055893e-001
1.693265e+003;1.095644e-001
1.695194e+003;1.136508e-001
1.697122e+003;1.188964e-001
1.699051e+003;1.244883e-001
1.700979e+003;1.311142e-001
1.702908e+003;1.392609e-001
1.704836e+003;1.475080e-001
1.706765e+003;1.566199e-001
1.708693e+003;1.667533e-001
1.710622e+003;1.781651e-001
1.712551e+003;1.907927e-001
1.714479e+003;2.043473e-001
1.716408e+003;2.187822e-001
1.718336e+003;2.347392e-001
1.720265e+003;2.521568e-001
1.722193e+003;2.695941e-001
1.724122e+003;2.873784e-001
1.726050e+003;3.048418e-001
1.727979e+003;3.209124e-001
1.729908e+003;3.355295e-001
1.731836e+003;3.477046e-001
1.733765e+003;3.566048e-001
1.735693e+003;3.626280e-001
1.737622e+003;3.645157e-001
1.739550e+003;3.620351e-001
1.741479e+003;3.571263e-001
1.743407e+003;3.501647e-001
1.745336e+003;3.405539e-001
1.747265e+003;3.287238e-001
1.749193e+003;3.154396e-001
1.751122e+003;3.004591e-001
1.753050e+003;2.842180e-001
1.754979e+003;2.665355e-001
1.756907e+003;2.470999e-001
1.758836e+003;2.268631e-001
1.760764e+003;2.055620e-001
1.762693e+003;1.843421e-001
1.764621e+003;1.645833e-001
1.766550e+003;1.466300e-001
1.768479e+003;1.310187e-001
1.770407e+003;1.180858e-001
1.772336e+003;1.070732e-001
1.774264e+003;9.857113e-002
1.776193e+003;9.183487e-002
1.778121e+003;8.629688e-002
1.780050e+003;8.174873e-002
1.781978e+003;7.777839e-002
1.783907e+003;7.447875e-002
1.785835e+003;7.187327e-002
1.787764e+003;6.981441e-002
1.789693e+003;6.786631e-002
1.791621e+003;6.604679e-002
1.793550e+003;6.493271e-002
1.795478e+003;6.403100e-002
1.797407e+003;6.297588e-002
1.799335e+003;6.200266e-002
1.801264e+003;6.116632e-002
1.803192e+003;6.034979e-002
1.805121e+003;5.950333e-002
1.807049e+003;5.879286e-002
1.808978e+003;5.802508e-002
1.810907e+003;5.733794e-002
1.812835e+003;5.651535e-002
1.814764e+003;5.591033e-002
1.816692e+003;5.534665e-002
1.818621e+003;5.471889e-002
1.820549e+003;5.414211e-002
1.822478e+003;5.372460e-002
1.824406e+003;5.315993e-002
1.826335e+003;5.260335e-002
1.828264e+003;5.195224e-002
1.830192e+003;5.129227e-002
1.832121e+003;5.101900e-002
1.834049e+003;5.074218e-002
1.835978e+003;5.035746e-002
1.837906e+003;5.001555e-002
1.839835e+003;4.957629e-002
1.841763e+003;4.895073e-002
1.843692e+003;4.838981e-002
1.845620e+003;4.819537e-002
1.847549e+003;4.799190e-002
1.849478e+003;4.776571e-002
1.851406e+003;4.774044e-002
1.853335e+003;4.761882e-002
1.855263e+003;4.733052e-002
1.857192e+003;4.691689e-002
1.859120e+003;4.662164e-002
1.861049e+003;4.632191e-002
1.862977e+003;4.614422e-002
1.864906e+003;4.596419e-002
1.866834e+003;4.563907e-002
1.868763e+003;4.536098e-002
1.870692e+003;4.518274e-002
1.872620e+003;4.509388e-002
1.874549e+003;4.492140e-002
1.876477e+003;4.477504e-002
1.878406e+003;4.459050e-002
1.880334e+003;4.439124e-002
1.882263e+003;4.410713e-002
1.884191e+003;4.378993e-002
1.886120e+003;4.363134e-002
1.888048e+003;4.342191e-002
1.889977e+003;4.322608e-002
1.891906e+003;4.329376e-002
1.893834e+003;4.342113e-002
1.895763e+003;4.346178e-002
1.897691e+003;4.339346e-002
1.899620e+003;4.325880e-002
1.901548e+003;4.310751e-002
1.903477e+003;4.323307e-002
1.905405e+003;4.352386e-002
1.907334e+003;4.376376e-002
1.909262e+003;4.371861e-002
1.911191e+003;4.365797e-002
1.913120e+003;4.376940e-002
1.915048e+003;4.396368e-002
1.916977e+003;4.417649e-002
1.918905e+003;4.449890e-002
1.920834e+003;4.470228e-002
1.922762e+003;4.469321e-002
1.924691e+003;4.473184e-002
1.926619e+003;4.466617e-002
1.928548e+003;4.457049e-002
1.930477e+003;4.456311e-002
1.932405e+003;4.466713e-002
1.934334e+003;4.466959e-002
1.936262e+003;4.468057e-002
1.938191e+003;4.453913e-002
1.940119e+003;4.455147e-002
1.942048e+003;4.458829e-002
1.943976e+003;4.458275e-002
1.945905e+003;4.443176e-002
1.947833e+003;4.431469e-002
1.949762e+003;4.425720e-002
1.951691e+003;4.411047e-002
1.953619e+003;4.401160e-002
1.955548e+003;4.397299e-002
1.957476e+003;4.384857e-002
1.959405e+003;4.365973e-002
1.961333e+003;4.348101e-002
1.963262e+003;4.324087e-002
1.965190e+003;4.301988e-002
1.967119e+003;4.281502e-002
1.969047e+003;4.258847e-002
1.970976e+003;4.236317e-002
1.972905e+003;4.214504e-002
1.974833e+003;4.198140e-002
1.976762e+003;4.183426e-002
1.978690e+003;4.170261e-002
1.980619e+003;4.169145e-002
1.982547e+003;4.139758e-002
1.984476e+003;4.106174e-002
1.986404e+003;4.094259e-002
1.988333e+003;4.090177e-002
1.990261e+003;4.069864e-002
1.992190e+003;4.060276e-002
1.994119e+003;4.046726e-002
1.996047e+003;4.048916e-002
1.997976e+003;4.068357e-002
1.999904e+003;4.081521e-002
2.001833e+003;4.082085e-002
2.003761e+003;4.086348e-002
2.005690e+003;4.106731e-002
2.007618e+003;4.129124e-002
2.009547e+003;4.138337e-002
2.011476e+003;4.149848e-002
2.013404e+003;4.156765e-002
2.015333e+003;4.177148e-002
2.017261e+003;4.203640e-002
2.019190e+003;4.214621e-002
2.021118e+003;4.234885e-002
2.023047e+003;4.243682e-002
2.024975e+003;4.250551e-002
2.026904e+003;4.247793e-002
2.028833e+003;4.247383e-002
2.030761e+003;4.283272e-002
2.032690e+003;4.297872e-002
2.034618e+003;4.296793e-002
2.036547e+003;4.296859e-002
2.038475e+003;4.303297e-002
2.040404e+003;4.335402e-002
2.042332e+003;4.339785e-002
2.044261e+003;4.327751e-002
2.046189e+003;4.324852e-002
2.048118e+003;4.318245e-002
2.050047e+003;4.331587e-002
2.051975e+003;4.350720e-002
2.053904e+003;4.357610e-002
2.055832e+003;4.356056e-002
2.057761e+003;4.361745e-002
2.059689e+003;4.379924e-002
2.061618e+003;4.383871e-002
2.063546e+003;4.365684e-002
2.065475e+003;4.368692e-002
2.067404e+003;4.393911e-002
2.069332e+003;4.409712e-002
2.071260e+003;4.435198e-002
2.073189e+003;4.451464e-002
2.075118e+003;4.465824e-002
2.077046e+003;4.480005e-002
2.078975e+003;4.490582e-002
2.080903e+003;4.511892e-002
2.082832e+003;4.529180e-002
2.084760e+003;4.552113e-002
2.086689e+003;4.598220e-002
2.088617e+003;4.636644e-002
2.090546e+003;4.649605e-002
2.092475e+003;4.661430e-002
2.094403e+003;4.688654e-002
2.096332e+003;4.738089e-002
2.098260e+003;4.777340e-002
2.100189e+003;4.781645e-002
2.102117e+003;4.789769e-002
2.104046e+003;4.829767e-002
2.105974e+003;4.857735e-002
2.107903e+003;4.886585e-002
2.109832e+003;4.921944e-002
2.111760e+003;4.923532e-002
2.113688e+003;4.903708e-002
2.115617e+003;4.914493e-002
2.117546e+003;4.921491e-002
2.119474e+003;4.910875e-002
2.121403e+003;4.911339e-002
2.123331e+003;4.920990e-002
2.125260e+003;4.919350e-002
2.127188e+003;4.899235e-002
2.129117e+003;4.870428e-002
2.131045e+003;4.842915e-002
2.132974e+003;4.830297e-002
2.134903e+003;4.820484e-002
2.136831e+003;4.803794e-002
2.138760e+003;4.786672e-002
2.140688e+003;4.763280e-002
2.142617e+003;4.738436e-002
2.144545e+003;4.704300e-002
2.146474e+003;4.654219e-002
2.148402e+003;4.631841e-002
2.150331e+003;4.634679e-002
2.152260e+003;4.621049e-002
2.154188e+003;4.597214e-002
2.156117e+003;4.568674e-002
2.158045e+003;4.523723e-002
2.159974e+003;4.471858e-002
2.161902e+003;4.453862e-002
2.163831e+003;4.432438e-002
2.165759e+003;4.399756e-002
2.167688e+003;4.370498e-002
2.169616e+003;4.346076e-002
2.171545e+003;4.309433e-002
2.173474e+003;4.273933e-002
2.175402e+003;4.271834e-002
2.177331e+003;4.261829e-002
2.179259e+003;4.224984e-002
2.181188e+003;4.179067e-002
2.183116e+003;4.170385e-002
2.185045e+003;4.151769e-002
2.186973e+003;4.117870e-002
2.188902e+003;4.106086e-002
2.190831e+003;4.090916e-002
2.192759e+003;4.061110e-002
2.194688e+003;4.048239e-002
2.196616e+003;4.063183e-002
2.198545e+003;4.059821e-002
2.200473e+003;4.062768e-002
2.202402e+003;4.056944e-002
2.204330e+003;4.027451e-002
2.206259e+003;4.012534e-002
2.208188e+003;4.028360e-002
2.210116e+003;4.032137e-002
2.212044e+003;4.027989e-002
2.213973e+003;4.012080e-002
2.215902e+003;4.002371e-002
2.217830e+003;3.998163e-002
2.219759e+003;3.984099e-002
2.221687e+003;3.985338e-002
2.223616e+003;3.989634e-002
2.225544e+003;3.973292e-002
2.227473e+003;3.960887e-002
2.229401e+003;3.947804e-002
2.231330e+003;3.932617e-002
2.233259e+003;3.935033e-002
2.235187e+003;3.946603e-002
2.237116e+003;3.955414e-002
2.239044e+003;3.961454e-002
2.240973e+003;3.954129e-002
2.242901e+003;3.942764e-002
2.244830e+003;3.939568e-002
2.246758e+003;3.952707e-002
2.248687e+003;3.951542e-002
2.250615e+003;3.943475e-002
2.252544e+003;3.955922e-002
2.254473e+003;3.960299e-002
2.256401e+003;3.946810e-002
2.258330e+003;3.947452e-002
2.260258e+003;3.959755e-002
2.262187e+003;3.973779e-002
2.264115e+003;3.947093e-002
2.266044e+003;3.922196e-002
2.267972e+003;3.920953e-002
2.269901e+003;3.920884e-002
2.271830e+003;3.913765e-002
2.273758e+003;3.909799e-002
2.275687e+003;3.902907e-002
2.277615e+003;3.891153e-002
2.279544e+003;3.874432e-002
2.281472e+003;3.862845e-002
2.283401e+003;3.843336e-002
2.285329e+003;3.831934e-002
2.287258e+003;3.820312e-002
2.289187e+003;3.793340e-002
2.291115e+003;3.775503e-002
2.293043e+003;3.743044e-002
2.294972e+003;3.711035e-002
2.296901e+003;3.693986e-002
2.298829e+003;3.680398e-002
2.300758e+003;3.647149e-002
2.302686e+003;3.628043e-002
2.304615e+003;3.626483e-002
2.306543e+003;3.622197e-002
2.308472e+003;3.610857e-002
2.310400e+003;3.602972e-002
2.312329e+003;3.604668e-002
2.314258e+003;3.591036e-002
2.316186e+003;3.560685e-002
2.318115e+003;3.553975e-002
2.320043e+003;3.577722e-002
2.321972e+003;3.587772e-002
2.323900e+003;3.605413e-002
2.325829e+003;3.619824e-002
2.327757e+003;3.608020e-002
2.329686e+003;3.589417e-002
2.331615e+003;3.587858e-002
2.333543e+003;3.596885e-002
2.335472e+003;3.615588e-002
2.337400e+003;3.651070e-002
2.339329e+003;3.671084e-002
2.341257e+003;3.678202e-002
2.343186e+003;3.684654e-002
2.345114e+003;3.718719e-002
2.347043e+003;3.752962e-002
2.348971e+003;3.759184e-002
2.350900e+003;3.756243e-002
2.352829e+003;3.769121e-002
2.354757e+003;3.783853e-002
2.356686e+003;3.760185e-002
2.358614e+003;3.761109e-002
2.360543e+003;3.769146e-002
2.362471e+003;3.764983e-002
2.364400e+003;3.775474e-002
2.366328e+003;3.786781e-002
2.368257e+003;3.785386e-002
2.370186e+003;3.763960e-002
2.372114e+003;3.752992e-002
2.374042e+003;3.747931e-002
2.375971e+003;3.743069e-002
2.377900e+003;3.748772e-002
2.379828e+003;3.750990e-002
2.381757e+003;3.759932e-002
2.383685e+003;3.763169e-002
2.385614e+003;3.768831e-002
2.387542e+003;3.795564e-002
2.389471e+003;3.817522e-002
2.391399e+003;3.822616e-002
2.393328e+003;3.811390e-002
2.395257e+003;3.826293e-002
2.397185e+003;3.868140e-002
2.399114e+003;3.892244e-002
2.401042e+003;3.913240e-002
2.402971e+003;3.953164e-002
2.404899e+003;3.990651e-002
2.406828e+003;4.035359e-002
2.408756e+003;4.049425e-002
2.410685e+003;4.040362e-002
2.412614e+003;4.046810e-002
2.414542e+003;4.059479e-002
2.416471e+003;4.066272e-002
2.418399e+003;4.050677e-002
2.420328e+003;4.034362e-002
2.422256e+003;4.024437e-002
2.424185e+003;4.033744e-002
2.426113e+003;4.047872e-002
2.428042e+003;4.058970e-002
2.429970e+003;4.067353e-002
2.431899e+003;4.055289e-002
2.433828e+003;4.047803e-002
2.435756e+003;4.044046e-002
2.437685e+003;4.042180e-002
2.439613e+003;4.045475e-002
2.441542e+003;4.039169e-002
2.443470e+003;4.041017e-002
2.445399e+003;4.052739e-002
2.447327e+003;4.057024e-002
2.449256e+003;4.049585e-002
2.451185e+003;4.037511e-002
2.453113e+003;4.040853e-002
2.455042e+003;4.042566e-002
2.456970e+003;4.040591e-002
2.458899e+003;4.047101e-002
2.460827e+003;4.059596e-002
2.462756e+003;4.056264e-002
2.464684e+003;4.047778e-002
2.466613e+003;4.046737e-002
2.468542e+003;4.057672e-002
2.470470e+003;4.034250e-002
2.472398e+003;4.009318e-002
2.474327e+003;4.013977e-002
2.476256e+003;4.007672e-002
2.478184e+003;3.991697e-002
2.480113e+003;3.988210e-002
2.482041e+003;3.990731e-002
2.483970e+003;3.973772e-002
2.485898e+003;3.953404e-002
2.487827e+003;3.953208e-002
2.489755e+003;3.940493e-002
2.491684e+003;3.932163e-002
2.493613e+003;3.937493e-002
2.495541e+003;3.908349e-002
2.497470e+003;3.880641e-002
2.499398e+003;3.881141e-002
2.501327e+003;3.882652e-002
2.503255e+003;3.855240e-002
2.505184e+003;3.832329e-002
2.507112e+003;3.812816e-002
2.509041e+003;3.796215e-002
2.510969e+003;3.803136e-002
2.512898e+003;3.813969e-002
2.514827e+003;3.809614e-002
2.516755e+003;3.795668e-002
2.518684e+003;3.782573e-002
2.520612e+003;3.760423e-002
2.522541e+003;3.751290e-002
2.524469e+003;3.759960e-002
2.526398e+003;3.737594e-002
2.528326e+003;3.727033e-002
2.530255e+003;3.731535e-002
2.532184e+003;3.734106e-002
2.534112e+003;3.749914e-002
2.536041e+003;3.745005e-002
2.537969e+003;3.713337e-002
2.539898e+003;3.711172e-002
2.541826e+003;3.739779e-002
2.543755e+003;3.745132e-002
2.545683e+003;3.720708e-002
2.547612e+003;3.705676e-002
2.549541e+003;3.698813e-002
2.551469e+003;3.713439e-002
2.553397e+003;3.723766e-002
2.555326e+003;3.723740e-002
2.557255e+003;3.737035e-002
2.559183e+003;3.746302e-002
2.561112e+003;3.742390e-002
2.563040e+003;3.762450e-002
2.564969e+003;3.802134e-002
2.566897e+003;3.845016e-002
2.568826e+003;3.865880e-002
2.570754e+003;3.866108e-002
2.572683e+003;3.872443e-002
2.574612e+003;3.891356e-002
2.576540e+003;3.907627e-002
2.578469e+003;3.918969e-002
2.580397e+003;3.940816e-002
2.582326e+003;3.972149e-002
2.584254e+003;3.996547e-002
2.586183e+003;4.000685e-002
2.588111e+003;4.009925e-002
2.590040e+003;4.044286e-002
2.591969e+003;4.074649e-002
2.593897e+003;4.079595e-002
2.595826e+003;4.072247e-002
2.597754e+003;4.061440e-002
2.599683e+003;4.066411e-002
2.601611e+003;4.072451e-002
2.603540e+003;4.054939e-002
2.605468e+003;4.067757e-002
2.607397e+003;4.078922e-002
2.609325e+003;4.085496e-002
2.611254e+003;4.109146e-002
2.613183e+003;4.130498e-002
2.615111e+003;4.161869e-002
2.617040e+003;4.185878e-002
2.618968e+003;4.188513e-002
2.620897e+003;4.171709e-002
2.622825e+003;4.182383e-002
2.624754e+003;4.200625e-002
2.626682e+003;4.197632e-002
2.628611e+003;4.197165e-002
2.630540e+003;4.230473e-002
2.632468e+003;4.248798e-002
2.634396e+003;4.246368e-002
2.636325e+003;4.251874e-002
2.638254e+003;4.240405e-002
2.640182e+003;4.249371e-002
2.642111e+003;4.266947e-002
2.644039e+003;4.285148e-002
2.645968e+003;4.292418e-002
2.647896e+003;4.287536e-002
2.649825e+003;4.266157e-002
2.651753e+003;4.258683e-002
2.653682e+003;4.269663e-002
2.655611e+003;4.262330e-002
2.657539e+003;4.239689e-002
2.659468e+003;4.239532e-002
2.661396e+003;4.245345e-002
2.663325e+003;4.237183e-002
2.665253e+003;4.237917e-002
2.667182e+003;4.256548e-002
2.669110e+003;4.268658e-002
2.671039e+003;4.246214e-002
2.672968e+003;4.223732e-002
2.674896e+003;4.235163e-002
2.676825e+003;4.254239e-002
2.678753e+003;4.266614e-002
2.680682e+003;4.247011e-002
2.682610e+003;4.231116e-002
2.684539e+003;4.248027e-002
2.686467e+003;4.255620e-002
2.688396e+003;4.281919e-002
2.690324e+003;4.310710e-002
2.692253e+003;4.309931e-002
2.694182e+003;4.306927e-002
2.696110e+003;4.326824e-002
2.698039e+003;4.354532e-002
2.699967e+003;4.367259e-002
2.701896e+003;4.374481e-002
2.703824e+003;4.389340e-002
2.705753e+003;4.417873e-002
2.707681e+003;4.461484e-002
2.709610e+003;4.512443e-002
2.711539e+003;4.530699e-002
2.713467e+003;4.553010e-002
2.715396e+003;4.595612e-002
2.717324e+003;4.610193e-002
2.719253e+003;4.614312e-002
2.721181e+003;4.639011e-002
2.723110e+003;4.658730e-002
2.725038e+003;4.647794e-002
2.726967e+003;4.658029e-002
2.728896e+003;4.677055e-002
2.730824e+003;4.675409e-002
2.732752e+003;4.668583e-002
2.734681e+003;4.675922e-002
2.736610e+003;4.685720e-002
2.738538e+003;4.675202e-002
2.740467e+003;4.670490e-002
2.742395e+003;4.668922e-002
2.744324e+003;4.660061e-002
2.746252e+003;4.646773e-002
2.748181e+003;4.649513e-002
2.750109e+003;4.652887e-002
2.752038e+003;4.630348e-002
2.753967e+003;4.643440e-002
2.755895e+003;4.660526e-002
2.757824e+003;4.624343e-002
2.759752e+003;4.612123e-002
2.761681e+003;4.641961e-002
2.763609e+003;4.655613e-002
2.765538e+003;4.641419e-002
2.767466e+003;4.656634e-002
2.769395e+003;4.669476e-002
2.771323e+003;4.672616e-002
2.773252e+003;4.683764e-002
2.775181e+003;4.681177e-002
2.777109e+003;4.683067e-002
2.779038e+003;4.700232e-002
2.780966e+003;4.722545e-002
2.782895e+003;4.765809e-002
2.784823e+003;4.789133e-002
2.786752e+003;4.785707e-002
2.788680e+003;4.816560e-002
2.790609e+003;4.873872e-002
2.792538e+003;4.909039e-002
2.794466e+003;4.924794e-002
2.796395e+003;4.928197e-002
2.798323e+003;4.958022e-002
2.800252e+003;4.999618e-002
2.802180e+003;4.998443e-002
2.804109e+003;4.996083e-002
2.806037e+003;5.011204e-002
2.807966e+003;5.042947e-002
2.809895e+003;5.056197e-002
2.811823e+003;5.063453e-002
2.813751e+003;5.091579e-002
2.815680e+003;5.119056e-002
2.817609e+003;5.134933e-002
2.819537e+003;5.142888e-002
2.821466e+003;5.167587e-002
2.823394e+003;5.208988e-002
2.825323e+003;5.243209e-002
2.827251e+003;5.286212e-002
2.829180e+003;5.329330e-002
2.831108e+003;5.340495e-002
2.833037e+003;5.378329e-002
2.834966e+003;5.449097e-002
2.836894e+003;5.492990e-002
2.838823e+003;5.559475e-002
2.840751e+003;5.620495e-002
2.842680e+003;5.661466e-002
2.844608e+003;5.692592e-002
2.846537e+003;5.705880e-002
2.848465e+003;5.735560e-002
2.850394e+003;5.775659e-002
2.852323e+003;5.840463e-002
2.854251e+003;5.950557e-002
2.856180e+003;6.095894e-002
2.858108e+003;6.262443e-002
2.860037e+003;6.413303e-002
2.861965e+003;6.574473e-002
2.863894e+003;6.682526e-002
2.865822e+003;6.739593e-002
2.867751e+003;6.813253e-002
2.869679e+003;6.881135e-002
2.871608e+003;6.900046e-002
2.873536e+003;6.936450e-002
2.875465e+003;7.020047e-002
2.877394e+003;7.061476e-002
2.879322e+003;7.065468e-002
2.881251e+003;7.093185e-002
2.883179e+003;7.143018e-002
2.885108e+003;7.159562e-002
2.887036e+003;7.168244e-002
2.888965e+003;7.159557e-002
2.890893e+003;7.118976e-002
2.892822e+003;7.103232e-002
2.894750e+003;7.093400e-002
2.896679e+003;7.058583e-002
2.898608e+003;7.014532e-002
2.900536e+003;6.975059e-002
2.902465e+003;6.955253e-002
2.904393e+003;6.917752e-002
2.906322e+003;6.877746e-002
2.908250e+003;6.834988e-002
2.910179e+003;6.746490e-002
2.912107e+003;6.654409e-002
2.914036e+003;6.588334e-002
2.915965e+003;6.510120e-002
2.917893e+003;6.448383e-002
2.919822e+003;6.409828e-002
2.921750e+003;6.370992e-002
2.923679e+003;6.383476e-002
2.925607e+003;6.448644e-002
2.927536e+003;6.534307e-002
2.929464e+003;6.656406e-002
2.931393e+003;6.764579e-002
2.933322e+003;6.859668e-002
2.935250e+003;6.983417e-002
2.937178e+003;7.095242e-002
2.939107e+003;7.205637e-002
2.941036e+003;7.289875e-002
2.942964e+003;7.319847e-002
2.944893e+003;7.322820e-002
2.946821e+003;7.305828e-002
2.948750e+003;7.299827e-002
2.950678e+003;7.279351e-002
2.952607e+003;7.217909e-002
2.954535e+003;7.170425e-002
2.956464e+003;7.119671e-002
2.958393e+003;7.084435e-002
2.960321e+003;7.045491e-002
2.962250e+003;7.017052e-002
2.964178e+003;6.983542e-002
2.966107e+003;6.938164e-002
2.968035e+003;6.878906e-002
2.969964e+003;6.810892e-002
2.971892e+003;6.740928e-002
2.973821e+003;6.673608e-002
2.975750e+003;6.639192e-002
2.977678e+003;6.615401e-002
2.979607e+003;6.589475e-002
2.981535e+003;6.547562e-002
2.983464e+003;6.507075e-002
2.985392e+003;6.470086e-002
2.987321e+003;6.464203e-002
2.989249e+003;6.470682e-002
2.991178e+003;6.447976e-002
2.993106e+003;6.414825e-002
2.995035e+003;6.356695e-002
2.996964e+003;6.302898e-002
2.998892e+003;6.275986e-002
3.000821e+003;6.249015e-002
3.002749e+003;6.216902e-002
3.004678e+003;6.182105e-002
3.006606e+003;6.142102e-002
3.008535e+003;6.105007e-002
3.010463e+003;6.076030e-002
3.012392e+003;6.049278e-002
3.014321e+003;6.035451e-002
3.016249e+003;6.031545e-002
3.018177e+003;5.998227e-002
3.020106e+003;5.965706e-002
3.022035e+003;5.964159e-002
3.023963e+003;5.958591e-002
3.025892e+003;5.913519e-002
3.027820e+003;5.874491e-002
3.029749e+003;5.859427e-002
3.031677e+003;5.809435e-002
3.033606e+003;5.759985e-002
3.035534e+003;5.748898e-002
3.037463e+003;5.689877e-002
3.039392e+003;5.593890e-002
3.041320e+003;5.513468e-002
3.043249e+003;5.461957e-002
3.045177e+003;5.430440e-002
3.047106e+003;5.398870e-002
3.049034e+003;5.355264e-002
3.050963e+003;5.314884e-002
3.052891e+003;5.253300e-002
3.054820e+003;5.212350e-002
3.056749e+003;5.186673e-002
3.058677e+003;5.162325e-002
3.060606e+003;5.135917e-002
3.062534e+003;5.100424e-002
3.064463e+003;5.047283e-002
3.066391e+003;5.012862e-002
3.068320e+003;5.011784e-002
3.070248e+003;4.993139e-002
3.072177e+003;4.973703e-002
3.074105e+003;4.948909e-002
3.076034e+003;4.919510e-002
3.077963e+003;4.906457e-002
3.079891e+003;4.870621e-002
3.081820e+003;4.812381e-002
3.083748e+003;4.779788e-002
3.085677e+003;4.791715e-002
3.087605e+003;4.782344e-002
3.089534e+003;4.765214e-002
3.091462e+003;4.784139e-002
3.093391e+003;4.797014e-002
3.095320e+003;4.783491e-002
3.097248e+003;4.750910e-002
3.099177e+003;4.725024e-002
3.101105e+003;4.732073e-002
3.103034e+003;4.749671e-002
3.104962e+003;4.742464e-002
3.106891e+003;4.729173e-002
3.108819e+003;4.704175e-002
3.110748e+003;4.730665e-002
3.112677e+003;4.765579e-002
3.114605e+003;4.713614e-002
3.116533e+003;4.659681e-002
3.118462e+003;4.670140e-002
3.120391e+003;4.688130e-002
3.122319e+003;4.673859e-002
3.124248e+003;4.637702e-002
3.126176e+003;4.609338e-002
3.128105e+003;4.640342e-002
3.130033e+003;4.649413e-002
3.131962e+003;4.608999e-002
3.133890e+003;4.591339e-002
3.135819e+003;4.598500e-002
3.137748e+003;4.576555e-002
3.139676e+003;4.550821e-002
3.141605e+003;4.560904e-002
3.143533e+003;4.558880e-002
3.145462e+003;4.546229e-002
3.147390e+003;4.537522e-002
3.149319e+003;4.529772e-002
3.151247e+003;4.530089e-002
3.153176e+003;4.529769e-002
3.155104e+003;4.518913e-002
3.157033e+003;4.510304e-002
3.158962e+003;4.522491e-002
3.160890e+003;4.548216e-002
3.162819e+003;4.575826e-002
3.164747e+003;4.584044e-002
3.166676e+003;4.573643e-002
3.168604e+003;4.572782e-002
3.170533e+003;4.588504e-002
3.172461e+003;4.582520e-002
3.174390e+003;4.557706e-002
3.176319e+003;4.539626e-002
3.178247e+003;4.540182e-002
3.180176e+003;4.543934e-002
3.182104e+003;4.545379e-002
3.184033e+003;4.545457e-002
3.185961e+003;4.573581e-002
3.187890e+003;4.619792e-002
3.189818e+003;4.604972e-002
3.191747e+003;4.563524e-002
3.193676e+003;4.543121e-002
3.195604e+003;4.547410e-002
3.197532e+003;4.563178e-002
3.199461e+003;4.570378e-002
3.201390e+003;4.592857e-002
3.203318e+003;4.622556e-002
3.205247e+003;4.620864e-002
3.207175e+003;4.587889e-002
3.209104e+003;4.571361e-002
3.211032e+003;4.595001e-002
3.212961e+003;4.655049e-002
3.214889e+003;4.680719e-002
3.216818e+003;4.655034e-002
3.218747e+003;4.663931e-002
3.220675e+003;4.717529e-002
3.222604e+003;4.744733e-002
3.224532e+003;4.737808e-002
3.226461e+003;4.735095e-002
3.228389e+003;4.743399e-002
3.230318e+003;4.735953e-002
3.232246e+003;4.732683e-002
3.234175e+003;4.734899e-002
3.236104e+003;4.771589e-002
3.238032e+003;4.834374e-002
3.239961e+003;4.840871e-002
3.241889e+003;4.822295e-002
3.243818e+003;4.811085e-002
3.245746e+003;4.827471e-002
3.247675e+003;4.872000e-002
3.249603e+003;4.871055e-002
3.251532e+003;4.866507e-002
3.253460e+003;4.872285e-002
3.255389e+003;4.900028e-002
3.257318e+003;4.912541e-002
3.259246e+003;4.900815e-002
3.261175e+003;4.944253e-002
3.263103e+003;5.003079e-002
3.265032e+003;5.017898e-002
3.266960e+003;5.027923e-002
3.268889e+003;5.032011e-002
3.270817e+003;5.033258e-002
3.272746e+003;5.042351e-002
3.274675e+003;5.036193e-002
3.276603e+003;5.033150e-002
3.278531e+003;5.084464e-002
3.280460e+003;5.126621e-002
3.282389e+003;5.133504e-002
3.284317e+003;5.183481e-002
3.286246e+003;5.208398e-002
3.288174e+003;5.208588e-002
3.290103e+003;5.215051e-002
3.292031e+003;5.190874e-002
3.293960e+003;5.191049e-002
3.295888e+003;5.242154e-002
3.297817e+003;5.276240e-002
3.299746e+003;5.302637e-002
3.301674e+003;5.320895e-002
3.303603e+003;5.336088e-002
3.305531e+003;5.357067e-002
3.307460e+003;5.339520e-002
3.309388e+003;5.337726e-002
3.311317e+003;5.391397e-002
3.313245e+003;5.454420e-002
3.315174e+003;5.488369e-002
3.317103e+003;5.492411e-002
3.319031e+003;5.492659e-002
3.320960e+003;5.493012e-002
3.322888e+003;5.503478e-002
3.324817e+003;5.542964e-002
3.326745e+003;5.569399e-002
3.328674e+003;5.567964e-002
3.330602e+003;5.583263e-002
3.332531e+003;5.603204e-002
3.334459e+003;5.601726e-002
3.336388e+003;5.610544e-002
3.338317e+003;5.652438e-002
3.340245e+003;5.671806e-002
3.342174e+003;5.705347e-002
3.344102e+003;5.735631e-002
3.346031e+003;5.730943e-002
3.347959e+003;5.754610e-002
3.349888e+003;5.796120e-002
3.351816e+003;5.824812e-002
3.353745e+003;5.841153e-002
3.355674e+003;5.869022e-002
3.357602e+003;5.901360e-002
3.359531e+003;5.930429e-002
3.361459e+003;5.950948e-002
3.363388e+003;5.944766e-002
3.365316e+003;5.934817e-002
3.367245e+003;5.940203e-002
3.369173e+003;5.966835e-002
3.371102e+003;5.991152e-002
3.373031e+003;6.016209e-002
3.374959e+003;6.039255e-002
3.376887e+003;6.051388e-002
3.378816e+003;6.098647e-002
3.380745e+003;6.150690e-002
3.382673e+003;6.169030e-002
3.384602e+003;6.153981e-002
3.386530e+003;6.138324e-002
3.388459e+003;6.176363e-002
3.390387e+003;6.228030e-002
3.392316e+003;6.253392e-002
3.394244e+003;6.293058e-002
3.396173e+003;6.302545e-002
3.398102e+003;6.301833e-002
3.400030e+003;6.322072e-002
3.401959e+003;6.326162e-002
3.403887e+003;6.335089e-002
3.405816e+003;6.376806e-002
3.407744e+003;6.395943e-002
3.409673e+003;6.393056e-002
3.411601e+003;6.411310e-002
3.413530e+003;6.448264e-002
3.415458e+003;6.478598e-002
3.417387e+003;6.478667e-002
3.419316e+003;6.476129e-002
3.421244e+003;6.476933e-002
3.423173e+003;6.510913e-002
3.425101e+003;6.569523e-002
3.427030e+003;6.582785e-002
3.428958e+003;6.608352e-002
3.430887e+003;6.665472e-002
3.432815e+003;6.701282e-002
3.434744e+003;6.683056e-002
3.436673e+003;6.652699e-002
3.438601e+003;6.695181e-002
3.440530e+003;6.731801e-002
3.442458e+003;6.767464e-002
3.444387e+003;6.803051e-002
3.446315e+003;6.800602e-002
3.448244e+003;6.782111e-002
3.450172e+003;6.806326e-002
3.452101e+003;6.887452e-002
3.454030e+003;6.931700e-002
3.455958e+003;6.921569e-002
3.457886e+003;6.929725e-002
3.459815e+003;6.977557e-002
3.461744e+003;7.003626e-002
3.463672e+003;7.033280e-002
3.465601e+003;7.053445e-002
3.467529e+003;7.039194e-002
3.469458e+003;7.078246e-002
3.471386e+003;7.141260e-002
3.473315e+003;7.115315e-002
3.475243e+003;7.081222e-002
3.477172e+003;7.136050e-002
3.479101e+003;7.157342e-002
3.481029e+003;7.146994e-002
3.482958e+003;7.159241e-002
3.484886e+003;7.160874e-002
3.486815e+003;7.139850e-002
3.488743e+003;7.132899e-002
3.490672e+003;7.147482e-002
3.492600e+003;7.092897e-002
3.494529e+003;7.027210e-002
3.496458e+003;7.058283e-002
3.498386e+003;7.102167e-002
3.500315e+003;7.107396e-002
3.502243e+003;7.074221e-002
3.504172e+003;7.053348e-002
3.506100e+003;7.091188e-002
3.508029e+003;7.133847e-002
3.509957e+003;7.093611e-002
3.511886e+003;7.043885e-002
3.513814e+003;7.042143e-002
3.515743e+003;6.993501e-002
3.517672e+003;6.941717e-002
3.519600e+003;6.964937e-002
3.521529e+003;6.985721e-002
3.523457e+003;6.951348e-002
3.525386e+003;6.890019e-002
3.527314e+003;6.860091e-002
3.529243e+003;6.864150e-002
3.531171e+003;6.864876e-002
3.533100e+003;6.856416e-002
3.535029e+003;6.816784e-002
3.536957e+003;6.793658e-002
3.538885e+003;6.799626e-002
3.540814e+003;6.789839e-002
3.542743e+003;6.762829e-002
3.544671e+003;6.693932e-002
3.546600e+003;6.620884e-002
3.548528e+003;6.574658e-002
3.550457e+003;6.542743e-002
3.552385e+003;6.529929e-002
3.554314e+003;6.510547e-002
3.556242e+003;6.486277e-002
3.558171e+003;6.457248e-002
3.560100e+003;6.415397e-002
3.562028e+003;6.372301e-002
3.563957e+003;6.317811e-002
3.565885e+003;6.218298e-002
3.567814e+003;6.171203e-002
3.569742e+003;6.178789e-002
3.571671e+003;6.155172e-002
3.573599e+003;6.087537e-002
3.575528e+003;6.044503e-002
3.577457e+003;6.027167e-002
3.579385e+003;5.979963e-002
3.581314e+003;5.925933e-002
3.583242e+003;5.891686e-002
3.585171e+003;5.826275e-002
3.587099e+003;5.727340e-002
3.589028e+003;5.681416e-002
3.590956e+003;5.648018e-002
3.592885e+003;5.570665e-002
3.594813e+003;5.513138e-002
3.596742e+003;5.516282e-002
3.598671e+003;5.520466e-002
3.600599e+003;5.451783e-002
3.602528e+003;5.366056e-002
3.604456e+003;5.327603e-002
3.606385e+003;5.330308e-002
3.608313e+003;5.280685e-002
3.610242e+003;5.221542e-002
3.612170e+003;5.166516e-002
3.614099e+003;5.107930e-002
3.616028e+003;5.057750e-002
3.617956e+003;4.987612e-002
3.619885e+003;4.947168e-002
3.621813e+003;4.946573e-002
3.623742e+003;4.905118e-002
3.625670e+003;4.861982e-002
3.627599e+003;4.796451e-002
3.629527e+003;4.752089e-002
3.631456e+003;4.740335e-002
3.633385e+003;4.692623e-002
3.635313e+003;4.651678e-002
3.637241e+003;4.619817e-002
3.639170e+003;4.556845e-002
3.641099e+003;4.506249e-002
3.643027e+003;4.489870e-002
3.644956e+003;4.441271e-002
3.646884e+003;4.323779e-002
3.648813e+003;4.234162e-002
3.650741e+003;4.196928e-002
3.652670e+003;4.171020e-002
3.654598e+003;4.091415e-002
3.656527e+003;4.015500e-002
3.658456e+003;3.963330e-002
3.660384e+003;3.859556e-002
3.662313e+003;3.774755e-002
3.664241e+003;3.731932e-002
3.666170e+003;3.654952e-002
3.668098e+003;3.520233e-002
3.670027e+003;3.410969e-002
3.671955e+003;3.366645e-002
3.673884e+003;3.268648e-002
3.675813e+003;3.184902e-002
3.677741e+003;3.177026e-002
3.679669e+003;3.112767e-002
3.681598e+003;3.072409e-002
3.683527e+003;3.045237e-002
3.685455e+003;2.973919e-002
3.687384e+003;2.882382e-002
3.689312e+003;2.889531e-002
3.691241e+003;2.928717e-002
3.693169e+003;2.889344e-002
3.695098e+003;2.860279e-002
3.697026e+003;2.834378e-002
3.698955e+003;2.802233e-002
3.700884e+003;2.743498e-002
3.702812e+003;2.706430e-002
3.704741e+003;2.730811e-002
3.706669e+003;2.735109e-002
3.708598e+003;2.704790e-002
3.710526e+003;2.666750e-002
3.712455e+003;2.629339e-002
3.714383e+003;2.645806e-002
3.716312e+003;2.651934e-002
3.718240e+003;2.621029e-002
3.720169e+003;2.605120e-002
3.722098e+003;2.585510e-002
3.724026e+003;2.556841e-002
3.725955e+003;2.569083e-002
3.727883e+003;2.607653e-002
3.729812e+003;2.580021e-002
3.731740e+003;2.514918e-002
3.733669e+003;2.499595e-002
3.735597e+003;2.512843e-002
3.737526e+003;2.535086e-002
3.739455e+003;2.517506e-002
3.741383e+003;2.486815e-002
3.743312e+003;2.438566e-002
3.745240e+003;2.463773e-002
3.747169e+003;2.479763e-002
3.749097e+003;2.425285e-002
3.751026e+003;2.427047e-002
3.752954e+003;2.486632e-002
3.754883e+003;2.532827e-002
3.756812e+003;2.526537e-002
3.758740e+003;2.514300e-002
3.760668e+003;2.545878e-002
3.762597e+003;2.586864e-002
3.764526e+003;2.578548e-002
3.766454e+003;2.596701e-002
3.768383e+003;2.570655e-002
3.770311e+003;2.479956e-002
3.772240e+003;2.507960e-002
3.774168e+003;2.569832e-002
3.776097e+003;2.546957e-002
3.778025e+003;2.536593e-002
3.779954e+003;2.533224e-002
3.781883e+003;2.534078e-002
3.783811e+003;2.528574e-002
3.785740e+003;2.529452e-002
3.787668e+003;2.510192e-002
3.789597e+003;2.503446e-002
3.791525e+003;2.553612e-002
3.793454e+003;2.568563e-002
3.795382e+003;2.544631e-002
3.797311e+003;2.560373e-002
3.799240e+003;2.542287e-002
3.801168e+003;2.491833e-002
3.803097e+003;2.502614e-002
3.805025e+003;2.514181e-002
3.806954e+003;2.520160e-002
3.808882e+003;2.561371e-002
3.810811e+003;2.591563e-002
3.812739e+003;2.566148e-002
3.814668e+003;2.478546e-002
3.816596e+003;2.462699e-002
3.818525e+003;2.496609e-002
3.820454e+003;2.514795e-002
3.822382e+003;2.549999e-002
3.824311e+003;2.577046e-002
3.826239e+003;2.591608e-002
3.828168e+003;2.578228e-002
3.830096e+003;2.554726e-002
3.832025e+003;2.534770e-002
3.833953e+003;2.531626e-002
3.835882e+003;2.490640e-002
3.837811e+003;2.448752e-002
3.839739e+003;2.492383e-002
3.841667e+003;2.521315e-002
3.843596e+003;2.501249e-002
3.845525e+003;2.511284e-002
3.847453e+003;2.542147e-002
3.849382e+003;2.531686e-002
3.851310e+003;2.452724e-002
3.853239e+003;2.440087e-002
3.855167e+003;2.545108e-002
3.857096e+003;2.600026e-002
3.859024e+003;2.581308e-002
3.860953e+003;2.566197e-002
3.862882e+003;2.588324e-002
3.864810e+003;2.635014e-002
3.866739e+003;2.636380e-002
3.868667e+003;2.603850e-002
3.870596e+003;2.645120e-002
3.872524e+003;2.668893e-002
3.874453e+003;2.618692e-002
3.876381e+003;2.614976e-002
3.878310e+003;2.651786e-002
3.880239e+003;2.673473e-002
3.882167e+003;2.667779e-002
3.884096e+003;2.629163e-002
3.886024e+003;2.646415e-002
3.887953e+003;2.680398e-002
3.889881e+003;2.648131e-002
3.891810e+003;2.675365e-002
3.893738e+003;2.750102e-002
3.895667e+003;2.761675e-002
3.897595e+003;2.730769e-002
3.899524e+003;2.696338e-002
3.901453e+003;2.693355e-002
3.903381e+003;2.721212e-002
3.905310e+003;2.758402e-002
3.907238e+003;2.763299e-002
3.909167e+003;2.784625e-002
3.911095e+003;2.799967e-002
3.913024e+003;2.788974e-002
3.914952e+003;2.787674e-002
3.916881e+003;2.795624e-002
3.918810e+003;2.813904e-002
3.920738e+003;2.809468e-002
3.922667e+003;2.787925e-002
3.924595e+003;2.824366e-002
3.926524e+003;2.852869e-002
3.928452e+003;2.869184e-002
3.930381e+003;2.925587e-002
3.932309e+003;2.976002e-002
3.934238e+003;2.960594e-002
3.936167e+003;2.929479e-002
3.938095e+003;2.930702e-002
3.940023e+003;2.968278e-002
3.941952e+003;2.964964e-002
3.943881e+003;2.968664e-002
3.945809e+003;2.989325e-002
3.947738e+003;2.996282e-002
3.949666e+003;3.062517e-002
3.951595e+003;3.079191e-002
3.953523e+003;3.041388e-002
3.955452e+003;3.043737e-002
3.957380e+003;3.048094e-002
3.959309e+003;3.035283e-002
3.961238e+003;3.041075e-002
3.963166e+003;3.075517e-002
3.965095e+003;3.150323e-002
3.967023e+003;3.237175e-002
3.968952e+003;3.271702e-002
3.970880e+003;3.245233e-002
3.972809e+003;3.245069e-002
3.974737e+003;3.260210e-002
3.976666e+003;3.224379e-002
3.978594e+003;3.228666e-002
3.980523e+003;3.237657e-002
3.982452e+003;3.210884e-002
3.984380e+003;3.225739e-002
3.986309e+003;3.273363e-002
3.988237e+003;3.280120e-002
3.990166e+003;3.257171e-002
3.992094e+003;3.250868e-002
3.994023e+003;3.231232e-002
3.995951e+003;3.215626e-002
3.997880e+003;3.216903e-002
3.999809e+003;3.242048e-002
4.001737e+003;0.000000e+000
