3.992094e+002;0.000000e+000
4.011380e+002;0.000000e+000
4.030665e+002;0.000000e+000
4.049951e+002;0.000000e+000
4.069236e+002;0.000000e+000
4.088522e+002;0.000000e+000
4.107807e+002;0.000000e+000
4.127093e+002;0.000000e+000
4.146378e+002;0.000000e+000
4.165664e+002;0.000000e+000
4.184949e+002;0.000000e+000
4.204235e+002;0.000000e+000
4.223520e+002;0.000000e+000
4.242806e+002;0.000000e+000
4.262091e+002;0.000000e+000
4.281377e+002;0.000000e+000
4.300662e+002;0.000000e+000
4.319948e+002;0.000000e+000
4.339233e+002;0.000000e+000
4.358519e+002;0.000000e+000
4.377804e+002;0.000000e+000
4.397090e+002;0.000000e+000
4.416375e+002;0.000000e+000
4.435660e+002;0.000000e+000
4.454946e+002;0.000000e+000
4.474232e+002;0.000000e+000
4.493517e+002;0.000000e+000
4.512802e+002;0.000000e+000
4.532088e+002;0.000000e+000
4.551373e+002;0.000000e+000
4.570659e+002;0.000000e+000
4.589944e+002;0.000000e+000
4.609230e+002;0.000000e+000
4.628515e+002;0.000000e+000
4.647801e+002;0.000000e+000
4.667086e+002;0.000000e+000
4.686372e+002;0.000000e+000
4.705657e+002;0.000000e+000
4.724943e+002;0.000000e+000
4.744228e+002;0.000000e+000
4.763513e+002;0.000000e+000
4.782799e+002;0.000000e+000
4.802085e+002;0.000000e+000
4.821370e+002;0.000000e+000
4.840656e+002;0.000000e+000
4.859941e+002;0.000000e+000
4.879226e+002;0.000000e+000
4.898512e+002;0.000000e+000
4.917798e+002;0.000000e+000
4.937083e+002;0.000000e+000
4.956368e+002;0.000000e+000
4.975654e+002;0.000000e+000
4.994939e+002;0.000000e+000
5.014225e+002;0.000000e+000
5.033510e+002;0.000000e+000
5.052796e+002;0.000000e+000
5.072081e+002;0.000000e+000
5.091367e+002;0.000000e+000
5.110652e+002;0.000000e+000
5.129938e+002;0.000000e+000
5.149223e+002;0.000000e+000
5.168509e+002;0.000000e+000
5.187794e+002;0.000000e+000
5.207079e+002;0.000000e+000
5.226365e+002;0.000000e+000
5.245651e+002;0.000000e+000
5.264936e+002;0.000000e+000
5.284222e+002;0.000000e+000
5.303507e+002;0.000000e+000
5.322792e+002;0.000000e+000
5.342078e+002;0.000000e+000
5.361364e+002;0.000000e+000
5.380649e+002;0.000000e+000
5.399935e+002;0.000000e+000
5.419220e+002;0.000000e+000
5.438505e+002;0.000000e+000
5.457791e+002;0.000000e+000
5.477076e+002;0.000000e+000
5.496362e+002;0.000000e+000
5.515648e+002;0.000000e+000
5.534933e+002;0.000000e+000
5.554218e+002;0.000000e+000
5.573504e+002;0.000000e+000
5.592789e+002;0.000000e+000
5.612075e+002;0.000000e+000
5.631360e+002;0.000000e+000
5.650646e+002;0.000000e+000
5.669931e+002;0.000000e+000
5.689217e+002;0.000000e+000
5.708502e+002;0.000000e+000
5.727787e+002;0.000000e+000
5.747073e+002;0.000000e+000
5.766359e+002;0.000000e+000
5.785644e+002;0.000000e+000
5.804930e+002;0.000000e+000
5.824215e+002;0.000000e+000
5.843500e+002;0.000000e+000
5.862786e+002;0.000000e+000
5.882072e+002;0.000000e+000
5.901357e+002;0.000000e+000
5.920643e+002;0.000000e+000
5.939928e+002;0.000000e+000
5.959213e+002;0.000000e+000
5.978499e+002;0.000000e+000
5.997784e+002;1.786025e-001
6.017070e+002;1.827438e-001
6.036355e+002;1.802943e-001
6.055641e+002;1.774639e-001
6.074926e+002;1.740482e-001
6.094211e+002;1.645232e-001
6.113497e+002;1.566369e-001
6.132783e+002;1.535972e-001
6.152068e+002;1.521622e-001
6.171354e+002;1.487241e-001
6.190639e+002;1.442154e-001
6.209924e+002;1.440005e-001
6.229210e+002;1.412814e-001
6.248495e+002;1.331868e-001
6.267781e+002;1.302365e-001
6.287067e+002;1.302813e-001
6.306352e+002;1.263933e-001
6.325637e+002;1.231187e-001
6.344923e+002;1.215818e-001
6.364208e+002;1.186728e-001
6.383494e+002;1.176117e-001
6.402780e+002;1.203350e-001
6.422065e+002;1.202966e-001
6.441350e+002;1.162189e-001
6.460636e+002;1.155039e-001
6.479921e+002;1.143095e-001
6.499207e+002;1.103846e-001
6.518492e+002;1.060999e-001
6.537778e+002;1.062114e-001
6.557063e+002;1.091840e-001
6.576349e+002;1.083272e-001
6.595634e+002;1.047920e-001
6.614919e+002;1.025947e-001
6.634205e+002;1.009328e-001
6.653491e+002;9.977514e-002
6.672776e+002;9.849215e-002
6.692062e+002;9.941949e-002
6.711347e+002;1.006531e-001
6.730632e+002;9.951294e-002
6.749918e+002;9.891452e-002
6.769203e+002;9.932094e-002
6.788489e+002;9.893641e-002
6.807775e+002;9.793000e-002
6.827060e+002;9.874641e-002
6.846345e+002;9.967918e-002
6.865631e+002;9.927900e-002
6.884916e+002;9.782394e-002
6.904202e+002;9.725893e-002
6.923488e+002;9.738923e-002
6.942773e+002;9.624581e-002
6.962058e+002;9.483289e-002
6.981344e+002;9.410892e-002
7.000629e+002;9.302402e-002
7.019915e+002;9.021708e-002
7.039200e+002;8.863181e-002
7.058486e+002;8.782119e-002
7.077771e+002;8.634219e-002
7.097057e+002;8.521048e-002
7.116342e+002;8.425815e-002
7.135627e+002;8.342546e-002
7.154913e+002;8.355401e-002
7.174199e+002;8.274042e-002
7.193484e+002;8.127263e-002
7.212770e+002;8.050262e-002
7.232055e+002;7.965652e-002
7.251340e+002;7.882540e-002
7.270626e+002;7.801094e-002
7.289911e+002;7.690497e-002
7.309197e+002;7.422068e-002
7.328483e+002;7.100189e-002
7.347768e+002;6.822351e-002
7.367053e+002;6.600528e-002
7.386339e+002;6.420486e-002
7.405624e+002;6.327331e-002
7.424910e+002;6.246521e-002
7.444196e+002;6.189429e-002
7.463481e+002;6.152832e-002
7.482766e+002;6.043219e-002
7.502052e+002;5.947528e-002
7.521337e+002;5.894817e-002
7.540623e+002;5.882045e-002
7.559908e+002;5.917244e-002
7.579194e+002;5.919800e-002
7.598479e+002;5.870774e-002
7.617765e+002;5.800679e-002
7.637050e+002;5.773445e-002
7.656335e+002;5.807398e-002
7.675621e+002;5.830742e-002
7.694907e+002;5.810019e-002
7.714192e+002;5.752616e-002
7.733478e+002;5.716404e-002
7.752763e+002;5.684207e-002
7.772048e+002;5.711590e-002
7.791334e+002;5.732599e-002
7.810620e+002;5.758336e-002
7.829905e+002;5.825907e-002
7.849191e+002;5.858452e-002
7.868476e+002;5.880003e-002
7.887761e+002;5.912578e-002
7.907047e+002;5.958131e-002
7.926332e+002;5.980713e-002
7.945618e+002;5.993617e-002
7.964903e+002;6.083642e-002
7.984189e+002;6.176027e-002
8.003474e+002;6.277733e-002
8.022759e+002;6.374419e-002
8.042045e+002;6.444582e-002
8.061331e+002;6.537928e-002
8.080616e+002;6.663702e-002
8.099902e+002;6.768815e-002
8.119187e+002;6.949323e-002
8.138472e+002;7.131122e-002
8.157758e+002;7.247301e-002
8.177043e+002;7.343733e-002
8.196329e+002;7.588886e-002
8.215615e+002;7.869706e-002
8.234900e+002;8.098435e-002
8.254185e+002;8.507850e-002
8.273471e+002;8.979733e-002
8.292756e+002;9.463309e-002
8.312042e+002;9.952415e-002
8.331328e+002;1.039003e-001
8.350613e+002;1.078541e-001
8.369898e+002;1.107794e-001
8.389184e+002;1.125639e-001
8.408469e+002;1.130327e-001
8.427755e+002;1.113629e-001
8.447040e+002;1.090370e-001
8.466326e+002;1.066372e-001
8.485611e+002;1.032605e-001
8.504897e+002;1.005234e-001
8.524182e+002;9.838757e-002
8.543467e+002;9.659059e-002
8.562753e+002;9.653365e-002
8.582039e+002;9.780195e-002
8.601324e+002;9.982026e-002
8.620610e+002;1.026609e-001
8.639895e+002;1.065076e-001
8.659180e+002;1.110997e-001
8.678466e+002;1.163194e-001
8.697751e+002;1.224349e-001
8.717037e+002;1.290598e-001
8.736323e+002;1.347073e-001
8.755608e+002;1.388284e-001
8.774893e+002;1.420468e-001
8.794179e+002;1.455508e-001
8.813464e+002;1.493374e-001
8.832750e+002;1.526952e-001
8.852036e+002;1.558778e-001
8.871321e+002;1.601625e-001
8.890606e+002;1.656741e-001
8.909892e+002;1.719943e-001
8.929177e+002;1.784726e-001
8.948463e+002;1.847041e-001
8.967748e+002;1.894581e-001
8.987034e+002;1.914286e-001
9.006319e+002;1.908257e-001
9.025605e+002;1.882951e-001
9.044890e+002;1.842178e-001
9.064175e+002;1.788094e-001
9.083461e+002;1.721917e-001
9.102747e+002;1.656609e-001
9.122032e+002;1.601960e-001
9.141318e+002;1.553071e-001
9.160603e+002;1.513473e-001
9.179888e+002;1.483206e-001
9.199174e+002;1.453651e-001
9.218459e+002;1.425066e-001
9.237745e+002;1.401146e-001
9.257031e+002;1.379959e-001
9.276316e+002;1.368309e-001
9.295601e+002;1.366501e-001
9.314887e+002;1.363634e-001
9.334172e+002;1.357506e-001
9.353458e+002;1.359837e-001
9.372744e+002;1.370269e-001
9.392029e+002;1.382787e-001
9.411314e+002;1.397745e-001
9.430600e+002;1.418862e-001
9.449885e+002;1.442046e-001
9.469171e+002;1.460541e-001
9.488456e+002;1.479351e-001
9.507742e+002;1.498744e-001
9.527027e+002;1.515103e-001
9.546313e+002;1.533909e-001
9.565598e+002;1.554845e-001
9.584883e+002;1.572679e-001
9.604169e+002;1.592928e-001
9.623455e+002;1.620281e-001
9.642740e+002;1.654428e-001
9.662026e+002;1.698541e-001
9.681311e+002;1.752480e-001
9.700596e+002;1.821719e-001
9.719882e+002;1.899629e-001
9.739167e+002;1.974424e-001
9.758453e+002;2.046558e-001
9.777739e+002;2.116424e-001
9.797024e+002;2.186637e-001
9.816309e+002;2.256356e-001
9.835595e+002;2.320717e-001
9.854880e+002;2.376265e-001
9.874166e+002;2.429364e-001
9.893452e+002;2.480656e-001
9.912737e+002;2.523845e-001
9.932022e+002;2.570442e-001
9.951307e+002;2.618700e-001
9.970593e+002;2.671729e-001
9.989879e+002;2.744980e-001
1.000916e+003;2.834320e-001
1.002845e+003;2.932284e-001
1.004773e+003;3.046472e-001
1.006702e+003;3.171834e-001
1.008631e+003;3.306205e-001
1.010559e+003;3.457017e-001
1.012488e+003;3.616409e-001
1.014416e+003;3.778041e-001
1.016345e+003;3.947283e-001
1.018273e+003;4.126213e-001
1.020202e+003;4.308492e-001
1.022130e+003;4.486672e-001
1.024059e+003;4.655932e-001
1.025988e+003;4.822253e-001
1.027916e+003;4.966180e-001
1.029845e+003;5.079523e-001
1.031773e+003;5.151191e-001
1.033702e+003;5.177861e-001
1.035630e+003;5.171998e-001
1.037559e+003;5.135891e-001
1.039487e+003;5.075282e-001
1.041416e+003;5.011670e-001
1.043344e+003;4.934159e-001
1.045273e+003;4.828362e-001
1.047202e+003;4.702797e-001
1.049130e+003;4.565181e-001
1.051059e+003;4.413533e-001
1.052987e+003;4.261684e-001
1.054916e+003;4.107657e-001
1.056844e+003;3.952874e-001
1.058773e+003;3.814113e-001
1.060701e+003;3.686129e-001
1.062630e+003;3.572034e-001
1.064558e+003;3.479639e-001
1.066487e+003;3.392823e-001
1.068416e+003;3.311103e-001
1.070344e+003;3.221774e-001
1.072273e+003;3.133132e-001
1.074201e+003;3.054011e-001
1.076130e+003;2.970198e-001
1.078058e+003;2.879660e-001
1.079987e+003;2.789146e-001
1.081915e+003;2.699493e-001
1.083844e+003;2.612869e-001
1.085773e+003;2.525404e-001
1.087701e+003;2.443373e-001
1.089630e+003;2.371248e-001
1.091558e+003;2.296459e-001
1.093487e+003;2.218807e-001
1.095415e+003;2.148179e-001
1.097344e+003;2.087099e-001
1.099272e+003;2.035559e-001
1.101201e+003;1.992538e-001
1.103129e+003;1.961558e-001
1.105058e+003;1.938075e-001
1.106987e+003;1.918631e-001
1.108915e+003;1.903382e-001
1.110844e+003;1.894965e-001
1.112772e+003;1.891836e-001
1.114701e+003;1.885716e-001
1.116629e+003;1.874321e-001
1.118558e+003;1.856962e-001
1.120486e+003;1.839792e-001
1.122415e+003;1.827609e-001
1.124344e+003;1.813079e-001
1.126272e+003;1.790914e-001
1.128201e+003;1.761373e-001
1.130129e+003;1.734267e-001
1.132058e+003;1.709034e-001
1.133986e+003;1.682244e-001
1.135915e+003;1.658689e-001
1.137843e+003;1.644975e-001
1.139772e+003;1.639853e-001
1.141700e+003;1.640386e-001
1.143629e+003;1.640856e-001
1.145557e+003;1.646651e-001
1.147486e+003;1.660878e-001
1.149415e+003;1.683061e-001
1.151343e+003;1.707566e-001
1.153272e+003;1.728876e-001
1.155200e+003;1.746581e-001
1.157129e+003;1.765384e-001
1.159057e+003;1.779952e-001
1.160986e+003;1.788841e-001
1.162914e+003;1.796180e-001
1.164843e+003;1.794088e-001
1.166771e+003;1.781660e-001
1.168700e+003;1.767258e-001
1.170629e+003;1.753832e-001
1.172557e+003;1.736481e-001
1.174486e+003;1.718109e-001
1.176414e+003;1.698330e-001
1.178343e+003;1.682473e-001
1.180271e+003;1.678831e-001
1.182200e+003;1.688017e-001
1.184128e+003;1.708620e-001
1.186057e+003;1.749230e-001
1.187986e+003;1.816888e-001
1.189914e+003;1.910461e-001
1.191843e+003;2.038141e-001
1.193771e+003;2.204657e-001
1.195700e+003;2.414537e-001
1.197628e+003;2.661247e-001
1.199557e+003;2.939650e-001
1.201485e+003;3.242554e-001
1.203414e+003;3.559414e-001
1.205343e+003;3.867362e-001
1.207271e+003;4.138283e-001
1.209200e+003;4.362769e-001
1.211128e+003;4.528611e-001
1.213057e+003;4.644392e-001
1.214985e+003;4.716717e-001
1.216914e+003;4.744394e-001
1.218842e+003;4.744323e-001
1.220771e+003;4.734290e-001
1.222699e+003;4.715136e-001
1.224628e+003;4.686721e-001
1.226557e+003;4.642296e-001
1.228485e+003;4.569354e-001
1.230414e+003;4.467087e-001
1.232342e+003;4.337252e-001
1.234271e+003;4.190140e-001
1.236199e+003;4.025328e-001
1.238128e+003;3.851722e-001
1.240056e+003;3.671332e-001
1.241985e+003;3.486008e-001
1.243913e+003;3.301754e-001
1.245842e+003;3.120590e-001
1.247771e+003;2.948472e-001
1.249699e+003;2.786217e-001
1.251628e+003;2.634349e-001
1.253556e+003;2.489603e-001
1.255485e+003;2.352387e-001
1.257413e+003;2.222747e-001
1.259342e+003;2.099311e-001
1.261270e+003;1.984609e-001
1.263199e+003;1.877611e-001
1.265127e+003;1.781580e-001
1.267056e+003;1.693340e-001
1.268985e+003;1.611579e-001
1.270913e+003;1.535475e-001
1.272842e+003;1.464504e-001
1.274770e+003;1.401824e-001
1.276699e+003;1.341647e-001
1.278627e+003;1.285524e-001
1.280556e+003;1.236672e-001
1.282484e+003;1.193633e-001
1.284413e+003;1.156869e-001
1.286342e+003;1.122732e-001
1.288270e+003;1.090604e-001
1.290199e+003;1.062834e-001
1.292127e+003;1.040156e-001
1.294056e+003;1.017112e-001
1.295984e+003;9.956569e-002
1.297913e+003;9.783560e-002
1.299841e+003;9.622786e-002
1.301770e+003;9.481937e-002
1.303698e+003;9.392703e-002
1.305627e+003;9.320203e-002
1.307556e+003;9.263480e-002
1.309484e+003;9.219664e-002
1.311413e+003;9.200650e-002
1.313341e+003;9.209222e-002
1.315270e+003;9.221528e-002
1.317198e+003;9.226253e-002
1.319127e+003;9.207474e-002
1.321055e+003;9.181976e-002
1.322984e+003;9.158473e-002
1.324912e+003;9.124676e-002
1.326841e+003;9.092478e-002
1.328770e+003;9.049296e-002
1.330698e+003;8.986562e-002
1.332627e+003;8.955847e-002
1.334555e+003;8.928727e-002
1.336484e+003;8.903331e-002
1.338412e+003;8.878609e-002
1.340341e+003;8.885378e-002
1.342269e+003;8.944158e-002
1.344198e+003;9.060688e-002
1.346126e+003;9.241397e-002
1.348055e+003;9.559852e-002
1.349984e+003;1.006983e-001
1.351912e+003;1.085617e-001
1.353841e+003;1.197994e-001
1.355769e+003;1.345865e-001
1.357698e+003;1.527825e-001
1.359626e+003;1.724765e-001
1.361555e+003;1.910386e-001
1.363483e+003;2.055283e-001
1.365412e+003;2.136126e-001
1.367341e+003;2.152145e-001
1.369269e+003;2.117965e-001
1.371198e+003;2.048225e-001
1.373126e+003;1.960811e-001
1.375055e+003;1.866581e-001
1.376983e+003;1.766621e-001
1.378912e+003;1.664960e-001
1.380840e+003;1.562427e-001
1.382769e+003;1.456625e-001
1.384698e+003;1.350516e-001
1.386626e+003;1.251167e-001
1.388555e+003;1.165506e-001
1.390483e+003;1.091912e-001
1.392412e+003;1.027564e-001
1.394340e+003;9.755906e-002
1.396269e+003;9.395286e-002
1.398197e+003;9.140066e-002
1.400126e+003;8.943669e-002
1.402054e+003;8.845459e-002
1.403983e+003;8.838823e-002
1.405911e+003;8.841629e-002
1.407840e+003;8.856208e-002
1.409769e+003;8.906674e-002
1.411697e+003;8.988169e-002
1.413626e+003;9.083769e-002
1.415554e+003;9.215003e-002
1.417483e+003;9.357273e-002
1.419411e+003;9.534093e-002
1.421340e+003;9.787321e-002
1.423268e+003;1.006453e-001
1.425197e+003;1.033600e-001
1.427125e+003;1.054333e-001
1.429054e+003;1.066221e-001
1.430983e+003;1.072763e-001
1.432911e+003;1.071510e-001
1.434840e+003;1.058056e-001
1.436768e+003;1.038287e-001
1.438697e+003;1.017223e-001
1.440625e+003;9.926726e-002
1.442554e+003;9.687601e-002
1.444482e+003;9.443592e-002
1.446411e+003;9.164484e-002
1.448340e+003;8.909489e-002
1.450268e+003;8.701129e-002
1.452197e+003;8.499718e-002
1.454125e+003;8.271600e-002
1.456054e+003;7.986040e-002
1.457982e+003;7.768245e-002
1.459911e+003;7.609533e-002
1.461839e+003;7.423589e-002
1.463768e+003;7.187370e-002
1.465697e+003;6.935392e-002
1.467625e+003;6.737101e-002
1.469554e+003;6.545759e-002
1.471482e+003;6.350634e-002
1.473411e+003;6.207502e-002
1.475339e+003;6.102677e-002
1.477268e+003;5.996736e-002
1.479196e+003;5.913348e-002
1.481125e+003;5.833584e-002
1.483053e+003;5.762256e-002
1.484982e+003;5.690760e-002
1.486911e+003;5.613753e-002
1.488839e+003;5.526874e-002
1.490768e+003;5.479012e-002
1.492696e+003;5.462517e-002
1.494625e+003;5.420806e-002
1.496553e+003;5.365138e-002
1.498482e+003;5.359522e-002
1.500410e+003;5.373109e-002
1.502339e+003;5.352014e-002
1.504267e+003;5.267883e-002
1.506196e+003;5.180461e-002
1.508125e+003;5.217226e-002
1.510053e+003;5.261307e-002
1.511982e+003;5.261206e-002
1.513910e+003;5.273356e-002
1.515839e+003;5.262556e-002
1.517767e+003;5.238697e-002
1.519696e+003;5.193014e-002
1.521624e+003;5.168946e-002
1.523553e+003;5.208028e-002
1.525481e+003;5.249565e-002
1.527410e+003;5.279787e-002
1.529339e+003;5.284929e-002
1.531267e+003;5.263162e-002
1.533196e+003;5.239302e-002
1.535124e+003;5.249827e-002
1.537053e+003;5.176321e-002
1.538981e+003;5.024459e-002
1.540910e+003;5.007355e-002
1.542838e+003;5.091303e-002
1.544767e+003;5.152572e-002
1.546695e+003;5.217417e-002
1.548624e+003;5.251846e-002
1.550553e+003;5.259819e-002
1.552481e+003;5.243444e-002
1.554410e+003;5.216247e-002
1.556338e+003;5.177161e-002
1.558267e+003;5.092213e-002
1.560195e+003;5.107855e-002
1.562124e+003;5.197842e-002
1.564052e+003;5.238356e-002
1.565981e+003;5.245112e-002
1.567910e+003;5.198227e-002
1.569838e+003;5.177893e-002
1.571767e+003;5.240080e-002
1.573695e+003;5.252874e-002
1.575624e+003;5.179259e-002
1.577552e+003;5.194713e-002
1.579481e+003;5.259669e-002
1.581409e+003;5.306564e-002
1.583338e+003;5.339962e-002
1.585266e+003;5.334249e-002
1.587195e+003;5.349668e-002
1.589124e+003;5.404742e-002
1.591052e+003;5.460710e-002
1.592981e+003;5.498833e-002
1.594909e+003;5.534439e-002
1.596838e+003;5.601051e-002
1.598766e+003;5.684079e-002
1.600695e+003;5.736331e-002
1.602623e+003;5.787136e-002
1.604552e+003;5.873752e-002
1.606480e+003;5.942008e-002
1.608409e+003;5.975518e-002
1.610338e+003;5.996979e-002
1.612266e+003;6.050006e-002
1.614195e+003;6.092253e-002
1.616123e+003;6.105732e-002
1.618052e+003;6.195119e-002
1.619980e+003;6.289642e-002
1.621909e+003;6.316956e-002
1.623837e+003;6.343275e-002
1.625766e+003;6.415220e-002
1.627694e+003;6.489424e-002
1.629623e+003;6.562200e-002
1.631552e+003;6.649366e-002
1.633480e+003;6.684455e-002
1.635409e+003;6.678554e-002
1.637337e+003;6.757699e-002
1.639266e+003;6.863455e-002
1.641194e+003;6.916311e-002
1.643123e+003;6.955482e-002
1.645051e+003;6.966065e-002
1.646980e+003;6.996050e-002
1.648909e+003;7.072393e-002
1.650837e+003;7.043090e-002
1.652766e+003;6.958710e-002
1.654694e+003;7.049564e-002
1.656623e+003;7.152763e-002
1.658551e+003;7.170323e-002
1.660480e+003;7.185075e-002
1.662408e+003;7.240998e-002
1.664337e+003;7.311514e-002
1.666266e+003;7.366893e-002
1.668194e+003;7.398249e-002
1.670123e+003;7.457536e-002
1.672051e+003;7.574502e-002
1.673980e+003;7.678124e-002
1.675908e+003;7.789426e-002
1.677837e+003;7.954388e-002
1.679765e+003;8.131846e-002
1.681694e+003;8.299606e-002
1.683622e+003;8.417702e-002
1.685551e+003;8.661909e-002
1.687479e+003;9.016028e-002
1.689408e+003;9.341000e-002
1.691337e+003;9.690144e-002
1.693265e+003;1.005396e-001
1.695194e+003;1.040612e-001
1.697122e+003;1.087718e-001
1.699051e+003;1.139161e-001
1.700979e+003;1.199775e-001
1.702908e+003;1.273510e-001
1.704836e+003;1.346749e-001
1.706765e+003;1.428594e-001
1.708693e+003;1.524199e-001
1.710622e+003;1.631005e-001
1.712551e+003;1.746153e-001
1.714479e+003;1.869635e-001
1.716408e+003;2.003442e-001
1.718336e+003;2.154491e-001
1.720265e+003;2.317606e-001
1.722193e+003;2.480602e-001
1.724122e+003;2.646315e-001
1.726050e+003;2.809482e-001
1.727979e+003;2.962967e-001
1.729908e+003;3.100113e-001
1.731836e+003;3.214251e-001
1.733765e+003;3.297624e-001
1.735693e+003;3.356263e-001
1.737622e+003;3.381914e-001
1.739550e+003;3.368695e-001
1.741479e+003;3.325102e-001
1.743407e+003;3.258797e-001
1.745336e+003;3.176268e-001
1.747265e+003;3.074495e-001
1.749193e+003;2.956263e-001
1.751122e+003;2.822300e-001
1.753050e+003;2.676777e-001
1.754979e+003;2.519616e-001
1.756907e+003;2.340881e-001
1.758836e+003;2.149489e-001
1.760764e+003;1.948813e-001
1.762693e+003;1.749523e-001
1.764621e+003;1.565191e-001
1.766550e+003;1.394580e-001
1.768479e+003;1.243651e-001
1.770407e+003;1.118947e-001
1.772336e+003;1.016340e-001
1.774264e+003;9.367862e-002
1.776193e+003;8.730408e-002
1.778121e+003;8.225270e-002
1.780050e+003;7.788811e-002
1.781978e+003;7.412855e-002
1.783907e+003;7.103782e-002
1.785835e+003;6.842078e-002
1.787764e+003;6.633393e-002
1.789693e+003;6.431723e-002
1.791621e+003;6.236915e-002
1.793550e+003;6.119337e-002
1.795478e+003;6.042282e-002
1.797407e+003;5.944679e-002
1.799335e+003;5.838890e-002
1.801264e+003;5.765233e-002
1.803192e+003;5.703314e-002
1.805121e+003;5.624266e-002
1.807049e+003;5.550788e-002
1.808978e+003;5.468067e-002
1.810907e+003;5.398728e-002
1.812835e+003;5.339580e-002
1.814764e+003;5.288143e-002
1.816692e+003;5.236132e-002
1.818621e+003;5.189056e-002
1.820549e+003;5.133284e-002
1.822478e+003;5.076002e-002
1.824406e+003;5.004321e-002
1.826335e+003;4.941246e-002
1.828264e+003;4.886963e-002
1.830192e+003;4.843223e-002
1.832121e+003;4.818322e-002
1.834049e+003;4.774381e-002
1.835978e+003;4.711852e-002
1.837906e+003;4.675568e-002
1.839835e+003;4.659622e-002
1.841763e+003;4.620580e-002
1.843692e+003;4.567036e-002
1.845620e+003;4.537949e-002
1.847549e+003;4.514101e-002
1.849478e+003;4.493401e-002
1.851406e+003;4.470775e-002
1.853335e+003;4.459707e-002
1.855263e+003;4.457239e-002
1.857192e+003;4.415159e-002
1.859120e+003;4.381283e-002
1.861049e+003;4.363317e-002
1.862977e+003;4.347457e-002
1.864906e+003;4.322956e-002
1.866834e+003;4.280862e-002
1.868763e+003;4.251081e-002
1.870692e+003;4.247022e-002
1.872620e+003;4.260473e-002
1.874549e+003;4.246810e-002
1.876477e+003;4.213500e-002
1.878406e+003;4.185309e-002
1.880334e+003;4.161447e-002
1.882263e+003;4.145864e-002
1.884191e+003;4.124621e-002
1.886120e+003;4.101141e-002
1.888048e+003;4.060738e-002
1.889977e+003;4.030723e-002
1.891906e+003;4.051498e-002
1.893834e+003;4.081084e-002
1.895763e+003;4.090909e-002
1.897691e+003;4.082052e-002
1.899620e+003;4.060502e-002
1.901548e+003;4.051629e-002
1.903477e+003;4.054165e-002
1.905405e+003;4.069911e-002
1.907334e+003;4.094739e-002
1.909262e+003;4.107638e-002
1.911191e+003;4.116569e-002
1.913120e+003;4.105838e-002
1.915048e+003;4.121148e-002
1.916977e+003;4.144949e-002
1.918905e+003;4.166734e-002
1.920834e+003;4.184112e-002
1.922762e+003;4.172107e-002
1.924691e+003;4.165994e-002
1.926619e+003;4.159394e-002
1.928548e+003;4.151934e-002
1.930477e+003;4.142598e-002
1.932405e+003;4.151850e-002
1.934334e+003;4.160874e-002
1.936262e+003;4.161855e-002
1.938191e+003;4.150253e-002
1.940119e+003;4.162442e-002
1.942048e+003;4.184393e-002
1.943976e+003;4.190706e-002
1.945905e+003;4.169502e-002
1.947833e+003;4.139346e-002
1.949762e+003;4.120431e-002
1.951691e+003;4.124518e-002
1.953619e+003;4.138034e-002
1.955548e+003;4.139357e-002
1.957476e+003;4.113407e-002
1.959405e+003;4.090895e-002
1.961333e+003;4.084575e-002
1.963262e+003;4.076589e-002
1.965190e+003;4.053266e-002
1.967119e+003;4.027022e-002
1.969047e+003;4.010121e-002
1.970976e+003;3.995054e-002
1.972905e+003;3.982465e-002
1.974833e+003;3.949390e-002
1.976762e+003;3.922646e-002
1.978690e+003;3.918407e-002
1.980619e+003;3.908556e-002
1.982547e+003;3.861447e-002
1.984476e+003;3.832926e-002
1.986404e+003;3.820832e-002
1.988333e+003;3.806952e-002
1.990261e+003;3.789062e-002
1.992190e+003;3.759498e-002
1.994119e+003;3.757197e-002
1.996047e+003;3.789963e-002
1.997976e+003;3.809477e-002
1.999904e+003;3.813127e-002
2.001833e+003;3.806438e-002
2.003761e+003;3.817435e-002
2.005690e+003;3.846391e-002
2.007618e+003;3.859567e-002
2.009547e+003;3.856243e-002
2.011476e+003;3.863826e-002
2.013404e+003;3.886537e-002
2.015333e+003;3.908284e-002
2.017261e+003;3.930324e-002
2.019190e+003;3.940228e-002
2.021118e+003;3.946393e-002
2.023047e+003;3.950889e-002
2.024975e+003;3.971909e-002
2.026904e+003;3.988388e-002
2.028833e+003;3.989071e-002
2.030761e+003;4.004990e-002
2.032690e+003;4.027179e-002
2.034618e+003;4.038020e-002
2.036547e+003;4.025244e-002
2.038475e+003;4.007665e-002
2.040404e+003;4.017001e-002
2.042332e+003;4.036086e-002
2.044261e+003;4.055816e-002
2.046189e+003;4.049072e-002
2.048118e+003;4.016960e-002
2.050047e+003;4.039635e-002
2.051975e+003;4.073554e-002
2.053904e+003;4.089529e-002
2.055832e+003;4.111061e-002
2.057761e+003;4.103763e-002
2.059689e+003;4.103741e-002
2.061618e+003;4.111914e-002
2.063546e+003;4.090789e-002
2.065475e+003;4.082616e-002
2.067404e+003;4.101195e-002
2.069332e+003;4.125280e-002
2.071260e+003;4.149334e-002
2.073189e+003;4.162468e-002
2.075118e+003;4.174945e-002
2.077046e+003;4.185065e-002
2.078975e+003;4.197866e-002
2.080903e+003;4.214063e-002
2.082832e+003;4.220679e-002
2.084760e+003;4.245542e-002
2.086689e+003;4.294503e-002
2.088617e+003;4.321115e-002
2.090546e+003;4.338240e-002
2.092475e+003;4.367189e-002
2.094403e+003;4.399008e-002
2.096332e+003;4.434475e-002
2.098260e+003;4.462149e-002
2.100189e+003;4.479682e-002
2.102117e+003;4.495969e-002
2.104046e+003;4.508954e-002
2.105974e+003;4.510028e-002
2.107903e+003;4.534322e-002
2.109832e+003;4.558177e-002
2.111760e+003;4.561264e-002
2.113688e+003;4.558052e-002
2.115617e+003;4.581651e-002
2.117546e+003;4.593958e-002
2.119474e+003;4.583389e-002
2.121403e+003;4.582163e-002
2.123331e+003;4.582822e-002
2.125260e+003;4.562155e-002
2.127188e+003;4.546262e-002
2.129117e+003;4.546266e-002
2.131045e+003;4.552815e-002
2.132974e+003;4.540726e-002
2.134903e+003;4.513601e-002
2.136831e+003;4.479127e-002
2.138760e+003;4.464040e-002
2.140688e+003;4.447790e-002
2.142617e+003;4.426116e-002
2.144545e+003;4.410746e-002
2.146474e+003;4.376292e-002
2.148402e+003;4.343234e-002
2.150331e+003;4.322304e-002
2.152260e+003;4.286925e-002
2.154188e+003;4.265057e-002
2.156117e+003;4.244168e-002
2.158045e+003;4.219269e-002
2.159974e+003;4.186765e-002
2.161902e+003;4.164838e-002
2.163831e+003;4.122606e-002
2.165759e+003;4.080676e-002
2.167688e+003;4.055241e-002
2.169616e+003;4.043213e-002
2.171545e+003;4.015743e-002
2.173474e+003;3.992006e-002
2.175402e+003;3.988672e-002
2.177331e+003;3.973173e-002
2.179259e+003;3.945438e-002
2.181188e+003;3.902153e-002
2.183116e+003;3.879087e-002
2.185045e+003;3.860549e-002
2.186973e+003;3.846055e-002
2.188902e+003;3.837074e-002
2.190831e+003;3.807097e-002
2.192759e+003;3.776041e-002
2.194688e+003;3.767133e-002
2.196616e+003;3.753779e-002
2.198545e+003;3.734623e-002
2.200473e+003;3.727455e-002
2.202402e+003;3.733788e-002
2.204330e+003;3.736287e-002
2.206259e+003;3.727506e-002
2.208188e+003;3.719639e-002
2.210116e+003;3.711092e-002
2.212044e+003;3.717810e-002
2.213973e+003;3.707628e-002
2.215902e+003;3.702280e-002
2.217830e+003;3.705171e-002
2.219759e+003;3.694877e-002
2.221687e+003;3.683619e-002
2.223616e+003;3.668261e-002
2.225544e+003;3.659082e-002
2.227473e+003;3.658177e-002
2.229401e+003;3.655874e-002
2.231330e+003;3.647275e-002
2.233259e+003;3.635273e-002
2.235187e+003;3.633727e-002
2.237116e+003;3.638458e-002
2.239044e+003;3.665135e-002
2.240973e+003;3.684914e-002
2.242901e+003;3.685357e-002
2.244830e+003;3.688333e-002
2.246758e+003;3.678952e-002
2.248687e+003;3.656725e-002
2.250615e+003;3.654378e-002
2.252544e+003;3.661241e-002
2.254473e+003;3.654674e-002
2.256401e+003;3.639535e-002
2.258330e+003;3.634340e-002
2.260258e+003;3.639290e-002
2.262187e+003;3.662478e-002
2.264115e+003;3.669104e-002
2.266044e+003;3.657031e-002
2.267972e+003;3.640425e-002
2.269901e+003;3.643762e-002
2.271830e+003;3.637676e-002
2.273758e+003;3.616899e-002
2.275687e+003;3.591454e-002
2.277615e+003;3.579139e-002
2.279544e+003;3.587725e-002
2.281472e+003;3.561797e-002
2.283401e+003;3.522112e-002
2.285329e+003;3.512817e-002
2.287258e+003;3.511876e-002
2.289187e+003;3.491009e-002
2.291115e+003;3.474706e-002
2.293043e+003;3.453444e-002
2.294972e+003;3.419934e-002
2.296901e+003;3.388159e-002
2.298829e+003;3.362213e-002
2.300758e+003;3.359023e-002
2.302686e+003;3.376812e-002
2.304615e+003;3.369331e-002
2.306543e+003;3.347899e-002
2.308472e+003;3.347050e-002
2.310400e+003;3.335492e-002
2.312329e+003;3.313687e-002
2.314258e+003;3.307808e-002
2.316186e+003;3.305252e-002
2.318115e+003;3.294380e-002
2.320043e+003;3.313340e-002
2.321972e+003;3.322335e-002
2.323900e+003;3.315800e-002
2.325829e+003;3.308069e-002
2.327757e+003;3.304730e-002
2.329686e+003;3.287671e-002
2.331615e+003;3.293161e-002
2.333543e+003;3.302652e-002
2.335472e+003;3.324595e-002
2.337400e+003;3.379788e-002
2.339329e+003;3.416396e-002
2.341257e+003;3.426588e-002
2.343186e+003;3.424552e-002
2.345114e+003;3.434595e-002
2.347043e+003;3.451683e-002
2.348971e+003;3.466232e-002
2.350900e+003;3.488233e-002
2.352829e+003;3.508176e-002
2.354757e+003;3.508186e-002
2.356686e+003;3.477506e-002
2.358614e+003;3.448526e-002
2.360543e+003;3.448949e-002
2.362471e+003;3.471573e-002
2.364400e+003;3.475625e-002
2.366328e+003;3.478177e-002
2.368257e+003;3.488955e-002
2.370186e+003;3.476512e-002
2.372114e+003;3.457735e-002
2.374042e+003;3.448848e-002
2.375971e+003;3.463663e-002
2.377900e+003;3.465873e-002
2.379828e+003;3.453943e-002
2.381757e+003;3.449193e-002
2.383685e+003;3.466903e-002
2.385614e+003;3.503352e-002
2.387542e+003;3.544126e-002
2.389471e+003;3.544705e-002
2.391399e+003;3.534921e-002
2.393328e+003;3.553680e-002
2.395257e+003;3.566958e-002
2.397185e+003;3.575452e-002
2.399114e+003;3.590514e-002
2.401042e+003;3.620173e-002
2.402971e+003;3.665582e-002
2.404899e+003;3.693531e-002
2.406828e+003;3.711876e-002
2.408756e+003;3.736630e-002
2.410685e+003;3.749856e-002
2.412614e+003;3.755029e-002
2.414542e+003;3.774209e-002
2.416471e+003;3.779739e-002
2.418399e+003;3.745272e-002
2.420328e+003;3.713117e-002
2.422256e+003;3.724152e-002
2.424185e+003;3.758775e-002
2.426113e+003;3.770519e-002
2.428042e+003;3.771661e-002
2.429970e+003;3.770230e-002
2.431899e+003;3.765742e-002
2.433828e+003;3.782320e-002
2.435756e+003;3.788473e-002
2.437685e+003;3.775742e-002
2.439613e+003;3.777903e-002
2.441542e+003;3.763382e-002
2.443470e+003;3.757641e-002
2.445399e+003;3.791171e-002
2.447327e+003;3.816411e-002
2.449256e+003;3.808251e-002
2.451185e+003;3.779407e-002
2.453113e+003;3.773902e-002
2.455042e+003;3.787041e-002
2.456970e+003;3.769894e-002
2.458899e+003;3.751167e-002
2.460827e+003;3.763790e-002
2.462756e+003;3.775214e-002
2.464684e+003;3.760857e-002
2.466613e+003;3.776063e-002
2.468542e+003;3.784764e-002
2.470470e+003;3.746923e-002
2.472398e+003;3.730492e-002
2.474327e+003;3.739266e-002
2.476256e+003;3.734102e-002
2.478184e+003;3.742195e-002
2.480113e+003;3.744145e-002
2.482041e+003;3.732687e-002
2.483970e+003;3.724264e-002
2.485898e+003;3.712663e-002
2.487827e+003;3.703316e-002
2.489755e+003;3.677686e-002
2.491684e+003;3.658934e-002
2.493613e+003;3.668253e-002
2.495541e+003;3.651906e-002
2.497470e+003;3.626288e-002
2.499398e+003;3.591979e-002
2.501327e+003;3.582551e-002
2.503255e+003;3.581867e-002
2.505184e+003;3.572480e-002
2.507112e+003;3.547643e-002
2.509041e+003;3.511050e-002
2.510969e+003;3.515343e-002
2.512898e+003;3.518217e-002
2.514827e+003;3.511624e-002
2.516755e+003;3.510626e-002
2.518684e+003;3.505194e-002
2.520612e+003;3.501592e-002
2.522541e+003;3.485705e-002
2.524469e+003;3.490775e-002
2.526398e+003;3.473148e-002
2.528326e+003;3.439942e-002
2.530255e+003;3.444835e-002
2.532184e+003;3.462604e-002
2.534112e+003;3.477703e-002
2.536041e+003;3.468849e-002
2.537969e+003;3.440531e-002
2.539898e+003;3.442847e-002
2.541826e+003;3.464033e-002
2.543755e+003;3.453024e-002
2.545683e+003;3.417385e-002
2.547612e+003;3.420759e-002
2.549541e+003;3.431174e-002
2.551469e+003;3.445193e-002
2.553397e+003;3.452253e-002
2.555326e+003;3.453175e-002
2.557255e+003;3.487723e-002
2.559183e+003;3.517714e-002
2.561112e+003;3.520139e-002
2.563040e+003;3.516528e-002
2.564969e+003;3.512465e-002
2.566897e+003;3.533655e-002
2.568826e+003;3.584749e-002
2.570754e+003;3.603372e-002
2.572683e+003;3.602886e-002
2.574612e+003;3.613079e-002
2.576540e+003;3.642601e-002
2.578469e+003;3.674015e-002
2.580397e+003;3.698813e-002
2.582326e+003;3.710757e-002
2.584254e+003;3.708917e-002
2.586183e+003;3.714521e-002
2.588111e+003;3.740104e-002
2.590040e+003;3.766707e-002
2.591969e+003;3.777936e-002
2.593897e+003;3.791778e-002
2.595826e+003;3.799285e-002
2.597754e+003;3.774270e-002
2.599683e+003;3.779497e-002
2.601611e+003;3.802894e-002
2.603540e+003;3.793734e-002
2.605468e+003;3.798149e-002
2.607397e+003;3.814874e-002
2.609325e+003;3.843618e-002
2.611254e+003;3.865380e-002
2.613183e+003;3.871849e-002
2.615111e+003;3.878388e-002
2.617040e+003;3.887928e-002
2.618968e+003;3.897865e-002
2.620897e+003;3.890889e-002
2.622825e+003;3.889765e-002
2.624754e+003;3.910974e-002
2.626682e+003;3.919974e-002
2.628611e+003;3.931536e-002
2.630540e+003;3.949056e-002
2.632468e+003;3.978434e-002
2.634396e+003;3.998599e-002
2.636325e+003;4.006186e-002
2.638254e+003;4.012821e-002
2.640182e+003;4.004536e-002
2.642111e+003;3.998439e-002
2.644039e+003;4.010503e-002
2.645968e+003;4.009038e-002
2.647896e+003;4.013933e-002
2.649825e+003;4.022871e-002
2.651753e+003;4.046381e-002
2.653682e+003;4.060414e-002
2.655611e+003;4.017055e-002
2.657539e+003;3.964056e-002
2.659468e+003;3.953392e-002
2.661396e+003;3.981971e-002
2.663325e+003;3.989355e-002
2.665253e+003;3.994458e-002
2.667182e+003;3.995312e-002
2.669110e+003;3.978492e-002
2.671039e+003;3.955037e-002
2.672968e+003;3.952685e-002
2.674896e+003;3.976015e-002
2.676825e+003;3.997444e-002
2.678753e+003;3.999413e-002
2.680682e+003;3.985076e-002
2.682610e+003;3.980460e-002
2.684539e+003;4.002995e-002
2.686467e+003;4.018116e-002
2.688396e+003;4.019777e-002
2.690324e+003;4.024761e-002
2.692253e+003;4.014420e-002
2.694182e+003;4.003206e-002
2.696110e+003;4.034850e-002
2.698039e+003;4.058155e-002
2.699967e+003;4.058661e-002
2.701896e+003;4.075341e-002
2.703824e+003;4.092981e-002
2.705753e+003;4.120015e-002
2.707681e+003;4.158686e-002
2.709610e+003;4.191888e-002
2.711539e+003;4.218696e-002
2.713467e+003;4.239258e-002
2.715396e+003;4.272829e-002
2.717324e+003;4.324314e-002
2.719253e+003;4.364544e-002
2.721181e+003;4.370044e-002
2.723110e+003;4.367076e-002
2.725038e+003;4.376805e-002
2.726967e+003;4.382837e-002
2.728896e+003;4.376427e-002
2.730824e+003;4.367750e-002
2.732752e+003;4.364607e-002
2.734681e+003;4.365490e-002
2.736610e+003;4.362199e-002
2.738538e+003;4.363563e-002
2.740467e+003;4.367175e-002
2.742395e+003;4.368512e-002
2.744324e+003;4.378146e-002
2.746252e+003;4.390422e-002
2.748181e+003;4.380195e-002
2.750109e+003;4.351775e-002
2.752038e+003;4.332623e-002
2.753967e+003;4.357822e-002
2.755895e+003;4.389366e-002
2.757824e+003;4.370304e-002
2.759752e+003;4.358643e-002
2.761681e+003;4.358511e-002
2.763609e+003;4.360566e-002
2.765538e+003;4.361053e-002
2.767466e+003;4.363687e-002
2.769395e+003;4.379143e-002
2.771323e+003;4.397329e-002
2.773252e+003;4.391330e-002
2.775181e+003;4.391576e-002
2.777109e+003;4.418163e-002
2.779038e+003;4.433961e-002
2.780966e+003;4.462446e-002
2.782895e+003;4.499240e-002
2.784823e+003;4.515090e-002
2.786752e+003;4.516384e-002
2.788680e+003;4.526996e-002
2.790609e+003;4.556738e-002
2.792538e+003;4.600514e-002
2.794466e+003;4.634978e-002
2.796395e+003;4.639273e-002
2.798323e+003;4.641021e-002
2.800252e+003;4.662688e-002
2.802180e+003;4.668170e-002
2.804109e+003;4.671608e-002
2.806037e+003;4.701206e-002
2.807966e+003;4.749379e-002
2.809895e+003;4.752507e-002
2.811823e+003;4.755179e-002
2.813751e+003;4.792096e-002
2.815680e+003;4.808161e-002
2.817609e+003;4.799945e-002
2.819537e+003;4.786365e-002
2.821466e+003;4.818248e-002
2.823394e+003;4.873116e-002
2.825323e+003;4.913606e-002
2.827251e+003;4.943833e-002
2.829180e+003;4.959865e-002
2.831108e+003;4.989243e-002
2.833037e+003;5.046363e-002
2.834966e+003;5.100063e-002
2.836894e+003;5.152497e-002
2.838823e+003;5.207979e-002
2.840751e+003;5.247404e-002
2.842680e+003;5.280016e-002
2.844608e+003;5.319775e-002
2.846537e+003;5.341266e-002
2.848465e+003;5.338820e-002
2.850394e+003;5.345253e-002
2.852323e+003;5.423952e-002
2.854251e+003;5.556067e-002
2.856180e+003;5.699562e-002
2.858108e+003;5.845978e-002
2.860037e+003;5.983565e-002
2.861965e+003;6.137564e-002
2.863894e+003;6.247557e-002
2.865822e+003;6.314377e-002
2.867751e+003;6.391770e-002
2.869679e+003;6.466179e-002
2.871608e+003;6.501679e-002
2.873536e+003;6.545759e-002
2.875465e+003;6.611215e-002
2.877394e+003;6.646389e-002
2.879322e+003;6.657163e-002
2.881251e+003;6.670351e-002
2.883179e+003;6.725479e-002
2.885108e+003;6.741513e-002
2.887036e+003;6.721050e-002
2.888965e+003;6.697810e-002
2.890893e+003;6.652826e-002
2.892822e+003;6.626716e-002
2.894750e+003;6.604888e-002
2.896679e+003;6.576944e-002
2.898608e+003;6.564378e-002
2.900536e+003;6.540986e-002
2.902465e+003;6.487869e-002
2.904393e+003;6.452573e-002
2.906322e+003;6.437145e-002
2.908250e+003;6.381231e-002
2.910179e+003;6.284402e-002
2.912107e+003;6.197496e-002
2.914036e+003;6.134961e-002
2.915965e+003;6.066733e-002
2.917893e+003;5.989307e-002
2.919822e+003;5.928147e-002
2.921750e+003;5.899155e-002
2.923679e+003;5.932173e-002
2.925607e+003;5.983470e-002
2.927536e+003;6.065902e-002
2.929464e+003;6.161950e-002
2.931393e+003;6.230596e-002
2.933322e+003;6.360576e-002
2.935250e+003;6.507206e-002
2.937178e+003;6.616227e-002
2.939107e+003;6.717360e-002
2.941036e+003;6.771445e-002
2.942964e+003;6.767007e-002
2.944893e+003;6.793299e-002
2.946821e+003;6.838063e-002
2.948750e+003;6.856544e-002
2.950678e+003;6.827775e-002
2.952607e+003;6.760216e-002
2.954535e+003;6.715480e-002
2.956464e+003;6.694701e-002
2.958393e+003;6.667465e-002
2.960321e+003;6.642207e-002
2.962250e+003;6.627430e-002
2.964178e+003;6.581933e-002
2.966107e+003;6.538171e-002
2.968035e+003;6.481376e-002
2.969964e+003;6.411925e-002
2.971892e+003;6.347248e-002
2.973821e+003;6.293935e-002
2.975750e+003;6.261310e-002
2.977678e+003;6.237588e-002
2.979607e+003;6.202961e-002
2.981535e+003;6.161442e-002
2.983464e+003;6.137877e-002
2.985392e+003;6.132870e-002
2.987321e+003;6.129386e-002
2.989249e+003;6.125502e-002
2.991178e+003;6.097560e-002
2.993106e+003;6.041300e-002
2.995035e+003;6.002089e-002
2.996964e+003;5.977895e-002
2.998892e+003;5.955163e-002
3.000821e+003;5.935496e-002
3.002749e+003;5.880386e-002
3.004678e+003;5.811913e-002
3.006606e+003;5.770959e-002
3.008535e+003;5.769335e-002
3.010463e+003;5.756773e-002
3.012392e+003;5.743671e-002
3.014321e+003;5.760273e-002
3.016249e+003;5.765403e-002
3.018177e+003;5.720729e-002
3.020106e+003;5.669662e-002
3.022035e+003;5.648434e-002
3.023963e+003;5.637057e-002
3.025892e+003;5.618922e-002
3.027820e+003;5.591768e-002
3.029749e+003;5.575630e-002
3.031677e+003;5.525253e-002
3.033606e+003;5.491508e-002
3.035534e+003;5.496269e-002
3.037463e+003;5.427706e-002
3.039392e+003;5.325697e-002
3.041320e+003;5.253102e-002
3.043249e+003;5.208386e-002
3.045177e+003;5.183220e-002
3.047106e+003;5.154206e-002
3.049034e+003;5.112216e-002
3.050963e+003;5.066186e-002
3.052891e+003;5.017757e-002
3.054820e+003;4.974724e-002
3.056749e+003;4.939359e-002
3.058677e+003;4.917008e-002
3.060606e+003;4.870858e-002
3.062534e+003;4.825364e-002
3.064463e+003;4.807495e-002
3.066391e+003;4.791386e-002
3.068320e+003;4.765191e-002
3.070248e+003;4.723853e-002
3.072177e+003;4.684764e-002
3.074105e+003;4.674704e-002
3.076034e+003;4.668712e-002
3.077963e+003;4.650457e-002
3.079891e+003;4.612455e-002
3.081820e+003;4.583982e-002
3.083748e+003;4.582019e-002
3.085677e+003;4.589402e-002
3.087605e+003;4.569859e-002
3.089534e+003;4.535767e-002
3.091462e+003;4.541498e-002
3.093391e+003;4.549533e-002
3.095320e+003;4.538732e-002
3.097248e+003;4.514612e-002
3.099177e+003;4.488547e-002
3.101105e+003;4.489554e-002
3.103034e+003;4.520939e-002
3.104962e+003;4.522403e-002
3.106891e+003;4.503981e-002
3.108819e+003;4.495525e-002
3.110748e+003;4.509509e-002
3.112677e+003;4.508796e-002
3.114605e+003;4.471083e-002
3.116533e+003;4.443848e-002
3.118462e+003;4.454288e-002
3.120391e+003;4.454842e-002
3.122319e+003;4.433073e-002
3.124248e+003;4.407666e-002
3.126176e+003;4.389391e-002
3.128105e+003;4.391180e-002
3.130033e+003;4.358324e-002
3.131962e+003;4.335695e-002
3.133890e+003;4.353115e-002
3.135819e+003;4.360148e-002
3.137748e+003;4.356980e-002
3.139676e+003;4.350837e-002
3.141605e+003;4.336775e-002
3.143533e+003;4.343000e-002
3.145462e+003;4.350145e-002
3.147390e+003;4.335999e-002
3.149319e+003;4.340693e-002
3.151247e+003;4.338895e-002
3.153176e+003;4.324456e-002
3.155104e+003;4.327513e-002
3.157033e+003;4.319069e-002
3.158962e+003;4.297115e-002
3.160890e+003;4.307026e-002
3.162819e+003;4.306462e-002
3.164747e+003;4.293179e-002
3.166676e+003;4.305720e-002
3.168604e+003;4.321781e-002
3.170533e+003;4.343856e-002
3.172461e+003;4.356239e-002
3.174390e+003;4.344355e-002
3.176319e+003;4.334695e-002
3.178247e+003;4.319318e-002
3.180176e+003;4.298106e-002
3.182104e+003;4.303371e-002
3.184033e+003;4.317956e-002
3.185961e+003;4.357811e-002
3.187890e+003;4.369875e-002
3.189818e+003;4.329153e-002
3.191747e+003;4.301955e-002
3.193676e+003;4.324068e-002
3.195604e+003;4.314831e-002
3.197532e+003;4.306096e-002
3.199461e+003;4.330921e-002
3.201390e+003;4.351756e-002
3.203318e+003;4.371469e-002
3.205247e+003;4.371048e-002
3.207175e+003;4.362625e-002
3.209104e+003;4.342095e-002
3.211032e+003;4.335534e-002
3.212961e+003;4.386261e-002
3.214889e+003;4.424894e-002
3.216818e+003;4.416097e-002
3.218747e+003;4.425173e-002
3.220675e+003;4.448895e-002
3.222604e+003;4.452210e-002
3.224532e+003;4.448377e-002
3.226461e+003;4.458147e-002
3.228389e+003;4.489205e-002
3.230318e+003;4.482775e-002
3.232246e+003;4.477809e-002
3.234175e+003;4.511223e-002
3.236104e+003;4.548841e-002
3.238032e+003;4.569215e-002
3.239961e+003;4.568714e-002
3.241889e+003;4.574310e-002
3.243818e+003;4.582822e-002
3.245746e+003;4.588298e-002
3.247675e+003;4.621395e-002
3.249603e+003;4.656015e-002
3.251532e+003;4.664968e-002
3.253460e+003;4.676306e-002
3.255389e+003;4.703462e-002
3.257318e+003;4.672859e-002
3.259246e+003;4.613667e-002
3.261175e+003;4.632714e-002
3.263103e+003;4.689795e-002
3.265032e+003;4.720813e-002
3.266960e+003;4.764755e-002
3.268889e+003;4.783066e-002
3.270817e+003;4.776275e-002
3.272746e+003;4.771992e-002
3.274675e+003;4.789721e-002
3.276603e+003;4.803964e-002
3.278531e+003;4.852429e-002
3.280460e+003;4.894161e-002
3.282389e+003;4.887078e-002
3.284317e+003;4.911558e-002
3.286246e+003;4.934927e-002
3.288174e+003;4.930439e-002
3.290103e+003;4.917635e-002
3.292031e+003;4.906876e-002
3.293960e+003;4.940581e-002
3.295888e+003;4.981372e-002
3.297817e+003;5.005284e-002
3.299746e+003;5.023942e-002
3.301674e+003;5.031174e-002
3.303603e+003;5.047532e-002
3.305531e+003;5.082940e-002
3.307460e+003;5.095502e-002
3.309388e+003;5.092954e-002
3.311317e+003;5.124641e-002
3.313245e+003;5.162616e-002
3.315174e+003;5.184762e-002
3.317103e+003;5.231023e-002
3.319031e+003;5.249438e-002
3.320960e+003;5.228896e-002
3.322888e+003;5.217846e-002
3.324817e+003;5.239623e-002
3.326745e+003;5.257687e-002
3.328674e+003;5.284349e-002
3.330602e+003;5.327850e-002
3.332531e+003;5.344174e-002
3.334459e+003;5.333245e-002
3.336388e+003;5.367166e-002
3.338317e+003;5.433620e-002
3.340245e+003;5.444541e-002
3.342174e+003;5.442858e-002
3.344102e+003;5.472130e-002
3.346031e+003;5.487914e-002
3.347959e+003;5.459316e-002
3.349888e+003;5.449131e-002
3.351816e+003;5.505505e-002
3.353745e+003;5.586892e-002
3.355674e+003;5.598405e-002
3.357602e+003;5.579838e-002
3.359531e+003;5.597565e-002
3.361459e+003;5.607358e-002
3.363388e+003;5.614364e-002
3.365316e+003;5.617086e-002
3.367245e+003;5.651811e-002
3.369173e+003;5.709825e-002
3.371102e+003;5.748289e-002
3.373031e+003;5.745906e-002
3.374959e+003;5.741016e-002
3.376887e+003;5.763440e-002
3.378816e+003;5.779205e-002
3.380745e+003;5.797112e-002
3.382673e+003;5.824979e-002
3.384602e+003;5.823566e-002
3.386530e+003;5.821050e-002
3.388459e+003;5.859582e-002
3.390387e+003;5.876946e-002
3.392316e+003;5.916587e-002
3.394244e+003;5.976222e-002
3.396173e+003;5.987592e-002
3.398102e+003;5.975058e-002
3.400030e+003;6.032615e-002
3.401959e+003;6.043638e-002
3.403887e+003;5.999212e-002
3.405816e+003;6.013796e-002
3.407744e+003;6.056081e-002
3.409673e+003;6.083752e-002
3.411601e+003;6.126765e-002
3.413530e+003;6.131840e-002
3.415458e+003;6.100084e-002
3.417387e+003;6.089478e-002
3.419316e+003;6.097263e-002
3.421244e+003;6.121458e-002
3.423173e+003;6.188118e-002
3.425101e+003;6.253125e-002
3.427030e+003;6.253863e-002
3.428958e+003;6.269930e-002
3.430887e+003;6.317680e-002
3.432815e+003;6.342643e-002
3.434744e+003;6.339733e-002
3.436673e+003;6.323479e-002
3.438601e+003;6.355571e-002
3.440530e+003;6.395203e-002
3.442458e+003;6.442022e-002
3.444387e+003;6.473290e-002
3.446315e+003;6.480741e-002
3.448244e+003;6.499343e-002
3.450172e+003;6.538375e-002
3.452101e+003;6.576100e-002
3.454030e+003;6.574615e-002
3.455958e+003;6.599938e-002
3.457886e+003;6.647910e-002
3.459815e+003;6.669439e-002
3.461744e+003;6.667195e-002
3.463672e+003;6.655236e-002
3.465601e+003;6.702886e-002
3.467529e+003;6.754556e-002
3.469458e+003;6.779674e-002
3.471386e+003;6.805206e-002
3.473315e+003;6.806047e-002
3.475243e+003;6.827403e-002
3.477172e+003;6.853991e-002
3.479101e+003;6.820079e-002
3.481029e+003;6.792001e-002
3.482958e+003;6.800777e-002
3.484886e+003;6.804574e-002
3.486815e+003;6.781208e-002
3.488743e+003;6.770325e-002
3.490672e+003;6.788091e-002
3.492600e+003;6.778702e-002
3.494529e+003;6.761760e-002
3.496458e+003;6.769496e-002
3.498386e+003;6.757428e-002
3.500315e+003;6.767073e-002
3.502243e+003;6.749528e-002
3.504172e+003;6.721460e-002
3.506100e+003;6.723008e-002
3.508029e+003;6.754444e-002
3.509957e+003;6.744647e-002
3.511886e+003;6.714305e-002
3.513814e+003;6.719677e-002
3.515743e+003;6.670436e-002
3.517672e+003;6.619152e-002
3.519600e+003;6.623435e-002
3.521529e+003;6.643802e-002
3.523457e+003;6.639138e-002
3.525386e+003;6.603345e-002
3.527314e+003;6.579781e-002
3.529243e+003;6.581659e-002
3.531171e+003;6.558840e-002
3.533100e+003;6.531723e-002
3.535029e+003;6.494525e-002
3.536957e+003;6.475571e-002
3.538885e+003;6.458778e-002
3.540814e+003;6.473336e-002
3.542743e+003;6.459328e-002
3.544671e+003;6.350818e-002
3.546600e+003;6.269678e-002
3.548528e+003;6.264388e-002
3.550457e+003;6.247343e-002
3.552385e+003;6.210896e-002
3.554314e+003;6.198883e-002
3.556242e+003;6.178953e-002
3.558171e+003;6.130707e-002
3.560100e+003;6.091597e-002
3.562028e+003;6.068638e-002
3.563957e+003;6.021614e-002
3.565885e+003;5.942319e-002
3.567814e+003;5.870694e-002
3.569742e+003;5.870710e-002
3.571671e+003;5.880523e-002
3.573599e+003;5.842650e-002
3.575528e+003;5.802304e-002
3.577457e+003;5.773327e-002
3.579385e+003;5.740872e-002
3.581314e+003;5.695029e-002
3.583242e+003;5.677580e-002
3.585171e+003;5.630128e-002
3.587099e+003;5.507728e-002
3.589028e+003;5.432651e-002
3.590956e+003;5.415322e-002
3.592885e+003;5.371032e-002
3.594813e+003;5.328573e-002
3.596742e+003;5.289416e-002
3.598671e+003;5.239672e-002
3.600599e+003;5.178546e-002
3.602528e+003;5.111459e-002
3.604456e+003;5.081957e-002
3.606385e+003;5.072002e-002
3.608313e+003;5.012409e-002
3.610242e+003;4.958595e-002
3.612170e+003;4.910148e-002
3.614099e+003;4.859969e-002
3.616028e+003;4.796433e-002
3.617956e+003;4.729084e-002
3.619885e+003;4.726864e-002
3.621813e+003;4.737553e-002
3.623742e+003;4.708569e-002
3.625670e+003;4.669188e-002
3.627599e+003;4.582498e-002
3.629527e+003;4.516123e-002
3.631456e+003;4.506010e-002
3.633385e+003;4.486052e-002
3.635313e+003;4.441440e-002
3.637241e+003;4.391811e-002
3.639170e+003;4.325858e-002
3.641099e+003;4.297236e-002
3.643027e+003;4.289715e-002
3.644956e+003;4.231025e-002
3.646884e+003;4.115666e-002
3.648813e+003;4.014784e-002
3.650741e+003;3.970856e-002
3.652670e+003;3.948247e-002
3.654598e+003;3.871954e-002
3.656527e+003;3.794999e-002
3.658456e+003;3.755712e-002
3.660384e+003;3.672908e-002
3.662313e+003;3.585314e-002
3.664241e+003;3.522802e-002
3.666170e+003;3.458266e-002
3.668098e+003;3.361912e-002
3.670027e+003;3.248671e-002
3.671955e+003;3.176470e-002
3.673884e+003;3.109346e-002
3.675813e+003;3.060433e-002
3.677741e+003;3.040414e-002
3.679669e+003;2.978468e-002
3.681598e+003;2.884361e-002
3.683527e+003;2.811981e-002
3.685455e+003;2.773519e-002
3.687384e+003;2.721416e-002
3.689312e+003;2.714760e-002
3.691241e+003;2.758416e-002
3.693169e+003;2.761205e-002
3.695098e+003;2.721137e-002
3.697026e+003;2.682414e-002
3.698955e+003;2.674738e-002
3.700884e+003;2.617798e-002
3.702812e+003;2.567765e-002
3.704741e+003;2.568679e-002
3.706669e+003;2.547874e-002
3.708598e+003;2.509880e-002
3.710526e+003;2.515687e-002
3.712455e+003;2.516568e-002
3.714383e+003;2.517175e-002
3.716312e+003;2.519286e-002
3.718240e+003;2.487994e-002
3.720169e+003;2.450792e-002
3.722098e+003;2.450102e-002
3.724026e+003;2.438924e-002
3.725955e+003;2.441766e-002
3.727883e+003;2.454144e-002
3.729812e+003;2.424314e-002
3.731740e+003;2.375452e-002
3.733669e+003;2.365948e-002
3.735597e+003;2.401134e-002
3.737526e+003;2.443792e-002
3.739455e+003;2.437784e-002
3.741383e+003;2.412102e-002
3.743312e+003;2.325261e-002
3.745240e+003;2.283438e-002
3.747169e+003;2.289770e-002
3.749097e+003;2.281989e-002
3.751026e+003;2.284818e-002
3.752954e+003;2.333207e-002
3.754883e+003;2.396186e-002
3.756812e+003;2.379834e-002
3.758740e+003;2.356625e-002
3.760668e+003;2.367110e-002
3.762597e+003;2.359220e-002
3.764526e+003;2.338004e-002
3.766454e+003;2.374948e-002
3.768383e+003;2.367708e-002
3.770311e+003;2.311836e-002
3.772240e+003;2.337368e-002
3.774168e+003;2.379936e-002
3.776097e+003;2.391109e-002
3.778025e+003;2.403158e-002
3.779954e+003;2.403630e-002
3.781883e+003;2.393147e-002
3.783811e+003;2.393612e-002
3.785740e+003;2.407280e-002
3.787668e+003;2.390658e-002
3.789597e+003;2.379029e-002
3.791525e+003;2.409518e-002
3.793454e+003;2.416428e-002
3.795382e+003;2.400157e-002
3.797311e+003;2.431638e-002
3.799240e+003;2.397912e-002
3.801168e+003;2.311043e-002
3.803097e+003;2.342386e-002
3.805025e+003;2.360571e-002
3.806954e+003;2.362638e-002
3.808882e+003;2.430362e-002
3.810811e+003;2.461711e-002
3.812739e+003;2.426683e-002
3.814668e+003;2.368541e-002
3.816596e+003;2.344421e-002
3.818525e+003;2.346208e-002
3.820454e+003;2.335550e-002
3.822382e+003;2.377857e-002
3.824311e+003;2.377955e-002
3.826239e+003;2.331211e-002
3.828168e+003;2.368065e-002
3.830096e+003;2.433856e-002
3.832025e+003;2.414618e-002
3.833953e+003;2.370798e-002
3.835882e+003;2.330064e-002
3.837811e+003;2.321937e-002
3.839739e+003;2.386989e-002
3.841667e+003;2.398346e-002
3.843596e+003;2.371652e-002
3.845525e+003;2.380300e-002
3.847453e+003;2.380230e-002
3.849382e+003;2.386373e-002
3.851310e+003;2.300169e-002
3.853239e+003;2.256235e-002
3.855167e+003;2.393896e-002
3.857096e+003;2.484292e-002
3.859024e+003;2.464050e-002
3.860953e+003;2.451448e-002
3.862882e+003;2.464993e-002
3.864810e+003;2.460620e-002
3.866739e+003;2.475350e-002
3.868667e+003;2.460936e-002
3.870596e+003;2.491615e-002
3.872524e+003;2.490913e-002
3.874453e+003;2.455213e-002
3.876381e+003;2.457391e-002
3.878310e+003;2.451374e-002
3.880239e+003;2.456865e-002
3.882167e+003;2.455487e-002
3.884096e+003;2.418457e-002
3.886024e+003;2.461423e-002
3.887953e+003;2.526790e-002
3.889881e+003;2.500410e-002
3.891810e+003;2.519567e-002
3.893738e+003;2.587138e-002
3.895667e+003;2.582841e-002
3.897595e+003;2.537316e-002
3.899524e+003;2.518499e-002
3.901453e+003;2.544483e-002
3.903381e+003;2.565723e-002
3.905310e+003;2.578080e-002
3.907238e+003;2.602316e-002
3.909167e+003;2.651948e-002
3.911095e+003;2.672243e-002
3.913024e+003;2.667603e-002
3.914952e+003;2.644701e-002
3.916881e+003;2.661343e-002
3.918810e+003;2.701034e-002
3.920738e+003;2.665193e-002
3.922667e+003;2.642591e-002
3.924595e+003;2.691318e-002
3.926524e+003;2.713310e-002
3.928452e+003;2.745545e-002
3.930381e+003;2.784367e-002
3.932309e+003;2.791532e-002
3.934238e+003;2.771662e-002
3.936167e+003;2.768511e-002
3.938095e+003;2.778874e-002
3.940023e+003;2.783219e-002
3.941952e+003;2.785109e-002
3.943881e+003;2.786059e-002
3.945809e+003;2.786031e-002
3.947738e+003;2.804629e-002
3.949666e+003;2.864420e-002
3.951595e+003;2.877149e-002
3.953523e+003;2.855940e-002
3.955452e+003;2.888784e-002
3.957380e+003;2.923191e-002
3.959309e+003;2.940497e-002
3.961238e+003;2.963268e-002
3.963166e+003;2.959342e-002
3.965095e+003;2.984306e-002
3.967023e+003;3.025541e-002
3.968952e+003;3.078786e-002
3.970880e+003;3.059992e-002
3.972809e+003;3.052907e-002
3.974737e+003;3.120075e-002
3.976666e+003;3.112995e-002
3.978594e+003;3.093087e-002
3.980523e+003;3.127228e-002
3.982452e+003;3.104862e-002
3.984380e+003;3.060725e-002
3.986309e+003;3.095424e-002
3.988237e+003;3.130675e-002
3.990166e+003;3.088045e-002
3.992094e+003;3.062474e-002
3.994023e+003;3.073736e-002
3.995951e+003;3.069372e-002
3.997880e+003;3.063818e-002
3.999809e+003;3.058759e-002
4.001737e+003;0.000000e+000
