3.992094e+002;0.000000e+000
4.011380e+002;0.000000e+000
4.030665e+002;0.000000e+000
4.049951e+002;0.000000e+000
4.069236e+002;0.000000e+000
4.088522e+002;0.000000e+000
4.107807e+002;0.000000e+000
4.127093e+002;0.000000e+000
4.146378e+002;0.000000e+000
4.165664e+002;0.000000e+000
4.184949e+002;0.000000e+000
4.204235e+002;0.000000e+000
4.223520e+002;0.000000e+000
4.242806e+002;0.000000e+000
4.262091e+002;0.000000e+000
4.281377e+002;0.000000e+000
4.300662e+002;0.000000e+000
4.319948e+002;0.000000e+000
4.339233e+002;0.000000e+000
4.358519e+002;0.000000e+000
4.377804e+002;0.000000e+000
4.397090e+002;0.000000e+000
4.416375e+002;0.000000e+000
4.435660e+002;0.000000e+000
4.454946e+002;0.000000e+000
4.474232e+002;0.000000e+000
4.493517e+002;0.000000e+000
4.512802e+002;0.000000e+000
4.532088e+002;0.000000e+000
4.551373e+002;0.000000e+000
4.570659e+002;0.000000e+000
4.589944e+002;0.000000e+000
4.609230e+002;0.000000e+000
4.628515e+002;0.000000e+000
4.647801e+002;0.000000e+000
4.667086e+002;0.000000e+000
4.686372e+002;0.000000e+000
4.705657e+002;0.000000e+000
4.724943e+002;0.000000e+000
4.744228e+002;0.000000e+000
4.763513e+002;0.000000e+000
4.782799e+002;0.000000e+000
4.802085e+002;0.000000e+000
4.821370e+002;0.000000e+000
4.840656e+002;0.000000e+000
4.859941e+002;0.000000e+000
4.879226e+002;0.000000e+000
4.898512e+002;0.000000e+000
4.917798e+002;0.000000e+000
4.937083e+002;0.000000e+000
4.956368e+002;0.000000e+000
4.975654e+002;0.000000e+000
4.994939e+002;0.000000e+000
5.014225e+002;0.000000e+000
5.033510e+002;0.000000e+000
5.052796e+002;0.000000e+000
5.072081e+002;0.000000e+000
5.091367e+002;0.000000e+000
5.110652e+002;0.000000e+000
5.129938e+002;0.000000e+000
5.149223e+002;0.000000e+000
5.168509e+002;0.000000e+000
5.187794e+002;0.000000e+000
5.207079e+002;0.000000e+000
5.226365e+002;0.000000e+000
5.245651e+002;0.000000e+000
5.264936e+002;0.000000e+000
5.284222e+002;0.000000e+000
5.303507e+002;0.000000e+000
5.322792e+002;0.000000e+000
5.342078e+002;0.000000e+000
5.361364e+002;0.000000e+000
5.380649e+002;0.000000e+000
5.399935e+002;0.000000e+000
5.419220e+002;0.000000e+000
5.438505e+002;0.000000e+000
5.457791e+002;0.000000e+000
5.477076e+002;0.000000e+000
5.496362e+002;0.000000e+000
5.515648e+002;0.000000e+000
5.534933e+002;0.000000e+000
5.554218e+002;0.000000e+000
5.573504e+002;0.000000e+000
5.592789e+002;0.000000e+000
5.612075e+002;0.000000e+000
5.631360e+002;0.000000e+000
5.650646e+002;0.000000e+000
5.669931e+002;0.000000e+000
5.689217e+002;0.000000e+000
5.708502e+002;0.000000e+000
5.727787e+002;0.000000e+000
5.747073e+002;0.000000e+000
5.766359e+002;0.000000e+000
5.785644e+002;0.000000e+000
5.804930e+002;0.000000e+000
5.824215e+002;0.000000e+000
5.843500e+002;0.000000e+000
5.862786e+002;0.000000e+000
5.882072e+002;0.000000e+000
5.901357e+002;0.000000e+000
5.920643e+002;0.000000e+000
5.939928e+002;0.000000e+000
5.959213e+002;0.000000e+000
5.978499e+002;0.000000e+000
5.997784e+002;1.936097e-001
6.017070e+002;1.968583e-001
6.036355e+002;1.939640e-001
6.055641e+002;1.905876e-001
6.074926e+002;1.823728e-001
6.094211e+002;1.731400e-001
6.113497e+002;1.662433e-001
6.132783e+002;1.611352e-001
6.152068e+002;1.575067e-001
6.171354e+002;1.537161e-001
6.190639e+002;1.486120e-001
6.209924e+002;1.456375e-001
6.229210e+002;1.441921e-001
6.248495e+002;1.425474e-001
6.267781e+002;1.394199e-001
6.287067e+002;1.369054e-001
6.306352e+002;1.354998e-001
6.325637e+002;1.332876e-001
6.344923e+002;1.319701e-001
6.364208e+002;1.310761e-001
6.383494e+002;1.305787e-001
6.402780e+002;1.307472e-001
6.422065e+002;1.302859e-001
6.441350e+002;1.262597e-001
6.460636e+002;1.256208e-001
6.479921e+002;1.255779e-001
6.499207e+002;1.224469e-001
6.518492e+002;1.167099e-001
6.537778e+002;1.141422e-001
6.557063e+002;1.156327e-001
6.576349e+002;1.173812e-001
6.595634e+002;1.160588e-001
6.614919e+002;1.150025e-001
6.634205e+002;1.133259e-001
6.653491e+002;1.116401e-001
6.672776e+002;1.106456e-001
6.692062e+002;1.126970e-001
6.711347e+002;1.130758e-001
6.730632e+002;1.104110e-001
6.749918e+002;1.104341e-001
6.769203e+002;1.124361e-001
6.788489e+002;1.130159e-001
6.807775e+002;1.126300e-001
6.827060e+002;1.134485e-001
6.846345e+002;1.142513e-001
6.865631e+002;1.141792e-001
6.884916e+002;1.135654e-001
6.904202e+002;1.121596e-001
6.923488e+002;1.108684e-001
6.942773e+002;1.098246e-001
6.962058e+002;1.088226e-001
6.981344e+002;1.073630e-001
7.000629e+002;1.056426e-001
7.019915e+002;1.033775e-001
7.039200e+002;1.019462e-001
7.058486e+002;1.018478e-001
7.077771e+002;1.010473e-001
7.097057e+002;9.899080e-002
7.116342e+002;9.778099e-002
7.135627e+002;9.764144e-002
7.154913e+002;9.794851e-002
7.174199e+002;9.684888e-002
7.193484e+002;9.524339e-002
7.212770e+002;9.485704e-002
7.232055e+002;9.471884e-002
7.251340e+002;9.417671e-002
7.270626e+002;9.261003e-002
7.289911e+002;9.057450e-002
7.309197e+002;8.899845e-002
7.328483e+002;8.690737e-002
7.347768e+002;8.432353e-002
7.367053e+002;8.198249e-002
7.386339e+002;8.016109e-002
7.405624e+002;7.959212e-002
7.424910e+002;7.906689e-002
7.444196e+002;7.833491e-002
7.463481e+002;7.793549e-002
7.482766e+002;7.696810e-002
7.502052e+002;7.624976e-002
7.521337e+002;7.571109e-002
7.540623e+002;7.529176e-002
7.559908e+002;7.580651e-002
7.579194e+002;7.629700e-002
7.598479e+002;7.578959e-002
7.617765e+002;7.482205e-002
7.637050e+002;7.476089e-002
7.656335e+002;7.485788e-002
7.675621e+002;7.476089e-002
7.694907e+002;7.517903e-002
7.714192e+002;7.535710e-002
7.733478e+002;7.506046e-002
7.752763e+002;7.468564e-002
7.772048e+002;7.492138e-002
7.791334e+002;7.531044e-002
7.810620e+002;7.566877e-002
7.829905e+002;7.560748e-002
7.849191e+002;7.582258e-002
7.868476e+002;7.609572e-002
7.887761e+002;7.620869e-002
7.907047e+002;7.728517e-002
7.926332e+002;7.849503e-002
7.945618e+002;7.877979e-002
7.964903e+002;7.951567e-002
7.984189e+002;8.052009e-002
8.003474e+002;8.119740e-002
8.022759e+002;8.187626e-002
8.042045e+002;8.264767e-002
8.061331e+002;8.340535e-002
8.080616e+002;8.421563e-002
8.099902e+002;8.527362e-002
8.119187e+002;8.615580e-002
8.138472e+002;8.701177e-002
8.157758e+002;8.868903e-002
8.177043e+002;9.026436e-002
8.196329e+002;9.159394e-002
8.215615e+002;9.352559e-002
8.234900e+002;9.606389e-002
8.254185e+002;9.924952e-002
8.273471e+002;1.032624e-001
8.292756e+002;1.069719e-001
8.312042e+002;1.105668e-001
8.331328e+002;1.150052e-001
8.350613e+002;1.186421e-001
8.369898e+002;1.210145e-001
8.389184e+002;1.226371e-001
8.408469e+002;1.223543e-001
8.427755e+002;1.205489e-001
8.447040e+002;1.184893e-001
8.466326e+002;1.162426e-001
8.485611e+002;1.137569e-001
8.504897e+002;1.115163e-001
8.524182e+002;1.094020e-001
8.543467e+002;1.081423e-001
8.562753e+002;1.087615e-001
8.582039e+002;1.100208e-001
8.601324e+002;1.117896e-001
8.620610e+002;1.150903e-001
8.639895e+002;1.189443e-001
8.659180e+002;1.227219e-001
8.678466e+002;1.274381e-001
8.697751e+002;1.336927e-001
8.717037e+002;1.401995e-001
8.736323e+002;1.459644e-001
8.755608e+002;1.507039e-001
8.774893e+002;1.540533e-001
8.794179e+002;1.563956e-001
8.813464e+002;1.592707e-001
8.832750e+002;1.627938e-001
8.852036e+002;1.664522e-001
8.871321e+002;1.706318e-001
8.890606e+002;1.757104e-001
8.909892e+002;1.816428e-001
8.929177e+002;1.885836e-001
8.948463e+002;1.955475e-001
8.967748e+002;2.006997e-001
8.987034e+002;2.031971e-001
9.006319e+002;2.030207e-001
9.025605e+002;1.997125e-001
9.044890e+002;1.943673e-001
9.064175e+002;1.888355e-001
9.083461e+002;1.825771e-001
9.102747e+002;1.760425e-001
9.122032e+002;1.702405e-001
9.141318e+002;1.654195e-001
9.160603e+002;1.610854e-001
9.179888e+002;1.572376e-001
9.199174e+002;1.544289e-001
9.218459e+002;1.521606e-001
9.237745e+002;1.500001e-001
9.257031e+002;1.481500e-001
9.276316e+002;1.470823e-001
9.295601e+002;1.467012e-001
9.314887e+002;1.462220e-001
9.334172e+002;1.458879e-001
9.353458e+002;1.461677e-001
9.372744e+002;1.470635e-001
9.392029e+002;1.481292e-001
9.411314e+002;1.495561e-001
9.430600e+002;1.516155e-001
9.449885e+002;1.537618e-001
9.469171e+002;1.561056e-001
9.488456e+002;1.582119e-001
9.507742e+002;1.599990e-001
9.527027e+002;1.616794e-001
9.546313e+002;1.633465e-001
9.565598e+002;1.647658e-001
9.584883e+002;1.661579e-001
9.604169e+002;1.681507e-001
9.623455e+002;1.707733e-001
9.642740e+002;1.744719e-001
9.662026e+002;1.793726e-001
9.681311e+002;1.848567e-001
9.700596e+002;1.915051e-001
9.719882e+002;1.989883e-001
9.739167e+002;2.065660e-001
9.758453e+002;2.139557e-001
9.777739e+002;2.212900e-001
9.797024e+002;2.287126e-001
9.816309e+002;2.359057e-001
9.835595e+002;2.422855e-001
9.854880e+002;2.476732e-001
9.874166e+002;2.529435e-001
9.893452e+002;2.582074e-001
9.912737e+002;2.627949e-001
9.932022e+002;2.674903e-001
9.951307e+002;2.728990e-001
9.970593e+002;2.789919e-001
9.989879e+002;2.865219e-001
1.000916e+003;2.957612e-001
1.002845e+003;3.062592e-001
1.004773e+003;3.186741e-001
1.006702e+003;3.325082e-001
1.008631e+003;3.473997e-001
1.010559e+003;3.632709e-001
1.012488e+003;3.804100e-001
1.014416e+003;3.987551e-001
1.016345e+003;4.176383e-001
1.018273e+003;4.371686e-001
1.020202e+003;4.572127e-001
1.022130e+003;4.766747e-001
1.024059e+003;4.956217e-001
1.025988e+003;5.138420e-001
1.027916e+003;5.291414e-001
1.029845e+003;5.407956e-001
1.031773e+003;5.483159e-001
1.033702e+003;5.512206e-001
1.035630e+003;5.494718e-001
1.037559e+003;5.453638e-001
1.039487e+003;5.396467e-001
1.041416e+003;5.310909e-001
1.043344e+003;5.209913e-001
1.045273e+003;5.091269e-001
1.047202e+003;4.951963e-001
1.049130e+003;4.795927e-001
1.051059e+003;4.630353e-001
1.052987e+003;4.466940e-001
1.054916e+003;4.305069e-001
1.056844e+003;4.147415e-001
1.058773e+003;3.998117e-001
1.060701e+003;3.865112e-001
1.062630e+003;3.752317e-001
1.064558e+003;3.652574e-001
1.066487e+003;3.560749e-001
1.068416e+003;3.475149e-001
1.070344e+003;3.384542e-001
1.072273e+003;3.288039e-001
1.074201e+003;3.197920e-001
1.076130e+003;3.105056e-001
1.078058e+003;3.008990e-001
1.079987e+003;2.916494e-001
1.081915e+003;2.829961e-001
1.083844e+003;2.742639e-001
1.085773e+003;2.653242e-001
1.087701e+003;2.566483e-001
1.089630e+003;2.477046e-001
1.091558e+003;2.389803e-001
1.093487e+003;2.311772e-001
1.095415e+003;2.243500e-001
1.097344e+003;2.184958e-001
1.099272e+003;2.135649e-001
1.101201e+003;2.089285e-001
1.103129e+003;2.051026e-001
1.105058e+003;2.027481e-001
1.106987e+003;2.012157e-001
1.108915e+003;1.998335e-001
1.110844e+003;1.989991e-001
1.112772e+003;1.988913e-001
1.114701e+003;1.980077e-001
1.116629e+003;1.967064e-001
1.118558e+003;1.959064e-001
1.120486e+003;1.950759e-001
1.122415e+003;1.934408e-001
1.124344e+003;1.908716e-001
1.126272e+003;1.885616e-001
1.128201e+003;1.862212e-001
1.130129e+003;1.832811e-001
1.132058e+003;1.799946e-001
1.133986e+003;1.767879e-001
1.135915e+003;1.746021e-001
1.137843e+003;1.729956e-001
1.139772e+003;1.719512e-001
1.141700e+003;1.718985e-001
1.143629e+003;1.725644e-001
1.145557e+003;1.735677e-001
1.147486e+003;1.751618e-001
1.149415e+003;1.778257e-001
1.151343e+003;1.806010e-001
1.153272e+003;1.830151e-001
1.155200e+003;1.853794e-001
1.157129e+003;1.870130e-001
1.159057e+003;1.885293e-001
1.160986e+003;1.896437e-001
1.162914e+003;1.897217e-001
1.164843e+003;1.890279e-001
1.166771e+003;1.881047e-001
1.168700e+003;1.868880e-001
1.170629e+003;1.849851e-001
1.172557e+003;1.831010e-001
1.174486e+003;1.813244e-001
1.176414e+003;1.791542e-001
1.178343e+003;1.773501e-001
1.180271e+003;1.763240e-001
1.182200e+003;1.769135e-001
1.184128e+003;1.792260e-001
1.186057e+003;1.836488e-001
1.187986e+003;1.903968e-001
1.189914e+003;1.996569e-001
1.191843e+003;2.124168e-001
1.193771e+003;2.291396e-001
1.195700e+003;2.504036e-001
1.197628e+003;2.754230e-001
1.199557e+003;3.038329e-001
1.201485e+003;3.353029e-001
1.203414e+003;3.683510e-001
1.205343e+003;4.006140e-001
1.207271e+003;4.298736e-001
1.209200e+003;4.545411e-001
1.211128e+003;4.731745e-001
1.213057e+003;4.856775e-001
1.214985e+003;4.929419e-001
1.216914e+003;4.956497e-001
1.218842e+003;4.955641e-001
1.220771e+003;4.941176e-001
1.222699e+003;4.918353e-001
1.224628e+003;4.884086e-001
1.226557e+003;4.829584e-001
1.228485e+003;4.744619e-001
1.230414e+003;4.632058e-001
1.232342e+003;4.499247e-001
1.234271e+003;4.346529e-001
1.236199e+003;4.171450e-001
1.238128e+003;3.985776e-001
1.240056e+003;3.796288e-001
1.241985e+003;3.606832e-001
1.243913e+003;3.420795e-001
1.245842e+003;3.235004e-001
1.247771e+003;3.059528e-001
1.249699e+003;2.895136e-001
1.251628e+003;2.736956e-001
1.253556e+003;2.586347e-001
1.255485e+003;2.447015e-001
1.257413e+003;2.312911e-001
1.259342e+003;2.182016e-001
1.261270e+003;2.063912e-001
1.263199e+003;1.958205e-001
1.265127e+003;1.858337e-001
1.267056e+003;1.764437e-001
1.268985e+003;1.679519e-001
1.270913e+003;1.602650e-001
1.272842e+003;1.530677e-001
1.274770e+003;1.466035e-001
1.276699e+003;1.405839e-001
1.278627e+003;1.349936e-001
1.280556e+003;1.301035e-001
1.282484e+003;1.259605e-001
1.284413e+003;1.224177e-001
1.286342e+003;1.191181e-001
1.288270e+003;1.159764e-001
1.290199e+003;1.131112e-001
1.292127e+003;1.107647e-001
1.294056e+003;1.085151e-001
1.295984e+003;1.062577e-001
1.297913e+003;1.043583e-001
1.299841e+003;1.028150e-001
1.301770e+003;1.014011e-001
1.303698e+003;1.003110e-001
1.305627e+003;9.973787e-002
1.307556e+003;9.944886e-002
1.309484e+003;9.922462e-002
1.311413e+003;9.925626e-002
1.313341e+003;9.959020e-002
1.315270e+003;9.980128e-002
1.317198e+003;9.972128e-002
1.319127e+003;9.952227e-002
1.321055e+003;9.947444e-002
1.322984e+003;9.917012e-002
1.324912e+003;9.865204e-002
1.326841e+003;9.813198e-002
1.328770e+003;9.758113e-002
1.330698e+003;9.718843e-002
1.332627e+003;9.692845e-002
1.334555e+003;9.652210e-002
1.336484e+003;9.632617e-002
1.338412e+003;9.639136e-002
1.340341e+003;9.657143e-002
1.342269e+003;9.697364e-002
1.344198e+003;9.793411e-002
1.346126e+003;9.981229e-002
1.348055e+003;1.033726e-001
1.349984e+003;1.087115e-001
1.351912e+003;1.162849e-001
1.353841e+003;1.270494e-001
1.355769e+003;1.418199e-001
1.357698e+003;1.602805e-001
1.359626e+003;1.803192e-001
1.361555e+003;1.991778e-001
1.363483e+003;2.138700e-001
1.365412e+003;2.221941e-001
1.367341e+003;2.239107e-001
1.369269e+003;2.204810e-001
1.371198e+003;2.137362e-001
1.373126e+003;2.049334e-001
1.375055e+003;1.953863e-001
1.376983e+003;1.856383e-001
1.378912e+003;1.753853e-001
1.380840e+003;1.648557e-001
1.382769e+003;1.542152e-001
1.384698e+003;1.435395e-001
1.386626e+003;1.334802e-001
1.388555e+003;1.245394e-001
1.390483e+003;1.169236e-001
1.392412e+003;1.105264e-001
1.394340e+003;1.054609e-001
1.396269e+003;1.016978e-001
1.398197e+003;9.901947e-002
1.400126e+003;9.727518e-002
1.402054e+003;9.635798e-002
1.403983e+003;9.629051e-002
1.405911e+003;9.645350e-002
1.407840e+003;9.661539e-002
1.409769e+003;9.717803e-002
1.411697e+003;9.818975e-002
1.413626e+003;9.916487e-002
1.415554e+003;1.003789e-001
1.417483e+003;1.021356e-001
1.419411e+003;1.043293e-001
1.421340e+003;1.067301e-001
1.423268e+003;1.092186e-001
1.425197e+003;1.117135e-001
1.427125e+003;1.137304e-001
1.429054e+003;1.150876e-001
1.430983e+003;1.156725e-001
1.432911e+003;1.154157e-001
1.434840e+003;1.140921e-001
1.436768e+003;1.121786e-001
1.438697e+003;1.100609e-001
1.440625e+003;1.076801e-001
1.442554e+003;1.051714e-001
1.444482e+003;1.025593e-001
1.446411e+003;1.000673e-001
1.448340e+003;9.778588e-002
1.450268e+003;9.563503e-002
1.452197e+003;9.354803e-002
1.454125e+003;9.158617e-002
1.456054e+003;8.945554e-002
1.457982e+003;8.741696e-002
1.459911e+003;8.561444e-002
1.461839e+003;8.362012e-002
1.463768e+003;8.138359e-002
1.465697e+003;7.907103e-002
1.467625e+003;7.707168e-002
1.469554e+003;7.534142e-002
1.471482e+003;7.364278e-002
1.473411e+003;7.179356e-002
1.475339e+003;7.012975e-002
1.477268e+003;6.881481e-002
1.479196e+003;6.780267e-002
1.481125e+003;6.691973e-002
1.483053e+003;6.625488e-002
1.484982e+003;6.573235e-002
1.486911e+003;6.529332e-002
1.488839e+003;6.476152e-002
1.490768e+003;6.422941e-002
1.492696e+003;6.384462e-002
1.494625e+003;6.371384e-002
1.496553e+003;6.350562e-002
1.498482e+003;6.340906e-002
1.500410e+003;6.347850e-002
1.502339e+003;6.333721e-002
1.504267e+003;6.312975e-002
1.506196e+003;6.296907e-002
1.508125e+003;6.292111e-002
1.510053e+003;6.279149e-002
1.511982e+003;6.288561e-002
1.513910e+003;6.314760e-002
1.515839e+003;6.327818e-002
1.517767e+003;6.337751e-002
1.519696e+003;6.323383e-002
1.521624e+003;6.308085e-002
1.523553e+003;6.330244e-002
1.525481e+003;6.342444e-002
1.527410e+003;6.339472e-002
1.529339e+003;6.362053e-002
1.531267e+003;6.371998e-002
1.533196e+003;6.370808e-002
1.535124e+003;6.380025e-002
1.537053e+003;6.364969e-002
1.538981e+003;6.324191e-002
1.540910e+003;6.306583e-002
1.542838e+003;6.325936e-002
1.544767e+003;6.347969e-002
1.546695e+003;6.360427e-002
1.548624e+003;6.362103e-002
1.550553e+003;6.360730e-002
1.552481e+003;6.381579e-002
1.554410e+003;6.384366e-002
1.556338e+003;6.365916e-002
1.558267e+003;6.359437e-002
1.560195e+003;6.377769e-002
1.562124e+003;6.386228e-002
1.564052e+003;6.385092e-002
1.565981e+003;6.386604e-002
1.567910e+003;6.377036e-002
1.569838e+003;6.382516e-002
1.571767e+003;6.395049e-002
1.573695e+003;6.392273e-002
1.575624e+003;6.373920e-002
1.577552e+003;6.393252e-002
1.579481e+003;6.456183e-002
1.581409e+003;6.500705e-002
1.583338e+003;6.518427e-002
1.585266e+003;6.517472e-002
1.587195e+003;6.536303e-002
1.589124e+003;6.585260e-002
1.591052e+003;6.640219e-002
1.592981e+003;6.685445e-002
1.594909e+003;6.727847e-002
1.596838e+003;6.790578e-002
1.598766e+003;6.856447e-002
1.600695e+003;6.906043e-002
1.602623e+003;6.964972e-002
1.604552e+003;7.062146e-002
1.606480e+003;7.141205e-002
1.608409e+003;7.200141e-002
1.610338e+003;7.235933e-002
1.612266e+003;7.301124e-002
1.614195e+003;7.394780e-002
1.616123e+003;7.466184e-002
1.618052e+003;7.520531e-002
1.619980e+003;7.580584e-002
1.621909e+003;7.650722e-002
1.623837e+003;7.720157e-002
1.625766e+003;7.776127e-002
1.627694e+003;7.836995e-002
1.629623e+003;7.912418e-002
1.631552e+003;7.993285e-002
1.633480e+003;8.045720e-002
1.635409e+003;8.084626e-002
1.637337e+003;8.157350e-002
1.639266e+003;8.240261e-002
1.641194e+003;8.281907e-002
1.643123e+003;8.337539e-002
1.645051e+003;8.387848e-002
1.646980e+003;8.414553e-002
1.648909e+003;8.432095e-002
1.650837e+003;8.412345e-002
1.652766e+003;8.368672e-002
1.654694e+003;8.357553e-002
1.656623e+003;8.370026e-002
1.658551e+003;8.377423e-002
1.660480e+003;8.378050e-002
1.662408e+003;8.405083e-002
1.664337e+003;8.436015e-002
1.666266e+003;8.473315e-002
1.668194e+003;8.526882e-002
1.670123e+003;8.581940e-002
1.672051e+003;8.649618e-002
1.673980e+003;8.728459e-002
1.675908e+003;8.811483e-002
1.677837e+003;8.942854e-002
1.679765e+003;9.110828e-002
1.681694e+003;9.295608e-002
1.683622e+003;9.472445e-002
1.685551e+003;9.678197e-002
1.687479e+003;9.919539e-002
1.689408e+003;1.020575e-001
1.691337e+003;1.055577e-001
1.693265e+003;1.094541e-001
1.695194e+003;1.135907e-001
1.697122e+003;1.181974e-001
1.699051e+003;1.234168e-001
1.700979e+003;1.293775e-001
1.702908e+003;1.361912e-001
1.704836e+003;1.436963e-001
1.706765e+003;1.521220e-001
1.708693e+003;1.617634e-001
1.710622e+003;1.726240e-001
1.712551e+003;1.848411e-001
1.714479e+003;1.983173e-001
1.716408e+003;2.127781e-001
1.718336e+003;2.282108e-001
1.720265e+003;2.443026e-001
1.722193e+003;2.606822e-001
1.724122e+003;2.773461e-001
1.726050e+003;2.935915e-001
1.727979e+003;3.084033e-001
1.729908e+003;3.215211e-001
1.731836e+003;3.327379e-001
1.733765e+003;3.409746e-001
1.735693e+003;3.461514e-001
1.737622e+003;3.477224e-001
1.739550e+003;3.457230e-001
1.741479e+003;3.406370e-001
1.743407e+003;3.331741e-001
1.745336e+003;3.238590e-001
1.747265e+003;3.131107e-001
1.749193e+003;3.007909e-001
1.751122e+003;2.868787e-001
1.753050e+003;2.716692e-001
1.754979e+003;2.550025e-001
1.756907e+003;2.363832e-001
1.758836e+003;2.167120e-001
1.760764e+003;1.962576e-001
1.762693e+003;1.760007e-001
1.764621e+003;1.572215e-001
1.766550e+003;1.405749e-001
1.768479e+003;1.263743e-001
1.770407e+003;1.146409e-001
1.772336e+003;1.048220e-001
1.774264e+003;9.689262e-002
1.776193e+003;9.057414e-002
1.778121e+003;8.563320e-002
1.780050e+003;8.175053e-002
1.781978e+003;7.837968e-002
1.783907e+003;7.552436e-002
1.785835e+003;7.312286e-002
1.787764e+003;7.127182e-002
1.789693e+003;6.955983e-002
1.791621e+003;6.797340e-002
1.793550e+003;6.700698e-002
1.795478e+003;6.616157e-002
1.797407e+003;6.508796e-002
1.799335e+003;6.421704e-002
1.801264e+003;6.358670e-002
1.803192e+003;6.272013e-002
1.805121e+003;6.200412e-002
1.807049e+003;6.156803e-002
1.808978e+003;6.089626e-002
1.810907e+003;6.025656e-002
1.812835e+003;5.972363e-002
1.814764e+003;5.920582e-002
1.816692e+003;5.879981e-002
1.818621e+003;5.844288e-002
1.820549e+003;5.800986e-002
1.822478e+003;5.760088e-002
1.824406e+003;5.726297e-002
1.826335e+003;5.686602e-002
1.828264e+003;5.631972e-002
1.830192e+003;5.590310e-002
1.832121e+003;5.564171e-002
1.834049e+003;5.542129e-002
1.835978e+003;5.511230e-002
1.837906e+003;5.470220e-002
1.839835e+003;5.429925e-002
1.841763e+003;5.381344e-002
1.843692e+003;5.342424e-002
1.845620e+003;5.324367e-002
1.847549e+003;5.315974e-002
1.849478e+003;5.292455e-002
1.851406e+003;5.263649e-002
1.853335e+003;5.249987e-002
1.855263e+003;5.218765e-002
1.857192e+003;5.203564e-002
1.859120e+003;5.211823e-002
1.861049e+003;5.199833e-002
1.862977e+003;5.184844e-002
1.864906e+003;5.180431e-002
1.866834e+003;5.172081e-002
1.868763e+003;5.140646e-002
1.870692e+003;5.111508e-002
1.872620e+003;5.110513e-002
1.874549e+003;5.095927e-002
1.876477e+003;5.080020e-002
1.878406e+003;5.050297e-002
1.880334e+003;5.022343e-002
1.882263e+003;5.014060e-002
1.884191e+003;5.017418e-002
1.886120e+003;5.001707e-002
1.888048e+003;4.977273e-002
1.889977e+003;4.969850e-002
1.891906e+003;4.981245e-002
1.893834e+003;4.986727e-002
1.895763e+003;4.984594e-002
1.897691e+003;4.984178e-002
1.899620e+003;4.979328e-002
1.901548e+003;4.978135e-002
1.903477e+003;4.992663e-002
1.905405e+003;5.006716e-002
1.907334e+003;5.021707e-002
1.909262e+003;5.031479e-002
1.911191e+003;5.040606e-002
1.913120e+003;5.035646e-002
1.915048e+003;5.059506e-002
1.916977e+003;5.087522e-002
1.918905e+003;5.098602e-002
1.920834e+003;5.124850e-002
1.922762e+003;5.139497e-002
1.924691e+003;5.128340e-002
1.926619e+003;5.125532e-002
1.928548e+003;5.124824e-002
1.930477e+003;5.116074e-002
1.932405e+003;5.118046e-002
1.934334e+003;5.123881e-002
1.936262e+003;5.129831e-002
1.938191e+003;5.125085e-002
1.940119e+003;5.139259e-002
1.942048e+003;5.146308e-002
1.943976e+003;5.129257e-002
1.945905e+003;5.109044e-002
1.947833e+003;5.103845e-002
1.949762e+003;5.105116e-002
1.951691e+003;5.099649e-002
1.953619e+003;5.101721e-002
1.955548e+003;5.100585e-002
1.957476e+003;5.092105e-002
1.959405e+003;5.075261e-002
1.961333e+003;5.058077e-002
1.963262e+003;5.033146e-002
1.965190e+003;5.000785e-002
1.967119e+003;4.988024e-002
1.969047e+003;4.981681e-002
1.970976e+003;4.973892e-002
1.972905e+003;4.959649e-002
1.974833e+003;4.934051e-002
1.976762e+003;4.922690e-002
1.978690e+003;4.930899e-002
1.980619e+003;4.922118e-002
1.982547e+003;4.892970e-002
1.984476e+003;4.879974e-002
1.986404e+003;4.868282e-002
1.988333e+003;4.856116e-002
1.990261e+003;4.851365e-002
1.992190e+003;4.853163e-002
1.994119e+003;4.848913e-002
1.996047e+003;4.845364e-002
1.997976e+003;4.846786e-002
1.999904e+003;4.851647e-002
2.001833e+003;4.853752e-002
2.003761e+003;4.875937e-002
2.005690e+003;4.908256e-002
2.007618e+003;4.928553e-002
2.009547e+003;4.934214e-002
2.011476e+003;4.939255e-002
2.013404e+003;4.940551e-002
2.015333e+003;4.937704e-002
2.017261e+003;4.958609e-002
2.019190e+003;4.987233e-002
2.021118e+003;4.983936e-002
2.023047e+003;4.982074e-002
2.024975e+003;5.011145e-002
2.026904e+003;5.021357e-002
2.028833e+003;5.020595e-002
2.030761e+003;5.036736e-002
2.032690e+003;5.031822e-002
2.034618e+003;5.020156e-002
2.036547e+003;5.039270e-002
2.038475e+003;5.046077e-002
2.040404e+003;5.036788e-002
2.042332e+003;5.043654e-002
2.044261e+003;5.065348e-002
2.046189e+003;5.069984e-002
2.048118e+003;5.058773e-002
2.050047e+003;5.069876e-002
2.051975e+003;5.077607e-002
2.053904e+003;5.062019e-002
2.055832e+003;5.070077e-002
2.057761e+003;5.085693e-002
2.059689e+003;5.099158e-002
2.061618e+003;5.113073e-002
2.063546e+003;5.097719e-002
2.065475e+003;5.081730e-002
2.067404e+003;5.089899e-002
2.069332e+003;5.107062e-002
2.071260e+003;5.140161e-002
2.073189e+003;5.172256e-002
2.075118e+003;5.174574e-002
2.077046e+003;5.162736e-002
2.078975e+003;5.165575e-002
2.080903e+003;5.185161e-002
2.082832e+003;5.206138e-002
2.084760e+003;5.237171e-002
2.086689e+003;5.269536e-002
2.088617e+003;5.298983e-002
2.090546e+003;5.323588e-002
2.092475e+003;5.341941e-002
2.094403e+003;5.367335e-002
2.096332e+003;5.384352e-002
2.098260e+003;5.403012e-002
2.100189e+003;5.423655e-002
2.102117e+003;5.450017e-002
2.104046e+003;5.484436e-002
2.105974e+003;5.504193e-002
2.107903e+003;5.511930e-002
2.109832e+003;5.515379e-002
2.111760e+003;5.509470e-002
2.113688e+003;5.505825e-002
2.115617e+003;5.516512e-002
2.117546e+003;5.521870e-002
2.119474e+003;5.525475e-002
2.121403e+003;5.531296e-002
2.123331e+003;5.525855e-002
2.125260e+003;5.509729e-002
2.127188e+003;5.488726e-002
2.129117e+003;5.487557e-002
2.131045e+003;5.498423e-002
2.132974e+003;5.470623e-002
2.134903e+003;5.427384e-002
2.136831e+003;5.413464e-002
2.138760e+003;5.409981e-002
2.140688e+003;5.397156e-002
2.142617e+003;5.382514e-002
2.144545e+003;5.370514e-002
2.146474e+003;5.334413e-002
2.148402e+003;5.308121e-002
2.150331e+003;5.305950e-002
2.152260e+003;5.285108e-002
2.154188e+003;5.256430e-002
2.156117e+003;5.238726e-002
2.158045e+003;5.225667e-002
2.159974e+003;5.205032e-002
2.161902e+003;5.188660e-002
2.163831e+003;5.149584e-002
2.165759e+003;5.114229e-002
2.167688e+003;5.098371e-002
2.169616e+003;5.081949e-002
2.171545e+003;5.046203e-002
2.173474e+003;5.020569e-002
2.175402e+003;5.017500e-002
2.177331e+003;4.997518e-002
2.179259e+003;4.978931e-002
2.181188e+003;4.957276e-002
2.183116e+003;4.942103e-002
2.185045e+003;4.914207e-002
2.186973e+003;4.885839e-002
2.188902e+003;4.881479e-002
2.190831e+003;4.873327e-002
2.192759e+003;4.849480e-002
2.194688e+003;4.843475e-002
2.196616e+003;4.842649e-002
2.198545e+003;4.825523e-002
2.200473e+003;4.817345e-002
2.202402e+003;4.807950e-002
2.204330e+003;4.814309e-002
2.206259e+003;4.814150e-002
2.208188e+003;4.817630e-002
2.210116e+003;4.821462e-002
2.212044e+003;4.816523e-002
2.213973e+003;4.793743e-002
2.215902e+003;4.775687e-002
2.217830e+003;4.771822e-002
2.219759e+003;4.779589e-002
2.221687e+003;4.778960e-002
2.223616e+003;4.772535e-002
2.225544e+003;4.761996e-002
2.227473e+003;4.749150e-002
2.229401e+003;4.747660e-002
2.231330e+003;4.732210e-002
2.233259e+003;4.708359e-002
2.235187e+003;4.710357e-002
2.237116e+003;4.729025e-002
2.239044e+003;4.760617e-002
2.240973e+003;4.771992e-002
2.242901e+003;4.760588e-002
2.244830e+003;4.759871e-002
2.246758e+003;4.772535e-002
2.248687e+003;4.761024e-002
2.250615e+003;4.740775e-002
2.252544e+003;4.748574e-002
2.254473e+003;4.759819e-002
2.256401e+003;4.748891e-002
2.258330e+003;4.739001e-002
2.260258e+003;4.746574e-002
2.262187e+003;4.757686e-002
2.264115e+003;4.753756e-002
2.266044e+003;4.742778e-002
2.267972e+003;4.725360e-002
2.269901e+003;4.716864e-002
2.271830e+003;4.701151e-002
2.273758e+003;4.688570e-002
2.275687e+003;4.679468e-002
2.277615e+003;4.676398e-002
2.279544e+003;4.677025e-002
2.281472e+003;4.659327e-002
2.283401e+003;4.638720e-002
2.285329e+003;4.632615e-002
2.287258e+003;4.627616e-002
2.289187e+003;4.593947e-002
2.291115e+003;4.572903e-002
2.293043e+003;4.555976e-002
2.294972e+003;4.529798e-002
2.296901e+003;4.497245e-002
2.298829e+003;4.474771e-002
2.300758e+003;4.476317e-002
2.302686e+003;4.491100e-002
2.304615e+003;4.485258e-002
2.306543e+003;4.477015e-002
2.308472e+003;4.477375e-002
2.310400e+003;4.470969e-002
2.312329e+003;4.474385e-002
2.314258e+003;4.472593e-002
2.316186e+003;4.453219e-002
2.318115e+003;4.424949e-002
2.320043e+003;4.449324e-002
2.321972e+003;4.472012e-002
2.323900e+003;4.466607e-002
2.325829e+003;4.463731e-002
2.327757e+003;4.462347e-002
2.329686e+003;4.447805e-002
2.331615e+003;4.438750e-002
2.333543e+003;4.448554e-002
2.335472e+003;4.473438e-002
2.337400e+003;4.506815e-002
2.339329e+003;4.541244e-002
2.341257e+003;4.565541e-002
2.343186e+003;4.560738e-002
2.345114e+003;4.568276e-002
2.347043e+003;4.572137e-002
2.348971e+003;4.553183e-002
2.350900e+003;4.554372e-002
2.352829e+003;4.581953e-002
2.354757e+003;4.612731e-002
2.356686e+003;4.623927e-002
2.358614e+003;4.618594e-002
2.360543e+003;4.616541e-002
2.362471e+003;4.608461e-002
2.364400e+003;4.605274e-002
2.366328e+003;4.621026e-002
2.368257e+003;4.621778e-002
2.370186e+003;4.604567e-002
2.372114e+003;4.586250e-002
2.374042e+003;4.563929e-002
2.375971e+003;4.553375e-002
2.377900e+003;4.556940e-002
2.379828e+003;4.551711e-002
2.381757e+003;4.549931e-002
2.383685e+003;4.545648e-002
2.385614e+003;4.565158e-002
2.387542e+003;4.602043e-002
2.389471e+003;4.621034e-002
2.391399e+003;4.620101e-002
2.393328e+003;4.611088e-002
2.395257e+003;4.626698e-002
2.397185e+003;4.669989e-002
2.399114e+003;4.697714e-002
2.401042e+003;4.696274e-002
2.402971e+003;4.711261e-002
2.404899e+003;4.751568e-002
2.406828e+003;4.792696e-002
2.408756e+003;4.805329e-002
2.410685e+003;4.814298e-002
2.412614e+003;4.815501e-002
2.414542e+003;4.815831e-002
2.416471e+003;4.817111e-002
2.418399e+003;4.795182e-002
2.420328e+003;4.783276e-002
2.422256e+003;4.787287e-002
2.424185e+003;4.807180e-002
2.426113e+003;4.816360e-002
2.428042e+003;4.814446e-002
2.429970e+003;4.813239e-002
2.431899e+003;4.795970e-002
2.433828e+003;4.793532e-002
2.435756e+003;4.799123e-002
2.437685e+003;4.809638e-002
2.439613e+003;4.829774e-002
2.441542e+003;4.822795e-002
2.443470e+003;4.824609e-002
2.445399e+003;4.831171e-002
2.447327e+003;4.840600e-002
2.449256e+003;4.839556e-002
2.451185e+003;4.806943e-002
2.453113e+003;4.794642e-002
2.455042e+003;4.801710e-002
2.456970e+003;4.805392e-002
2.458899e+003;4.823416e-002
2.460827e+003;4.841871e-002
2.462756e+003;4.836196e-002
2.464684e+003;4.815309e-002
2.466613e+003;4.807047e-002
2.468542e+003;4.821973e-002
2.470470e+003;4.820858e-002
2.472398e+003;4.817471e-002
2.474327e+003;4.811611e-002
2.476256e+003;4.809364e-002
2.478184e+003;4.806510e-002
2.480113e+003;4.807535e-002
2.482041e+003;4.803560e-002
2.483970e+003;4.784612e-002
2.485898e+003;4.763054e-002
2.487827e+003;4.758514e-002
2.489755e+003;4.752322e-002
2.491684e+003;4.747476e-002
2.493613e+003;4.745332e-002
2.495541e+003;4.733285e-002
2.497470e+003;4.722597e-002
2.499398e+003;4.708289e-002
2.501327e+003;4.681664e-002
2.503255e+003;4.659523e-002
2.505184e+003;4.675575e-002
2.507112e+003;4.667174e-002
2.509041e+003;4.644166e-002
2.510969e+003;4.650398e-002
2.512898e+003;4.645538e-002
2.514827e+003;4.634001e-002
2.516755e+003;4.617396e-002
2.518684e+003;4.603561e-002
2.520612e+003;4.619206e-002
2.522541e+003;4.627992e-002
2.524469e+003;4.640228e-002
2.526398e+003;4.628398e-002
2.528326e+003;4.614769e-002
2.530255e+003;4.615473e-002
2.532184e+003;4.616656e-002
2.534112e+003;4.632862e-002
2.536041e+003;4.616980e-002
2.537969e+003;4.587347e-002
2.539898e+003;4.589266e-002
2.541826e+003;4.591174e-002
2.543755e+003;4.579825e-002
2.545683e+003;4.579316e-002
2.547612e+003;4.606014e-002
2.549541e+003;4.609032e-002
2.551469e+003;4.606037e-002
2.553397e+003;4.604843e-002
2.555326e+003;4.619832e-002
2.557255e+003;4.634816e-002
2.559183e+003;4.639523e-002
2.561112e+003;4.647474e-002
2.563040e+003;4.660201e-002
2.564969e+003;4.683328e-002
2.566897e+003;4.710334e-002
2.568826e+003;4.715180e-002
2.570754e+003;4.715557e-002
2.572683e+003;4.747095e-002
2.574612e+003;4.760950e-002
2.576540e+003;4.764563e-002
2.578469e+003;4.784109e-002
2.580397e+003;4.807642e-002
2.582326e+003;4.822587e-002
2.584254e+003;4.829819e-002
2.586183e+003;4.838970e-002
2.588111e+003;4.854352e-002
2.590040e+003;4.861952e-002
2.591969e+003;4.869331e-002
2.593897e+003;4.897669e-002
2.595826e+003;4.910960e-002
2.597754e+003;4.878387e-002
2.599683e+003;4.870076e-002
2.601611e+003;4.894617e-002
2.603540e+003;4.905437e-002
2.605468e+003;4.907703e-002
2.607397e+003;4.911743e-002
2.609325e+003;4.927247e-002
2.611254e+003;4.936839e-002
2.613183e+003;4.940677e-002
2.615111e+003;4.972306e-002
2.617040e+003;5.011155e-002
2.618968e+003;5.009519e-002
2.620897e+003;4.966313e-002
2.622825e+003;4.969437e-002
2.624754e+003;5.012543e-002
2.626682e+003;5.017597e-002
2.628611e+003;5.008861e-002
2.630540e+003;5.023399e-002
2.632468e+003;5.043833e-002
2.634396e+003;5.053364e-002
2.636325e+003;5.051306e-002
2.638254e+003;5.047093e-002
2.640182e+003;5.056387e-002
2.642111e+003;5.063401e-002
2.644039e+003;5.073216e-002
2.645968e+003;5.088006e-002
2.647896e+003;5.082408e-002
2.649825e+003;5.051954e-002
2.651753e+003;5.039847e-002
2.653682e+003;5.060783e-002
2.655611e+003;5.077111e-002
2.657539e+003;5.058219e-002
2.659468e+003;5.036818e-002
2.661396e+003;5.032391e-002
2.663325e+003;5.031152e-002
2.665253e+003;5.049955e-002
2.667182e+003;5.064134e-002
2.669110e+003;5.055121e-002
2.671039e+003;5.042564e-002
2.672968e+003;5.036989e-002
2.674896e+003;5.044637e-002
2.676825e+003;5.053863e-002
2.678753e+003;5.073417e-002
2.680682e+003;5.072989e-002
2.682610e+003;5.062920e-002
2.684539e+003;5.059049e-002
2.686467e+003;5.042251e-002
2.688396e+003;5.059421e-002
2.690324e+003;5.108690e-002
2.692253e+003;5.112268e-002
2.694182e+003;5.102474e-002
2.696110e+003;5.118855e-002
2.698039e+003;5.130227e-002
2.699967e+003;5.131532e-002
2.701896e+003;5.148024e-002
2.703824e+003;5.181633e-002
2.705753e+003;5.214039e-002
2.707681e+003;5.228515e-002
2.709610e+003;5.251233e-002
2.711539e+003;5.279986e-002
2.713467e+003;5.304445e-002
2.715396e+003;5.346917e-002
2.717324e+003;5.351396e-002
2.719253e+003;5.339149e-002
2.721181e+003;5.358304e-002
2.723110e+003;5.376349e-002
2.725038e+003;5.376191e-002
2.726967e+003;5.389518e-002
2.728896e+003;5.405553e-002
2.730824e+003;5.398457e-002
2.732752e+003;5.389281e-002
2.734681e+003;5.393486e-002
2.736610e+003;5.385178e-002
2.738538e+003;5.367991e-002
2.740467e+003;5.376319e-002
2.742395e+003;5.377339e-002
2.744324e+003;5.372168e-002
2.746252e+003;5.385406e-002
2.748181e+003;5.376113e-002
2.750109e+003;5.339966e-002
2.752038e+003;5.314251e-002
2.753967e+003;5.347633e-002
2.755895e+003;5.357981e-002
2.757824e+003;5.329869e-002
2.759752e+003;5.328967e-002
2.761681e+003;5.354874e-002
2.763609e+003;5.378220e-002
2.765538e+003;5.380905e-002
2.767466e+003;5.390598e-002
2.769395e+003;5.391142e-002
2.771323e+003;5.386584e-002
2.773252e+003;5.385181e-002
2.775181e+003;5.397775e-002
2.777109e+003;5.415074e-002
2.779038e+003;5.442043e-002
2.780966e+003;5.474637e-002
2.782895e+003;5.505501e-002
2.784823e+003;5.514755e-002
2.786752e+003;5.500044e-002
2.788680e+003;5.516873e-002
2.790609e+003;5.568190e-002
2.792538e+003;5.602314e-002
2.794466e+003;5.605680e-002
2.796395e+003;5.607611e-002
2.798323e+003;5.629291e-002
2.800252e+003;5.649007e-002
2.802180e+003;5.642849e-002
2.804109e+003;5.648317e-002
2.806037e+003;5.686152e-002
2.807966e+003;5.722721e-002
2.809895e+003;5.705952e-002
2.811823e+003;5.707935e-002
2.813751e+003;5.763008e-002
2.815680e+003;5.804152e-002
2.817609e+003;5.823827e-002
2.819537e+003;5.847647e-002
2.821466e+003;5.858612e-002
2.823394e+003;5.881293e-002
2.825323e+003;5.898567e-002
2.827251e+003;5.920403e-002
2.829180e+003;5.945496e-002
2.831108e+003;5.972405e-002
2.833037e+003;6.009816e-002
2.834966e+003;6.063399e-002
2.836894e+003;6.124075e-002
2.838823e+003;6.187220e-002
2.840751e+003;6.237970e-002
2.842680e+003;6.300105e-002
2.844608e+003;6.375156e-002
2.846537e+003;6.463680e-002
2.848465e+003;6.537535e-002
2.850394e+003;6.602951e-002
2.852323e+003;6.657688e-002
2.854251e+003;6.716269e-002
2.856180e+003;6.809834e-002
2.858108e+003;6.891735e-002
2.860037e+003;6.949155e-002
2.861965e+003;7.064680e-002
2.863894e+003;7.159120e-002
2.865822e+003;7.210710e-002
2.867751e+003;7.264657e-002
2.869679e+003;7.323349e-002
2.871608e+003;7.351416e-002
2.873536e+003;7.368259e-002
2.875465e+003;7.421289e-002
2.877394e+003;7.472362e-002
2.879322e+003;7.469064e-002
2.881251e+003;7.449947e-002
2.883179e+003;7.493437e-002
2.885108e+003;7.521626e-002
2.887036e+003;7.529661e-002
2.888965e+003;7.533865e-002
2.890893e+003;7.510068e-002
2.892822e+003;7.498438e-002
2.894750e+003;7.482402e-002
2.896679e+003;7.455202e-002
2.898608e+003;7.440469e-002
2.900536e+003;7.430485e-002
2.902465e+003;7.440350e-002
2.904393e+003;7.439910e-002
2.906322e+003;7.427473e-002
2.908250e+003;7.423699e-002
2.910179e+003;7.375763e-002
2.912107e+003;7.324459e-002
2.914036e+003;7.321082e-002
2.915965e+003;7.311490e-002
2.917893e+003;7.300302e-002
2.919822e+003;7.299357e-002
2.921750e+003;7.268628e-002
2.923679e+003;7.277333e-002
2.925607e+003;7.335803e-002
2.927536e+003;7.356137e-002
2.929464e+003;7.370214e-002
2.931393e+003;7.411837e-002
2.933322e+003;7.515957e-002
2.935250e+003;7.600390e-002
2.937178e+003;7.621516e-002
2.939107e+003;7.677672e-002
2.941036e+003;7.752791e-002
2.942964e+003;7.760333e-002
2.944893e+003;7.754062e-002
2.946821e+003;7.728849e-002
2.948750e+003;7.689521e-002
2.950678e+003;7.656487e-002
2.952607e+003;7.591420e-002
2.954535e+003;7.552195e-002
2.956464e+003;7.530425e-002
2.958393e+003;7.514524e-002
2.960321e+003;7.483131e-002
2.962250e+003;7.443992e-002
2.964178e+003;7.383346e-002
2.966107e+003;7.293834e-002
2.968035e+003;7.203294e-002
2.969964e+003;7.123005e-002
2.971892e+003;7.072888e-002
2.973821e+003;7.017804e-002
2.975750e+003;6.973740e-002
2.977678e+003;6.947530e-002
2.979607e+003;6.903122e-002
2.981535e+003;6.859089e-002
2.983464e+003;6.833557e-002
2.985392e+003;6.802675e-002
2.987321e+003;6.787518e-002
2.989249e+003;6.761780e-002
2.991178e+003;6.741617e-002
2.993106e+003;6.723313e-002
2.995035e+003;6.697891e-002
2.996964e+003;6.660995e-002
2.998892e+003;6.626970e-002
3.000821e+003;6.601319e-002
3.002749e+003;6.560332e-002
3.004678e+003;6.529871e-002
3.006606e+003;6.522559e-002
3.008535e+003;6.501875e-002
3.010463e+003;6.467414e-002
3.012392e+003;6.442945e-002
3.014321e+003;6.459855e-002
3.016249e+003;6.471098e-002
3.018177e+003;6.429403e-002
3.020106e+003;6.380286e-002
3.022035e+003;6.374077e-002
3.023963e+003;6.387337e-002
3.025892e+003;6.378675e-002
3.027820e+003;6.361371e-002
3.029749e+003;6.331053e-002
3.031677e+003;6.266458e-002
3.033606e+003;6.244378e-002
3.035534e+003;6.267580e-002
3.037463e+003;6.204440e-002
3.039392e+003;6.117506e-002
3.041320e+003;6.057593e-002
3.043249e+003;6.019536e-002
3.045177e+003;5.984991e-002
3.047106e+003;5.955011e-002
3.049034e+003;5.941480e-002
3.050963e+003;5.920996e-002
3.052891e+003;5.866454e-002
3.054820e+003;5.835385e-002
3.056749e+003;5.811200e-002
3.058677e+003;5.788317e-002
3.060606e+003;5.770917e-002
3.062534e+003;5.755049e-002
3.064463e+003;5.720275e-002
3.066391e+003;5.694470e-002
3.068320e+003;5.699139e-002
3.070248e+003;5.676209e-002
3.072177e+003;5.652068e-002
3.074105e+003;5.648154e-002
3.076034e+003;5.655449e-002
3.077963e+003;5.635681e-002
3.079891e+003;5.599785e-002
3.081820e+003;5.615442e-002
3.083748e+003;5.625560e-002
3.085677e+003;5.613666e-002
3.087605e+003;5.581775e-002
3.089534e+003;5.557780e-002
3.091462e+003;5.584107e-002
3.093391e+003;5.583749e-002
3.095320e+003;5.576380e-002
3.097248e+003;5.565391e-002
3.099177e+003;5.542870e-002
3.101105e+003;5.543202e-002
3.103034e+003;5.551782e-002
3.104962e+003;5.519078e-002
3.106891e+003;5.511531e-002
3.108819e+003;5.528647e-002
3.110748e+003;5.550505e-002
3.112677e+003;5.551096e-002
3.114605e+003;5.521015e-002
3.116533e+003;5.506058e-002
3.118462e+003;5.527255e-002
3.120391e+003;5.557856e-002
3.122319e+003;5.543134e-002
3.124248e+003;5.506103e-002
3.126176e+003;5.464738e-002
3.128105e+003;5.467872e-002
3.130033e+003;5.475227e-002
3.131962e+003;5.456979e-002
3.133890e+003;5.457325e-002
3.135819e+003;5.477535e-002
3.137748e+003;5.485109e-002
3.139676e+003;5.484301e-002
3.141605e+003;5.488598e-002
3.143533e+003;5.468849e-002
3.145462e+003;5.451652e-002
3.147390e+003;5.440950e-002
3.149319e+003;5.433331e-002
3.151247e+003;5.428270e-002
3.153176e+003;5.438254e-002
3.155104e+003;5.449176e-002
3.157033e+003;5.463404e-002
3.158962e+003;5.483049e-002
3.160890e+003;5.508992e-002
3.162819e+003;5.519639e-002
3.164747e+003;5.504065e-002
3.166676e+003;5.503839e-002
3.168604e+003;5.509041e-002
3.170533e+003;5.499984e-002
3.172461e+003;5.496382e-002
3.174390e+003;5.523834e-002
3.176319e+003;5.550423e-002
3.178247e+003;5.553164e-002
3.180176e+003;5.525501e-002
3.182104e+003;5.523909e-002
3.184033e+003;5.552283e-002
3.185961e+003;5.579307e-002
3.187890e+003;5.595963e-002
3.189818e+003;5.592763e-002
3.191747e+003;5.579435e-002
3.193676e+003;5.579861e-002
3.195604e+003;5.575603e-002
3.197532e+003;5.555107e-002
3.199461e+003;5.556342e-002
3.201390e+003;5.591455e-002
3.203318e+003;5.615322e-002
3.205247e+003;5.591267e-002
3.207175e+003;5.578109e-002
3.209104e+003;5.585976e-002
3.211032e+003;5.614741e-002
3.212961e+003;5.698403e-002
3.214889e+003;5.728402e-002
3.216818e+003;5.712708e-002
3.218747e+003;5.717962e-002
3.220675e+003;5.724989e-002
3.222604e+003;5.724966e-002
3.224532e+003;5.732304e-002
3.226461e+003;5.744942e-002
3.228389e+003;5.760701e-002
3.230318e+003;5.766679e-002
3.232246e+003;5.772745e-002
3.234175e+003;5.780685e-002
3.236104e+003;5.824759e-002
3.238032e+003;5.890077e-002
3.239961e+003;5.883619e-002
3.241889e+003;5.867083e-002
3.243818e+003;5.862294e-002
3.245746e+003;5.861922e-002
3.247675e+003;5.901584e-002
3.249603e+003;5.905740e-002
3.251532e+003;5.889716e-002
3.253460e+003;5.886943e-002
3.255389e+003;5.923107e-002
3.257318e+003;5.948452e-002
3.259246e+003;5.912099e-002
3.261175e+003;5.897026e-002
3.263103e+003;5.920551e-002
3.265032e+003;5.956614e-002
3.266960e+003;6.006464e-002
3.268889e+003;6.024541e-002
3.270817e+003;6.009268e-002
3.272746e+003;6.011570e-002
3.274675e+003;6.023163e-002
3.276603e+003;6.002701e-002
3.278531e+003;6.022698e-002
3.280460e+003;6.073077e-002
3.282389e+003;6.090057e-002
3.284317e+003;6.085883e-002
3.286246e+003;6.089672e-002
3.288174e+003;6.109161e-002
3.290103e+003;6.108371e-002
3.292031e+003;6.092051e-002
3.293960e+003;6.101549e-002
3.295888e+003;6.133950e-002
3.297817e+003;6.190453e-002
3.299746e+003;6.219529e-002
3.301674e+003;6.219747e-002
3.303603e+003;6.218179e-002
3.305531e+003;6.205098e-002
3.307460e+003;6.188997e-002
3.309388e+003;6.199934e-002
3.311317e+003;6.253706e-002
3.313245e+003;6.275680e-002
3.315174e+003;6.275397e-002
3.317103e+003;6.314952e-002
3.319031e+003;6.352755e-002
3.320960e+003;6.333211e-002
3.322888e+003;6.324928e-002
3.324817e+003;6.351570e-002
3.326745e+003;6.378007e-002
3.328674e+003;6.385844e-002
3.330602e+003;6.397069e-002
3.332531e+003;6.443752e-002
3.334459e+003;6.459670e-002
3.336388e+003;6.435658e-002
3.338317e+003;6.427547e-002
3.340245e+003;6.449344e-002
3.342174e+003;6.521769e-002
3.344102e+003;6.550717e-002
3.346031e+003;6.521893e-002
3.347959e+003;6.529702e-002
3.349888e+003;6.550817e-002
3.351816e+003;6.565788e-002
3.353745e+003;6.591592e-002
3.355674e+003;6.596151e-002
3.357602e+003;6.600992e-002
3.359531e+003;6.641975e-002
3.361459e+003;6.645276e-002
3.363388e+003;6.635740e-002
3.365316e+003;6.636080e-002
3.367245e+003;6.629487e-002
3.369173e+003;6.675138e-002
3.371102e+003;6.691938e-002
3.373031e+003;6.677917e-002
3.374959e+003;6.703203e-002
3.376887e+003;6.727901e-002
3.378816e+003;6.721658e-002
3.380745e+003;6.713497e-002
3.382673e+003;6.733209e-002
3.384602e+003;6.766979e-002
3.386530e+003;6.774132e-002
3.388459e+003;6.806989e-002
3.390387e+003;6.838106e-002
3.392316e+003;6.847303e-002
3.394244e+003;6.889226e-002
3.396173e+003;6.896589e-002
3.398102e+003;6.905355e-002
3.400030e+003;6.958535e-002
3.401959e+003;6.965750e-002
3.403887e+003;6.911684e-002
3.405816e+003;6.935222e-002
3.407744e+003;6.971585e-002
3.409673e+003;6.950182e-002
3.411601e+003;6.940489e-002
3.413530e+003;6.971978e-002
3.415458e+003;6.998355e-002
3.417387e+003;7.025368e-002
3.419316e+003;7.055172e-002
3.421244e+003;7.067437e-002
3.423173e+003;7.086948e-002
3.425101e+003;7.087466e-002
3.427030e+003;7.084268e-002
3.428958e+003;7.143576e-002
3.430887e+003;7.218745e-002
3.432815e+003;7.202996e-002
3.434744e+003;7.150091e-002
3.436673e+003;7.126312e-002
3.438601e+003;7.172403e-002
3.440530e+003;7.244455e-002
3.442458e+003;7.272866e-002
3.444387e+003;7.282258e-002
3.446315e+003;7.284629e-002
3.448244e+003;7.287826e-002
3.450172e+003;7.315584e-002
3.452101e+003;7.352801e-002
3.454030e+003;7.383098e-002
3.455958e+003;7.431169e-002
3.457886e+003;7.425287e-002
3.459815e+003;7.421085e-002
3.461744e+003;7.428963e-002
3.463672e+003;7.440551e-002
3.465601e+003;7.480769e-002
3.467529e+003;7.501813e-002
3.469458e+003;7.533696e-002
3.471386e+003;7.577720e-002
3.473315e+003;7.541689e-002
3.475243e+003;7.498820e-002
3.477172e+003;7.539833e-002
3.479101e+003;7.536057e-002
3.481029e+003;7.486177e-002
3.482958e+003;7.502550e-002
3.484886e+003;7.550488e-002
3.486815e+003;7.541630e-002
3.488743e+003;7.524393e-002
3.490672e+003;7.516544e-002
3.492600e+003;7.499297e-002
3.494529e+003;7.497092e-002
3.496458e+003;7.510206e-002
3.498386e+003;7.502380e-002
3.500315e+003;7.475184e-002
3.502243e+003;7.453078e-002
3.504172e+003;7.445935e-002
3.506100e+003;7.426211e-002
3.508029e+003;7.433221e-002
3.509957e+003;7.432994e-002
3.511886e+003;7.415138e-002
3.513814e+003;7.431094e-002
3.515743e+003;7.391991e-002
3.517672e+003;7.332908e-002
3.519600e+003;7.328110e-002
3.521529e+003;7.345852e-002
3.523457e+003;7.342080e-002
3.525386e+003;7.305805e-002
3.527314e+003;7.274292e-002
3.529243e+003;7.279711e-002
3.531171e+003;7.243832e-002
3.533100e+003;7.198299e-002
3.535029e+003;7.164442e-002
3.536957e+003;7.107673e-002
3.538885e+003;7.101125e-002
3.540814e+003;7.134117e-002
3.542743e+003;7.139764e-002
3.544671e+003;7.088539e-002
3.546600e+003;7.033307e-002
3.548528e+003;7.002342e-002
3.550457e+003;6.969515e-002
3.552385e+003;6.945376e-002
3.554314e+003;6.909415e-002
3.556242e+003;6.869028e-002
3.558171e+003;6.829973e-002
3.560100e+003;6.806175e-002
3.562028e+003;6.796169e-002
3.563957e+003;6.761064e-002
3.565885e+003;6.666391e-002
3.567814e+003;6.631286e-002
3.569742e+003;6.661566e-002
3.571671e+003;6.619464e-002
3.573599e+003;6.563025e-002
3.575528e+003;6.545004e-002
3.577457e+003;6.511813e-002
3.579385e+003;6.467987e-002
3.581314e+003;6.427924e-002
3.583242e+003;6.420152e-002
3.585171e+003;6.385349e-002
3.587099e+003;6.301887e-002
3.589028e+003;6.275431e-002
3.590956e+003;6.275401e-002
3.592885e+003;6.261781e-002
3.594813e+003;6.241226e-002
3.596742e+003;6.203217e-002
3.598671e+003;6.165452e-002
3.600599e+003;6.118711e-002
3.602528e+003;6.082029e-002
3.604456e+003;6.107467e-002
3.606385e+003;6.158555e-002
3.608313e+003;6.138381e-002
3.610242e+003;6.086973e-002
3.612170e+003;6.050177e-002
3.614099e+003;5.985983e-002
3.616028e+003;5.939352e-002
3.617956e+003;5.917012e-002
3.619885e+003;5.910729e-002
3.621813e+003;5.910258e-002
3.623742e+003;5.902248e-002
3.625670e+003;5.886605e-002
3.627599e+003;5.869151e-002
3.629527e+003;5.828249e-002
3.631456e+003;5.797264e-002
3.633385e+003;5.748785e-002
3.635313e+003;5.686141e-002
3.637241e+003;5.664248e-002
3.639170e+003;5.651679e-002
3.641099e+003;5.615242e-002
3.643027e+003;5.595613e-002
3.644956e+003;5.563056e-002
3.646884e+003;5.498303e-002
3.648813e+003;5.449274e-002
3.650741e+003;5.426835e-002
3.652670e+003;5.403609e-002
3.654598e+003;5.321090e-002
3.656527e+003;5.223615e-002
3.658456e+003;5.160814e-002
3.660384e+003;5.085924e-002
3.662313e+003;5.028019e-002
3.664241e+003;4.986389e-002
3.666170e+003;4.931003e-002
3.668098e+003;4.867570e-002
3.670027e+003;4.764152e-002
3.671955e+003;4.656011e-002
3.673884e+003;4.578573e-002
3.675813e+003;4.522083e-002
3.677741e+003;4.475708e-002
3.679669e+003;4.372272e-002
3.681598e+003;4.280189e-002
3.683527e+003;4.217714e-002
3.685455e+003;4.149538e-002
3.687384e+003;4.113232e-002
3.689312e+003;4.105183e-002
3.691241e+003;4.090884e-002
3.693169e+003;4.022438e-002
3.695098e+003;3.957102e-002
3.697026e+003;3.919742e-002
3.698955e+003;3.910477e-002
3.700884e+003;3.866698e-002
3.702812e+003;3.822938e-002
3.704741e+003;3.812121e-002
3.706669e+003;3.806449e-002
3.708598e+003;3.789894e-002
3.710526e+003;3.787454e-002
3.712455e+003;3.780567e-002
3.714383e+003;3.776403e-002
3.716312e+003;3.759639e-002
3.718240e+003;3.718867e-002
3.720169e+003;3.682422e-002
3.722098e+003;3.655615e-002
3.724026e+003;3.626328e-002
3.725955e+003;3.630431e-002
3.727883e+003;3.638825e-002
3.729812e+003;3.636541e-002
3.731740e+003;3.637506e-002
3.733669e+003;3.647455e-002
3.735597e+003;3.660665e-002
3.737526e+003;3.661155e-002
3.739455e+003;3.645098e-002
3.741383e+003;3.657921e-002
3.743312e+003;3.663210e-002
3.745240e+003;3.621077e-002
3.747169e+003;3.572332e-002
3.749097e+003;3.550487e-002
3.751026e+003;3.568652e-002
3.752954e+003;3.587232e-002
3.754883e+003;3.597706e-002
3.756812e+003;3.561941e-002
3.758740e+003;3.545935e-002
3.760668e+003;3.548326e-002
3.762597e+003;3.539414e-002
3.764526e+003;3.577726e-002
3.766454e+003;3.614162e-002
3.768383e+003;3.586710e-002
3.770311e+003;3.509329e-002
3.772240e+003;3.527819e-002
3.774168e+003;3.572825e-002
3.776097e+003;3.565368e-002
3.778025e+003;3.552292e-002
3.779954e+003;3.563746e-002
3.781883e+003;3.567300e-002
3.783811e+003;3.522313e-002
3.785740e+003;3.490183e-002
3.787668e+003;3.494258e-002
3.789597e+003;3.524433e-002
3.791525e+003;3.577970e-002
3.793454e+003;3.608448e-002
3.795382e+003;3.591637e-002
3.797311e+003;3.578233e-002
3.799240e+003;3.562038e-002
3.801168e+003;3.541031e-002
3.803097e+003;3.575660e-002
3.805025e+003;3.572278e-002
3.806954e+003;3.535003e-002
3.808882e+003;3.580528e-002
3.810811e+003;3.650263e-002
3.812739e+003;3.637618e-002
3.814668e+003;3.589140e-002
3.816596e+003;3.568030e-002
3.818525e+003;3.594283e-002
3.820454e+003;3.603397e-002
3.822382e+003;3.607015e-002
3.824311e+003;3.601611e-002
3.826239e+003;3.568735e-002
3.828168e+003;3.562232e-002
3.830096e+003;3.597169e-002
3.832025e+003;3.593401e-002
3.833953e+003;3.569735e-002
3.835882e+003;3.558855e-002
3.837811e+003;3.546647e-002
3.839739e+003;3.557431e-002
3.841667e+003;3.556517e-002
3.843596e+003;3.522734e-002
3.845525e+003;3.527297e-002
3.847453e+003;3.566174e-002
3.849382e+003;3.601687e-002
3.851310e+003;3.608862e-002
3.853239e+003;3.612373e-002
3.855167e+003;3.622665e-002
3.857096e+003;3.605899e-002
3.859024e+003;3.591256e-002
3.860953e+003;3.594815e-002
3.862882e+003;3.631346e-002
3.864810e+003;3.650371e-002
3.866739e+003;3.607361e-002
3.868667e+003;3.570627e-002
3.870596e+003;3.608437e-002
3.872524e+003;3.654717e-002
3.874453e+003;3.642237e-002
3.876381e+003;3.598768e-002
3.878310e+003;3.607537e-002
3.880239e+003;3.646965e-002
3.882167e+003;3.640821e-002
3.884096e+003;3.625518e-002
3.886024e+003;3.675671e-002
3.887953e+003;3.699664e-002
3.889881e+003;3.697070e-002
3.891810e+003;3.706791e-002
3.893738e+003;3.692990e-002
3.895667e+003;3.665982e-002
3.897595e+003;3.656444e-002
3.899524e+003;3.685484e-002
3.901453e+003;3.731643e-002
3.903381e+003;3.736883e-002
3.905310e+003;3.715399e-002
3.907238e+003;3.740281e-002
3.909167e+003;3.810450e-002
3.911095e+003;3.833845e-002
3.913024e+003;3.823286e-002
3.914952e+003;3.805429e-002
3.916881e+003;3.779085e-002
3.918810e+003;3.794023e-002
3.920738e+003;3.788893e-002
3.922667e+003;3.783589e-002
3.924595e+003;3.809498e-002
3.926524e+003;3.822804e-002
3.928452e+003;3.865561e-002
3.930381e+003;3.905550e-002
3.932309e+003;3.904350e-002
3.934238e+003;3.862997e-002
3.936167e+003;3.847195e-002
3.938095e+003;3.879087e-002
3.940023e+003;3.918345e-002
3.941952e+003;3.938759e-002
3.943881e+003;3.945043e-002
3.945809e+003;3.914135e-002
3.947738e+003;3.888682e-002
3.949666e+003;3.940787e-002
3.951595e+003;3.964046e-002
3.953523e+003;3.967494e-002
3.955452e+003;3.979767e-002
3.957380e+003;3.980555e-002
3.959309e+003;3.975282e-002
3.961238e+003;4.012069e-002
3.963166e+003;4.030385e-002
3.965095e+003;4.059145e-002
3.967023e+003;4.120132e-002
3.968952e+003;4.172344e-002
3.970880e+003;4.152393e-002
3.972809e+003;4.151124e-002
3.974737e+003;4.180938e-002
3.976666e+003;4.162734e-002
3.978594e+003;4.148904e-002
3.980523e+003;4.186542e-002
3.982452e+003;4.165947e-002
3.984380e+003;4.118620e-002
3.986309e+003;4.121188e-002
3.988237e+003;4.168102e-002
3.990166e+003;4.171107e-002
3.992094e+003;4.112165e-002
3.994023e+003;4.081947e-002
3.995951e+003;4.109557e-002
3.997880e+003;4.141307e-002
3.999809e+003;4.145415e-002
4.001737e+003;0.000000e+000
