3.992094e+002;0.000000e+000
4.011380e+002;0.000000e+000
4.030665e+002;0.000000e+000
4.049951e+002;0.000000e+000
4.069236e+002;0.000000e+000
4.088522e+002;0.000000e+000
4.107807e+002;0.000000e+000
4.127093e+002;0.000000e+000
4.146378e+002;0.000000e+000
4.165664e+002;0.000000e+000
4.184949e+002;0.000000e+000
4.204235e+002;0.000000e+000
4.223520e+002;0.000000e+000
4.242806e+002;0.000000e+000
4.262091e+002;0.000000e+000
4.281377e+002;0.000000e+000
4.300662e+002;0.000000e+000
4.319948e+002;0.000000e+000
4.339233e+002;0.000000e+000
4.358519e+002;0.000000e+000
4.377804e+002;0.000000e+000
4.397090e+002;0.000000e+000
4.416375e+002;0.000000e+000
4.435660e+002;0.000000e+000
4.454946e+002;0.000000e+000
4.474232e+002;0.000000e+000
4.493517e+002;0.000000e+000
4.512802e+002;0.000000e+000
4.532088e+002;0.000000e+000
4.551373e+002;0.000000e+000
4.570659e+002;0.000000e+000
4.589944e+002;0.000000e+000
4.609230e+002;0.000000e+000
4.628515e+002;0.000000e+000
4.647801e+002;0.000000e+000
4.667086e+002;0.000000e+000
4.686372e+002;0.000000e+000
4.705657e+002;0.000000e+000
4.724943e+002;0.000000e+000
4.744228e+002;0.000000e+000
4.763513e+002;0.000000e+000
4.782799e+002;0.000000e+000
4.802085e+002;0.000000e+000
4.821370e+002;0.000000e+000
4.840656e+002;0.000000e+000
4.859941e+002;0.000000e+000
4.879226e+002;0.000000e+000
4.898512e+002;0.000000e+000
4.917798e+002;0.000000e+000
4.937083e+002;0.000000e+000
4.956368e+002;0.000000e+000
4.975654e+002;0.000000e+000
4.994939e+002;0.000000e+000
5.014225e+002;0.000000e+000
5.033510e+002;0.000000e+000
5.052796e+002;0.000000e+000
5.072081e+002;0.000000e+000
5.091367e+002;0.000000e+000
5.110652e+002;0.000000e+000
5.129938e+002;0.000000e+000
5.149223e+002;0.000000e+000
5.168509e+002;0.000000e+000
5.187794e+002;0.000000e+000
5.207079e+002;0.000000e+000
5.226365e+002;0.000000e+000
5.245651e+002;0.000000e+000
5.264936e+002;0.000000e+000
5.284222e+002;0.000000e+000
5.303507e+002;0.000000e+000
5.322792e+002;0.000000e+000
5.342078e+002;0.000000e+000
5.361364e+002;0.000000e+000
5.380649e+002;0.000000e+000
5.399935e+002;0.000000e+000
5.419220e+002;0.000000e+000
5.438505e+002;0.000000e+000
5.457791e+002;0.000000e+000
5.477076e+002;0.000000e+000
5.496362e+002;0.000000e+000
5.515648e+002;0.000000e+000
5.534933e+002;0.000000e+000
5.554218e+002;0.000000e+000
5.573504e+002;0.000000e+000
5.592789e+002;0.000000e+000
5.612075e+002;0.000000e+000
5.631360e+002;0.000000e+000
5.650646e+002;0.000000e+000
5.669931e+002;0.000000e+000
5.689217e+002;0.000000e+000
5.708502e+002;0.000000e+000
5.727787e+002;0.000000e+000
5.747073e+002;0.000000e+000
5.766359e+002;0.000000e+000
5.785644e+002;0.000000e+000
5.804930e+002;0.000000e+000
5.824215e+002;0.000000e+000
5.843500e+002;0.000000e+000
5.862786e+002;0.000000e+000
5.882072e+002;0.000000e+000
5.901357e+002;0.000000e+000
5.920643e+002;0.000000e+000
5.939928e+002;0.000000e+000
5.959213e+002;0.000000e+000
5.978499e+002;0.000000e+000
5.997784e+002;1.769711e-001
6.017070e+002;1.814597e-001
6.036355e+002;1.894622e-001
6.055641e+002;1.852806e-001
6.074926e+002;1.731507e-001
6.094211e+002;1.630896e-001
6.113497e+002;1.600784e-001
6.132783e+002;1.546623e-001
6.152068e+002;1.482245e-001
6.171354e+002;1.460380e-001
6.190639e+002;1.482477e-001
6.209924e+002;1.470890e-001
6.229210e+002;1.403474e-001
6.248495e+002;1.349562e-001
6.267781e+002;1.357296e-001
6.287067e+002;1.357049e-001
6.306352e+002;1.308683e-001
6.325637e+002;1.276986e-001
6.344923e+002;1.267587e-001
6.364208e+002;1.252428e-001
6.383494e+002;1.274344e-001
6.402780e+002;1.309350e-001
6.422065e+002;1.271323e-001
6.441350e+002;1.207839e-001
6.460636e+002;1.200669e-001
6.479921e+002;1.209620e-001
6.499207e+002;1.188469e-001
6.518492e+002;1.153676e-001
6.537778e+002;1.150337e-001
6.557063e+002;1.160492e-001
6.576349e+002;1.154182e-001
6.595634e+002;1.149670e-001
6.614919e+002;1.140171e-001
6.634205e+002;1.105003e-001
6.653491e+002;1.077056e-001
6.672776e+002;1.083731e-001
6.692062e+002;1.098360e-001
6.711347e+002;1.100163e-001
6.730632e+002;1.086769e-001
6.749918e+002;1.081381e-001
6.769203e+002;1.098936e-001
6.788489e+002;1.125228e-001
6.807775e+002;1.126328e-001
6.827060e+002;1.119958e-001
6.846345e+002;1.123218e-001
6.865631e+002;1.124517e-001
6.884916e+002;1.114941e-001
6.904202e+002;1.106299e-001
6.923488e+002;1.092936e-001
6.942773e+002;1.078964e-001
6.962058e+002;1.069624e-001
6.981344e+002;1.057185e-001
7.000629e+002;1.044961e-001
7.019915e+002;1.027090e-001
7.039200e+002;1.010681e-001
7.058486e+002;1.005797e-001
7.077771e+002;1.002594e-001
7.097057e+002;9.887250e-002
7.116342e+002;9.835541e-002
7.135627e+002;9.868793e-002
7.154913e+002;9.805764e-002
7.174199e+002;9.628171e-002
7.193484e+002;9.471291e-002
7.212770e+002;9.387957e-002
7.232055e+002;9.344135e-002
7.251340e+002;9.260006e-002
7.270626e+002;9.163518e-002
7.289911e+002;9.081094e-002
7.309197e+002;8.885483e-002
7.328483e+002;8.565205e-002
7.347768e+002;8.302433e-002
7.367053e+002;8.161128e-002
7.386339e+002;8.017205e-002
7.405624e+002;7.895680e-002
7.424910e+002;7.841262e-002
7.444196e+002;7.821172e-002
7.463481e+002;7.849006e-002
7.482766e+002;7.843802e-002
7.502052e+002;7.761609e-002
7.521337e+002;7.705206e-002
7.540623e+002;7.693785e-002
7.559908e+002;7.662044e-002
7.579194e+002;7.665685e-002
7.598479e+002;7.623775e-002
7.617765e+002;7.554628e-002
7.637050e+002;7.567681e-002
7.656335e+002;7.570907e-002
7.675621e+002;7.526950e-002
7.694907e+002;7.536168e-002
7.714192e+002;7.511345e-002
7.733478e+002;7.456198e-002
7.752763e+002;7.487520e-002
7.772048e+002;7.526055e-002
7.791334e+002;7.537889e-002
7.810620e+002;7.582147e-002
7.829905e+002;7.607626e-002
7.849191e+002;7.650962e-002
7.868476e+002;7.688113e-002
7.887761e+002;7.698401e-002
7.907047e+002;7.751194e-002
7.926332e+002;7.797807e-002
7.945618e+002;7.802291e-002
7.964903e+002;7.855513e-002
7.984189e+002;7.961767e-002
8.003474e+002;8.038427e-002
8.022759e+002;8.060083e-002
8.042045e+002;8.109767e-002
8.061331e+002;8.208239e-002
8.080616e+002;8.278151e-002
8.099902e+002;8.405437e-002
8.119187e+002;8.615342e-002
8.138472e+002;8.755520e-002
8.157758e+002;8.891830e-002
8.177043e+002;8.999906e-002
8.196329e+002;9.130248e-002
8.215615e+002;9.375796e-002
8.234900e+002;9.661183e-002
8.254185e+002;9.998161e-002
8.273471e+002;1.031951e-001
8.292756e+002;1.066743e-001
8.312042e+002;1.107926e-001
8.331328e+002;1.146716e-001
8.350613e+002;1.175471e-001
8.369898e+002;1.195555e-001
8.389184e+002;1.206846e-001
8.408469e+002;1.208283e-001
8.427755e+002;1.192769e-001
8.447040e+002;1.171822e-001
8.466326e+002;1.144943e-001
8.485611e+002;1.119184e-001
8.504897e+002;1.102038e-001
8.524182e+002;1.084226e-001
8.543467e+002;1.076503e-001
8.562753e+002;1.085353e-001
8.582039e+002;1.098308e-001
8.601324e+002;1.116994e-001
8.620610e+002;1.147091e-001
8.639895e+002;1.181299e-001
8.659180e+002;1.218746e-001
8.678466e+002;1.266392e-001
8.697751e+002;1.320235e-001
8.717037e+002;1.371783e-001
8.736323e+002;1.419754e-001
8.755608e+002;1.458918e-001
8.774893e+002;1.486832e-001
8.794179e+002;1.510547e-001
8.813464e+002;1.536385e-001
8.832750e+002;1.564098e-001
8.852036e+002;1.592546e-001
8.871321e+002;1.629644e-001
8.890606e+002;1.676313e-001
8.909892e+002;1.728301e-001
8.929177e+002;1.785144e-001
8.948463e+002;1.843123e-001
8.967748e+002;1.887540e-001
8.987034e+002;1.903199e-001
9.006319e+002;1.888768e-001
9.025605e+002;1.854539e-001
9.044890e+002;1.809198e-001
9.064175e+002;1.759607e-001
9.083461e+002;1.703949e-001
9.102747e+002;1.643256e-001
9.122032e+002;1.593660e-001
9.141318e+002;1.557313e-001
9.160603e+002;1.522087e-001
9.179888e+002;1.492374e-001
9.199174e+002;1.470223e-001
9.218459e+002;1.451983e-001
9.237745e+002;1.432828e-001
9.257031e+002;1.414941e-001
9.276316e+002;1.402027e-001
9.295601e+002;1.396362e-001
9.314887e+002;1.394220e-001
9.334172e+002;1.392770e-001
9.353458e+002;1.395684e-001
9.372744e+002;1.406812e-001
9.392029e+002;1.418348e-001
9.411314e+002;1.431071e-001
9.430600e+002;1.451732e-001
9.449885e+002;1.473182e-001
9.469171e+002;1.491186e-001
9.488456e+002;1.508515e-001
9.507742e+002;1.524185e-001
9.527027e+002;1.538281e-001
9.546313e+002;1.554548e-001
9.565598e+002;1.566478e-001
9.584883e+002;1.576313e-001
9.604169e+002;1.595565e-001
9.623455e+002;1.623533e-001
9.642740e+002;1.654710e-001
9.662026e+002;1.693065e-001
9.681311e+002;1.741341e-001
9.700596e+002;1.800025e-001
9.719882e+002;1.865025e-001
9.739167e+002;1.931148e-001
9.758453e+002;1.995355e-001
9.777739e+002;2.055939e-001
9.797024e+002;2.113699e-001
9.816309e+002;2.168282e-001
9.835595e+002;2.217819e-001
9.854880e+002;2.261994e-001
9.874166e+002;2.304202e-001
9.893452e+002;2.341789e-001
9.912737e+002;2.379165e-001
9.932022e+002;2.422944e-001
9.951307e+002;2.469284e-001
9.970593e+002;2.520089e-001
9.989879e+002;2.581607e-001
1.000916e+003;2.658761e-001
1.002845e+003;2.748301e-001
1.004773e+003;2.852212e-001
1.006702e+003;2.960902e-001
1.008631e+003;3.073027e-001
1.010559e+003;3.198834e-001
1.012488e+003;3.331810e-001
1.014416e+003;3.469328e-001
1.016345e+003;3.617643e-001
1.018273e+003;3.774804e-001
1.020202e+003;3.929069e-001
1.022130e+003;4.078165e-001
1.024059e+003;4.221283e-001
1.025988e+003;4.363919e-001
1.027916e+003;4.485634e-001
1.029845e+003;4.575984e-001
1.031773e+003;4.628251e-001
1.033702e+003;4.645435e-001
1.035630e+003;4.629754e-001
1.037559e+003;4.588971e-001
1.039487e+003;4.538108e-001
1.041416e+003;4.478522e-001
1.043344e+003;4.407317e-001
1.045273e+003;4.314253e-001
1.047202e+003;4.205826e-001
1.049130e+003;4.094928e-001
1.051059e+003;3.967993e-001
1.052987e+003;3.836218e-001
1.054916e+003;3.707452e-001
1.056844e+003;3.578303e-001
1.058773e+003;3.454092e-001
1.060701e+003;3.351262e-001
1.062630e+003;3.259023e-001
1.064558e+003;3.174461e-001
1.066487e+003;3.103059e-001
1.068416e+003;3.025148e-001
1.070344e+003;2.946053e-001
1.072273e+003;2.875086e-001
1.074201e+003;2.797306e-001
1.076130e+003;2.712291e-001
1.078058e+003;2.634114e-001
1.079987e+003;2.561335e-001
1.081915e+003;2.484927e-001
1.083844e+003;2.408564e-001
1.085773e+003;2.337345e-001
1.087701e+003;2.267938e-001
1.089630e+003;2.198098e-001
1.091558e+003;2.122113e-001
1.093487e+003;2.050944e-001
1.095415e+003;1.989980e-001
1.097344e+003;1.933540e-001
1.099272e+003;1.890173e-001
1.101201e+003;1.863953e-001
1.103129e+003;1.840260e-001
1.105058e+003;1.815136e-001
1.106987e+003;1.798505e-001
1.108915e+003;1.783421e-001
1.110844e+003;1.774180e-001
1.112772e+003;1.775683e-001
1.114701e+003;1.776768e-001
1.116629e+003;1.769341e-001
1.118558e+003;1.757702e-001
1.120486e+003;1.746696e-001
1.122415e+003;1.734224e-001
1.124344e+003;1.719158e-001
1.126272e+003;1.700627e-001
1.128201e+003;1.679405e-001
1.130129e+003;1.657366e-001
1.132058e+003;1.629695e-001
1.133986e+003;1.603290e-001
1.135915e+003;1.585970e-001
1.137843e+003;1.577623e-001
1.139772e+003;1.571432e-001
1.141700e+003;1.571117e-001
1.143629e+003;1.576687e-001
1.145557e+003;1.586590e-001
1.147486e+003;1.604355e-001
1.149415e+003;1.628523e-001
1.151343e+003;1.648318e-001
1.153272e+003;1.668233e-001
1.155200e+003;1.689656e-001
1.157129e+003;1.709737e-001
1.159057e+003;1.725494e-001
1.160986e+003;1.732572e-001
1.162914e+003;1.733773e-001
1.164843e+003;1.729017e-001
1.166771e+003;1.720900e-001
1.168700e+003;1.707914e-001
1.170629e+003;1.690739e-001
1.172557e+003;1.674199e-001
1.174486e+003;1.657276e-001
1.176414e+003;1.642619e-001
1.178343e+003;1.632649e-001
1.180271e+003;1.627219e-001
1.182200e+003;1.634058e-001
1.184128e+003;1.655798e-001
1.186057e+003;1.697655e-001
1.187986e+003;1.762757e-001
1.189914e+003;1.851752e-001
1.191843e+003;1.967066e-001
1.193771e+003;2.113264e-001
1.195700e+003;2.292258e-001
1.197628e+003;2.502589e-001
1.199557e+003;2.745648e-001
1.201485e+003;3.009948e-001
1.203414e+003;3.279511e-001
1.205343e+003;3.532682e-001
1.207271e+003;3.756510e-001
1.209200e+003;3.941986e-001
1.211128e+003;4.078045e-001
1.213057e+003;4.164325e-001
1.214985e+003;4.211056e-001
1.216914e+003;4.228238e-001
1.218842e+003;4.224895e-001
1.220771e+003;4.213430e-001
1.222699e+003;4.190113e-001
1.224628e+003;4.155237e-001
1.226557e+003;4.110190e-001
1.228485e+003;4.049591e-001
1.230414e+003;3.960101e-001
1.232342e+003;3.842087e-001
1.234271e+003;3.711324e-001
1.236199e+003;3.570738e-001
1.238128e+003;3.420732e-001
1.240056e+003;3.266319e-001
1.241985e+003;3.109883e-001
1.243913e+003;2.950708e-001
1.245842e+003;2.795227e-001
1.247771e+003;2.649226e-001
1.249699e+003;2.509909e-001
1.251628e+003;2.376408e-001
1.253556e+003;2.249855e-001
1.255485e+003;2.132038e-001
1.257413e+003;2.018418e-001
1.259342e+003;1.911655e-001
1.261270e+003;1.811827e-001
1.263199e+003;1.718532e-001
1.265127e+003;1.635652e-001
1.267056e+003;1.558635e-001
1.268985e+003;1.485724e-001
1.270913e+003;1.419484e-001
1.272842e+003;1.357500e-001
1.274770e+003;1.302777e-001
1.276699e+003;1.252481e-001
1.278627e+003;1.206942e-001
1.280556e+003;1.168166e-001
1.282484e+003;1.133131e-001
1.284413e+003;1.101798e-001
1.286342e+003;1.074779e-001
1.288270e+003;1.050941e-001
1.290199e+003;1.028659e-001
1.292127e+003;1.008925e-001
1.294056e+003;9.894415e-002
1.295984e+003;9.710327e-002
1.297913e+003;9.569396e-002
1.299841e+003;9.444576e-002
1.301770e+003;9.312902e-002
1.303698e+003;9.218501e-002
1.305627e+003;9.172476e-002
1.307556e+003;9.149703e-002
1.309484e+003;9.135094e-002
1.311413e+003;9.133438e-002
1.313341e+003;9.162740e-002
1.315270e+003;9.198185e-002
1.317198e+003;9.208063e-002
1.319127e+003;9.196100e-002
1.321055e+003;9.176278e-002
1.322984e+003;9.139469e-002
1.324912e+003;9.104592e-002
1.326841e+003;9.075173e-002
1.328770e+003;9.022047e-002
1.330698e+003;8.976559e-002
1.332627e+003;8.969606e-002
1.334555e+003;8.959468e-002
1.336484e+003;8.934774e-002
1.338412e+003;8.912122e-002
1.340341e+003;8.923017e-002
1.342269e+003;8.977407e-002
1.344198e+003;9.095354e-002
1.346126e+003;9.281652e-002
1.348055e+003;9.586746e-002
1.349984e+003;1.005266e-001
1.351912e+003;1.074040e-001
1.353841e+003;1.170167e-001
1.355769e+003;1.295254e-001
1.357698e+003;1.449804e-001
1.359626e+003;1.621322e-001
1.361555e+003;1.779232e-001
1.363483e+003;1.898497e-001
1.365412e+003;1.964188e-001
1.367341e+003;1.973902e-001
1.369269e+003;1.939882e-001
1.371198e+003;1.879533e-001
1.373126e+003;1.805459e-001
1.375055e+003;1.723968e-001
1.376983e+003;1.638271e-001
1.378912e+003;1.548951e-001
1.380840e+003;1.458836e-001
1.382769e+003;1.368812e-001
1.384698e+003;1.276576e-001
1.386626e+003;1.190063e-001
1.388555e+003;1.117240e-001
1.390483e+003;1.054172e-001
1.392412e+003;9.973324e-002
1.394340e+003;9.532055e-002
1.396269e+003;9.249858e-002
1.398197e+003;9.047157e-002
1.400126e+003;8.892655e-002
1.402054e+003;8.807319e-002
1.403983e+003;8.813057e-002
1.405911e+003;8.853137e-002
1.407840e+003;8.887817e-002
1.409769e+003;8.924173e-002
1.411697e+003;8.978190e-002
1.413626e+003;9.035973e-002
1.415554e+003;9.114482e-002
1.417483e+003;9.220156e-002
1.419411e+003;9.380291e-002
1.421340e+003;9.629035e-002
1.423268e+003;9.886451e-002
1.425197e+003;1.008699e-001
1.427125e+003;1.023874e-001
1.429054e+003;1.034864e-001
1.430983e+003;1.042220e-001
1.432911e+003;1.042071e-001
1.434840e+003;1.028538e-001
1.436768e+003;1.008361e-001
1.438697e+003;9.904952e-002
1.440625e+003;9.718213e-002
1.442554e+003;9.490140e-002
1.444482e+003;9.239064e-002
1.446411e+003;9.012986e-002
1.448340e+003;8.817189e-002
1.450268e+003;8.638306e-002
1.452197e+003;8.471845e-002
1.454125e+003;8.298009e-002
1.456054e+003;8.065268e-002
1.457982e+003;7.883406e-002
1.459911e+003;7.772917e-002
1.461839e+003;7.597797e-002
1.463768e+003;7.381131e-002
1.465697e+003;7.172575e-002
1.467625e+003;6.988943e-002
1.469554e+003;6.827252e-002
1.471482e+003;6.676982e-002
1.473411e+003;6.560339e-002
1.475339e+003;6.466579e-002
1.477268e+003;6.386926e-002
1.479196e+003;6.313572e-002
1.481125e+003;6.245970e-002
1.483053e+003;6.208213e-002
1.484982e+003;6.160915e-002
1.486911e+003;6.098090e-002
1.488839e+003;6.032448e-002
1.490768e+003;5.988995e-002
1.492696e+003;5.970766e-002
1.494625e+003;5.946818e-002
1.496553e+003;5.916914e-002
1.498482e+003;5.906112e-002
1.500410e+003;5.917339e-002
1.502339e+003;5.915668e-002
1.504267e+003;5.875610e-002
1.506196e+003;5.826835e-002
1.508125e+003;5.861437e-002
1.510053e+003;5.902499e-002
1.511982e+003;5.911720e-002
1.513910e+003;5.907137e-002
1.515839e+003;5.872606e-002
1.517767e+003;5.869947e-002
1.519696e+003;5.859199e-002
1.521624e+003;5.841418e-002
1.523553e+003;5.877662e-002
1.525481e+003;5.901929e-002
1.527410e+003;5.925010e-002
1.529339e+003;5.948608e-002
1.531267e+003;5.930304e-002
1.533196e+003;5.913105e-002
1.535124e+003;5.921869e-002
1.537053e+003;5.890938e-002
1.538981e+003;5.788589e-002
1.540910e+003;5.748785e-002
1.542838e+003;5.788650e-002
1.544767e+003;5.835335e-002
1.546695e+003;5.882219e-002
1.548624e+003;5.896798e-002
1.550553e+003;5.893492e-002
1.552481e+003;5.890441e-002
1.554410e+003;5.886263e-002
1.556338e+003;5.854232e-002
1.558267e+003;5.769271e-002
1.560195e+003;5.765324e-002
1.562124e+003;5.828457e-002
1.564052e+003;5.849099e-002
1.565981e+003;5.846100e-002
1.567910e+003;5.805955e-002
1.569838e+003;5.790592e-002
1.571767e+003;5.831000e-002
1.573695e+003;5.833152e-002
1.575624e+003;5.802955e-002
1.577552e+003;5.839508e-002
1.579481e+003;5.884890e-002
1.581409e+003;5.892764e-002
1.583338e+003;5.909685e-002
1.585266e+003;5.919838e-002
1.587195e+003;5.934213e-002
1.589124e+003;5.971568e-002
1.591052e+003;6.004702e-002
1.592981e+003;6.047896e-002
1.594909e+003;6.090606e-002
1.596838e+003;6.143777e-002
1.598766e+003;6.214337e-002
1.600695e+003;6.262405e-002
1.602623e+003;6.294727e-002
1.604552e+003;6.362859e-002
1.606480e+003;6.419269e-002
1.608409e+003;6.452846e-002
1.610338e+003;6.485546e-002
1.612266e+003;6.543221e-002
1.614195e+003;6.585916e-002
1.616123e+003;6.600818e-002
1.618052e+003;6.661157e-002
1.619980e+003;6.738030e-002
1.621909e+003;6.788440e-002
1.623837e+003;6.815252e-002
1.625766e+003;6.863195e-002
1.627694e+003;6.939580e-002
1.629623e+003;7.022645e-002
1.631552e+003;7.093407e-002
1.633480e+003;7.116806e-002
1.635409e+003;7.129416e-002
1.637337e+003;7.210597e-002
1.639266e+003;7.306483e-002
1.641194e+003;7.358705e-002
1.643123e+003;7.394046e-002
1.645051e+003;7.418735e-002
1.646980e+003;7.448740e-002
1.648909e+003;7.500663e-002
1.650837e+003;7.499832e-002
1.652766e+003;7.459294e-002
1.654694e+003;7.507236e-002
1.656623e+003;7.568541e-002
1.658551e+003;7.577925e-002
1.660480e+003;7.599771e-002
1.662408e+003;7.662179e-002
1.664337e+003;7.719381e-002
1.666266e+003;7.746731e-002
1.668194e+003;7.765345e-002
1.670123e+003;7.819370e-002
1.672051e+003;7.931346e-002
1.673980e+003;8.033248e-002
1.675908e+003;8.120779e-002
1.677837e+003;8.262065e-002
1.679765e+003;8.406904e-002
1.681694e+003;8.534568e-002
1.683622e+003;8.648919e-002
1.685551e+003;8.875454e-002
1.687479e+003;9.163047e-002
1.689408e+003;9.442171e-002
1.691337e+003;9.730780e-002
1.693265e+003;1.001611e-001
1.695194e+003;1.031577e-001
1.697122e+003;1.072109e-001
1.699051e+003;1.116980e-001
1.700979e+003;1.166067e-001
1.702908e+003;1.225617e-001
1.704836e+003;1.288556e-001
1.706765e+003;1.357037e-001
1.708693e+003;1.436249e-001
1.710622e+003;1.524807e-001
1.712551e+003;1.619898e-001
1.714479e+003;1.721461e-001
1.716408e+003;1.832748e-001
1.718336e+003;1.957211e-001
1.720265e+003;2.091327e-001
1.722193e+003;2.227657e-001
1.724122e+003;2.363241e-001
1.726050e+003;2.494003e-001
1.727979e+003;2.617624e-001
1.729908e+003;2.730419e-001
1.731836e+003;2.827918e-001
1.733765e+003;2.900026e-001
1.735693e+003;2.948953e-001
1.737622e+003;2.969096e-001
1.739550e+003;2.959720e-001
1.741479e+003;2.930631e-001
1.743407e+003;2.880480e-001
1.745336e+003;2.811023e-001
1.747265e+003;2.727810e-001
1.749193e+003;2.629546e-001
1.751122e+003;2.519944e-001
1.753050e+003;2.400806e-001
1.754979e+003;2.264998e-001
1.756907e+003;2.110563e-001
1.758836e+003;1.945042e-001
1.760764e+003;1.767465e-001
1.762693e+003;1.591892e-001
1.764621e+003;1.430311e-001
1.766550e+003;1.280570e-001
1.768479e+003;1.152511e-001
1.770407e+003;1.050608e-001
1.772336e+003;9.648731e-002
1.774264e+003;8.961125e-002
1.776193e+003;8.416524e-002
1.778121e+003;7.985786e-002
1.780050e+003;7.629178e-002
1.781978e+003;7.315968e-002
1.783907e+003;7.068903e-002
1.785835e+003;6.875619e-002
1.787764e+003;6.719483e-002
1.789693e+003;6.562945e-002
1.791621e+003;6.425108e-002
1.793550e+003;6.339967e-002
1.795478e+003;6.273085e-002
1.797407e+003;6.184706e-002
1.799335e+003;6.106041e-002
1.801264e+003;6.040184e-002
1.803192e+003;5.973078e-002
1.805121e+003;5.917138e-002
1.807049e+003;5.867008e-002
1.808978e+003;5.809795e-002
1.810907e+003;5.757054e-002
1.812835e+003;5.709345e-002
1.814764e+003;5.658046e-002
1.816692e+003;5.599777e-002
1.818621e+003;5.553924e-002
1.820549e+003;5.510173e-002
1.822478e+003;5.469954e-002
1.824406e+003;5.431089e-002
1.826335e+003;5.402495e-002
1.828264e+003;5.361557e-002
1.830192e+003;5.299181e-002
1.832121e+003;5.258382e-002
1.834049e+003;5.235351e-002
1.835978e+003;5.203904e-002
1.837906e+003;5.174802e-002
1.839835e+003;5.153326e-002
1.841763e+003;5.115787e-002
1.843692e+003;5.068643e-002
1.845620e+003;5.048641e-002
1.847549e+003;5.032904e-002
1.849478e+003;5.010468e-002
1.851406e+003;4.980105e-002
1.853335e+003;4.971198e-002
1.855263e+003;4.971492e-002
1.857192e+003;4.949299e-002
1.859120e+003;4.921328e-002
1.861049e+003;4.908430e-002
1.862977e+003;4.898826e-002
1.864906e+003;4.893167e-002
1.866834e+003;4.867582e-002
1.868763e+003;4.828134e-002
1.870692e+003;4.803575e-002
1.872620e+003;4.804700e-002
1.874549e+003;4.790664e-002
1.876477e+003;4.758791e-002
1.878406e+003;4.730961e-002
1.880334e+003;4.709936e-002
1.882263e+003;4.690016e-002
1.884191e+003;4.681697e-002
1.886120e+003;4.679542e-002
1.888048e+003;4.654366e-002
1.889977e+003;4.630775e-002
1.891906e+003;4.647311e-002
1.893834e+003;4.650416e-002
1.895763e+003;4.640681e-002
1.897691e+003;4.652363e-002
1.899620e+003;4.660603e-002
1.901548e+003;4.661481e-002
1.903477e+003;4.671767e-002
1.905405e+003;4.676033e-002
1.907334e+003;4.686322e-002
1.909262e+003;4.695668e-002
1.911191e+003;4.695059e-002
1.913120e+003;4.684148e-002
1.915048e+003;4.705412e-002
1.916977e+003;4.727259e-002
1.918905e+003;4.751531e-002
1.920834e+003;4.793817e-002
1.922762e+003;4.799449e-002
1.924691e+003;4.788804e-002
1.926619e+003;4.786047e-002
1.928548e+003;4.774584e-002
1.930477e+003;4.762122e-002
1.932405e+003;4.770424e-002
1.934334e+003;4.780558e-002
1.936262e+003;4.780003e-002
1.938191e+003;4.769059e-002
1.940119e+003;4.772857e-002
1.942048e+003;4.773656e-002
1.943976e+003;4.761327e-002
1.945905e+003;4.751989e-002
1.947833e+003;4.748721e-002
1.949762e+003;4.740128e-002
1.951691e+003;4.723764e-002
1.953619e+003;4.724673e-002
1.955548e+003;4.722745e-002
1.957476e+003;4.715896e-002
1.959405e+003;4.707099e-002
1.961333e+003;4.687931e-002
1.963262e+003;4.659821e-002
1.965190e+003;4.621937e-002
1.967119e+003;4.602080e-002
1.969047e+003;4.605565e-002
1.970976e+003;4.592043e-002
1.972905e+003;4.564588e-002
1.974833e+003;4.539865e-002
1.976762e+003;4.540696e-002
1.978690e+003;4.552503e-002
1.980619e+003;4.531001e-002
1.982547e+003;4.483411e-002
1.984476e+003;4.468083e-002
1.986404e+003;4.471590e-002
1.988333e+003;4.466316e-002
1.990261e+003;4.450943e-002
1.992190e+003;4.446678e-002
1.994119e+003;4.453509e-002
1.996047e+003;4.476310e-002
1.997976e+003;4.479392e-002
1.999904e+003;4.458414e-002
2.001833e+003;4.459222e-002
2.003761e+003;4.480134e-002
2.005690e+003;4.494584e-002
2.007618e+003;4.508281e-002
2.009547e+003;4.515741e-002
2.011476e+003;4.519230e-002
2.013404e+003;4.516697e-002
2.015333e+003;4.536422e-002
2.017261e+003;4.563612e-002
2.019190e+003;4.587370e-002
2.021118e+003;4.603222e-002
2.023047e+003;4.603502e-002
2.024975e+003;4.624321e-002
2.026904e+003;4.634882e-002
2.028833e+003;4.633455e-002
2.030761e+003;4.649328e-002
2.032690e+003;4.650184e-002
2.034618e+003;4.635807e-002
2.036547e+003;4.642377e-002
2.038475e+003;4.648016e-002
2.040404e+003;4.645925e-002
2.042332e+003;4.645947e-002
2.044261e+003;4.662024e-002
2.046189e+003;4.680317e-002
2.048118e+003;4.663488e-002
2.050047e+003;4.661470e-002
2.051975e+003;4.680520e-002
2.053904e+003;4.704596e-002
2.055832e+003;4.722708e-002
2.057761e+003;4.741137e-002
2.059689e+003;4.752891e-002
2.061618e+003;4.735095e-002
2.063546e+003;4.710050e-002
2.065475e+003;4.713935e-002
2.067404e+003;4.731940e-002
2.069332e+003;4.743817e-002
2.071260e+003;4.775287e-002
2.073189e+003;4.806336e-002
2.075118e+003;4.804093e-002
2.077046e+003;4.793417e-002
2.078975e+003;4.794871e-002
2.080903e+003;4.806780e-002
2.082832e+003;4.828852e-002
2.084760e+003;4.877282e-002
2.086689e+003;4.920218e-002
2.088617e+003;4.933368e-002
2.090546e+003;4.939025e-002
2.092475e+003;4.968865e-002
2.094403e+003;5.008229e-002
2.096332e+003;5.043956e-002
2.098260e+003;5.059975e-002
2.100189e+003;5.068989e-002
2.102117e+003;5.091449e-002
2.104046e+003;5.137401e-002
2.105974e+003;5.164628e-002
2.107903e+003;5.168669e-002
2.109832e+003;5.169811e-002
2.111760e+003;5.164658e-002
2.113688e+003;5.158276e-002
2.115617e+003;5.167251e-002
2.117546e+003;5.169782e-002
2.119474e+003;5.165415e-002
2.121403e+003;5.158396e-002
2.123331e+003;5.167322e-002
2.125260e+003;5.165374e-002
2.127188e+003;5.137834e-002
2.129117e+003;5.130189e-002
2.131045e+003;5.131405e-002
2.132974e+003;5.111936e-002
2.134903e+003;5.082821e-002
2.136831e+003;5.057180e-002
2.138760e+003;5.044317e-002
2.140688e+003;5.024221e-002
2.142617e+003;5.005864e-002
2.144545e+003;5.000395e-002
2.146474e+003;4.971756e-002
2.148402e+003;4.934099e-002
2.150331e+003;4.899772e-002
2.152260e+003;4.893219e-002
2.154188e+003;4.892273e-002
2.156117e+003;4.869298e-002
2.158045e+003;4.852184e-002
2.159974e+003;4.819044e-002
2.161902e+003;4.776105e-002
2.163831e+003;4.735808e-002
2.165759e+003;4.708949e-002
2.167688e+003;4.691301e-002
2.169616e+003;4.681896e-002
2.171545e+003;4.654245e-002
2.173474e+003;4.608660e-002
2.175402e+003;4.601277e-002
2.177331e+003;4.591988e-002
2.179259e+003;4.563639e-002
2.181188e+003;4.536422e-002
2.183116e+003;4.527749e-002
2.185045e+003;4.503309e-002
2.186973e+003;4.481214e-002
2.188902e+003;4.483609e-002
2.190831e+003;4.472057e-002
2.192759e+003;4.457339e-002
2.194688e+003;4.443694e-002
2.196616e+003;4.429844e-002
2.198545e+003;4.425250e-002
2.200473e+003;4.416182e-002
2.202402e+003;4.385359e-002
2.204330e+003;4.372855e-002
2.206259e+003;4.377948e-002
2.208188e+003;4.384150e-002
2.210116e+003;4.380799e-002
2.212044e+003;4.384138e-002
2.213973e+003;4.374360e-002
2.215902e+003;4.369282e-002
2.217830e+003;4.361877e-002
2.219759e+003;4.347457e-002
2.221687e+003;4.344490e-002
2.223616e+003;4.338935e-002
2.225544e+003;4.326920e-002
2.227473e+003;4.309807e-002
2.229401e+003;4.300707e-002
2.231330e+003;4.291519e-002
2.233259e+003;4.271118e-002
2.235187e+003;4.272120e-002
2.237116e+003;4.296782e-002
2.239044e+003;4.313839e-002
2.240973e+003;4.311537e-002
2.242901e+003;4.304479e-002
2.244830e+003;4.301681e-002
2.246758e+003;4.318241e-002
2.248687e+003;4.320383e-002
2.250615e+003;4.300250e-002
2.252544e+003;4.303184e-002
2.254473e+003;4.303890e-002
2.256401e+003;4.299273e-002
2.258330e+003;4.289317e-002
2.260258e+003;4.294138e-002
2.262187e+003;4.310480e-002
2.264115e+003;4.291098e-002
2.266044e+003;4.267024e-002
2.267972e+003;4.264326e-002
2.269901e+003;4.275275e-002
2.271830e+003;4.269330e-002
2.273758e+003;4.254502e-002
2.275687e+003;4.238177e-002
2.277615e+003;4.220310e-002
2.279544e+003;4.215833e-002
2.281472e+003;4.211361e-002
2.283401e+003;4.190713e-002
2.285329e+003;4.175061e-002
2.287258e+003;4.163171e-002
2.289187e+003;4.143636e-002
2.291115e+003;4.134051e-002
2.293043e+003;4.109663e-002
2.294972e+003;4.079246e-002
2.296901e+003;4.047326e-002
2.298829e+003;4.015674e-002
2.300758e+003;4.009231e-002
2.302686e+003;4.018858e-002
2.304615e+003;4.008460e-002
2.306543e+003;3.996674e-002
2.308472e+003;3.998556e-002
2.310400e+003;4.011531e-002
2.312329e+003;4.015125e-002
2.314258e+003;4.005154e-002
2.316186e+003;3.977141e-002
2.318115e+003;3.961312e-002
2.320043e+003;3.997357e-002
2.321972e+003;4.008391e-002
2.323900e+003;3.995519e-002
2.325829e+003;3.995620e-002
2.327757e+003;4.004056e-002
2.329686e+003;3.985751e-002
2.331615e+003;3.971855e-002
2.333543e+003;3.976680e-002
2.335472e+003;3.988603e-002
2.337400e+003;4.036039e-002
2.339329e+003;4.076520e-002
2.341257e+003;4.081994e-002
2.343186e+003;4.090141e-002
2.345114e+003;4.111091e-002
2.347043e+003;4.112839e-002
2.348971e+003;4.110635e-002
2.350900e+003;4.117884e-002
2.352829e+003;4.136179e-002
2.354757e+003;4.142740e-002
2.356686e+003;4.134415e-002
2.358614e+003;4.139813e-002
2.360543e+003;4.139930e-002
2.362471e+003;4.134608e-002
2.364400e+003;4.128574e-002
2.366328e+003;4.123815e-002
2.368257e+003;4.134175e-002
2.370186e+003;4.132036e-002
2.372114e+003;4.126384e-002
2.374042e+003;4.117687e-002
2.375971e+003;4.100503e-002
2.377900e+003;4.101141e-002
2.379828e+003;4.098060e-002
2.381757e+003;4.106567e-002
2.383685e+003;4.107412e-002
2.385614e+003;4.102292e-002
2.387542e+003;4.127995e-002
2.389471e+003;4.161902e-002
2.391399e+003;4.179640e-002
2.393328e+003;4.178574e-002
2.395257e+003;4.190622e-002
2.397185e+003;4.199807e-002
2.399114e+003;4.208221e-002
2.401042e+003;4.231781e-002
2.402971e+003;4.253383e-002
2.404899e+003;4.278244e-002
2.406828e+003;4.329233e-002
2.408756e+003;4.366219e-002
2.410685e+003;4.364574e-002
2.412614e+003;4.362800e-002
2.414542e+003;4.385689e-002
2.416471e+003;4.394073e-002
2.418399e+003;4.348204e-002
2.420328e+003;4.305182e-002
2.422256e+003;4.314304e-002
2.424185e+003;4.347021e-002
2.426113e+003;4.351141e-002
2.428042e+003;4.335486e-002
2.429970e+003;4.335391e-002
2.431899e+003;4.349123e-002
2.433828e+003;4.359811e-002
2.435756e+003;4.362544e-002
2.437685e+003;4.370359e-002
2.439613e+003;4.357793e-002
2.441542e+003;4.346962e-002
2.443470e+003;4.359676e-002
2.445399e+003;4.378754e-002
2.447327e+003;4.392867e-002
2.449256e+003;4.381415e-002
2.451185e+003;4.352716e-002
2.453113e+003;4.352591e-002
2.455042e+003;4.365024e-002
2.456970e+003;4.342703e-002
2.458899e+003;4.319175e-002
2.460827e+003;4.347039e-002
2.462756e+003;4.363079e-002
2.464684e+003;4.348427e-002
2.466613e+003;4.361969e-002
2.468542e+003;4.373840e-002
2.470470e+003;4.344739e-002
2.472398e+003;4.323058e-002
2.474327e+003;4.325609e-002
2.476256e+003;4.323127e-002
2.478184e+003;4.322106e-002
2.480113e+003;4.318655e-002
2.482041e+003;4.321334e-002
2.483970e+003;4.325891e-002
2.485898e+003;4.318864e-002
2.487827e+003;4.302738e-002
2.489755e+003;4.269367e-002
2.491684e+003;4.252894e-002
2.493613e+003;4.251271e-002
2.495541e+003;4.243138e-002
2.497470e+003;4.231025e-002
2.499398e+003;4.209791e-002
2.501327e+003;4.182299e-002
2.503255e+003;4.166195e-002
2.505184e+003;4.175437e-002
2.507112e+003;4.163427e-002
2.509041e+003;4.122919e-002
2.510969e+003;4.113899e-002
2.512898e+003;4.122555e-002
2.514827e+003;4.139799e-002
2.516755e+003;4.138246e-002
2.518684e+003;4.136383e-002
2.520612e+003;4.144056e-002
2.522541e+003;4.132422e-002
2.524469e+003;4.123786e-002
2.526398e+003;4.131846e-002
2.528326e+003;4.118547e-002
2.530255e+003;4.099812e-002
2.532184e+003;4.110890e-002
2.534112e+003;4.118820e-002
2.536041e+003;4.104502e-002
2.537969e+003;4.091459e-002
2.539898e+003;4.064664e-002
2.541826e+003;4.059028e-002
2.543755e+003;4.084891e-002
2.545683e+003;4.082889e-002
2.547612e+003;4.083519e-002
2.549541e+003;4.098690e-002
2.551469e+003;4.104691e-002
2.553397e+003;4.099229e-002
2.555326e+003;4.109105e-002
2.557255e+003;4.133420e-002
2.559183e+003;4.145776e-002
2.561112e+003;4.146946e-002
2.563040e+003;4.158139e-002
2.564969e+003;4.176973e-002
2.566897e+003;4.208605e-002
2.568826e+003;4.220879e-002
2.570754e+003;4.224100e-002
2.572683e+003;4.251790e-002
2.574612e+003;4.256950e-002
2.576540e+003;4.261724e-002
2.578469e+003;4.292002e-002
2.580397e+003;4.310688e-002
2.582326e+003;4.301519e-002
2.584254e+003;4.310966e-002
2.586183e+003;4.332656e-002
2.588111e+003;4.337222e-002
2.590040e+003;4.351306e-002
2.591969e+003;4.371348e-002
2.593897e+003;4.378813e-002
2.595826e+003;4.393354e-002
2.597754e+003;4.401714e-002
2.599683e+003;4.411817e-002
2.601611e+003;4.411564e-002
2.603540e+003;4.388816e-002
2.605468e+003;4.391191e-002
2.607397e+003;4.421072e-002
2.609325e+003;4.436955e-002
2.611254e+003;4.455448e-002
2.613183e+003;4.479811e-002
2.615111e+003;4.507340e-002
2.617040e+003;4.520653e-002
2.618968e+003;4.526852e-002
2.620897e+003;4.516597e-002
2.622825e+003;4.514663e-002
2.624754e+003;4.523528e-002
2.626682e+003;4.516693e-002
2.628611e+003;4.529055e-002
2.630540e+003;4.551793e-002
2.632468e+003;4.575315e-002
2.634396e+003;4.598315e-002
2.636325e+003;4.600647e-002
2.638254e+003;4.572038e-002
2.640182e+003;4.560801e-002
2.642111e+003;4.580197e-002
2.644039e+003;4.605038e-002
2.645968e+003;4.600909e-002
2.647896e+003;4.592014e-002
2.649825e+003;4.586519e-002
2.651753e+003;4.582391e-002
2.653682e+003;4.591605e-002
2.655611e+003;4.595653e-002
2.657539e+003;4.581117e-002
2.659468e+003;4.551373e-002
2.661396e+003;4.542068e-002
2.663325e+003;4.541969e-002
2.665253e+003;4.561530e-002
2.667182e+003;4.578908e-002
2.669110e+003;4.576563e-002
2.671039e+003;4.560694e-002
2.672968e+003;4.551329e-002
2.674896e+003;4.552889e-002
2.676825e+003;4.571460e-002
2.678753e+003;4.583794e-002
2.680682e+003;4.570429e-002
2.682610e+003;4.565229e-002
2.684539e+003;4.589903e-002
2.686467e+003;4.597988e-002
2.688396e+003;4.609330e-002
2.690324e+003;4.632032e-002
2.692253e+003;4.644981e-002
2.694182e+003;4.648053e-002
2.696110e+003;4.661164e-002
2.698039e+003;4.653367e-002
2.699967e+003;4.644815e-002
2.701896e+003;4.682011e-002
2.703824e+003;4.712424e-002
2.705753e+003;4.742741e-002
2.707681e+003;4.767218e-002
2.709610e+003;4.793969e-002
2.711539e+003;4.827312e-002
2.713467e+003;4.836252e-002
2.715396e+003;4.844879e-002
2.717324e+003;4.856927e-002
2.719253e+003;4.884753e-002
2.721181e+003;4.911194e-002
2.723110e+003;4.913832e-002
2.725038e+003;4.910883e-002
2.726967e+003;4.925046e-002
2.728896e+003;4.945660e-002
2.730824e+003;4.942129e-002
2.732752e+003;4.941880e-002
2.734681e+003;4.945367e-002
2.736610e+003;4.949663e-002
2.738538e+003;4.939348e-002
2.740467e+003;4.928364e-002
2.742395e+003;4.952062e-002
2.744324e+003;4.943299e-002
2.746252e+003;4.921499e-002
2.748181e+003;4.920979e-002
2.750109e+003;4.911551e-002
2.752038e+003;4.893015e-002
2.753967e+003;4.896434e-002
2.755895e+003;4.910753e-002
2.757824e+003;4.889792e-002
2.759752e+003;4.885725e-002
2.761681e+003;4.909465e-002
2.763609e+003;4.904179e-002
2.765538e+003;4.905429e-002
2.767466e+003;4.943622e-002
2.769395e+003;4.957707e-002
2.771323e+003;4.949161e-002
2.773252e+003;4.937941e-002
2.775181e+003;4.941973e-002
2.777109e+003;4.964452e-002
2.779038e+003;5.000455e-002
2.780966e+003;5.028391e-002
2.782895e+003;5.053122e-002
2.784823e+003;5.069987e-002
2.786752e+003;5.073555e-002
2.788680e+003;5.089020e-002
2.790609e+003;5.110721e-002
2.792538e+003;5.141105e-002
2.794466e+003;5.169670e-002
2.796395e+003;5.182888e-002
2.798323e+003;5.192502e-002
2.800252e+003;5.216426e-002
2.802180e+003;5.233975e-002
2.804109e+003;5.247654e-002
2.806037e+003;5.264849e-002
2.807966e+003;5.282964e-002
2.809895e+003;5.287863e-002
2.811823e+003;5.300735e-002
2.813751e+003;5.338752e-002
2.815680e+003;5.362120e-002
2.817609e+003;5.360283e-002
2.819537e+003;5.369648e-002
2.821466e+003;5.384720e-002
2.823394e+003;5.406607e-002
2.825323e+003;5.428709e-002
2.827251e+003;5.462652e-002
2.829180e+003;5.504208e-002
2.831108e+003;5.523190e-002
2.833037e+003;5.543740e-002
2.834966e+003;5.606453e-002
2.836894e+003;5.653264e-002
2.838823e+003;5.706020e-002
2.840751e+003;5.752087e-002
2.842680e+003;5.766312e-002
2.844608e+003;5.776230e-002
2.846537e+003;5.785621e-002
2.848465e+003;5.797207e-002
2.850394e+003;5.825229e-002
2.852323e+003;5.872799e-002
2.854251e+003;5.946138e-002
2.856180e+003;6.049887e-002
2.858108e+003;6.180993e-002
2.860037e+003;6.313404e-002
2.861965e+003;6.468944e-002
2.863894e+003;6.585658e-002
2.865822e+003;6.633953e-002
2.867751e+003;6.688212e-002
2.869679e+003;6.751920e-002
2.871608e+003;6.771363e-002
2.873536e+003;6.784195e-002
2.875465e+003;6.841558e-002
2.877394e+003;6.878655e-002
2.879322e+003;6.885114e-002
2.881251e+003;6.889141e-002
2.883179e+003;6.928047e-002
2.885108e+003;6.947351e-002
2.887036e+003;6.946838e-002
2.888965e+003;6.938615e-002
2.890893e+003;6.909096e-002
2.892822e+003;6.877668e-002
2.894750e+003;6.844281e-002
2.896679e+003;6.815101e-002
2.898608e+003;6.798580e-002
2.900536e+003;6.747255e-002
2.902465e+003;6.719159e-002
2.904393e+003;6.714359e-002
2.906322e+003;6.681363e-002
2.908250e+003;6.625010e-002
2.910179e+003;6.544284e-002
2.912107e+003;6.474333e-002
2.914036e+003;6.420832e-002
2.915965e+003;6.358378e-002
2.917893e+003;6.308476e-002
2.919822e+003;6.277005e-002
2.921750e+003;6.232355e-002
2.923679e+003;6.221177e-002
2.925607e+003;6.270229e-002
2.927536e+003;6.328400e-002
2.929464e+003;6.397425e-002
2.931393e+003;6.491563e-002
2.933322e+003;6.602716e-002
2.935250e+003;6.712472e-002
2.937178e+003;6.794569e-002
2.939107e+003;6.891735e-002
2.941036e+003;6.973173e-002
2.942964e+003;6.980763e-002
2.944893e+003;6.985456e-002
2.946821e+003;6.996510e-002
2.948750e+003;6.987383e-002
2.950678e+003;6.973810e-002
2.952607e+003;6.926803e-002
2.954535e+003;6.854534e-002
2.956464e+003;6.815574e-002
2.958393e+003;6.855981e-002
2.960321e+003;6.874881e-002
2.962250e+003;6.836489e-002
2.964178e+003;6.777501e-002
2.966107e+003;6.724381e-002
2.968035e+003;6.679292e-002
2.969964e+003;6.621961e-002
2.971892e+003;6.569728e-002
2.973821e+003;6.527622e-002
2.975750e+003;6.514901e-002
2.977678e+003;6.505986e-002
2.979607e+003;6.456394e-002
2.981535e+003;6.409905e-002
2.983464e+003;6.374715e-002
2.985392e+003;6.371342e-002
2.987321e+003;6.370018e-002
2.989249e+003;6.347958e-002
2.991178e+003;6.347785e-002
2.993106e+003;6.335914e-002
2.995035e+003;6.289051e-002
2.996964e+003;6.232325e-002
2.998892e+003;6.193709e-002
3.000821e+003;6.189742e-002
3.002749e+003;6.178289e-002
3.004678e+003;6.147175e-002
3.006606e+003;6.120272e-002
3.008535e+003;6.093099e-002
3.010463e+003;6.060081e-002
3.012392e+003;6.053327e-002
3.014321e+003;6.068943e-002
3.016249e+003;6.074529e-002
3.018177e+003;6.064588e-002
3.020106e+003;6.038634e-002
3.022035e+003;6.017732e-002
3.023963e+003;6.042214e-002
3.025892e+003;6.036335e-002
3.027820e+003;5.977305e-002
3.029749e+003;5.919602e-002
3.031677e+003;5.875990e-002
3.033606e+003;5.874537e-002
3.035534e+003;5.883273e-002
3.037463e+003;5.843238e-002
3.039392e+003;5.765593e-002
3.041320e+003;5.687285e-002
3.043249e+003;5.647109e-002
3.045177e+003;5.626016e-002
3.047106e+003;5.611023e-002
3.049034e+003;5.576266e-002
3.050963e+003;5.521460e-002
3.052891e+003;5.464903e-002
3.054820e+003;5.427609e-002
3.056749e+003;5.413198e-002
3.058677e+003;5.397523e-002
3.060606e+003;5.355050e-002
3.062534e+003;5.323434e-002
3.064463e+003;5.307590e-002
3.066391e+003;5.292317e-002
3.068320e+003;5.287679e-002
3.070248e+003;5.275406e-002
3.072177e+003;5.266469e-002
3.074105e+003;5.260769e-002
3.076034e+003;5.264520e-002
3.077963e+003;5.235216e-002
3.079891e+003;5.171461e-002
3.081820e+003;5.146230e-002
3.083748e+003;5.149733e-002
3.085677e+003;5.138837e-002
3.087605e+003;5.098919e-002
3.089534e+003;5.081052e-002
3.091462e+003;5.099452e-002
3.093391e+003;5.086866e-002
3.095320e+003;5.081544e-002
3.097248e+003;5.077756e-002
3.099177e+003;5.049274e-002
3.101105e+003;5.062831e-002
3.103034e+003;5.111403e-002
3.104962e+003;5.107546e-002
3.106891e+003;5.082735e-002
3.108819e+003;5.080359e-002
3.110748e+003;5.092108e-002
3.112677e+003;5.069987e-002
3.114605e+003;5.024515e-002
3.116533e+003;5.008835e-002
3.118462e+003;5.032249e-002
3.120391e+003;5.048608e-002
3.122319e+003;5.032123e-002
3.124248e+003;4.988069e-002
3.126176e+003;4.965908e-002
3.128105e+003;4.977749e-002
3.130033e+003;4.952608e-002
3.131962e+003;4.938936e-002
3.133890e+003;4.943651e-002
3.135819e+003;4.946685e-002
3.137748e+003;4.945708e-002
3.139676e+003;4.962818e-002
3.141605e+003;4.973424e-002
3.143533e+003;4.948151e-002
3.145462e+003;4.936768e-002
3.147390e+003;4.938565e-002
3.149319e+003;4.929378e-002
3.151247e+003;4.896468e-002
3.153176e+003;4.904943e-002
3.155104e+003;4.918975e-002
3.157033e+003;4.914025e-002
3.158962e+003;4.928795e-002
3.160890e+003;4.960233e-002
3.162819e+003;4.971343e-002
3.164747e+003;4.951011e-002
3.166676e+003;4.948430e-002
3.168604e+003;4.927563e-002
3.170533e+003;4.934032e-002
3.172461e+003;4.953428e-002
3.174390e+003;4.922207e-002
3.176319e+003;4.923695e-002
3.178247e+003;4.932250e-002
3.180176e+003;4.908538e-002
3.182104e+003;4.916908e-002
3.184033e+003;4.938153e-002
3.185961e+003;4.960132e-002
3.187890e+003;4.961510e-002
3.189818e+003;4.930183e-002
3.191747e+003;4.917821e-002
3.193676e+003;4.911985e-002
3.195604e+003;4.902617e-002
3.197532e+003;4.924323e-002
3.199461e+003;4.958178e-002
3.201390e+003;4.963635e-002
3.203318e+003;4.982446e-002
3.205247e+003;4.962105e-002
3.207175e+003;4.914604e-002
3.209104e+003;4.914656e-002
3.211032e+003;4.957462e-002
3.212961e+003;5.004730e-002
3.214889e+003;5.029745e-002
3.216818e+003;5.010260e-002
3.218747e+003;5.006076e-002
3.220675e+003;5.063263e-002
3.222604e+003;5.087585e-002
3.224532e+003;5.057801e-002
3.226461e+003;5.056037e-002
3.228389e+003;5.106033e-002
3.230318e+003;5.126874e-002
3.232246e+003;5.113383e-002
3.234175e+003;5.098107e-002
3.236104e+003;5.097216e-002
3.238032e+003;5.133303e-002
3.239961e+003;5.139721e-002
3.241889e+003;5.136741e-002
3.243818e+003;5.159773e-002
3.245746e+003;5.198130e-002
3.247675e+003;5.225200e-002
3.249603e+003;5.210912e-002
3.251532e+003;5.196882e-002
3.253460e+003;5.198634e-002
3.255389e+003;5.204266e-002
3.257318e+003;5.218130e-002
3.259246e+003;5.231774e-002
3.261175e+003;5.244095e-002
3.263103e+003;5.258065e-002
3.265032e+003;5.286781e-002
3.266960e+003;5.325712e-002
3.268889e+003;5.348251e-002
3.270817e+003;5.347468e-002
3.272746e+003;5.355777e-002
3.274675e+003;5.373874e-002
3.276603e+003;5.382668e-002
3.278531e+003;5.400844e-002
3.280460e+003;5.400465e-002
3.282389e+003;5.391086e-002
3.284317e+003;5.425495e-002
3.286246e+003;5.461495e-002
3.288174e+003;5.496378e-002
3.290103e+003;5.496773e-002
3.292031e+003;5.462273e-002
3.293960e+003;5.468635e-002
3.295888e+003;5.495622e-002
3.297817e+003;5.518397e-002
3.299746e+003;5.534187e-002
3.301674e+003;5.563064e-002
3.303603e+003;5.597030e-002
3.305531e+003;5.594410e-002
3.307460e+003;5.567663e-002
3.309388e+003;5.568167e-002
3.311317e+003;5.609549e-002
3.313245e+003;5.638861e-002
3.315174e+003;5.664656e-002
3.317103e+003;5.705532e-002
3.319031e+003;5.723733e-002
3.320960e+003;5.728459e-002
3.322888e+003;5.733934e-002
3.324817e+003;5.730637e-002
3.326745e+003;5.737405e-002
3.328674e+003;5.767625e-002
3.330602e+003;5.788135e-002
3.332531e+003;5.807205e-002
3.334459e+003;5.796442e-002
3.336388e+003;5.784444e-002
3.338317e+003;5.804015e-002
3.340245e+003;5.810769e-002
3.342174e+003;5.818549e-002
3.344102e+003;5.892950e-002
3.346031e+003;5.949725e-002
3.347959e+003;5.956732e-002
3.349888e+003;5.965695e-002
3.351816e+003;5.981930e-002
3.353745e+003;5.980884e-002
3.355674e+003;5.984907e-002
3.357602e+003;6.010376e-002
3.359531e+003;6.044761e-002
3.361459e+003;6.069301e-002
3.363388e+003;6.071660e-002
3.365316e+003;6.046190e-002
3.367245e+003;6.041677e-002
3.369173e+003;6.066158e-002
3.371102e+003;6.074422e-002
3.373031e+003;6.079647e-002
3.374959e+003;6.111933e-002
3.376887e+003;6.144636e-002
3.378816e+003;6.152130e-002
3.380745e+003;6.176317e-002
3.382673e+003;6.171841e-002
3.384602e+003;6.146029e-002
3.386530e+003;6.156383e-002
3.388459e+003;6.185207e-002
3.390387e+003;6.208121e-002
3.392316e+003;6.250266e-002
3.394244e+003;6.301270e-002
3.396173e+003;6.313048e-002
3.398102e+003;6.301155e-002
3.400030e+003;6.335937e-002
3.401959e+003;6.362917e-002
3.403887e+003;6.351509e-002
3.405816e+003;6.343107e-002
3.407744e+003;6.343441e-002
3.409673e+003;6.355904e-002
3.411601e+003;6.374197e-002
3.413530e+003;6.379868e-002
3.415458e+003;6.387345e-002
3.417387e+003;6.411722e-002
3.419316e+003;6.431270e-002
3.421244e+003;6.410496e-002
3.423173e+003;6.446996e-002
3.425101e+003;6.521627e-002
3.427030e+003;6.536841e-002
3.428958e+003;6.576443e-002
3.430887e+003;6.622925e-002
3.432815e+003;6.633355e-002
3.434744e+003;6.610709e-002
3.436673e+003;6.576674e-002
3.438601e+003;6.574569e-002
3.440530e+003;6.599101e-002
3.442458e+003;6.635003e-002
3.444387e+003;6.659956e-002
3.446315e+003;6.675405e-002
3.448244e+003;6.688134e-002
3.450172e+003;6.718849e-002
3.452101e+003;6.762891e-002
3.454030e+003;6.783106e-002
3.455958e+003;6.797088e-002
3.457886e+003;6.814807e-002
3.459815e+003;6.834704e-002
3.461744e+003;6.852838e-002
3.463672e+003;6.854460e-002
3.465601e+003;6.866889e-002
3.467529e+003;6.877571e-002
3.469458e+003;6.896069e-002
3.471386e+003;6.957166e-002
3.473315e+003;6.966808e-002
3.475243e+003;6.931028e-002
3.477172e+003;6.940151e-002
3.479101e+003;6.945034e-002
3.481029e+003;6.933714e-002
3.482958e+003;6.930313e-002
3.484886e+003;6.960849e-002
3.486815e+003;6.972317e-002
3.488743e+003;6.943210e-002
3.490672e+003;6.942697e-002
3.492600e+003;6.878398e-002
3.494529e+003;6.842144e-002
3.496458e+003;6.874749e-002
3.498386e+003;6.889801e-002
3.500315e+003;6.892795e-002
3.502243e+003;6.888904e-002
3.504172e+003;6.872987e-002
3.506100e+003;6.846698e-002
3.508029e+003;6.845173e-002
3.509957e+003;6.849250e-002
3.511886e+003;6.824743e-002
3.513814e+003;6.815989e-002
3.515743e+003;6.797495e-002
3.517672e+003;6.777281e-002
3.519600e+003;6.806841e-002
3.521529e+003;6.845258e-002
3.523457e+003;6.851438e-002
3.525386e+003;6.816296e-002
3.527314e+003;6.747856e-002
3.529243e+003;6.713160e-002
3.531171e+003;6.706621e-002
3.533100e+003;6.685545e-002
3.535029e+003;6.652672e-002
3.536957e+003;6.612642e-002
3.538885e+003;6.611365e-002
3.540814e+003;6.640230e-002
3.542743e+003;6.623416e-002
3.544671e+003;6.561310e-002
3.546600e+003;6.507014e-002
3.548528e+003;6.478594e-002
3.550457e+003;6.447691e-002
3.552385e+003;6.414349e-002
3.554314e+003;6.402332e-002
3.556242e+003;6.365959e-002
3.558171e+003;6.325579e-002
3.560100e+003;6.329688e-002
3.562028e+003;6.345526e-002
3.563957e+003;6.278479e-002
3.565885e+003;6.179285e-002
3.567814e+003;6.162351e-002
3.569742e+003;6.175389e-002
3.571671e+003;6.146285e-002
3.573599e+003;6.078428e-002
3.575528e+003;6.071164e-002
3.577457e+003;6.080139e-002
3.579385e+003;6.032855e-002
3.581314e+003;5.984116e-002
3.583242e+003;5.941024e-002
3.585171e+003;5.875314e-002
3.587099e+003;5.803652e-002
3.589028e+003;5.767992e-002
3.590956e+003;5.762339e-002
3.592885e+003;5.721156e-002
3.594813e+003;5.682557e-002
3.596742e+003;5.644536e-002
3.598671e+003;5.590215e-002
3.600599e+003;5.581699e-002
3.602528e+003;5.512814e-002
3.604456e+003;5.447174e-002
3.606385e+003;5.447125e-002
3.608313e+003;5.431600e-002
3.610242e+003;5.373878e-002
3.612170e+003;5.298912e-002
3.614099e+003;5.237097e-002
3.616028e+003;5.202556e-002
3.617956e+003;5.176164e-002
3.619885e+003;5.176769e-002
3.621813e+003;5.164971e-002
3.623742e+003;5.112641e-002
3.625670e+003;5.058918e-002
3.627599e+003;5.008962e-002
3.629527e+003;4.968074e-002
3.631456e+003;4.948905e-002
3.633385e+003;4.921413e-002
3.635313e+003;4.893378e-002
3.637241e+003;4.853315e-002
3.639170e+003;4.790946e-002
3.641099e+003;4.748936e-002
3.643027e+003;4.727510e-002
3.644956e+003;4.672073e-002
3.646884e+003;4.597247e-002
3.648813e+003;4.545126e-002
3.650741e+003;4.530456e-002
3.652670e+003;4.536937e-002
3.654598e+003;4.458098e-002
3.656527e+003;4.343644e-002
3.658456e+003;4.287704e-002
3.660384e+003;4.217575e-002
3.662313e+003;4.175131e-002
3.664241e+003;4.135432e-002
3.666170e+003;4.069231e-002
3.668098e+003;4.007922e-002
3.670027e+003;3.911963e-002
3.671955e+003;3.815304e-002
3.673884e+003;3.748050e-002
3.675813e+003;3.707747e-002
3.677741e+003;3.699499e-002
3.679669e+003;3.659735e-002
3.681598e+003;3.623793e-002
3.683527e+003;3.552691e-002
3.685455e+003;3.444501e-002
3.687384e+003;3.419844e-002
3.689312e+003;3.456799e-002
3.691241e+003;3.460312e-002
3.693169e+003;3.412034e-002
3.695098e+003;3.398258e-002
3.697026e+003;3.391874e-002
3.698955e+003;3.348529e-002
3.700884e+003;3.287246e-002
3.702812e+003;3.259142e-002
3.704741e+003;3.268497e-002
3.706669e+003;3.270198e-002
3.708598e+003;3.247551e-002
3.710526e+003;3.231182e-002
3.712455e+003;3.219687e-002
3.714383e+003;3.210421e-002
3.716312e+003;3.202034e-002
3.718240e+003;3.192066e-002
3.720169e+003;3.176574e-002
3.722098e+003;3.153447e-002
3.724026e+003;3.135416e-002
3.725955e+003;3.152728e-002
3.727883e+003;3.165022e-002
3.729812e+003;3.141592e-002
3.731740e+003;3.095471e-002
3.733669e+003;3.090678e-002
3.735597e+003;3.136003e-002
3.737526e+003;3.155714e-002
3.739455e+003;3.129347e-002
3.741383e+003;3.115031e-002
3.743312e+003;3.077125e-002
3.745240e+003;3.051204e-002
3.747169e+003;3.039419e-002
3.749097e+003;2.996005e-002
3.751026e+003;2.990954e-002
3.752954e+003;3.020909e-002
3.754883e+003;3.064493e-002
3.756812e+003;3.063896e-002
3.758740e+003;3.067960e-002
3.760668e+003;3.086416e-002
3.762597e+003;3.049356e-002
3.764526e+003;3.025790e-002
3.766454e+003;3.072804e-002
3.768383e+003;3.096350e-002
3.770311e+003;3.058769e-002
3.772240e+003;3.062708e-002
3.774168e+003;3.082983e-002
3.776097e+003;3.087334e-002
3.778025e+003;3.078317e-002
3.779954e+003;3.076641e-002
3.781883e+003;3.075987e-002
3.783811e+003;3.075382e-002
3.785740e+003;3.098246e-002
3.787668e+003;3.062694e-002
3.789597e+003;3.079259e-002
3.791525e+003;3.156761e-002
3.793454e+003;3.162071e-002
3.795382e+003;3.120980e-002
3.797311e+003;3.118370e-002
3.799240e+003;3.103068e-002
3.801168e+003;3.043929e-002
3.803097e+003;3.056170e-002
3.805025e+003;3.072167e-002
3.806954e+003;3.079149e-002
3.808882e+003;3.107164e-002
3.810811e+003;3.141064e-002
3.812739e+003;3.150608e-002
3.814668e+003;3.104360e-002
3.816596e+003;3.081699e-002
3.818525e+003;3.128720e-002
3.820454e+003;3.124280e-002
3.822382e+003;3.102043e-002
3.824311e+003;3.094659e-002
3.826239e+003;3.064230e-002
3.828168e+003;3.061475e-002
3.830096e+003;3.080323e-002
3.832025e+003;3.082151e-002
3.833953e+003;3.108392e-002
3.835882e+003;3.075517e-002
3.837811e+003;3.017897e-002
3.839739e+003;3.043076e-002
3.841667e+003;3.089145e-002
3.843596e+003;3.109350e-002
3.845525e+003;3.103705e-002
3.847453e+003;3.095734e-002
3.849382e+003;3.112561e-002
3.851310e+003;3.090895e-002
3.853239e+003;3.048002e-002
3.855167e+003;3.082631e-002
3.857096e+003;3.125569e-002
3.859024e+003;3.110542e-002
3.860953e+003;3.117640e-002
3.862882e+003;3.149938e-002
3.864810e+003;3.159038e-002
3.866739e+003;3.149265e-002
3.868667e+003;3.138051e-002
3.870596e+003;3.174388e-002
3.872524e+003;3.198653e-002
3.874453e+003;3.190579e-002
3.876381e+003;3.207392e-002
3.878310e+003;3.204549e-002
3.880239e+003;3.189487e-002
3.882167e+003;3.180744e-002
3.884096e+003;3.188222e-002
3.886024e+003;3.234890e-002
3.887953e+003;3.247175e-002
3.889881e+003;3.216793e-002
3.891810e+003;3.251032e-002
3.893738e+003;3.272352e-002
3.895667e+003;3.260685e-002
3.897595e+003;3.233331e-002
3.899524e+003;3.229986e-002
3.901453e+003;3.260307e-002
3.903381e+003;3.278155e-002
3.905310e+003;3.305416e-002
3.907238e+003;3.326631e-002
3.909167e+003;3.349373e-002
3.911095e+003;3.334905e-002
3.913024e+003;3.313833e-002
3.914952e+003;3.290280e-002
3.916881e+003;3.292285e-002
3.918810e+003;3.345232e-002
3.920738e+003;3.357262e-002
3.922667e+003;3.364161e-002
3.924595e+003;3.394697e-002
3.926524e+003;3.396990e-002
3.928452e+003;3.412059e-002
3.930381e+003;3.435395e-002
3.932309e+003;3.448666e-002
3.934238e+003;3.448791e-002
3.936167e+003;3.432383e-002
3.938095e+003;3.432472e-002
3.940023e+003;3.449437e-002
3.941952e+003;3.444817e-002
3.943881e+003;3.483013e-002
3.945809e+003;3.532645e-002
3.947738e+003;3.532685e-002
3.949666e+003;3.527991e-002
3.951595e+003;3.487953e-002
3.953523e+003;3.476842e-002
3.955452e+003;3.512142e-002
3.957380e+003;3.550408e-002
3.959309e+003;3.572505e-002
3.961238e+003;3.590979e-002
3.963166e+003;3.599052e-002
3.965095e+003;3.617122e-002
3.967023e+003;3.646666e-002
3.968952e+003;3.666335e-002
3.970880e+003;3.660513e-002
3.972809e+003;3.685545e-002
3.974737e+003;3.754895e-002
3.976666e+003;3.752890e-002
3.978594e+003;3.718416e-002
3.980523e+003;3.720658e-002
3.982452e+003;3.711753e-002
3.984380e+003;3.673363e-002
3.986309e+003;3.660820e-002
3.988237e+003;3.692601e-002
3.990166e+003;3.691374e-002
3.992094e+003;3.666519e-002
3.994023e+003;3.666440e-002
3.995951e+003;3.647077e-002
3.997880e+003;3.668499e-002
3.999809e+003;3.727390e-002
4.001737e+003;0.000000e+000
