3.992094e+002;0.000000e+000
4.011380e+002;0.000000e+000
4.030665e+002;0.000000e+000
4.049951e+002;0.000000e+000
4.069236e+002;0.000000e+000
4.088522e+002;0.000000e+000
4.107807e+002;0.000000e+000
4.127093e+002;0.000000e+000
4.146378e+002;0.000000e+000
4.165664e+002;0.000000e+000
4.184949e+002;0.000000e+000
4.204235e+002;0.000000e+000
4.223520e+002;0.000000e+000
4.242806e+002;0.000000e+000
4.262091e+002;0.000000e+000
4.281377e+002;0.000000e+000
4.300662e+002;0.000000e+000
4.319948e+002;0.000000e+000
4.339233e+002;0.000000e+000
4.358519e+002;0.000000e+000
4.377804e+002;0.000000e+000
4.397090e+002;0.000000e+000
4.416375e+002;0.000000e+000
4.435660e+002;0.000000e+000
4.454946e+002;0.000000e+000
4.474232e+002;0.000000e+000
4.493517e+002;0.000000e+000
4.512802e+002;0.000000e+000
4.532088e+002;0.000000e+000
4.551373e+002;0.000000e+000
4.570659e+002;0.000000e+000
4.589944e+002;0.000000e+000
4.609230e+002;0.000000e+000
4.628515e+002;0.000000e+000
4.647801e+002;0.000000e+000
4.667086e+002;0.000000e+000
4.686372e+002;0.000000e+000
4.705657e+002;0.000000e+000
4.724943e+002;0.000000e+000
4.744228e+002;0.000000e+000
4.763513e+002;0.000000e+000
4.782799e+002;0.000000e+000
4.802085e+002;0.000000e+000
4.821370e+002;0.000000e+000
4.840656e+002;0.000000e+000
4.859941e+002;0.000000e+000
4.879226e+002;0.000000e+000
4.898512e+002;0.000000e+000
4.917798e+002;0.000000e+000
4.937083e+002;0.000000e+000
4.956368e+002;0.000000e+000
4.975654e+002;0.000000e+000
4.994939e+002;0.000000e+000
5.014225e+002;0.000000e+000
5.033510e+002;0.000000e+000
5.052796e+002;0.000000e+000
5.072081e+002;0.000000e+000
5.091367e+002;0.000000e+000
5.110652e+002;0.000000e+000
5.129938e+002;0.000000e+000
5.149223e+002;0.000000e+000
5.168509e+002;0.000000e+000
5.187794e+002;0.000000e+000
5.207079e+002;0.000000e+000
5.226365e+002;0.000000e+000
5.245651e+002;0.000000e+000
5.264936e+002;0.000000e+000
5.284222e+002;0.000000e+000
5.303507e+002;0.000000e+000
5.322792e+002;0.000000e+000
5.342078e+002;0.000000e+000
5.361364e+002;0.000000e+000
5.380649e+002;0.000000e+000
5.399935e+002;0.000000e+000
5.419220e+002;0.000000e+000
5.438505e+002;0.000000e+000
5.457791e+002;0.000000e+000
5.477076e+002;0.000000e+000
5.496362e+002;0.000000e+000
5.515648e+002;0.000000e+000
5.534933e+002;0.000000e+000
5.554218e+002;0.000000e+000
5.573504e+002;0.000000e+000
5.592789e+002;0.000000e+000
5.612075e+002;0.000000e+000
5.631360e+002;0.000000e+000
5.650646e+002;0.000000e+000
5.669931e+002;0.000000e+000
5.689217e+002;0.000000e+000
5.708502e+002;0.000000e+000
5.727787e+002;0.000000e+000
5.747073e+002;0.000000e+000
5.766359e+002;0.000000e+000
5.785644e+002;0.000000e+000
5.804930e+002;0.000000e+000
5.824215e+002;0.000000e+000
5.843500e+002;0.000000e+000
5.862786e+002;0.000000e+000
5.882072e+002;0.000000e+000
5.901357e+002;0.000000e+000
5.920643e+002;0.000000e+000
5.939928e+002;0.000000e+000
5.959213e+002;0.000000e+000
5.978499e+002;0.000000e+000
5.997784e+002;1.336017e-001
6.017070e+002;1.244410e-001
6.036355e+002;1.195311e-001
6.055641e+002;1.299307e-001
6.074926e+002;1.355493e-001
6.094211e+002;1.316289e-001
6.113497e+002;1.275469e-001
6.132783e+002;1.280741e-001
6.152068e+002;1.277218e-001
6.171354e+002;1.256271e-001
6.190639e+002;1.257159e-001
6.209924e+002;1.243183e-001
6.229210e+002;1.228297e-001
6.248495e+002;1.223675e-001
6.267781e+002;1.219551e-001
6.287067e+002;1.169676e-001
6.306352e+002;1.151315e-001
6.325637e+002;1.172912e-001
6.344923e+002;1.169885e-001
6.364208e+002;1.186299e-001
6.383494e+002;1.163221e-001
6.402780e+002;1.165124e-001
6.422065e+002;1.164784e-001
6.441350e+002;1.170376e-001
6.460636e+002;1.171681e-001
6.479921e+002;1.141898e-001
6.499207e+002;1.130821e-001
6.518492e+002;1.157954e-001
6.537778e+002;1.193810e-001
6.557063e+002;1.229193e-001
6.576349e+002;1.231269e-001
6.595634e+002;1.218758e-001
6.614919e+002;1.205852e-001
6.634205e+002;1.216806e-001
6.653491e+002;1.248128e-001
6.672776e+002;1.250582e-001
6.692062e+002;1.221295e-001
6.711347e+002;1.205990e-001
6.730632e+002;1.171485e-001
6.749918e+002;1.112139e-001
6.769203e+002;1.069784e-001
6.788489e+002;1.025258e-001
6.807775e+002;9.701970e-002
6.827060e+002;9.327818e-002
6.846345e+002;9.187683e-002
6.865631e+002;9.250157e-002
6.884916e+002;9.312969e-002
6.904202e+002;9.332504e-002
6.923488e+002;9.314738e-002
6.942773e+002;9.226356e-002
6.962058e+002;9.231785e-002
6.981344e+002;9.321045e-002
7.000629e+002;9.242003e-002
7.019915e+002;9.154468e-002
7.039200e+002;9.090415e-002
7.058486e+002;9.034121e-002
7.077771e+002;8.934551e-002
7.097057e+002;8.812392e-002
7.116342e+002;8.791421e-002
7.135627e+002;8.718345e-002
7.154913e+002;8.783291e-002
7.174199e+002;8.833645e-002
7.193484e+002;8.695481e-002
7.212770e+002;8.502030e-002
7.232055e+002;8.448727e-002
7.251340e+002;8.323402e-002
7.270626e+002;8.272710e-002
7.289911e+002;8.290750e-002
7.309197e+002;8.304499e-002
7.328483e+002;8.331200e-002
7.347768e+002;8.300400e-002
7.367053e+002;8.296497e-002
7.386339e+002;8.310902e-002
7.405624e+002;8.230288e-002
7.424910e+002;8.163135e-002
7.444196e+002;8.027723e-002
7.463481e+002;8.043838e-002
7.482766e+002;8.153464e-002
7.502052e+002;8.003382e-002
7.521337e+002;7.719377e-002
7.540623e+002;7.548805e-002
7.559908e+002;7.556714e-002
7.579194e+002;7.580190e-002
7.598479e+002;7.536168e-002
7.617765e+002;7.499659e-002
7.637050e+002;7.481162e-002
7.656335e+002;7.485556e-002
7.675621e+002;7.497678e-002
7.694907e+002;7.404838e-002
7.714192e+002;7.335176e-002
7.733478e+002;7.404638e-002
7.752763e+002;7.387258e-002
7.772048e+002;7.267512e-002
7.791334e+002;7.237342e-002
7.810620e+002;7.178508e-002
7.829905e+002;7.140494e-002
7.849191e+002;7.159144e-002
7.868476e+002;7.188367e-002
7.887761e+002;7.262397e-002
7.907047e+002;7.346377e-002
7.926332e+002;7.326361e-002
7.945618e+002;7.306111e-002
7.964903e+002;7.362484e-002
7.984189e+002;7.347468e-002
8.003474e+002;7.325698e-002
8.022759e+002;7.396108e-002
8.042045e+002;7.399632e-002
8.061331e+002;7.390051e-002
8.080616e+002;7.349089e-002
8.099902e+002;7.333320e-002
8.119187e+002;7.459562e-002
8.138472e+002;7.516828e-002
8.157758e+002;7.564498e-002
8.177043e+002;7.605569e-002
8.196329e+002;7.612095e-002
8.215615e+002;7.592280e-002
8.234900e+002;7.478671e-002
8.254185e+002;7.413421e-002
8.273471e+002;7.347260e-002
8.292756e+002;7.207400e-002
8.312042e+002;7.100571e-002
8.331328e+002;7.029290e-002
8.350613e+002;6.911109e-002
8.369898e+002;6.825925e-002
8.389184e+002;6.846496e-002
8.408469e+002;6.844723e-002
8.427755e+002;6.835158e-002
8.447040e+002;6.797134e-002
8.466326e+002;6.853355e-002
8.485611e+002;6.860285e-002
8.504897e+002;6.790102e-002
8.524182e+002;6.741319e-002
8.543467e+002;6.702801e-002
8.562753e+002;6.663251e-002
8.582039e+002;6.652000e-002
8.601324e+002;6.673241e-002
8.620610e+002;6.627765e-002
8.639895e+002;6.652266e-002
8.659180e+002;6.756433e-002
8.678466e+002;6.773466e-002
8.697751e+002;6.825390e-002
8.717037e+002;6.982192e-002
8.736323e+002;7.162238e-002
8.755608e+002;7.352220e-002
8.774893e+002;7.472669e-002
8.794179e+002;7.586203e-002
8.813464e+002;7.771388e-002
8.832750e+002;8.050897e-002
8.852036e+002;8.355758e-002
8.871321e+002;8.572599e-002
8.890606e+002;8.753895e-002
8.909892e+002;8.932699e-002
8.929177e+002;9.050994e-002
8.948463e+002;9.076949e-002
8.967748e+002;8.983156e-002
8.987034e+002;8.807745e-002
9.006319e+002;8.696983e-002
9.025605e+002;8.624130e-002
9.044890e+002;8.445177e-002
9.064175e+002;8.288969e-002
9.083461e+002;8.144954e-002
9.102747e+002;8.020645e-002
9.122032e+002;7.977296e-002
9.141318e+002;7.929568e-002
9.160603e+002;7.831698e-002
9.179888e+002;7.764877e-002
9.199174e+002;7.791150e-002
9.218459e+002;7.841286e-002
9.237745e+002;7.941680e-002
9.257031e+002;8.056668e-002
9.276316e+002;8.103494e-002
9.295601e+002;8.155794e-002
9.314887e+002;8.189142e-002
9.334172e+002;8.300355e-002
9.353458e+002;8.513247e-002
9.372744e+002;8.616881e-002
9.392029e+002;8.640096e-002
9.411314e+002;8.714037e-002
9.430600e+002;8.801532e-002
9.449885e+002;8.875430e-002
9.469171e+002;9.019723e-002
9.488456e+002;9.210669e-002
9.507742e+002;9.403408e-002
9.527027e+002;9.567381e-002
9.546313e+002;9.743293e-002
9.565598e+002;1.004303e-001
9.584883e+002;1.030767e-001
9.604169e+002;1.047758e-001
9.623455e+002;1.067711e-001
9.642740e+002;1.093074e-001
9.662026e+002;1.114946e-001
9.681311e+002;1.134534e-001
9.700596e+002;1.159993e-001
9.719882e+002;1.188783e-001
9.739167e+002;1.222268e-001
9.758453e+002;1.260785e-001
9.777739e+002;1.299783e-001
9.797024e+002;1.341539e-001
9.816309e+002;1.390936e-001
9.835595e+002;1.443276e-001
9.854880e+002;1.499797e-001
9.874166e+002;1.558615e-001
9.893452e+002;1.611049e-001
9.912737e+002;1.650976e-001
9.932022e+002;1.684366e-001
9.951307e+002;1.715963e-001
9.970593e+002;1.740690e-001
9.989879e+002;1.759961e-001
1.000916e+003;1.774349e-001
1.002845e+003;1.786810e-001
1.004773e+003;1.811130e-001
1.006702e+003;1.839397e-001
1.008631e+003;1.865809e-001
1.010559e+003;1.897225e-001
1.012488e+003;1.928407e-001
1.014416e+003;1.953713e-001
1.016345e+003;1.966739e-001
1.018273e+003;1.974147e-001
1.020202e+003;1.974525e-001
1.022130e+003;1.970238e-001
1.024059e+003;1.965192e-001
1.025988e+003;1.963010e-001
1.027916e+003;1.958810e-001
1.029845e+003;1.947500e-001
1.031773e+003;1.931776e-001
1.033702e+003;1.912771e-001
1.035630e+003;1.903289e-001
1.037559e+003;1.901343e-001
1.039487e+003;1.893091e-001
1.041416e+003;1.874615e-001
1.043344e+003;1.852029e-001
1.045273e+003;1.832545e-001
1.047202e+003;1.817436e-001
1.049130e+003;1.800361e-001
1.051059e+003;1.781331e-001
1.052987e+003;1.766917e-001
1.054916e+003;1.756161e-001
1.056844e+003;1.735563e-001
1.058773e+003;1.702710e-001
1.060701e+003;1.672598e-001
1.062630e+003;1.647332e-001
1.064558e+003;1.615943e-001
1.066487e+003;1.588587e-001
1.068416e+003;1.572817e-001
1.070344e+003;1.555726e-001
1.072273e+003;1.535772e-001
1.074201e+003;1.519885e-001
1.076130e+003;1.503461e-001
1.078058e+003;1.491271e-001
1.079987e+003;1.481919e-001
1.081915e+003;1.467231e-001
1.083844e+003;1.449314e-001
1.085773e+003;1.426947e-001
1.087701e+003;1.409400e-001
1.089630e+003;1.392794e-001
1.091558e+003;1.374804e-001
1.093487e+003;1.351993e-001
1.095415e+003;1.327107e-001
1.097344e+003;1.308809e-001
1.099272e+003;1.289358e-001
1.101201e+003;1.265464e-001
1.103129e+003;1.243649e-001
1.105058e+003;1.224942e-001
1.106987e+003;1.215532e-001
1.108915e+003;1.204555e-001
1.110844e+003;1.190934e-001
1.112772e+003;1.174707e-001
1.114701e+003;1.161859e-001
1.116629e+003;1.154783e-001
1.118558e+003;1.145700e-001
1.120486e+003;1.133531e-001
1.122415e+003;1.118677e-001
1.124344e+003;1.103895e-001
1.126272e+003;1.095864e-001
1.128201e+003;1.087743e-001
1.130129e+003;1.078974e-001
1.132058e+003;1.067333e-001
1.133986e+003;1.046865e-001
1.135915e+003;1.024216e-001
1.137843e+003;9.995370e-002
1.139772e+003;9.738405e-002
1.141700e+003;9.532129e-002
1.143629e+003;9.363578e-002
1.145557e+003;9.267750e-002
1.147486e+003;9.191142e-002
1.149415e+003;9.108560e-002
1.151343e+003;9.087078e-002
1.153272e+003;9.091841e-002
1.155200e+003;9.079183e-002
1.157129e+003;9.064622e-002
1.159057e+003;9.015734e-002
1.160986e+003;8.859576e-002
1.162914e+003;8.632735e-002
1.164843e+003;8.417943e-002
1.166771e+003;8.256559e-002
1.168700e+003;8.040556e-002
1.170629e+003;7.838750e-002
1.172557e+003;7.708161e-002
1.174486e+003;7.603454e-002
1.176414e+003;7.502526e-002
1.178343e+003;7.443681e-002
1.180271e+003;7.428280e-002
1.182200e+003;7.393095e-002
1.184128e+003;7.356384e-002
1.186057e+003;7.375444e-002
1.187986e+003;7.440327e-002
1.189914e+003;7.539794e-002
1.191843e+003;7.603023e-002
1.193771e+003;7.644822e-002
1.195700e+003;7.705095e-002
1.197628e+003;7.715930e-002
1.199557e+003;7.690948e-002
1.201485e+003;7.653686e-002
1.203414e+003;7.585619e-002
1.205343e+003;7.494576e-002
1.207271e+003;7.450191e-002
1.209200e+003;7.470654e-002
1.211128e+003;7.511462e-002
1.213057e+003;7.526055e-002
1.214985e+003;7.538836e-002
1.216914e+003;7.564282e-002
1.218842e+003;7.646841e-002
1.220771e+003;7.806443e-002
1.222699e+003;7.897600e-002
1.224628e+003;7.914350e-002
1.226557e+003;7.936449e-002
1.228485e+003;7.976388e-002
1.230414e+003;7.980760e-002
1.232342e+003;7.960048e-002
1.234271e+003;7.893844e-002
1.236199e+003;7.862224e-002
1.238128e+003;7.872716e-002
1.240056e+003;7.881968e-002
1.241985e+003;7.882997e-002
1.243913e+003;7.843187e-002
1.245842e+003;7.792843e-002
1.247771e+003;7.805115e-002
1.249699e+003;7.813063e-002
1.251628e+003;7.823960e-002
1.253556e+003;7.893522e-002
1.255485e+003;7.985538e-002
1.257413e+003;8.095037e-002
1.259342e+003;8.185025e-002
1.261270e+003;8.190951e-002
1.263199e+003;8.086327e-002
1.265127e+003;7.978853e-002
1.267056e+003;7.845993e-002
1.268985e+003;7.720841e-002
1.270913e+003;7.649714e-002
1.272842e+003;7.608590e-002
1.274770e+003;7.641776e-002
1.276699e+003;7.696435e-002
1.278627e+003;7.725694e-002
1.280556e+003;7.762785e-002
1.282484e+003;7.789774e-002
1.284413e+003;7.797974e-002
1.286342e+003;7.844485e-002
1.288270e+003;7.903256e-002
1.290199e+003;7.958543e-002
1.292127e+003;8.034556e-002
1.294056e+003;8.063697e-002
1.295984e+003;8.054765e-002
1.297913e+003;8.030342e-002
1.299841e+003;7.997809e-002
1.301770e+003;8.004665e-002
1.303698e+003;8.008387e-002
1.305627e+003;7.994328e-002
1.307556e+003;8.000924e-002
1.309484e+003;8.019879e-002
1.311413e+003;8.047379e-002
1.313341e+003;8.028504e-002
1.315270e+003;7.982225e-002
1.317198e+003;7.919662e-002
1.319127e+003;7.820208e-002
1.321055e+003;7.710021e-002
1.322984e+003;7.616355e-002
1.324912e+003;7.550279e-002
1.326841e+003;7.537543e-002
1.328770e+003;7.546873e-002
1.330698e+003;7.561974e-002
1.332627e+003;7.587004e-002
1.334555e+003;7.609359e-002
1.336484e+003;7.639401e-002
1.338412e+003;7.666361e-002
1.340341e+003;7.661808e-002
1.342269e+003;7.620415e-002
1.344198e+003;7.562945e-002
1.346126e+003;7.518325e-002
1.348055e+003;7.485351e-002
1.349984e+003;7.439021e-002
1.351912e+003;7.399133e-002
1.353841e+003;7.389705e-002
1.355769e+003;7.405007e-002
1.357698e+003;7.415178e-002
1.359626e+003;7.424403e-002
1.361555e+003;7.424179e-002
1.363483e+003;7.425161e-002
1.365412e+003;7.439540e-002
1.367341e+003;7.407927e-002
1.369269e+003;7.357904e-002
1.371198e+003;7.319944e-002
1.373126e+003;7.276659e-002
1.375055e+003;7.209168e-002
1.376983e+003;7.118711e-002
1.378912e+003;7.054545e-002
1.380840e+003;6.974935e-002
1.382769e+003;6.873511e-002
1.384698e+003;6.803039e-002
1.386626e+003;6.754370e-002
1.388555e+003;6.741246e-002
1.390483e+003;6.771611e-002
1.392412e+003;6.806009e-002
1.394340e+003;6.837001e-002
1.396269e+003;6.928171e-002
1.398197e+003;6.990952e-002
1.400126e+003;7.049712e-002
1.402054e+003;7.110229e-002
1.403983e+003;7.136964e-002
1.405911e+003;7.197119e-002
1.407840e+003;7.277149e-002
1.409769e+003;7.346255e-002
1.411697e+003;7.417037e-002
1.413626e+003;7.458421e-002
1.415554e+003;7.429671e-002
1.417483e+003;7.327820e-002
1.419411e+003;7.266881e-002
1.421340e+003;7.310228e-002
1.423268e+003;7.288609e-002
1.425197e+003;7.244110e-002
1.427125e+003;7.234403e-002
1.429054e+003;7.209685e-002
1.430983e+003;7.167478e-002
1.432911e+003;7.080454e-002
1.434840e+003;6.903363e-002
1.436768e+003;6.737515e-002
1.438697e+003;6.735499e-002
1.440625e+003;6.717651e-002
1.442554e+003;6.636593e-002
1.444482e+003;6.544857e-002
1.446411e+003;6.443375e-002
1.448340e+003;6.340715e-002
1.450268e+003;6.259588e-002
1.452197e+003;6.176550e-002
1.454125e+003;6.047785e-002
1.456054e+003;5.785353e-002
1.457982e+003;5.725140e-002
1.459911e+003;5.847502e-002
1.461839e+003;5.827555e-002
1.463768e+003;5.703280e-002
1.465697e+003;5.652366e-002
1.467625e+003;5.689631e-002
1.469554e+003;5.651909e-002
1.471482e+003;5.506634e-002
1.473411e+003;5.456175e-002
1.475339e+003;5.503565e-002
1.477268e+003;5.527461e-002
1.479196e+003;5.545155e-002
1.481125e+003;5.547196e-002
1.483053e+003;5.567745e-002
1.484982e+003;5.572627e-002
1.486911e+003;5.545528e-002
1.488839e+003;5.502083e-002
1.490768e+003;5.535873e-002
1.492696e+003;5.611325e-002
1.494625e+003;5.566872e-002
1.496553e+003;5.459256e-002
1.498482e+003;5.425112e-002
1.500410e+003;5.392361e-002
1.502339e+003;5.296591e-002
1.504267e+003;4.996592e-002
1.506196e+003;4.641006e-002
1.508125e+003;4.638945e-002
1.510053e+003;4.725692e-002
1.511982e+003;4.655749e-002
1.513910e+003;4.564470e-002
1.515839e+003;4.460419e-002
1.517767e+003;4.395543e-002
1.519696e+003;4.288673e-002
1.521624e+003;4.206509e-002
1.523553e+003;4.298659e-002
1.525481e+003;4.330756e-002
1.527410e+003;4.364434e-002
1.529339e+003;4.438544e-002
1.531267e+003;4.426678e-002
1.533196e+003;4.365031e-002
1.535124e+003;4.439781e-002
1.537053e+003;4.434816e-002
1.538981e+003;4.245312e-002
1.540910e+003;4.272434e-002
1.542838e+003;4.457273e-002
1.544767e+003;4.583883e-002
1.546695e+003;4.688987e-002
1.548624e+003;4.743787e-002
1.550553e+003;4.781723e-002
1.552481e+003;4.819070e-002
1.554410e+003;4.828893e-002
1.556338e+003;4.750610e-002
1.558267e+003;4.579177e-002
1.560195e+003;4.734970e-002
1.562124e+003;5.090655e-002
1.564052e+003;5.231901e-002
1.565981e+003;5.295210e-002
1.567910e+003;5.346336e-002
1.569838e+003;5.411378e-002
1.571767e+003;5.548721e-002
1.573695e+003;5.614937e-002
1.575624e+003;5.602951e-002
1.577552e+003;5.783786e-002
1.579481e+003;6.039106e-002
1.581409e+003;6.176753e-002
1.583338e+003;6.280087e-002
1.585266e+003;6.376073e-002
1.587195e+003;6.476602e-002
1.589124e+003;6.592641e-002
1.591052e+003;6.728543e-002
1.592981e+003;6.817920e-002
1.594909e+003;6.868609e-002
1.596838e+003;6.940155e-002
1.598766e+003;6.962786e-002
1.600695e+003;6.924677e-002
1.602623e+003;6.904353e-002
1.604552e+003;6.906711e-002
1.606480e+003;6.915922e-002
1.608409e+003;6.904649e-002
1.610338e+003;6.920974e-002
1.612266e+003;6.935836e-002
1.614195e+003;6.837901e-002
1.616123e+003;6.676479e-002
1.618052e+003;6.706064e-002
1.619980e+003;6.768060e-002
1.621909e+003;6.675161e-002
1.623837e+003;6.587030e-002
1.625766e+003;6.563692e-002
1.627694e+003;6.521642e-002
1.629623e+003;6.486715e-002
1.631552e+003;6.485907e-002
1.633480e+003;6.374511e-002
1.635409e+003;6.221816e-002
1.637337e+003;6.278173e-002
1.639266e+003;6.345841e-002
1.641194e+003;6.318220e-002
1.643123e+003;6.236513e-002
1.645051e+003;6.048745e-002
1.646980e+003;5.914700e-002
1.648909e+003;5.881092e-002
1.650837e+003;5.611943e-002
1.652766e+003;5.240457e-002
1.654694e+003;5.360834e-002
1.656623e+003;5.535346e-002
1.658551e+003;5.496148e-002
1.660480e+003;5.399879e-002
1.662408e+003;5.266996e-002
1.664337e+003;5.203004e-002
1.666266e+003;5.125379e-002
1.668194e+003;4.959137e-002
1.670123e+003;4.868998e-002
1.672051e+003;4.830252e-002
1.673980e+003;4.691286e-002
1.675908e+003;4.592614e-002
1.677837e+003;4.597741e-002
1.679765e+003;4.508245e-002
1.681694e+003;4.285817e-002
1.683622e+003;3.974872e-002
1.685551e+003;3.916159e-002
1.687479e+003;3.991527e-002
1.689408e+003;3.937982e-002
1.691337e+003;3.845048e-002
1.693265e+003;3.675479e-002
1.695194e+003;3.408213e-002
1.697122e+003;3.335682e-002
1.699051e+003;3.227177e-002
1.700979e+003;3.173101e-002
1.702908e+003;3.303364e-002
1.704836e+003;3.257274e-002
1.706765e+003;3.217132e-002
1.708693e+003;3.195482e-002
1.710622e+003;3.146062e-002
1.712551e+003;3.062630e-002
1.714479e+003;2.955926e-002
1.716408e+003;2.816453e-002
1.718336e+003;2.822418e-002
1.720265e+003;2.945163e-002
1.722193e+003;2.953486e-002
1.724122e+003;2.920643e-002
1.726050e+003;2.917060e-002
1.727979e+003;2.885894e-002
1.729908e+003;2.795179e-002
1.731836e+003;2.604708e-002
1.733765e+003;2.430828e-002
1.735693e+003;2.485475e-002
1.737622e+003;2.496511e-002
1.739550e+003;2.404236e-002
1.741479e+003;2.386355e-002
1.743407e+003;2.378760e-002
1.745336e+003;2.352147e-002
1.747265e+003;2.292990e-002
1.749193e+003;2.216996e-002
1.751122e+003;2.189402e-002
1.753050e+003;2.290413e-002
1.754979e+003;2.311525e-002
1.756907e+003;2.283410e-002
1.758836e+003;2.292711e-002
1.760764e+003;2.256828e-002
1.762693e+003;2.246725e-002
1.764621e+003;2.279593e-002
1.766550e+003;2.243470e-002
1.768479e+003;2.200572e-002
1.770407e+003;2.137869e-002
1.772336e+003;2.072608e-002
1.774264e+003;2.137497e-002
1.776193e+003;2.193134e-002
1.778121e+003;2.196717e-002
1.780050e+003;2.175250e-002
1.781978e+003;2.160503e-002
1.783907e+003;2.141709e-002
1.785835e+003;2.133021e-002
1.787764e+003;2.146481e-002
1.789693e+003;2.105585e-002
1.791621e+003;2.046471e-002
1.793550e+003;2.047690e-002
1.795478e+003;2.047180e-002
1.797407e+003;2.014348e-002
1.799335e+003;1.997720e-002
1.801264e+003;2.002567e-002
1.803192e+003;2.038654e-002
1.805121e+003;2.051678e-002
1.807049e+003;2.015712e-002
1.808978e+003;1.983456e-002
1.810907e+003;1.994358e-002
1.812835e+003;2.010510e-002
1.814764e+003;1.991767e-002
1.816692e+003;1.965460e-002
1.818621e+003;1.971361e-002
1.820549e+003;1.961990e-002
1.822478e+003;1.933830e-002
1.824406e+003;1.899443e-002
1.826335e+003;1.901198e-002
1.828264e+003;1.900444e-002
1.830192e+003;1.890219e-002
1.832121e+003;1.922410e-002
1.834049e+003;1.936667e-002
1.835978e+003;1.903677e-002
1.837906e+003;1.863123e-002
1.839835e+003;1.838476e-002
1.841763e+003;1.799768e-002
1.843692e+003;1.731834e-002
1.845620e+003;1.758911e-002
1.847549e+003;1.814891e-002
1.849478e+003;1.842963e-002
1.851406e+003;1.852295e-002
1.853335e+003;1.813288e-002
1.855263e+003;1.773940e-002
1.857192e+003;1.777481e-002
1.859120e+003;1.768362e-002
1.861049e+003;1.756337e-002
1.862977e+003;1.753974e-002
1.864906e+003;1.717364e-002
1.866834e+003;1.672621e-002
1.868763e+003;1.660628e-002
1.870692e+003;1.697393e-002
1.872620e+003;1.728803e-002
1.874549e+003;1.721118e-002
1.876477e+003;1.723083e-002
1.878406e+003;1.749817e-002
1.880334e+003;1.746060e-002
1.882263e+003;1.719657e-002
1.884191e+003;1.682084e-002
1.886120e+003;1.672631e-002
1.888048e+003;1.677232e-002
1.889977e+003;1.682711e-002
1.891906e+003;1.689053e-002
1.893834e+003;1.666171e-002
1.895763e+003;1.694217e-002
1.897691e+003;1.727586e-002
1.899620e+003;1.727462e-002
1.901548e+003;1.737072e-002
1.903477e+003;1.733493e-002
1.905405e+003;1.719477e-002
1.907334e+003;1.707893e-002
1.909262e+003;1.699347e-002
1.911191e+003;1.717378e-002
1.913120e+003;1.734582e-002
1.915048e+003;1.736079e-002
1.916977e+003;1.717740e-002
1.918905e+003;1.737496e-002
1.920834e+003;1.738883e-002
1.922762e+003;1.713028e-002
1.924691e+003;1.739076e-002
1.926619e+003;1.757641e-002
1.928548e+003;1.775959e-002
1.930477e+003;1.801150e-002
1.932405e+003;1.793822e-002
1.934334e+003;1.778979e-002
1.936262e+003;1.770288e-002
1.938191e+003;1.785390e-002
1.940119e+003;1.776984e-002
1.942048e+003;1.760981e-002
1.943976e+003;1.788297e-002
1.945905e+003;1.824327e-002
1.947833e+003;1.848948e-002
1.949762e+003;1.870404e-002
1.951691e+003;1.852226e-002
1.953619e+003;1.835279e-002
1.955548e+003;1.857976e-002
1.957476e+003;1.878257e-002
1.959405e+003;1.881699e-002
1.961333e+003;1.879859e-002
1.963262e+003;1.878239e-002
1.965190e+003;1.880565e-002
1.967119e+003;1.908728e-002
1.969047e+003;1.931173e-002
1.970976e+003;1.926458e-002
1.972905e+003;1.909691e-002
1.974833e+003;1.877381e-002
1.976762e+003;1.856220e-002
1.978690e+003;1.887146e-002
1.980619e+003;1.917606e-002
1.982547e+003;1.927168e-002
1.984476e+003;1.938621e-002
1.986404e+003;1.954114e-002
1.988333e+003;1.964330e-002
1.990261e+003;1.947363e-002
1.992190e+003;1.955612e-002
1.994119e+003;1.974873e-002
1.996047e+003;1.957872e-002
1.997976e+003;1.965338e-002
1.999904e+003;1.987532e-002
2.001833e+003;2.011044e-002
2.003761e+003;2.021384e-002
2.005690e+003;2.007272e-002
2.007618e+003;2.002199e-002
2.009547e+003;2.012103e-002
2.011476e+003;2.022266e-002
2.013404e+003;2.030896e-002
2.015333e+003;2.030865e-002
2.017261e+003;2.044936e-002
2.019190e+003;2.066576e-002
2.021118e+003;2.087649e-002
2.023047e+003;2.088021e-002
2.024975e+003;2.073363e-002
2.026904e+003;2.057684e-002
2.028833e+003;2.078298e-002
2.030761e+003;2.098845e-002
2.032690e+003;2.090323e-002
2.034618e+003;2.090260e-002
2.036547e+003;2.115829e-002
2.038475e+003;2.161101e-002
2.040404e+003;2.179273e-002
2.042332e+003;2.157295e-002
2.044261e+003;2.134215e-002
2.046189e+003;2.139784e-002
2.048118e+003;2.129433e-002
2.050047e+003;2.116344e-002
2.051975e+003;2.122571e-002
2.053904e+003;2.126148e-002
2.055832e+003;2.133206e-002
2.057761e+003;2.157139e-002
2.059689e+003;2.169944e-002
2.061618e+003;2.163191e-002
2.063546e+003;2.159503e-002
2.065475e+003;2.161708e-002
2.067404e+003;2.157522e-002
2.069332e+003;2.154464e-002
2.071260e+003;2.154255e-002
2.073189e+003;2.169425e-002
2.075118e+003;2.175180e-002
2.077046e+003;2.185900e-002
2.078975e+003;2.167969e-002
2.080903e+003;2.143992e-002
2.082832e+003;2.125237e-002
2.084760e+003;2.106517e-002
2.086689e+003;2.126009e-002
2.088617e+003;2.142217e-002
2.090546e+003;2.138099e-002
2.092475e+003;2.158260e-002
2.094403e+003;2.159705e-002
2.096332e+003;2.107331e-002
2.098260e+003;2.087030e-002
2.100189e+003;2.125233e-002
2.102117e+003;2.145440e-002
2.104046e+003;2.126183e-002
2.105974e+003;2.107522e-002
2.107903e+003;2.120571e-002
2.109832e+003;2.144190e-002
2.111760e+003;2.174699e-002
2.113688e+003;2.197791e-002
2.115617e+003;2.191977e-002
2.117546e+003;2.190692e-002
2.119474e+003;2.198624e-002
2.121403e+003;2.215730e-002
2.123331e+003;2.221432e-002
2.125260e+003;2.197641e-002
2.127188e+003;2.204881e-002
2.129117e+003;2.207039e-002
2.131045e+003;2.188329e-002
2.132974e+003;2.195842e-002
2.134903e+003;2.213077e-002
2.136831e+003;2.203298e-002
2.138760e+003;2.209510e-002
2.140688e+003;2.222900e-002
2.142617e+003;2.244586e-002
2.144545e+003;2.246499e-002
2.146474e+003;2.218984e-002
2.148402e+003;2.201454e-002
2.150331e+003;2.209559e-002
2.152260e+003;2.224107e-002
2.154188e+003;2.224089e-002
2.156117e+003;2.211752e-002
2.158045e+003;2.187838e-002
2.159974e+003;2.167740e-002
2.161902e+003;2.163125e-002
2.163831e+003;2.147540e-002
2.165759e+003;2.146885e-002
2.167688e+003;2.155537e-002
2.169616e+003;2.142812e-002
2.171545e+003;2.147860e-002
2.173474e+003;2.167834e-002
2.175402e+003;2.139526e-002
2.177331e+003;2.114893e-002
2.179259e+003;2.102236e-002
2.181188e+003;2.093351e-002
2.183116e+003;2.083394e-002
2.185045e+003;2.109985e-002
2.186973e+003;2.122258e-002
2.188902e+003;2.114427e-002
2.190831e+003;2.099033e-002
2.192759e+003;2.090910e-002
2.194688e+003;2.088560e-002
2.196616e+003;2.094126e-002
2.198545e+003;2.118480e-002
2.200473e+003;2.121646e-002
2.202402e+003;2.087997e-002
2.204330e+003;2.068963e-002
2.206259e+003;2.072275e-002
2.208188e+003;2.049500e-002
2.210116e+003;2.017583e-002
2.212044e+003;2.034546e-002
2.213973e+003;2.050493e-002
2.215902e+003;2.038442e-002
2.217830e+003;2.034410e-002
2.219759e+003;2.046614e-002
2.221687e+003;2.047687e-002
2.223616e+003;2.039425e-002
2.225544e+003;2.004690e-002
2.227473e+003;1.971756e-002
2.229401e+003;1.958343e-002
2.231330e+003;1.943188e-002
2.233259e+003;1.948216e-002
2.235187e+003;1.968483e-002
2.237116e+003;1.987195e-002
2.239044e+003;1.974627e-002
2.240973e+003;1.956662e-002
2.242901e+003;1.957553e-002
2.244830e+003;1.940350e-002
2.246758e+003;1.920058e-002
2.248687e+003;1.915186e-002
2.250615e+003;1.929804e-002
2.252544e+003;1.930238e-002
2.254473e+003;1.919545e-002
2.256401e+003;1.930504e-002
2.258330e+003;1.929257e-002
2.260258e+003;1.925814e-002
2.262187e+003;1.922545e-002
2.264115e+003;1.908496e-002
2.266044e+003;1.921395e-002
2.267972e+003;1.927179e-002
2.269901e+003;1.900990e-002
2.271830e+003;1.871445e-002
2.273758e+003;1.856534e-002
2.275687e+003;1.836361e-002
2.277615e+003;1.838760e-002
2.279544e+003;1.859778e-002
2.281472e+003;1.865077e-002
2.283401e+003;1.884803e-002
2.285329e+003;1.901368e-002
2.287258e+003;1.877810e-002
2.289187e+003;1.859792e-002
2.291115e+003;1.882533e-002
2.293043e+003;1.883478e-002
2.294972e+003;1.873358e-002
2.296901e+003;1.896314e-002
2.298829e+003;1.894715e-002
2.300758e+003;1.871438e-002
2.302686e+003;1.872216e-002
2.304615e+003;1.882537e-002
2.306543e+003;1.881609e-002
2.308472e+003;1.865966e-002
2.310400e+003;1.831045e-002
2.312329e+003;1.814659e-002
2.314258e+003;1.859647e-002
2.316186e+003;1.882094e-002
2.318115e+003;1.869144e-002
2.320043e+003;1.864233e-002
2.321972e+003;1.870687e-002
2.323900e+003;1.876980e-002
2.325829e+003;1.873354e-002
2.327757e+003;1.873344e-002
2.329686e+003;1.865734e-002
2.331615e+003;1.852153e-002
2.333543e+003;1.840457e-002
2.335472e+003;1.834923e-002
2.337400e+003;1.850538e-002
2.339329e+003;1.886478e-002
2.341257e+003;1.903943e-002
2.343186e+003;1.902237e-002
2.345114e+003;1.921665e-002
2.347043e+003;1.915030e-002
2.348971e+003;1.897301e-002
2.350900e+003;1.891302e-002
2.352829e+003;1.898747e-002
2.354757e+003;1.895933e-002
2.356686e+003;1.889406e-002
2.358614e+003;1.926930e-002
2.360543e+003;1.948548e-002
2.362471e+003;1.932233e-002
2.364400e+003;1.927466e-002
2.366328e+003;1.920997e-002
2.368257e+003;1.914077e-002
2.370186e+003;1.910521e-002
2.372114e+003;1.921714e-002
2.374042e+003;1.946324e-002
2.375971e+003;1.936958e-002
2.377900e+003;1.935361e-002
2.379828e+003;1.977169e-002
2.381757e+003;1.983845e-002
2.383685e+003;1.964447e-002
2.385614e+003;1.979107e-002
2.387542e+003;1.998331e-002
2.389471e+003;2.019239e-002
2.391399e+003;2.032261e-002
2.393328e+003;2.020534e-002
2.395257e+003;2.035872e-002
2.397185e+003;2.064845e-002
2.399114e+003;2.058160e-002
2.401042e+003;2.033816e-002
2.402971e+003;2.038147e-002
2.404899e+003;2.054676e-002
2.406828e+003;2.054353e-002
2.408756e+003;2.057743e-002
2.410685e+003;2.071823e-002
2.412614e+003;2.090483e-002
2.414542e+003;2.092694e-002
2.416471e+003;2.096108e-002
2.418399e+003;2.124447e-002
2.420328e+003;2.137991e-002
2.422256e+003;2.171578e-002
2.424185e+003;2.203762e-002
2.426113e+003;2.196188e-002
2.428042e+003;2.196383e-002
2.429970e+003;2.205700e-002
2.431899e+003;2.219409e-002
2.433828e+003;2.245762e-002
2.435756e+003;2.239622e-002
2.437685e+003;2.249451e-002
2.439613e+003;2.259634e-002
2.441542e+003;2.237159e-002
2.443470e+003;2.211986e-002
2.445399e+003;2.235219e-002
2.447327e+003;2.290322e-002
2.449256e+003;2.304460e-002
2.451185e+003;2.285495e-002
2.453113e+003;2.273476e-002
2.455042e+003;2.290772e-002
2.456970e+003;2.304013e-002
2.458899e+003;2.299530e-002
2.460827e+003;2.306717e-002
2.462756e+003;2.330795e-002
2.464684e+003;2.337141e-002
2.466613e+003;2.342389e-002
2.468542e+003;2.363793e-002
2.470470e+003;2.374903e-002
2.472398e+003;2.369773e-002
2.474327e+003;2.379533e-002
2.476256e+003;2.413458e-002
2.478184e+003;2.439421e-002
2.480113e+003;2.445457e-002
2.482041e+003;2.441647e-002
2.483970e+003;2.460883e-002
2.485898e+003;2.466743e-002
2.487827e+003;2.476027e-002
2.489755e+003;2.490696e-002
2.491684e+003;2.494033e-002
2.493613e+003;2.498718e-002
2.495541e+003;2.500476e-002
2.497470e+003;2.487983e-002
2.499398e+003;2.461840e-002
2.501327e+003;2.460799e-002
2.503255e+003;2.484836e-002
2.505184e+003;2.523647e-002
2.507112e+003;2.558644e-002
2.509041e+003;2.565596e-002
2.510969e+003;2.553573e-002
2.512898e+003;2.537432e-002
2.514827e+003;2.544170e-002
2.516755e+003;2.559052e-002
2.518684e+003;2.553882e-002
2.520612e+003;2.567674e-002
2.522541e+003;2.613346e-002
2.524469e+003;2.634447e-002
2.526398e+003;2.621236e-002
2.528326e+003;2.622539e-002
2.530255e+003;2.629378e-002
2.532184e+003;2.620040e-002
2.534112e+003;2.639084e-002
2.536041e+003;2.653206e-002
2.537969e+003;2.647447e-002
2.539898e+003;2.660761e-002
2.541826e+003;2.671267e-002
2.543755e+003;2.697914e-002
2.545683e+003;2.700929e-002
2.547612e+003;2.666588e-002
2.549541e+003;2.643465e-002
2.551469e+003;2.639612e-002
2.553397e+003;2.650402e-002
2.555326e+003;2.664654e-002
2.557255e+003;2.677082e-002
2.559183e+003;2.696338e-002
2.561112e+003;2.727537e-002
2.563040e+003;2.728758e-002
2.564969e+003;2.726987e-002
2.566897e+003;2.709082e-002
2.568826e+003;2.701877e-002
2.570754e+003;2.722090e-002
2.572683e+003;2.738409e-002
2.574612e+003;2.750399e-002
2.576540e+003;2.761488e-002
2.578469e+003;2.779220e-002
2.580397e+003;2.789539e-002
2.582326e+003;2.784653e-002
2.584254e+003;2.789819e-002
2.586183e+003;2.791758e-002
2.588111e+003;2.772993e-002
2.590040e+003;2.786812e-002
2.591969e+003;2.837048e-002
2.593897e+003;2.848782e-002
2.595826e+003;2.822386e-002
2.597754e+003;2.832567e-002
2.599683e+003;2.856015e-002
2.601611e+003;2.844848e-002
2.603540e+003;2.829918e-002
2.605468e+003;2.820074e-002
2.607397e+003;2.824490e-002
2.609325e+003;2.867623e-002
2.611254e+003;2.917046e-002
2.613183e+003;2.939479e-002
2.615111e+003;2.945166e-002
2.617040e+003;2.927979e-002
2.618968e+003;2.917634e-002
2.620897e+003;2.932119e-002
2.622825e+003;2.956862e-002
2.624754e+003;2.956220e-002
2.626682e+003;2.943120e-002
2.628611e+003;2.949716e-002
2.630540e+003;2.981328e-002
2.632468e+003;3.006032e-002
2.634396e+003;3.015933e-002
2.636325e+003;3.009792e-002
2.638254e+003;3.038076e-002
2.640182e+003;3.073273e-002
2.642111e+003;3.084178e-002
2.644039e+003;3.076574e-002
2.645968e+003;3.064078e-002
2.647896e+003;3.100168e-002
2.649825e+003;3.121425e-002
2.651753e+003;3.119178e-002
2.653682e+003;3.124252e-002
2.655611e+003;3.136381e-002
2.657539e+003;3.161964e-002
2.659468e+003;3.203100e-002
2.661396e+003;3.227802e-002
2.663325e+003;3.247265e-002
2.665253e+003;3.242698e-002
2.667182e+003;3.226849e-002
2.669110e+003;3.239553e-002
2.671039e+003;3.257192e-002
2.672968e+003;3.261600e-002
2.674896e+003;3.277858e-002
2.676825e+003;3.277315e-002
2.678753e+003;3.299002e-002
2.680682e+003;3.315092e-002
2.682610e+003;3.319423e-002
2.684539e+003;3.338587e-002
2.686467e+003;3.349240e-002
2.688396e+003;3.380167e-002
2.690324e+003;3.440082e-002
2.692253e+003;3.455087e-002
2.694182e+003;3.429848e-002
2.696110e+003;3.429819e-002
2.698039e+003;3.443902e-002
2.699967e+003;3.452784e-002
2.701896e+003;3.458560e-002
2.703824e+003;3.466035e-002
2.705753e+003;3.474258e-002
2.707681e+003;3.464209e-002
2.709610e+003;3.477168e-002
2.711539e+003;3.536074e-002
2.713467e+003;3.536275e-002
2.715396e+003;3.502106e-002
2.717324e+003;3.519277e-002
2.719253e+003;3.544781e-002
2.721181e+003;3.572574e-002
2.723110e+003;3.586566e-002
2.725038e+003;3.588153e-002
2.726967e+003;3.610500e-002
2.728896e+003;3.607807e-002
2.730824e+003;3.617601e-002
2.732752e+003;3.635611e-002
2.734681e+003;3.630921e-002
2.736610e+003;3.651772e-002
2.738538e+003;3.694563e-002
2.740467e+003;3.678400e-002
2.742395e+003;3.648677e-002
2.744324e+003;3.653156e-002
2.746252e+003;3.642504e-002
2.748181e+003;3.635903e-002
2.750109e+003;3.685080e-002
2.752038e+003;3.720755e-002
2.753967e+003;3.723213e-002
2.755895e+003;3.711868e-002
2.757824e+003;3.716279e-002
2.759752e+003;3.720019e-002
2.761681e+003;3.746035e-002
2.763609e+003;3.782747e-002
2.765538e+003;3.782570e-002
2.767466e+003;3.774722e-002
2.769395e+003;3.776298e-002
2.771323e+003;3.794906e-002
2.773252e+003;3.827146e-002
2.775181e+003;3.864243e-002
2.777109e+003;3.901523e-002
2.779038e+003;3.899297e-002
2.780966e+003;3.903763e-002
2.782895e+003;3.920905e-002
2.784823e+003;3.921105e-002
2.786752e+003;3.905449e-002
2.788680e+003;3.939847e-002
2.790609e+003;4.015983e-002
2.792538e+003;4.030661e-002
2.794466e+003;4.027975e-002
2.796395e+003;4.050407e-002
2.798323e+003;4.066589e-002
2.800252e+003;4.090731e-002
2.802180e+003;4.144996e-002
2.804109e+003;4.167606e-002
2.806037e+003;4.168708e-002
2.807966e+003;4.129193e-002
2.809895e+003;4.119454e-002
2.811823e+003;4.164889e-002
2.813751e+003;4.230353e-002
2.815680e+003;4.278690e-002
2.817609e+003;4.272972e-002
2.819537e+003;4.299756e-002
2.821466e+003;4.330441e-002
2.823394e+003;4.346233e-002
2.825323e+003;4.366750e-002
2.827251e+003;4.393053e-002
2.829180e+003;4.388068e-002
2.831108e+003;4.394879e-002
2.833037e+003;4.448212e-002
2.834966e+003;4.460272e-002
2.836894e+003;4.483282e-002
2.838823e+003;4.549905e-002
2.840751e+003;4.595925e-002
2.842680e+003;4.588165e-002
2.844608e+003;4.595011e-002
2.846537e+003;4.666701e-002
2.848465e+003;4.730761e-002
2.850394e+003;4.735993e-002
2.852323e+003;4.697511e-002
2.854251e+003;4.639236e-002
2.856180e+003;4.630760e-002
2.858108e+003;4.719538e-002
2.860037e+003;4.801573e-002
2.861965e+003;4.860933e-002
2.863894e+003;4.931271e-002
2.865822e+003;4.985672e-002
2.867751e+003;5.021045e-002
2.869679e+003;5.052017e-002
2.871608e+003;5.092742e-002
2.873536e+003;5.151412e-002
2.875465e+003;5.215784e-002
2.877394e+003;5.251468e-002
2.879322e+003;5.256049e-002
2.881251e+003;5.291920e-002
2.883179e+003;5.344489e-002
2.885108e+003;5.335170e-002
2.887036e+003;5.316670e-002
2.888965e+003;5.333608e-002
2.890893e+003;5.322307e-002
2.892822e+003;5.317423e-002
2.894750e+003;5.322528e-002
2.896679e+003;5.302536e-002
2.898608e+003;5.295622e-002
2.900536e+003;5.287331e-002
2.902465e+003;5.281430e-002
2.904393e+003;5.219882e-002
2.906322e+003;5.157433e-002
2.908250e+003;5.153941e-002
2.910179e+003;5.125238e-002
2.912107e+003;5.125599e-002
2.914036e+003;5.143675e-002
2.915965e+003;5.144313e-002
2.917893e+003;5.116238e-002
2.919822e+003;5.020970e-002
2.921750e+003;4.855701e-002
2.923679e+003;4.681826e-002
2.925607e+003;4.590305e-002
2.927536e+003;4.578485e-002
2.929464e+003;4.545122e-002
2.931393e+003;4.507929e-002
2.933322e+003;4.483260e-002
2.935250e+003;4.485722e-002
2.937178e+003;4.474558e-002
2.939107e+003;4.439506e-002
2.941036e+003;4.478679e-002
2.942964e+003;4.477390e-002
2.944893e+003;4.405516e-002
2.946821e+003;4.371993e-002
2.948750e+003;4.357741e-002
2.950678e+003;4.340243e-002
2.952607e+003;4.321418e-002
2.954535e+003;4.315424e-002
2.956464e+003;4.299720e-002
2.958393e+003;4.267071e-002
2.960321e+003;4.221248e-002
2.962250e+003;4.241699e-002
2.964178e+003;4.270529e-002
2.966107e+003;4.263975e-002
2.968035e+003;4.202417e-002
2.969964e+003;4.154821e-002
2.971892e+003;4.147300e-002
2.973821e+003;4.185156e-002
2.975750e+003;4.198826e-002
2.977678e+003;4.169014e-002
2.979607e+003;4.148157e-002
2.981535e+003;4.150964e-002
2.983464e+003;4.167588e-002
2.985392e+003;4.143994e-002
2.987321e+003;4.117862e-002
2.989249e+003;4.094918e-002
2.991178e+003;4.063391e-002
2.993106e+003;4.079017e-002
2.995035e+003;4.096305e-002
2.996964e+003;4.089205e-002
2.998892e+003;4.077047e-002
3.000821e+003;4.060185e-002
3.002749e+003;4.082900e-002
3.004678e+003;4.101960e-002
3.006606e+003;4.115188e-002
3.008535e+003;4.138978e-002
3.010463e+003;4.143308e-002
3.012392e+003;4.149134e-002
3.014321e+003;4.160425e-002
3.016249e+003;4.191943e-002
3.018177e+003;4.204877e-002
3.020106e+003;4.210185e-002
3.022035e+003;4.246671e-002
3.023963e+003;4.254685e-002
3.025892e+003;4.230981e-002
3.027820e+003;4.253007e-002
3.029749e+003;4.300993e-002
3.031677e+003;4.342242e-002
3.033606e+003;4.355793e-002
3.035534e+003;4.375903e-002
3.037463e+003;4.423794e-002
3.039392e+003;4.450650e-002
3.041320e+003;4.499567e-002
3.043249e+003;4.533204e-002
3.045177e+003;4.503375e-002
3.047106e+003;4.514182e-002
3.049034e+003;4.566292e-002
3.050963e+003;4.615112e-002
3.052891e+003;4.628936e-002
3.054820e+003;4.612451e-002
3.056749e+003;4.613011e-002
3.058677e+003;4.638307e-002
3.060606e+003;4.669007e-002
3.062534e+003;4.696491e-002
3.064463e+003;4.741573e-002
3.066391e+003;4.785023e-002
3.068320e+003;4.793373e-002
3.070248e+003;4.757660e-002
3.072177e+003;4.771056e-002
3.074105e+003;4.795341e-002
3.076034e+003;4.819259e-002
3.077963e+003;4.890575e-002
3.079891e+003;4.924883e-002
3.081820e+003;4.926186e-002
3.083748e+003;4.949889e-002
3.085677e+003;4.982546e-002
3.087605e+003;5.031892e-002
3.089534e+003;5.067448e-002
3.091462e+003;5.040658e-002
3.093391e+003;5.045757e-002
3.095320e+003;5.105165e-002
3.097248e+003;5.125663e-002
3.099177e+003;5.119697e-002
3.101105e+003;5.148733e-002
3.103034e+003;5.192629e-002
3.104962e+003;5.252085e-002
3.106891e+003;5.250268e-002
3.108819e+003;5.232432e-002
3.110748e+003;5.256812e-002
3.112677e+003;5.236353e-002
3.114605e+003;5.237093e-002
3.116533e+003;5.312023e-002
3.118462e+003;5.376784e-002
3.120391e+003;5.418584e-002
3.122319e+003;5.395212e-002
3.124248e+003;5.394983e-002
3.126176e+003;5.419661e-002
3.128105e+003;5.420600e-002
3.130033e+003;5.415209e-002
3.131962e+003;5.430564e-002
3.133890e+003;5.447568e-002
3.135819e+003;5.477933e-002
3.137748e+003;5.525328e-002
3.139676e+003;5.532113e-002
3.141605e+003;5.511580e-002
3.143533e+003;5.530016e-002
3.145462e+003;5.562529e-002
3.147390e+003;5.573076e-002
3.149319e+003;5.598402e-002
3.151247e+003;5.626673e-002
3.153176e+003;5.642445e-002
3.155104e+003;5.709311e-002
3.157033e+003;5.738641e-002
3.158962e+003;5.742733e-002
3.160890e+003;5.756161e-002
3.162819e+003;5.756172e-002
3.164747e+003;5.800225e-002
3.166676e+003;5.849190e-002
3.168604e+003;5.854725e-002
3.170533e+003;5.863848e-002
3.172461e+003;5.892680e-002
3.174390e+003;5.931789e-002
3.176319e+003;5.920498e-002
3.178247e+003;5.901523e-002
3.180176e+003;5.938612e-002
3.182104e+003;5.958940e-002
3.184033e+003;5.958568e-002
3.185961e+003;5.975819e-002
3.187890e+003;6.035577e-002
3.189818e+003;6.092512e-002
3.191747e+003;6.103711e-002
3.193676e+003;6.115286e-002
3.195604e+003;6.141629e-002
3.197532e+003;6.136167e-002
3.199461e+003;6.114455e-002
3.201390e+003;6.106441e-002
3.203318e+003;6.103390e-002
3.205247e+003;6.141464e-002
3.207175e+003;6.228401e-002
3.209104e+003;6.290174e-002
3.211032e+003;6.268946e-002
3.212961e+003;6.236995e-002
3.214889e+003;6.230164e-002
3.216818e+003;6.253293e-002
3.218747e+003;6.288631e-002
3.220675e+003;6.297692e-002
3.222604e+003;6.334120e-002
3.224532e+003;6.361355e-002
3.226461e+003;6.343609e-002
3.228389e+003;6.296983e-002
3.230318e+003;6.344932e-002
3.232246e+003;6.434114e-002
3.234175e+003;6.474759e-002
3.236104e+003;6.451143e-002
3.238032e+003;6.417345e-002
3.239961e+003;6.443725e-002
3.241889e+003;6.482614e-002
3.243818e+003;6.516822e-002
3.245746e+003;6.505616e-002
3.247675e+003;6.449901e-002
3.249603e+003;6.448122e-002
3.251532e+003;6.450175e-002
3.253460e+003;6.457032e-002
3.255389e+003;6.490312e-002
3.257318e+003;6.541861e-002
3.259246e+003;6.542743e-002
3.261175e+003;6.538428e-002
3.263103e+003;6.537373e-002
3.265032e+003;6.529833e-002
3.266960e+003;6.534762e-002
3.268889e+003;6.552474e-002
3.270817e+003;6.582870e-002
3.272746e+003;6.636798e-002
3.274675e+003;6.609733e-002
3.276603e+003;6.573721e-002
3.278531e+003;6.611342e-002
3.280460e+003;6.636690e-002
3.282389e+003;6.645427e-002
3.284317e+003;6.677719e-002
3.286246e+003;6.690829e-002
3.288174e+003;6.684703e-002
3.290103e+003;6.691539e-002
3.292031e+003;6.695084e-002
3.293960e+003;6.687717e-002
3.295888e+003;6.691860e-002
3.297817e+003;6.672078e-002
3.299746e+003;6.685325e-002
3.301674e+003;6.715662e-002
3.303603e+003;6.726400e-002
3.305531e+003;6.735395e-002
3.307460e+003;6.752973e-002
3.309388e+003;6.783284e-002
3.311317e+003;6.805760e-002
3.313245e+003;6.804834e-002
3.315174e+003;6.764106e-002
3.317103e+003;6.721661e-002
3.319031e+003;6.723951e-002
3.320960e+003;6.731081e-002
3.322888e+003;6.757785e-002
3.324817e+003;6.800970e-002
3.326745e+003;6.801338e-002
3.328674e+003;6.846818e-002
3.330602e+003;6.880588e-002
3.332531e+003;6.833371e-002
3.334459e+003;6.784299e-002
3.336388e+003;6.786476e-002
3.338317e+003;6.794201e-002
3.340245e+003;6.762612e-002
3.342174e+003;6.745855e-002
3.344102e+003;6.777707e-002
3.346031e+003;6.772207e-002
3.347959e+003;6.753956e-002
3.349888e+003;6.739017e-002
3.351816e+003;6.716517e-002
3.353745e+003;6.710039e-002
3.355674e+003;6.751424e-002
3.357602e+003;6.787894e-002
3.359531e+003;6.756581e-002
3.361459e+003;6.674988e-002
3.363388e+003;6.690987e-002
3.365316e+003;6.733669e-002
3.367245e+003;6.677908e-002
3.369173e+003;6.627847e-002
3.371102e+003;6.613804e-002
3.373031e+003;6.609011e-002
3.374959e+003;6.575201e-002
3.376887e+003;6.546087e-002
3.378816e+003;6.535482e-002
3.380745e+003;6.517904e-002
3.382673e+003;6.564305e-002
3.384602e+003;6.645443e-002
3.386530e+003;6.649911e-002
3.388459e+003;6.580826e-002
3.390387e+003;6.514319e-002
3.392316e+003;6.476456e-002
3.394244e+003;6.451662e-002
3.396173e+003;6.433333e-002
3.398102e+003;6.425311e-002
3.400030e+003;6.421005e-002
3.401959e+003;6.426479e-002
3.403887e+003;6.458728e-002
3.405816e+003;6.454530e-002
3.407744e+003;6.397110e-002
3.409673e+003;6.365172e-002
3.411601e+003;6.353752e-002
3.413530e+003;6.349403e-002
3.415458e+003;6.316554e-002
3.417387e+003;6.250527e-002
3.419316e+003;6.237171e-002
3.421244e+003;6.217721e-002
3.423173e+003;6.165971e-002
3.425101e+003;6.129837e-002
3.427030e+003;6.153890e-002
3.428958e+003;6.199043e-002
3.430887e+003;6.225873e-002
3.432815e+003;6.207685e-002
3.434744e+003;6.195528e-002
3.436673e+003;6.164073e-002
3.438601e+003;6.085311e-002
3.440530e+003;6.055392e-002
3.442458e+003;6.069861e-002
3.444387e+003;6.036902e-002
3.446315e+003;5.997356e-002
3.448244e+003;6.012853e-002
3.450172e+003;6.005897e-002
3.452101e+003;5.930650e-002
3.454030e+003;5.917430e-002
3.455958e+003;5.916993e-002
3.457886e+003;5.881369e-002
3.459815e+003;5.829787e-002
3.461744e+003;5.733049e-002
3.463672e+003;5.646487e-002
3.465601e+003;5.620703e-002
3.467529e+003;5.559870e-002
3.469458e+003;5.542396e-002
3.471386e+003;5.548194e-002
3.473315e+003;5.520933e-002
3.475243e+003;5.483000e-002
3.477172e+003;5.393831e-002
3.479101e+003;5.310110e-002
3.481029e+003;5.277310e-002
3.482958e+003;5.322925e-002
3.484886e+003;5.353053e-002
3.486815e+003;5.327540e-002
3.488743e+003;5.283077e-002
3.490672e+003;5.258132e-002
3.492600e+003;5.230043e-002
3.494529e+003;5.161094e-002
3.496458e+003;5.092384e-002
3.498386e+003;5.007578e-002
3.500315e+003;4.942114e-002
3.502243e+003;4.912263e-002
3.504172e+003;4.848657e-002
3.506100e+003;4.820532e-002
3.508029e+003;4.808083e-002
3.509957e+003;4.774973e-002
3.511886e+003;4.720994e-002
3.513814e+003;4.670553e-002
3.515743e+003;4.633776e-002
3.517672e+003;4.581290e-002
3.519600e+003;4.551634e-002
3.521529e+003;4.481313e-002
3.523457e+003;4.416794e-002
3.525386e+003;4.403980e-002
3.527314e+003;4.396533e-002
3.529243e+003;4.332971e-002
3.531171e+003;4.274394e-002
3.533100e+003;4.217159e-002
3.535029e+003;4.190257e-002
3.536957e+003;4.201665e-002
3.538885e+003;4.185160e-002
3.540814e+003;4.116474e-002
3.542743e+003;4.049458e-002
3.544671e+003;4.021358e-002
3.546600e+003;4.017945e-002
3.548528e+003;4.027651e-002
3.550457e+003;3.984415e-002
3.552385e+003;3.962702e-002
3.554314e+003;3.940471e-002
3.556242e+003;3.875950e-002
3.558171e+003;3.855059e-002
3.560100e+003;3.818854e-002
3.562028e+003;3.728762e-002
3.563957e+003;3.671509e-002
3.565885e+003;3.632585e-002
3.567814e+003;3.652756e-002
3.569742e+003;3.677654e-002
3.571671e+003;3.612146e-002
3.573599e+003;3.568037e-002
3.575528e+003;3.555457e-002
3.577457e+003;3.524951e-002
3.579385e+003;3.496618e-002
3.581314e+003;3.499965e-002
3.583242e+003;3.497181e-002
3.585171e+003;3.366739e-002
3.587099e+003;3.219590e-002
3.589028e+003;3.221646e-002
3.590956e+003;3.252739e-002
3.592885e+003;3.188293e-002
3.594813e+003;3.123739e-002
3.596742e+003;3.149368e-002
3.598671e+003;3.192208e-002
3.600599e+003;3.171380e-002
3.602528e+003;3.090415e-002
3.604456e+003;3.036214e-002
3.606385e+003;3.008588e-002
3.608313e+003;2.924350e-002
3.610242e+003;2.871510e-002
3.612170e+003;2.861914e-002
3.614099e+003;2.835135e-002
3.616028e+003;2.766174e-002
3.617956e+003;2.668660e-002
3.619885e+003;2.671828e-002
3.621813e+003;2.741084e-002
3.623742e+003;2.736556e-002
3.625670e+003;2.633638e-002
3.627599e+003;2.403287e-002
3.629527e+003;2.343935e-002
3.631456e+003;2.467059e-002
3.633385e+003;2.518843e-002
3.635313e+003;2.494717e-002
3.637241e+003;2.416716e-002
3.639170e+003;2.345841e-002
3.641099e+003;2.330166e-002
3.643027e+003;2.251335e-002
3.644956e+003;2.115227e-002
3.646884e+003;1.966448e-002
3.648813e+003;1.838359e-002
3.650741e+003;1.846071e-002
3.652670e+003;1.943378e-002
3.654598e+003;1.888824e-002
3.656527e+003;1.834418e-002
3.658456e+003;1.897266e-002
3.660384e+003;1.861760e-002
3.662313e+003;1.766633e-002
3.664241e+003;1.687795e-002
3.666170e+003;1.615957e-002
3.668098e+003;1.480619e-002
3.670027e+003;1.366534e-002
3.671955e+003;1.442075e-002
3.673884e+003;1.368350e-002
3.675813e+003;1.273355e-002
3.677741e+003;1.360941e-002
3.679669e+003;1.388786e-002
3.681598e+003;1.370145e-002
3.683527e+003;1.327322e-002
3.685455e+003;1.258669e-002
3.687384e+003;1.110183e-002
3.689312e+003;1.093374e-002
3.691241e+003;1.188786e-002
3.693169e+003;1.226534e-002
3.695098e+003;1.241097e-002
3.697026e+003;1.223180e-002
3.698955e+003;1.161058e-002
3.700884e+003;1.119852e-002
3.702812e+003;1.144070e-002
3.704741e+003;1.190615e-002
3.706669e+003;1.155294e-002
3.708598e+003;1.073977e-002
3.710526e+003;9.812938e-003
3.712455e+003;9.930014e-003
3.714383e+003;1.091529e-002
3.716312e+003;1.070326e-002
3.718240e+003;1.055311e-002
3.720169e+003;1.050416e-002
3.722098e+003;9.923878e-003
3.724026e+003;9.611840e-003
3.725955e+003;9.741366e-003
3.727883e+003;9.969577e-003
3.729812e+003;9.790909e-003
3.731740e+003;8.924305e-003
3.733669e+003;8.402812e-003
3.735597e+003;7.825569e-003
3.737526e+003;8.485788e-003
3.739455e+003;9.209213e-003
3.741383e+003;8.572157e-003
3.743312e+003;6.043423e-003
3.745240e+003;5.821798e-003
3.747169e+003;7.478053e-003
3.749097e+003;6.950079e-003
3.751026e+003;6.805833e-003
3.752954e+003;8.072793e-003
3.754883e+003;9.229824e-003
3.756812e+003;9.077206e-003
3.758740e+003;8.934282e-003
3.760668e+003;9.061914e-003
3.762597e+003;9.224003e-003
3.764526e+003;9.109451e-003
3.766454e+003;9.160141e-003
3.768383e+003;8.966517e-003
3.770311e+003;8.851255e-003
3.772240e+003;9.218554e-003
3.774168e+003;9.461763e-003
3.776097e+003;9.249218e-003
3.778025e+003;8.996893e-003
3.779954e+003;9.079575e-003
3.781883e+003;9.511377e-003
3.783811e+003;9.647207e-003
3.785740e+003;9.868455e-003
3.787668e+003;9.688405e-003
3.789597e+003;9.637687e-003
3.791525e+003;9.680816e-003
3.793454e+003;9.780335e-003
3.795382e+003;9.195675e-003
3.797311e+003;8.804726e-003
3.799240e+003;8.106584e-003
3.801168e+003;7.116972e-003
3.803097e+003;8.077012e-003
3.805025e+003;8.187847e-003
3.806954e+003;7.374274e-003
3.808882e+003;8.135043e-003
3.810811e+003;8.758135e-003
3.812739e+003;8.807262e-003
3.814668e+003;8.033536e-003
3.816596e+003;8.001236e-003
3.818525e+003;8.631065e-003
3.820454e+003;8.166677e-003
3.822382e+003;8.737107e-003
3.824311e+003;9.583115e-003
3.826239e+003;9.371153e-003
3.828168e+003;9.175065e-003
3.830096e+003;8.758845e-003
3.832025e+003;8.278684e-003
3.833953e+003;8.384808e-003
3.835882e+003;7.965902e-003
3.837811e+003;7.929760e-003
3.839739e+003;9.102042e-003
3.841667e+003;9.240215e-003
3.843596e+003;9.013130e-003
3.845525e+003;9.516356e-003
3.847453e+003;9.444290e-003
3.849382e+003;8.380720e-003
3.851310e+003;6.410774e-003
3.853239e+003;5.543197e-003
3.855167e+003;8.028102e-003
3.857096e+003;9.773050e-003
3.859024e+003;9.571801e-003
3.860953e+003;8.963134e-003
3.862882e+003;8.461190e-003
3.864810e+003;8.644044e-003
3.866739e+003;9.173982e-003
3.868667e+003;8.635933e-003
3.870596e+003;8.772640e-003
3.872524e+003;9.122885e-003
3.874453e+003;9.216760e-003
3.876381e+003;9.694945e-003
3.878310e+003;9.379922e-003
3.880239e+003;9.285877e-003
3.882167e+003;9.920895e-003
3.884096e+003;9.899267e-003
3.886024e+003;9.788740e-003
3.887953e+003;1.023522e-002
3.889881e+003;9.871641e-003
3.891810e+003;9.857338e-003
3.893738e+003;1.036351e-002
3.895667e+003;1.042738e-002
3.897595e+003;9.771864e-003
3.899524e+003;9.487297e-003
3.901453e+003;1.005594e-002
3.903381e+003;1.047843e-002
3.905310e+003;1.115398e-002
3.907238e+003;1.153507e-002
3.909167e+003;1.173761e-002
3.911095e+003;1.193040e-002
3.913024e+003;1.190928e-002
3.914952e+003;1.132947e-002
3.916881e+003;1.065775e-002
3.918810e+003;1.097268e-002
3.920738e+003;1.147370e-002
3.922667e+003;1.140389e-002
3.924595e+003;1.180771e-002
3.926524e+003;1.225607e-002
3.928452e+003;1.177679e-002
3.930381e+003;1.172215e-002
3.932309e+003;1.175810e-002
3.934238e+003;1.219411e-002
3.936167e+003;1.285183e-002
3.938095e+003;1.296362e-002
3.940023e+003;1.257192e-002
3.941952e+003;1.209598e-002
3.943881e+003;1.255378e-002
3.945809e+003;1.257141e-002
3.947738e+003;1.219275e-002
3.949666e+003;1.290763e-002
3.951595e+003;1.336516e-002
3.953523e+003;1.340207e-002
3.955452e+003;1.339875e-002
3.957380e+003;1.281395e-002
3.959309e+003;1.256401e-002
3.961238e+003;1.268913e-002
3.963166e+003;1.275228e-002
3.965095e+003;1.262732e-002
3.967023e+003;1.250740e-002
3.968952e+003;1.289459e-002
3.970880e+003;1.306997e-002
3.972809e+003;1.287241e-002
3.974737e+003;1.247067e-002
3.976666e+003;1.229953e-002
3.978594e+003;1.264045e-002
3.980523e+003;1.278030e-002
3.982452e+003;1.272922e-002
3.984380e+003;1.304934e-002
3.986309e+003;1.321378e-002
3.988237e+003;1.292716e-002
3.990166e+003;1.301940e-002
3.992094e+003;1.353440e-002
3.994023e+003;1.376947e-002
3.995951e+003;1.337360e-002
3.997880e+003;1.273570e-002
3.999809e+003;1.268930e-002
4.001737e+003;0.000000e+000
