3.992094e+002;0.000000e+000
4.011380e+002;0.000000e+000
4.030665e+002;0.000000e+000
4.049951e+002;0.000000e+000
4.069236e+002;0.000000e+000
4.088522e+002;0.000000e+000
4.107807e+002;0.000000e+000
4.127093e+002;0.000000e+000
4.146378e+002;0.000000e+000
4.165664e+002;0.000000e+000
4.184949e+002;0.000000e+000
4.204235e+002;0.000000e+000
4.223520e+002;0.000000e+000
4.242806e+002;0.000000e+000
4.262091e+002;0.000000e+000
4.281377e+002;0.000000e+000
4.300662e+002;0.000000e+000
4.319948e+002;0.000000e+000
4.339233e+002;0.000000e+000
4.358519e+002;0.000000e+000
4.377804e+002;0.000000e+000
4.397090e+002;0.000000e+000
4.416375e+002;0.000000e+000
4.435660e+002;0.000000e+000
4.454946e+002;0.000000e+000
4.474232e+002;0.000000e+000
4.493517e+002;0.000000e+000
4.512802e+002;0.000000e+000
4.532088e+002;0.000000e+000
4.551373e+002;0.000000e+000
4.570659e+002;0.000000e+000
4.589944e+002;0.000000e+000
4.609230e+002;0.000000e+000
4.628515e+002;0.000000e+000
4.647801e+002;0.000000e+000
4.667086e+002;0.000000e+000
4.686372e+002;0.000000e+000
4.705657e+002;0.000000e+000
4.724943e+002;0.000000e+000
4.744228e+002;0.000000e+000
4.763513e+002;0.000000e+000
4.782799e+002;0.000000e+000
4.802085e+002;0.000000e+000
4.821370e+002;0.000000e+000
4.840656e+002;0.000000e+000
4.859941e+002;0.000000e+000
4.879226e+002;0.000000e+000
4.898512e+002;0.000000e+000
4.917798e+002;0.000000e+000
4.937083e+002;0.000000e+000
4.956368e+002;0.000000e+000
4.975654e+002;0.000000e+000
4.994939e+002;0.000000e+000
5.014225e+002;0.000000e+000
5.033510e+002;0.000000e+000
5.052796e+002;0.000000e+000
5.072081e+002;0.000000e+000
5.091367e+002;0.000000e+000
5.110652e+002;0.000000e+000
5.129938e+002;0.000000e+000
5.149223e+002;0.000000e+000
5.168509e+002;0.000000e+000
5.187794e+002;0.000000e+000
5.207079e+002;0.000000e+000
5.226365e+002;0.000000e+000
5.245651e+002;0.000000e+000
5.264936e+002;0.000000e+000
5.284222e+002;0.000000e+000
5.303507e+002;0.000000e+000
5.322792e+002;0.000000e+000
5.342078e+002;0.000000e+000
5.361364e+002;0.000000e+000
5.380649e+002;0.000000e+000
5.399935e+002;0.000000e+000
5.419220e+002;0.000000e+000
5.438505e+002;0.000000e+000
5.457791e+002;0.000000e+000
5.477076e+002;0.000000e+000
5.496362e+002;0.000000e+000
5.515648e+002;0.000000e+000
5.534933e+002;0.000000e+000
5.554218e+002;0.000000e+000
5.573504e+002;0.000000e+000
5.592789e+002;0.000000e+000
5.612075e+002;0.000000e+000
5.631360e+002;0.000000e+000
5.650646e+002;0.000000e+000
5.669931e+002;0.000000e+000
5.689217e+002;0.000000e+000
5.708502e+002;0.000000e+000
5.727787e+002;0.000000e+000
5.747073e+002;0.000000e+000
5.766359e+002;0.000000e+000
5.785644e+002;0.000000e+000
5.804930e+002;0.000000e+000
5.824215e+002;0.000000e+000
5.843500e+002;0.000000e+000
5.862786e+002;0.000000e+000
5.882072e+002;0.000000e+000
5.901357e+002;0.000000e+000
5.920643e+002;0.000000e+000
5.939928e+002;0.000000e+000
5.959213e+002;0.000000e+000
5.978499e+002;0.000000e+000
5.997784e+002;2.121684e-001
6.017070e+002;2.058438e-001
6.036355e+002;2.032237e-001
6.055641e+002;2.085979e-001
6.074926e+002;2.181554e-001
6.094211e+002;2.258123e-001
6.113497e+002;2.242017e-001
6.132783e+002;2.170651e-001
6.152068e+002;2.091387e-001
6.171354e+002;2.027941e-001
6.190639e+002;2.028106e-001
6.209924e+002;2.019384e-001
6.229210e+002;1.992082e-001
6.248495e+002;1.983980e-001
6.267781e+002;1.965858e-001
6.287067e+002;1.931742e-001
6.306352e+002;1.905143e-001
6.325637e+002;1.928483e-001
6.344923e+002;1.918064e-001
6.364208e+002;1.891931e-001
6.383494e+002;1.840851e-001
6.402780e+002;1.855177e-001
6.422065e+002;1.859036e-001
6.441350e+002;1.835678e-001
6.460636e+002;1.875652e-001
6.479921e+002;1.858842e-001
6.499207e+002;1.800192e-001
6.518492e+002;1.860368e-001
6.537778e+002;1.943038e-001
6.557063e+002;1.957143e-001
6.576349e+002;1.971469e-001
6.595634e+002;1.969454e-001
6.614919e+002;1.979091e-001
6.634205e+002;2.013384e-001
6.653491e+002;2.013758e-001
6.672776e+002;2.004697e-001
6.692062e+002;1.988350e-001
6.711347e+002;1.956469e-001
6.730632e+002;1.871975e-001
6.749918e+002;1.760700e-001
6.769203e+002;1.689568e-001
6.788489e+002;1.629809e-001
6.807775e+002;1.578867e-001
6.827060e+002;1.525180e-001
6.846345e+002;1.485528e-001
6.865631e+002;1.467618e-001
6.884916e+002;1.455339e-001
6.904202e+002;1.459731e-001
6.923488e+002;1.458625e-001
6.942773e+002;1.437352e-001
6.962058e+002;1.431694e-001
6.981344e+002;1.438377e-001
7.000629e+002;1.432214e-001
7.019915e+002;1.419881e-001
7.039200e+002;1.415141e-001
7.058486e+002;1.417251e-001
7.077771e+002;1.411058e-001
7.097057e+002;1.404357e-001
7.116342e+002;1.400403e-001
7.135627e+002;1.393884e-001
7.154913e+002;1.393744e-001
7.174199e+002;1.388666e-001
7.193484e+002;1.373823e-001
7.212770e+002;1.349216e-001
7.232055e+002;1.331139e-001
7.251340e+002;1.333948e-001
7.270626e+002;1.337133e-001
7.289911e+002;1.319977e-001
7.309197e+002;1.302223e-001
7.328483e+002;1.302661e-001
7.347768e+002;1.305293e-001
7.367053e+002;1.301566e-001
7.386339e+002;1.298651e-001
7.405624e+002;1.280158e-001
7.424910e+002;1.264283e-001
7.444196e+002;1.262770e-001
7.463481e+002;1.268674e-001
7.482766e+002;1.268647e-001
7.502052e+002;1.241089e-001
7.521337e+002;1.218638e-001
7.540623e+002;1.207415e-001
7.559908e+002;1.190225e-001
7.579194e+002;1.172733e-001
7.598479e+002;1.155654e-001
7.617765e+002;1.155607e-001
7.637050e+002;1.154605e-001
7.656335e+002;1.148018e-001
7.675621e+002;1.144541e-001
7.694907e+002;1.126492e-001
7.714192e+002;1.110254e-001
7.733478e+002;1.114780e-001
7.752763e+002;1.121209e-001
7.772048e+002;1.114391e-001
7.791334e+002;1.103719e-001
7.810620e+002;1.096347e-001
7.829905e+002;1.083148e-001
7.849191e+002;1.076660e-001
7.868476e+002;1.081093e-001
7.887761e+002;1.082307e-001
7.907047e+002;1.072229e-001
7.926332e+002;1.063267e-001
7.945618e+002;1.059879e-001
7.964903e+002;1.056244e-001
7.984189e+002;1.051366e-001
8.003474e+002;1.047085e-001
8.022759e+002;1.052237e-001
8.042045e+002;1.048638e-001
8.061331e+002;1.034182e-001
8.080616e+002;1.027560e-001
8.099902e+002;1.028574e-001
8.119187e+002;1.040057e-001
8.138472e+002;1.043058e-001
8.157758e+002;1.041831e-001
8.177043e+002;1.050497e-001
8.196329e+002;1.060935e-001
8.215615e+002;1.061229e-001
8.234900e+002;1.049678e-001
8.254185e+002;1.040921e-001
8.273471e+002;1.040346e-001
8.292756e+002;1.040777e-001
8.312042e+002;1.042367e-001
8.331328e+002;1.034975e-001
8.350613e+002;1.019824e-001
8.369898e+002;1.013020e-001
8.389184e+002;1.016156e-001
8.408469e+002;1.021285e-001
8.427755e+002;1.022958e-001
8.447040e+002;1.018149e-001
8.466326e+002;1.020534e-001
8.485611e+002;1.023622e-001
8.504897e+002;1.023513e-001
8.524182e+002;1.017315e-001
8.543467e+002;1.004525e-001
8.562753e+002;1.003119e-001
8.582039e+002;1.000907e-001
8.601324e+002;9.944719e-002
8.620610e+002;9.918011e-002
8.639895e+002;9.989364e-002
8.659180e+002;1.009918e-001
8.678466e+002;1.016538e-001
8.697751e+002;1.029588e-001
8.717037e+002;1.048251e-001
8.736323e+002;1.066294e-001
8.755608e+002;1.089287e-001
8.774893e+002;1.121634e-001
8.794179e+002;1.160186e-001
8.813464e+002;1.199306e-001
8.832750e+002;1.241788e-001
8.852036e+002;1.293074e-001
8.871321e+002;1.346870e-001
8.890606e+002;1.391948e-001
8.909892e+002;1.423061e-001
8.929177e+002;1.443415e-001
8.948463e+002;1.451744e-001
8.967748e+002;1.438914e-001
8.987034e+002;1.412942e-001
9.006319e+002;1.385859e-001
9.025605e+002;1.360183e-001
9.044890e+002;1.331697e-001
9.064175e+002;1.300959e-001
9.083461e+002;1.270439e-001
9.102747e+002;1.247109e-001
9.122032e+002;1.231400e-001
9.141318e+002;1.215316e-001
9.160603e+002;1.203554e-001
9.179888e+002;1.194901e-001
9.199174e+002;1.195495e-001
9.218459e+002;1.205860e-001
9.237745e+002;1.214755e-001
9.257031e+002;1.223326e-001
9.276316e+002;1.237908e-001
9.295601e+002;1.254273e-001
9.314887e+002;1.263540e-001
9.334172e+002;1.279000e-001
9.353458e+002;1.299683e-001
9.372744e+002;1.313017e-001
9.392029e+002;1.322937e-001
9.411314e+002;1.336555e-001
9.430600e+002;1.358040e-001
9.449885e+002;1.380260e-001
9.469171e+002;1.402196e-001
9.488456e+002;1.432920e-001
9.507742e+002;1.471593e-001
9.527027e+002;1.507716e-001
9.546313e+002;1.541253e-001
9.565598e+002;1.582243e-001
9.584883e+002;1.623791e-001
9.604169e+002;1.665586e-001
9.623455e+002;1.703281e-001
9.642740e+002;1.743925e-001
9.662026e+002;1.784499e-001
9.681311e+002;1.824001e-001
9.700596e+002;1.869748e-001
9.719882e+002;1.924796e-001
9.739167e+002;1.987539e-001
9.758453e+002;2.057139e-001
9.777739e+002;2.133741e-001
9.797024e+002;2.223622e-001
9.816309e+002;2.323260e-001
9.835595e+002;2.426586e-001
9.854880e+002;2.538383e-001
9.874166e+002;2.648333e-001
9.893452e+002;2.746588e-001
9.912737e+002;2.836062e-001
9.932022e+002;2.906794e-001
9.951307e+002;2.962484e-001
9.970593e+002;3.010109e-001
9.989879e+002;3.049267e-001
1.000916e+003;3.082571e-001
1.002845e+003;3.111617e-001
1.004773e+003;3.152463e-001
1.006702e+003;3.204893e-001
1.008631e+003;3.253396e-001
1.010559e+003;3.310444e-001
1.012488e+003;3.371212e-001
1.014416e+003;3.426321e-001
1.016345e+003;3.466420e-001
1.018273e+003;3.489440e-001
1.020202e+003;3.502978e-001
1.022130e+003;3.504523e-001
1.024059e+003;3.499189e-001
1.025988e+003;3.483431e-001
1.027916e+003;3.458264e-001
1.029845e+003;3.433497e-001
1.031773e+003;3.402042e-001
1.033702e+003;3.365502e-001
1.035630e+003;3.336126e-001
1.037559e+003;3.309127e-001
1.039487e+003;3.288584e-001
1.041416e+003;3.270471e-001
1.043344e+003;3.245275e-001
1.045273e+003;3.213236e-001
1.047202e+003;3.181539e-001
1.049130e+003;3.150282e-001
1.051059e+003;3.114668e-001
1.052987e+003;3.086294e-001
1.054916e+003;3.061803e-001
1.056844e+003;3.025613e-001
1.058773e+003;2.977701e-001
1.060701e+003;2.926690e-001
1.062630e+003;2.864129e-001
1.064558e+003;2.797573e-001
1.066487e+003;2.730903e-001
1.068416e+003;2.679340e-001
1.070344e+003;2.644586e-001
1.072273e+003;2.608999e-001
1.074201e+003;2.583540e-001
1.076130e+003;2.565622e-001
1.078058e+003;2.531558e-001
1.079987e+003;2.495441e-001
1.081915e+003;2.466743e-001
1.083844e+003;2.433502e-001
1.085773e+003;2.395376e-001
1.087701e+003;2.354972e-001
1.089630e+003;2.305048e-001
1.091558e+003;2.258235e-001
1.093487e+003;2.219387e-001
1.095415e+003;2.178605e-001
1.097344e+003;2.128174e-001
1.099272e+003;2.072036e-001
1.101201e+003;2.021846e-001
1.103129e+003;1.980256e-001
1.105058e+003;1.943820e-001
1.106987e+003;1.915958e-001
1.108915e+003;1.896598e-001
1.110844e+003;1.876808e-001
1.112772e+003;1.852965e-001
1.114701e+003;1.832804e-001
1.116629e+003;1.814615e-001
1.118558e+003;1.790489e-001
1.120486e+003;1.767902e-001
1.122415e+003;1.748633e-001
1.124344e+003;1.725259e-001
1.126272e+003;1.700070e-001
1.128201e+003;1.673327e-001
1.130129e+003;1.644205e-001
1.132058e+003;1.614634e-001
1.133986e+003;1.580961e-001
1.135915e+003;1.538068e-001
1.137843e+003;1.489627e-001
1.139772e+003;1.451468e-001
1.141700e+003;1.417232e-001
1.143629e+003;1.389782e-001
1.145557e+003;1.376885e-001
1.147486e+003;1.370803e-001
1.149415e+003;1.360615e-001
1.151343e+003;1.355714e-001
1.153272e+003;1.362476e-001
1.155200e+003;1.363152e-001
1.157129e+003;1.358217e-001
1.159057e+003;1.347285e-001
1.160986e+003;1.321368e-001
1.162914e+003;1.280299e-001
1.164843e+003;1.239388e-001
1.166771e+003;1.201512e-001
1.168700e+003;1.163143e-001
1.170629e+003;1.128451e-001
1.172557e+003;1.095919e-001
1.174486e+003;1.072143e-001
1.176414e+003;1.053813e-001
1.178343e+003;1.036418e-001
1.180271e+003;1.025380e-001
1.182200e+003;1.017761e-001
1.184128e+003;1.015358e-001
1.186057e+003;1.023087e-001
1.187986e+003;1.034432e-001
1.189914e+003;1.050258e-001
1.191843e+003;1.069867e-001
1.193771e+003;1.088472e-001
1.195700e+003;1.101070e-001
1.197628e+003;1.106927e-001
1.199557e+003;1.103295e-001
1.201485e+003;1.093265e-001
1.203414e+003;1.079271e-001
1.205343e+003;1.058360e-001
1.207271e+003;1.042053e-001
1.209200e+003;1.035174e-001
1.211128e+003;1.034180e-001
1.213057e+003;1.038149e-001
1.214985e+003;1.045118e-001
1.216914e+003;1.054032e-001
1.218842e+003;1.069445e-001
1.220771e+003;1.090414e-001
1.222699e+003;1.107149e-001
1.224628e+003;1.116329e-001
1.226557e+003;1.120284e-001
1.228485e+003;1.117447e-001
1.230414e+003;1.114193e-001
1.232342e+003;1.114609e-001
1.234271e+003;1.112865e-001
1.236199e+003;1.109218e-001
1.238128e+003;1.098617e-001
1.240056e+003;1.088075e-001
1.241985e+003;1.083857e-001
1.243913e+003;1.077773e-001
1.245842e+003;1.071109e-001
1.247771e+003;1.068083e-001
1.249699e+003;1.068350e-001
1.251628e+003;1.073609e-001
1.253556e+003;1.083279e-001
1.255485e+003;1.087731e-001
1.257413e+003;1.090777e-001
1.259342e+003;1.098413e-001
1.261270e+003;1.099388e-001
1.263199e+003;1.090666e-001
1.265127e+003;1.078868e-001
1.267056e+003;1.067568e-001
1.268985e+003;1.060763e-001
1.270913e+003;1.058547e-001
1.272842e+003;1.055476e-001
1.274770e+003;1.056330e-001
1.276699e+003;1.063674e-001
1.278627e+003;1.071660e-001
1.280556e+003;1.074407e-001
1.282484e+003;1.075972e-001
1.284413e+003;1.082256e-001
1.286342e+003;1.094517e-001
1.288270e+003;1.107148e-001
1.290199e+003;1.116522e-001
1.292127e+003;1.125044e-001
1.294056e+003;1.130786e-001
1.295984e+003;1.135244e-001
1.297913e+003;1.142346e-001
1.299841e+003;1.147256e-001
1.301770e+003;1.150590e-001
1.303698e+003;1.153410e-001
1.305627e+003;1.159003e-001
1.307556e+003;1.168316e-001
1.309484e+003;1.182278e-001
1.311413e+003;1.194140e-001
1.313341e+003;1.197664e-001
1.315270e+003;1.196974e-001
1.317198e+003;1.186658e-001
1.319127e+003;1.168288e-001
1.321055e+003;1.147633e-001
1.322984e+003;1.131346e-001
1.324912e+003;1.123037e-001
1.326841e+003;1.121494e-001
1.328770e+003;1.122920e-001
1.330698e+003;1.125426e-001
1.332627e+003;1.131900e-001
1.334555e+003;1.138487e-001
1.336484e+003;1.143309e-001
1.338412e+003;1.144232e-001
1.340341e+003;1.142661e-001
1.342269e+003;1.137917e-001
1.344198e+003;1.130265e-001
1.346126e+003;1.124070e-001
1.348055e+003;1.117899e-001
1.349984e+003;1.112396e-001
1.351912e+003;1.109164e-001
1.353841e+003;1.108705e-001
1.355769e+003;1.110292e-001
1.357698e+003;1.114320e-001
1.359626e+003;1.121614e-001
1.361555e+003;1.127778e-001
1.363483e+003;1.129735e-001
1.365412e+003;1.130809e-001
1.367341e+003;1.126574e-001
1.369269e+003;1.120803e-001
1.371198e+003;1.112596e-001
1.373126e+003;1.102487e-001
1.375055e+003;1.090475e-001
1.376983e+003;1.074761e-001
1.378912e+003;1.055903e-001
1.380840e+003;1.034274e-001
1.382769e+003;1.014366e-001
1.384698e+003;9.999491e-002
1.386626e+003;9.869213e-002
1.388555e+003;9.795192e-002
1.390483e+003;9.749203e-002
1.392412e+003;9.704687e-002
1.394340e+003;9.693342e-002
1.396269e+003;9.738658e-002
1.398197e+003;9.790513e-002
1.400126e+003;9.842107e-002
1.402054e+003;9.860809e-002
1.403983e+003;9.886322e-002
1.405911e+003;9.966313e-002
1.407840e+003;1.002943e-001
1.409769e+003;1.007309e-001
1.411697e+003;1.012810e-001
1.413626e+003;1.014421e-001
1.415554e+003;1.012019e-001
1.417483e+003;1.005677e-001
1.419411e+003;9.993172e-002
1.421340e+003;9.972195e-002
1.423268e+003;9.928533e-002
1.425197e+003;9.899508e-002
1.427125e+003;9.882349e-002
1.429054e+003;9.800830e-002
1.430983e+003;9.745205e-002
1.432911e+003;9.690579e-002
1.434840e+003;9.549435e-002
1.436768e+003;9.426224e-002
1.438697e+003;9.403745e-002
1.440625e+003;9.335877e-002
1.442554e+003;9.217735e-002
1.444482e+003;9.106373e-002
1.446411e+003;8.988115e-002
1.448340e+003;8.872312e-002
1.450268e+003;8.799888e-002
1.452197e+003;8.743953e-002
1.454125e+003;8.643994e-002
1.456054e+003;8.475804e-002
1.457982e+003;8.418084e-002
1.459911e+003;8.444924e-002
1.461839e+003;8.386345e-002
1.463768e+003;8.276672e-002
1.465697e+003;8.198278e-002
1.467625e+003;8.162224e-002
1.469554e+003;8.086255e-002
1.471482e+003;7.946558e-002
1.473411e+003;7.839476e-002
1.475339e+003;7.780503e-002
1.477268e+003;7.729463e-002
1.479196e+003;7.710029e-002
1.481125e+003;7.671793e-002
1.483053e+003;7.662171e-002
1.484982e+003;7.653583e-002
1.486911e+003;7.613785e-002
1.488839e+003;7.590497e-002
1.490768e+003;7.592978e-002
1.492696e+003;7.597864e-002
1.494625e+003;7.552046e-002
1.496553e+003;7.461238e-002
1.498482e+003;7.359108e-002
1.500410e+003;7.221030e-002
1.502339e+003;7.022158e-002
1.504267e+003;6.736180e-002
1.506196e+003;6.423851e-002
1.508125e+003;6.263898e-002
1.510053e+003;6.164230e-002
1.511982e+003;6.017477e-002
1.513910e+003;5.895223e-002
1.515839e+003;5.766191e-002
1.517767e+003;5.642992e-002
1.519696e+003;5.516768e-002
1.521624e+003;5.436252e-002
1.523553e+003;5.461856e-002
1.525481e+003;5.454180e-002
1.527410e+003;5.431600e-002
1.529339e+003;5.454518e-002
1.531267e+003;5.462675e-002
1.533196e+003;5.448969e-002
1.535124e+003;5.481790e-002
1.537053e+003;5.463190e-002
1.538981e+003;5.371418e-002
1.540910e+003;5.428619e-002
1.542838e+003;5.562269e-002
1.544767e+003;5.648362e-002
1.546695e+003;5.738290e-002
1.548624e+003;5.814784e-002
1.550553e+003;5.883403e-002
1.552481e+003;5.934007e-002
1.554410e+003;5.969911e-002
1.556338e+003;6.012765e-002
1.558267e+003;6.004154e-002
1.560195e+003;6.097046e-002
1.562124e+003;6.286172e-002
1.564052e+003;6.368326e-002
1.565981e+003;6.431051e-002
1.567910e+003;6.527252e-002
1.569838e+003;6.604996e-002
1.571767e+003;6.694593e-002
1.573695e+003;6.773903e-002
1.575624e+003;6.828605e-002
1.577552e+003;6.974133e-002
1.579481e+003;7.150185e-002
1.581409e+003;7.233080e-002
1.583338e+003;7.314427e-002
1.585266e+003;7.426235e-002
1.587195e+003;7.548730e-002
1.589124e+003;7.678463e-002
1.591052e+003;7.790852e-002
1.592981e+003;7.881833e-002
1.594909e+003;7.961623e-002
1.596838e+003;7.983838e-002
1.598766e+003;7.950998e-002
1.600695e+003;7.897826e-002
1.602623e+003;7.851487e-002
1.604552e+003;7.857562e-002
1.606480e+003;7.876450e-002
1.608409e+003;7.893026e-002
1.610338e+003;7.938358e-002
1.612266e+003;7.981265e-002
1.614195e+003;7.953215e-002
1.616123e+003;7.873050e-002
1.618052e+003;7.873229e-002
1.619980e+003;7.884602e-002
1.621909e+003;7.831316e-002
1.623837e+003;7.768404e-002
1.625766e+003;7.750683e-002
1.627694e+003;7.733224e-002
1.629623e+003;7.705119e-002
1.631552e+003;7.702068e-002
1.633480e+003;7.663982e-002
1.635409e+003;7.599510e-002
1.637337e+003;7.634005e-002
1.639266e+003;7.644039e-002
1.641194e+003;7.592533e-002
1.643123e+003;7.506204e-002
1.645051e+003;7.363949e-002
1.646980e+003;7.258601e-002
1.648909e+003;7.211711e-002
1.650837e+003;7.062731e-002
1.652766e+003;6.854752e-002
1.654694e+003;6.847000e-002
1.656623e+003;6.848501e-002
1.658551e+003;6.758485e-002
1.660480e+003;6.662598e-002
1.662408e+003;6.538213e-002
1.664337e+003;6.454445e-002
1.666266e+003;6.376499e-002
1.668194e+003;6.229311e-002
1.670123e+003;6.075756e-002
1.672051e+003;5.946559e-002
1.673980e+003;5.803629e-002
1.675908e+003;5.681930e-002
1.677837e+003;5.631565e-002
1.679765e+003;5.506513e-002
1.681694e+003;5.297306e-002
1.683622e+003;5.069109e-002
1.685551e+003;4.959278e-002
1.687479e+003;4.924389e-002
1.689408e+003;4.842245e-002
1.691337e+003;4.730750e-002
1.693265e+003;4.595881e-002
1.695194e+003;4.418584e-002
1.697122e+003;4.337482e-002
1.699051e+003;4.245418e-002
1.700979e+003;4.168952e-002
1.702908e+003;4.201782e-002
1.704836e+003;4.167934e-002
1.706765e+003;4.125961e-002
1.708693e+003;4.077648e-002
1.710622e+003;4.017190e-002
1.712551e+003;3.933241e-002
1.714479e+003;3.863279e-002
1.716408e+003;3.809343e-002
1.718336e+003;3.800529e-002
1.720265e+003;3.822237e-002
1.722193e+003;3.790581e-002
1.724122e+003;3.750708e-002
1.726050e+003;3.730600e-002
1.727979e+003;3.680236e-002
1.729908e+003;3.615138e-002
1.731836e+003;3.513331e-002
1.733765e+003;3.395811e-002
1.735693e+003;3.371275e-002
1.737622e+003;3.323969e-002
1.739550e+003;3.223759e-002
1.741479e+003;3.150234e-002
1.743407e+003;3.095175e-002
1.745336e+003;3.050280e-002
1.747265e+003;2.998565e-002
1.749193e+003;2.915423e-002
1.751122e+003;2.858814e-002
1.753050e+003;2.893533e-002
1.754979e+003;2.893898e-002
1.756907e+003;2.866437e-002
1.758836e+003;2.867457e-002
1.760764e+003;2.856938e-002
1.762693e+003;2.839333e-002
1.764621e+003;2.840186e-002
1.766550e+003;2.828709e-002
1.768479e+003;2.814389e-002
1.770407e+003;2.757438e-002
1.772336e+003;2.685709e-002
1.774264e+003;2.718816e-002
1.776193e+003;2.741235e-002
1.778121e+003;2.712905e-002
1.780050e+003;2.693634e-002
1.781978e+003;2.684021e-002
1.783907e+003;2.674950e-002
1.785835e+003;2.653924e-002
1.787764e+003;2.639404e-002
1.789693e+003;2.621624e-002
1.791621e+003;2.601299e-002
1.793550e+003;2.593019e-002
1.795478e+003;2.588527e-002
1.797407e+003;2.575879e-002
1.799335e+003;2.554121e-002
1.801264e+003;2.537271e-002
1.803192e+003;2.557203e-002
1.805121e+003;2.561227e-002
1.807049e+003;2.538089e-002
1.808978e+003;2.519293e-002
1.810907e+003;2.505755e-002
1.812835e+003;2.491854e-002
1.814764e+003;2.472909e-002
1.816692e+003;2.457899e-002
1.818621e+003;2.462212e-002
1.820549e+003;2.462457e-002
1.822478e+003;2.437139e-002
1.824406e+003;2.394085e-002
1.826335e+003;2.376971e-002
1.828264e+003;2.384034e-002
1.830192e+003;2.378252e-002
1.832121e+003;2.376828e-002
1.834049e+003;2.392429e-002
1.835978e+003;2.377857e-002
1.837906e+003;2.329099e-002
1.839835e+003;2.302549e-002
1.841763e+003;2.290933e-002
1.843692e+003;2.255034e-002
1.845620e+003;2.229976e-002
1.847549e+003;2.232624e-002
1.849478e+003;2.239650e-002
1.851406e+003;2.230768e-002
1.853335e+003;2.195818e-002
1.855263e+003;2.169812e-002
1.857192e+003;2.166851e-002
1.859120e+003;2.159113e-002
1.861049e+003;2.167276e-002
1.862977e+003;2.190409e-002
1.864906e+003;2.169652e-002
1.866834e+003;2.129642e-002
1.868763e+003;2.104211e-002
1.870692e+003;2.119816e-002
1.872620e+003;2.145204e-002
1.874549e+003;2.122930e-002
1.876477e+003;2.088198e-002
1.878406e+003;2.104580e-002
1.880334e+003;2.099297e-002
1.882263e+003;2.065332e-002
1.884191e+003;2.045457e-002
1.886120e+003;2.055843e-002
1.888048e+003;2.084691e-002
1.889977e+003;2.072921e-002
1.891906e+003;2.046079e-002
1.893834e+003;2.036292e-002
1.895763e+003;2.058171e-002
1.897691e+003;2.082400e-002
1.899620e+003;2.094822e-002
1.901548e+003;2.102184e-002
1.903477e+003;2.090573e-002
1.905405e+003;2.068087e-002
1.907334e+003;2.057337e-002
1.909262e+003;2.058032e-002
1.911191e+003;2.071945e-002
1.913120e+003;2.080596e-002
1.915048e+003;2.088956e-002
1.916977e+003;2.076744e-002
1.918905e+003;2.085504e-002
1.920834e+003;2.100796e-002
1.922762e+003;2.091515e-002
1.924691e+003;2.109150e-002
1.926619e+003;2.131479e-002
1.928548e+003;2.141225e-002
1.930477e+003;2.154221e-002
1.932405e+003;2.139286e-002
1.934334e+003;2.132736e-002
1.936262e+003;2.140981e-002
1.938191e+003;2.157946e-002
1.940119e+003;2.153570e-002
1.942048e+003;2.143533e-002
1.943976e+003;2.172076e-002
1.945905e+003;2.203483e-002
1.947833e+003;2.218004e-002
1.949762e+003;2.228700e-002
1.951691e+003;2.216239e-002
1.953619e+003;2.220448e-002
1.955548e+003;2.251223e-002
1.957476e+003;2.268619e-002
1.959405e+003;2.287566e-002
1.961333e+003;2.283204e-002
1.963262e+003;2.265453e-002
1.965190e+003;2.277072e-002
1.967119e+003;2.284720e-002
1.969047e+003;2.293888e-002
1.970976e+003;2.315792e-002
1.972905e+003;2.309603e-002
1.974833e+003;2.289697e-002
1.976762e+003;2.305843e-002
1.978690e+003;2.332714e-002
1.980619e+003;2.354281e-002
1.982547e+003;2.354764e-002
1.984476e+003;2.338973e-002
1.986404e+003;2.344809e-002
1.988333e+003;2.353333e-002
1.990261e+003;2.346019e-002
1.992190e+003;2.371722e-002
1.994119e+003;2.410176e-002
1.996047e+003;2.398014e-002
1.997976e+003;2.399985e-002
1.999904e+003;2.417129e-002
2.001833e+003;2.426410e-002
2.003761e+003;2.426283e-002
2.005690e+003;2.404670e-002
2.007618e+003;2.402951e-002
2.009547e+003;2.418975e-002
2.011476e+003;2.428785e-002
2.013404e+003;2.446635e-002
2.015333e+003;2.437080e-002
2.017261e+003;2.412519e-002
2.019190e+003;2.436183e-002
2.021118e+003;2.478483e-002
2.023047e+003;2.502158e-002
2.024975e+003;2.528592e-002
2.026904e+003;2.520880e-002
2.028833e+003;2.509009e-002
2.030761e+003;2.524416e-002
2.032690e+003;2.542077e-002
2.034618e+003;2.554845e-002
2.036547e+003;2.579272e-002
2.038475e+003;2.598306e-002
2.040404e+003;2.599055e-002
2.042332e+003;2.581536e-002
2.044261e+003;2.571108e-002
2.046189e+003;2.578629e-002
2.048118e+003;2.570416e-002
2.050047e+003;2.560834e-002
2.051975e+003;2.579149e-002
2.053904e+003;2.595294e-002
2.055832e+003;2.592780e-002
2.057761e+003;2.588447e-002
2.059689e+003;2.590873e-002
2.061618e+003;2.595442e-002
2.063546e+003;2.602010e-002
2.065475e+003;2.604895e-002
2.067404e+003;2.601672e-002
2.069332e+003;2.595418e-002
2.071260e+003;2.588046e-002
2.073189e+003;2.577598e-002
2.075118e+003;2.564742e-002
2.077046e+003;2.568771e-002
2.078975e+003;2.556750e-002
2.080903e+003;2.536203e-002
2.082832e+003;2.525831e-002
2.084760e+003;2.525786e-002
2.086689e+003;2.548893e-002
2.088617e+003;2.562117e-002
2.090546e+003;2.547150e-002
2.092475e+003;2.565333e-002
2.094403e+003;2.570563e-002
2.096332e+003;2.534738e-002
2.098260e+003;2.513426e-002
2.100189e+003;2.544582e-002
2.102117e+003;2.583186e-002
2.104046e+003;2.575489e-002
2.105974e+003;2.560806e-002
2.107903e+003;2.555175e-002
2.109832e+003;2.571657e-002
2.111760e+003;2.600318e-002
2.113688e+003;2.598911e-002
2.115617e+003;2.602805e-002
2.117546e+003;2.614420e-002
2.119474e+003;2.608146e-002
2.121403e+003;2.614328e-002
2.123331e+003;2.650194e-002
2.125260e+003;2.656939e-002
2.127188e+003;2.656598e-002
2.129117e+003;2.650215e-002
2.131045e+003;2.628005e-002
2.132974e+003;2.613023e-002
2.134903e+003;2.603646e-002
2.136831e+003;2.618350e-002
2.138760e+003;2.646377e-002
2.140688e+003;2.648726e-002
2.142617e+003;2.649515e-002
2.144545e+003;2.652357e-002
2.146474e+003;2.642165e-002
2.148402e+003;2.617622e-002
2.150331e+003;2.611939e-002
2.152260e+003;2.613491e-002
2.154188e+003;2.595031e-002
2.156117e+003;2.573826e-002
2.158045e+003;2.567284e-002
2.159974e+003;2.562781e-002
2.161902e+003;2.552659e-002
2.163831e+003;2.551008e-002
2.165759e+003;2.549729e-002
2.167688e+003;2.541395e-002
2.169616e+003;2.531974e-002
2.171545e+003;2.522056e-002
2.173474e+003;2.512474e-002
2.175402e+003;2.496928e-002
2.177331e+003;2.471930e-002
2.179259e+003;2.456314e-002
2.181188e+003;2.456788e-002
2.183116e+003;2.453110e-002
2.185045e+003;2.458506e-002
2.186973e+003;2.461865e-002
2.188902e+003;2.437686e-002
2.190831e+003;2.400426e-002
2.192759e+003;2.405441e-002
2.194688e+003;2.411777e-002
2.196616e+003;2.412004e-002
2.198545e+003;2.420643e-002
2.200473e+003;2.419259e-002
2.202402e+003;2.399845e-002
2.204330e+003;2.382032e-002
2.206259e+003;2.403991e-002
2.208188e+003;2.399078e-002
2.210116e+003;2.352735e-002
2.212044e+003;2.350230e-002
2.213973e+003;2.369097e-002
2.215902e+003;2.374301e-002
2.217830e+003;2.379526e-002
2.219759e+003;2.376873e-002
2.221687e+003;2.349111e-002
2.223616e+003;2.325009e-002
2.225544e+003;2.300620e-002
2.227473e+003;2.287930e-002
2.229401e+003;2.285209e-002
2.231330e+003;2.277100e-002
2.233259e+003;2.288569e-002
2.235187e+003;2.306168e-002
2.237116e+003;2.300145e-002
2.239044e+003;2.291894e-002
2.240973e+003;2.286515e-002
2.242901e+003;2.265980e-002
2.244830e+003;2.250567e-002
2.246758e+003;2.232742e-002
2.248687e+003;2.201147e-002
2.250615e+003;2.188426e-002
2.252544e+003;2.203472e-002
2.254473e+003;2.210999e-002
2.256401e+003;2.210187e-002
2.258330e+003;2.190172e-002
2.260258e+003;2.166761e-002
2.262187e+003;2.156432e-002
2.264115e+003;2.143675e-002
2.266044e+003;2.144476e-002
2.267972e+003;2.146683e-002
2.269901e+003;2.159890e-002
2.271830e+003;2.165841e-002
2.273758e+003;2.139550e-002
2.275687e+003;2.122307e-002
2.277615e+003;2.140727e-002
2.279544e+003;2.136328e-002
2.281472e+003;2.113147e-002
2.283401e+003;2.123166e-002
2.285329e+003;2.147167e-002
2.287258e+003;2.142339e-002
2.289187e+003;2.119931e-002
2.291115e+003;2.125884e-002
2.293043e+003;2.123636e-002
2.294972e+003;2.112218e-002
2.296901e+003;2.123194e-002
2.298829e+003;2.113749e-002
2.300758e+003;2.104764e-002
2.302686e+003;2.105293e-002
2.304615e+003;2.105811e-002
2.306543e+003;2.118991e-002
2.308472e+003;2.120146e-002
2.310400e+003;2.080985e-002
2.312329e+003;2.069019e-002
2.314258e+003;2.113957e-002
2.316186e+003;2.132450e-002
2.318115e+003;2.118076e-002
2.320043e+003;2.105449e-002
2.321972e+003;2.119541e-002
2.323900e+003;2.135698e-002
2.325829e+003;2.120828e-002
2.327757e+003;2.101971e-002
2.329686e+003;2.101026e-002
2.331615e+003;2.137365e-002
2.333543e+003;2.157052e-002
2.335472e+003;2.148821e-002
2.337400e+003;2.143223e-002
2.339329e+003;2.160673e-002
2.341257e+003;2.178834e-002
2.343186e+003;2.194225e-002
2.345114e+003;2.199140e-002
2.347043e+003;2.163919e-002
2.348971e+003;2.142906e-002
2.350900e+003;2.175981e-002
2.352829e+003;2.242814e-002
2.354757e+003;2.245839e-002
2.356686e+003;2.222303e-002
2.358614e+003;2.248962e-002
2.360543e+003;2.266644e-002
2.362471e+003;2.253439e-002
2.364400e+003;2.233628e-002
2.366328e+003;2.216679e-002
2.368257e+003;2.223085e-002
2.370186e+003;2.250574e-002
2.372114e+003;2.292065e-002
2.374042e+003;2.325492e-002
2.375971e+003;2.302451e-002
2.377900e+003;2.276080e-002
2.379828e+003;2.293902e-002
2.381757e+003;2.312741e-002
2.383685e+003;2.329686e-002
2.385614e+003;2.347684e-002
2.387542e+003;2.359787e-002
2.389471e+003;2.405483e-002
2.391399e+003;2.427366e-002
2.393328e+003;2.399260e-002
2.395257e+003;2.390955e-002
2.397185e+003;2.397699e-002
2.399114e+003;2.412740e-002
2.401042e+003;2.421477e-002
2.402971e+003;2.420853e-002
2.404899e+003;2.449814e-002
2.406828e+003;2.472832e-002
2.408756e+003;2.494510e-002
2.410685e+003;2.512773e-002
2.412614e+003;2.517611e-002
2.414542e+003;2.539115e-002
2.416471e+003;2.567417e-002
2.418399e+003;2.572043e-002
2.420328e+003;2.570943e-002
2.422256e+003;2.585419e-002
2.424185e+003;2.602766e-002
2.426113e+003;2.608293e-002
2.428042e+003;2.614479e-002
2.429970e+003;2.632898e-002
2.431899e+003;2.655467e-002
2.433828e+003;2.678023e-002
2.435756e+003;2.705368e-002
2.437685e+003;2.723056e-002
2.439613e+003;2.744377e-002
2.441542e+003;2.752810e-002
2.443470e+003;2.711977e-002
2.445399e+003;2.721642e-002
2.447327e+003;2.779757e-002
2.449256e+003;2.811274e-002
2.451185e+003;2.809973e-002
2.453113e+003;2.825024e-002
2.455042e+003;2.868154e-002
2.456970e+003;2.884754e-002
2.458899e+003;2.884372e-002
2.460827e+003;2.888834e-002
2.462756e+003;2.882881e-002
2.464684e+003;2.888168e-002
2.466613e+003;2.914399e-002
2.468542e+003;2.944071e-002
2.470470e+003;2.956018e-002
2.472398e+003;2.941450e-002
2.474327e+003;2.938263e-002
2.476256e+003;2.983145e-002
2.478184e+003;3.029477e-002
2.480113e+003;3.045660e-002
2.482041e+003;3.025012e-002
2.483970e+003;3.057301e-002
2.485898e+003;3.082987e-002
2.487827e+003;3.073974e-002
2.489755e+003;3.101339e-002
2.491684e+003;3.108699e-002
2.493613e+003;3.091358e-002
2.495541e+003;3.105673e-002
2.497470e+003;3.135248e-002
2.499398e+003;3.137424e-002
2.501327e+003;3.158165e-002
2.503255e+003;3.191951e-002
2.505184e+003;3.216775e-002
2.507112e+003;3.213610e-002
2.509041e+003;3.193667e-002
2.510969e+003;3.181119e-002
2.512898e+003;3.152792e-002
2.514827e+003;3.183137e-002
2.516755e+003;3.233106e-002
2.518684e+003;3.225054e-002
2.520612e+003;3.224065e-002
2.522541e+003;3.251103e-002
2.524469e+003;3.252603e-002
2.526398e+003;3.260128e-002
2.528326e+003;3.280306e-002
2.530255e+003;3.278347e-002
2.532184e+003;3.279713e-002
2.534112e+003;3.303017e-002
2.536041e+003;3.287532e-002
2.537969e+003;3.275010e-002
2.539898e+003;3.309435e-002
2.541826e+003;3.349198e-002
2.543755e+003;3.364923e-002
2.545683e+003;3.350050e-002
2.547612e+003;3.334279e-002
2.549541e+003;3.317467e-002
2.551469e+003;3.324828e-002
2.553397e+003;3.362002e-002
2.555326e+003;3.373424e-002
2.557255e+003;3.384885e-002
2.559183e+003;3.435126e-002
2.561112e+003;3.458076e-002
2.563040e+003;3.434229e-002
2.564969e+003;3.448217e-002
2.566897e+003;3.455550e-002
2.568826e+003;3.444842e-002
2.570754e+003;3.460670e-002
2.572683e+003;3.480830e-002
2.574612e+003;3.493766e-002
2.576540e+003;3.524049e-002
2.578469e+003;3.529730e-002
2.580397e+003;3.539798e-002
2.582326e+003;3.572743e-002
2.584254e+003;3.581957e-002
2.586183e+003;3.579219e-002
2.588111e+003;3.541423e-002
2.590040e+003;3.532056e-002
2.591969e+003;3.603872e-002
2.593897e+003;3.648893e-002
2.595826e+003;3.636249e-002
2.597754e+003;3.621401e-002
2.599683e+003;3.663610e-002
2.601611e+003;3.679609e-002
2.603540e+003;3.643441e-002
2.605468e+003;3.623292e-002
2.607397e+003;3.643261e-002
2.609325e+003;3.688131e-002
2.611254e+003;3.754130e-002
2.613183e+003;3.784652e-002
2.615111e+003;3.775485e-002
2.617040e+003;3.761160e-002
2.618968e+003;3.752796e-002
2.620897e+003;3.790751e-002
2.622825e+003;3.842181e-002
2.624754e+003;3.840878e-002
2.626682e+003;3.842014e-002
2.628611e+003;3.871400e-002
2.630540e+003;3.893016e-002
2.632468e+003;3.909857e-002
2.634396e+003;3.929095e-002
2.636325e+003;3.938900e-002
2.638254e+003;3.952703e-002
2.640182e+003;3.983380e-002
2.642111e+003;3.995951e-002
2.644039e+003;3.996939e-002
2.645968e+003;4.008769e-002
2.647896e+003;4.049170e-002
2.649825e+003;4.062987e-002
2.651753e+003;4.063423e-002
2.653682e+003;4.109539e-002
2.655611e+003;4.172442e-002
2.657539e+003;4.187378e-002
2.659468e+003;4.174434e-002
2.661396e+003;4.204155e-002
2.663325e+003;4.234739e-002
2.665253e+003;4.248275e-002
2.667182e+003;4.263080e-002
2.669110e+003;4.273275e-002
2.671039e+003;4.283667e-002
2.672968e+003;4.288838e-002
2.674896e+003;4.306953e-002
2.676825e+003;4.337258e-002
2.678753e+003;4.366358e-002
2.680682e+003;4.410005e-002
2.682610e+003;4.461113e-002
2.684539e+003;4.479576e-002
2.686467e+003;4.487397e-002
2.688396e+003;4.499082e-002
2.690324e+003;4.532943e-002
2.692253e+003;4.559071e-002
2.694182e+003;4.548853e-002
2.696110e+003;4.549213e-002
2.698039e+003;4.564595e-002
2.699967e+003;4.585038e-002
2.701896e+003;4.612540e-002
2.703824e+003;4.616792e-002
2.705753e+003;4.626754e-002
2.707681e+003;4.642130e-002
2.709610e+003;4.676383e-002
2.711539e+003;4.709648e-002
2.713467e+003;4.721345e-002
2.715396e+003;4.720048e-002
2.717324e+003;4.742342e-002
2.719253e+003;4.786476e-002
2.721181e+003;4.826108e-002
2.723110e+003;4.846950e-002
2.725038e+003;4.833059e-002
2.726967e+003;4.841711e-002
2.728896e+003;4.872193e-002
2.730824e+003;4.885072e-002
2.732752e+003;4.859940e-002
2.734681e+003;4.854307e-002
2.736610e+003;4.882146e-002
2.738538e+003;4.914296e-002
2.740467e+003;4.913884e-002
2.742395e+003;4.900039e-002
2.744324e+003;4.918960e-002
2.746252e+003;4.941338e-002
2.748181e+003;4.941910e-002
2.750109e+003;4.975531e-002
2.752038e+003;5.001143e-002
2.753967e+003;4.994956e-002
2.755895e+003;4.981465e-002
2.757824e+003;4.990570e-002
2.759752e+003;5.010207e-002
2.761681e+003;5.045742e-002
2.763609e+003;5.083909e-002
2.765538e+003;5.110065e-002
2.767466e+003;5.145693e-002
2.769395e+003;5.174328e-002
2.771323e+003;5.175929e-002
2.773252e+003;5.204207e-002
2.775181e+003;5.243067e-002
2.777109e+003;5.261707e-002
2.779038e+003;5.276790e-002
2.780966e+003;5.298987e-002
2.782895e+003;5.333807e-002
2.784823e+003;5.373293e-002
2.786752e+003;5.397823e-002
2.788680e+003;5.420945e-002
2.790609e+003;5.454150e-002
2.792538e+003;5.460804e-002
2.794466e+003;5.469574e-002
2.796395e+003;5.514104e-002
2.798323e+003;5.564623e-002
2.800252e+003;5.597105e-002
2.802180e+003;5.632123e-002
2.804109e+003;5.670330e-002
2.806037e+003;5.681820e-002
2.807966e+003;5.667238e-002
2.809895e+003;5.682565e-002
2.811823e+003;5.730047e-002
2.813751e+003;5.812045e-002
2.815680e+003;5.876892e-002
2.817609e+003;5.890464e-002
2.819537e+003;5.917893e-002
2.821466e+003;5.957435e-002
2.823394e+003;6.000514e-002
2.825323e+003;6.050942e-002
2.827251e+003;6.109820e-002
2.829180e+003;6.116209e-002
2.831108e+003;6.125647e-002
2.833037e+003;6.181131e-002
2.834966e+003;6.225594e-002
2.836894e+003;6.281385e-002
2.838823e+003;6.364010e-002
2.840751e+003;6.415112e-002
2.842680e+003;6.441830e-002
2.844608e+003;6.519678e-002
2.846537e+003;6.599934e-002
2.848465e+003;6.622887e-002
2.850394e+003;6.672615e-002
2.852323e+003;6.753921e-002
2.854251e+003;6.782118e-002
2.856180e+003;6.847675e-002
2.858108e+003;6.990473e-002
2.860037e+003;7.117313e-002
2.861965e+003;7.224572e-002
2.863894e+003;7.323643e-002
2.865822e+003;7.418507e-002
2.867751e+003;7.540365e-002
2.869679e+003;7.644711e-002
2.871608e+003;7.726748e-002
2.873536e+003;7.777629e-002
2.875465e+003;7.809930e-002
2.877394e+003;7.857062e-002
2.879322e+003;7.904197e-002
2.881251e+003;7.946374e-002
2.883179e+003;8.021645e-002
2.885108e+003;8.079956e-002
2.887036e+003;8.107124e-002
2.888965e+003;8.110227e-002
2.890893e+003;8.095325e-002
2.892822e+003;8.121978e-002
2.894750e+003;8.132298e-002
2.896679e+003;8.081194e-002
2.898608e+003;8.042961e-002
2.900536e+003;8.031350e-002
2.902465e+003;8.030880e-002
2.904393e+003;7.975250e-002
2.906322e+003;7.904118e-002
2.908250e+003;7.885265e-002
2.910179e+003;7.797711e-002
2.912107e+003;7.710113e-002
2.914036e+003;7.683363e-002
2.915965e+003;7.630447e-002
2.917893e+003;7.528912e-002
2.919822e+003;7.408665e-002
2.921750e+003;7.264296e-002
2.923679e+003;7.144509e-002
2.925607e+003;7.078609e-002
2.927536e+003;7.045919e-002
2.929464e+003;7.004646e-002
2.931393e+003;6.977826e-002
2.933322e+003;6.961712e-002
2.935250e+003;6.880852e-002
2.937178e+003;6.743018e-002
2.939107e+003;6.624828e-002
2.941036e+003;6.595418e-002
2.942964e+003;6.575923e-002
2.944893e+003;6.496311e-002
2.946821e+003;6.370210e-002
2.948750e+003;6.256477e-002
2.950678e+003;6.177643e-002
2.952607e+003;6.118715e-002
2.954535e+003;6.083909e-002
2.956464e+003;6.059521e-002
2.958393e+003;6.007343e-002
2.960321e+003;5.941704e-002
2.962250e+003;5.893215e-002
2.964178e+003;5.863989e-002
2.966107e+003;5.812037e-002
2.968035e+003;5.745498e-002
2.969964e+003;5.742782e-002
2.971892e+003;5.738293e-002
2.973821e+003;5.723246e-002
2.975750e+003;5.727340e-002
2.977678e+003;5.709050e-002
2.979607e+003;5.673811e-002
2.981535e+003;5.629389e-002
2.983464e+003;5.616407e-002
2.985392e+003;5.601383e-002
2.987321e+003;5.559365e-002
2.989249e+003;5.545152e-002
2.991178e+003;5.545908e-002
2.993106e+003;5.530310e-002
2.995035e+003;5.509974e-002
2.996964e+003;5.524424e-002
2.998892e+003;5.507762e-002
3.000821e+003;5.477354e-002
3.002749e+003;5.496822e-002
3.004678e+003;5.480478e-002
3.006606e+003;5.468635e-002
3.008535e+003;5.512705e-002
3.010463e+003;5.542720e-002
3.012392e+003;5.542441e-002
3.014321e+003;5.562152e-002
3.016249e+003;5.611204e-002
3.018177e+003;5.652860e-002
3.020106e+003;5.685582e-002
3.022035e+003;5.730179e-002
3.023963e+003;5.752961e-002
3.025892e+003;5.731279e-002
3.027820e+003;5.737776e-002
3.029749e+003;5.795874e-002
3.031677e+003;5.846016e-002
3.033606e+003;5.881062e-002
3.035534e+003;5.942494e-002
3.037463e+003;6.029383e-002
3.039392e+003;6.087678e-002
3.041320e+003;6.123476e-002
3.043249e+003;6.139548e-002
3.045177e+003;6.144487e-002
3.047106e+003;6.182250e-002
3.049034e+003;6.242067e-002
3.050963e+003;6.290354e-002
3.052891e+003;6.311369e-002
3.054820e+003;6.323061e-002
3.056749e+003;6.395560e-002
3.058677e+003;6.475075e-002
3.060606e+003;6.492224e-002
3.062534e+003;6.517230e-002
3.064463e+003;6.578189e-002
3.066391e+003;6.635937e-002
3.068320e+003;6.640068e-002
3.070248e+003;6.636200e-002
3.072177e+003;6.709281e-002
3.074105e+003;6.782638e-002
3.076034e+003;6.800002e-002
3.077963e+003;6.830307e-002
3.079891e+003;6.895358e-002
3.081820e+003;6.934728e-002
3.083748e+003;6.974199e-002
3.085677e+003;7.042751e-002
3.087605e+003;7.108106e-002
3.089534e+003;7.150443e-002
3.091462e+003;7.185940e-002
3.093391e+003;7.248303e-002
3.095320e+003;7.324749e-002
3.097248e+003;7.365920e-002
3.099177e+003;7.374125e-002
3.101105e+003;7.430080e-002
3.103034e+003;7.467777e-002
3.104962e+003;7.492496e-002
3.106891e+003;7.549857e-002
3.108819e+003;7.602628e-002
3.110748e+003;7.650650e-002
3.112677e+003;7.667428e-002
3.114605e+003;7.683632e-002
3.116533e+003;7.707418e-002
3.118462e+003;7.737627e-002
3.120391e+003;7.794587e-002
3.122319e+003;7.848447e-002
3.124248e+003;7.893880e-002
3.126176e+003;7.959339e-002
3.128105e+003;7.991150e-002
3.130033e+003;7.971412e-002
3.131962e+003;8.015109e-002
3.133890e+003;8.088934e-002
3.135819e+003;8.113062e-002
3.137748e+003;8.170430e-002
3.139676e+003;8.208155e-002
3.141605e+003;8.217366e-002
3.143533e+003;8.284847e-002
3.145462e+003;8.342514e-002
3.147390e+003;8.366439e-002
3.149319e+003;8.395068e-002
3.151247e+003;8.434151e-002
3.153176e+003;8.493440e-002
3.155104e+003;8.560455e-002
3.157033e+003;8.565310e-002
3.158962e+003;8.562477e-002
3.160890e+003;8.619185e-002
3.162819e+003;8.682202e-002
3.164747e+003;8.720666e-002
3.166676e+003;8.734398e-002
3.168604e+003;8.756951e-002
3.170533e+003;8.798103e-002
3.172461e+003;8.850752e-002
3.174390e+003;8.883581e-002
3.176319e+003;8.920258e-002
3.178247e+003;8.953054e-002
3.180176e+003;8.986001e-002
3.182104e+003;9.005500e-002
3.184033e+003;9.023511e-002
3.185961e+003;9.050614e-002
3.187890e+003;9.098287e-002
3.189818e+003;9.168088e-002
3.191747e+003;9.199155e-002
3.193676e+003;9.245906e-002
3.195604e+003;9.303481e-002
3.197532e+003;9.329769e-002
3.199461e+003;9.319399e-002
3.201390e+003;9.298510e-002
3.203318e+003;9.363224e-002
3.205247e+003;9.448390e-002
3.207175e+003;9.482110e-002
3.209104e+003;9.487736e-002
3.211032e+003;9.507351e-002
3.212961e+003;9.542154e-002
3.214889e+003;9.585296e-002
3.216818e+003;9.618949e-002
3.218747e+003;9.656473e-002
3.220675e+003;9.661803e-002
3.222604e+003;9.691473e-002
3.224532e+003;9.736945e-002
3.226461e+003;9.761767e-002
3.228389e+003;9.761240e-002
3.230318e+003;9.781751e-002
3.232246e+003;9.815731e-002
3.234175e+003;9.854456e-002
3.236104e+003;9.867538e-002
3.238032e+003;9.879990e-002
3.239961e+003;9.945595e-002
3.241889e+003;1.001481e-001
3.243818e+003;1.007565e-001
3.245746e+003;1.007386e-001
3.247675e+003;1.005730e-001
3.249603e+003;1.010681e-001
3.251532e+003;1.012482e-001
3.253460e+003;1.010961e-001
3.255389e+003;1.013861e-001
3.257318e+003;1.018548e-001
3.259246e+003;1.019356e-001
3.261175e+003;1.018593e-001
3.263103e+003;1.019656e-001
3.265032e+003;1.023563e-001
3.266960e+003;1.026981e-001
3.268889e+003;1.030920e-001
3.270817e+003;1.033145e-001
3.272746e+003;1.031401e-001
3.274675e+003;1.028593e-001
3.276603e+003;1.032940e-001
3.278531e+003;1.040483e-001
3.280460e+003;1.039530e-001
3.282389e+003;1.037397e-001
3.284317e+003;1.042941e-001
3.286246e+003;1.048714e-001
3.288174e+003;1.052324e-001
3.290103e+003;1.053984e-001
3.292031e+003;1.058186e-001
3.293960e+003;1.059162e-001
3.295888e+003;1.054228e-001
3.297817e+003;1.051650e-001
3.299746e+003;1.053745e-001
3.301674e+003;1.061295e-001
3.303603e+003;1.062880e-001
3.305531e+003;1.056799e-001
3.307460e+003;1.054921e-001
3.309388e+003;1.064336e-001
3.311317e+003;1.075014e-001
3.313245e+003;1.073256e-001
3.315174e+003;1.066342e-001
3.317103e+003;1.066040e-001
3.319031e+003;1.062570e-001
3.320960e+003;1.058270e-001
3.322888e+003;1.062484e-001
3.324817e+003;1.069051e-001
3.326745e+003;1.069120e-001
3.328674e+003;1.070698e-001
3.330602e+003;1.073965e-001
3.332531e+003;1.071242e-001
3.334459e+003;1.068221e-001
3.336388e+003;1.068441e-001
3.338317e+003;1.070596e-001
3.340245e+003;1.070545e-001
3.342174e+003;1.069487e-001
3.344102e+003;1.065298e-001
3.346031e+003;1.065419e-001
3.347959e+003;1.069919e-001
3.349888e+003;1.070535e-001
3.351816e+003;1.066632e-001
3.353745e+003;1.060465e-001
3.355674e+003;1.062587e-001
3.357602e+003;1.065155e-001
3.359531e+003;1.064496e-001
3.361459e+003;1.058068e-001
3.363388e+003;1.055510e-001
3.365316e+003;1.057647e-001
3.367245e+003;1.055204e-001
3.369173e+003;1.052769e-001
3.371102e+003;1.052577e-001
3.373031e+003;1.050208e-001
3.374959e+003;1.043925e-001
3.376887e+003;1.038286e-001
3.378816e+003;1.033930e-001
3.380745e+003;1.035791e-001
3.382673e+003;1.035947e-001
3.384602e+003;1.034577e-001
3.386530e+003;1.037409e-001
3.388459e+003;1.037658e-001
3.390387e+003;1.029839e-001
3.392316e+003;1.020959e-001
3.394244e+003;1.015430e-001
3.396173e+003;1.013851e-001
3.398102e+003;1.011252e-001
3.400030e+003;1.010772e-001
3.401959e+003;1.011933e-001
3.403887e+003;1.012489e-001
3.405816e+003;1.010122e-001
3.407744e+003;1.001135e-001
3.409673e+003;9.950469e-002
3.411601e+003;9.930911e-002
3.413530e+003;9.959820e-002
3.415458e+003;9.927592e-002
3.417387e+003;9.867230e-002
3.419316e+003;9.860186e-002
3.421244e+003;9.823857e-002
3.423173e+003;9.737235e-002
3.425101e+003;9.712432e-002
3.427030e+003;9.735137e-002
3.428958e+003;9.751920e-002
3.430887e+003;9.773326e-002
3.432815e+003;9.754329e-002
3.434744e+003;9.731663e-002
3.436673e+003;9.709610e-002
3.438601e+003;9.669618e-002
3.440530e+003;9.607435e-002
3.442458e+003;9.509587e-002
3.444387e+003;9.412230e-002
3.446315e+003;9.374946e-002
3.448244e+003;9.357010e-002
3.450172e+003;9.293314e-002
3.452101e+003;9.194463e-002
3.454030e+003;9.124517e-002
3.455958e+003;9.054275e-002
3.457886e+003;8.971760e-002
3.459815e+003;8.887748e-002
3.461744e+003;8.788671e-002
3.463672e+003;8.693352e-002
3.465601e+003;8.586717e-002
3.467529e+003;8.489802e-002
3.469458e+003;8.476001e-002
3.471386e+003;8.453743e-002
3.473315e+003;8.402618e-002
3.475243e+003;8.344261e-002
3.477172e+003;8.232446e-002
3.479101e+003;8.128486e-002
3.481029e+003;8.094411e-002
3.482958e+003;8.097636e-002
3.484886e+003;8.073983e-002
3.486815e+003;7.989445e-002
3.488743e+003;7.879779e-002
3.490672e+003;7.828325e-002
3.492600e+003;7.761751e-002
3.494529e+003;7.633488e-002
3.496458e+003;7.501727e-002
3.498386e+003;7.396246e-002
3.500315e+003;7.377553e-002
3.502243e+003;7.318227e-002
3.504172e+003;7.137358e-002
3.506100e+003;6.985690e-002
3.508029e+003;6.924926e-002
3.509957e+003;6.896888e-002
3.511886e+003;6.827011e-002
3.513814e+003;6.750914e-002
3.515743e+003;6.671220e-002
3.517672e+003;6.566574e-002
3.519600e+003;6.510408e-002
3.521529e+003;6.436527e-002
3.523457e+003;6.352859e-002
3.525386e+003;6.312840e-002
3.527314e+003;6.244141e-002
3.529243e+003;6.131512e-002
3.531171e+003;6.056500e-002
3.533100e+003;5.969017e-002
3.535029e+003;5.892225e-002
3.536957e+003;5.883600e-002
3.538885e+003;5.876976e-002
3.540814e+003;5.777002e-002
3.542743e+003;5.660156e-002
3.544671e+003;5.612380e-002
3.546600e+003;5.565422e-002
3.548528e+003;5.491711e-002
3.550457e+003;5.460931e-002
3.552385e+003;5.469228e-002
3.554314e+003;5.402855e-002
3.556242e+003;5.287784e-002
3.558171e+003;5.230694e-002
3.560100e+003;5.169002e-002
3.562028e+003;5.099757e-002
3.563957e+003;5.058770e-002
3.565885e+003;4.999644e-002
3.567814e+003;4.936464e-002
3.569742e+003;4.858198e-002
3.571671e+003;4.795619e-002
3.573599e+003;4.780121e-002
3.575528e+003;4.740306e-002
3.577457e+003;4.659866e-002
3.579385e+003;4.622412e-002
3.581314e+003;4.634207e-002
3.583242e+003;4.611578e-002
3.585171e+003;4.523995e-002
3.587099e+003;4.385418e-002
3.589028e+003;4.282730e-002
3.590956e+003;4.253650e-002
3.592885e+003;4.200552e-002
3.594813e+003;4.132072e-002
3.596742e+003;4.133249e-002
3.598671e+003;4.141577e-002
3.600599e+003;4.070122e-002
3.602528e+003;3.994948e-002
3.604456e+003;3.949992e-002
3.606385e+003;3.869179e-002
3.608313e+003;3.793817e-002
3.610242e+003;3.788206e-002
3.612170e+003;3.731405e-002
3.614099e+003;3.629631e-002
3.616028e+003;3.542703e-002
3.617956e+003;3.456874e-002
3.619885e+003;3.397373e-002
3.621813e+003;3.413152e-002
3.623742e+003;3.370040e-002
3.625670e+003;3.236251e-002
3.627599e+003;3.107364e-002
3.629527e+003;3.082179e-002
3.631456e+003;3.118865e-002
3.633385e+003;3.091625e-002
3.635313e+003;3.062549e-002
3.637241e+003;2.956447e-002
3.639170e+003;2.812812e-002
3.641099e+003;2.761654e-002
3.643027e+003;2.690581e-002
3.644956e+003;2.604529e-002
3.646884e+003;2.514128e-002
3.648813e+003;2.376446e-002
3.650741e+003;2.311301e-002
3.652670e+003;2.288593e-002
3.654598e+003;2.234807e-002
3.656527e+003;2.197365e-002
3.658456e+003;2.188587e-002
3.660384e+003;2.140473e-002
3.662313e+003;2.099099e-002
3.664241e+003;2.020520e-002
3.666170e+003;1.892462e-002
3.668098e+003;1.770226e-002
3.670027e+003;1.699047e-002
3.671955e+003;1.710629e-002
3.673884e+003;1.650102e-002
3.675813e+003;1.576869e-002
3.677741e+003;1.562365e-002
3.679669e+003;1.523426e-002
3.681598e+003;1.464108e-002
3.683527e+003;1.397145e-002
3.685455e+003;1.338775e-002
3.687384e+003;1.263076e-002
3.689312e+003;1.257206e-002
3.691241e+003;1.308994e-002
3.693169e+003;1.301974e-002
3.695098e+003;1.287490e-002
3.697026e+003;1.237998e-002
3.698955e+003;1.143678e-002
3.700884e+003;1.132226e-002
3.702812e+003;1.161579e-002
3.704741e+003;1.137086e-002
3.706669e+003;1.087561e-002
3.708598e+003;1.057402e-002
3.710526e+003;1.032992e-002
3.712455e+003;9.885370e-003
3.714383e+003;9.715918e-003
3.716312e+003;9.564722e-003
3.718240e+003;9.678613e-003
3.720169e+003;9.497931e-003
3.722098e+003;9.242211e-003
3.724026e+003;9.091552e-003
3.725955e+003;8.835937e-003
3.727883e+003;8.996081e-003
3.729812e+003;8.964622e-003
3.731740e+003;8.124273e-003
3.733669e+003;7.739853e-003
3.735597e+003;8.005220e-003
3.737526e+003;8.405955e-003
3.739455e+003;8.372613e-003
3.741383e+003;7.820407e-003
3.743312e+003;6.488190e-003
3.745240e+003;5.876337e-003
3.747169e+003;6.686063e-003
3.749097e+003;7.085111e-003
3.751026e+003;7.324399e-003
3.752954e+003;7.590692e-003
3.754883e+003;7.932324e-003
3.756812e+003;7.791901e-003
3.758740e+003;7.561796e-003
3.760668e+003;7.731657e-003
3.762597e+003;8.032287e-003
3.764526e+003;8.216447e-003
3.766454e+003;7.981898e-003
3.768383e+003;7.748454e-003
3.770311e+003;7.522653e-003
3.772240e+003;7.938466e-003
3.774168e+003;8.175760e-003
3.776097e+003;7.762992e-003
3.778025e+003;7.296431e-003
3.779954e+003;7.427627e-003
3.781883e+003;7.690846e-003
3.783811e+003;7.618813e-003
3.785740e+003;7.687339e-003
3.787668e+003;7.740156e-003
3.789597e+003;7.846891e-003
3.791525e+003;7.967724e-003
3.793454e+003;8.289254e-003
3.795382e+003;8.277299e-003
3.797311e+003;7.855056e-003
3.799240e+003;7.039310e-003
3.801168e+003;6.528249e-003
3.803097e+003;7.286188e-003
3.805025e+003;7.593996e-003
3.806954e+003;7.151598e-003
3.808882e+003;7.259974e-003
3.810811e+003;7.045574e-003
3.812739e+003;6.765783e-003
3.814668e+003;6.820609e-003
3.816596e+003;7.276585e-003
3.818525e+003;7.693612e-003
3.820454e+003;7.461570e-003
3.822382e+003;7.700458e-003
3.824311e+003;7.938938e-003
3.826239e+003;7.274765e-003
3.828168e+003;6.966307e-003
3.830096e+003;6.898805e-003
3.832025e+003;6.768811e-003
3.833953e+003;7.120745e-003
3.835882e+003;6.948396e-003
3.837811e+003;6.704469e-003
3.839739e+003;7.213750e-003
3.841667e+003;7.482031e-003
3.843596e+003;7.255055e-003
3.845525e+003;7.468480e-003
3.847453e+003;8.224382e-003
3.849382e+003;7.982709e-003
3.851310e+003;6.041004e-003
3.853239e+003;5.172520e-003
3.855167e+003;6.989136e-003
3.857096e+003;8.300129e-003
3.859024e+003;8.174342e-003
3.860953e+003;7.662855e-003
3.862882e+003;7.015502e-003
3.864810e+003;7.319850e-003
3.866739e+003;7.841189e-003
3.868667e+003;7.793115e-003
3.870596e+003;7.953989e-003
3.872524e+003;8.246838e-003
3.874453e+003;8.269565e-003
3.876381e+003;8.501161e-003
3.878310e+003;8.583074e-003
3.880239e+003;8.920517e-003
3.882167e+003;8.954711e-003
3.884096e+003;8.621028e-003
3.886024e+003;8.618729e-003
3.887953e+003;8.994626e-003
3.889881e+003;9.022771e-003
3.891810e+003;9.170158e-003
3.893738e+003;9.441276e-003
3.895667e+003;9.697012e-003
3.897595e+003;9.474225e-003
3.899524e+003;9.260320e-003
3.901453e+003;9.429120e-003
3.903381e+003;9.345016e-003
3.905310e+003;9.886522e-003
3.907238e+003;1.072425e-002
3.909167e+003;1.122667e-002
3.911095e+003;1.117105e-002
3.913024e+003;1.092501e-002
3.914952e+003;1.046777e-002
3.916881e+003;1.006733e-002
3.918810e+003;1.020313e-002
3.920738e+003;1.048006e-002
3.922667e+003;1.060808e-002
3.924595e+003;1.098764e-002
3.926524e+003;1.127798e-002
3.928452e+003;1.119352e-002
3.930381e+003;1.134797e-002
3.932309e+003;1.123806e-002
3.934238e+003;1.096664e-002
3.936167e+003;1.104025e-002
3.938095e+003;1.101598e-002
3.940023e+003;1.110962e-002
3.941952e+003;1.125054e-002
3.943881e+003;1.168400e-002
3.945809e+003;1.167372e-002
3.947738e+003;1.162719e-002
3.949666e+003;1.180995e-002
3.951595e+003;1.174963e-002
3.953523e+003;1.201963e-002
3.955452e+003;1.227055e-002
3.957380e+003;1.187598e-002
3.959309e+003;1.202897e-002
3.961238e+003;1.253819e-002
3.963166e+003;1.230232e-002
3.965095e+003;1.170660e-002
3.967023e+003;1.144417e-002
3.968952e+003;1.166916e-002
3.970880e+003;1.171422e-002
3.972809e+003;1.148091e-002
3.974737e+003;1.145311e-002
3.976666e+003;1.176981e-002
3.978594e+003;1.202740e-002
3.980523e+003;1.197508e-002
3.982452e+003;1.169142e-002
3.984380e+003;1.140219e-002
3.986309e+003;1.159701e-002
3.988237e+003;1.152854e-002
3.990166e+003;1.133549e-002
3.992094e+003;1.189130e-002
3.994023e+003;1.237585e-002
3.995951e+003;1.247977e-002
3.997880e+003;1.233129e-002
3.999809e+003;1.221221e-002
4.001737e+003;0.000000e+000
