3.992094e+002;0.000000e+000
4.011380e+002;0.000000e+000
4.030665e+002;0.000000e+000
4.049951e+002;0.000000e+000
4.069236e+002;0.000000e+000
4.088522e+002;0.000000e+000
4.107807e+002;0.000000e+000
4.127093e+002;0.000000e+000
4.146378e+002;0.000000e+000
4.165664e+002;0.000000e+000
4.184949e+002;0.000000e+000
4.204235e+002;0.000000e+000
4.223520e+002;0.000000e+000
4.242806e+002;0.000000e+000
4.262091e+002;0.000000e+000
4.281377e+002;0.000000e+000
4.300662e+002;0.000000e+000
4.319948e+002;0.000000e+000
4.339233e+002;0.000000e+000
4.358519e+002;0.000000e+000
4.377804e+002;0.000000e+000
4.397090e+002;0.000000e+000
4.416375e+002;0.000000e+000
4.435660e+002;0.000000e+000
4.454946e+002;0.000000e+000
4.474232e+002;0.000000e+000
4.493517e+002;0.000000e+000
4.512802e+002;0.000000e+000
4.532088e+002;0.000000e+000
4.551373e+002;0.000000e+000
4.570659e+002;0.000000e+000
4.589944e+002;0.000000e+000
4.609230e+002;0.000000e+000
4.628515e+002;0.000000e+000
4.647801e+002;0.000000e+000
4.667086e+002;0.000000e+000
4.686372e+002;0.000000e+000
4.705657e+002;0.000000e+000
4.724943e+002;0.000000e+000
4.744228e+002;0.000000e+000
4.763513e+002;0.000000e+000
4.782799e+002;0.000000e+000
4.802085e+002;0.000000e+000
4.821370e+002;0.000000e+000
4.840656e+002;0.000000e+000
4.859941e+002;0.000000e+000
4.879226e+002;0.000000e+000
4.898512e+002;0.000000e+000
4.917798e+002;0.000000e+000
4.937083e+002;0.000000e+000
4.956368e+002;0.000000e+000
4.975654e+002;0.000000e+000
4.994939e+002;0.000000e+000
5.014225e+002;0.000000e+000
5.033510e+002;0.000000e+000
5.052796e+002;0.000000e+000
5.072081e+002;0.000000e+000
5.091367e+002;0.000000e+000
5.110652e+002;0.000000e+000
5.129938e+002;0.000000e+000
5.149223e+002;0.000000e+000
5.168509e+002;0.000000e+000
5.187794e+002;0.000000e+000
5.207079e+002;0.000000e+000
5.226365e+002;0.000000e+000
5.245651e+002;0.000000e+000
5.264936e+002;0.000000e+000
5.284222e+002;0.000000e+000
5.303507e+002;0.000000e+000
5.322792e+002;0.000000e+000
5.342078e+002;0.000000e+000
5.361364e+002;0.000000e+000
5.380649e+002;0.000000e+000
5.399935e+002;0.000000e+000
5.419220e+002;0.000000e+000
5.438505e+002;0.000000e+000
5.457791e+002;0.000000e+000
5.477076e+002;0.000000e+000
5.496362e+002;0.000000e+000
5.515648e+002;0.000000e+000
5.534933e+002;0.000000e+000
5.554218e+002;0.000000e+000
5.573504e+002;0.000000e+000
5.592789e+002;0.000000e+000
5.612075e+002;0.000000e+000
5.631360e+002;0.000000e+000
5.650646e+002;0.000000e+000
5.669931e+002;0.000000e+000
5.689217e+002;0.000000e+000
5.708502e+002;0.000000e+000
5.727787e+002;0.000000e+000
5.747073e+002;0.000000e+000
5.766359e+002;0.000000e+000
5.785644e+002;0.000000e+000
5.804930e+002;0.000000e+000
5.824215e+002;0.000000e+000
5.843500e+002;0.000000e+000
5.862786e+002;0.000000e+000
5.882072e+002;0.000000e+000
5.901357e+002;0.000000e+000
5.920643e+002;0.000000e+000
5.939928e+002;0.000000e+000
5.959213e+002;0.000000e+000
5.978499e+002;0.000000e+000
5.997784e+002;1.240621e-001
6.017070e+002;1.183340e-001
6.036355e+002;1.122950e-001
6.055641e+002;1.097716e-001
6.074926e+002;1.108482e-001
6.094211e+002;1.152043e-001
6.113497e+002;1.224789e-001
6.132783e+002;1.218438e-001
6.152068e+002;1.179934e-001
6.171354e+002;1.141129e-001
6.190639e+002;1.118532e-001
6.209924e+002;1.125307e-001
6.229210e+002;1.117358e-001
6.248495e+002;1.101418e-001
6.267781e+002;1.110515e-001
6.287067e+002;1.140856e-001
6.306352e+002;1.148071e-001
6.325637e+002;1.115555e-001
6.344923e+002;1.112587e-001
6.364208e+002;1.108653e-001
6.383494e+002;1.059787e-001
6.402780e+002;1.049842e-001
6.422065e+002;1.054745e-001
6.441350e+002;1.040784e-001
6.460636e+002;1.044447e-001
6.479921e+002;1.036412e-001
6.499207e+002;1.065747e-001
6.518492e+002;1.104731e-001
6.537778e+002;1.114120e-001
6.557063e+002;1.106983e-001
6.576349e+002;1.102133e-001
6.595634e+002;1.098988e-001
6.614919e+002;1.146405e-001
6.634205e+002;1.172546e-001
6.653491e+002;1.154736e-001
6.672776e+002;1.137043e-001
6.692062e+002;1.114147e-001
6.711347e+002;1.110631e-001
6.730632e+002;1.090769e-001
6.749918e+002;1.032490e-001
6.769203e+002;9.916520e-002
6.788489e+002;9.583023e-002
6.807775e+002;9.281414e-002
6.827060e+002;9.234859e-002
6.846345e+002;9.144132e-002
6.865631e+002;9.029495e-002
6.884916e+002;8.951596e-002
6.904202e+002;8.840841e-002
6.923488e+002;8.907281e-002
6.942773e+002;9.017019e-002
6.962058e+002;8.887309e-002
6.981344e+002;8.742515e-002
7.000629e+002;8.664712e-002
7.019915e+002;8.674712e-002
7.039200e+002;8.717171e-002
7.058486e+002;8.744634e-002
7.077771e+002;8.712757e-002
7.097057e+002;8.787559e-002
7.116342e+002;8.756647e-002
7.135627e+002;8.650997e-002
7.154913e+002;8.538351e-002
7.174199e+002;8.329816e-002
7.193484e+002;8.227969e-002
7.212770e+002;8.308358e-002
7.232055e+002;8.379807e-002
7.251340e+002;8.302345e-002
7.270626e+002;8.270125e-002
7.289911e+002;8.284438e-002
7.309197e+002;8.179872e-002
7.328483e+002;8.120967e-002
7.347768e+002;8.107763e-002
7.367053e+002;8.005773e-002
7.386339e+002;7.834924e-002
7.405624e+002;7.712673e-002
7.424910e+002;7.659064e-002
7.444196e+002;7.672647e-002
7.463481e+002;7.674711e-002
7.482766e+002;7.692087e-002
7.502052e+002;7.598326e-002
7.521337e+002;7.395852e-002
7.540623e+002;7.268969e-002
7.559908e+002;7.205719e-002
7.579194e+002;7.198124e-002
7.598479e+002;7.361382e-002
7.617765e+002;7.379415e-002
7.637050e+002;7.185482e-002
7.656335e+002;7.029735e-002
7.675621e+002;6.993396e-002
7.694907e+002;7.049813e-002
7.714192e+002;7.082119e-002
7.733478e+002;7.024460e-002
7.752763e+002;6.897940e-002
7.772048e+002;6.777621e-002
7.791334e+002;6.763440e-002
7.810620e+002;6.779155e-002
7.829905e+002;6.720195e-002
7.849191e+002;6.638756e-002
7.868476e+002;6.621691e-002
7.887761e+002;6.643759e-002
7.907047e+002;6.704769e-002
7.926332e+002;6.723936e-002
7.945618e+002;6.693859e-002
7.964903e+002;6.664170e-002
7.984189e+002;6.561954e-002
8.003474e+002;6.498446e-002
8.022759e+002;6.464814e-002
8.042045e+002;6.430521e-002
8.061331e+002;6.404390e-002
8.080616e+002;6.446819e-002
8.099902e+002;6.542592e-002
8.119187e+002;6.560713e-002
8.138472e+002;6.471509e-002
8.157758e+002;6.415001e-002
8.177043e+002;6.408768e-002
8.196329e+002;6.471198e-002
8.215615e+002;6.541545e-002
8.234900e+002;6.529520e-002
8.254185e+002;6.455660e-002
8.273471e+002;6.349139e-002
8.292756e+002;6.339698e-002
8.312042e+002;6.430460e-002
8.331328e+002;6.455083e-002
8.350613e+002;6.389291e-002
8.369898e+002;6.299619e-002
8.389184e+002;6.271411e-002
8.408469e+002;6.228129e-002
8.427755e+002;6.208561e-002
8.447040e+002;6.239363e-002
8.466326e+002;6.195589e-002
8.485611e+002;6.075547e-002
8.504897e+002;6.123228e-002
8.524182e+002;6.226420e-002
8.543467e+002;6.176726e-002
8.562753e+002;6.086001e-002
8.582039e+002;6.051278e-002
8.601324e+002;6.043741e-002
8.620610e+002;6.044198e-002
8.639895e+002;6.075242e-002
8.659180e+002;6.143911e-002
8.678466e+002;6.217717e-002
8.697751e+002;6.275799e-002
8.717037e+002;6.328672e-002
8.736323e+002;6.442083e-002
8.755608e+002;6.589749e-002
8.774893e+002;6.770790e-002
8.794179e+002;7.017278e-002
8.813464e+002;7.209059e-002
8.832750e+002;7.377628e-002
8.852036e+002;7.670303e-002
8.871321e+002;7.926446e-002
8.890606e+002;8.094937e-002
8.909892e+002;8.305887e-002
8.929177e+002;8.469457e-002
8.948463e+002;8.531076e-002
8.967748e+002;8.498142e-002
8.987034e+002;8.347116e-002
9.006319e+002;8.165906e-002
9.025605e+002;8.072454e-002
9.044890e+002;7.967929e-002
9.064175e+002;7.821687e-002
9.083461e+002;7.688959e-002
9.102747e+002;7.582068e-002
9.122032e+002;7.510001e-002
9.141318e+002;7.394949e-002
9.160603e+002;7.289174e-002
9.179888e+002;7.308385e-002
9.199174e+002;7.388499e-002
9.218459e+002;7.451595e-002
9.237745e+002;7.518025e-002
9.257031e+002;7.571113e-002
9.276316e+002;7.594810e-002
9.295601e+002;7.636648e-002
9.314887e+002;7.719199e-002
9.334172e+002;7.805504e-002
9.353458e+002;7.886132e-002
9.372744e+002;7.990170e-002
9.392029e+002;8.083892e-002
9.411314e+002;8.135570e-002
9.430600e+002;8.221798e-002
9.449885e+002;8.364301e-002
9.469171e+002;8.498754e-002
9.488456e+002;8.586483e-002
9.507742e+002;8.725191e-002
9.527027e+002;8.913696e-002
9.546313e+002;9.143674e-002
9.565598e+002;9.332599e-002
9.584883e+002;9.500843e-002
9.604169e+002;9.699430e-002
9.623455e+002;9.914996e-002
9.642740e+002;1.012136e-001
9.662026e+002;1.026609e-001
9.681311e+002;1.041319e-001
9.700596e+002;1.067084e-001
9.719882e+002;1.094628e-001
9.739167e+002;1.119663e-001
9.758453e+002;1.148105e-001
9.777739e+002;1.186426e-001
9.797024e+002;1.227840e-001
9.816309e+002;1.271431e-001
9.835595e+002;1.323097e-001
9.854880e+002;1.370609e-001
9.874166e+002;1.412041e-001
9.893452e+002;1.447530e-001
9.912737e+002;1.481642e-001
9.932022e+002;1.510156e-001
9.951307e+002;1.531840e-001
9.970593e+002;1.548773e-001
9.989879e+002;1.561174e-001
1.000916e+003;1.566491e-001
1.002845e+003;1.576407e-001
1.004773e+003;1.598016e-001
1.006702e+003;1.620951e-001
1.008631e+003;1.637198e-001
1.010559e+003;1.653879e-001
1.012488e+003;1.678639e-001
1.014416e+003;1.700515e-001
1.016345e+003;1.712497e-001
1.018273e+003;1.722561e-001
1.020202e+003;1.729426e-001
1.022130e+003;1.731597e-001
1.024059e+003;1.729366e-001
1.025988e+003;1.724176e-001
1.027916e+003;1.716560e-001
1.029845e+003;1.704352e-001
1.031773e+003;1.694576e-001
1.033702e+003;1.682619e-001
1.035630e+003;1.669856e-001
1.037559e+003;1.656160e-001
1.039487e+003;1.643593e-001
1.041416e+003;1.637034e-001
1.043344e+003;1.627515e-001
1.045273e+003;1.615785e-001
1.047202e+003;1.605414e-001
1.049130e+003;1.597310e-001
1.051059e+003;1.589579e-001
1.052987e+003;1.583226e-001
1.054916e+003;1.568298e-001
1.056844e+003;1.547835e-001
1.058773e+003;1.526938e-001
1.060701e+003;1.500085e-001
1.062630e+003;1.475347e-001
1.064558e+003;1.451411e-001
1.066487e+003;1.428538e-001
1.068416e+003;1.407562e-001
1.070344e+003;1.392093e-001
1.072273e+003;1.383414e-001
1.074201e+003;1.373526e-001
1.076130e+003;1.358168e-001
1.078058e+003;1.339285e-001
1.079987e+003;1.319762e-001
1.081915e+003;1.310898e-001
1.083844e+003;1.305138e-001
1.085773e+003;1.289378e-001
1.087701e+003;1.269915e-001
1.089630e+003;1.250450e-001
1.091558e+003;1.234666e-001
1.093487e+003;1.220798e-001
1.095415e+003;1.202879e-001
1.097344e+003;1.175379e-001
1.099272e+003;1.151507e-001
1.101201e+003;1.136799e-001
1.103129e+003;1.118417e-001
1.105058e+003;1.098487e-001
1.106987e+003;1.085686e-001
1.108915e+003;1.081794e-001
1.110844e+003;1.073307e-001
1.112772e+003;1.066032e-001
1.114701e+003;1.058670e-001
1.116629e+003;1.039477e-001
1.118558e+003;1.021238e-001
1.120486e+003;1.010169e-001
1.122415e+003;9.943915e-002
1.124344e+003;9.733301e-002
1.126272e+003;9.587494e-002
1.128201e+003;9.457019e-002
1.130129e+003;9.304043e-002
1.132058e+003;9.128585e-002
1.133986e+003;8.907793e-002
1.135915e+003;8.712530e-002
1.137843e+003;8.576341e-002
1.139772e+003;8.437069e-002
1.141700e+003;8.315376e-002
1.143629e+003;8.260887e-002
1.145557e+003;8.261260e-002
1.147486e+003;8.260763e-002
1.149415e+003;8.291595e-002
1.151343e+003;8.299959e-002
1.153272e+003;8.325405e-002
1.155200e+003;8.364655e-002
1.157129e+003;8.417042e-002
1.159057e+003;8.431158e-002
1.160986e+003;8.364595e-002
1.162914e+003;8.266221e-002
1.164843e+003;8.143359e-002
1.166771e+003;7.954735e-002
1.168700e+003;7.752541e-002
1.170629e+003;7.608009e-002
1.172557e+003;7.464771e-002
1.174486e+003;7.300486e-002
1.176414e+003;7.131829e-002
1.178343e+003;6.960071e-002
1.180271e+003;6.868372e-002
1.182200e+003;6.895075e-002
1.184128e+003;6.934118e-002
1.186057e+003;6.974402e-002
1.187986e+003;7.025520e-002
1.189914e+003;7.100282e-002
1.191843e+003;7.231764e-002
1.193771e+003;7.376081e-002
1.195700e+003;7.452917e-002
1.197628e+003;7.503093e-002
1.199557e+003;7.528873e-002
1.201485e+003;7.515063e-002
1.203414e+003;7.479741e-002
1.205343e+003;7.370101e-002
1.207271e+003;7.265741e-002
1.209200e+003;7.215264e-002
1.211128e+003;7.187112e-002
1.213057e+003;7.181674e-002
1.214985e+003;7.179188e-002
1.216914e+003;7.225993e-002
1.218842e+003;7.286207e-002
1.220771e+003;7.375558e-002
1.222699e+003;7.485358e-002
1.224628e+003;7.582471e-002
1.226557e+003;7.656175e-002
1.228485e+003;7.681555e-002
1.230414e+003;7.719512e-002
1.232342e+003;7.793485e-002
1.234271e+003;7.797708e-002
1.236199e+003;7.754973e-002
1.238128e+003;7.752450e-002
1.240056e+003;7.737318e-002
1.241985e+003;7.686242e-002
1.243913e+003;7.672670e-002
1.245842e+003;7.677008e-002
1.247771e+003;7.672726e-002
1.249699e+003;7.699034e-002
1.251628e+003;7.797442e-002
1.253556e+003;7.912160e-002
1.255485e+003;7.990835e-002
1.257413e+003;8.018862e-002
1.259342e+003;8.016340e-002
1.261270e+003;8.008315e-002
1.263199e+003;7.956199e-002
1.265127e+003;7.857828e-002
1.267056e+003;7.748996e-002
1.268985e+003;7.667504e-002
1.270913e+003;7.647473e-002
1.272842e+003;7.650805e-002
1.274770e+003;7.659187e-002
1.276699e+003;7.661400e-002
1.278627e+003;7.641507e-002
1.280556e+003;7.614468e-002
1.282484e+003;7.613390e-002
1.284413e+003;7.611957e-002
1.286342e+003;7.604073e-002
1.288270e+003;7.617915e-002
1.290199e+003;7.682184e-002
1.292127e+003;7.746881e-002
1.294056e+003;7.775703e-002
1.295984e+003;7.800991e-002
1.297913e+003;7.817863e-002
1.299841e+003;7.833773e-002
1.301770e+003;7.857756e-002
1.303698e+003;7.911794e-002
1.305627e+003;7.963248e-002
1.307556e+003;7.995132e-002
1.309484e+003;8.031642e-002
1.311413e+003;8.029054e-002
1.313341e+003;8.038156e-002
1.315270e+003;8.052233e-002
1.317198e+003;7.998040e-002
1.319127e+003;7.895724e-002
1.321055e+003;7.790821e-002
1.322984e+003;7.743951e-002
1.324912e+003;7.757798e-002
1.326841e+003;7.734843e-002
1.328770e+003;7.705503e-002
1.330698e+003;7.729613e-002
1.332627e+003;7.763431e-002
1.334555e+003;7.788411e-002
1.336484e+003;7.800507e-002
1.338412e+003;7.771526e-002
1.340341e+003;7.738902e-002
1.342269e+003;7.754466e-002
1.344198e+003;7.785501e-002
1.346126e+003;7.766403e-002
1.348055e+003;7.717952e-002
1.349984e+003;7.707845e-002
1.351912e+003;7.723426e-002
1.353841e+003;7.752018e-002
1.355769e+003;7.784455e-002
1.357698e+003;7.828932e-002
1.359626e+003;7.879715e-002
1.361555e+003;7.911217e-002
1.363483e+003;7.926589e-002
1.365412e+003;7.977953e-002
1.367341e+003;7.983627e-002
1.369269e+003;7.917376e-002
1.371198e+003;7.850400e-002
1.373126e+003;7.819815e-002
1.375055e+003;7.785148e-002
1.376983e+003;7.715047e-002
1.378912e+003;7.602976e-002
1.380840e+003;7.470335e-002
1.382769e+003;7.323679e-002
1.384698e+003;7.223418e-002
1.386626e+003;7.183289e-002
1.388555e+003;7.149306e-002
1.390483e+003;7.110604e-002
1.392412e+003;7.076740e-002
1.394340e+003;7.038746e-002
1.396269e+003;7.029478e-002
1.398197e+003;7.038262e-002
1.400126e+003;7.056268e-002
1.402054e+003;7.108926e-002
1.403983e+003;7.155889e-002
1.405911e+003;7.197173e-002
1.407840e+003;7.231303e-002
1.409769e+003;7.267453e-002
1.411697e+003;7.330386e-002
1.413626e+003;7.391433e-002
1.415554e+003;7.428346e-002
1.417483e+003;7.423310e-002
1.419411e+003;7.379065e-002
1.421340e+003;7.355486e-002
1.423268e+003;7.331754e-002
1.425197e+003;7.293626e-002
1.427125e+003;7.286819e-002
1.429054e+003;7.278422e-002
1.430983e+003;7.260697e-002
1.432911e+003;7.253123e-002
1.434840e+003;7.218792e-002
1.436768e+003;7.170675e-002
1.438697e+003;7.150505e-002
1.440625e+003;7.072455e-002
1.442554e+003;7.012379e-002
1.444482e+003;6.975970e-002
1.446411e+003;6.925979e-002
1.448340e+003;6.883597e-002
1.450268e+003;6.872075e-002
1.452197e+003;6.855179e-002
1.454125e+003;6.823832e-002
1.456054e+003;6.775925e-002
1.457982e+003;6.743765e-002
1.459911e+003;6.774221e-002
1.461839e+003;6.793186e-002
1.463768e+003;6.739489e-002
1.465697e+003;6.651857e-002
1.467625e+003;6.566606e-002
1.469554e+003;6.485430e-002
1.471482e+003;6.364474e-002
1.473411e+003;6.279566e-002
1.475339e+003;6.257227e-002
1.477268e+003;6.184454e-002
1.479196e+003;6.092486e-002
1.481125e+003;6.021480e-002
1.483053e+003;5.964820e-002
1.484982e+003;5.896027e-002
1.486911e+003;5.870577e-002
1.488839e+003;5.867618e-002
1.490768e+003;5.869390e-002
1.492696e+003;5.892543e-002
1.494625e+003;5.889026e-002
1.496553e+003;5.877518e-002
1.498482e+003;5.853296e-002
1.500410e+003;5.838750e-002
1.502339e+003;5.815644e-002
1.504267e+003;5.693080e-002
1.506196e+003;5.587555e-002
1.508125e+003;5.595680e-002
1.510053e+003;5.629547e-002
1.511982e+003;5.637733e-002
1.513910e+003;5.626696e-002
1.515839e+003;5.606559e-002
1.517767e+003;5.606548e-002
1.519696e+003;5.593875e-002
1.521624e+003;5.604995e-002
1.523553e+003;5.663674e-002
1.525481e+003;5.698312e-002
1.527410e+003;5.747067e-002
1.529339e+003;5.795639e-002
1.531267e+003;5.807792e-002
1.533196e+003;5.803781e-002
1.535124e+003;5.869386e-002
1.537053e+003;5.917191e-002
1.538981e+003;5.867842e-002
1.540910e+003;5.877211e-002
1.542838e+003;5.927478e-002
1.544767e+003;5.970785e-002
1.546695e+003;5.990174e-002
1.548624e+003;6.004835e-002
1.550553e+003;5.981013e-002
1.552481e+003;5.921144e-002
1.554410e+003;5.864531e-002
1.556338e+003;5.798316e-002
1.558267e+003;5.691640e-002
1.560195e+003;5.692271e-002
1.562124e+003;5.766906e-002
1.564052e+003;5.759728e-002
1.565981e+003;5.721360e-002
1.567910e+003;5.681061e-002
1.569838e+003;5.645947e-002
1.571767e+003;5.636526e-002
1.573695e+003;5.586127e-002
1.575624e+003;5.532275e-002
1.577552e+003;5.560443e-002
1.579481e+003;5.613462e-002
1.581409e+003;5.654438e-002
1.583338e+003;5.668306e-002
1.585266e+003;5.703084e-002
1.587195e+003;5.764877e-002
1.589124e+003;5.796358e-002
1.591052e+003;5.837181e-002
1.592981e+003;5.912316e-002
1.594909e+003;5.968147e-002
1.596838e+003;5.978845e-002
1.598766e+003;5.956257e-002
1.600695e+003;5.931641e-002
1.602623e+003;5.944838e-002
1.604552e+003;6.000411e-002
1.606480e+003;6.080802e-002
1.608409e+003;6.143522e-002
1.610338e+003;6.182685e-002
1.612266e+003;6.262635e-002
1.614195e+003;6.355590e-002
1.616123e+003;6.400374e-002
1.618052e+003;6.470606e-002
1.619980e+003;6.542689e-002
1.621909e+003;6.604039e-002
1.623837e+003;6.679582e-002
1.625766e+003;6.766953e-002
1.627694e+003;6.845184e-002
1.629623e+003;6.911315e-002
1.631552e+003;6.944917e-002
1.633480e+003;6.944793e-002
1.635409e+003;6.946383e-002
1.637337e+003;6.966765e-002
1.639266e+003;6.963903e-002
1.641194e+003;6.880327e-002
1.643123e+003;6.762248e-002
1.645051e+003;6.630784e-002
1.646980e+003;6.500598e-002
1.648909e+003;6.389774e-002
1.650837e+003;6.226905e-002
1.652766e+003;6.031770e-002
1.654694e+003;5.990920e-002
1.656623e+003;5.968774e-002
1.658551e+003;5.859601e-002
1.660480e+003;5.748085e-002
1.662408e+003;5.657412e-002
1.664337e+003;5.551514e-002
1.666266e+003;5.412124e-002
1.668194e+003;5.290262e-002
1.670123e+003;5.205167e-002
1.672051e+003;5.131062e-002
1.673980e+003;5.019587e-002
1.675908e+003;4.889336e-002
1.677837e+003;4.794631e-002
1.679765e+003;4.711908e-002
1.681694e+003;4.567533e-002
1.683622e+003;4.375353e-002
1.685551e+003;4.263116e-002
1.687479e+003;4.185605e-002
1.689408e+003;4.072666e-002
1.691337e+003;3.977809e-002
1.693265e+003;3.864739e-002
1.695194e+003;3.726415e-002
1.697122e+003;3.671311e-002
1.699051e+003;3.610378e-002
1.700979e+003;3.548998e-002
1.702908e+003;3.555259e-002
1.704836e+003;3.539428e-002
1.706765e+003;3.509871e-002
1.708693e+003;3.474286e-002
1.710622e+003;3.452217e-002
1.712551e+003;3.411414e-002
1.714479e+003;3.340598e-002
1.716408e+003;3.261303e-002
1.718336e+003;3.248318e-002
1.720265e+003;3.283833e-002
1.722193e+003;3.295520e-002
1.724122e+003;3.275993e-002
1.726050e+003;3.257739e-002
1.727979e+003;3.236308e-002
1.729908e+003;3.195978e-002
1.731836e+003;3.137780e-002
1.733765e+003;3.061678e-002
1.735693e+003;3.026116e-002
1.737622e+003;3.008386e-002
1.739550e+003;2.972060e-002
1.741479e+003;2.949305e-002
1.743407e+003;2.912843e-002
1.745336e+003;2.856107e-002
1.747265e+003;2.814367e-002
1.749193e+003;2.775907e-002
1.751122e+003;2.721487e-002
1.753050e+003;2.682622e-002
1.754979e+003;2.641045e-002
1.756907e+003;2.604638e-002
1.758836e+003;2.585042e-002
1.760764e+003;2.555639e-002
1.762693e+003;2.559663e-002
1.764621e+003;2.585187e-002
1.766550e+003;2.567414e-002
1.768479e+003;2.511649e-002
1.770407e+003;2.448395e-002
1.772336e+003;2.402226e-002
1.774264e+003;2.411878e-002
1.776193e+003;2.425103e-002
1.778121e+003;2.426781e-002
1.780050e+003;2.402902e-002
1.781978e+003;2.382956e-002
1.783907e+003;2.369913e-002
1.785835e+003;2.368117e-002
1.787764e+003;2.371438e-002
1.789693e+003;2.333144e-002
1.791621e+003;2.285059e-002
1.793550e+003;2.281692e-002
1.795478e+003;2.296686e-002
1.797407e+003;2.261334e-002
1.799335e+003;2.237354e-002
1.801264e+003;2.233077e-002
1.803192e+003;2.256165e-002
1.805121e+003;2.244147e-002
1.807049e+003;2.217041e-002
1.808978e+003;2.215926e-002
1.810907e+003;2.217010e-002
1.812835e+003;2.200614e-002
1.814764e+003;2.181667e-002
1.816692e+003;2.180719e-002
1.818621e+003;2.174933e-002
1.820549e+003;2.174208e-002
1.822478e+003;2.159360e-002
1.824406e+003;2.124203e-002
1.826335e+003;2.143285e-002
1.828264e+003;2.152048e-002
1.830192e+003;2.133668e-002
1.832121e+003;2.140616e-002
1.834049e+003;2.148142e-002
1.835978e+003;2.136773e-002
1.837906e+003;2.128208e-002
1.839835e+003;2.108677e-002
1.841763e+003;2.061864e-002
1.843692e+003;2.011308e-002
1.845620e+003;2.007151e-002
1.847549e+003;2.014879e-002
1.849478e+003;2.023200e-002
1.851406e+003;2.045297e-002
1.853335e+003;2.033341e-002
1.855263e+003;1.998917e-002
1.857192e+003;1.972248e-002
1.859120e+003;1.973087e-002
1.861049e+003;1.973420e-002
1.862977e+003;1.972307e-002
1.864906e+003;1.996277e-002
1.866834e+003;1.983539e-002
1.868763e+003;1.971763e-002
1.870692e+003;1.995059e-002
1.872620e+003;1.988808e-002
1.874549e+003;1.965491e-002
1.876477e+003;1.955730e-002
1.878406e+003;1.958984e-002
1.880334e+003;1.973961e-002
1.882263e+003;1.968036e-002
1.884191e+003;1.940135e-002
1.886120e+003;1.910203e-002
1.888048e+003;1.906751e-002
1.889977e+003;1.917398e-002
1.891906e+003;1.922157e-002
1.893834e+003;1.942623e-002
1.895763e+003;1.951636e-002
1.897691e+003;1.946300e-002
1.899620e+003;1.946591e-002
1.901548e+003;1.937156e-002
1.903477e+003;1.933563e-002
1.905405e+003;1.926088e-002
1.907334e+003;1.925475e-002
1.909262e+003;1.926895e-002
1.911191e+003;1.946747e-002
1.913120e+003;1.958502e-002
1.915048e+003;1.932066e-002
1.916977e+003;1.931734e-002
1.918905e+003;1.970074e-002
1.920834e+003;1.996971e-002
1.922762e+003;1.994945e-002
1.924691e+003;1.993834e-002
1.926619e+003;1.991368e-002
1.928548e+003;1.993782e-002
1.930477e+003;1.979319e-002
1.932405e+003;1.968767e-002
1.934334e+003;1.976864e-002
1.936262e+003;1.983255e-002
1.938191e+003;1.995635e-002
1.940119e+003;2.007356e-002
1.942048e+003;2.001693e-002
1.943976e+003;2.012537e-002
1.945905e+003;2.038865e-002
1.947833e+003;2.070739e-002
1.949762e+003;2.074447e-002
1.951691e+003;2.066982e-002
1.953619e+003;2.080015e-002
1.955548e+003;2.111599e-002
1.957476e+003;2.121040e-002
1.959405e+003;2.090107e-002
1.961333e+003;2.081169e-002
1.963262e+003;2.085459e-002
1.965190e+003;2.088101e-002
1.967119e+003;2.064626e-002
1.969047e+003;2.040268e-002
1.970976e+003;2.045183e-002
1.972905e+003;2.072841e-002
1.974833e+003;2.085455e-002
1.976762e+003;2.092311e-002
1.978690e+003;2.082570e-002
1.980619e+003;2.088011e-002
1.982547e+003;2.085351e-002
1.984476e+003;2.091035e-002
1.986404e+003;2.112148e-002
1.988333e+003;2.103738e-002
1.990261e+003;2.089937e-002
1.992190e+003;2.071987e-002
1.994119e+003;2.091550e-002
1.996047e+003;2.131291e-002
1.997976e+003;2.116639e-002
1.999904e+003;2.093090e-002
2.001833e+003;2.092812e-002
2.003761e+003;2.092830e-002
2.005690e+003;2.114663e-002
2.007618e+003;2.127502e-002
2.009547e+003;2.141197e-002
2.011476e+003;2.156268e-002
2.013404e+003;2.183635e-002
2.015333e+003;2.177106e-002
2.017261e+003;2.158194e-002
2.019190e+003;2.168415e-002
2.021118e+003;2.184458e-002
2.023047e+003;2.176633e-002
2.024975e+003;2.159614e-002
2.026904e+003;2.184419e-002
2.028833e+003;2.213614e-002
2.030761e+003;2.221683e-002
2.032690e+003;2.231703e-002
2.034618e+003;2.229226e-002
2.036547e+003;2.242200e-002
2.038475e+003;2.260095e-002
2.040404e+003;2.258922e-002
2.042332e+003;2.242863e-002
2.044261e+003;2.253886e-002
2.046189e+003;2.259404e-002
2.048118e+003;2.263076e-002
2.050047e+003;2.286484e-002
2.051975e+003;2.300990e-002
2.053904e+003;2.279607e-002
2.055832e+003;2.247559e-002
2.057761e+003;2.264018e-002
2.059689e+003;2.286787e-002
2.061618e+003;2.296491e-002
2.063546e+003;2.297434e-002
2.065475e+003;2.283504e-002
2.067404e+003;2.292694e-002
2.069332e+003;2.307891e-002
2.071260e+003;2.315638e-002
2.073189e+003;2.299554e-002
2.075118e+003;2.276880e-002
2.077046e+003;2.288652e-002
2.078975e+003;2.307381e-002
2.080903e+003;2.322590e-002
2.082832e+003;2.310050e-002
2.084760e+003;2.287835e-002
2.086689e+003;2.287657e-002
2.088617e+003;2.298154e-002
2.090546e+003;2.315404e-002
2.092475e+003;2.300543e-002
2.094403e+003;2.285380e-002
2.096332e+003;2.294255e-002
2.098260e+003;2.299844e-002
2.100189e+003;2.322898e-002
2.102117e+003;2.347359e-002
2.104046e+003;2.340333e-002
2.105974e+003;2.343306e-002
2.107903e+003;2.361764e-002
2.109832e+003;2.367883e-002
2.111760e+003;2.370910e-002
2.113688e+003;2.359266e-002
2.115617e+003;2.337190e-002
2.117546e+003;2.341882e-002
2.119474e+003;2.345624e-002
2.121403e+003;2.356250e-002
2.123331e+003;2.384906e-002
2.125260e+003;2.402520e-002
2.127188e+003;2.398514e-002
2.129117e+003;2.406870e-002
2.131045e+003;2.413976e-002
2.132974e+003;2.414334e-002
2.134903e+003;2.415595e-002
2.136831e+003;2.420370e-002
2.138760e+003;2.416978e-002
2.140688e+003;2.395598e-002
2.142617e+003;2.396049e-002
2.144545e+003;2.410295e-002
2.146474e+003;2.400062e-002
2.148402e+003;2.381360e-002
2.150331e+003;2.379127e-002
2.152260e+003;2.368261e-002
2.154188e+003;2.344411e-002
2.156117e+003;2.350125e-002
2.158045e+003;2.369629e-002
2.159974e+003;2.362124e-002
2.161902e+003;2.358433e-002
2.163831e+003;2.372184e-002
2.165759e+003;2.373160e-002
2.167688e+003;2.354200e-002
2.169616e+003;2.333889e-002
2.171545e+003;2.330323e-002
2.173474e+003;2.344155e-002
2.175402e+003;2.333347e-002
2.177331e+003;2.320273e-002
2.179259e+003;2.322754e-002
2.181188e+003;2.309586e-002
2.183116e+003;2.295202e-002
2.185045e+003;2.304659e-002
2.186973e+003;2.330679e-002
2.188902e+003;2.319039e-002
2.190831e+003;2.286393e-002
2.192759e+003;2.278703e-002
2.194688e+003;2.280103e-002
2.196616e+003;2.256598e-002
2.198545e+003;2.231741e-002
2.200473e+003;2.223524e-002
2.202402e+003;2.233827e-002
2.204330e+003;2.249936e-002
2.206259e+003;2.259369e-002
2.208188e+003;2.256120e-002
2.210116e+003;2.246136e-002
2.212044e+003;2.216246e-002
2.213973e+003;2.203361e-002
2.215902e+003;2.193953e-002
2.217830e+003;2.189085e-002
2.219759e+003;2.196079e-002
2.221687e+003;2.194239e-002
2.223616e+003;2.191678e-002
2.225544e+003;2.194107e-002
2.227473e+003;2.177580e-002
2.229401e+003;2.184210e-002
2.231330e+003;2.187249e-002
2.233259e+003;2.182179e-002
2.235187e+003;2.180625e-002
2.237116e+003;2.170049e-002
2.239044e+003;2.157365e-002
2.240973e+003;2.148977e-002
2.242901e+003;2.151655e-002
2.244830e+003;2.150384e-002
2.246758e+003;2.152027e-002
2.248687e+003;2.157191e-002
2.250615e+003;2.161840e-002
2.252544e+003;2.153148e-002
2.254473e+003;2.119183e-002
2.256401e+003;2.124085e-002
2.258330e+003;2.135844e-002
2.260258e+003;2.129729e-002
2.262187e+003;2.112656e-002
2.264115e+003;2.110646e-002
2.266044e+003;2.131305e-002
2.267972e+003;2.132649e-002
2.269901e+003;2.110329e-002
2.271830e+003;2.079452e-002
2.273758e+003;2.069595e-002
2.275687e+003;2.068508e-002
2.277615e+003;2.069825e-002
2.279544e+003;2.064696e-002
2.281472e+003;2.058556e-002
2.283401e+003;2.054857e-002
2.285329e+003;2.053971e-002
2.287258e+003;2.059383e-002
2.289187e+003;2.051313e-002
2.291115e+003;2.042554e-002
2.293043e+003;2.060116e-002
2.294972e+003;2.079688e-002
2.296901e+003;2.080589e-002
2.298829e+003;2.081517e-002
2.300758e+003;2.075622e-002
2.302686e+003;2.044151e-002
2.304615e+003;2.016667e-002
2.306543e+003;2.024779e-002
2.308472e+003;2.051921e-002
2.310400e+003;2.073846e-002
2.312329e+003;2.070801e-002
2.314258e+003;2.049490e-002
2.316186e+003;2.037858e-002
2.318115e+003;2.053200e-002
2.320043e+003;2.074072e-002
2.321972e+003;2.071451e-002
2.323900e+003;2.076470e-002
2.325829e+003;2.082017e-002
2.327757e+003;2.087705e-002
2.329686e+003;2.095270e-002
2.331615e+003;2.076018e-002
2.333543e+003;2.081965e-002
2.335472e+003;2.108194e-002
2.337400e+003;2.119447e-002
2.339329e+003;2.149221e-002
2.341257e+003;2.149928e-002
2.343186e+003;2.135583e-002
2.345114e+003;2.137702e-002
2.347043e+003;2.150694e-002
2.348971e+003;2.173581e-002
2.350900e+003;2.178775e-002
2.352829e+003;2.163435e-002
2.354757e+003;2.144953e-002
2.356686e+003;2.137483e-002
2.358614e+003;2.159312e-002
2.360543e+003;2.182837e-002
2.362471e+003;2.209172e-002
2.364400e+003;2.227796e-002
2.366328e+003;2.230482e-002
2.368257e+003;2.228707e-002
2.370186e+003;2.239639e-002
2.372114e+003;2.243613e-002
2.374042e+003;2.239716e-002
2.375971e+003;2.243393e-002
2.377900e+003;2.252365e-002
2.379828e+003;2.231452e-002
2.381757e+003;2.233817e-002
2.383685e+003;2.254807e-002
2.385614e+003;2.251136e-002
2.387542e+003;2.282418e-002
2.389471e+003;2.315254e-002
2.391399e+003;2.332602e-002
2.393328e+003;2.351112e-002
2.395257e+003;2.375365e-002
2.397185e+003;2.384584e-002
2.399114e+003;2.375939e-002
2.401042e+003;2.376033e-002
2.402971e+003;2.370857e-002
2.404899e+003;2.377108e-002
2.406828e+003;2.384538e-002
2.408756e+003;2.379747e-002
2.410685e+003;2.390083e-002
2.412614e+003;2.408856e-002
2.414542e+003;2.433747e-002
2.416471e+003;2.474347e-002
2.418399e+003;2.468437e-002
2.420328e+003;2.443739e-002
2.422256e+003;2.442103e-002
2.424185e+003;2.457766e-002
2.426113e+003;2.474740e-002
2.428042e+003;2.498430e-002
2.429970e+003;2.506243e-002
2.431899e+003;2.494619e-002
2.433828e+003;2.516308e-002
2.435756e+003;2.547990e-002
2.437685e+003;2.549694e-002
2.439613e+003;2.562809e-002
2.441542e+003;2.576814e-002
2.443470e+003;2.570845e-002
2.445399e+003;2.582310e-002
2.447327e+003;2.601887e-002
2.449256e+003;2.616161e-002
2.451185e+003;2.608353e-002
2.453113e+003;2.603210e-002
2.455042e+003;2.623845e-002
2.456970e+003;2.640348e-002
2.458899e+003;2.638943e-002
2.460827e+003;2.634975e-002
2.462756e+003;2.637908e-002
2.464684e+003;2.647395e-002
2.466613e+003;2.689182e-002
2.468542e+003;2.733835e-002
2.470470e+003;2.732540e-002
2.472398e+003;2.705590e-002
2.474327e+003;2.702470e-002
2.476256e+003;2.725671e-002
2.478184e+003;2.736496e-002
2.480113e+003;2.762784e-002
2.482041e+003;2.763617e-002
2.483970e+003;2.754158e-002
2.485898e+003;2.787268e-002
2.487827e+003;2.782184e-002
2.489755e+003;2.764549e-002
2.491684e+003;2.780693e-002
2.493613e+003;2.789388e-002
2.495541e+003;2.807128e-002
2.497470e+003;2.838187e-002
2.499398e+003;2.845117e-002
2.501327e+003;2.798342e-002
2.503255e+003;2.773138e-002
2.505184e+003;2.827764e-002
2.507112e+003;2.880123e-002
2.509041e+003;2.882456e-002
2.510969e+003;2.850898e-002
2.512898e+003;2.854819e-002
2.514827e+003;2.878703e-002
2.516755e+003;2.882474e-002
2.518684e+003;2.894210e-002
2.520612e+003;2.923028e-002
2.522541e+003;2.945134e-002
2.524469e+003;2.947269e-002
2.526398e+003;2.920327e-002
2.528326e+003;2.916146e-002
2.530255e+003;2.941160e-002
2.532184e+003;2.950549e-002
2.534112e+003;2.958217e-002
2.536041e+003;2.975452e-002
2.537969e+003;2.983493e-002
2.539898e+003;2.981083e-002
2.541826e+003;2.984639e-002
2.543755e+003;2.978869e-002
2.545683e+003;2.987078e-002
2.547612e+003;3.009217e-002
2.549541e+003;2.991579e-002
2.551469e+003;3.007743e-002
2.553397e+003;3.038676e-002
2.555326e+003;3.040940e-002
2.557255e+003;3.015482e-002
2.559183e+003;3.007345e-002
2.561112e+003;3.027985e-002
2.563040e+003;3.035546e-002
2.564969e+003;3.045045e-002
2.566897e+003;3.066225e-002
2.568826e+003;3.081500e-002
2.570754e+003;3.082656e-002
2.572683e+003;3.077996e-002
2.574612e+003;3.095460e-002
2.576540e+003;3.122140e-002
2.578469e+003;3.128304e-002
2.580397e+003;3.118933e-002
2.582326e+003;3.105520e-002
2.584254e+003;3.112422e-002
2.586183e+003;3.116451e-002
2.588111e+003;3.110613e-002
2.590040e+003;3.110382e-002
2.591969e+003;3.125861e-002
2.593897e+003;3.146928e-002
2.595826e+003;3.159295e-002
2.597754e+003;3.171505e-002
2.599683e+003;3.196495e-002
2.601611e+003;3.234587e-002
2.603540e+003;3.243444e-002
2.605468e+003;3.197490e-002
2.607397e+003;3.169669e-002
2.609325e+003;3.200885e-002
2.611254e+003;3.232942e-002
2.613183e+003;3.266000e-002
2.615111e+003;3.265968e-002
2.617040e+003;3.238950e-002
2.618968e+003;3.243448e-002
2.620897e+003;3.282014e-002
2.622825e+003;3.314574e-002
2.624754e+003;3.326191e-002
2.626682e+003;3.329786e-002
2.628611e+003;3.344961e-002
2.630540e+003;3.357813e-002
2.632468e+003;3.365718e-002
2.634396e+003;3.372718e-002
2.636325e+003;3.393221e-002
2.638254e+003;3.415414e-002
2.640182e+003;3.439451e-002
2.642111e+003;3.448260e-002
2.644039e+003;3.438002e-002
2.645968e+003;3.437848e-002
2.647896e+003;3.473098e-002
2.649825e+003;3.496086e-002
2.651753e+003;3.509178e-002
2.653682e+003;3.509756e-002
2.655611e+003;3.504261e-002
2.657539e+003;3.537307e-002
2.659468e+003;3.587380e-002
2.661396e+003;3.600510e-002
2.663325e+003;3.581183e-002
2.665253e+003;3.579809e-002
2.667182e+003;3.608067e-002
2.669110e+003;3.664738e-002
2.671039e+003;3.662150e-002
2.672968e+003;3.640097e-002
2.674896e+003;3.661963e-002
2.676825e+003;3.710187e-002
2.678753e+003;3.741885e-002
2.680682e+003;3.746067e-002
2.682610e+003;3.755296e-002
2.684539e+003;3.764734e-002
2.686467e+003;3.766103e-002
2.688396e+003;3.777448e-002
2.690324e+003;3.810634e-002
2.692253e+003;3.835532e-002
2.694182e+003;3.830559e-002
2.696110e+003;3.839184e-002
2.698039e+003;3.855410e-002
2.699967e+003;3.857920e-002
2.701896e+003;3.871523e-002
2.703824e+003;3.889617e-002
2.705753e+003;3.882732e-002
2.707681e+003;3.869763e-002
2.709610e+003;3.878446e-002
2.711539e+003;3.938621e-002
2.713467e+003;3.977791e-002
2.715396e+003;3.939901e-002
2.717324e+003;3.918835e-002
2.719253e+003;3.957922e-002
2.721181e+003;3.984705e-002
2.723110e+003;3.989307e-002
2.725038e+003;4.009158e-002
2.726967e+003;4.028454e-002
2.728896e+003;4.052320e-002
2.730824e+003;4.083159e-002
2.732752e+003;4.103573e-002
2.734681e+003;4.093858e-002
2.736610e+003;4.084651e-002
2.738538e+003;4.086235e-002
2.740467e+003;4.073674e-002
2.742395e+003;4.073707e-002
2.744324e+003;4.094015e-002
2.746252e+003;4.099094e-002
2.748181e+003;4.100391e-002
2.750109e+003;4.110894e-002
2.752038e+003;4.131806e-002
2.753967e+003;4.150089e-002
2.755895e+003;4.136212e-002
2.757824e+003;4.148536e-002
2.759752e+003;4.161348e-002
2.761681e+003;4.152244e-002
2.763609e+003;4.173719e-002
2.765538e+003;4.199234e-002
2.767466e+003;4.187637e-002
2.769395e+003;4.200238e-002
2.771323e+003;4.239788e-002
2.773252e+003;4.263876e-002
2.775181e+003;4.270694e-002
2.777109e+003;4.298608e-002
2.779038e+003;4.335043e-002
2.780966e+003;4.346493e-002
2.782895e+003;4.327267e-002
2.784823e+003;4.331814e-002
2.786752e+003;4.376585e-002
2.788680e+003;4.403866e-002
2.790609e+003;4.409096e-002
2.792538e+003;4.425687e-002
2.794466e+003;4.471204e-002
2.796395e+003;4.501482e-002
2.798323e+003;4.487209e-002
2.800252e+003;4.501430e-002
2.802180e+003;4.528676e-002
2.804109e+003;4.552061e-002
2.806037e+003;4.583338e-002
2.807966e+003;4.656631e-002
2.809895e+003;4.726306e-002
2.811823e+003;4.713887e-002
2.813751e+003;4.689171e-002
2.815680e+003;4.716014e-002
2.817609e+003;4.807069e-002
2.819537e+003;4.878287e-002
2.821466e+003;4.869131e-002
2.823394e+003;4.840530e-002
2.825323e+003;4.846134e-002
2.827251e+003;4.899880e-002
2.829180e+003;4.957703e-002
2.831108e+003;4.975865e-002
2.833037e+003;4.985965e-002
2.834966e+003;4.997466e-002
2.836894e+003;5.072460e-002
2.838823e+003;5.204393e-002
2.840751e+003;5.320591e-002
2.842680e+003;5.375262e-002
2.844608e+003;5.412999e-002
2.846537e+003;5.461739e-002
2.848465e+003;5.520933e-002
2.850394e+003;5.627593e-002
2.852323e+003;5.725272e-002
2.854251e+003;5.789627e-002
2.856180e+003;5.864694e-002
2.858108e+003;5.958048e-002
2.860037e+003;6.045755e-002
2.861965e+003;6.111857e-002
2.863894e+003;6.157303e-002
2.865822e+003;6.215526e-002
2.867751e+003;6.254736e-002
2.869679e+003;6.241781e-002
2.871608e+003;6.240675e-002
2.873536e+003;6.271733e-002
2.875465e+003;6.262619e-002
2.877394e+003;6.218030e-002
2.879322e+003;6.225188e-002
2.881251e+003;6.264739e-002
2.883179e+003;6.263607e-002
2.885108e+003;6.276055e-002
2.887036e+003;6.284855e-002
2.888965e+003;6.267434e-002
2.890893e+003;6.280692e-002
2.892822e+003;6.331152e-002
2.894750e+003;6.334887e-002
2.896679e+003;6.316676e-002
2.898608e+003;6.314285e-002
2.900536e+003;6.332403e-002
2.902465e+003;6.349357e-002
2.904393e+003;6.335799e-002
2.906322e+003;6.323142e-002
2.908250e+003;6.306051e-002
2.910179e+003;6.284770e-002
2.912107e+003;6.282748e-002
2.914036e+003;6.274333e-002
2.915965e+003;6.249512e-002
2.917893e+003;6.242614e-002
2.919822e+003;6.266091e-002
2.921750e+003;6.248885e-002
2.923679e+003;6.165207e-002
2.925607e+003;6.147156e-002
2.927536e+003;6.173602e-002
2.929464e+003;6.172571e-002
2.931393e+003;6.169889e-002
2.933322e+003;6.128799e-002
2.935250e+003;6.060199e-002
2.937178e+003;5.959610e-002
2.939107e+003;5.865923e-002
2.941036e+003;5.769687e-002
2.942964e+003;5.718774e-002
2.944893e+003;5.677425e-002
2.946821e+003;5.605413e-002
2.948750e+003;5.498848e-002
2.950678e+003;5.386753e-002
2.952607e+003;5.311971e-002
2.954535e+003;5.239743e-002
2.956464e+003;5.159780e-002
2.958393e+003;5.102370e-002
2.960321e+003;5.028949e-002
2.962250e+003;4.976047e-002
2.964178e+003;4.940934e-002
2.966107e+003;4.894973e-002
2.968035e+003;4.841433e-002
2.969964e+003;4.777066e-002
2.971892e+003;4.771382e-002
2.973821e+003;4.766952e-002
2.975750e+003;4.711479e-002
2.977678e+003;4.627310e-002
2.979607e+003;4.580624e-002
2.981535e+003;4.561695e-002
2.983464e+003;4.547951e-002
2.985392e+003;4.543080e-002
2.987321e+003;4.528515e-002
2.989249e+003;4.437561e-002
2.991178e+003;4.363211e-002
2.993106e+003;4.379491e-002
2.995035e+003;4.406320e-002
2.996964e+003;4.375295e-002
2.998892e+003;4.340437e-002
3.000821e+003;4.336739e-002
3.002749e+003;4.318238e-002
3.004678e+003;4.308822e-002
3.006606e+003;4.333557e-002
3.008535e+003;4.379037e-002
3.010463e+003;4.414634e-002
3.012392e+003;4.392152e-002
3.014321e+003;4.360643e-002
3.016249e+003;4.397450e-002
3.018177e+003;4.449042e-002
3.020106e+003;4.446601e-002
3.022035e+003;4.423941e-002
3.023963e+003;4.427580e-002
3.025892e+003;4.455631e-002
3.027820e+003;4.467870e-002
3.029749e+003;4.502470e-002
3.031677e+003;4.540373e-002
3.033606e+003;4.525698e-002
3.035534e+003;4.530717e-002
3.037463e+003;4.550041e-002
3.039392e+003;4.555991e-002
3.041320e+003;4.628048e-002
3.043249e+003;4.692789e-002
3.045177e+003;4.670085e-002
3.047106e+003;4.649948e-002
3.049034e+003;4.683266e-002
3.050963e+003;4.719871e-002
3.052891e+003;4.743129e-002
3.054820e+003;4.774144e-002
3.056749e+003;4.818456e-002
3.058677e+003;4.847672e-002
3.060606e+003;4.866473e-002
3.062534e+003;4.885343e-002
3.064463e+003;4.891168e-002
3.066391e+003;4.917955e-002
3.068320e+003;4.962914e-002
3.070248e+003;5.003860e-002
3.072177e+003;5.030415e-002
3.074105e+003;5.064037e-002
3.076034e+003;5.102846e-002
3.077963e+003;5.091154e-002
3.079891e+003;5.050238e-002
3.081820e+003;5.045392e-002
3.083748e+003;5.103376e-002
3.085677e+003;5.178867e-002
3.087605e+003;5.167912e-002
3.089534e+003;5.151501e-002
3.091462e+003;5.215145e-002
3.093391e+003;5.245276e-002
3.095320e+003;5.225297e-002
3.097248e+003;5.225488e-002
3.099177e+003;5.230268e-002
3.101105e+003;5.253940e-002
3.103034e+003;5.268032e-002
3.104962e+003;5.242842e-002
3.106891e+003;5.264217e-002
3.108819e+003;5.307728e-002
3.110748e+003;5.323723e-002
3.112677e+003;5.322887e-002
3.114605e+003;5.341810e-002
3.116533e+003;5.370199e-002
3.118462e+003;5.408593e-002
3.120391e+003;5.421155e-002
3.122319e+003;5.410660e-002
3.124248e+003;5.424744e-002
3.126176e+003;5.470822e-002
3.128105e+003;5.483865e-002
3.130033e+003;5.472768e-002
3.131962e+003;5.511422e-002
3.133890e+003;5.527205e-002
3.135819e+003;5.522073e-002
3.137748e+003;5.565783e-002
3.139676e+003;5.610250e-002
3.141605e+003;5.607012e-002
3.143533e+003;5.588606e-002
3.145462e+003;5.588331e-002
3.147390e+003;5.624930e-002
3.149319e+003;5.681915e-002
3.151247e+003;5.758540e-002
3.153176e+003;5.802323e-002
3.155104e+003;5.827589e-002
3.157033e+003;5.877431e-002
3.158962e+003;5.875804e-002
3.160890e+003;5.845198e-002
3.162819e+003;5.842230e-002
3.164747e+003;5.832395e-002
3.166676e+003;5.865817e-002
3.168604e+003;5.911458e-002
3.170533e+003;5.887694e-002
3.172461e+003;5.883069e-002
3.174390e+003;5.886059e-002
3.176319e+003;5.943095e-002
3.178247e+003;6.022855e-002
3.180176e+003;6.051609e-002
3.182104e+003;6.083627e-002
3.184033e+003;6.101762e-002
3.185961e+003;6.103059e-002
3.187890e+003;6.117601e-002
3.189818e+003;6.148866e-002
3.191747e+003;6.184202e-002
3.193676e+003;6.207296e-002
3.195604e+003;6.226427e-002
3.197532e+003;6.260955e-002
3.199461e+003;6.262757e-002
3.201390e+003;6.282131e-002
3.203318e+003;6.335623e-002
3.205247e+003;6.376226e-002
3.207175e+003;6.385790e-002
3.209104e+003;6.381661e-002
3.211032e+003;6.360553e-002
3.212961e+003;6.366626e-002
3.214889e+003;6.424432e-002
3.216818e+003;6.467383e-002
3.218747e+003;6.503757e-002
3.220675e+003;6.527283e-002
3.222604e+003;6.534050e-002
3.224532e+003;6.576131e-002
3.226461e+003;6.608278e-002
3.228389e+003;6.588249e-002
3.230318e+003;6.594897e-002
3.232246e+003;6.621721e-002
3.234175e+003;6.637285e-002
3.236104e+003;6.646702e-002
3.238032e+003;6.694493e-002
3.239961e+003;6.746516e-002
3.241889e+003;6.760088e-002
3.243818e+003;6.817067e-002
3.245746e+003;6.883142e-002
3.247675e+003;6.913937e-002
3.249603e+003;6.929990e-002
3.251532e+003;6.960861e-002
3.253460e+003;6.987313e-002
3.255389e+003;7.011788e-002
3.257318e+003;7.055230e-002
3.259246e+003;7.049084e-002
3.261175e+003;7.057834e-002
3.263103e+003;7.084482e-002
3.265032e+003;7.095198e-002
3.266960e+003;7.084361e-002
3.268889e+003;7.064341e-002
3.270817e+003;7.124680e-002
3.272746e+003;7.256569e-002
3.274675e+003;7.327452e-002
3.276603e+003;7.280213e-002
3.278531e+003;7.240541e-002
3.280460e+003;7.268813e-002
3.282389e+003;7.328530e-002
3.284317e+003;7.363148e-002
3.286246e+003;7.361935e-002
3.288174e+003;7.360867e-002
3.290103e+003;7.366230e-002
3.292031e+003;7.384567e-002
3.293960e+003;7.414883e-002
3.295888e+003;7.448696e-002
3.297817e+003;7.458039e-002
3.299746e+003;7.461528e-002
3.301674e+003;7.455612e-002
3.303603e+003;7.417925e-002
3.305531e+003;7.404555e-002
3.307460e+003;7.391617e-002
3.309388e+003;7.349760e-002
3.311317e+003;7.337847e-002
3.313245e+003;7.405164e-002
3.315174e+003;7.439827e-002
3.317103e+003;7.351388e-002
3.319031e+003;7.293795e-002
3.320960e+003;7.322948e-002
3.322888e+003;7.323506e-002
3.324817e+003;7.263971e-002
3.326745e+003;7.225265e-002
3.328674e+003;7.230043e-002
3.330602e+003;7.228947e-002
3.332531e+003;7.180838e-002
3.334459e+003;7.140478e-002
3.336388e+003;7.160140e-002
3.338317e+003;7.157631e-002
3.340245e+003;7.122626e-002
3.342174e+003;7.110448e-002
3.344102e+003;7.100274e-002
3.346031e+003;7.051594e-002
3.347959e+003;7.026696e-002
3.349888e+003;7.016947e-002
3.351816e+003;6.969916e-002
3.353745e+003;6.971912e-002
3.355674e+003;6.988516e-002
3.357602e+003;6.978242e-002
3.359531e+003;6.952970e-002
3.361459e+003;6.926212e-002
3.363388e+003;6.890547e-002
3.365316e+003;6.877164e-002
3.367245e+003;6.878130e-002
3.369173e+003;6.888605e-002
3.371102e+003;6.845208e-002
3.373031e+003;6.772405e-002
3.374959e+003;6.765853e-002
3.376887e+003;6.808202e-002
3.378816e+003;6.813818e-002
3.380745e+003;6.796580e-002
3.382673e+003;6.762000e-002
3.384602e+003;6.723267e-002
3.386530e+003;6.683524e-002
3.388459e+003;6.678241e-002
3.390387e+003;6.702816e-002
3.392316e+003;6.673654e-002
3.394244e+003;6.635968e-002
3.396173e+003;6.615713e-002
3.398102e+003;6.635238e-002
3.400030e+003;6.629568e-002
3.401959e+003;6.578729e-002
3.403887e+003;6.586170e-002
3.405816e+003;6.580047e-002
3.407744e+003;6.496846e-002
3.409673e+003;6.431374e-002
3.411601e+003;6.427462e-002
3.413530e+003;6.481495e-002
3.415458e+003;6.540255e-002
3.417387e+003;6.508334e-002
3.419316e+003;6.470233e-002
3.421244e+003;6.457682e-002
3.423173e+003;6.428999e-002
3.425101e+003;6.428903e-002
3.427030e+003;6.393245e-002
3.428958e+003;6.392742e-002
3.430887e+003;6.426318e-002
3.432815e+003;6.388105e-002
3.434744e+003;6.329914e-002
3.436673e+003;6.296275e-002
3.438601e+003;6.272246e-002
3.440530e+003;6.241367e-002
3.442458e+003;6.230393e-002
3.444387e+003;6.240843e-002
3.446315e+003;6.227280e-002
3.448244e+003;6.205560e-002
3.450172e+003;6.182464e-002
3.452101e+003;6.150213e-002
3.454030e+003;6.069469e-002
3.455958e+003;5.985957e-002
3.457886e+003;5.957614e-002
3.459815e+003;5.957937e-002
3.461744e+003;5.931143e-002
3.463672e+003;5.889007e-002
3.465601e+003;5.877674e-002
3.467529e+003;5.903615e-002
3.469458e+003;5.853402e-002
3.471386e+003;5.768681e-002
3.473315e+003;5.725915e-002
3.475243e+003;5.700027e-002
3.477172e+003;5.639631e-002
3.479101e+003;5.593701e-002
3.481029e+003;5.549323e-002
3.482958e+003;5.518739e-002
3.484886e+003;5.546364e-002
3.486815e+003;5.563614e-002
3.488743e+003;5.472032e-002
3.490672e+003;5.427350e-002
3.492600e+003;5.429659e-002
3.494529e+003;5.351651e-002
3.496458e+003;5.238315e-002
3.498386e+003;5.183328e-002
3.500315e+003;5.165740e-002
3.502243e+003;5.133127e-002
3.504172e+003;5.099791e-002
3.506100e+003;5.039386e-002
3.508029e+003;4.960481e-002
3.509957e+003;4.906768e-002
3.511886e+003;4.884238e-002
3.513814e+003;4.850098e-002
3.515743e+003;4.790742e-002
3.517672e+003;4.771892e-002
3.519600e+003;4.757445e-002
3.521529e+003;4.701623e-002
3.523457e+003;4.660574e-002
3.525386e+003;4.630178e-002
3.527314e+003;4.605447e-002
3.529243e+003;4.564783e-002
3.531171e+003;4.501371e-002
3.533100e+003;4.489172e-002
3.535029e+003;4.479318e-002
3.536957e+003;4.417447e-002
3.538885e+003;4.350445e-002
3.540814e+003;4.333601e-002
3.542743e+003;4.303791e-002
3.544671e+003;4.283367e-002
3.546600e+003;4.280372e-002
3.548528e+003;4.254012e-002
3.550457e+003;4.206849e-002
3.552385e+003;4.181785e-002
3.554314e+003;4.139835e-002
3.556242e+003;4.069657e-002
3.558171e+003;4.022634e-002
3.560100e+003;3.967309e-002
3.562028e+003;3.928928e-002
3.563957e+003;3.910666e-002
3.565885e+003;3.858017e-002
3.567814e+003;3.828080e-002
3.569742e+003;3.840248e-002
3.571671e+003;3.830422e-002
3.573599e+003;3.783774e-002
3.575528e+003;3.697933e-002
3.577457e+003;3.694044e-002
3.579385e+003;3.709808e-002
3.581314e+003;3.676435e-002
3.583242e+003;3.613968e-002
3.585171e+003;3.533407e-002
3.587099e+003;3.518932e-002
3.589028e+003;3.532225e-002
3.590956e+003;3.510683e-002
3.592885e+003;3.480744e-002
3.594813e+003;3.460979e-002
3.596742e+003;3.418507e-002
3.598671e+003;3.391412e-002
3.600599e+003;3.312946e-002
3.602528e+003;3.266540e-002
3.604456e+003;3.249936e-002
3.606385e+003;3.197376e-002
3.608313e+003;3.152511e-002
3.610242e+003;3.091888e-002
3.612170e+003;3.074319e-002
3.614099e+003;3.049193e-002
3.616028e+003;2.976204e-002
3.617956e+003;2.935377e-002
3.619885e+003;2.944152e-002
3.621813e+003;2.910182e-002
3.623742e+003;2.830555e-002
3.625670e+003;2.738497e-002
3.627599e+003;2.665264e-002
3.629527e+003;2.645257e-002
3.631456e+003;2.622764e-002
3.633385e+003;2.571101e-002
3.635313e+003;2.557386e-002
3.637241e+003;2.528953e-002
3.639170e+003;2.435766e-002
3.641099e+003;2.351182e-002
3.643027e+003;2.324167e-002
3.644956e+003;2.307828e-002
3.646884e+003;2.215542e-002
3.648813e+003;2.106694e-002
3.650741e+003;2.117179e-002
3.652670e+003;2.141618e-002
3.654598e+003;2.080029e-002
3.656527e+003;2.006589e-002
3.658456e+003;1.982260e-002
3.660384e+003;1.942557e-002
3.662313e+003;1.868906e-002
3.664241e+003;1.836306e-002
3.666170e+003;1.792054e-002
3.668098e+003;1.699878e-002
3.670027e+003;1.648967e-002
3.671955e+003;1.652508e-002
3.673884e+003;1.606346e-002
3.675813e+003;1.552076e-002
3.677741e+003;1.530190e-002
3.679669e+003;1.526782e-002
3.681598e+003;1.521675e-002
3.683527e+003;1.476464e-002
3.685455e+003;1.448004e-002
3.687384e+003;1.398503e-002
3.689312e+003;1.330691e-002
3.691241e+003;1.288145e-002
3.693169e+003;1.293146e-002
3.695098e+003;1.306522e-002
3.697026e+003;1.338970e-002
3.698955e+003;1.398298e-002
3.700884e+003;1.376824e-002
3.702812e+003;1.296372e-002
3.704741e+003;1.279671e-002
3.706669e+003;1.277457e-002
3.708598e+003;1.263523e-002
3.710526e+003;1.219898e-002
3.712455e+003;1.207407e-002
3.714383e+003;1.231197e-002
3.716312e+003;1.198489e-002
3.718240e+003;1.179048e-002
3.720169e+003;1.196422e-002
3.722098e+003;1.141944e-002
3.724026e+003;1.099702e-002
3.725955e+003;1.119233e-002
3.727883e+003;1.119491e-002
3.729812e+003;1.089569e-002
3.731740e+003;1.092501e-002
3.733669e+003;1.098135e-002
3.735597e+003;1.086610e-002
3.737526e+003;1.060003e-002
3.739455e+003;1.060488e-002
3.741383e+003;1.090524e-002
3.743312e+003;1.065093e-002
3.745240e+003;1.066319e-002
3.747169e+003;1.077295e-002
3.749097e+003;1.035116e-002
3.751026e+003;1.031261e-002
3.752954e+003;1.020598e-002
3.754883e+003;9.722763e-003
3.756812e+003;1.004088e-002
3.758740e+003;1.058502e-002
3.760668e+003;1.056940e-002
3.762597e+003;1.082475e-002
3.764526e+003;1.114065e-002
3.766454e+003;1.101622e-002
3.768383e+003;1.062974e-002
3.770311e+003;1.096398e-002
3.772240e+003;1.084554e-002
3.774168e+003;1.021647e-002
3.776097e+003;1.019302e-002
3.778025e+003;1.027081e-002
3.779954e+003;1.016039e-002
3.781883e+003;1.033728e-002
3.783811e+003;1.051363e-002
3.785740e+003;1.053145e-002
3.787668e+003;1.018577e-002
3.789597e+003;1.043678e-002
3.791525e+003;1.075902e-002
3.793454e+003;1.066397e-002
3.795382e+003;1.035051e-002
3.797311e+003;1.052378e-002
3.799240e+003;1.051695e-002
3.801168e+003;1.023438e-002
3.803097e+003;1.024147e-002
3.805025e+003;9.903776e-003
3.806954e+003;9.690099e-003
3.808882e+003;1.010715e-002
3.810811e+003;1.027163e-002
3.812739e+003;1.044004e-002
3.814668e+003;1.019981e-002
3.816596e+003;1.018916e-002
3.818525e+003;1.080386e-002
3.820454e+003;1.049801e-002
3.822382e+003;1.028259e-002
3.824311e+003;1.029809e-002
3.826239e+003;1.023818e-002
3.828168e+003;1.076915e-002
3.830096e+003;1.107746e-002
3.832025e+003;1.073420e-002
3.833953e+003;1.071338e-002
3.835882e+003;1.059324e-002
3.837811e+003;1.026199e-002
3.839739e+003;9.907945e-003
3.841667e+003;1.001331e-002
3.843596e+003;1.048450e-002
3.845525e+003;1.039734e-002
3.847453e+003;1.015463e-002
3.849382e+003;1.029263e-002
3.851310e+003;1.017603e-002
3.853239e+003;9.990530e-003
3.855167e+003;1.064546e-002
3.857096e+003;1.108395e-002
3.859024e+003;1.073304e-002
3.860953e+003;1.077173e-002
3.862882e+003;1.131920e-002
3.864810e+003;1.139096e-002
3.866739e+003;1.147434e-002
3.868667e+003;1.124190e-002
3.870596e+003;1.043539e-002
3.872524e+003;1.073708e-002
3.874453e+003;1.141906e-002
3.876381e+003;1.126418e-002
3.878310e+003;1.112502e-002
3.880239e+003;1.150493e-002
3.882167e+003;1.220740e-002
3.884096e+003;1.201126e-002
3.886024e+003;1.169176e-002
3.887953e+003;1.230914e-002
3.889881e+003;1.258301e-002
3.891810e+003;1.226064e-002
3.893738e+003;1.230481e-002
3.895667e+003;1.264406e-002
3.897595e+003;1.229486e-002
3.899524e+003;1.209083e-002
3.901453e+003;1.232935e-002
3.903381e+003;1.284572e-002
3.905310e+003;1.335785e-002
3.907238e+003;1.354937e-002
3.909167e+003;1.322208e-002
3.911095e+003;1.318666e-002
3.913024e+003;1.318888e-002
3.914952e+003;1.285824e-002
3.916881e+003;1.282128e-002
3.918810e+003;1.289374e-002
3.920738e+003;1.315825e-002
3.922667e+003;1.376869e-002
3.924595e+003;1.370973e-002
3.926524e+003;1.333602e-002
3.928452e+003;1.347633e-002
3.930381e+003;1.321863e-002
3.932309e+003;1.327780e-002
3.934238e+003;1.361768e-002
3.936167e+003;1.381305e-002
3.938095e+003;1.387363e-002
3.940023e+003;1.368035e-002
3.941952e+003;1.403684e-002
3.943881e+003;1.463632e-002
3.945809e+003;1.447596e-002
3.947738e+003;1.425058e-002
3.949666e+003;1.434091e-002
3.951595e+003;1.418430e-002
3.953523e+003;1.395601e-002
3.955452e+003;1.367352e-002
3.957380e+003;1.363238e-002
3.959309e+003;1.432142e-002
3.961238e+003;1.466788e-002
3.963166e+003;1.457330e-002
3.965095e+003;1.482268e-002
3.967023e+003;1.513746e-002
3.968952e+003;1.520457e-002
3.970880e+003;1.516954e-002
3.972809e+003;1.440009e-002
3.974737e+003;1.370121e-002
3.976666e+003;1.425421e-002
3.978594e+003;1.484442e-002
3.980523e+003;1.493981e-002
3.982452e+003;1.418012e-002
3.984380e+003;1.412196e-002
3.986309e+003;1.474904e-002
3.988237e+003;1.484624e-002
3.990166e+003;1.492424e-002
3.992094e+003;1.506209e-002
3.994023e+003;1.493885e-002
3.995951e+003;1.433317e-002
3.997880e+003;1.424161e-002
3.999809e+003;1.463700e-002
4.001737e+003;0.000000e+000
