3.992094e+002;0.000000e+000
4.011380e+002;0.000000e+000
4.030665e+002;0.000000e+000
4.049951e+002;0.000000e+000
4.069236e+002;0.000000e+000
4.088522e+002;0.000000e+000
4.107807e+002;0.000000e+000
4.127093e+002;0.000000e+000
4.146378e+002;0.000000e+000
4.165664e+002;0.000000e+000
4.184949e+002;0.000000e+000
4.204235e+002;0.000000e+000
4.223520e+002;0.000000e+000
4.242806e+002;0.000000e+000
4.262091e+002;0.000000e+000
4.281377e+002;0.000000e+000
4.300662e+002;0.000000e+000
4.319948e+002;0.000000e+000
4.339233e+002;0.000000e+000
4.358519e+002;0.000000e+000
4.377804e+002;0.000000e+000
4.397090e+002;0.000000e+000
4.416375e+002;0.000000e+000
4.435660e+002;0.000000e+000
4.454946e+002;0.000000e+000
4.474232e+002;0.000000e+000
4.493517e+002;0.000000e+000
4.512802e+002;0.000000e+000
4.532088e+002;0.000000e+000
4.551373e+002;0.000000e+000
4.570659e+002;0.000000e+000
4.589944e+002;0.000000e+000
4.609230e+002;0.000000e+000
4.628515e+002;0.000000e+000
4.647801e+002;0.000000e+000
4.667086e+002;0.000000e+000
4.686372e+002;0.000000e+000
4.705657e+002;0.000000e+000
4.724943e+002;0.000000e+000
4.744228e+002;0.000000e+000
4.763513e+002;0.000000e+000
4.782799e+002;0.000000e+000
4.802085e+002;0.000000e+000
4.821370e+002;0.000000e+000
4.840656e+002;0.000000e+000
4.859941e+002;0.000000e+000
4.879226e+002;0.000000e+000
4.898512e+002;0.000000e+000
4.917798e+002;0.000000e+000
4.937083e+002;0.000000e+000
4.956368e+002;0.000000e+000
4.975654e+002;0.000000e+000
4.994939e+002;0.000000e+000
5.014225e+002;0.000000e+000
5.033510e+002;0.000000e+000
5.052796e+002;0.000000e+000
5.072081e+002;0.000000e+000
5.091367e+002;0.000000e+000
5.110652e+002;0.000000e+000
5.129938e+002;0.000000e+000
5.149223e+002;0.000000e+000
5.168509e+002;0.000000e+000
5.187794e+002;0.000000e+000
5.207079e+002;0.000000e+000
5.226365e+002;0.000000e+000
5.245651e+002;0.000000e+000
5.264936e+002;0.000000e+000
5.284222e+002;0.000000e+000
5.303507e+002;0.000000e+000
5.322792e+002;0.000000e+000
5.342078e+002;0.000000e+000
5.361364e+002;0.000000e+000
5.380649e+002;0.000000e+000
5.399935e+002;0.000000e+000
5.419220e+002;0.000000e+000
5.438505e+002;0.000000e+000
5.457791e+002;0.000000e+000
5.477076e+002;0.000000e+000
5.496362e+002;0.000000e+000
5.515648e+002;0.000000e+000
5.534933e+002;0.000000e+000
5.554218e+002;0.000000e+000
5.573504e+002;0.000000e+000
5.592789e+002;0.000000e+000
5.612075e+002;0.000000e+000
5.631360e+002;0.000000e+000
5.650646e+002;0.000000e+000
5.669931e+002;0.000000e+000
5.689217e+002;0.000000e+000
5.708502e+002;0.000000e+000
5.727787e+002;0.000000e+000
5.747073e+002;0.000000e+000
5.766359e+002;0.000000e+000
5.785644e+002;0.000000e+000
5.804930e+002;0.000000e+000
5.824215e+002;0.000000e+000
5.843500e+002;0.000000e+000
5.862786e+002;0.000000e+000
5.882072e+002;0.000000e+000
5.901357e+002;0.000000e+000
5.920643e+002;0.000000e+000
5.939928e+002;0.000000e+000
5.959213e+002;0.000000e+000
5.978499e+002;0.000000e+000
5.997784e+002;1.539449e-001
6.017070e+002;1.423706e-001
6.036355e+002;1.385319e-001
6.055641e+002;1.388369e-001
6.074926e+002;1.367758e-001
6.094211e+002;1.291124e-001
6.113497e+002;1.282708e-001
6.132783e+002;1.329870e-001
6.152068e+002;1.395724e-001
6.171354e+002;1.376612e-001
6.190639e+002;1.328828e-001
6.209924e+002;1.355783e-001
6.229210e+002;1.339490e-001
6.248495e+002;1.339890e-001
6.267781e+002;1.361208e-001
6.287067e+002;1.370140e-001
6.306352e+002;1.359418e-001
6.325637e+002;1.345789e-001
6.344923e+002;1.374940e-001
6.364208e+002;1.371956e-001
6.383494e+002;1.373069e-001
6.402780e+002;1.388279e-001
6.422065e+002;1.384563e-001
6.441350e+002;1.368878e-001
6.460636e+002;1.357376e-001
6.479921e+002;1.382610e-001
6.499207e+002;1.402748e-001
6.518492e+002;1.442388e-001
6.537778e+002;1.517012e-001
6.557063e+002;1.521154e-001
6.576349e+002;1.488834e-001
6.595634e+002;1.515303e-001
6.614919e+002;1.579244e-001
6.634205e+002;1.598396e-001
6.653491e+002;1.579541e-001
6.672776e+002;1.583680e-001
6.692062e+002;1.609797e-001
6.711347e+002;1.631229e-001
6.730632e+002;1.639001e-001
6.749918e+002;1.646511e-001
6.769203e+002;1.647970e-001
6.788489e+002;1.646927e-001
6.807775e+002;1.641143e-001
6.827060e+002;1.636273e-001
6.846345e+002;1.621219e-001
6.865631e+002;1.611237e-001
6.884916e+002;1.620677e-001
6.904202e+002;1.613509e-001
6.923488e+002;1.587206e-001
6.942773e+002;1.570940e-001
6.962058e+002;1.563132e-001
6.981344e+002;1.561333e-001
7.000629e+002;1.551860e-001
7.019915e+002;1.534736e-001
7.039200e+002;1.506452e-001
7.058486e+002;1.496313e-001
7.077771e+002;1.501762e-001
7.097057e+002;1.507524e-001
7.116342e+002;1.488030e-001
7.135627e+002;1.471014e-001
7.154913e+002;1.469010e-001
7.174199e+002;1.459733e-001
7.193484e+002;1.452736e-001
7.212770e+002;1.461612e-001
7.232055e+002;1.473086e-001
7.251340e+002;1.478148e-001
7.270626e+002;1.470923e-001
7.289911e+002;1.446918e-001
7.309197e+002;1.404435e-001
7.328483e+002;1.338151e-001
7.347768e+002;1.259764e-001
7.367053e+002;1.197772e-001
7.386339e+002;1.152814e-001
7.405624e+002;1.128519e-001
7.424910e+002;1.101017e-001
7.444196e+002;1.072682e-001
7.463481e+002;1.053659e-001
7.482766e+002;1.033745e-001
7.502052e+002;1.003852e-001
7.521337e+002;9.750870e-002
7.540623e+002;9.625528e-002
7.559908e+002;9.474564e-002
7.579194e+002;9.236298e-002
7.598479e+002;9.204860e-002
7.617765e+002;9.170593e-002
7.637050e+002;8.957937e-002
7.656335e+002;8.842157e-002
7.675621e+002;8.837149e-002
7.694907e+002;8.727556e-002
7.714192e+002;8.590476e-002
7.733478e+002;8.483323e-002
7.752763e+002;8.324594e-002
7.772048e+002;8.170938e-002
7.791334e+002;8.054294e-002
7.810620e+002;7.929847e-002
7.829905e+002;7.831432e-002
7.849191e+002;7.754558e-002
7.868476e+002;7.646102e-002
7.887761e+002;7.521741e-002
7.907047e+002;7.503861e-002
7.926332e+002;7.449330e-002
7.945618e+002;7.284750e-002
7.964903e+002;7.167517e-002
7.984189e+002;7.066634e-002
8.003474e+002;6.969329e-002
8.022759e+002;6.823684e-002
8.042045e+002;6.716157e-002
8.061331e+002;6.705353e-002
8.080616e+002;6.761439e-002
8.099902e+002;6.817501e-002
8.119187e+002;6.691567e-002
8.138472e+002;6.578159e-002
8.157758e+002;6.642172e-002
8.177043e+002;6.735081e-002
8.196329e+002;6.756794e-002
8.215615e+002;6.722651e-002
8.234900e+002;6.754997e-002
8.254185e+002;6.874105e-002
8.273471e+002;6.927304e-002
8.292756e+002;6.914928e-002
8.312042e+002;7.022595e-002
8.331328e+002;7.110951e-002
8.350613e+002;6.947526e-002
8.369898e+002;6.703118e-002
8.389184e+002;6.618334e-002
8.408469e+002;6.498208e-002
8.427755e+002;6.348237e-002
8.447040e+002;6.318749e-002
8.466326e+002;6.307545e-002
8.485611e+002;6.189162e-002
8.504897e+002;6.099215e-002
8.524182e+002;6.074362e-002
8.543467e+002;6.005828e-002
8.562753e+002;5.940420e-002
8.582039e+002;5.938634e-002
8.601324e+002;5.927322e-002
8.620610e+002;5.910945e-002
8.639895e+002;5.903892e-002
8.659180e+002;5.917753e-002
8.678466e+002;5.962350e-002
8.697751e+002;6.035646e-002
8.717037e+002;6.075497e-002
8.736323e+002;6.076290e-002
8.755608e+002;6.142629e-002
8.774893e+002;6.247668e-002
8.794179e+002;6.319205e-002
8.813464e+002;6.360906e-002
8.832750e+002;6.396734e-002
8.852036e+002;6.469329e-002
8.871321e+002;6.536614e-002
8.890606e+002;6.565029e-002
8.909892e+002;6.635439e-002
8.929177e+002;6.725870e-002
8.948463e+002;6.739392e-002
8.967748e+002;6.699947e-002
8.987034e+002;6.682298e-002
9.006319e+002;6.690187e-002
9.025605e+002;6.738339e-002
9.044890e+002;6.790219e-002
9.064175e+002;6.819241e-002
9.083461e+002;6.806783e-002
9.102747e+002;6.811601e-002
9.122032e+002;6.863444e-002
9.141318e+002;6.881523e-002
9.160603e+002;6.865415e-002
9.179888e+002;6.887969e-002
9.199174e+002;6.959962e-002
9.218459e+002;7.065663e-002
9.237745e+002;7.131794e-002
9.257031e+002;7.163793e-002
9.276316e+002;7.226078e-002
9.295601e+002;7.271233e-002
9.314887e+002;7.283504e-002
9.334172e+002;7.236129e-002
9.353458e+002;7.155604e-002
9.372744e+002;7.130458e-002
9.392029e+002;7.160784e-002
9.411314e+002;7.156537e-002
9.430600e+002;7.207944e-002
9.449885e+002;7.330370e-002
9.469171e+002;7.417697e-002
9.488456e+002;7.527521e-002
9.507742e+002;7.690509e-002
9.527027e+002;7.792878e-002
9.546313e+002;7.855811e-002
9.565598e+002;7.920831e-002
9.584883e+002;7.971993e-002
9.604169e+002;8.004107e-002
9.623455e+002;8.029772e-002
9.642740e+002;8.031893e-002
9.662026e+002;8.013056e-002
9.681311e+002;7.976830e-002
9.700596e+002;7.952975e-002
9.719882e+002;7.984037e-002
9.739167e+002;8.009701e-002
9.758453e+002;7.982265e-002
9.777739e+002;7.983743e-002
9.797024e+002;7.969218e-002
9.816309e+002;7.936604e-002
9.835595e+002;7.977340e-002
9.854880e+002;8.045022e-002
9.874166e+002;8.026591e-002
9.893452e+002;7.929779e-002
9.912737e+002;7.875874e-002
9.932022e+002;7.887566e-002
9.951307e+002;7.891043e-002
9.970593e+002;7.883831e-002
9.989879e+002;7.889235e-002
1.000916e+003;7.885492e-002
1.002845e+003;7.881562e-002
1.004773e+003;7.916012e-002
1.006702e+003;7.967117e-002
1.008631e+003;7.967713e-002
1.010559e+003;7.968187e-002
1.012488e+003;8.021856e-002
1.014416e+003;8.056158e-002
1.016345e+003;8.032479e-002
1.018273e+003;8.041677e-002
1.020202e+003;8.138231e-002
1.022130e+003;8.206550e-002
1.024059e+003;8.178601e-002
1.025988e+003;8.176117e-002
1.027916e+003;8.199666e-002
1.029845e+003;8.171833e-002
1.031773e+003;8.151338e-002
1.033702e+003;8.196837e-002
1.035630e+003;8.244123e-002
1.037559e+003;8.221594e-002
1.039487e+003;8.214127e-002
1.041416e+003;8.289342e-002
1.043344e+003;8.325946e-002
1.045273e+003;8.358762e-002
1.047202e+003;8.467259e-002
1.049130e+003;8.570895e-002
1.051059e+003;8.678600e-002
1.052987e+003;8.803650e-002
1.054916e+003;8.888297e-002
1.056844e+003;8.966877e-002
1.058773e+003;9.036018e-002
1.060701e+003;9.126647e-002
1.062630e+003;9.210628e-002
1.064558e+003;9.295723e-002
1.066487e+003;9.403120e-002
1.068416e+003;9.473574e-002
1.070344e+003;9.505676e-002
1.072273e+003;9.532438e-002
1.074201e+003;9.508844e-002
1.076130e+003;9.435401e-002
1.078058e+003;9.343559e-002
1.079987e+003;9.296930e-002
1.081915e+003;9.318992e-002
1.083844e+003;9.303382e-002
1.085773e+003;9.236531e-002
1.087701e+003;9.169845e-002
1.089630e+003;9.120028e-002
1.091558e+003;9.111244e-002
1.093487e+003;9.146070e-002
1.095415e+003;9.186172e-002
1.097344e+003;9.176745e-002
1.099272e+003;9.234756e-002
1.101201e+003;9.371171e-002
1.103129e+003;9.587688e-002
1.105058e+003;9.782116e-002
1.106987e+003;9.894839e-002
1.108915e+003;1.000388e-001
1.110844e+003;1.006685e-001
1.112772e+003;1.012156e-001
1.114701e+003;1.015150e-001
1.116629e+003;1.011910e-001
1.118558e+003;1.002537e-001
1.120486e+003;9.882557e-002
1.122415e+003;9.684101e-002
1.124344e+003;9.432589e-002
1.126272e+003;9.157209e-002
1.128201e+003;8.901122e-002
1.130129e+003;8.704258e-002
1.132058e+003;8.571816e-002
1.133986e+003;8.455426e-002
1.135915e+003;8.379839e-002
1.137843e+003;8.403712e-002
1.139772e+003;8.449689e-002
1.141700e+003;8.545692e-002
1.143629e+003;8.694117e-002
1.145557e+003;8.852771e-002
1.147486e+003;9.004986e-002
1.149415e+003;9.156301e-002
1.151343e+003;9.327695e-002
1.153272e+003;9.589250e-002
1.155200e+003;9.932727e-002
1.157129e+003;1.031663e-001
1.159057e+003;1.081570e-001
1.160986e+003;1.141531e-001
1.162914e+003;1.197611e-001
1.164843e+003;1.243119e-001
1.166771e+003;1.275456e-001
1.168700e+003;1.292131e-001
1.170629e+003;1.288019e-001
1.172557e+003;1.264346e-001
1.174486e+003;1.226718e-001
1.176414e+003;1.182703e-001
1.178343e+003;1.136744e-001
1.180271e+003;1.101291e-001
1.182200e+003;1.089746e-001
1.184128e+003;1.099826e-001
1.186057e+003;1.123075e-001
1.187986e+003;1.148161e-001
1.189914e+003;1.177626e-001
1.191843e+003;1.219685e-001
1.193771e+003;1.261511e-001
1.195700e+003;1.300528e-001
1.197628e+003;1.331897e-001
1.199557e+003;1.344255e-001
1.201485e+003;1.333594e-001
1.203414e+003;1.310984e-001
1.205343e+003;1.284430e-001
1.207271e+003;1.262902e-001
1.209200e+003;1.249312e-001
1.211128e+003;1.232951e-001
1.213057e+003;1.215570e-001
1.214985e+003;1.196755e-001
1.216914e+003;1.177128e-001
1.218842e+003;1.160268e-001
1.220771e+003;1.154797e-001
1.222699e+003;1.165481e-001
1.224628e+003;1.190316e-001
1.226557e+003;1.228146e-001
1.228485e+003;1.269563e-001
1.230414e+003;1.310161e-001
1.232342e+003;1.351201e-001
1.234271e+003;1.378334e-001
1.236199e+003;1.395754e-001
1.238128e+003;1.405713e-001
1.240056e+003;1.403045e-001
1.241985e+003;1.400920e-001
1.243913e+003;1.403244e-001
1.245842e+003;1.407010e-001
1.247771e+003;1.417797e-001
1.249699e+003;1.435860e-001
1.251628e+003;1.463200e-001
1.253556e+003;1.499309e-001
1.255485e+003;1.528084e-001
1.257413e+003;1.543655e-001
1.259342e+003;1.548891e-001
1.261270e+003;1.537029e-001
1.263199e+003;1.506965e-001
1.265127e+003;1.461511e-001
1.267056e+003;1.409200e-001
1.268985e+003;1.362087e-001
1.270913e+003;1.333644e-001
1.272842e+003;1.319064e-001
1.274770e+003;1.313107e-001
1.276699e+003;1.314542e-001
1.278627e+003;1.315288e-001
1.280556e+003;1.309716e-001
1.282484e+003;1.299286e-001
1.284413e+003;1.287504e-001
1.286342e+003;1.277119e-001
1.288270e+003;1.263651e-001
1.290199e+003;1.252415e-001
1.292127e+003;1.247269e-001
1.294056e+003;1.244688e-001
1.295984e+003;1.243231e-001
1.297913e+003;1.240200e-001
1.299841e+003;1.235164e-001
1.301770e+003;1.229906e-001
1.303698e+003;1.226076e-001
1.305627e+003;1.219495e-001
1.307556e+003;1.209737e-001
1.309484e+003;1.198234e-001
1.311413e+003;1.187029e-001
1.313341e+003;1.180757e-001
1.315270e+003;1.172044e-001
1.317198e+003;1.161313e-001
1.319127e+003;1.151722e-001
1.321055e+003;1.142150e-001
1.322984e+003;1.134337e-001
1.324912e+003;1.130944e-001
1.326841e+003;1.129872e-001
1.328770e+003;1.131968e-001
1.330698e+003;1.136304e-001
1.332627e+003;1.139416e-001
1.334555e+003;1.141434e-001
1.336484e+003;1.143004e-001
1.338412e+003;1.146884e-001
1.340341e+003;1.153650e-001
1.342269e+003;1.163283e-001
1.344198e+003;1.174850e-001
1.346126e+003;1.186413e-001
1.348055e+003;1.195847e-001
1.349984e+003;1.208514e-001
1.351912e+003;1.223999e-001
1.353841e+003;1.239961e-001
1.355769e+003;1.255574e-001
1.357698e+003;1.273807e-001
1.359626e+003;1.290157e-001
1.361555e+003;1.304788e-001
1.363483e+003;1.323322e-001
1.365412e+003;1.344734e-001
1.367341e+003;1.361368e-001
1.369269e+003;1.372639e-001
1.371198e+003;1.377016e-001
1.373126e+003;1.372896e-001
1.375055e+003;1.360996e-001
1.376983e+003;1.337140e-001
1.378912e+003;1.304715e-001
1.380840e+003;1.272245e-001
1.382769e+003;1.238032e-001
1.384698e+003;1.204920e-001
1.386626e+003;1.179111e-001
1.388555e+003;1.157375e-001
1.390483e+003;1.135628e-001
1.392412e+003;1.116976e-001
1.394340e+003;1.104899e-001
1.396269e+003;1.100125e-001
1.398197e+003;1.104905e-001
1.400126e+003;1.115891e-001
1.402054e+003;1.134029e-001
1.403983e+003;1.165368e-001
1.405911e+003;1.209823e-001
1.407840e+003;1.259413e-001
1.409769e+003;1.312834e-001
1.411697e+003;1.371250e-001
1.413626e+003;1.427952e-001
1.415554e+003;1.473465e-001
1.417483e+003;1.496145e-001
1.419411e+003;1.491780e-001
1.421340e+003;1.471376e-001
1.423268e+003;1.449548e-001
1.425197e+003;1.437507e-001
1.427125e+003;1.442691e-001
1.429054e+003;1.460587e-001
1.430983e+003;1.481746e-001
1.432911e+003;1.501232e-001
1.434840e+003;1.512855e-001
1.436768e+003;1.511795e-001
1.438697e+003;1.503474e-001
1.440625e+003;1.491330e-001
1.442554e+003;1.481919e-001
1.444482e+003;1.477226e-001
1.446411e+003;1.477819e-001
1.448340e+003;1.485902e-001
1.450268e+003;1.506011e-001
1.452197e+003;1.529179e-001
1.454125e+003;1.549169e-001
1.456054e+003;1.572320e-001
1.457982e+003;1.601663e-001
1.459911e+003;1.634374e-001
1.461839e+003;1.661052e-001
1.463768e+003;1.658460e-001
1.465697e+003;1.617363e-001
1.467625e+003;1.559875e-001
1.469554e+003;1.511062e-001
1.471482e+003;1.481521e-001
1.473411e+003;1.471639e-001
1.475339e+003;1.462887e-001
1.477268e+003;1.440484e-001
1.479196e+003;1.404172e-001
1.481125e+003;1.358336e-001
1.483053e+003;1.313222e-001
1.484982e+003;1.279804e-001
1.486911e+003;1.265697e-001
1.488839e+003;1.269901e-001
1.490768e+003;1.290741e-001
1.492696e+003;1.323933e-001
1.494625e+003;1.362841e-001
1.496553e+003;1.412509e-001
1.498482e+003;1.467048e-001
1.500410e+003;1.522690e-001
1.502339e+003;1.581486e-001
1.504267e+003;1.640597e-001
1.506196e+003;1.707136e-001
1.508125e+003;1.778038e-001
1.510053e+003;1.850230e-001
1.511982e+003;1.925107e-001
1.513910e+003;2.001977e-001
1.515839e+003;2.074656e-001
1.517767e+003;2.146171e-001
1.519696e+003;2.223141e-001
1.521624e+003;2.303138e-001
1.523553e+003;2.381310e-001
1.525481e+003;2.451824e-001
1.527410e+003;2.518644e-001
1.529339e+003;2.583699e-001
1.531267e+003;2.639906e-001
1.533196e+003;2.680922e-001
1.535124e+003;2.706673e-001
1.537053e+003;2.713454e-001
1.538981e+003;2.697658e-001
1.540910e+003;2.666813e-001
1.542838e+003;2.620662e-001
1.544767e+003;2.554207e-001
1.546695e+003;2.471526e-001
1.548624e+003;2.385192e-001
1.550553e+003;2.294415e-001
1.552481e+003;2.200357e-001
1.554410e+003;2.106095e-001
1.556338e+003;2.012910e-001
1.558267e+003;1.920704e-001
1.560195e+003;1.831508e-001
1.562124e+003;1.749749e-001
1.564052e+003;1.670954e-001
1.565981e+003;1.595668e-001
1.567910e+003;1.525090e-001
1.569838e+003;1.455553e-001
1.571767e+003;1.392320e-001
1.573695e+003;1.337335e-001
1.575624e+003;1.286640e-001
1.577552e+003;1.242450e-001
1.579481e+003;1.209683e-001
1.581409e+003;1.186569e-001
1.583338e+003;1.170752e-001
1.585266e+003;1.159502e-001
1.587195e+003;1.153453e-001
1.589124e+003;1.152320e-001
1.591052e+003;1.158259e-001
1.592981e+003;1.170908e-001
1.594909e+003;1.191857e-001
1.596838e+003;1.221255e-001
1.598766e+003;1.253809e-001
1.600695e+003;1.291489e-001
1.602623e+003;1.339219e-001
1.604552e+003;1.399618e-001
1.606480e+003;1.468176e-001
1.608409e+003;1.543657e-001
1.610338e+003;1.627632e-001
1.612266e+003;1.723336e-001
1.614195e+003;1.829437e-001
1.616123e+003;1.945413e-001
1.618052e+003;2.071833e-001
1.619980e+003;2.201262e-001
1.621909e+003;2.334211e-001
1.623837e+003;2.468594e-001
1.625766e+003;2.595949e-001
1.627694e+003;2.717091e-001
1.629623e+003;2.835580e-001
1.631552e+003;2.949286e-001
1.633480e+003;3.050153e-001
1.635409e+003;3.119897e-001
1.637337e+003;3.141079e-001
1.639266e+003;3.103145e-001
1.641194e+003;3.011968e-001
1.643123e+003;2.889473e-001
1.645051e+003;2.750755e-001
1.646980e+003;2.605443e-001
1.648909e+003;2.464318e-001
1.650837e+003;2.332678e-001
1.652766e+003;2.206142e-001
1.654694e+003;2.091947e-001
1.656623e+003;1.995034e-001
1.658551e+003;1.904583e-001
1.660480e+003;1.817668e-001
1.662408e+003;1.728625e-001
1.664337e+003;1.640803e-001
1.666266e+003;1.557609e-001
1.668194e+003;1.476216e-001
1.670123e+003;1.396587e-001
1.672051e+003;1.324543e-001
1.673980e+003;1.252450e-001
1.675908e+003;1.173862e-001
1.677837e+003;1.096752e-001
1.679765e+003;1.025321e-001
1.681694e+003;9.491768e-002
1.683622e+003;8.700136e-002
1.685551e+003;7.966252e-002
1.687479e+003;7.356711e-002
1.689408e+003;6.853812e-002
1.691337e+003;6.440581e-002
1.693265e+003;6.091273e-002
1.695194e+003;5.795806e-002
1.697122e+003;5.589059e-002
1.699051e+003;5.452625e-002
1.700979e+003;5.329825e-002
1.702908e+003;5.243669e-002
1.704836e+003;5.173689e-002
1.706765e+003;5.105086e-002
1.708693e+003;5.044897e-002
1.710622e+003;5.008936e-002
1.712551e+003;4.978923e-002
1.714479e+003;4.941895e-002
1.716408e+003;4.881175e-002
1.718336e+003;4.846157e-002
1.720265e+003;4.839837e-002
1.722193e+003;4.839860e-002
1.724122e+003;4.803497e-002
1.726050e+003;4.759545e-002
1.727979e+003;4.745465e-002
1.729908e+003;4.724614e-002
1.731836e+003;4.672450e-002
1.733765e+003;4.573901e-002
1.735693e+003;4.467657e-002
1.737622e+003;4.392031e-002
1.739550e+003;4.323322e-002
1.741479e+003;4.240909e-002
1.743407e+003;4.158081e-002
1.745336e+003;4.081051e-002
1.747265e+003;4.009543e-002
1.749193e+003;3.944527e-002
1.751122e+003;3.891816e-002
1.753050e+003;3.832184e-002
1.754979e+003;3.766327e-002
1.756907e+003;3.733322e-002
1.758836e+003;3.716030e-002
1.760764e+003;3.672847e-002
1.762693e+003;3.638666e-002
1.764621e+003;3.634790e-002
1.766550e+003;3.608286e-002
1.768479e+003;3.567584e-002
1.770407e+003;3.506574e-002
1.772336e+003;3.439777e-002
1.774264e+003;3.411589e-002
1.776193e+003;3.414873e-002
1.778121e+003;3.397552e-002
1.780050e+003;3.359553e-002
1.781978e+003;3.326051e-002
1.783907e+003;3.293726e-002
1.785835e+003;3.269259e-002
1.787764e+003;3.273531e-002
1.789693e+003;3.245976e-002
1.791621e+003;3.186360e-002
1.793550e+003;3.165217e-002
1.795478e+003;3.165684e-002
1.797407e+003;3.154099e-002
1.799335e+003;3.126021e-002
1.801264e+003;3.100883e-002
1.803192e+003;3.097556e-002
1.805121e+003;3.074529e-002
1.807049e+003;3.057059e-002
1.808978e+003;3.058371e-002
1.810907e+003;3.050074e-002
1.812835e+003;3.022866e-002
1.814764e+003;2.996914e-002
1.816692e+003;2.978191e-002
1.818621e+003;2.966809e-002
1.820549e+003;2.966663e-002
1.822478e+003;2.954436e-002
1.824406e+003;2.914402e-002
1.826335e+003;2.909350e-002
1.828264e+003;2.917244e-002
1.830192e+003;2.899346e-002
1.832121e+003;2.886946e-002
1.834049e+003;2.863177e-002
1.835978e+003;2.839485e-002
1.837906e+003;2.819052e-002
1.839835e+003;2.795921e-002
1.841763e+003;2.783431e-002
1.843692e+003;2.758808e-002
1.845620e+003;2.737488e-002
1.847549e+003;2.720178e-002
1.849478e+003;2.706768e-002
1.851406e+003;2.708553e-002
1.853335e+003;2.695316e-002
1.855263e+003;2.688343e-002
1.857192e+003;2.690715e-002
1.859120e+003;2.687409e-002
1.861049e+003;2.678876e-002
1.862977e+003;2.680074e-002
1.864906e+003;2.665405e-002
1.866834e+003;2.641422e-002
1.868763e+003;2.642788e-002
1.870692e+003;2.651434e-002
1.872620e+003;2.635662e-002
1.874549e+003;2.607519e-002
1.876477e+003;2.611654e-002
1.878406e+003;2.629156e-002
1.880334e+003;2.635729e-002
1.882263e+003;2.629515e-002
1.884191e+003;2.613892e-002
1.886120e+003;2.600694e-002
1.888048e+003;2.567642e-002
1.889977e+003;2.556275e-002
1.891906e+003;2.575464e-002
1.893834e+003;2.595808e-002
1.895763e+003;2.598661e-002
1.897691e+003;2.591777e-002
1.899620e+003;2.588447e-002
1.901548e+003;2.584627e-002
1.903477e+003;2.579167e-002
1.905405e+003;2.564735e-002
1.907334e+003;2.554929e-002
1.909262e+003;2.544799e-002
1.911191e+003;2.569565e-002
1.913120e+003;2.584983e-002
1.915048e+003;2.564264e-002
1.916977e+003;2.559147e-002
1.918905e+003;2.572669e-002
1.920834e+003;2.571006e-002
1.922762e+003;2.565909e-002
1.924691e+003;2.579265e-002
1.926619e+003;2.608149e-002
1.928548e+003;2.617383e-002
1.930477e+003;2.592227e-002
1.932405e+003;2.582092e-002
1.934334e+003;2.600131e-002
1.936262e+003;2.603231e-002
1.938191e+003;2.595787e-002
1.940119e+003;2.593571e-002
1.942048e+003;2.589794e-002
1.943976e+003;2.600434e-002
1.945905e+003;2.615236e-002
1.947833e+003;2.632240e-002
1.949762e+003;2.652149e-002
1.951691e+003;2.660680e-002
1.953619e+003;2.638975e-002
1.955548e+003;2.647395e-002
1.957476e+003;2.664358e-002
1.959405e+003;2.658958e-002
1.961333e+003;2.667564e-002
1.963262e+003;2.650768e-002
1.965190e+003;2.645447e-002
1.967119e+003;2.655206e-002
1.969047e+003;2.660807e-002
1.970976e+003;2.651473e-002
1.972905e+003;2.650842e-002
1.974833e+003;2.659655e-002
1.976762e+003;2.669752e-002
1.978690e+003;2.676310e-002
1.980619e+003;2.671782e-002
1.982547e+003;2.656340e-002
1.984476e+003;2.667857e-002
1.986404e+003;2.697561e-002
1.988333e+003;2.687705e-002
1.990261e+003;2.665884e-002
1.992190e+003;2.673695e-002
1.994119e+003;2.688339e-002
1.996047e+003;2.688505e-002
1.997976e+003;2.687691e-002
1.999904e+003;2.687461e-002
2.001833e+003;2.688744e-002
2.003761e+003;2.682551e-002
2.005690e+003;2.688099e-002
2.007618e+003;2.700915e-002
2.009547e+003;2.708098e-002
2.011476e+003;2.734894e-002
2.013404e+003;2.774915e-002
2.015333e+003;2.782989e-002
2.017261e+003;2.757840e-002
2.019190e+003;2.752732e-002
2.021118e+003;2.784872e-002
2.023047e+003;2.816701e-002
2.024975e+003;2.781573e-002
2.026904e+003;2.768052e-002
2.028833e+003;2.781785e-002
2.030761e+003;2.797437e-002
2.032690e+003;2.802063e-002
2.034618e+003;2.779732e-002
2.036547e+003;2.796204e-002
2.038475e+003;2.818709e-002
2.040404e+003;2.839050e-002
2.042332e+003;2.836808e-002
2.044261e+003;2.826654e-002
2.046189e+003;2.808662e-002
2.048118e+003;2.797433e-002
2.050047e+003;2.826994e-002
2.051975e+003;2.852717e-002
2.053904e+003;2.854472e-002
2.055832e+003;2.845340e-002
2.057761e+003;2.837162e-002
2.059689e+003;2.830166e-002
2.061618e+003;2.850077e-002
2.063546e+003;2.871354e-002
2.065475e+003;2.873113e-002
2.067404e+003;2.870101e-002
2.069332e+003;2.858644e-002
2.071260e+003;2.858173e-002
2.073189e+003;2.840030e-002
2.075118e+003;2.828818e-002
2.077046e+003;2.851907e-002
2.078975e+003;2.862579e-002
2.080903e+003;2.862438e-002
2.082832e+003;2.856358e-002
2.084760e+003;2.848216e-002
2.086689e+003;2.859571e-002
2.088617e+003;2.854720e-002
2.090546e+003;2.835711e-002
2.092475e+003;2.822153e-002
2.094403e+003;2.830799e-002
2.096332e+003;2.844226e-002
2.098260e+003;2.836061e-002
2.100189e+003;2.842446e-002
2.102117e+003;2.873566e-002
2.104046e+003;2.864137e-002
2.105974e+003;2.854422e-002
2.107903e+003;2.883653e-002
2.109832e+003;2.894582e-002
2.111760e+003;2.891702e-002
2.113688e+003;2.885154e-002
2.115617e+003;2.879015e-002
2.117546e+003;2.872203e-002
2.119474e+003;2.859826e-002
2.121403e+003;2.871411e-002
2.123331e+003;2.893583e-002
2.125260e+003;2.909619e-002
2.127188e+003;2.916897e-002
2.129117e+003;2.921795e-002
2.131045e+003;2.923223e-002
2.132974e+003;2.918357e-002
2.134903e+003;2.927313e-002
2.136831e+003;2.925090e-002
2.138760e+003;2.916730e-002
2.140688e+003;2.893795e-002
2.142617e+003;2.894943e-002
2.144545e+003;2.921933e-002
2.146474e+003;2.932024e-002
2.148402e+003;2.922755e-002
2.150331e+003;2.909499e-002
2.152260e+003;2.877351e-002
2.154188e+003;2.849582e-002
2.156117e+003;2.867651e-002
2.158045e+003;2.892216e-002
2.159974e+003;2.900940e-002
2.161902e+003;2.901850e-002
2.163831e+003;2.894883e-002
2.165759e+003;2.869970e-002
2.167688e+003;2.838919e-002
2.169616e+003;2.832468e-002
2.171545e+003;2.857986e-002
2.173474e+003;2.877078e-002
2.175402e+003;2.856231e-002
2.177331e+003;2.841495e-002
2.179259e+003;2.864745e-002
2.181188e+003;2.856885e-002
2.183116e+003;2.807902e-002
2.185045e+003;2.781442e-002
2.186973e+003;2.790709e-002
2.188902e+003;2.793585e-002
2.190831e+003;2.789338e-002
2.192759e+003;2.795850e-002
2.194688e+003;2.784042e-002
2.196616e+003;2.761654e-002
2.198545e+003;2.731697e-002
2.200473e+003;2.703411e-002
2.202402e+003;2.706553e-002
2.204330e+003;2.731333e-002
2.206259e+003;2.715568e-002
2.208188e+003;2.705717e-002
2.210116e+003;2.701094e-002
2.212044e+003;2.681582e-002
2.213973e+003;2.672293e-002
2.215902e+003;2.652691e-002
2.217830e+003;2.636627e-002
2.219759e+003;2.660078e-002
2.221687e+003;2.670513e-002
2.223616e+003;2.652917e-002
2.225544e+003;2.640665e-002
2.227473e+003;2.639197e-002
2.229401e+003;2.637278e-002
2.231330e+003;2.618287e-002
2.233259e+003;2.602692e-002
2.235187e+003;2.601992e-002
2.237116e+003;2.597363e-002
2.239044e+003;2.596234e-002
2.240973e+003;2.597335e-002
2.242901e+003;2.584961e-002
2.244830e+003;2.577925e-002
2.246758e+003;2.583875e-002
2.248687e+003;2.570750e-002
2.250615e+003;2.582338e-002
2.252544e+003;2.603899e-002
2.254473e+003;2.594784e-002
2.256401e+003;2.575731e-002
2.258330e+003;2.560647e-002
2.260258e+003;2.558707e-002
2.262187e+003;2.545664e-002
2.264115e+003;2.556785e-002
2.266044e+003;2.596607e-002
2.267972e+003;2.578207e-002
2.269901e+003;2.534436e-002
2.271830e+003;2.510021e-002
2.273758e+003;2.517906e-002
2.275687e+003;2.518183e-002
2.277615e+003;2.524613e-002
2.279544e+003;2.532564e-002
2.281472e+003;2.525599e-002
2.283401e+003;2.506219e-002
2.285329e+003;2.525930e-002
2.287258e+003;2.541086e-002
2.289187e+003;2.526126e-002
2.291115e+003;2.518678e-002
2.293043e+003;2.514532e-002
2.294972e+003;2.540959e-002
2.296901e+003;2.550941e-002
2.298829e+003;2.543580e-002
2.300758e+003;2.518945e-002
2.302686e+003;2.488092e-002
2.304615e+003;2.487667e-002
2.306543e+003;2.504594e-002
2.308472e+003;2.526442e-002
2.310400e+003;2.549420e-002
2.312329e+003;2.533713e-002
2.314258e+003;2.509504e-002
2.316186e+003;2.512362e-002
2.318115e+003;2.523461e-002
2.320043e+003;2.537605e-002
2.321972e+003;2.516361e-002
2.323900e+003;2.491454e-002
2.325829e+003;2.482419e-002
2.327757e+003;2.508613e-002
2.329686e+003;2.540331e-002
2.331615e+003;2.521645e-002
2.333543e+003;2.511098e-002
2.335472e+003;2.536930e-002
2.337400e+003;2.548987e-002
2.339329e+003;2.554965e-002
2.341257e+003;2.547589e-002
2.343186e+003;2.533836e-002
2.345114e+003;2.546746e-002
2.347043e+003;2.573190e-002
2.348971e+003;2.568015e-002
2.350900e+003;2.553457e-002
2.352829e+003;2.560071e-002
2.354757e+003;2.563505e-002
2.356686e+003;2.573748e-002
2.358614e+003;2.604951e-002
2.360543e+003;2.613019e-002
2.362471e+003;2.625816e-002
2.364400e+003;2.634958e-002
2.366328e+003;2.627382e-002
2.368257e+003;2.641383e-002
2.370186e+003;2.663484e-002
2.372114e+003;2.664443e-002
2.374042e+003;2.659648e-002
2.375971e+003;2.677744e-002
2.377900e+003;2.690955e-002
2.379828e+003;2.681959e-002
2.381757e+003;2.664598e-002
2.383685e+003;2.678904e-002
2.385614e+003;2.682432e-002
2.387542e+003;2.718037e-002
2.389471e+003;2.767950e-002
2.391399e+003;2.771584e-002
2.393328e+003;2.747931e-002
2.395257e+003;2.733366e-002
2.397185e+003;2.759458e-002
2.399114e+003;2.809355e-002
2.401042e+003;2.845835e-002
2.402971e+003;2.841445e-002
2.404899e+003;2.844374e-002
2.406828e+003;2.860449e-002
2.408756e+003;2.857989e-002
2.410685e+003;2.857901e-002
2.412614e+003;2.886259e-002
2.414542e+003;2.928096e-002
2.416471e+003;2.936069e-002
2.418399e+003;2.888451e-002
2.420328e+003;2.860014e-002
2.422256e+003;2.874961e-002
2.424185e+003;2.905152e-002
2.426113e+003;2.940287e-002
2.428042e+003;2.966876e-002
2.429970e+003;2.980285e-002
2.431899e+003;2.964063e-002
2.433828e+003;2.976545e-002
2.435756e+003;2.995405e-002
2.437685e+003;2.993595e-002
2.439613e+003;3.009579e-002
2.441542e+003;3.034288e-002
2.443470e+003;3.070161e-002
2.445399e+003;3.092073e-002
2.447327e+003;3.091770e-002
2.449256e+003;3.114209e-002
2.451185e+003;3.127563e-002
2.453113e+003;3.122821e-002
2.455042e+003;3.124622e-002
2.456970e+003;3.128382e-002
2.458899e+003;3.128147e-002
2.460827e+003;3.127086e-002
2.462756e+003;3.144128e-002
2.464684e+003;3.178698e-002
2.466613e+003;3.217410e-002
2.468542e+003;3.246744e-002
2.470470e+003;3.237646e-002
2.472398e+003;3.193453e-002
2.474327e+003;3.168468e-002
2.476256e+003;3.203503e-002
2.478184e+003;3.237911e-002
2.480113e+003;3.260539e-002
2.482041e+003;3.270827e-002
2.483970e+003;3.286695e-002
2.485898e+003;3.325171e-002
2.487827e+003;3.308652e-002
2.489755e+003;3.264771e-002
2.491684e+003;3.280606e-002
2.493613e+003;3.336197e-002
2.495541e+003;3.359907e-002
2.497470e+003;3.352587e-002
2.499398e+003;3.345547e-002
2.501327e+003;3.306367e-002
2.503255e+003;3.285380e-002
2.505184e+003;3.319641e-002
2.507112e+003;3.370634e-002
2.509041e+003;3.410242e-002
2.510969e+003;3.409908e-002
2.512898e+003;3.409912e-002
2.514827e+003;3.425674e-002
2.516755e+003;3.454589e-002
2.518684e+003;3.489881e-002
2.520612e+003;3.492578e-002
2.522541e+003;3.471623e-002
2.524469e+003;3.467295e-002
2.526398e+003;3.462271e-002
2.528326e+003;3.482194e-002
2.530255e+003;3.527869e-002
2.532184e+003;3.545356e-002
2.534112e+003;3.538723e-002
2.536041e+003;3.538921e-002
2.537969e+003;3.559200e-002
2.539898e+003;3.577394e-002
2.541826e+003;3.587484e-002
2.543755e+003;3.592361e-002
2.545683e+003;3.606612e-002
2.547612e+003;3.627045e-002
2.549541e+003;3.604862e-002
2.551469e+003;3.606173e-002
2.553397e+003;3.646230e-002
2.555326e+003;3.676655e-002
2.557255e+003;3.658743e-002
2.559183e+003;3.622406e-002
2.561112e+003;3.633979e-002
2.563040e+003;3.669198e-002
2.564969e+003;3.698986e-002
2.566897e+003;3.726989e-002
2.568826e+003;3.736699e-002
2.570754e+003;3.719474e-002
2.572683e+003;3.697038e-002
2.574612e+003;3.722921e-002
2.576540e+003;3.769702e-002
2.578469e+003;3.792696e-002
2.580397e+003;3.792823e-002
2.582326e+003;3.780726e-002
2.584254e+003;3.785762e-002
2.586183e+003;3.803581e-002
2.588111e+003;3.826372e-002
2.590040e+003;3.850120e-002
2.591969e+003;3.857275e-002
2.593897e+003;3.851221e-002
2.595826e+003;3.834536e-002
2.597754e+003;3.853560e-002
2.599683e+003;3.902447e-002
2.601611e+003;3.930013e-002
2.603540e+003;3.925682e-002
2.605468e+003;3.900232e-002
2.607397e+003;3.880656e-002
2.609325e+003;3.900504e-002
2.611254e+003;3.938940e-002
2.613183e+003;3.966496e-002
2.615111e+003;3.985094e-002
2.617040e+003;4.003955e-002
2.618968e+003;4.048905e-002
2.620897e+003;4.059192e-002
2.622825e+003;4.058581e-002
2.624754e+003;4.080039e-002
2.626682e+003;4.097645e-002
2.628611e+003;4.079701e-002
2.630540e+003;4.073765e-002
2.632468e+003;4.116522e-002
2.634396e+003;4.142051e-002
2.636325e+003;4.154511e-002
2.638254e+003;4.180847e-002
2.640182e+003;4.208152e-002
2.642111e+003;4.213222e-002
2.644039e+003;4.197610e-002
2.645968e+003;4.205688e-002
2.647896e+003;4.236054e-002
2.649825e+003;4.255430e-002
2.651753e+003;4.281787e-002
2.653682e+003;4.284504e-002
2.655611e+003;4.260733e-002
2.657539e+003;4.295864e-002
2.659468e+003;4.351602e-002
2.661396e+003;4.366845e-002
2.663325e+003;4.370473e-002
2.665253e+003;4.395426e-002
2.667182e+003;4.424619e-002
2.669110e+003;4.435708e-002
2.671039e+003;4.440310e-002
2.672968e+003;4.462013e-002
2.674896e+003;4.464877e-002
2.676825e+003;4.471627e-002
2.678753e+003;4.496524e-002
2.680682e+003;4.505808e-002
2.682610e+003;4.503165e-002
2.684539e+003;4.500629e-002
2.686467e+003;4.539777e-002
2.688396e+003;4.569469e-002
2.690324e+003;4.599866e-002
2.692253e+003;4.642447e-002
2.694182e+003;4.644516e-002
2.696110e+003;4.643948e-002
2.698039e+003;4.676649e-002
2.699967e+003;4.699486e-002
2.701896e+003;4.709515e-002
2.703824e+003;4.742752e-002
2.705753e+003;4.751819e-002
2.707681e+003;4.724252e-002
2.709610e+003;4.723432e-002
2.711539e+003;4.781320e-002
2.713467e+003;4.823420e-002
2.715396e+003;4.839511e-002
2.717324e+003;4.863631e-002
2.719253e+003;4.888027e-002
2.721181e+003;4.896379e-002
2.723110e+003;4.901727e-002
2.725038e+003;4.919168e-002
2.726967e+003;4.931141e-002
2.728896e+003;4.968724e-002
2.730824e+003;5.018337e-002
2.732752e+003;5.026520e-002
2.734681e+003;5.032833e-002
2.736610e+003;5.050081e-002
2.738538e+003;5.071983e-002
2.740467e+003;5.081257e-002
2.742395e+003;5.059212e-002
2.744324e+003;5.065497e-002
2.746252e+003;5.097675e-002
2.748181e+003;5.102925e-002
2.750109e+003;5.148412e-002
2.752038e+003;5.198806e-002
2.753967e+003;5.205847e-002
2.755895e+003;5.203344e-002
2.757824e+003;5.219404e-002
2.759752e+003;5.224501e-002
2.761681e+003;5.229307e-002
2.763609e+003;5.247030e-002
2.765538e+003;5.268927e-002
2.767466e+003;5.284528e-002
2.769395e+003;5.325872e-002
2.771323e+003;5.361824e-002
2.773252e+003;5.374879e-002
2.775181e+003;5.401121e-002
2.777109e+003;5.442810e-002
2.779038e+003;5.461363e-002
2.780966e+003;5.474332e-002
2.782895e+003;5.509519e-002
2.784823e+003;5.532158e-002
2.786752e+003;5.560752e-002
2.788680e+003;5.609944e-002
2.790609e+003;5.632138e-002
2.792538e+003;5.672995e-002
2.794466e+003;5.737549e-002
2.796395e+003;5.789691e-002
2.798323e+003;5.808901e-002
2.800252e+003;5.858175e-002
2.802180e+003;5.871442e-002
2.804109e+003;5.875808e-002
2.806037e+003;5.945465e-002
2.807966e+003;6.055494e-002
2.809895e+003;6.133557e-002
2.811823e+003;6.145106e-002
2.813751e+003;6.173048e-002
2.815680e+003;6.219353e-002
2.817609e+003;6.292751e-002
2.819537e+003;6.396216e-002
2.821466e+003;6.437483e-002
2.823394e+003;6.438491e-002
2.825323e+003;6.494491e-002
2.827251e+003;6.597300e-002
2.829180e+003;6.685290e-002
2.831108e+003;6.743897e-002
2.833037e+003;6.825542e-002
2.834966e+003;6.935867e-002
2.836894e+003;7.120921e-002
2.838823e+003;7.368624e-002
2.840751e+003;7.665132e-002
2.842680e+003;7.987294e-002
2.844608e+003;8.330920e-002
2.846537e+003;8.669930e-002
2.848465e+003;9.039249e-002
2.850394e+003;9.480081e-002
2.852323e+003;9.881563e-002
2.854251e+003;1.019403e-001
2.856180e+003;1.047186e-001
2.858108e+003;1.071722e-001
2.860037e+003;1.087306e-001
2.861965e+003;1.093918e-001
2.863894e+003;1.094414e-001
2.865822e+003;1.087039e-001
2.867751e+003;1.071932e-001
2.869679e+003;1.052602e-001
2.871608e+003;1.031089e-001
2.873536e+003;1.006391e-001
2.875465e+003;9.801017e-002
2.877394e+003;9.602536e-002
2.879322e+003;9.427229e-002
2.881251e+003;9.270412e-002
2.883179e+003;9.156927e-002
2.885108e+003;9.098492e-002
2.887036e+003;9.089880e-002
2.888965e+003;9.136169e-002
2.890893e+003;9.266970e-002
2.892822e+003;9.451681e-002
2.894750e+003;9.597011e-002
2.896679e+003;9.752973e-002
2.898608e+003;9.947998e-002
2.900536e+003;1.011739e-001
2.902465e+003;1.026361e-001
2.904393e+003;1.037349e-001
2.906322e+003;1.048247e-001
2.908250e+003;1.062637e-001
2.910179e+003;1.075825e-001
2.912107e+003;1.090745e-001
2.914036e+003;1.108858e-001
2.915965e+003;1.131548e-001
2.917893e+003;1.162617e-001
2.919822e+003;1.197525e-001
2.921750e+003;1.229165e-001
2.923679e+003;1.249798e-001
2.925607e+003;1.272695e-001
2.927536e+003;1.301707e-001
2.929464e+003;1.323635e-001
2.931393e+003;1.333259e-001
2.933322e+003;1.334798e-001
2.935250e+003;1.335965e-001
2.937178e+003;1.330051e-001
2.939107e+003;1.312588e-001
2.941036e+003;1.285891e-001
2.942964e+003;1.257153e-001
2.944893e+003;1.223317e-001
2.946821e+003;1.183017e-001
2.948750e+003;1.139389e-001
2.950678e+003;1.092122e-001
2.952607e+003;1.043760e-001
2.954535e+003;9.953594e-002
2.956464e+003;9.479126e-002
2.958393e+003;9.057389e-002
2.960321e+003;8.653083e-002
2.962250e+003;8.304568e-002
2.964178e+003;8.000853e-002
2.966107e+003;7.731304e-002
2.968035e+003;7.498883e-002
2.969964e+003;7.253859e-002
2.971892e+003;7.049540e-002
2.973821e+003;6.862151e-002
2.975750e+003;6.692606e-002
2.977678e+003;6.499463e-002
2.979607e+003;6.263676e-002
2.981535e+003;6.090229e-002
2.983464e+003;6.009375e-002
2.985392e+003;5.951765e-002
2.987321e+003;5.871642e-002
2.989249e+003;5.719946e-002
2.991178e+003;5.591832e-002
2.993106e+003;5.538526e-002
2.995035e+003;5.489846e-002
2.996964e+003;5.436973e-002
2.998892e+003;5.408893e-002
3.000821e+003;5.403170e-002
3.002749e+003;5.403744e-002
3.004678e+003;5.407073e-002
3.006606e+003;5.419143e-002
3.008535e+003;5.428217e-002
3.010463e+003;5.432028e-002
3.012392e+003;5.441161e-002
3.014321e+003;5.448902e-002
3.016249e+003;5.479643e-002
3.018177e+003;5.510207e-002
3.020106e+003;5.514495e-002
3.022035e+003;5.537544e-002
3.023963e+003;5.570789e-002
3.025892e+003;5.587189e-002
3.027820e+003;5.608308e-002
3.029749e+003;5.662663e-002
3.031677e+003;5.749193e-002
3.033606e+003;5.777460e-002
3.035534e+003;5.818762e-002
3.037463e+003;5.890646e-002
3.039392e+003;5.929772e-002
3.041320e+003;5.974865e-002
3.043249e+003;6.040645e-002
3.045177e+003;6.100900e-002
3.047106e+003;6.162313e-002
3.049034e+003;6.206676e-002
3.050963e+003;6.275734e-002
3.052891e+003;6.383076e-002
3.054820e+003;6.441481e-002
3.056749e+003;6.471948e-002
3.058677e+003;6.564227e-002
3.060606e+003;6.642497e-002
3.062534e+003;6.684540e-002
3.064463e+003;6.718389e-002
3.066391e+003;6.751533e-002
3.068320e+003;6.787561e-002
3.070248e+003;6.855845e-002
3.072177e+003;6.891747e-002
3.074105e+003;6.895611e-002
3.076034e+003;6.875200e-002
3.077963e+003;6.807958e-002
3.079891e+003;6.762527e-002
3.081820e+003;6.760816e-002
3.083748e+003;6.777094e-002
3.085677e+003;6.783129e-002
3.087605e+003;6.766116e-002
3.089534e+003;6.715716e-002
3.091462e+003;6.676162e-002
3.093391e+003;6.638864e-002
3.095320e+003;6.596082e-002
3.097248e+003;6.528600e-002
3.099177e+003;6.450485e-002
3.101105e+003;6.430601e-002
3.103034e+003;6.391429e-002
3.104962e+003;6.286030e-002
3.106891e+003;6.237336e-002
3.108819e+003;6.203068e-002
3.110748e+003;6.128452e-002
3.112677e+003;6.095128e-002
3.114605e+003;6.108859e-002
3.116533e+003;6.077136e-002
3.118462e+003;6.023528e-002
3.120391e+003;6.020293e-002
3.122319e+003;5.994435e-002
3.124248e+003;5.955725e-002
3.126176e+003;5.958796e-002
3.128105e+003;5.942612e-002
3.130033e+003;5.913751e-002
3.131962e+003;5.927455e-002
3.133890e+003;5.954216e-002
3.135819e+003;5.962308e-002
3.137748e+003;5.970428e-002
3.139676e+003;6.009831e-002
3.141605e+003;6.020426e-002
3.143533e+003;6.005691e-002
3.145462e+003;6.019121e-002
3.147390e+003;6.027289e-002
3.149319e+003;6.040790e-002
3.151247e+003;6.080071e-002
3.153176e+003;6.119043e-002
3.155104e+003;6.141243e-002
3.157033e+003;6.179763e-002
3.158962e+003;6.211791e-002
3.160890e+003;6.246249e-002
3.162819e+003;6.294639e-002
3.164747e+003;6.296398e-002
3.166676e+003;6.297263e-002
3.168604e+003;6.350911e-002
3.170533e+003;6.403657e-002
3.172461e+003;6.435005e-002
3.174390e+003;6.473583e-002
3.176319e+003;6.544657e-002
3.178247e+003;6.623755e-002
3.180176e+003;6.714343e-002
3.182104e+003;6.765686e-002
3.184033e+003;6.794922e-002
3.185961e+003;6.843644e-002
3.187890e+003;6.868593e-002
3.189818e+003;6.921569e-002
3.191747e+003;7.003591e-002
3.193676e+003;7.001906e-002
3.195604e+003;6.973604e-002
3.197532e+003;7.008489e-002
3.199461e+003;7.104926e-002
3.201390e+003;7.206372e-002
3.203318e+003;7.260407e-002
3.205247e+003;7.268750e-002
3.207175e+003;7.298298e-002
3.209104e+003;7.335901e-002
3.211032e+003;7.337050e-002
3.212961e+003;7.366685e-002
3.214889e+003;7.442927e-002
3.216818e+003;7.525815e-002
3.218747e+003;7.602885e-002
3.220675e+003;7.654578e-002
3.222604e+003;7.659934e-002
3.224532e+003;7.708146e-002
3.226461e+003;7.783262e-002
3.228389e+003;7.851849e-002
3.230318e+003;7.934118e-002
3.232246e+003;8.053023e-002
3.234175e+003;8.162931e-002
3.236104e+003;8.280677e-002
3.238032e+003;8.413628e-002
3.239961e+003;8.528648e-002
3.241889e+003;8.626471e-002
3.243818e+003;8.783405e-002
3.245746e+003;8.966380e-002
3.247675e+003;9.110149e-002
3.249603e+003;9.245295e-002
3.251532e+003;9.399141e-002
3.253460e+003;9.579065e-002
3.255389e+003;9.745831e-002
3.257318e+003;9.904640e-002
3.259246e+003;9.991166e-002
3.261175e+003;1.009969e-001
3.263103e+003;1.024582e-001
3.265032e+003;1.037023e-001
3.266960e+003;1.053373e-001
3.268889e+003;1.070455e-001
3.270817e+003;1.085297e-001
3.272746e+003;1.101957e-001
3.274675e+003;1.115756e-001
3.276603e+003;1.124940e-001
3.278531e+003;1.138562e-001
3.280460e+003;1.155893e-001
3.282389e+003;1.166812e-001
3.284317e+003;1.177009e-001
3.286246e+003;1.184519e-001
3.288174e+003;1.190412e-001
3.290103e+003;1.197802e-001
3.292031e+003;1.198924e-001
3.293960e+003;1.192154e-001
3.295888e+003;1.186906e-001
3.297817e+003;1.183238e-001
3.299746e+003;1.176620e-001
3.301674e+003;1.164774e-001
3.303603e+003;1.149074e-001
3.305531e+003;1.130773e-001
3.307460e+003;1.111304e-001
3.309388e+003;1.091707e-001
3.311317e+003;1.070875e-001
3.313245e+003;1.055323e-001
3.315174e+003;1.040438e-001
3.317103e+003;1.019198e-001
3.319031e+003;9.944124e-002
3.320960e+003;9.743182e-002
3.322888e+003;9.572142e-002
3.324817e+003;9.354687e-002
3.326745e+003;9.162610e-002
3.328674e+003;9.017275e-002
3.330602e+003;8.890094e-002
3.332531e+003;8.736376e-002
3.334459e+003;8.528084e-002
3.336388e+003;8.332690e-002
3.338317e+003;8.165227e-002
3.340245e+003;8.033802e-002
3.342174e+003;7.924744e-002
3.344102e+003;7.757112e-002
3.346031e+003;7.570206e-002
3.347959e+003;7.447095e-002
3.349888e+003;7.369328e-002
3.351816e+003;7.270152e-002
3.353745e+003;7.153568e-002
3.355674e+003;6.997565e-002
3.357602e+003;6.879132e-002
3.359531e+003;6.778570e-002
3.361459e+003;6.674214e-002
3.363388e+003;6.545108e-002
3.365316e+003;6.485534e-002
3.367245e+003;6.439520e-002
3.369173e+003;6.354132e-002
3.371102e+003;6.249390e-002
3.373031e+003;6.149435e-002
3.374959e+003;6.098025e-002
3.376887e+003;6.075768e-002
3.378816e+003;6.060862e-002
3.380745e+003;6.012917e-002
3.382673e+003;5.925636e-002
3.384602e+003;5.840604e-002
3.386530e+003;5.778395e-002
3.388459e+003;5.754141e-002
3.390387e+003;5.773699e-002
3.392316e+003;5.743153e-002
3.394244e+003;5.663308e-002
3.396173e+003;5.617478e-002
3.398102e+003;5.600644e-002
3.400030e+003;5.567885e-002
3.401959e+003;5.530980e-002
3.403887e+003;5.500116e-002
3.405816e+003;5.471867e-002
3.407744e+003;5.377137e-002
3.409673e+003;5.311900e-002
3.411601e+003;5.321677e-002
3.413530e+003;5.367796e-002
3.415458e+003;5.419293e-002
3.417387e+003;5.375520e-002
3.419316e+003;5.307728e-002
3.421244e+003;5.301098e-002
3.423173e+003;5.309084e-002
3.425101e+003;5.302049e-002
3.427030e+003;5.223851e-002
3.428958e+003;5.192476e-002
3.430887e+003;5.228212e-002
3.432815e+003;5.199721e-002
3.434744e+003;5.154557e-002
3.436673e+003;5.166176e-002
3.438601e+003;5.171137e-002
3.440530e+003;5.148483e-002
3.442458e+003;5.120286e-002
3.444387e+003;5.137618e-002
3.446315e+003;5.141754e-002
3.448244e+003;5.100548e-002
3.450172e+003;5.083056e-002
3.452101e+003;5.079070e-002
3.454030e+003;5.034850e-002
3.455958e+003;4.923952e-002
3.457886e+003;4.913606e-002
3.459815e+003;4.985371e-002
3.461744e+003;4.963553e-002
3.463672e+003;4.908954e-002
3.465601e+003;4.907696e-002
3.467529e+003;4.928079e-002
3.469458e+003;4.905641e-002
3.471386e+003;4.889967e-002
3.473315e+003;4.855175e-002
3.475243e+003;4.821550e-002
3.477172e+003;4.813173e-002
3.479101e+003;4.805315e-002
3.481029e+003;4.784161e-002
3.482958e+003;4.764925e-002
3.484886e+003;4.782204e-002
3.486815e+003;4.797721e-002
3.488743e+003;4.758980e-002
3.490672e+003;4.747383e-002
3.492600e+003;4.779752e-002
3.494529e+003;4.766149e-002
3.496458e+003;4.708820e-002
3.498386e+003;4.663141e-002
3.500315e+003;4.633153e-002
3.502243e+003;4.612064e-002
3.504172e+003;4.625449e-002
3.506100e+003;4.606641e-002
3.508029e+003;4.571037e-002
3.509957e+003;4.568055e-002
3.511886e+003;4.579033e-002
3.513814e+003;4.579335e-002
3.515743e+003;4.579357e-002
3.517672e+003;4.563547e-002
3.519600e+003;4.552536e-002
3.521529e+003;4.556653e-002
3.523457e+003;4.571354e-002
3.525386e+003;4.571692e-002
3.527314e+003;4.534164e-002
3.529243e+003;4.511498e-002
3.531171e+003;4.468336e-002
3.533100e+003;4.435341e-002
3.535029e+003;4.446561e-002
3.536957e+003;4.462843e-002
3.538885e+003;4.461176e-002
3.540814e+003;4.441671e-002
3.542743e+003;4.424990e-002
3.544671e+003;4.440053e-002
3.546600e+003;4.448843e-002
3.548528e+003;4.427411e-002
3.550457e+003;4.396973e-002
3.552385e+003;4.410104e-002
3.554314e+003;4.398135e-002
3.556242e+003;4.331034e-002
3.558171e+003;4.326422e-002
3.560100e+003;4.306583e-002
3.562028e+003;4.268350e-002
3.563957e+003;4.294752e-002
3.565885e+003;4.272138e-002
3.567814e+003;4.235463e-002
3.569742e+003;4.232851e-002
3.571671e+003;4.222899e-002
3.573599e+003;4.185773e-002
3.575528e+003;4.131110e-002
3.577457e+003;4.157804e-002
3.579385e+003;4.201494e-002
3.581314e+003;4.142765e-002
3.583242e+003;4.083694e-002
3.585171e+003;4.078285e-002
3.587099e+003;4.076920e-002
3.589028e+003;4.060240e-002
3.590956e+003;4.018018e-002
3.592885e+003;4.015859e-002
3.594813e+003;4.053764e-002
3.596742e+003;4.031825e-002
3.598671e+003;4.018618e-002
3.600599e+003;3.980773e-002
3.602528e+003;3.918914e-002
3.604456e+003;3.878044e-002
3.606385e+003;3.878113e-002
3.608313e+003;3.822924e-002
3.610242e+003;3.743466e-002
3.612170e+003;3.741819e-002
3.614099e+003;3.742466e-002
3.616028e+003;3.707581e-002
3.617956e+003;3.683612e-002
3.619885e+003;3.668282e-002
3.621813e+003;3.616255e-002
3.623742e+003;3.588434e-002
3.625670e+003;3.524800e-002
3.627599e+003;3.438267e-002
3.629527e+003;3.365621e-002
3.631456e+003;3.326266e-002
3.633385e+003;3.279209e-002
3.635313e+003;3.220076e-002
3.637241e+003;3.164476e-002
3.639170e+003;3.109086e-002
3.641099e+003;3.075268e-002
3.643027e+003;3.038680e-002
3.644956e+003;3.000883e-002
3.646884e+003;2.963467e-002
3.648813e+003;2.884106e-002
3.650741e+003;2.781184e-002
3.652670e+003;2.724348e-002
3.654598e+003;2.671757e-002
3.656527e+003;2.601324e-002
3.658456e+003;2.559997e-002
3.660384e+003;2.538799e-002
3.662313e+003;2.467676e-002
3.664241e+003;2.435699e-002
3.666170e+003;2.383684e-002
3.668098e+003;2.317354e-002
3.670027e+003;2.278127e-002
3.671955e+003;2.228414e-002
3.673884e+003;2.173048e-002
3.675813e+003;2.128960e-002
3.677741e+003;2.082459e-002
3.679669e+003;2.040564e-002
3.681598e+003;2.006471e-002
3.683527e+003;1.949346e-002
3.685455e+003;1.899339e-002
3.687384e+003;1.846912e-002
3.689312e+003;1.787534e-002
3.691241e+003;1.767351e-002
3.693169e+003;1.748402e-002
3.695098e+003;1.711136e-002
3.697026e+003;1.751138e-002
3.698955e+003;1.803519e-002
3.700884e+003;1.757793e-002
3.702812e+003;1.718409e-002
3.704741e+003;1.715120e-002
3.706669e+003;1.686993e-002
3.708598e+003;1.689015e-002
3.710526e+003;1.707752e-002
3.712455e+003;1.679319e-002
3.714383e+003;1.633802e-002
3.716312e+003;1.599838e-002
3.718240e+003;1.565618e-002
3.720169e+003;1.539317e-002
3.722098e+003;1.505087e-002
3.724026e+003;1.513423e-002
3.725955e+003;1.533509e-002
3.727883e+003;1.501232e-002
3.729812e+003;1.482741e-002
3.731740e+003;1.482604e-002
3.733669e+003;1.454157e-002
3.735597e+003;1.453890e-002
3.737526e+003;1.442756e-002
3.739455e+003;1.431245e-002
3.741383e+003;1.460147e-002
3.743312e+003;1.446086e-002
3.745240e+003;1.410224e-002
3.747169e+003;1.433618e-002
3.749097e+003;1.454438e-002
3.751026e+003;1.459499e-002
3.752954e+003;1.409779e-002
3.754883e+003;1.355536e-002
3.756812e+003;1.349930e-002
3.758740e+003;1.362705e-002
3.760668e+003;1.366924e-002
3.762597e+003;1.383183e-002
3.764526e+003;1.393932e-002
3.766454e+003;1.393521e-002
3.768383e+003;1.391184e-002
3.770311e+003;1.386497e-002
3.772240e+003;1.375846e-002
3.774168e+003;1.352322e-002
3.776097e+003;1.391896e-002
3.778025e+003;1.409916e-002
3.779954e+003;1.326762e-002
3.781883e+003;1.278013e-002
3.783811e+003;1.303763e-002
3.785740e+003;1.328719e-002
3.787668e+003;1.339544e-002
3.789597e+003;1.350815e-002
3.791525e+003;1.376838e-002
3.793454e+003;1.378993e-002
3.795382e+003;1.348245e-002
3.797311e+003;1.362230e-002
3.799240e+003;1.320654e-002
3.801168e+003;1.301295e-002
3.803097e+003;1.305908e-002
3.805025e+003;1.306645e-002
3.806954e+003;1.329375e-002
3.808882e+003;1.300947e-002
3.810811e+003;1.263758e-002
3.812739e+003;1.288244e-002
3.814668e+003;1.305433e-002
3.816596e+003;1.315995e-002
3.818525e+003;1.385522e-002
3.820454e+003;1.368558e-002
3.822382e+003;1.325928e-002
3.824311e+003;1.346416e-002
3.826239e+003;1.373086e-002
3.828168e+003;1.417146e-002
3.830096e+003;1.422634e-002
3.832025e+003;1.382293e-002
3.833953e+003;1.361211e-002
3.835882e+003;1.330048e-002
3.837811e+003;1.339780e-002
3.839739e+003;1.360312e-002
3.841667e+003;1.380693e-002
3.843596e+003;1.400782e-002
3.845525e+003;1.388714e-002
3.847453e+003;1.417978e-002
3.849382e+003;1.458317e-002
3.851310e+003;1.474843e-002
3.853239e+003;1.461195e-002
3.855167e+003;1.449491e-002
3.857096e+003;1.445493e-002
3.859024e+003;1.422380e-002
3.860953e+003;1.450464e-002
3.862882e+003;1.493518e-002
3.864810e+003;1.477561e-002
3.866739e+003;1.493762e-002
3.868667e+003;1.493395e-002
3.870596e+003;1.428855e-002
3.872524e+003;1.436940e-002
3.874453e+003;1.483592e-002
3.876381e+003;1.484051e-002
3.878310e+003;1.495717e-002
3.880239e+003;1.508696e-002
3.882167e+003;1.546139e-002
3.884096e+003;1.538177e-002
3.886024e+003;1.546915e-002
3.887953e+003;1.602358e-002
3.889881e+003;1.606717e-002
3.891810e+003;1.565398e-002
3.893738e+003;1.542424e-002
3.895667e+003;1.559889e-002
3.897595e+003;1.553165e-002
3.899524e+003;1.548316e-002
3.901453e+003;1.581446e-002
3.903381e+003;1.643433e-002
3.905310e+003;1.651786e-002
3.907238e+003;1.645759e-002
3.909167e+003;1.645701e-002
3.911095e+003;1.652859e-002
3.913024e+003;1.676980e-002
3.914952e+003;1.650299e-002
3.916881e+003;1.646619e-002
3.918810e+003;1.669632e-002
3.920738e+003;1.696236e-002
3.922667e+003;1.687471e-002
3.924595e+003;1.663699e-002
3.926524e+003;1.666870e-002
3.928452e+003;1.683190e-002
3.930381e+003;1.679973e-002
3.932309e+003;1.699378e-002
3.934238e+003;1.750037e-002
3.936167e+003;1.786830e-002
3.938095e+003;1.789105e-002
3.940023e+003;1.802563e-002
3.941952e+003;1.847800e-002
3.943881e+003;1.851710e-002
3.945809e+003;1.820543e-002
3.947738e+003;1.845211e-002
3.949666e+003;1.874413e-002
3.951595e+003;1.854878e-002
3.953523e+003;1.831764e-002
3.955452e+003;1.812179e-002
3.957380e+003;1.834871e-002
3.959309e+003;1.851195e-002
3.961238e+003;1.859927e-002
3.963166e+003;1.877247e-002
3.965095e+003;1.920373e-002
3.967023e+003;1.920560e-002
3.968952e+003;1.906485e-002
3.970880e+003;1.943229e-002
3.972809e+003;1.895861e-002
3.974737e+003;1.806186e-002
3.976666e+003;1.852689e-002
3.978594e+003;1.910314e-002
3.980523e+003;1.928762e-002
3.982452e+003;1.893919e-002
3.984380e+003;1.856839e-002
3.986309e+003;1.879862e-002
3.988237e+003;1.913343e-002
3.990166e+003;1.936456e-002
3.992094e+003;1.951671e-002
3.994023e+003;1.962184e-002
3.995951e+003;1.937478e-002
3.997880e+003;1.956114e-002
3.999809e+003;1.967675e-002
4.001737e+003;0.000000e+000
