3.992094e+002;0.000000e+000
4.011380e+002;0.000000e+000
4.030665e+002;0.000000e+000
4.049951e+002;0.000000e+000
4.069236e+002;0.000000e+000
4.088522e+002;0.000000e+000
4.107807e+002;0.000000e+000
4.127093e+002;0.000000e+000
4.146378e+002;0.000000e+000
4.165664e+002;0.000000e+000
4.184949e+002;0.000000e+000
4.204235e+002;0.000000e+000
4.223520e+002;0.000000e+000
4.242806e+002;0.000000e+000
4.262091e+002;0.000000e+000
4.281377e+002;0.000000e+000
4.300662e+002;0.000000e+000
4.319948e+002;0.000000e+000
4.339233e+002;0.000000e+000
4.358519e+002;0.000000e+000
4.377804e+002;0.000000e+000
4.397090e+002;0.000000e+000
4.416375e+002;0.000000e+000
4.435660e+002;0.000000e+000
4.454946e+002;0.000000e+000
4.474232e+002;0.000000e+000
4.493517e+002;0.000000e+000
4.512802e+002;0.000000e+000
4.532088e+002;0.000000e+000
4.551373e+002;0.000000e+000
4.570659e+002;0.000000e+000
4.589944e+002;0.000000e+000
4.609230e+002;0.000000e+000
4.628515e+002;0.000000e+000
4.647801e+002;0.000000e+000
4.667086e+002;0.000000e+000
4.686372e+002;0.000000e+000
4.705657e+002;0.000000e+000
4.724943e+002;0.000000e+000
4.744228e+002;0.000000e+000
4.763513e+002;0.000000e+000
4.782799e+002;0.000000e+000
4.802085e+002;0.000000e+000
4.821370e+002;0.000000e+000
4.840656e+002;0.000000e+000
4.859941e+002;0.000000e+000
4.879226e+002;0.000000e+000
4.898512e+002;0.000000e+000
4.917798e+002;0.000000e+000
4.937083e+002;0.000000e+000
4.956368e+002;0.000000e+000
4.975654e+002;0.000000e+000
4.994939e+002;0.000000e+000
5.014225e+002;0.000000e+000
5.033510e+002;0.000000e+000
5.052796e+002;0.000000e+000
5.072081e+002;0.000000e+000
5.091367e+002;0.000000e+000
5.110652e+002;0.000000e+000
5.129938e+002;0.000000e+000
5.149223e+002;0.000000e+000
5.168509e+002;0.000000e+000
5.187794e+002;0.000000e+000
5.207079e+002;0.000000e+000
5.226365e+002;0.000000e+000
5.245651e+002;0.000000e+000
5.264936e+002;0.000000e+000
5.284222e+002;0.000000e+000
5.303507e+002;0.000000e+000
5.322792e+002;0.000000e+000
5.342078e+002;0.000000e+000
5.361364e+002;0.000000e+000
5.380649e+002;0.000000e+000
5.399935e+002;0.000000e+000
5.419220e+002;0.000000e+000
5.438505e+002;0.000000e+000
5.457791e+002;0.000000e+000
5.477076e+002;0.000000e+000
5.496362e+002;0.000000e+000
5.515648e+002;0.000000e+000
5.534933e+002;0.000000e+000
5.554218e+002;0.000000e+000
5.573504e+002;0.000000e+000
5.592789e+002;0.000000e+000
5.612075e+002;0.000000e+000
5.631360e+002;0.000000e+000
5.650646e+002;0.000000e+000
5.669931e+002;0.000000e+000
5.689217e+002;0.000000e+000
5.708502e+002;0.000000e+000
5.727787e+002;0.000000e+000
5.747073e+002;0.000000e+000
5.766359e+002;0.000000e+000
5.785644e+002;0.000000e+000
5.804930e+002;0.000000e+000
5.824215e+002;0.000000e+000
5.843500e+002;0.000000e+000
5.862786e+002;0.000000e+000
5.882072e+002;0.000000e+000
5.901357e+002;0.000000e+000
5.920643e+002;0.000000e+000
5.939928e+002;0.000000e+000
5.959213e+002;0.000000e+000
5.978499e+002;0.000000e+000
5.997784e+002;1.363256e-001
6.017070e+002;1.300931e-001
6.036355e+002;1.228596e-001
6.055641e+002;1.332681e-001
6.074926e+002;1.400259e-001
6.094211e+002;1.359251e-001
6.113497e+002;1.281373e-001
6.132783e+002;1.230720e-001
6.152068e+002;1.233002e-001
6.171354e+002;1.233237e-001
6.190639e+002;1.249514e-001
6.209924e+002;1.264785e-001
6.229210e+002;1.242762e-001
6.248495e+002;1.196580e-001
6.267781e+002;1.219932e-001
6.287067e+002;1.220643e-001
6.306352e+002;1.171047e-001
6.325637e+002;1.136795e-001
6.344923e+002;1.133460e-001
6.364208e+002;1.144418e-001
6.383494e+002;1.127805e-001
6.402780e+002;1.188396e-001
6.422065e+002;1.210778e-001
6.441350e+002;1.190394e-001
6.460636e+002;1.170998e-001
6.479921e+002;1.110307e-001
6.499207e+002;1.070719e-001
6.518492e+002;1.126171e-001
6.537778e+002;1.192051e-001
6.557063e+002;1.199655e-001
6.576349e+002;1.187208e-001
6.595634e+002;1.191043e-001
6.614919e+002;1.200773e-001
6.634205e+002;1.212430e-001
6.653491e+002;1.231256e-001
6.672776e+002;1.239914e-001
6.692062e+002;1.213945e-001
6.711347e+002;1.191350e-001
6.730632e+002;1.166661e-001
6.749918e+002;1.111219e-001
6.769203e+002;1.063176e-001
6.788489e+002;1.021306e-001
6.807775e+002;9.759207e-002
6.827060e+002;9.443295e-002
6.846345e+002;9.289137e-002
6.865631e+002;9.221881e-002
6.884916e+002;9.205905e-002
6.904202e+002;9.295690e-002
6.923488e+002;9.307829e-002
6.942773e+002;9.235933e-002
6.962058e+002;9.222221e-002
6.981344e+002;9.175484e-002
7.000629e+002;9.040335e-002
7.019915e+002;8.940856e-002
7.039200e+002;8.992590e-002
7.058486e+002;9.039531e-002
7.077771e+002;9.003168e-002
7.097057e+002;8.909924e-002
7.116342e+002;8.871321e-002
7.135627e+002;8.858837e-002
7.154913e+002;8.865001e-002
7.174199e+002;8.853316e-002
7.193484e+002;8.746782e-002
7.212770e+002;8.572902e-002
7.232055e+002;8.540449e-002
7.251340e+002;8.501047e-002
7.270626e+002;8.375575e-002
7.289911e+002;8.367455e-002
7.309197e+002;8.406470e-002
7.328483e+002;8.409642e-002
7.347768e+002;8.368219e-002
7.367053e+002;8.284298e-002
7.386339e+002;8.228593e-002
7.405624e+002;8.204885e-002
7.424910e+002;8.235410e-002
7.444196e+002;8.149994e-002
7.463481e+002;8.117124e-002
7.482766e+002;8.059300e-002
7.502052e+002;7.914302e-002
7.521337e+002;7.870024e-002
7.540623e+002;7.839202e-002
7.559908e+002;7.765705e-002
7.579194e+002;7.632378e-002
7.598479e+002;7.460738e-002
7.617765e+002;7.450946e-002
7.637050e+002;7.560109e-002
7.656335e+002;7.561155e-002
7.675621e+002;7.440087e-002
7.694907e+002;7.253734e-002
7.714192e+002;7.239562e-002
7.733478e+002;7.353233e-002
7.752763e+002;7.355533e-002
7.772048e+002;7.268272e-002
7.791334e+002;7.184282e-002
7.810620e+002;7.102268e-002
7.829905e+002;7.050180e-002
7.849191e+002;7.080676e-002
7.868476e+002;7.134636e-002
7.887761e+002;7.142049e-002
7.907047e+002;7.158995e-002
7.926332e+002;7.105496e-002
7.945618e+002;7.012726e-002
7.964903e+002;6.962055e-002
7.984189e+002;6.903033e-002
8.003474e+002;6.900819e-002
8.022759e+002;6.942891e-002
8.042045e+002;6.909858e-002
8.061331e+002;6.864883e-002
8.080616e+002;6.887864e-002
8.099902e+002;6.902473e-002
8.119187e+002;6.920224e-002
8.138472e+002;6.899758e-002
8.157758e+002;6.875657e-002
8.177043e+002;6.848098e-002
8.196329e+002;6.881578e-002
8.215615e+002;6.875949e-002
8.234900e+002;6.790838e-002
8.254185e+002;6.743518e-002
8.273471e+002;6.740867e-002
8.292756e+002;6.736413e-002
8.312042e+002;6.738390e-002
8.331328e+002;6.750956e-002
8.350613e+002;6.763185e-002
8.369898e+002;6.739941e-002
8.389184e+002;6.710248e-002
8.408469e+002;6.722184e-002
8.427755e+002;6.758659e-002
8.447040e+002;6.766883e-002
8.466326e+002;6.749500e-002
8.485611e+002;6.694729e-002
8.504897e+002;6.622142e-002
8.524182e+002;6.553230e-002
8.543467e+002;6.556270e-002
8.562753e+002;6.577391e-002
8.582039e+002;6.540181e-002
8.601324e+002;6.484764e-002
8.620610e+002;6.502006e-002
8.639895e+002;6.572607e-002
8.659180e+002;6.593910e-002
8.678466e+002;6.586251e-002
8.697751e+002;6.643882e-002
8.717037e+002;6.724036e-002
8.736323e+002;6.876981e-002
8.755608e+002;7.080726e-002
8.774893e+002;7.227112e-002
8.794179e+002;7.336839e-002
8.813464e+002;7.555405e-002
8.832750e+002;7.867541e-002
8.852036e+002;8.138464e-002
8.871321e+002;8.363466e-002
8.890606e+002;8.589160e-002
8.909892e+002;8.794885e-002
8.929177e+002;8.929411e-002
8.948463e+002;8.956560e-002
8.967748e+002;8.909538e-002
8.987034e+002;8.787181e-002
9.006319e+002;8.677100e-002
9.025605e+002;8.554056e-002
9.044890e+002;8.342036e-002
9.064175e+002;8.165771e-002
9.083461e+002;8.022182e-002
9.102747e+002;7.863586e-002
9.122032e+002;7.799488e-002
9.141318e+002;7.718106e-002
9.160603e+002;7.617339e-002
9.179888e+002;7.579961e-002
9.199174e+002;7.588673e-002
9.218459e+002;7.596120e-002
9.237745e+002;7.668954e-002
9.257031e+002;7.786544e-002
9.276316e+002;7.891650e-002
9.295601e+002;7.973354e-002
9.314887e+002;7.990449e-002
9.334172e+002;8.019289e-002
9.353458e+002;8.173153e-002
9.372744e+002;8.276186e-002
9.392029e+002;8.318558e-002
9.411314e+002;8.431363e-002
9.430600e+002;8.560564e-002
9.449885e+002;8.632610e-002
9.469171e+002;8.771190e-002
9.488456e+002;8.961223e-002
9.507742e+002;9.162123e-002
9.527027e+002;9.350225e-002
9.546313e+002;9.506922e-002
9.565598e+002;9.736763e-002
9.584883e+002;9.975463e-002
9.604169e+002;1.018679e-001
9.623455e+002;1.039063e-001
9.642740e+002;1.059763e-001
9.662026e+002;1.082812e-001
9.681311e+002;1.104089e-001
9.700596e+002;1.126817e-001
9.719882e+002;1.152775e-001
9.739167e+002;1.184270e-001
9.758453e+002;1.222209e-001
9.777739e+002;1.263342e-001
9.797024e+002;1.309784e-001
9.816309e+002;1.358303e-001
9.835595e+002;1.408633e-001
9.854880e+002;1.465614e-001
9.874166e+002;1.521228e-001
9.893452e+002;1.569561e-001
9.912737e+002;1.614375e-001
9.932022e+002;1.652812e-001
9.951307e+002;1.684726e-001
9.970593e+002;1.708625e-001
9.989879e+002;1.729550e-001
1.000916e+003;1.747112e-001
1.002845e+003;1.754605e-001
1.004773e+003;1.767124e-001
1.006702e+003;1.793505e-001
1.008631e+003;1.821191e-001
1.010559e+003;1.853104e-001
1.012488e+003;1.886158e-001
1.014416e+003;1.909307e-001
1.016345e+003;1.922471e-001
1.018273e+003;1.931744e-001
1.020202e+003;1.935128e-001
1.022130e+003;1.934995e-001
1.024059e+003;1.939650e-001
1.025988e+003;1.937889e-001
1.027916e+003;1.918924e-001
1.029845e+003;1.901590e-001
1.031773e+003;1.888052e-001
1.033702e+003;1.871065e-001
1.035630e+003;1.857593e-001
1.037559e+003;1.847227e-001
1.039487e+003;1.832062e-001
1.041416e+003;1.813916e-001
1.043344e+003;1.797936e-001
1.045273e+003;1.780869e-001
1.047202e+003;1.763951e-001
1.049130e+003;1.749647e-001
1.051059e+003;1.738818e-001
1.052987e+003;1.722185e-001
1.054916e+003;1.702519e-001
1.056844e+003;1.686999e-001
1.058773e+003;1.665734e-001
1.060701e+003;1.638638e-001
1.062630e+003;1.613239e-001
1.064558e+003;1.587256e-001
1.066487e+003;1.559147e-001
1.068416e+003;1.537964e-001
1.070344e+003;1.522674e-001
1.072273e+003;1.506225e-001
1.074201e+003;1.491519e-001
1.076130e+003;1.481277e-001
1.078058e+003;1.467004e-001
1.079987e+003;1.453594e-001
1.081915e+003;1.444549e-001
1.083844e+003;1.430524e-001
1.085773e+003;1.406470e-001
1.087701e+003;1.382859e-001
1.089630e+003;1.358730e-001
1.091558e+003;1.334845e-001
1.093487e+003;1.311698e-001
1.095415e+003;1.288840e-001
1.097344e+003;1.265967e-001
1.099272e+003;1.245405e-001
1.101201e+003;1.223190e-001
1.103129e+003;1.199934e-001
1.105058e+003;1.179954e-001
1.106987e+003;1.168174e-001
1.108915e+003;1.158869e-001
1.110844e+003;1.150411e-001
1.112772e+003;1.141891e-001
1.114701e+003;1.136430e-001
1.116629e+003;1.124534e-001
1.118558e+003;1.107848e-001
1.120486e+003;1.095931e-001
1.122415e+003;1.089042e-001
1.124344e+003;1.077254e-001
1.126272e+003;1.062631e-001
1.128201e+003;1.047507e-001
1.130129e+003;1.035626e-001
1.132058e+003;1.021342e-001
1.133986e+003;9.996221e-002
1.135915e+003;9.738724e-002
1.137843e+003;9.524928e-002
1.139772e+003;9.331120e-002
1.141700e+003;9.114993e-002
1.143629e+003;8.935198e-002
1.145557e+003;8.894774e-002
1.147486e+003;8.905869e-002
1.149415e+003;8.857602e-002
1.151343e+003;8.864213e-002
1.153272e+003;8.925337e-002
1.155200e+003;8.975541e-002
1.157129e+003;9.017072e-002
1.159057e+003;8.999442e-002
1.160986e+003;8.893749e-002
1.162914e+003;8.735488e-002
1.164843e+003;8.522072e-002
1.166771e+003;8.280348e-002
1.168700e+003;8.041302e-002
1.170629e+003;7.821842e-002
1.172557e+003;7.653207e-002
1.174486e+003;7.530760e-002
1.176414e+003;7.350545e-002
1.178343e+003;7.180681e-002
1.180271e+003;7.101531e-002
1.182200e+003;7.087240e-002
1.184128e+003;7.108188e-002
1.186057e+003;7.136050e-002
1.187986e+003;7.172570e-002
1.189914e+003;7.276659e-002
1.191843e+003;7.406131e-002
1.193771e+003;7.486571e-002
1.195700e+003;7.545438e-002
1.197628e+003;7.595169e-002
1.199557e+003;7.584384e-002
1.201485e+003;7.550658e-002
1.203414e+003;7.480202e-002
1.205343e+003;7.372975e-002
1.207271e+003;7.300062e-002
1.209200e+003;7.259174e-002
1.211128e+003;7.264723e-002
1.213057e+003;7.323071e-002
1.214985e+003;7.378963e-002
1.216914e+003;7.391736e-002
1.218842e+003;7.453480e-002
1.220771e+003;7.584807e-002
1.222699e+003;7.673058e-002
1.224628e+003;7.719464e-002
1.226557e+003;7.761026e-002
1.228485e+003;7.825945e-002
1.230414e+003;7.803655e-002
1.232342e+003;7.745297e-002
1.234271e+003;7.737817e-002
1.236199e+003;7.719262e-002
1.238128e+003;7.679155e-002
1.240056e+003;7.666025e-002
1.241985e+003;7.661974e-002
1.243913e+003;7.604539e-002
1.245842e+003;7.550146e-002
1.247771e+003;7.548308e-002
1.249699e+003;7.564447e-002
1.251628e+003;7.563820e-002
1.253556e+003;7.622745e-002
1.255485e+003;7.708810e-002
1.257413e+003;7.768281e-002
1.259342e+003;7.836829e-002
1.261270e+003;7.849792e-002
1.263199e+003;7.768463e-002
1.265127e+003;7.693852e-002
1.267056e+003;7.606718e-002
1.268985e+003;7.520409e-002
1.270913e+003;7.482017e-002
1.272842e+003;7.451882e-002
1.274770e+003;7.452260e-002
1.276699e+003;7.511010e-002
1.278627e+003;7.550390e-002
1.280556e+003;7.553647e-002
1.282484e+003;7.551856e-002
1.284413e+003;7.550619e-002
1.286342e+003;7.582454e-002
1.288270e+003;7.621291e-002
1.290199e+003;7.664831e-002
1.292127e+003;7.746327e-002
1.294056e+003;7.778893e-002
1.295984e+003;7.767849e-002
1.297913e+003;7.791059e-002
1.299841e+003;7.805575e-002
1.301770e+003;7.801225e-002
1.303698e+003;7.800479e-002
1.305627e+003;7.832158e-002
1.307556e+003;7.880764e-002
1.309484e+003;7.938720e-002
1.311413e+003;7.963530e-002
1.313341e+003;7.942118e-002
1.315270e+003;7.919980e-002
1.317198e+003;7.876506e-002
1.319127e+003;7.789572e-002
1.321055e+003;7.690739e-002
1.322984e+003;7.596388e-002
1.324912e+003;7.509131e-002
1.326841e+003;7.468478e-002
1.328770e+003;7.484796e-002
1.330698e+003;7.509071e-002
1.332627e+003;7.520984e-002
1.334555e+003;7.527848e-002
1.336484e+003;7.551115e-002
1.338412e+003;7.563493e-002
1.340341e+003;7.531884e-002
1.342269e+003;7.502998e-002
1.344198e+003;7.488134e-002
1.346126e+003;7.440633e-002
1.348055e+003;7.380235e-002
1.349984e+003;7.334457e-002
1.351912e+003;7.320027e-002
1.353841e+003;7.341778e-002
1.355769e+003;7.362414e-002
1.357698e+003;7.380691e-002
1.359626e+003;7.409255e-002
1.361555e+003;7.410304e-002
1.363483e+003;7.403094e-002
1.365412e+003;7.412568e-002
1.367341e+003;7.389913e-002
1.369269e+003;7.361759e-002
1.371198e+003;7.349198e-002
1.373126e+003;7.317329e-002
1.375055e+003;7.219751e-002
1.376983e+003;7.098936e-002
1.378912e+003;7.013278e-002
1.380840e+003;6.916571e-002
1.382769e+003;6.789002e-002
1.384698e+003;6.715983e-002
1.386626e+003;6.681174e-002
1.388555e+003;6.653436e-002
1.390483e+003;6.631999e-002
1.392412e+003;6.620032e-002
1.394340e+003;6.607661e-002
1.396269e+003;6.622887e-002
1.398197e+003;6.642447e-002
1.400126e+003;6.664915e-002
1.402054e+003;6.691744e-002
1.403983e+003;6.702232e-002
1.405911e+003;6.748433e-002
1.407840e+003;6.784078e-002
1.409769e+003;6.810477e-002
1.411697e+003;6.880622e-002
1.413626e+003;6.897098e-002
1.415554e+003;6.845573e-002
1.417483e+003;6.792028e-002
1.419411e+003;6.770798e-002
1.421340e+003;6.776506e-002
1.423268e+003;6.745785e-002
1.425197e+003;6.732087e-002
1.427125e+003;6.727661e-002
1.429054e+003;6.691922e-002
1.430983e+003;6.647559e-002
1.432911e+003;6.606635e-002
1.434840e+003;6.516687e-002
1.436768e+003;6.404548e-002
1.438697e+003;6.414805e-002
1.440625e+003;6.405715e-002
1.442554e+003;6.343007e-002
1.444482e+003;6.303664e-002
1.446411e+003;6.228665e-002
1.448340e+003;6.140045e-002
1.450268e+003;6.089230e-002
1.452197e+003;6.044042e-002
1.454125e+003;5.969466e-002
1.456054e+003;5.808454e-002
1.457982e+003;5.771783e-002
1.459911e+003;5.837135e-002
1.461839e+003;5.807878e-002
1.463768e+003;5.713347e-002
1.465697e+003;5.664237e-002
1.467625e+003;5.660968e-002
1.469554e+003;5.604904e-002
1.471482e+003;5.502831e-002
1.473411e+003;5.460988e-002
1.475339e+003;5.460582e-002
1.477268e+003;5.442017e-002
1.479196e+003;5.459560e-002
1.481125e+003;5.452775e-002
1.483053e+003;5.441371e-002
1.484982e+003;5.418205e-002
1.486911e+003;5.374988e-002
1.488839e+003;5.353832e-002
1.490768e+003;5.368598e-002
1.492696e+003;5.396112e-002
1.494625e+003;5.373578e-002
1.496553e+003;5.313865e-002
1.498482e+003;5.280962e-002
1.500410e+003;5.244876e-002
1.502339e+003;5.152065e-002
1.504267e+003;4.924249e-002
1.506196e+003;4.694243e-002
1.508125e+003;4.684019e-002
1.510053e+003;4.710227e-002
1.511982e+003;4.652091e-002
1.513910e+003;4.592787e-002
1.515839e+003;4.512215e-002
1.517767e+003;4.446058e-002
1.519696e+003;4.363900e-002
1.521624e+003;4.317114e-002
1.523553e+003;4.378600e-002
1.525481e+003;4.398043e-002
1.527410e+003;4.405681e-002
1.529339e+003;4.446208e-002
1.531267e+003;4.429103e-002
1.533196e+003;4.390722e-002
1.535124e+003;4.460317e-002
1.537053e+003;4.447750e-002
1.538981e+003;4.326887e-002
1.540910e+003;4.358803e-002
1.542838e+003;4.465196e-002
1.544767e+003;4.525344e-002
1.546695e+003;4.579876e-002
1.548624e+003;4.601830e-002
1.550553e+003;4.640073e-002
1.552481e+003;4.687126e-002
1.554410e+003;4.685820e-002
1.556338e+003;4.637673e-002
1.558267e+003;4.541355e-002
1.560195e+003;4.638477e-002
1.562124e+003;4.839030e-002
1.564052e+003;4.916136e-002
1.565981e+003;4.953603e-002
1.567910e+003;4.983765e-002
1.569838e+003;4.998574e-002
1.571767e+003;5.040238e-002
1.573695e+003;5.051674e-002
1.575624e+003;5.039654e-002
1.577552e+003;5.113550e-002
1.579481e+003;5.226744e-002
1.581409e+003;5.317745e-002
1.583338e+003;5.399925e-002
1.585266e+003;5.418348e-002
1.587195e+003;5.460973e-002
1.589124e+003;5.543420e-002
1.591052e+003;5.610009e-002
1.592981e+003;5.657937e-002
1.594909e+003;5.691709e-002
1.596838e+003;5.725643e-002
1.598766e+003;5.727246e-002
1.600695e+003;5.700371e-002
1.602623e+003;5.680846e-002
1.604552e+003;5.696631e-002
1.606480e+003;5.724282e-002
1.608409e+003;5.752363e-002
1.610338e+003;5.791289e-002
1.612266e+003;5.812060e-002
1.614195e+003;5.768174e-002
1.616123e+003;5.706688e-002
1.618052e+003;5.745188e-002
1.619980e+003;5.787268e-002
1.621909e+003;5.744813e-002
1.623837e+003;5.729173e-002
1.625766e+003;5.767110e-002
1.627694e+003;5.761366e-002
1.629623e+003;5.763621e-002
1.631552e+003;5.790849e-002
1.633480e+003;5.732512e-002
1.635409e+003;5.659480e-002
1.637337e+003;5.721345e-002
1.639266e+003;5.761143e-002
1.641194e+003;5.736868e-002
1.643123e+003;5.683595e-002
1.645051e+003;5.547218e-002
1.646980e+003;5.450010e-002
1.648909e+003;5.424530e-002
1.650837e+003;5.270273e-002
1.652766e+003;5.054336e-002
1.654694e+003;5.110192e-002
1.656623e+003;5.191292e-002
1.658551e+003;5.135399e-002
1.660480e+003;5.055925e-002
1.662408e+003;4.969731e-002
1.664337e+003;4.910998e-002
1.666266e+003;4.851225e-002
1.668194e+003;4.749475e-002
1.670123e+003;4.642208e-002
1.672051e+003;4.575270e-002
1.673980e+003;4.487217e-002
1.675908e+003;4.397761e-002
1.677837e+003;4.373774e-002
1.679765e+003;4.281732e-002
1.681694e+003;4.115520e-002
1.683622e+003;3.906311e-002
1.685551e+003;3.839828e-002
1.687479e+003;3.879435e-002
1.689408e+003;3.850200e-002
1.691337e+003;3.771043e-002
1.693265e+003;3.650933e-002
1.695194e+003;3.482255e-002
1.697122e+003;3.411679e-002
1.699051e+003;3.328999e-002
1.700979e+003;3.288021e-002
1.702908e+003;3.343185e-002
1.704836e+003;3.319491e-002
1.706765e+003;3.293587e-002
1.708693e+003;3.259875e-002
1.710622e+003;3.209193e-002
1.712551e+003;3.141260e-002
1.714479e+003;3.085455e-002
1.716408e+003;3.016508e-002
1.718336e+003;3.011000e-002
1.720265e+003;3.068668e-002
1.722193e+003;3.063292e-002
1.724122e+003;3.028472e-002
1.726050e+003;3.010790e-002
1.727979e+003;2.977361e-002
1.729908e+003;2.920944e-002
1.731836e+003;2.794681e-002
1.733765e+003;2.668273e-002
1.735693e+003;2.689446e-002
1.737622e+003;2.693373e-002
1.739550e+003;2.615546e-002
1.741479e+003;2.572282e-002
1.743407e+003;2.567624e-002
1.745336e+003;2.549855e-002
1.747265e+003;2.505790e-002
1.749193e+003;2.466813e-002
1.751122e+003;2.429633e-002
1.753050e+003;2.469314e-002
1.754979e+003;2.490397e-002
1.756907e+003;2.487317e-002
1.758836e+003;2.524026e-002
1.760764e+003;2.522316e-002
1.762693e+003;2.503260e-002
1.764621e+003;2.508462e-002
1.766550e+003;2.476417e-002
1.768479e+003;2.445573e-002
1.770407e+003;2.403501e-002
1.772336e+003;2.354571e-002
1.774264e+003;2.399894e-002
1.776193e+003;2.450235e-002
1.778121e+003;2.445632e-002
1.780050e+003;2.424917e-002
1.781978e+003;2.402177e-002
1.783907e+003;2.383607e-002
1.785835e+003;2.379512e-002
1.787764e+003;2.373598e-002
1.789693e+003;2.348929e-002
1.791621e+003;2.330508e-002
1.793550e+003;2.348223e-002
1.795478e+003;2.355823e-002
1.797407e+003;2.341428e-002
1.799335e+003;2.317078e-002
1.801264e+003;2.278176e-002
1.803192e+003;2.296522e-002
1.805121e+003;2.306944e-002
1.807049e+003;2.281022e-002
1.808978e+003;2.291335e-002
1.810907e+003;2.310798e-002
1.812835e+003;2.317879e-002
1.814764e+003;2.298737e-002
1.816692e+003;2.266287e-002
1.818621e+003;2.256493e-002
1.820549e+003;2.240152e-002
1.822478e+003;2.203720e-002
1.824406e+003;2.173118e-002
1.826335e+003;2.182660e-002
1.828264e+003;2.186238e-002
1.830192e+003;2.173658e-002
1.832121e+003;2.189967e-002
1.834049e+003;2.211473e-002
1.835978e+003;2.178392e-002
1.837906e+003;2.118344e-002
1.839835e+003;2.091241e-002
1.841763e+003;2.096912e-002
1.843692e+003;2.072974e-002
1.845620e+003;2.070780e-002
1.847549e+003;2.087951e-002
1.849478e+003;2.086227e-002
1.851406e+003;2.079932e-002
1.853335e+003;2.055836e-002
1.855263e+003;2.037362e-002
1.857192e+003;2.030726e-002
1.859120e+003;2.040189e-002
1.861049e+003;2.059873e-002
1.862977e+003;2.063449e-002
1.864906e+003;2.041283e-002
1.866834e+003;2.024786e-002
1.868763e+003;2.011850e-002
1.870692e+003;2.023214e-002
1.872620e+003;2.040852e-002
1.874549e+003;2.020572e-002
1.876477e+003;2.014914e-002
1.878406e+003;2.032750e-002
1.880334e+003;2.026609e-002
1.882263e+003;2.005981e-002
1.884191e+003;1.986127e-002
1.886120e+003;1.974606e-002
1.888048e+003;1.975033e-002
1.889977e+003;1.974620e-002
1.891906e+003;1.981143e-002
1.893834e+003;1.966070e-002
1.895763e+003;1.986397e-002
1.897691e+003;2.023668e-002
1.899620e+003;2.029386e-002
1.901548e+003;2.040123e-002
1.903477e+003;2.029483e-002
1.905405e+003;2.005436e-002
1.907334e+003;2.004954e-002
1.909262e+003;2.009216e-002
1.911191e+003;2.013155e-002
1.913120e+003;2.017677e-002
1.915048e+003;2.041835e-002
1.916977e+003;2.040591e-002
1.918905e+003;2.045506e-002
1.920834e+003;2.053679e-002
1.922762e+003;2.030223e-002
1.924691e+003;2.041019e-002
1.926619e+003;2.048038e-002
1.928548e+003;2.050705e-002
1.930477e+003;2.048510e-002
1.932405e+003;2.055895e-002
1.934334e+003;2.076115e-002
1.936262e+003;2.065036e-002
1.938191e+003;2.075615e-002
1.940119e+003;2.075803e-002
1.942048e+003;2.040379e-002
1.943976e+003;2.034764e-002
1.945905e+003;2.077186e-002
1.947833e+003;2.125247e-002
1.949762e+003;2.124983e-002
1.951691e+003;2.093090e-002
1.953619e+003;2.091300e-002
1.955548e+003;2.115637e-002
1.957476e+003;2.123556e-002
1.959405e+003;2.129092e-002
1.961333e+003;2.125240e-002
1.963262e+003;2.116890e-002
1.965190e+003;2.115672e-002
1.967119e+003;2.124175e-002
1.969047e+003;2.153914e-002
1.970976e+003;2.186674e-002
1.972905e+003;2.169415e-002
1.974833e+003;2.131532e-002
1.976762e+003;2.122843e-002
1.978690e+003;2.127345e-002
1.980619e+003;2.139533e-002
1.982547e+003;2.164278e-002
1.984476e+003;2.168370e-002
1.986404e+003;2.166228e-002
1.988333e+003;2.176061e-002
1.990261e+003;2.174410e-002
1.992190e+003;2.184259e-002
1.994119e+003;2.214939e-002
1.996047e+003;2.205184e-002
1.997976e+003;2.195842e-002
1.999904e+003;2.210818e-002
2.001833e+003;2.227939e-002
2.003761e+003;2.223196e-002
2.005690e+003;2.213725e-002
2.007618e+003;2.214545e-002
2.009547e+003;2.220061e-002
2.011476e+003;2.232847e-002
2.013404e+003;2.243160e-002
2.015333e+003;2.231895e-002
2.017261e+003;2.234357e-002
2.019190e+003;2.257722e-002
2.021118e+003;2.265226e-002
2.023047e+003;2.271130e-002
2.024975e+003;2.272579e-002
2.026904e+003;2.259254e-002
2.028833e+003;2.267701e-002
2.030761e+003;2.290958e-002
2.032690e+003;2.298195e-002
2.034618e+003;2.300148e-002
2.036547e+003;2.299956e-002
2.038475e+003;2.314496e-002
2.040404e+003;2.338302e-002
2.042332e+003;2.330291e-002
2.044261e+003;2.318620e-002
2.046189e+003;2.324936e-002
2.048118e+003;2.320479e-002
2.050047e+003;2.309687e-002
2.051975e+003;2.308960e-002
2.053904e+003;2.314992e-002
2.055832e+003;2.310858e-002
2.057761e+003;2.304540e-002
2.059689e+003;2.315499e-002
2.061618e+003;2.319930e-002
2.063546e+003;2.321164e-002
2.065475e+003;2.325705e-002
2.067404e+003;2.317854e-002
2.069332e+003;2.297881e-002
2.071260e+003;2.293654e-002
2.073189e+003;2.313866e-002
2.075118e+003;2.329183e-002
2.077046e+003;2.317208e-002
2.078975e+003;2.293591e-002
2.080903e+003;2.284528e-002
2.082832e+003;2.271123e-002
2.084760e+003;2.242510e-002
2.086689e+003;2.250211e-002
2.088617e+003;2.251995e-002
2.090546e+003;2.261289e-002
2.092475e+003;2.299341e-002
2.094403e+003;2.307423e-002
2.096332e+003;2.273423e-002
2.098260e+003;2.245033e-002
2.100189e+003;2.258388e-002
2.102117e+003;2.266385e-002
2.104046e+003;2.254563e-002
2.105974e+003;2.260256e-002
2.107903e+003;2.280875e-002
2.109832e+003;2.280658e-002
2.111760e+003;2.289438e-002
2.113688e+003;2.300201e-002
2.115617e+003;2.310666e-002
2.117546e+003;2.310078e-002
2.119474e+003;2.302388e-002
2.121403e+003;2.315478e-002
2.123331e+003;2.334854e-002
2.125260e+003;2.312367e-002
2.127188e+003;2.307968e-002
2.129117e+003;2.311997e-002
2.131045e+003;2.302091e-002
2.132974e+003;2.303712e-002
2.134903e+003;2.299506e-002
2.136831e+003;2.294335e-002
2.138760e+003;2.306109e-002
2.140688e+003;2.300257e-002
2.142617e+003;2.289864e-002
2.144545e+003;2.308932e-002
2.146474e+003;2.316253e-002
2.148402e+003;2.289676e-002
2.150331e+003;2.282153e-002
2.152260e+003;2.296823e-002
2.154188e+003;2.281716e-002
2.156117e+003;2.265495e-002
2.158045e+003;2.269995e-002
2.159974e+003;2.258870e-002
2.161902e+003;2.253802e-002
2.163831e+003;2.255272e-002
2.165759e+003;2.271032e-002
2.167688e+003;2.270578e-002
2.169616e+003;2.231134e-002
2.171545e+003;2.229436e-002
2.173474e+003;2.244932e-002
2.175402e+003;2.223165e-002
2.177331e+003;2.191312e-002
2.179259e+003;2.167747e-002
2.181188e+003;2.162498e-002
2.183116e+003;2.188252e-002
2.185045e+003;2.209685e-002
2.186973e+003;2.185600e-002
2.188902e+003;2.149513e-002
2.190831e+003;2.128908e-002
2.192759e+003;2.134793e-002
2.194688e+003;2.134201e-002
2.196616e+003;2.136634e-002
2.198545e+003;2.144636e-002
2.200473e+003;2.140901e-002
2.202402e+003;2.122380e-002
2.204330e+003;2.127603e-002
2.206259e+003;2.146648e-002
2.208188e+003;2.118285e-002
2.210116e+003;2.064432e-002
2.212044e+003;2.063921e-002
2.213973e+003;2.096147e-002
2.215902e+003;2.088998e-002
2.217830e+003;2.089547e-002
2.219759e+003;2.105512e-002
2.221687e+003;2.098567e-002
2.223616e+003;2.082650e-002
2.225544e+003;2.052324e-002
2.227473e+003;2.029098e-002
2.229401e+003;2.025543e-002
2.231330e+003;2.022721e-002
2.233259e+003;2.032483e-002
2.235187e+003;2.033754e-002
2.237116e+003;2.030014e-002
2.239044e+003;2.026157e-002
2.240973e+003;2.002175e-002
2.242901e+003;1.980116e-002
2.244830e+003;1.991989e-002
2.246758e+003;2.001547e-002
2.248687e+003;1.991534e-002
2.250615e+003;2.007539e-002
2.252544e+003;2.006720e-002
2.254473e+003;1.983858e-002
2.256401e+003;1.985215e-002
2.258330e+003;1.969180e-002
2.260258e+003;1.948566e-002
2.262187e+003;1.955785e-002
2.264115e+003;1.945201e-002
2.266044e+003;1.934086e-002
2.267972e+003;1.936161e-002
2.269901e+003;1.952551e-002
2.271830e+003;1.945527e-002
2.273758e+003;1.921166e-002
2.275687e+003;1.906730e-002
2.277615e+003;1.926410e-002
2.279544e+003;1.938143e-002
2.281472e+003;1.909362e-002
2.283401e+003;1.907800e-002
2.285329e+003;1.922558e-002
2.287258e+003;1.902770e-002
2.289187e+003;1.900963e-002
2.291115e+003;1.928346e-002
2.293043e+003;1.927401e-002
2.294972e+003;1.932960e-002
2.296901e+003;1.956312e-002
2.298829e+003;1.935171e-002
2.300758e+003;1.911107e-002
2.302686e+003;1.913084e-002
2.304615e+003;1.917184e-002
2.306543e+003;1.928038e-002
2.308472e+003;1.931869e-002
2.310400e+003;1.917662e-002
2.312329e+003;1.891399e-002
2.314258e+003;1.928703e-002
2.316186e+003;1.952836e-002
2.318115e+003;1.915276e-002
2.320043e+003;1.888973e-002
2.321972e+003;1.882312e-002
2.323900e+003;1.886305e-002
2.325829e+003;1.898200e-002
2.327757e+003;1.901250e-002
2.329686e+003;1.907779e-002
2.331615e+003;1.927698e-002
2.333543e+003;1.926476e-002
2.335472e+003;1.914202e-002
2.337400e+003;1.926438e-002
2.339329e+003;1.947960e-002
2.341257e+003;1.961778e-002
2.343186e+003;1.939415e-002
2.345114e+003;1.946857e-002
2.347043e+003;1.959556e-002
2.348971e+003;1.941348e-002
2.350900e+003;1.925208e-002
2.352829e+003;1.948833e-002
2.354757e+003;1.952836e-002
2.356686e+003;1.926538e-002
2.358614e+003;1.949935e-002
2.360543e+003;1.978341e-002
2.362471e+003;1.961723e-002
2.364400e+003;1.937190e-002
2.366328e+003;1.943274e-002
2.368257e+003;1.968098e-002
2.370186e+003;1.973209e-002
2.372114e+003;1.968372e-002
2.374042e+003;1.979655e-002
2.375971e+003;1.978601e-002
2.377900e+003;1.969315e-002
2.379828e+003;1.979156e-002
2.381757e+003;1.997727e-002
2.383685e+003;2.004840e-002
2.385614e+003;1.999302e-002
2.387542e+003;2.003788e-002
2.389471e+003;2.040744e-002
2.391399e+003;2.065022e-002
2.393328e+003;2.053620e-002
2.395257e+003;2.044783e-002
2.397185e+003;2.055072e-002
2.399114e+003;2.057195e-002
2.401042e+003;2.052338e-002
2.402971e+003;2.055885e-002
2.404899e+003;2.075483e-002
2.406828e+003;2.078215e-002
2.408756e+003;2.076456e-002
2.410685e+003;2.094439e-002
2.412614e+003;2.113609e-002
2.414542e+003;2.134942e-002
2.416471e+003;2.139794e-002
2.418399e+003;2.161126e-002
2.420328e+003;2.162275e-002
2.422256e+003;2.168931e-002
2.424185e+003;2.191239e-002
2.426113e+003;2.193034e-002
2.428042e+003;2.190176e-002
2.429970e+003;2.188629e-002
2.431899e+003;2.215779e-002
2.433828e+003;2.234410e-002
2.435756e+003;2.235191e-002
2.437685e+003;2.243543e-002
2.439613e+003;2.249203e-002
2.441542e+003;2.243662e-002
2.443470e+003;2.236744e-002
2.445399e+003;2.247196e-002
2.447327e+003;2.274705e-002
2.449256e+003;2.275518e-002
2.451185e+003;2.266375e-002
2.453113e+003;2.292407e-002
2.455042e+003;2.321192e-002
2.456970e+003;2.322388e-002
2.458899e+003;2.328246e-002
2.460827e+003;2.340508e-002
2.462756e+003;2.343932e-002
2.464684e+003;2.321720e-002
2.466613e+003;2.300658e-002
2.468542e+003;2.316226e-002
2.470470e+003;2.348751e-002
2.472398e+003;2.371246e-002
2.474327e+003;2.376863e-002
2.476256e+003;2.388617e-002
2.478184e+003;2.411381e-002
2.480113e+003;2.408950e-002
2.482041e+003;2.392510e-002
2.483970e+003;2.423834e-002
2.485898e+003;2.446565e-002
2.487827e+003;2.453008e-002
2.489755e+003;2.454561e-002
2.491684e+003;2.434052e-002
2.493613e+003;2.457170e-002
2.495541e+003;2.489232e-002
2.497470e+003;2.499286e-002
2.499398e+003;2.476266e-002
2.501327e+003;2.464600e-002
2.503255e+003;2.475603e-002
2.505184e+003;2.492755e-002
2.507112e+003;2.493082e-002
2.509041e+003;2.486489e-002
2.510969e+003;2.511730e-002
2.512898e+003;2.516733e-002
2.514827e+003;2.533488e-002
2.516755e+003;2.548197e-002
2.518684e+003;2.526316e-002
2.520612e+003;2.523721e-002
2.522541e+003;2.536519e-002
2.524469e+003;2.530060e-002
2.526398e+003;2.540028e-002
2.528326e+003;2.576793e-002
2.530255e+003;2.595537e-002
2.532184e+003;2.608663e-002
2.534112e+003;2.622187e-002
2.536041e+003;2.581100e-002
2.537969e+003;2.559959e-002
2.539898e+003;2.578027e-002
2.541826e+003;2.611112e-002
2.543755e+003;2.663449e-002
2.545683e+003;2.654780e-002
2.547612e+003;2.582553e-002
2.549541e+003;2.549051e-002
2.551469e+003;2.564451e-002
2.553397e+003;2.589906e-002
2.555326e+003;2.583931e-002
2.557255e+003;2.598080e-002
2.559183e+003;2.618519e-002
2.561112e+003;2.644292e-002
2.563040e+003;2.657443e-002
2.564969e+003;2.653861e-002
2.566897e+003;2.640197e-002
2.568826e+003;2.654523e-002
2.570754e+003;2.658880e-002
2.572683e+003;2.648377e-002
2.574612e+003;2.668368e-002
2.576540e+003;2.677304e-002
2.578469e+003;2.699250e-002
2.580397e+003;2.721677e-002
2.582326e+003;2.729661e-002
2.584254e+003;2.739524e-002
2.586183e+003;2.748870e-002
2.588111e+003;2.741984e-002
2.590040e+003;2.732219e-002
2.591969e+003;2.746293e-002
2.593897e+003;2.764970e-002
2.595826e+003;2.757614e-002
2.597754e+003;2.756644e-002
2.599683e+003;2.790985e-002
2.601611e+003;2.790946e-002
2.603540e+003;2.771573e-002
2.605468e+003;2.758716e-002
2.607397e+003;2.773329e-002
2.609325e+003;2.817309e-002
2.611254e+003;2.849196e-002
2.613183e+003;2.854702e-002
2.615111e+003;2.838626e-002
2.617040e+003;2.816224e-002
2.618968e+003;2.798349e-002
2.620897e+003;2.825420e-002
2.622825e+003;2.870175e-002
2.624754e+003;2.879907e-002
2.626682e+003;2.881978e-002
2.628611e+003;2.889786e-002
2.630540e+003;2.915728e-002
2.632468e+003;2.932949e-002
2.634396e+003;2.954599e-002
2.636325e+003;2.955408e-002
2.638254e+003;2.936412e-002
2.640182e+003;2.949819e-002
2.642111e+003;2.956958e-002
2.644039e+003;2.962087e-002
2.645968e+003;2.992242e-002
2.647896e+003;3.020028e-002
2.649825e+003;3.010059e-002
2.651753e+003;2.992111e-002
2.653682e+003;3.006664e-002
2.655611e+003;3.041825e-002
2.657539e+003;3.050262e-002
2.659468e+003;3.042969e-002
2.661396e+003;3.072281e-002
2.663325e+003;3.093923e-002
2.665253e+003;3.086430e-002
2.667182e+003;3.095834e-002
2.669110e+003;3.123269e-002
2.671039e+003;3.123419e-002
2.672968e+003;3.104890e-002
2.674896e+003;3.119613e-002
2.676825e+003;3.148381e-002
2.678753e+003;3.167167e-002
2.680682e+003;3.192055e-002
2.682610e+003;3.208037e-002
2.684539e+003;3.213442e-002
2.686467e+003;3.234498e-002
2.688396e+003;3.263900e-002
2.690324e+003;3.310193e-002
2.692253e+003;3.315103e-002
2.694182e+003;3.273295e-002
2.696110e+003;3.271355e-002
2.698039e+003;3.282829e-002
2.699967e+003;3.278301e-002
2.701896e+003;3.292210e-002
2.703824e+003;3.296024e-002
2.705753e+003;3.304865e-002
2.707681e+003;3.301630e-002
2.709610e+003;3.315003e-002
2.711539e+003;3.351141e-002
2.713467e+003;3.343926e-002
2.715396e+003;3.330608e-002
2.717324e+003;3.345662e-002
2.719253e+003;3.335982e-002
2.721181e+003;3.347659e-002
2.723110e+003;3.378534e-002
2.725038e+003;3.395406e-002
2.726967e+003;3.421003e-002
2.728896e+003;3.434581e-002
2.730824e+003;3.428213e-002
2.732752e+003;3.396707e-002
2.734681e+003;3.363491e-002
2.736610e+003;3.384792e-002
2.738538e+003;3.442367e-002
2.740467e+003;3.458941e-002
2.742395e+003;3.433365e-002
2.744324e+003;3.419020e-002
2.746252e+003;3.441230e-002
2.748181e+003;3.462633e-002
2.750109e+003;3.477653e-002
2.752038e+003;3.485878e-002
2.753967e+003;3.496962e-002
2.755895e+003;3.490581e-002
2.757824e+003;3.481971e-002
2.759752e+003;3.504530e-002
2.761681e+003;3.530816e-002
2.763609e+003;3.525824e-002
2.765538e+003;3.521710e-002
2.767466e+003;3.547686e-002
2.769395e+003;3.576725e-002
2.771323e+003;3.577017e-002
2.773252e+003;3.598940e-002
2.775181e+003;3.621909e-002
2.777109e+003;3.596939e-002
2.779038e+003;3.597410e-002
2.780966e+003;3.637056e-002
2.782895e+003;3.679901e-002
2.784823e+003;3.698889e-002
2.786752e+003;3.690407e-002
2.788680e+003;3.710743e-002
2.790609e+003;3.766840e-002
2.792538e+003;3.773078e-002
2.794466e+003;3.759780e-002
2.796395e+003;3.783387e-002
2.798323e+003;3.813901e-002
2.800252e+003;3.837986e-002
2.802180e+003;3.861664e-002
2.804109e+003;3.872262e-002
2.806037e+003;3.892059e-002
2.807966e+003;3.886537e-002
2.809895e+003;3.875443e-002
2.811823e+003;3.884873e-002
2.813751e+003;3.960067e-002
2.815680e+003;4.015209e-002
2.817609e+003;4.010183e-002
2.819537e+003;4.041162e-002
2.821466e+003;4.061022e-002
2.823394e+003;4.056653e-002
2.825323e+003;4.075352e-002
2.827251e+003;4.119276e-002
2.829180e+003;4.113196e-002
2.831108e+003;4.123385e-002
2.833037e+003;4.178078e-002
2.834966e+003;4.192465e-002
2.836894e+003;4.211843e-002
2.838823e+003;4.249499e-002
2.840751e+003;4.274960e-002
2.842680e+003;4.279801e-002
2.844608e+003;4.313092e-002
2.846537e+003;4.371828e-002
2.848465e+003;4.396503e-002
2.850394e+003;4.413556e-002
2.852323e+003;4.440435e-002
2.854251e+003;4.417389e-002
2.856180e+003;4.438141e-002
2.858108e+003;4.546792e-002
2.860037e+003;4.623603e-002
2.861965e+003;4.671716e-002
2.863894e+003;4.720595e-002
2.865822e+003;4.765787e-002
2.867751e+003;4.804674e-002
2.869679e+003;4.845353e-002
2.871608e+003;4.890612e-002
2.873536e+003;4.946997e-002
2.875465e+003;4.996574e-002
2.877394e+003;5.035114e-002
2.879322e+003;5.060687e-002
2.881251e+003;5.062567e-002
2.883179e+003;5.095234e-002
2.885108e+003;5.111933e-002
2.887036e+003;5.126483e-002
2.888965e+003;5.155650e-002
2.890893e+003;5.133113e-002
2.892822e+003;5.130984e-002
2.894750e+003;5.148446e-002
2.896679e+003;5.125238e-002
2.898608e+003;5.080653e-002
2.900536e+003;5.046851e-002
2.902465e+003;5.058427e-002
2.904393e+003;5.040267e-002
2.906322e+003;5.027052e-002
2.908250e+003;5.008415e-002
2.910179e+003;4.934816e-002
2.912107e+003;4.912200e-002
2.914036e+003;4.904561e-002
2.915965e+003;4.838781e-002
2.917893e+003;4.782341e-002
2.919822e+003;4.708842e-002
2.921750e+003;4.608981e-002
2.923679e+003;4.531328e-002
2.925607e+003;4.499523e-002
2.927536e+003;4.442046e-002
2.929464e+003;4.377058e-002
2.931393e+003;4.363145e-002
2.933322e+003;4.381734e-002
2.935250e+003;4.361877e-002
2.937178e+003;4.297452e-002
2.939107e+003;4.265686e-002
2.941036e+003;4.271524e-002
2.942964e+003;4.236862e-002
2.944893e+003;4.198125e-002
2.946821e+003;4.166742e-002
2.948750e+003;4.115706e-002
2.950678e+003;4.055339e-002
2.952607e+003;4.022845e-002
2.954535e+003;4.007079e-002
2.956464e+003;3.973939e-002
2.958393e+003;3.944451e-002
2.960321e+003;3.921682e-002
2.962250e+003;3.903179e-002
2.964178e+003;3.891113e-002
2.966107e+003;3.874233e-002
2.968035e+003;3.824389e-002
2.969964e+003;3.781861e-002
2.971892e+003;3.765294e-002
2.973821e+003;3.770852e-002
2.975750e+003;3.814545e-002
2.977678e+003;3.822736e-002
2.979607e+003;3.792892e-002
2.981535e+003;3.771238e-002
2.983464e+003;3.800594e-002
2.985392e+003;3.808388e-002
2.987321e+003;3.762573e-002
2.989249e+003;3.712497e-002
2.991178e+003;3.695775e-002
2.993106e+003;3.727094e-002
2.995035e+003;3.750557e-002
2.996964e+003;3.740321e-002
2.998892e+003;3.715831e-002
3.000821e+003;3.718351e-002
3.002749e+003;3.732160e-002
3.004678e+003;3.716481e-002
3.006606e+003;3.732763e-002
3.008535e+003;3.764036e-002
3.010463e+003;3.770111e-002
3.012392e+003;3.774361e-002
3.014321e+003;3.778528e-002
3.016249e+003;3.795097e-002
3.018177e+003;3.818061e-002
3.020106e+003;3.838315e-002
3.022035e+003;3.861773e-002
3.023963e+003;3.857644e-002
3.025892e+003;3.841664e-002
3.027820e+003;3.879808e-002
3.029749e+003;3.950257e-002
3.031677e+003;3.982109e-002
3.033606e+003;3.990560e-002
3.035534e+003;4.016659e-002
3.037463e+003;4.048087e-002
3.039392e+003;4.079093e-002
3.041320e+003;4.113378e-002
3.043249e+003;4.136438e-002
3.045177e+003;4.118554e-002
3.047106e+003;4.151157e-002
3.049034e+003;4.214274e-002
3.050963e+003;4.243682e-002
3.052891e+003;4.238049e-002
3.054820e+003;4.234557e-002
3.056749e+003;4.267316e-002
3.058677e+003;4.272566e-002
3.060606e+003;4.265159e-002
3.062534e+003;4.300426e-002
3.064463e+003;4.365629e-002
3.066391e+003;4.440394e-002
3.068320e+003;4.452367e-002
3.070248e+003;4.390403e-002
3.072177e+003;4.392518e-002
3.074105e+003;4.451399e-002
3.076034e+003;4.466911e-002
3.077963e+003;4.508682e-002
3.079891e+003;4.552223e-002
3.081820e+003;4.548691e-002
3.083748e+003;4.558398e-002
3.085677e+003;4.600264e-002
3.087605e+003;4.638749e-002
3.089534e+003;4.661496e-002
3.091462e+003;4.638137e-002
3.093391e+003;4.692490e-002
3.095320e+003;4.782581e-002
3.097248e+003;4.769222e-002
3.099177e+003;4.740860e-002
3.101105e+003;4.772262e-002
3.103034e+003;4.820599e-002
3.104962e+003;4.846738e-002
3.106891e+003;4.855211e-002
3.108819e+003;4.862538e-002
3.110748e+003;4.880456e-002
3.112677e+003;4.888042e-002
3.114605e+003;4.870973e-002
3.116533e+003;4.889511e-002
3.118462e+003;4.932091e-002
3.120391e+003;4.964055e-002
3.122319e+003;4.967784e-002
3.124248e+003;4.971815e-002
3.126176e+003;4.997306e-002
3.128105e+003;5.020728e-002
3.130033e+003;5.050461e-002
3.131962e+003;5.082382e-002
3.133890e+003;5.102049e-002
3.135819e+003;5.110021e-002
3.137748e+003;5.135171e-002
3.139676e+003;5.157825e-002
3.141605e+003;5.183052e-002
3.143533e+003;5.221534e-002
3.145462e+003;5.233191e-002
3.147390e+003;5.248839e-002
3.149319e+003;5.268769e-002
3.151247e+003;5.299024e-002
3.153176e+003;5.323431e-002
3.155104e+003;5.375157e-002
3.157033e+003;5.371508e-002
3.158962e+003;5.345538e-002
3.160890e+003;5.340749e-002
3.162819e+003;5.353517e-002
3.164747e+003;5.419361e-002
3.166676e+003;5.469063e-002
3.168604e+003;5.491230e-002
3.170533e+003;5.524357e-002
3.172461e+003;5.577864e-002
3.174390e+003;5.600501e-002
3.176319e+003;5.580324e-002
3.178247e+003;5.556285e-002
3.180176e+003;5.592804e-002
3.182104e+003;5.628766e-002
3.184033e+003;5.609907e-002
3.185961e+003;5.599261e-002
3.187890e+003;5.630460e-002
3.189818e+003;5.671519e-002
3.191747e+003;5.682296e-002
3.193676e+003;5.696608e-002
3.195604e+003;5.747113e-002
3.197532e+003;5.773150e-002
3.199461e+003;5.747056e-002
3.201390e+003;5.754591e-002
3.203318e+003;5.811352e-002
3.205247e+003;5.844982e-002
3.207175e+003;5.831220e-002
3.209104e+003;5.843515e-002
3.211032e+003;5.863018e-002
3.212961e+003;5.863708e-002
3.214889e+003;5.869898e-002
3.216818e+003;5.879647e-002
3.218747e+003;5.903057e-002
3.220675e+003;5.870869e-002
3.222604e+003;5.876331e-002
3.224532e+003;5.938957e-002
3.226461e+003;5.986915e-002
3.228389e+003;5.992377e-002
3.230318e+003;5.989726e-002
3.232246e+003;5.981899e-002
3.234175e+003;5.975309e-002
3.236104e+003;5.971523e-002
3.238032e+003;5.997272e-002
3.239961e+003;6.068344e-002
3.241889e+003;6.088757e-002
3.243818e+003;6.062309e-002
3.245746e+003;6.039765e-002
3.247675e+003;6.071088e-002
3.249603e+003;6.120753e-002
3.251532e+003;6.134923e-002
3.253460e+003;6.136343e-002
3.255389e+003;6.164524e-002
3.257318e+003;6.194045e-002
3.259246e+003;6.171539e-002
3.261175e+003;6.158036e-002
3.263103e+003;6.180195e-002
3.265032e+003;6.182754e-002
3.266960e+003;6.221116e-002
3.268889e+003;6.269972e-002
3.270817e+003;6.258207e-002
3.272746e+003;6.292564e-002
3.274675e+003;6.298470e-002
3.276603e+003;6.300845e-002
3.278531e+003;6.327979e-002
3.280460e+003;6.329090e-002
3.282389e+003;6.333648e-002
3.284317e+003;6.370981e-002
3.286246e+003;6.393463e-002
3.288174e+003;6.390550e-002
3.290103e+003;6.394485e-002
3.292031e+003;6.403358e-002
3.293960e+003;6.411952e-002
3.295888e+003;6.442156e-002
3.297817e+003;6.433918e-002
3.299746e+003;6.367946e-002
3.301674e+003;6.341565e-002
3.303603e+003;6.390573e-002
3.305531e+003;6.425864e-002
3.307460e+003;6.454172e-002
3.309388e+003;6.493302e-002
3.311317e+003;6.495526e-002
3.313245e+003;6.484307e-002
3.315174e+003;6.467622e-002
3.317103e+003;6.431282e-002
3.319031e+003;6.389813e-002
3.320960e+003;6.371295e-002
3.322888e+003;6.386995e-002
3.324817e+003;6.400409e-002
3.326745e+003;6.376729e-002
3.328674e+003;6.441154e-002
3.330602e+003;6.506986e-002
3.332531e+003;6.465464e-002
3.334459e+003;6.434755e-002
3.336388e+003;6.458747e-002
3.338317e+003;6.449609e-002
3.340245e+003;6.401914e-002
3.342174e+003;6.411107e-002
3.344102e+003;6.404037e-002
3.346031e+003;6.378325e-002
3.347959e+003;6.386412e-002
3.349888e+003;6.405424e-002
3.351816e+003;6.369741e-002
3.353745e+003;6.347099e-002
3.355674e+003;6.365483e-002
3.357602e+003;6.389655e-002
3.359531e+003;6.381376e-002
3.361459e+003;6.326403e-002
3.363388e+003;6.277154e-002
3.365316e+003;6.253148e-002
3.367245e+003;6.248579e-002
3.369173e+003;6.263281e-002
3.371102e+003;6.276415e-002
3.373031e+003;6.258903e-002
3.374959e+003;6.227047e-002
3.376887e+003;6.215549e-002
3.378816e+003;6.179973e-002
3.380745e+003;6.150690e-002
3.382673e+003;6.183713e-002
3.384602e+003;6.204998e-002
3.386530e+003;6.181180e-002
3.388459e+003;6.143205e-002
3.390387e+003;6.108554e-002
3.392316e+003;6.091071e-002
3.394244e+003;6.111743e-002
3.396173e+003;6.121122e-002
3.398102e+003;6.086188e-002
3.400030e+003;6.040325e-002
3.401959e+003;6.000144e-002
3.403887e+003;6.005870e-002
3.405816e+003;6.020300e-002
3.407744e+003;5.997010e-002
3.409673e+003;5.967949e-002
3.411601e+003;5.976572e-002
3.413530e+003;6.010379e-002
3.415458e+003;6.006026e-002
3.417387e+003;5.972655e-002
3.419316e+003;5.947050e-002
3.421244e+003;5.886165e-002
3.423173e+003;5.799013e-002
3.425101e+003;5.840088e-002
3.427030e+003;5.940405e-002
3.428958e+003;5.970568e-002
3.430887e+003;5.924224e-002
3.432815e+003;5.902689e-002
3.434744e+003;5.914127e-002
3.436673e+003;5.879302e-002
3.438601e+003;5.808076e-002
3.440530e+003;5.772953e-002
3.442458e+003;5.797320e-002
3.444387e+003;5.765154e-002
3.446315e+003;5.693276e-002
3.448244e+003;5.661406e-002
3.450172e+003;5.626707e-002
3.452101e+003;5.560296e-002
3.454030e+003;5.551970e-002
3.455958e+003;5.533912e-002
3.457886e+003;5.480955e-002
3.459815e+003;5.458166e-002
3.461744e+003;5.405091e-002
3.463672e+003;5.339059e-002
3.465601e+003;5.246555e-002
3.467529e+003;5.223078e-002
3.469458e+003;5.262141e-002
3.471386e+003;5.216060e-002
3.473315e+003;5.164165e-002
3.475243e+003;5.146521e-002
3.477172e+003;5.082493e-002
3.479101e+003;5.025966e-002
3.481029e+003;4.992823e-002
3.482958e+003;4.980748e-002
3.484886e+003;5.004656e-002
3.486815e+003;5.002979e-002
3.488743e+003;4.977296e-002
3.490672e+003;4.981888e-002
3.492600e+003;4.955865e-002
3.494529e+003;4.850125e-002
3.496458e+003;4.766019e-002
3.498386e+003;4.728999e-002
3.500315e+003;4.718737e-002
3.502243e+003;4.693970e-002
3.504172e+003;4.609854e-002
3.506100e+003;4.554361e-002
3.508029e+003;4.539949e-002
3.509957e+003;4.499280e-002
3.511886e+003;4.409426e-002
3.513814e+003;4.360496e-002
3.515743e+003;4.349947e-002
3.517672e+003;4.307443e-002
3.519600e+003;4.285067e-002
3.521529e+003;4.213358e-002
3.523457e+003;4.150563e-002
3.525386e+003;4.138953e-002
3.527314e+003;4.141610e-002
3.529243e+003;4.100962e-002
3.531171e+003;4.052189e-002
3.533100e+003;3.992071e-002
3.535029e+003;3.975177e-002
3.536957e+003;3.961232e-002
3.538885e+003;3.911293e-002
3.540814e+003;3.843441e-002
3.542743e+003;3.798558e-002
3.544671e+003;3.809965e-002
3.546600e+003;3.813362e-002
3.548528e+003;3.799343e-002
3.550457e+003;3.771300e-002
3.552385e+003;3.725383e-002
3.554314e+003;3.676132e-002
3.556242e+003;3.616057e-002
3.558171e+003;3.575952e-002
3.560100e+003;3.567458e-002
3.562028e+003;3.565145e-002
3.563957e+003;3.510665e-002
3.565885e+003;3.429758e-002
3.567814e+003;3.419067e-002
3.569742e+003;3.429012e-002
3.571671e+003;3.410693e-002
3.573599e+003;3.372665e-002
3.575528e+003;3.343135e-002
3.577457e+003;3.327060e-002
3.579385e+003;3.325053e-002
3.581314e+003;3.317320e-002
3.583242e+003;3.303707e-002
3.585171e+003;3.239963e-002
3.587099e+003;3.085619e-002
3.589028e+003;3.024287e-002
3.590956e+003;3.061976e-002
3.592885e+003;3.031392e-002
3.594813e+003;2.988256e-002
3.596742e+003;2.999374e-002
3.598671e+003;3.007179e-002
3.600599e+003;2.992832e-002
3.602528e+003;2.957121e-002
3.604456e+003;2.900674e-002
3.606385e+003;2.885112e-002
3.608313e+003;2.860562e-002
3.610242e+003;2.863167e-002
3.612170e+003;2.820933e-002
3.614099e+003;2.714887e-002
3.616028e+003;2.612716e-002
3.617956e+003;2.537032e-002
3.619885e+003;2.556838e-002
3.621813e+003;2.627678e-002
3.623742e+003;2.595509e-002
3.625670e+003;2.486134e-002
3.627599e+003;2.382855e-002
3.629527e+003;2.396729e-002
3.631456e+003;2.442667e-002
3.633385e+003;2.417451e-002
3.635313e+003;2.375704e-002
3.637241e+003;2.346845e-002
3.639170e+003;2.277816e-002
3.641099e+003;2.225794e-002
3.643027e+003;2.153479e-002
3.644956e+003;2.061020e-002
3.646884e+003;1.994431e-002
3.648813e+003;1.916335e-002
3.650741e+003;1.900945e-002
3.652670e+003;1.929652e-002
3.654598e+003;1.867474e-002
3.656527e+003;1.824845e-002
3.658456e+003;1.876648e-002
3.660384e+003;1.856984e-002
3.662313e+003;1.808973e-002
3.664241e+003;1.738703e-002
3.666170e+003;1.640109e-002
3.668098e+003;1.537814e-002
3.670027e+003;1.491876e-002
3.671955e+003;1.530035e-002
3.673884e+003;1.453170e-002
3.675813e+003;1.359330e-002
3.677741e+003;1.406696e-002
3.679669e+003;1.433286e-002
3.681598e+003;1.398144e-002
3.683527e+003;1.326632e-002
3.685455e+003;1.297751e-002
3.687384e+003;1.253229e-002
3.689312e+003;1.248035e-002
3.691241e+003;1.285528e-002
3.693169e+003;1.271455e-002
3.695098e+003;1.239822e-002
3.697026e+003;1.221514e-002
3.698955e+003;1.178864e-002
3.700884e+003;1.138018e-002
3.702812e+003;1.187162e-002
3.704741e+003;1.228487e-002
3.706669e+003;1.204106e-002
3.708598e+003;1.135049e-002
3.710526e+003;1.064757e-002
3.712455e+003;1.057837e-002
3.714383e+003;1.086447e-002
3.716312e+003;1.076996e-002
3.718240e+003;1.101968e-002
3.720169e+003;1.074483e-002
3.722098e+003;1.004665e-002
3.724026e+003;1.034929e-002
3.725955e+003;1.055576e-002
3.727883e+003;1.054873e-002
3.729812e+003;1.043553e-002
3.731740e+003;9.443410e-003
3.733669e+003;8.887575e-003
3.735597e+003;8.597944e-003
3.737526e+003;8.896978e-003
3.739455e+003;9.262791e-003
3.741383e+003;9.087255e-003
3.743312e+003;7.732028e-003
3.745240e+003;7.561931e-003
3.747169e+003;8.664325e-003
3.749097e+003;8.621196e-003
3.751026e+003;8.463995e-003
3.752954e+003;8.619540e-003
3.754883e+003;9.179533e-003
3.756812e+003;9.445103e-003
3.758740e+003;9.131920e-003
3.760668e+003;9.122039e-003
3.762597e+003;9.734385e-003
3.764526e+003;1.014978e-002
3.766454e+003;1.021107e-002
3.768383e+003;1.011111e-002
3.770311e+003;9.699756e-003
3.772240e+003;9.389402e-003
3.774168e+003;9.427697e-003
3.776097e+003;9.313567e-003
3.778025e+003;9.282999e-003
3.779954e+003;9.561944e-003
3.781883e+003;9.723644e-003
3.783811e+003;9.545212e-003
3.785740e+003;9.510733e-003
3.787668e+003;9.528311e-003
3.789597e+003;9.758377e-003
3.791525e+003;9.556998e-003
3.793454e+003;9.433861e-003
3.795382e+003;9.344035e-003
3.797311e+003;8.945715e-003
3.799240e+003;8.201016e-003
3.801168e+003;7.812715e-003
3.803097e+003;8.496397e-003
3.805025e+003;8.230764e-003
3.806954e+003;7.390283e-003
3.808882e+003;8.075493e-003
3.810811e+003;8.633669e-003
3.812739e+003;8.542757e-003
3.814668e+003;8.589529e-003
3.816596e+003;9.139262e-003
3.818525e+003;9.505009e-003
3.820454e+003;9.166876e-003
3.822382e+003;9.317663e-003
3.824311e+003;9.265736e-003
3.826239e+003;8.984951e-003
3.828168e+003;8.986846e-003
3.830096e+003;8.722232e-003
3.832025e+003;8.588785e-003
3.833953e+003;8.767297e-003
3.835882e+003;8.338126e-003
3.837811e+003;7.926892e-003
3.839739e+003;8.664866e-003
3.841667e+003;9.203053e-003
3.843596e+003;9.067699e-003
3.845525e+003;9.365669e-003
3.847453e+003;9.806668e-003
3.849382e+003;8.983125e-003
3.851310e+003;7.240837e-003
3.853239e+003;6.952268e-003
3.855167e+003;8.669260e-003
3.857096e+003;9.473277e-003
3.859024e+003;9.320710e-003
3.860953e+003;8.936108e-003
3.862882e+003;8.263318e-003
3.864810e+003;8.749987e-003
3.866739e+003;9.446389e-003
3.868667e+003;9.247627e-003
3.870596e+003;9.572241e-003
3.872524e+003;9.774067e-003
3.874453e+003;9.520588e-003
3.876381e+003;9.649036e-003
3.878310e+003;9.486417e-003
3.880239e+003;9.695622e-003
3.882167e+003;1.014642e-002
3.884096e+003;1.003536e-002
3.886024e+003;1.002712e-002
3.887953e+003;1.024272e-002
3.889881e+003;1.006391e-002
3.891810e+003;1.024903e-002
3.893738e+003;1.073803e-002
3.895667e+003;1.075152e-002
3.897595e+003;1.023539e-002
3.899524e+003;9.948456e-003
3.901453e+003;1.018787e-002
3.903381e+003;1.001437e-002
3.905310e+003;1.028662e-002
3.907238e+003;1.087364e-002
3.909167e+003;1.133178e-002
3.911095e+003;1.161981e-002
3.913024e+003;1.158771e-002
3.914952e+003;1.131617e-002
3.916881e+003;1.099273e-002
3.918810e+003;1.085169e-002
3.920738e+003;1.126856e-002
3.922667e+003;1.133957e-002
3.924595e+003;1.157812e-002
3.926524e+003;1.237173e-002
3.928452e+003;1.252360e-002
3.930381e+003;1.227263e-002
3.932309e+003;1.175055e-002
3.934238e+003;1.161834e-002
3.936167e+003;1.205854e-002
3.938095e+003;1.215530e-002
3.940023e+003;1.186821e-002
3.941952e+003;1.142165e-002
3.943881e+003;1.187519e-002
3.945809e+003;1.241468e-002
3.947738e+003;1.243378e-002
3.949666e+003;1.295105e-002
3.951595e+003;1.299629e-002
3.953523e+003;1.247340e-002
3.955452e+003;1.260054e-002
3.957380e+003;1.256121e-002
3.959309e+003;1.211199e-002
3.961238e+003;1.187877e-002
3.963166e+003;1.168522e-002
3.965095e+003;1.177196e-002
3.967023e+003;1.220730e-002
3.968952e+003;1.238959e-002
3.970880e+003;1.233931e-002
3.972809e+003;1.244748e-002
3.974737e+003;1.232291e-002
3.976666e+003;1.213240e-002
3.978594e+003;1.206671e-002
3.980523e+003;1.205091e-002
3.982452e+003;1.233777e-002
3.984380e+003;1.257885e-002
3.986309e+003;1.225985e-002
3.988237e+003;1.219881e-002
3.990166e+003;1.244919e-002
3.992094e+003;1.257973e-002
3.994023e+003;1.286842e-002
3.995951e+003;1.282722e-002
3.997880e+003;1.263363e-002
3.999809e+003;1.261736e-002
4.001737e+003;0.000000e+000
