3.992094e+002;0.000000e+000
4.011380e+002;0.000000e+000
4.030665e+002;0.000000e+000
4.049951e+002;0.000000e+000
4.069236e+002;0.000000e+000
4.088522e+002;0.000000e+000
4.107807e+002;0.000000e+000
4.127093e+002;0.000000e+000
4.146378e+002;0.000000e+000
4.165664e+002;0.000000e+000
4.184949e+002;0.000000e+000
4.204235e+002;0.000000e+000
4.223520e+002;0.000000e+000
4.242806e+002;0.000000e+000
4.262091e+002;0.000000e+000
4.281377e+002;0.000000e+000
4.300662e+002;0.000000e+000
4.319948e+002;0.000000e+000
4.339233e+002;0.000000e+000
4.358519e+002;0.000000e+000
4.377804e+002;0.000000e+000
4.397090e+002;0.000000e+000
4.416375e+002;0.000000e+000
4.435660e+002;0.000000e+000
4.454946e+002;0.000000e+000
4.474232e+002;0.000000e+000
4.493517e+002;0.000000e+000
4.512802e+002;0.000000e+000
4.532088e+002;0.000000e+000
4.551373e+002;0.000000e+000
4.570659e+002;0.000000e+000
4.589944e+002;0.000000e+000
4.609230e+002;0.000000e+000
4.628515e+002;0.000000e+000
4.647801e+002;0.000000e+000
4.667086e+002;0.000000e+000
4.686372e+002;0.000000e+000
4.705657e+002;0.000000e+000
4.724943e+002;0.000000e+000
4.744228e+002;0.000000e+000
4.763513e+002;0.000000e+000
4.782799e+002;0.000000e+000
4.802085e+002;0.000000e+000
4.821370e+002;0.000000e+000
4.840656e+002;0.000000e+000
4.859941e+002;0.000000e+000
4.879226e+002;0.000000e+000
4.898512e+002;0.000000e+000
4.917798e+002;0.000000e+000
4.937083e+002;0.000000e+000
4.956368e+002;0.000000e+000
4.975654e+002;0.000000e+000
4.994939e+002;0.000000e+000
5.014225e+002;0.000000e+000
5.033510e+002;0.000000e+000
5.052796e+002;0.000000e+000
5.072081e+002;0.000000e+000
5.091367e+002;0.000000e+000
5.110652e+002;0.000000e+000
5.129938e+002;0.000000e+000
5.149223e+002;0.000000e+000
5.168509e+002;0.000000e+000
5.187794e+002;0.000000e+000
5.207079e+002;0.000000e+000
5.226365e+002;0.000000e+000
5.245651e+002;0.000000e+000
5.264936e+002;0.000000e+000
5.284222e+002;0.000000e+000
5.303507e+002;0.000000e+000
5.322792e+002;0.000000e+000
5.342078e+002;0.000000e+000
5.361364e+002;0.000000e+000
5.380649e+002;0.000000e+000
5.399935e+002;0.000000e+000
5.419220e+002;0.000000e+000
5.438505e+002;0.000000e+000
5.457791e+002;0.000000e+000
5.477076e+002;0.000000e+000
5.496362e+002;0.000000e+000
5.515648e+002;0.000000e+000
5.534933e+002;0.000000e+000
5.554218e+002;0.000000e+000
5.573504e+002;0.000000e+000
5.592789e+002;0.000000e+000
5.612075e+002;0.000000e+000
5.631360e+002;0.000000e+000
5.650646e+002;0.000000e+000
5.669931e+002;0.000000e+000
5.689217e+002;0.000000e+000
5.708502e+002;0.000000e+000
5.727787e+002;0.000000e+000
5.747073e+002;0.000000e+000
5.766359e+002;0.000000e+000
5.785644e+002;0.000000e+000
5.804930e+002;0.000000e+000
5.824215e+002;0.000000e+000
5.843500e+002;0.000000e+000
5.862786e+002;0.000000e+000
5.882072e+002;0.000000e+000
5.901357e+002;0.000000e+000
5.920643e+002;0.000000e+000
5.939928e+002;0.000000e+000
5.959213e+002;0.000000e+000
5.978499e+002;0.000000e+000
5.997784e+002;2.423323e-001
6.017070e+002;2.545246e-001
6.036355e+002;2.658426e-001
6.055641e+002;2.631620e-001
6.074926e+002;2.509638e-001
6.094211e+002;2.512699e-001
6.113497e+002;2.520530e-001
6.132783e+002;2.503605e-001
6.152068e+002;2.509243e-001
6.171354e+002;2.472893e-001
6.190639e+002;2.347049e-001
6.209924e+002;2.334760e-001
6.229210e+002;2.409834e-001
6.248495e+002;2.413343e-001
6.267781e+002;2.338832e-001
6.287067e+002;2.301011e-001
6.306352e+002;2.271473e-001
6.325637e+002;2.311869e-001
6.344923e+002;2.385990e-001
6.364208e+002;2.353399e-001
6.383494e+002;2.276911e-001
6.402780e+002;2.208504e-001
6.422065e+002;2.156719e-001
6.441350e+002;2.186086e-001
6.460636e+002;2.223429e-001
6.479921e+002;2.213027e-001
6.499207e+002;2.196690e-001
6.518492e+002;2.224310e-001
6.537778e+002;2.240087e-001
6.557063e+002;2.253436e-001
6.576349e+002;2.280325e-001
6.595634e+002;2.295780e-001
6.614919e+002;2.303557e-001
6.634205e+002;2.313836e-001
6.653491e+002;2.330051e-001
6.672776e+002;2.292500e-001
6.692062e+002;2.268039e-001
6.711347e+002;2.250211e-001
6.730632e+002;2.202854e-001
6.749918e+002;2.104048e-001
6.769203e+002;2.009789e-001
6.788489e+002;1.947060e-001
6.807775e+002;1.882627e-001
6.827060e+002;1.832291e-001
6.846345e+002;1.795692e-001
6.865631e+002;1.760703e-001
6.884916e+002;1.740148e-001
6.904202e+002;1.720912e-001
6.923488e+002;1.704914e-001
6.942773e+002;1.700304e-001
6.962058e+002;1.691685e-001
6.981344e+002;1.685937e-001
7.000629e+002;1.686128e-001
7.019915e+002;1.682902e-001
7.039200e+002;1.680177e-001
7.058486e+002;1.659044e-001
7.077771e+002;1.645660e-001
7.097057e+002;1.648843e-001
7.116342e+002;1.647373e-001
7.135627e+002;1.636532e-001
7.154913e+002;1.623031e-001
7.174199e+002;1.593160e-001
7.193484e+002;1.571651e-001
7.212770e+002;1.571067e-001
7.232055e+002;1.563072e-001
7.251340e+002;1.559091e-001
7.270626e+002;1.554641e-001
7.289911e+002;1.534008e-001
7.309197e+002;1.527777e-001
7.328483e+002;1.511366e-001
7.347768e+002;1.487016e-001
7.367053e+002;1.473864e-001
7.386339e+002;1.470468e-001
7.405624e+002;1.458757e-001
7.424910e+002;1.441486e-001
7.444196e+002;1.412783e-001
7.463481e+002;1.408838e-001
7.482766e+002;1.411685e-001
7.502052e+002;1.392041e-001
7.521337e+002;1.372422e-001
7.540623e+002;1.368772e-001
7.559908e+002;1.365950e-001
7.579194e+002;1.350078e-001
7.598479e+002;1.331156e-001
7.617765e+002;1.329483e-001
7.637050e+002;1.318932e-001
7.656335e+002;1.296194e-001
7.675621e+002;1.289614e-001
7.694907e+002;1.299841e-001
7.714192e+002;1.299257e-001
7.733478e+002;1.286466e-001
7.752763e+002;1.264648e-001
7.772048e+002;1.245958e-001
7.791334e+002;1.232895e-001
7.810620e+002;1.222145e-001
7.829905e+002;1.206988e-001
7.849191e+002;1.202535e-001
7.868476e+002;1.206970e-001
7.887761e+002;1.207313e-001
7.907047e+002;1.204834e-001
7.926332e+002;1.196964e-001
7.945618e+002;1.185349e-001
7.964903e+002;1.178235e-001
7.984189e+002;1.177392e-001
8.003474e+002;1.181214e-001
8.022759e+002;1.180729e-001
8.042045e+002;1.171337e-001
8.061331e+002;1.161247e-001
8.080616e+002;1.158130e-001
8.099902e+002;1.157074e-001
8.119187e+002;1.154919e-001
8.138472e+002;1.160370e-001
8.157758e+002;1.162968e-001
8.177043e+002;1.161395e-001
8.196329e+002;1.160291e-001
8.215615e+002;1.152824e-001
8.234900e+002;1.149032e-001
8.254185e+002;1.150466e-001
8.273471e+002;1.151151e-001
8.292756e+002;1.143223e-001
8.312042e+002;1.125713e-001
8.331328e+002;1.125270e-001
8.350613e+002;1.128984e-001
8.369898e+002;1.121526e-001
8.389184e+002;1.109984e-001
8.408469e+002;1.103757e-001
8.427755e+002;1.100384e-001
8.447040e+002;1.104317e-001
8.466326e+002;1.106841e-001
8.485611e+002;1.102744e-001
8.504897e+002;1.101940e-001
8.524182e+002;1.104378e-001
8.543467e+002;1.111277e-001
8.562753e+002;1.116127e-001
8.582039e+002;1.118331e-001
8.601324e+002;1.125826e-001
8.620610e+002;1.140309e-001
8.639895e+002;1.154185e-001
8.659180e+002;1.171864e-001
8.678466e+002;1.188083e-001
8.697751e+002;1.210273e-001
8.717037e+002;1.238795e-001
8.736323e+002;1.270349e-001
8.755608e+002;1.299069e-001
8.774893e+002;1.337702e-001
8.794179e+002;1.382934e-001
8.813464e+002;1.427169e-001
8.832750e+002;1.480716e-001
8.852036e+002;1.538356e-001
8.871321e+002;1.593433e-001
8.890606e+002;1.640129e-001
8.909892e+002;1.683925e-001
8.929177e+002;1.721910e-001
8.948463e+002;1.738558e-001
8.967748e+002;1.726584e-001
8.987034e+002;1.700659e-001
9.006319e+002;1.670136e-001
9.025605e+002;1.634824e-001
9.044890e+002;1.599946e-001
9.064175e+002;1.563543e-001
9.083461e+002;1.525067e-001
9.102747e+002;1.493035e-001
9.122032e+002;1.470652e-001
9.141318e+002;1.452898e-001
9.160603e+002;1.438866e-001
9.179888e+002;1.434273e-001
9.199174e+002;1.441769e-001
9.218459e+002;1.451299e-001
9.237745e+002;1.459046e-001
9.257031e+002;1.472227e-001
9.276316e+002;1.491540e-001
9.295601e+002;1.508933e-001
9.314887e+002;1.523962e-001
9.334172e+002;1.542800e-001
9.353458e+002;1.565119e-001
9.372744e+002;1.588280e-001
9.392029e+002;1.611031e-001
9.411314e+002;1.635781e-001
9.430600e+002;1.664896e-001
9.449885e+002;1.695149e-001
9.469171e+002;1.729979e-001
9.488456e+002;1.771083e-001
9.507742e+002;1.815475e-001
9.527027e+002;1.863581e-001
9.546313e+002;1.918822e-001
9.565598e+002;1.975152e-001
9.584883e+002;2.033137e-001
9.604169e+002;2.092921e-001
9.623455e+002;2.152443e-001
9.642740e+002;2.213548e-001
9.662026e+002;2.273062e-001
9.681311e+002;2.335241e-001
9.700596e+002;2.405857e-001
9.719882e+002;2.486771e-001
9.739167e+002;2.574506e-001
9.758453e+002;2.672576e-001
9.777739e+002;2.796502e-001
9.797024e+002;2.932338e-001
9.816309e+002;3.080795e-001
9.835595e+002;3.243608e-001
9.854880e+002;3.401586e-001
9.874166e+002;3.560732e-001
9.893452e+002;3.711699e-001
9.912737e+002;3.841297e-001
9.932022e+002;3.938622e-001
9.951307e+002;4.011303e-001
9.970593e+002;4.071583e-001
9.989879e+002;4.112275e-001
1.000916e+003;4.136400e-001
1.002845e+003;4.163273e-001
1.004773e+003;4.207030e-001
1.006702e+003;4.259382e-001
1.008631e+003;4.320809e-001
1.010559e+003;4.390508e-001
1.012488e+003;4.469843e-001
1.014416e+003;4.547748e-001
1.016345e+003;4.615204e-001
1.018273e+003;4.665185e-001
1.020202e+003;4.695298e-001
1.022130e+003;4.710999e-001
1.024059e+003;4.708115e-001
1.025988e+003;4.682311e-001
1.027916e+003;4.628875e-001
1.029845e+003;4.574944e-001
1.031773e+003;4.540095e-001
1.033702e+003;4.491532e-001
1.035630e+003;4.436635e-001
1.037559e+003;4.395278e-001
1.039487e+003;4.353997e-001
1.041416e+003;4.326809e-001
1.043344e+003;4.297421e-001
1.045273e+003;4.263483e-001
1.047202e+003;4.229667e-001
1.049130e+003;4.184028e-001
1.051059e+003;4.145634e-001
1.052987e+003;4.111077e-001
1.054916e+003;4.082474e-001
1.056844e+003;4.052109e-001
1.058773e+003;3.996790e-001
1.060701e+003;3.930080e-001
1.062630e+003;3.863725e-001
1.064558e+003;3.793064e-001
1.066487e+003;3.720092e-001
1.068416e+003;3.644747e-001
1.070344e+003;3.576960e-001
1.072273e+003;3.524643e-001
1.074201e+003;3.466234e-001
1.076130e+003;3.401310e-001
1.078058e+003;3.338173e-001
1.079987e+003;3.269467e-001
1.081915e+003;3.204331e-001
1.083844e+003;3.146007e-001
1.085773e+003;3.090600e-001
1.087701e+003;3.029373e-001
1.089630e+003;2.967828e-001
1.091558e+003;2.902766e-001
1.093487e+003;2.833803e-001
1.095415e+003;2.768494e-001
1.097344e+003;2.710058e-001
1.099272e+003;2.653432e-001
1.101201e+003;2.585832e-001
1.103129e+003;2.508642e-001
1.105058e+003;2.442069e-001
1.106987e+003;2.393792e-001
1.108915e+003;2.358059e-001
1.110844e+003;2.321634e-001
1.112772e+003;2.282146e-001
1.114701e+003;2.237085e-001
1.116629e+003;2.189498e-001
1.118558e+003;2.129514e-001
1.120486e+003;2.065769e-001
1.122415e+003;2.004895e-001
1.124344e+003;1.946884e-001
1.126272e+003;1.888299e-001
1.128201e+003;1.824279e-001
1.130129e+003;1.769818e-001
1.132058e+003;1.723390e-001
1.133986e+003;1.677277e-001
1.135915e+003;1.636630e-001
1.137843e+003;1.602048e-001
1.139772e+003;1.570948e-001
1.141700e+003;1.549163e-001
1.143629e+003;1.541495e-001
1.145557e+003;1.545147e-001
1.147486e+003;1.548038e-001
1.149415e+003;1.560073e-001
1.151343e+003;1.577321e-001
1.153272e+003;1.586831e-001
1.155200e+003;1.595442e-001
1.157129e+003;1.595467e-001
1.159057e+003;1.573469e-001
1.160986e+003;1.541494e-001
1.162914e+003;1.491744e-001
1.164843e+003;1.424602e-001
1.166771e+003;1.358617e-001
1.168700e+003;1.297678e-001
1.170629e+003;1.234520e-001
1.172557e+003;1.170700e-001
1.174486e+003;1.117265e-001
1.176414e+003;1.074413e-001
1.178343e+003;1.036308e-001
1.180271e+003;1.006960e-001
1.182200e+003;9.891202e-002
1.184128e+003;9.820550e-002
1.186057e+003;9.828888e-002
1.187986e+003;9.883714e-002
1.189914e+003;1.003176e-001
1.191843e+003;1.028021e-001
1.193771e+003;1.056260e-001
1.195700e+003;1.080621e-001
1.197628e+003;1.090880e-001
1.199557e+003;1.091388e-001
1.201485e+003;1.084627e-001
1.203414e+003;1.070937e-001
1.205343e+003;1.047029e-001
1.207271e+003;1.018308e-001
1.209200e+003;1.001237e-001
1.211128e+003;9.935197e-002
1.213057e+003;9.877624e-002
1.214985e+003;9.911737e-002
1.216914e+003;1.003227e-001
1.218842e+003;1.019186e-001
1.220771e+003;1.038942e-001
1.222699e+003;1.059822e-001
1.224628e+003;1.078148e-001
1.226557e+003;1.093825e-001
1.228485e+003;1.105047e-001
1.230414e+003;1.110032e-001
1.232342e+003;1.112433e-001
1.234271e+003;1.118002e-001
1.236199e+003;1.121504e-001
1.238128e+003;1.121088e-001
1.240056e+003;1.119726e-001
1.241985e+003;1.114339e-001
1.243913e+003;1.112016e-001
1.245842e+003;1.116200e-001
1.247771e+003;1.123586e-001
1.249699e+003;1.132839e-001
1.251628e+003;1.145129e-001
1.253556e+003;1.157580e-001
1.255485e+003;1.171522e-001
1.257413e+003;1.181759e-001
1.259342e+003;1.184907e-001
1.261270e+003;1.185098e-001
1.263199e+003;1.182998e-001
1.265127e+003;1.174992e-001
1.267056e+003;1.165386e-001
1.268985e+003;1.155299e-001
1.270913e+003;1.142200e-001
1.272842e+003;1.128929e-001
1.274770e+003;1.119514e-001
1.276699e+003;1.115088e-001
1.278627e+003;1.112235e-001
1.280556e+003;1.104849e-001
1.282484e+003;1.094716e-001
1.284413e+003;1.090417e-001
1.286342e+003;1.094207e-001
1.288270e+003;1.103922e-001
1.290199e+003;1.119091e-001
1.292127e+003;1.135611e-001
1.294056e+003;1.152242e-001
1.295984e+003;1.170586e-001
1.297913e+003;1.186659e-001
1.299841e+003;1.200372e-001
1.301770e+003;1.214030e-001
1.303698e+003;1.231259e-001
1.305627e+003;1.250766e-001
1.307556e+003;1.272815e-001
1.309484e+003;1.291341e-001
1.311413e+003;1.305697e-001
1.313341e+003;1.316590e-001
1.315270e+003;1.322690e-001
1.317198e+003;1.321990e-001
1.319127e+003;1.314349e-001
1.321055e+003;1.303219e-001
1.322984e+003;1.294813e-001
1.324912e+003;1.287170e-001
1.326841e+003;1.283768e-001
1.328770e+003;1.286702e-001
1.330698e+003;1.288906e-001
1.332627e+003;1.288780e-001
1.334555e+003;1.290431e-001
1.336484e+003;1.290155e-001
1.338412e+003;1.284677e-001
1.340341e+003;1.277816e-001
1.342269e+003;1.274243e-001
1.344198e+003;1.272765e-001
1.346126e+003;1.272853e-001
1.348055e+003;1.275682e-001
1.349984e+003;1.277947e-001
1.351912e+003;1.279828e-001
1.353841e+003;1.285859e-001
1.355769e+003;1.295834e-001
1.357698e+003;1.307496e-001
1.359626e+003;1.319461e-001
1.361555e+003;1.330004e-001
1.363483e+003;1.337373e-001
1.365412e+003;1.339998e-001
1.367341e+003;1.336029e-001
1.369269e+003;1.326729e-001
1.371198e+003;1.315416e-001
1.373126e+003;1.303315e-001
1.375055e+003;1.288274e-001
1.376983e+003;1.268777e-001
1.378912e+003;1.248003e-001
1.380840e+003;1.224308e-001
1.382769e+003;1.196692e-001
1.384698e+003;1.174662e-001
1.386626e+003;1.159848e-001
1.388555e+003;1.144239e-001
1.390483e+003;1.131410e-001
1.392412e+003;1.124777e-001
1.394340e+003;1.118343e-001
1.396269e+003;1.114357e-001
1.398197e+003;1.114817e-001
1.400126e+003;1.113525e-001
1.402054e+003;1.110948e-001
1.403983e+003;1.108342e-001
1.405911e+003;1.108436e-001
1.407840e+003;1.108696e-001
1.409769e+003;1.107328e-001
1.411697e+003;1.106839e-001
1.413626e+003;1.107395e-001
1.415554e+003;1.106252e-001
1.417483e+003;1.103941e-001
1.419411e+003;1.104591e-001
1.421340e+003;1.106417e-001
1.423268e+003;1.102207e-001
1.425197e+003;1.095414e-001
1.427125e+003;1.088465e-001
1.429054e+003;1.080756e-001
1.430983e+003;1.075191e-001
1.432911e+003;1.068944e-001
1.434840e+003;1.060446e-001
1.436768e+003;1.050647e-001
1.438697e+003;1.041702e-001
1.440625e+003;1.033915e-001
1.442554e+003;1.026971e-001
1.444482e+003;1.016060e-001
1.446411e+003;1.005762e-001
1.448340e+003;9.971761e-002
1.450268e+003;9.865504e-002
1.452197e+003;9.743430e-002
1.454125e+003;9.625173e-002
1.456054e+003;9.494580e-002
1.457982e+003;9.371981e-002
1.459911e+003;9.272902e-002
1.461839e+003;9.167299e-002
1.463768e+003;9.028953e-002
1.465697e+003;8.882938e-002
1.467625e+003;8.756566e-002
1.469554e+003;8.619419e-002
1.471482e+003;8.449404e-002
1.473411e+003;8.261853e-002
1.475339e+003;8.042060e-002
1.477268e+003;7.791332e-002
1.479196e+003;7.560965e-002
1.481125e+003;7.384662e-002
1.483053e+003;7.247786e-002
1.484982e+003;7.081190e-002
1.486911e+003;6.897417e-002
1.488839e+003;6.749408e-002
1.490768e+003;6.617928e-002
1.492696e+003;6.486303e-002
1.494625e+003;6.383725e-002
1.496553e+003;6.285624e-002
1.498482e+003;6.212032e-002
1.500410e+003;6.205419e-002
1.502339e+003;6.183931e-002
1.504267e+003;6.116018e-002
1.506196e+003;6.058397e-002
1.508125e+003;6.027951e-002
1.510053e+003;6.003157e-002
1.511982e+003;5.986086e-002
1.513910e+003;5.985576e-002
1.515839e+003;5.957443e-002
1.517767e+003;5.926753e-002
1.519696e+003;5.907832e-002
1.521624e+003;5.868229e-002
1.523553e+003;5.852503e-002
1.525481e+003;5.855472e-002
1.527410e+003;5.862855e-002
1.529339e+003;5.877295e-002
1.531267e+003;5.880075e-002
1.533196e+003;5.875538e-002
1.535124e+003;5.895504e-002
1.537053e+003;5.903585e-002
1.538981e+003;5.872561e-002
1.540910e+003;5.877773e-002
1.542838e+003;5.905987e-002
1.544767e+003;5.922522e-002
1.546695e+003;5.936526e-002
1.548624e+003;5.957838e-002
1.550553e+003;5.968131e-002
1.552481e+003;5.966364e-002
1.554410e+003;5.969842e-002
1.556338e+003;5.948110e-002
1.558267e+003;5.904803e-002
1.560195e+003;5.883524e-002
1.562124e+003;5.949892e-002
1.564052e+003;6.013039e-002
1.565981e+003;6.015851e-002
1.567910e+003;5.992369e-002
1.569838e+003;5.979313e-002
1.571767e+003;5.995218e-002
1.573695e+003;6.017305e-002
1.575624e+003;5.991083e-002
1.577552e+003;6.007377e-002
1.579481e+003;6.018789e-002
1.581409e+003;6.011182e-002
1.583338e+003;6.038433e-002
1.585266e+003;6.052230e-002
1.587195e+003;6.046818e-002
1.589124e+003;6.059502e-002
1.591052e+003;6.085917e-002
1.592981e+003;6.109759e-002
1.594909e+003;6.153328e-002
1.596838e+003;6.196613e-002
1.598766e+003;6.220603e-002
1.600695e+003;6.273291e-002
1.602623e+003;6.321532e-002
1.604552e+003;6.347401e-002
1.606480e+003;6.384289e-002
1.608409e+003;6.432845e-002
1.610338e+003;6.503938e-002
1.612266e+003;6.580961e-002
1.614195e+003;6.639899e-002
1.616123e+003;6.684173e-002
1.618052e+003;6.738672e-002
1.619980e+003;6.795309e-002
1.621909e+003;6.842578e-002
1.623837e+003;6.884769e-002
1.625766e+003;6.948969e-002
1.627694e+003;7.033069e-002
1.629623e+003;7.088628e-002
1.631552e+003;7.105511e-002
1.633480e+003;7.132103e-002
1.635409e+003;7.176714e-002
1.637337e+003;7.209079e-002
1.639266e+003;7.209689e-002
1.641194e+003;7.220655e-002
1.643123e+003;7.249317e-002
1.645051e+003;7.242016e-002
1.646980e+003;7.216351e-002
1.648909e+003;7.174654e-002
1.650837e+003;7.095190e-002
1.652766e+003;7.019953e-002
1.654694e+003;6.982328e-002
1.656623e+003;6.951578e-002
1.658551e+003;6.899207e-002
1.660480e+003;6.828368e-002
1.662408e+003;6.747496e-002
1.664337e+003;6.683284e-002
1.666266e+003;6.607958e-002
1.668194e+003;6.495284e-002
1.670123e+003;6.391168e-002
1.672051e+003;6.320321e-002
1.673980e+003;6.246425e-002
1.675908e+003;6.142281e-002
1.677837e+003;6.053807e-002
1.679765e+003;5.936560e-002
1.681694e+003;5.807924e-002
1.683622e+003;5.663799e-002
1.685551e+003;5.569535e-002
1.687479e+003;5.496427e-002
1.689408e+003;5.394319e-002
1.691337e+003;5.301053e-002
1.693265e+003;5.214360e-002
1.695194e+003;5.095465e-002
1.697122e+003;4.986935e-002
1.699051e+003;4.911046e-002
1.700979e+003;4.819007e-002
1.702908e+003;4.728375e-002
1.704836e+003;4.629610e-002
1.706765e+003;4.546535e-002
1.708693e+003;4.478213e-002
1.710622e+003;4.407306e-002
1.712551e+003;4.366475e-002
1.714479e+003;4.366966e-002
1.716408e+003;4.347724e-002
1.718336e+003;4.315640e-002
1.720265e+003;4.289109e-002
1.722193e+003;4.263156e-002
1.724122e+003;4.257729e-002
1.726050e+003;4.249514e-002
1.727979e+003;4.209535e-002
1.729908e+003;4.139616e-002
1.731836e+003;4.056646e-002
1.733765e+003;3.986507e-002
1.735693e+003;3.944172e-002
1.737622e+003;3.852988e-002
1.739550e+003;3.760669e-002
1.741479e+003;3.723946e-002
1.743407e+003;3.671917e-002
1.745336e+003;3.599901e-002
1.747265e+003;3.540686e-002
1.749193e+003;3.506178e-002
1.751122e+003;3.496539e-002
1.753050e+003;3.503323e-002
1.754979e+003;3.525982e-002
1.756907e+003;3.529716e-002
1.758836e+003;3.507791e-002
1.760764e+003;3.483849e-002
1.762693e+003;3.463092e-002
1.764621e+003;3.432989e-002
1.766550e+003;3.402684e-002
1.768479e+003;3.382800e-002
1.770407e+003;3.373947e-002
1.772336e+003;3.354112e-002
1.774264e+003;3.350851e-002
1.776193e+003;3.349710e-002
1.778121e+003;3.314720e-002
1.780050e+003;3.271791e-002
1.781978e+003;3.262879e-002
1.783907e+003;3.251100e-002
1.785835e+003;3.249925e-002
1.787764e+003;3.240088e-002
1.789693e+003;3.224526e-002
1.791621e+003;3.217385e-002
1.793550e+003;3.203157e-002
1.795478e+003;3.168521e-002
1.797407e+003;3.129970e-002
1.799335e+003;3.121945e-002
1.801264e+003;3.110297e-002
1.803192e+003;3.097054e-002
1.805121e+003;3.075116e-002
1.807049e+003;3.066968e-002
1.808978e+003;3.056064e-002
1.810907e+003;3.036658e-002
1.812835e+003;3.026255e-002
1.814764e+003;3.009015e-002
1.816692e+003;3.000393e-002
1.818621e+003;3.009746e-002
1.820549e+003;3.012246e-002
1.822478e+003;3.018568e-002
1.824406e+003;3.003891e-002
1.826335e+003;2.966560e-002
1.828264e+003;2.938125e-002
1.830192e+003;2.927175e-002
1.832121e+003;2.925232e-002
1.834049e+003;2.914558e-002
1.835978e+003;2.909640e-002
1.837906e+003;2.892053e-002
1.839835e+003;2.876200e-002
1.841763e+003;2.871056e-002
1.843692e+003;2.859812e-002
1.845620e+003;2.861107e-002
1.847549e+003;2.856588e-002
1.849478e+003;2.849119e-002
1.851406e+003;2.856917e-002
1.853335e+003;2.828422e-002
1.855263e+003;2.793281e-002
1.857192e+003;2.783374e-002
1.859120e+003;2.780905e-002
1.861049e+003;2.781530e-002
1.862977e+003;2.774258e-002
1.864906e+003;2.768805e-002
1.866834e+003;2.759246e-002
1.868763e+003;2.735476e-002
1.870692e+003;2.731178e-002
1.872620e+003;2.745404e-002
1.874549e+003;2.727382e-002
1.876477e+003;2.707410e-002
1.878406e+003;2.699624e-002
1.880334e+003;2.684056e-002
1.882263e+003;2.690860e-002
1.884191e+003;2.708941e-002
1.886120e+003;2.708027e-002
1.888048e+003;2.695647e-002
1.889977e+003;2.692728e-002
1.891906e+003;2.692657e-002
1.893834e+003;2.685325e-002
1.895763e+003;2.671433e-002
1.897691e+003;2.673364e-002
1.899620e+003;2.701119e-002
1.901548e+003;2.702773e-002
1.903477e+003;2.697160e-002
1.905405e+003;2.712072e-002
1.907334e+003;2.722573e-002
1.909262e+003;2.726923e-002
1.911191e+003;2.738112e-002
1.913120e+003;2.738539e-002
1.915048e+003;2.719031e-002
1.916977e+003;2.699102e-002
1.918905e+003;2.713127e-002
1.920834e+003;2.737025e-002
1.922762e+003;2.744571e-002
1.924691e+003;2.734435e-002
1.926619e+003;2.751864e-002
1.928548e+003;2.773315e-002
1.930477e+003;2.761064e-002
1.932405e+003;2.751899e-002
1.934334e+003;2.750925e-002
1.936262e+003;2.743381e-002
1.938191e+003;2.753286e-002
1.940119e+003;2.771167e-002
1.942048e+003;2.772767e-002
1.943976e+003;2.774021e-002
1.945905e+003;2.783488e-002
1.947833e+003;2.809316e-002
1.949762e+003;2.835987e-002
1.951691e+003;2.833183e-002
1.953619e+003;2.845524e-002
1.955548e+003;2.832390e-002
1.957476e+003;2.815340e-002
1.959405e+003;2.833274e-002
1.961333e+003;2.866349e-002
1.963262e+003;2.884977e-002
1.965190e+003;2.859104e-002
1.967119e+003;2.823040e-002
1.969047e+003;2.840444e-002
1.970976e+003;2.885363e-002
1.972905e+003;2.905063e-002
1.974833e+003;2.919495e-002
1.976762e+003;2.924732e-002
1.978690e+003;2.915806e-002
1.980619e+003;2.939518e-002
1.982547e+003;2.961534e-002
1.984476e+003;2.921036e-002
1.986404e+003;2.901853e-002
1.988333e+003;2.920933e-002
1.990261e+003;2.922627e-002
1.992190e+003;2.902395e-002
1.994119e+003;2.905166e-002
1.996047e+003;2.920466e-002
1.997976e+003;2.921908e-002
1.999904e+003;2.920079e-002
2.001833e+003;2.931230e-002
2.003761e+003;2.959788e-002
2.005690e+003;2.980218e-002
2.007618e+003;3.010680e-002
2.009547e+003;3.032241e-002
2.011476e+003;3.033648e-002
2.013404e+003;3.018284e-002
2.015333e+003;3.033848e-002
2.017261e+003;3.066033e-002
2.019190e+003;3.062246e-002
2.021118e+003;3.059608e-002
2.023047e+003;3.082923e-002
2.024975e+003;3.101662e-002
2.026904e+003;3.112788e-002
2.028833e+003;3.119880e-002
2.030761e+003;3.136470e-002
2.032690e+003;3.139291e-002
2.034618e+003;3.146290e-002
2.036547e+003;3.162741e-002
2.038475e+003;3.197205e-002
2.040404e+003;3.220069e-002
2.042332e+003;3.217150e-002
2.044261e+003;3.207552e-002
2.046189e+003;3.206924e-002
2.048118e+003;3.221721e-002
2.050047e+003;3.228023e-002
2.051975e+003;3.207659e-002
2.053904e+003;3.204003e-002
2.055832e+003;3.211416e-002
2.057761e+003;3.211280e-002
2.059689e+003;3.219833e-002
2.061618e+003;3.218184e-002
2.063546e+003;3.214438e-002
2.065475e+003;3.227752e-002
2.067404e+003;3.212576e-002
2.069332e+003;3.203503e-002
2.071260e+003;3.212975e-002
2.073189e+003;3.223337e-002
2.075118e+003;3.263043e-002
2.077046e+003;3.283654e-002
2.078975e+003;3.244651e-002
2.080903e+003;3.193710e-002
2.082832e+003;3.187729e-002
2.084760e+003;3.218795e-002
2.086689e+003;3.250118e-002
2.088617e+003;3.265143e-002
2.090546e+003;3.255167e-002
2.092475e+003;3.255356e-002
2.094403e+003;3.252871e-002
2.096332e+003;3.252618e-002
2.098260e+003;3.254471e-002
2.100189e+003;3.252271e-002
2.102117e+003;3.265690e-002
2.104046e+003;3.289065e-002
2.105974e+003;3.309152e-002
2.107903e+003;3.307214e-002
2.109832e+003;3.293369e-002
2.111760e+003;3.301765e-002
2.113688e+003;3.325654e-002
2.115617e+003;3.356675e-002
2.117546e+003;3.355579e-002
2.119474e+003;3.348693e-002
2.121403e+003;3.354814e-002
2.123331e+003;3.360290e-002
2.125260e+003;3.351531e-002
2.127188e+003;3.353522e-002
2.129117e+003;3.367902e-002
2.131045e+003;3.368643e-002
2.132974e+003;3.375863e-002
2.134903e+003;3.378101e-002
2.136831e+003;3.354295e-002
2.138760e+003;3.332651e-002
2.140688e+003;3.341321e-002
2.142617e+003;3.350733e-002
2.144545e+003;3.338534e-002
2.146474e+003;3.306528e-002
2.148402e+003;3.289237e-002
2.150331e+003;3.314849e-002
2.152260e+003;3.326398e-002
2.154188e+003;3.332197e-002
2.156117e+003;3.340405e-002
2.158045e+003;3.326119e-002
2.159974e+003;3.291424e-002
2.161902e+003;3.277901e-002
2.163831e+003;3.292725e-002
2.165759e+003;3.296907e-002
2.167688e+003;3.306760e-002
2.169616e+003;3.316025e-002
2.171545e+003;3.305731e-002
2.173474e+003;3.292893e-002
2.175402e+003;3.267026e-002
2.177331e+003;3.238517e-002
2.179259e+003;3.259793e-002
2.181188e+003;3.261561e-002
2.183116e+003;3.236183e-002
2.185045e+003;3.208441e-002
2.186973e+003;3.183026e-002
2.188902e+003;3.173843e-002
2.190831e+003;3.179682e-002
2.192759e+003;3.200454e-002
2.194688e+003;3.196249e-002
2.196616e+003;3.173526e-002
2.198545e+003;3.163731e-002
2.200473e+003;3.140676e-002
2.202402e+003;3.120150e-002
2.204330e+003;3.119064e-002
2.206259e+003;3.135971e-002
2.208188e+003;3.147915e-002
2.210116e+003;3.142468e-002
2.212044e+003;3.108382e-002
2.213973e+003;3.072658e-002
2.215902e+003;3.077566e-002
2.217830e+003;3.060750e-002
2.219759e+003;3.050095e-002
2.221687e+003;3.063089e-002
2.223616e+003;3.046186e-002
2.225544e+003;3.026575e-002
2.227473e+003;3.015290e-002
2.229401e+003;3.004966e-002
2.231330e+003;2.993538e-002
2.233259e+003;2.979973e-002
2.235187e+003;2.965336e-002
2.237116e+003;2.969296e-002
2.239044e+003;2.997060e-002
2.240973e+003;3.000109e-002
2.242901e+003;2.992232e-002
2.244830e+003;3.000496e-002
2.246758e+003;2.986095e-002
2.248687e+003;2.950127e-002
2.250615e+003;2.946684e-002
2.252544e+003;2.951925e-002
2.254473e+003;2.946450e-002
2.256401e+003;2.965812e-002
2.258330e+003;2.973972e-002
2.260258e+003;2.926544e-002
2.262187e+003;2.875099e-002
2.264115e+003;2.863839e-002
2.266044e+003;2.880332e-002
2.267972e+003;2.890385e-002
2.269901e+003;2.908939e-002
2.271830e+003;2.922160e-002
2.273758e+003;2.910767e-002
2.275687e+003;2.882240e-002
2.277615e+003;2.861960e-002
2.279544e+003;2.858315e-002
2.281472e+003;2.856156e-002
2.283401e+003;2.847205e-002
2.285329e+003;2.844555e-002
2.287258e+003;2.839436e-002
2.289187e+003;2.870196e-002
2.291115e+003;2.886992e-002
2.293043e+003;2.855289e-002
2.294972e+003;2.841891e-002
2.296901e+003;2.856528e-002
2.298829e+003;2.870880e-002
2.300758e+003;2.862654e-002
2.302686e+003;2.835326e-002
2.304615e+003;2.836649e-002
2.306543e+003;2.829582e-002
2.308472e+003;2.814205e-002
2.310400e+003;2.824564e-002
2.312329e+003;2.865014e-002
2.314258e+003;2.870345e-002
2.316186e+003;2.852388e-002
2.318115e+003;2.860859e-002
2.320043e+003;2.840656e-002
2.321972e+003;2.804495e-002
2.323900e+003;2.792878e-002
2.325829e+003;2.782460e-002
2.327757e+003;2.807616e-002
2.329686e+003;2.829055e-002
2.331615e+003;2.818769e-002
2.333543e+003;2.818405e-002
2.335472e+003;2.795278e-002
2.337400e+003;2.792264e-002
2.339329e+003;2.819798e-002
2.341257e+003;2.829197e-002
2.343186e+003;2.848545e-002
2.345114e+003;2.877542e-002
2.347043e+003;2.918424e-002
2.348971e+003;2.970204e-002
2.350900e+003;2.968551e-002
2.352829e+003;2.919636e-002
2.354757e+003;2.888975e-002
2.356686e+003;2.893112e-002
2.358614e+003;2.885236e-002
2.360543e+003;2.869941e-002
2.362471e+003;2.892290e-002
2.364400e+003;2.921426e-002
2.366328e+003;2.915398e-002
2.368257e+003;2.941617e-002
2.370186e+003;3.013674e-002
2.372114e+003;3.043172e-002
2.374042e+003;3.062079e-002
2.375971e+003;3.078747e-002
2.377900e+003;3.071740e-002
2.379828e+003;3.089995e-002
2.381757e+003;3.115857e-002
2.383685e+003;3.130301e-002
2.385614e+003;3.152838e-002
2.387542e+003;3.150462e-002
2.389471e+003;3.141933e-002
2.391399e+003;3.176395e-002
2.393328e+003;3.227285e-002
2.395257e+003;3.233938e-002
2.397185e+003;3.233713e-002
2.399114e+003;3.240963e-002
2.401042e+003;3.241227e-002
2.402971e+003;3.208337e-002
2.404899e+003;3.205936e-002
2.406828e+003;3.254353e-002
2.408756e+003;3.290284e-002
2.410685e+003;3.284590e-002
2.412614e+003;3.304375e-002
2.414542e+003;3.342598e-002
2.416471e+003;3.366617e-002
2.418399e+003;3.373786e-002
2.420328e+003;3.377334e-002
2.422256e+003;3.394030e-002
2.424185e+003;3.415227e-002
2.426113e+003;3.418249e-002
2.428042e+003;3.422856e-002
2.429970e+003;3.450330e-002
2.431899e+003;3.477509e-002
2.433828e+003;3.490621e-002
2.435756e+003;3.516801e-002
2.437685e+003;3.556985e-002
2.439613e+003;3.585879e-002
2.441542e+003;3.580222e-002
2.443470e+003;3.585692e-002
2.445399e+003;3.609248e-002
2.447327e+003;3.628410e-002
2.449256e+003;3.635507e-002
2.451185e+003;3.637784e-002
2.453113e+003;3.632848e-002
2.455042e+003;3.653636e-002
2.456970e+003;3.685011e-002
2.458899e+003;3.673767e-002
2.460827e+003;3.679720e-002
2.462756e+003;3.719243e-002
2.464684e+003;3.752005e-002
2.466613e+003;3.767874e-002
2.468542e+003;3.803132e-002
2.470470e+003;3.823173e-002
2.472398e+003;3.822548e-002
2.474327e+003;3.826991e-002
2.476256e+003;3.843340e-002
2.478184e+003;3.866974e-002
2.480113e+003;3.876163e-002
2.482041e+003;3.890374e-002
2.483970e+003;3.888580e-002
2.485898e+003;3.872871e-002
2.487827e+003;3.901225e-002
2.489755e+003;3.933676e-002
2.491684e+003;3.948787e-002
2.493613e+003;3.939103e-002
2.495541e+003;3.937960e-002
2.497470e+003;3.954899e-002
2.499398e+003;3.982810e-002
2.501327e+003;4.004260e-002
2.503255e+003;4.021391e-002
2.505184e+003;4.023547e-002
2.507112e+003;4.041642e-002
2.509041e+003;4.077695e-002
2.510969e+003;4.077997e-002
2.512898e+003;4.074828e-002
2.514827e+003;4.064755e-002
2.516755e+003;4.054423e-002
2.518684e+003;4.062790e-002
2.520612e+003;4.087687e-002
2.522541e+003;4.122402e-002
2.524469e+003;4.147646e-002
2.526398e+003;4.151985e-002
2.528326e+003;4.151237e-002
2.530255e+003;4.162143e-002
2.532184e+003;4.176991e-002
2.534112e+003;4.183755e-002
2.536041e+003;4.177994e-002
2.537969e+003;4.166191e-002
2.539898e+003;4.199618e-002
2.541826e+003;4.221832e-002
2.543755e+003;4.213303e-002
2.545683e+003;4.221029e-002
2.547612e+003;4.256698e-002
2.549541e+003;4.276960e-002
2.551469e+003;4.265777e-002
2.553397e+003;4.260781e-002
2.555326e+003;4.282423e-002
2.557255e+003;4.293187e-002
2.559183e+003;4.287016e-002
2.561112e+003;4.310817e-002
2.563040e+003;4.329892e-002
2.564969e+003;4.343417e-002
2.566897e+003;4.354474e-002
2.568826e+003;4.382031e-002
2.570754e+003;4.397288e-002
2.572683e+003;4.383988e-002
2.574612e+003;4.372334e-002
2.576540e+003;4.389846e-002
2.578469e+003;4.426032e-002
2.580397e+003;4.444090e-002
2.582326e+003;4.432170e-002
2.584254e+003;4.422653e-002
2.586183e+003;4.447706e-002
2.588111e+003;4.513410e-002
2.590040e+003;4.562181e-002
2.591969e+003;4.538600e-002
2.593897e+003;4.524650e-002
2.595826e+003;4.540031e-002
2.597754e+003;4.529147e-002
2.599683e+003;4.522109e-002
2.601611e+003;4.549655e-002
2.603540e+003;4.578223e-002
2.605468e+003;4.597542e-002
2.607397e+003;4.594621e-002
2.609325e+003;4.608225e-002
2.611254e+003;4.628350e-002
2.613183e+003;4.662168e-002
2.615111e+003;4.694048e-002
2.617040e+003;4.691744e-002
2.618968e+003;4.714135e-002
2.620897e+003;4.751335e-002
2.622825e+003;4.780913e-002
2.624754e+003;4.804271e-002
2.626682e+003;4.822943e-002
2.628611e+003;4.847057e-002
2.630540e+003;4.875740e-002
2.632468e+003;4.887048e-002
2.634396e+003;4.891435e-002
2.636325e+003;4.901045e-002
2.638254e+003;4.910059e-002
2.640182e+003;4.934429e-002
2.642111e+003;4.953948e-002
2.644039e+003;4.983884e-002
2.645968e+003;5.003749e-002
2.647896e+003;5.031777e-002
2.649825e+003;5.070546e-002
2.651753e+003;5.086941e-002
2.653682e+003;5.095406e-002
2.655611e+003;5.116637e-002
2.657539e+003;5.146383e-002
2.659468e+003;5.167912e-002
2.661396e+003;5.181021e-002
2.663325e+003;5.205014e-002
2.665253e+003;5.229210e-002
2.667182e+003;5.239384e-002
2.669110e+003;5.239788e-002
2.671039e+003;5.257223e-002
2.672968e+003;5.302109e-002
2.674896e+003;5.357295e-002
2.676825e+003;5.402337e-002
2.678753e+003;5.395054e-002
2.680682e+003;5.404757e-002
2.682610e+003;5.435967e-002
2.684539e+003;5.466891e-002
2.686467e+003;5.494407e-002
2.688396e+003;5.523571e-002
2.690324e+003;5.526186e-002
2.692253e+003;5.541075e-002
2.694182e+003;5.538794e-002
2.696110e+003;5.539370e-002
2.698039e+003;5.580381e-002
2.699967e+003;5.643517e-002
2.701896e+003;5.640287e-002
2.703824e+003;5.631259e-002
2.705753e+003;5.661900e-002
2.707681e+003;5.701750e-002
2.709610e+003;5.729351e-002
2.711539e+003;5.759263e-002
2.713467e+003;5.785050e-002
2.715396e+003;5.802637e-002
2.717324e+003;5.821319e-002
2.719253e+003;5.845509e-002
2.721181e+003;5.864914e-002
2.723110e+003;5.854547e-002
2.725038e+003;5.867304e-002
2.726967e+003;5.931709e-002
2.728896e+003;5.940325e-002
2.730824e+003;5.940522e-002
2.732752e+003;5.953985e-002
2.734681e+003;5.957698e-002
2.736610e+003;5.972983e-002
2.738538e+003;5.998474e-002
2.740467e+003;6.037268e-002
2.742395e+003;6.095498e-002
2.744324e+003;6.083451e-002
2.746252e+003;6.054999e-002
2.748181e+003;6.090553e-002
2.750109e+003;6.134866e-002
2.752038e+003;6.132050e-002
2.753967e+003;6.139457e-002
2.755895e+003;6.165024e-002
2.757824e+003;6.179309e-002
2.759752e+003;6.207253e-002
2.761681e+003;6.225827e-002
2.763609e+003;6.255834e-002
2.765538e+003;6.290518e-002
2.767466e+003;6.302799e-002
2.769395e+003;6.290438e-002
2.771323e+003;6.301404e-002
2.773252e+003;6.341949e-002
2.775181e+003;6.396811e-002
2.777109e+003;6.440450e-002
2.779038e+003;6.483656e-002
2.780966e+003;6.511316e-002
2.782895e+003;6.535717e-002
2.784823e+003;6.588889e-002
2.786752e+003;6.625905e-002
2.788680e+003;6.628530e-002
2.790609e+003;6.661474e-002
2.792538e+003;6.725182e-002
2.794466e+003;6.778435e-002
2.796395e+003;6.787987e-002
2.798323e+003;6.817346e-002
2.800252e+003;6.849863e-002
2.802180e+003;6.876570e-002
2.804109e+003;6.926453e-002
2.806037e+003;6.959274e-002
2.807966e+003;7.012925e-002
2.809895e+003;7.076269e-002
2.811823e+003;7.118750e-002
2.813751e+003;7.151490e-002
2.815680e+003;7.198823e-002
2.817609e+003;7.250257e-002
2.819537e+003;7.269705e-002
2.821466e+003;7.286149e-002
2.823394e+003;7.367804e-002
2.825323e+003;7.469788e-002
2.827251e+003;7.530709e-002
2.829180e+003;7.567646e-002
2.831108e+003;7.646122e-002
2.833037e+003;7.719836e-002
2.834966e+003;7.782488e-002
2.836894e+003;7.845517e-002
2.838823e+003;7.912366e-002
2.840751e+003;7.963582e-002
2.842680e+003;8.016527e-002
2.844608e+003;8.127199e-002
2.846537e+003;8.248369e-002
2.848465e+003;8.384629e-002
2.850394e+003;8.507862e-002
2.852323e+003;8.622348e-002
2.854251e+003;8.786756e-002
2.856180e+003;8.941015e-002
2.858108e+003;9.103791e-002
2.860037e+003;9.279379e-002
2.861965e+003;9.419638e-002
2.863894e+003;9.527800e-002
2.865822e+003;9.641734e-002
2.867751e+003;9.775476e-002
2.869679e+003;9.918752e-002
2.871608e+003;1.001484e-001
2.873536e+003;1.011486e-001
2.875465e+003;1.020204e-001
2.877394e+003;1.026357e-001
2.879322e+003;1.033111e-001
2.881251e+003;1.035438e-001
2.883179e+003;1.038383e-001
2.885108e+003;1.045575e-001
2.887036e+003;1.050918e-001
2.888965e+003;1.052585e-001
2.890893e+003;1.054762e-001
2.892822e+003;1.055586e-001
2.894750e+003;1.052927e-001
2.896679e+003;1.049119e-001
2.898608e+003;1.045329e-001
2.900536e+003;1.041012e-001
2.902465e+003;1.035001e-001
2.904393e+003;1.032512e-001
2.906322e+003;1.031669e-001
2.908250e+003;1.025487e-001
2.910179e+003;1.015166e-001
2.912107e+003;1.004646e-001
2.914036e+003;9.932902e-002
2.915965e+003;9.839966e-002
2.917893e+003;9.738425e-002
2.919822e+003;9.633117e-002
2.921750e+003;9.531266e-002
2.923679e+003;9.444234e-002
2.925607e+003;9.396759e-002
2.927536e+003;9.328068e-002
2.929464e+003;9.277636e-002
2.931393e+003;9.263927e-002
2.933322e+003;9.208092e-002
2.935250e+003;9.089998e-002
2.937178e+003;8.963218e-002
2.939107e+003;8.867476e-002
2.941036e+003;8.791117e-002
2.942964e+003;8.697076e-002
2.944893e+003;8.573156e-002
2.946821e+003;8.387616e-002
2.948750e+003;8.206798e-002
2.950678e+003;8.087077e-002
2.952607e+003;7.946522e-002
2.954535e+003;7.808938e-002
2.956464e+003;7.672082e-002
2.958393e+003;7.519286e-002
2.960321e+003;7.461533e-002
2.962250e+003;7.436866e-002
2.964178e+003;7.412399e-002
2.966107e+003;7.384826e-002
2.968035e+003;7.366889e-002
2.969964e+003;7.313372e-002
2.971892e+003;7.244071e-002
2.973821e+003;7.199946e-002
2.975750e+003;7.141936e-002
2.977678e+003;7.091488e-002
2.979607e+003;7.049645e-002
2.981535e+003;6.998862e-002
2.983464e+003;6.915740e-002
2.985392e+003;6.864856e-002
2.987321e+003;6.860114e-002
2.989249e+003;6.830105e-002
2.991178e+003;6.778075e-002
2.993106e+003;6.751866e-002
2.995035e+003;6.745747e-002
2.996964e+003;6.728937e-002
2.998892e+003;6.727707e-002
3.000821e+003;6.744017e-002
3.002749e+003;6.740484e-002
3.004678e+003;6.711455e-002
3.006606e+003;6.726980e-002
3.008535e+003;6.765202e-002
3.010463e+003;6.776959e-002
3.012392e+003;6.811240e-002
3.014321e+003;6.831424e-002
3.016249e+003;6.843048e-002
3.018177e+003;6.884777e-002
3.020106e+003;6.928147e-002
3.022035e+003;6.941757e-002
3.023963e+003;6.990586e-002
3.025892e+003;7.088149e-002
3.027820e+003;7.137784e-002
3.029749e+003;7.155354e-002
3.031677e+003;7.183410e-002
3.033606e+003;7.213335e-002
3.035534e+003;7.203583e-002
3.037463e+003;7.225621e-002
3.039392e+003;7.334320e-002
3.041320e+003;7.384842e-002
3.043249e+003;7.413287e-002
3.045177e+003;7.449157e-002
3.047106e+003;7.493721e-002
3.049034e+003;7.537425e-002
3.050963e+003;7.573760e-002
3.052891e+003;7.659092e-002
3.054820e+003;7.787594e-002
3.056749e+003;7.878071e-002
3.058677e+003;7.890705e-002
3.060606e+003;7.862053e-002
3.062534e+003;7.905207e-002
3.064463e+003;8.030868e-002
3.066391e+003;8.136589e-002
3.068320e+003;8.142819e-002
3.070248e+003;8.163411e-002
3.072177e+003;8.234344e-002
3.074105e+003;8.302895e-002
3.076034e+003;8.316492e-002
3.077963e+003;8.370335e-002
3.079891e+003;8.445214e-002
3.081820e+003;8.507963e-002
3.083748e+003;8.586349e-002
3.085677e+003;8.605436e-002
3.087605e+003;8.666488e-002
3.089534e+003;8.742429e-002
3.091462e+003;8.767293e-002
3.093391e+003;8.816414e-002
3.095320e+003;8.880137e-002
3.097248e+003;8.942932e-002
3.099177e+003;9.013773e-002
3.101105e+003;9.069395e-002
3.103034e+003;9.128871e-002
3.104962e+003;9.215420e-002
3.106891e+003;9.251481e-002
3.108819e+003;9.260532e-002
3.110748e+003;9.323111e-002
3.112677e+003;9.430251e-002
3.114605e+003;9.544902e-002
3.116533e+003;9.609688e-002
3.118462e+003;9.620123e-002
3.120391e+003;9.653100e-002
3.122319e+003;9.738056e-002
3.124248e+003;9.816865e-002
3.126176e+003;9.865683e-002
3.128105e+003;9.909219e-002
3.130033e+003;9.976242e-002
3.131962e+003;1.006719e-001
3.133890e+003;1.009420e-001
3.135819e+003;1.015494e-001
3.137748e+003;1.025799e-001
3.139676e+003;1.029965e-001
3.141605e+003;1.033911e-001
3.143533e+003;1.038073e-001
3.145462e+003;1.042608e-001
3.147390e+003;1.049453e-001
3.149319e+003;1.057665e-001
3.151247e+003;1.065008e-001
3.153176e+003;1.070328e-001
3.155104e+003;1.075536e-001
3.157033e+003;1.084970e-001
3.158962e+003;1.096726e-001
3.160890e+003;1.106403e-001
3.162819e+003;1.110335e-001
3.164747e+003;1.112996e-001
3.166676e+003;1.113691e-001
3.168604e+003;1.117668e-001
3.170533e+003;1.125329e-001
3.172461e+003;1.128581e-001
3.174390e+003;1.134119e-001
3.176319e+003;1.141842e-001
3.178247e+003;1.150941e-001
3.180176e+003;1.160319e-001
3.182104e+003;1.161976e-001
3.184033e+003;1.165606e-001
3.185961e+003;1.174365e-001
3.187890e+003;1.178348e-001
3.189818e+003;1.180382e-001
3.191747e+003;1.186004e-001
3.193676e+003;1.194435e-001
3.195604e+003;1.198341e-001
3.197532e+003;1.201235e-001
3.199461e+003;1.206168e-001
3.201390e+003;1.211926e-001
3.203318e+003;1.218440e-001
3.205247e+003;1.226166e-001
3.207175e+003;1.228299e-001
3.209104e+003;1.232444e-001
3.211032e+003;1.244106e-001
3.212961e+003;1.252453e-001
3.214889e+003;1.258583e-001
3.216818e+003;1.266853e-001
3.218747e+003;1.271810e-001
3.220675e+003;1.274332e-001
3.222604e+003;1.278975e-001
3.224532e+003;1.283307e-001
3.226461e+003;1.283143e-001
3.228389e+003;1.287335e-001
3.230318e+003;1.296964e-001
3.232246e+003;1.306215e-001
3.234175e+003;1.312428e-001
3.236104e+003;1.318837e-001
3.238032e+003;1.325729e-001
3.239961e+003;1.325863e-001
3.241889e+003;1.326646e-001
3.243818e+003;1.328597e-001
3.245746e+003;1.328966e-001
3.247675e+003;1.331501e-001
3.249603e+003;1.339056e-001
3.251532e+003;1.348082e-001
3.253460e+003;1.353768e-001
3.255389e+003;1.358213e-001
3.257318e+003;1.364294e-001
3.259246e+003;1.369140e-001
3.261175e+003;1.373098e-001
3.263103e+003;1.375438e-001
3.265032e+003;1.376585e-001
3.266960e+003;1.379239e-001
3.268889e+003;1.381901e-001
3.270817e+003;1.385338e-001
3.272746e+003;1.386983e-001
3.274675e+003;1.387247e-001
3.276603e+003;1.391088e-001
3.278531e+003;1.395338e-001
3.280460e+003;1.399427e-001
3.282389e+003;1.407364e-001
3.284317e+003;1.409928e-001
3.286246e+003;1.408540e-001
3.288174e+003;1.407710e-001
3.290103e+003;1.412999e-001
3.292031e+003;1.418214e-001
3.293960e+003;1.420065e-001
3.295888e+003;1.424727e-001
3.297817e+003;1.425610e-001
3.299746e+003;1.422366e-001
3.301674e+003;1.422155e-001
3.303603e+003;1.423993e-001
3.305531e+003;1.421294e-001
3.307460e+003;1.418988e-001
3.309388e+003;1.423467e-001
3.311317e+003;1.434016e-001
3.313245e+003;1.440528e-001
3.315174e+003;1.441662e-001
3.317103e+003;1.433251e-001
3.319031e+003;1.428862e-001
3.320960e+003;1.434364e-001
3.322888e+003;1.437258e-001
3.324817e+003;1.443183e-001
3.326745e+003;1.445267e-001
3.328674e+003;1.439211e-001
3.330602e+003;1.438680e-001
3.332531e+003;1.439470e-001
3.334459e+003;1.438438e-001
3.336388e+003;1.437514e-001
3.338317e+003;1.438940e-001
3.340245e+003;1.435059e-001
3.342174e+003;1.431113e-001
3.344102e+003;1.432823e-001
3.346031e+003;1.429897e-001
3.347959e+003;1.431051e-001
3.349888e+003;1.434734e-001
3.351816e+003;1.432377e-001
3.353745e+003;1.428636e-001
3.355674e+003;1.424986e-001
3.357602e+003;1.424558e-001
3.359531e+003;1.423476e-001
3.361459e+003;1.418975e-001
3.363388e+003;1.415281e-001
3.365316e+003;1.414704e-001
3.367245e+003;1.416202e-001
3.369173e+003;1.413378e-001
3.371102e+003;1.406978e-001
3.373031e+003;1.403343e-001
3.374959e+003;1.402486e-001
3.376887e+003;1.399770e-001
3.378816e+003;1.396370e-001
3.380745e+003;1.394831e-001
3.382673e+003;1.394128e-001
3.384602e+003;1.388444e-001
3.386530e+003;1.384772e-001
3.388459e+003;1.381365e-001
3.390387e+003;1.376902e-001
3.392316e+003;1.375997e-001
3.394244e+003;1.375621e-001
3.396173e+003;1.367080e-001
3.398102e+003;1.362073e-001
3.400030e+003;1.356832e-001
3.401959e+003;1.350455e-001
3.403887e+003;1.345246e-001
3.405816e+003;1.341484e-001
3.407744e+003;1.344291e-001
3.409673e+003;1.339826e-001
3.411601e+003;1.328549e-001
3.413530e+003;1.324540e-001
3.415458e+003;1.319899e-001
3.417387e+003;1.310072e-001
3.419316e+003;1.310030e-001
3.421244e+003;1.309166e-001
3.423173e+003;1.299361e-001
3.425101e+003;1.298148e-001
3.427030e+003;1.302205e-001
3.428958e+003;1.299071e-001
3.430887e+003;1.293586e-001
3.432815e+003;1.284879e-001
3.434744e+003;1.275908e-001
3.436673e+003;1.271427e-001
3.438601e+003;1.269028e-001
3.440530e+003;1.264100e-001
3.442458e+003;1.253947e-001
3.444387e+003;1.243490e-001
3.446315e+003;1.230710e-001
3.448244e+003;1.220140e-001
3.450172e+003;1.210199e-001
3.452101e+003;1.199396e-001
3.454030e+003;1.188000e-001
3.455958e+003;1.175530e-001
3.457886e+003;1.164208e-001
3.459815e+003;1.152359e-001
3.461744e+003;1.141476e-001
3.463672e+003;1.130752e-001
3.465601e+003;1.122284e-001
3.467529e+003;1.113210e-001
3.469458e+003;1.105635e-001
3.471386e+003;1.098000e-001
3.473315e+003;1.087778e-001
3.475243e+003;1.073511e-001
3.477172e+003;1.062448e-001
3.479101e+003;1.055199e-001
3.481029e+003;1.047485e-001
3.482958e+003;1.038969e-001
3.484886e+003;1.027151e-001
3.486815e+003;1.014212e-001
3.488743e+003;1.007076e-001
3.490672e+003;9.968856e-002
3.492600e+003;9.793884e-002
3.494529e+003;9.642342e-002
3.496458e+003;9.495747e-002
3.498386e+003;9.354424e-002
3.500315e+003;9.254233e-002
3.502243e+003;9.099820e-002
3.504172e+003;8.916328e-002
3.506100e+003;8.764682e-002
3.508029e+003;8.641083e-002
3.509957e+003;8.543941e-002
3.511886e+003;8.465225e-002
3.513814e+003;8.366322e-002
3.515743e+003;8.232766e-002
3.517672e+003;8.080903e-002
3.519600e+003;7.948662e-002
3.521529e+003;7.842802e-002
3.523457e+003;7.725172e-002
3.525386e+003;7.607614e-002
3.527314e+003;7.491508e-002
3.529243e+003;7.396972e-002
3.531171e+003;7.295009e-002
3.533100e+003;7.230250e-002
3.535029e+003;7.181709e-002
3.536957e+003;7.067437e-002
3.538885e+003;6.964362e-002
3.540814e+003;6.840196e-002
3.542743e+003;6.723038e-002
3.544671e+003;6.641338e-002
3.546600e+003;6.548233e-002
3.548528e+003;6.474432e-002
3.550457e+003;6.378510e-002
3.552385e+003;6.247848e-002
3.554314e+003;6.123774e-002
3.556242e+003;6.037389e-002
3.558171e+003;5.979686e-002
3.560100e+003;5.918201e-002
3.562028e+003;5.867159e-002
3.563957e+003;5.771280e-002
3.565885e+003;5.653083e-002
3.567814e+003;5.578602e-002
3.569742e+003;5.544839e-002
3.571671e+003;5.465812e-002
3.573599e+003;5.352415e-002
3.575528e+003;5.300503e-002
3.577457e+003;5.267976e-002
3.579385e+003;5.201069e-002
3.581314e+003;5.148890e-002
3.583242e+003;5.113412e-002
3.585171e+003;5.034913e-002
3.587099e+003;4.930243e-002
3.589028e+003;4.821410e-002
3.590956e+003;4.759675e-002
3.592885e+003;4.684620e-002
3.594813e+003;4.636250e-002
3.596742e+003;4.601469e-002
3.598671e+003;4.511436e-002
3.600599e+003;4.429983e-002
3.602528e+003;4.388105e-002
3.604456e+003;4.367431e-002
3.606385e+003;4.294006e-002
3.608313e+003;4.188360e-002
3.610242e+003;4.094080e-002
3.612170e+003;4.001302e-002
3.614099e+003;3.960499e-002
3.616028e+003;3.962975e-002
3.617956e+003;3.909955e-002
3.619885e+003;3.836143e-002
3.621813e+003;3.778337e-002
3.623742e+003;3.692647e-002
3.625670e+003;3.619305e-002
3.627599e+003;3.546323e-002
3.629527e+003;3.493551e-002
3.631456e+003;3.505507e-002
3.633385e+003;3.465759e-002
3.635313e+003;3.385726e-002
3.637241e+003;3.321705e-002
3.639170e+003;3.254742e-002
3.641099e+003;3.202562e-002
3.643027e+003;3.133841e-002
3.644956e+003;3.030195e-002
3.646884e+003;2.955784e-002
3.648813e+003;2.920423e-002
3.650741e+003;2.851662e-002
3.652670e+003;2.788776e-002
3.654598e+003;2.758928e-002
3.656527e+003;2.751133e-002
3.658456e+003;2.716344e-002
3.660384e+003;2.636275e-002
3.662313e+003;2.578456e-002
3.664241e+003;2.554926e-002
3.666170e+003;2.486780e-002
3.668098e+003;2.389187e-002
3.670027e+003;2.313479e-002
3.671955e+003;2.291262e-002
3.673884e+003;2.285436e-002
3.675813e+003;2.280756e-002
3.677741e+003;2.239744e-002
3.679669e+003;2.172369e-002
3.681598e+003;2.154879e-002
3.683527e+003;2.135774e-002
3.685455e+003;2.128880e-002
3.687384e+003;2.103123e-002
3.689312e+003;2.048673e-002
3.691241e+003;1.991829e-002
3.693169e+003;1.945582e-002
3.695098e+003;1.929645e-002
3.697026e+003;1.907097e-002
3.698955e+003;1.893486e-002
3.700884e+003;1.862185e-002
3.702812e+003;1.817534e-002
3.704741e+003;1.836057e-002
3.706669e+003;1.842718e-002
3.708598e+003;1.797182e-002
3.710526e+003;1.752107e-002
3.712455e+003;1.759980e-002
3.714383e+003;1.766537e-002
3.716312e+003;1.743566e-002
3.718240e+003;1.708982e-002
3.720169e+003;1.643078e-002
3.722098e+003;1.633709e-002
3.724026e+003;1.661978e-002
3.725955e+003;1.679759e-002
3.727883e+003;1.631759e-002
3.729812e+003;1.552124e-002
3.731740e+003;1.530691e-002
3.733669e+003;1.537889e-002
3.735597e+003;1.567573e-002
3.737526e+003;1.595633e-002
3.739455e+003;1.612294e-002
3.741383e+003;1.631872e-002
3.743312e+003;1.595238e-002
3.745240e+003;1.540388e-002
3.747169e+003;1.509883e-002
3.749097e+003;1.469489e-002
3.751026e+003;1.507845e-002
3.752954e+003;1.595534e-002
3.754883e+003;1.658794e-002
3.756812e+003;1.667535e-002
3.758740e+003;1.632371e-002
3.760668e+003;1.591608e-002
3.762597e+003;1.599601e-002
3.764526e+003;1.612439e-002
3.766454e+003;1.594819e-002
3.768383e+003;1.579525e-002
3.770311e+003;1.548652e-002
3.772240e+003;1.578261e-002
3.774168e+003;1.646544e-002
3.776097e+003;1.626127e-002
3.778025e+003;1.588587e-002
3.779954e+003;1.574396e-002
3.781883e+003;1.567964e-002
3.783811e+003;1.576550e-002
3.785740e+003;1.587563e-002
3.787668e+003;1.582058e-002
3.789597e+003;1.607522e-002
3.791525e+003;1.619162e-002
3.793454e+003;1.607515e-002
3.795382e+003;1.568940e-002
3.797311e+003;1.578450e-002
3.799240e+003;1.586457e-002
3.801168e+003;1.561009e-002
3.803097e+003;1.583587e-002
3.805025e+003;1.622371e-002
3.806954e+003;1.650120e-002
3.808882e+003;1.640522e-002
3.810811e+003;1.594936e-002
3.812739e+003;1.590464e-002
3.814668e+003;1.596397e-002
3.816596e+003;1.597778e-002
3.818525e+003;1.612841e-002
3.820454e+003;1.592983e-002
3.822382e+003;1.568871e-002
3.824311e+003;1.630682e-002
3.826239e+003;1.675282e-002
3.828168e+003;1.692315e-002
3.830096e+003;1.693025e-002
3.832025e+003;1.629915e-002
3.833953e+003;1.577752e-002
3.835882e+003;1.593794e-002
3.837811e+003;1.620438e-002
3.839739e+003;1.561730e-002
3.841667e+003;1.549305e-002
3.843596e+003;1.629860e-002
3.845525e+003;1.624562e-002
3.847453e+003;1.645023e-002
3.849382e+003;1.652033e-002
3.851310e+003;1.607264e-002
3.853239e+003;1.606910e-002
3.855167e+003;1.643354e-002
3.857096e+003;1.688763e-002
3.859024e+003;1.722983e-002
3.860953e+003;1.718047e-002
3.862882e+003;1.728500e-002
3.864810e+003;1.730824e-002
3.866739e+003;1.705525e-002
3.868667e+003;1.687733e-002
3.870596e+003;1.684096e-002
3.872524e+003;1.687830e-002
3.874453e+003;1.750914e-002
3.876381e+003;1.835822e-002
3.878310e+003;1.836689e-002
3.880239e+003;1.809412e-002
3.882167e+003;1.795086e-002
3.884096e+003;1.784751e-002
3.886024e+003;1.809143e-002
3.887953e+003;1.871438e-002
3.889881e+003;1.888655e-002
3.891810e+003;1.863251e-002
3.893738e+003;1.864966e-002
3.895667e+003;1.908905e-002
3.897595e+003;1.902036e-002
3.899524e+003;1.872244e-002
3.901453e+003;1.874686e-002
3.903381e+003;1.882495e-002
3.905310e+003;1.943600e-002
3.907238e+003;1.976978e-002
3.909167e+003;1.974530e-002
3.911095e+003;2.018826e-002
3.913024e+003;2.034167e-002
3.914952e+003;2.010982e-002
3.916881e+003;2.037532e-002
3.918810e+003;2.044846e-002
3.920738e+003;2.032716e-002
3.922667e+003;2.002990e-002
3.924595e+003;1.989849e-002
3.926524e+003;2.021585e-002
3.928452e+003;2.042255e-002
3.930381e+003;2.038511e-002
3.932309e+003;2.034053e-002
3.934238e+003;2.024876e-002
3.936167e+003;2.048409e-002
3.938095e+003;2.096567e-002
3.940023e+003;2.091779e-002
3.941952e+003;2.057045e-002
3.943881e+003;2.036317e-002
3.945809e+003;2.081072e-002
3.947738e+003;2.115137e-002
3.949666e+003;2.143418e-002
3.951595e+003;2.153347e-002
3.953523e+003;2.090549e-002
3.955452e+003;2.107967e-002
3.957380e+003;2.167931e-002
3.959309e+003;2.156331e-002
3.961238e+003;2.175650e-002
3.963166e+003;2.196219e-002
3.965095e+003;2.172957e-002
3.967023e+003;2.153507e-002
3.968952e+003;2.197373e-002
3.970880e+003;2.234724e-002
3.972809e+003;2.233137e-002
3.974737e+003;2.211679e-002
3.976666e+003;2.190918e-002
3.978594e+003;2.186486e-002
3.980523e+003;2.173612e-002
3.982452e+003;2.150551e-002
3.984380e+003;2.154370e-002
3.986309e+003;2.206714e-002
3.988237e+003;2.253048e-002
3.990166e+003;2.236290e-002
3.992094e+003;2.217958e-002
3.994023e+003;2.179580e-002
3.995951e+003;2.141510e-002
3.997880e+003;2.144681e-002
3.999809e+003;2.167820e-002
4.001737e+003;0.000000e+000
