3.992094e+002;0.000000e+000
4.011380e+002;0.000000e+000
4.030665e+002;0.000000e+000
4.049951e+002;0.000000e+000
4.069236e+002;0.000000e+000
4.088522e+002;0.000000e+000
4.107807e+002;0.000000e+000
4.127093e+002;0.000000e+000
4.146378e+002;0.000000e+000
4.165664e+002;0.000000e+000
4.184949e+002;0.000000e+000
4.204235e+002;0.000000e+000
4.223520e+002;0.000000e+000
4.242806e+002;0.000000e+000
4.262091e+002;0.000000e+000
4.281377e+002;0.000000e+000
4.300662e+002;0.000000e+000
4.319948e+002;0.000000e+000
4.339233e+002;0.000000e+000
4.358519e+002;0.000000e+000
4.377804e+002;0.000000e+000
4.397090e+002;0.000000e+000
4.416375e+002;0.000000e+000
4.435660e+002;0.000000e+000
4.454946e+002;0.000000e+000
4.474232e+002;0.000000e+000
4.493517e+002;0.000000e+000
4.512802e+002;0.000000e+000
4.532088e+002;0.000000e+000
4.551373e+002;0.000000e+000
4.570659e+002;0.000000e+000
4.589944e+002;0.000000e+000
4.609230e+002;0.000000e+000
4.628515e+002;0.000000e+000
4.647801e+002;0.000000e+000
4.667086e+002;0.000000e+000
4.686372e+002;0.000000e+000
4.705657e+002;0.000000e+000
4.724943e+002;0.000000e+000
4.744228e+002;0.000000e+000
4.763513e+002;0.000000e+000
4.782799e+002;0.000000e+000
4.802085e+002;0.000000e+000
4.821370e+002;0.000000e+000
4.840656e+002;0.000000e+000
4.859941e+002;0.000000e+000
4.879226e+002;0.000000e+000
4.898512e+002;0.000000e+000
4.917798e+002;0.000000e+000
4.937083e+002;0.000000e+000
4.956368e+002;0.000000e+000
4.975654e+002;0.000000e+000
4.994939e+002;0.000000e+000
5.014225e+002;0.000000e+000
5.033510e+002;0.000000e+000
5.052796e+002;0.000000e+000
5.072081e+002;0.000000e+000
5.091367e+002;0.000000e+000
5.110652e+002;0.000000e+000
5.129938e+002;0.000000e+000
5.149223e+002;0.000000e+000
5.168509e+002;0.000000e+000
5.187794e+002;0.000000e+000
5.207079e+002;0.000000e+000
5.226365e+002;0.000000e+000
5.245651e+002;0.000000e+000
5.264936e+002;0.000000e+000
5.284222e+002;0.000000e+000
5.303507e+002;0.000000e+000
5.322792e+002;0.000000e+000
5.342078e+002;0.000000e+000
5.361364e+002;0.000000e+000
5.380649e+002;0.000000e+000
5.399935e+002;0.000000e+000
5.419220e+002;0.000000e+000
5.438505e+002;0.000000e+000
5.457791e+002;0.000000e+000
5.477076e+002;0.000000e+000
5.496362e+002;0.000000e+000
5.515648e+002;0.000000e+000
5.534933e+002;0.000000e+000
5.554218e+002;0.000000e+000
5.573504e+002;0.000000e+000
5.592789e+002;0.000000e+000
5.612075e+002;0.000000e+000
5.631360e+002;0.000000e+000
5.650646e+002;0.000000e+000
5.669931e+002;0.000000e+000
5.689217e+002;0.000000e+000
5.708502e+002;0.000000e+000
5.727787e+002;0.000000e+000
5.747073e+002;0.000000e+000
5.766359e+002;0.000000e+000
5.785644e+002;0.000000e+000
5.804930e+002;0.000000e+000
5.824215e+002;0.000000e+000
5.843500e+002;0.000000e+000
5.862786e+002;0.000000e+000
5.882072e+002;0.000000e+000
5.901357e+002;0.000000e+000
5.920643e+002;0.000000e+000
5.939928e+002;0.000000e+000
5.959213e+002;0.000000e+000
5.978499e+002;0.000000e+000
5.997784e+002;2.308899e-001
6.017070e+002;2.334248e-001
6.036355e+002;2.359455e-001
6.055641e+002;2.367179e-001
6.074926e+002;2.359188e-001
6.094211e+002;2.332541e-001
6.113497e+002;2.325052e-001
6.132783e+002;2.317054e-001
6.152068e+002;2.284831e-001
6.171354e+002;2.282347e-001
6.190639e+002;2.317841e-001
6.209924e+002;2.282002e-001
6.229210e+002;2.184619e-001
6.248495e+002;2.111076e-001
6.267781e+002;2.108295e-001
6.287067e+002;2.114246e-001
6.306352e+002;2.091831e-001
6.325637e+002;2.089790e-001
6.344923e+002;2.111964e-001
6.364208e+002;2.107345e-001
6.383494e+002;2.047157e-001
6.402780e+002;2.033792e-001
6.422065e+002;2.047722e-001
6.441350e+002;2.050831e-001
6.460636e+002;2.048746e-001
6.479921e+002;2.050544e-001
6.499207e+002;2.075513e-001
6.518492e+002;2.086969e-001
6.537778e+002;2.035269e-001
6.557063e+002;2.060717e-001
6.576349e+002;2.117033e-001
6.595634e+002;2.153267e-001
6.614919e+002;2.194737e-001
6.634205e+002;2.232838e-001
6.653491e+002;2.235960e-001
6.672776e+002;2.207594e-001
6.692062e+002;2.202873e-001
6.711347e+002;2.181391e-001
6.730632e+002;2.118172e-001
6.749918e+002;2.023820e-001
6.769203e+002;1.908199e-001
6.788489e+002;1.802709e-001
6.807775e+002;1.730678e-001
6.827060e+002;1.682225e-001
6.846345e+002;1.646042e-001
6.865631e+002;1.630763e-001
6.884916e+002;1.626617e-001
6.904202e+002;1.609330e-001
6.923488e+002;1.591992e-001
6.942773e+002;1.583346e-001
6.962058e+002;1.590955e-001
6.981344e+002;1.588402e-001
7.000629e+002;1.573075e-001
7.019915e+002;1.566299e-001
7.039200e+002;1.564960e-001
7.058486e+002;1.560366e-001
7.077771e+002;1.549576e-001
7.097057e+002;1.544967e-001
7.116342e+002;1.543486e-001
7.135627e+002;1.522577e-001
7.154913e+002;1.502575e-001
7.174199e+002;1.500725e-001
7.193484e+002;1.501397e-001
7.212770e+002;1.497853e-001
7.232055e+002;1.492247e-001
7.251340e+002;1.480907e-001
7.270626e+002;1.460616e-001
7.289911e+002;1.446728e-001
7.309197e+002;1.432924e-001
7.328483e+002;1.414699e-001
7.347768e+002;1.400703e-001
7.367053e+002;1.386981e-001
7.386339e+002;1.379952e-001
7.405624e+002;1.376444e-001
7.424910e+002;1.363052e-001
7.444196e+002;1.346982e-001
7.463481e+002;1.337511e-001
7.482766e+002;1.325672e-001
7.502052e+002;1.313947e-001
7.521337e+002;1.301263e-001
7.540623e+002;1.292201e-001
7.559908e+002;1.282993e-001
7.579194e+002;1.271367e-001
7.598479e+002;1.264842e-001
7.617765e+002;1.261170e-001
7.637050e+002;1.255569e-001
7.656335e+002;1.254116e-001
7.675621e+002;1.252593e-001
7.694907e+002;1.239544e-001
7.714192e+002;1.223538e-001
7.733478e+002;1.210524e-001
7.752763e+002;1.205695e-001
7.772048e+002;1.207604e-001
7.791334e+002;1.203485e-001
7.810620e+002;1.199707e-001
7.829905e+002;1.204156e-001
7.849191e+002;1.204806e-001
7.868476e+002;1.191663e-001
7.887761e+002;1.175994e-001
7.907047e+002;1.168697e-001
7.926332e+002;1.164382e-001
7.945618e+002;1.165924e-001
7.964903e+002;1.167790e-001
7.984189e+002;1.165210e-001
8.003474e+002;1.166872e-001
8.022759e+002;1.167723e-001
8.042045e+002;1.162597e-001
8.061331e+002;1.162731e-001
8.080616e+002;1.161652e-001
8.099902e+002;1.163449e-001
8.119187e+002;1.158880e-001
8.138472e+002;1.156337e-001
8.157758e+002;1.153841e-001
8.177043e+002;1.151038e-001
8.196329e+002;1.151412e-001
8.215615e+002;1.146597e-001
8.234900e+002;1.142804e-001
8.254185e+002;1.139653e-001
8.273471e+002;1.136540e-001
8.292756e+002;1.137110e-001
8.312042e+002;1.134982e-001
8.331328e+002;1.125315e-001
8.350613e+002;1.120162e-001
8.369898e+002;1.116853e-001
8.389184e+002;1.110541e-001
8.408469e+002;1.107038e-001
8.427755e+002;1.104887e-001
8.447040e+002;1.102595e-001
8.466326e+002;1.102906e-001
8.485611e+002;1.104881e-001
8.504897e+002;1.108488e-001
8.524182e+002;1.109708e-001
8.543467e+002;1.117785e-001
8.562753e+002;1.127078e-001
8.582039e+002;1.133449e-001
8.601324e+002;1.140434e-001
8.620610e+002;1.145321e-001
8.639895e+002;1.155099e-001
8.659180e+002;1.172807e-001
8.678466e+002;1.191854e-001
8.697751e+002;1.214951e-001
8.717037e+002;1.240149e-001
8.736323e+002;1.266849e-001
8.755608e+002;1.294262e-001
8.774893e+002;1.328612e-001
8.794179e+002;1.374999e-001
8.813464e+002;1.422590e-001
8.832750e+002;1.474050e-001
8.852036e+002;1.533323e-001
8.871321e+002;1.595708e-001
8.890606e+002;1.655754e-001
8.909892e+002;1.706801e-001
8.929177e+002;1.737708e-001
8.948463e+002;1.743267e-001
8.967748e+002;1.723002e-001
8.987034e+002;1.684685e-001
9.006319e+002;1.641059e-001
9.025605e+002;1.598534e-001
9.044890e+002;1.555681e-001
9.064175e+002;1.515224e-001
9.083461e+002;1.482741e-001
9.102747e+002;1.456343e-001
9.122032e+002;1.435235e-001
9.141318e+002;1.418280e-001
9.160603e+002;1.408215e-001
9.179888e+002;1.405402e-001
9.199174e+002;1.413102e-001
9.218459e+002;1.423127e-001
9.237745e+002;1.433420e-001
9.257031e+002;1.449954e-001
9.276316e+002;1.465105e-001
9.295601e+002;1.480731e-001
9.314887e+002;1.496143e-001
9.334172e+002;1.511939e-001
9.353458e+002;1.530719e-001
9.372744e+002;1.551539e-001
9.392029e+002;1.574530e-001
9.411314e+002;1.599796e-001
9.430600e+002;1.626195e-001
9.449885e+002;1.655644e-001
9.469171e+002;1.690045e-001
9.488456e+002;1.726909e-001
9.507742e+002;1.769607e-001
9.527027e+002;1.819408e-001
9.546313e+002;1.871637e-001
9.565598e+002;1.925685e-001
9.584883e+002;1.982263e-001
9.604169e+002;2.038533e-001
9.623455e+002;2.088413e-001
9.642740e+002;2.132579e-001
9.662026e+002;2.177568e-001
9.681311e+002;2.232093e-001
9.700596e+002;2.288067e-001
9.719882e+002;2.349155e-001
9.739167e+002;2.423287e-001
9.758453e+002;2.511723e-001
9.777739e+002;2.612042e-001
9.797024e+002;2.725858e-001
9.816309e+002;2.851254e-001
9.835595e+002;2.991105e-001
9.854880e+002;3.135810e-001
9.874166e+002;3.271319e-001
9.893452e+002;3.395148e-001
9.912737e+002;3.499062e-001
9.932022e+002;3.577411e-001
9.951307e+002;3.638743e-001
9.970593e+002;3.672161e-001
9.989879e+002;3.683174e-001
1.000916e+003;3.695572e-001
1.002845e+003;3.722006e-001
1.004773e+003;3.763291e-001
1.006702e+003;3.817747e-001
1.008631e+003;3.878843e-001
1.010559e+003;3.946160e-001
1.012488e+003;4.021024e-001
1.014416e+003;4.096404e-001
1.016345e+003;4.148990e-001
1.018273e+003;4.185200e-001
1.020202e+003;4.208767e-001
1.022130e+003;4.216334e-001
1.024059e+003;4.216879e-001
1.025988e+003;4.197506e-001
1.027916e+003;4.152711e-001
1.029845e+003;4.101546e-001
1.031773e+003;4.044559e-001
1.033702e+003;3.989821e-001
1.035630e+003;3.935930e-001
1.037559e+003;3.888610e-001
1.039487e+003;3.856430e-001
1.041416e+003;3.831840e-001
1.043344e+003;3.810554e-001
1.045273e+003;3.782698e-001
1.047202e+003;3.748309e-001
1.049130e+003;3.718566e-001
1.051059e+003;3.693788e-001
1.052987e+003;3.671307e-001
1.054916e+003;3.647465e-001
1.056844e+003;3.610209e-001
1.058773e+003;3.559244e-001
1.060701e+003;3.498873e-001
1.062630e+003;3.426772e-001
1.064558e+003;3.344433e-001
1.066487e+003;3.266032e-001
1.068416e+003;3.201919e-001
1.070344e+003;3.155170e-001
1.072273e+003;3.117575e-001
1.074201e+003;3.072163e-001
1.076130e+003;3.020787e-001
1.078058e+003;2.971202e-001
1.079987e+003;2.929735e-001
1.081915e+003;2.889671e-001
1.083844e+003;2.841609e-001
1.085773e+003;2.791274e-001
1.087701e+003;2.738846e-001
1.089630e+003;2.686299e-001
1.091558e+003;2.636600e-001
1.093487e+003;2.577688e-001
1.095415e+003;2.520054e-001
1.097344e+003;2.459881e-001
1.099272e+003;2.394983e-001
1.101201e+003;2.333218e-001
1.103129e+003;2.275095e-001
1.105058e+003;2.224766e-001
1.106987e+003;2.185549e-001
1.108915e+003;2.158661e-001
1.110844e+003;2.131505e-001
1.112772e+003;2.099561e-001
1.114701e+003;2.060362e-001
1.116629e+003;2.010982e-001
1.118558e+003;1.964652e-001
1.120486e+003;1.917082e-001
1.122415e+003;1.863963e-001
1.124344e+003;1.809641e-001
1.126272e+003;1.750754e-001
1.128201e+003;1.696257e-001
1.130129e+003;1.646030e-001
1.132058e+003;1.597618e-001
1.133986e+003;1.555277e-001
1.135915e+003;1.517369e-001
1.137843e+003;1.487942e-001
1.139772e+003;1.469517e-001
1.141700e+003;1.461363e-001
1.143629e+003;1.461600e-001
1.145557e+003;1.469382e-001
1.147486e+003;1.483095e-001
1.149415e+003;1.501038e-001
1.151343e+003;1.521090e-001
1.153272e+003;1.542044e-001
1.155200e+003;1.556657e-001
1.157129e+003;1.556907e-001
1.159057e+003;1.536536e-001
1.160986e+003;1.496495e-001
1.162914e+003;1.444535e-001
1.164843e+003;1.380676e-001
1.166771e+003;1.312056e-001
1.168700e+003;1.253352e-001
1.170629e+003;1.201997e-001
1.172557e+003;1.153408e-001
1.174486e+003;1.107300e-001
1.176414e+003;1.069242e-001
1.178343e+003;1.039126e-001
1.180271e+003;1.014999e-001
1.182200e+003;1.004111e-001
1.184128e+003;1.002069e-001
1.186057e+003;1.005690e-001
1.187986e+003;1.022436e-001
1.189914e+003;1.051205e-001
1.191843e+003;1.079381e-001
1.193771e+003;1.105321e-001
1.195700e+003;1.129559e-001
1.197628e+003;1.140370e-001
1.199557e+003;1.139625e-001
1.201485e+003;1.126007e-001
1.203414e+003;1.102917e-001
1.205343e+003;1.075089e-001
1.207271e+003;1.051756e-001
1.209200e+003;1.038224e-001
1.211128e+003;1.030504e-001
1.213057e+003;1.030349e-001
1.214985e+003;1.040099e-001
1.216914e+003;1.056106e-001
1.218842e+003;1.075597e-001
1.220771e+003;1.101011e-001
1.222699e+003;1.126425e-001
1.224628e+003;1.147466e-001
1.226557e+003;1.160199e-001
1.228485e+003;1.163845e-001
1.230414e+003;1.163845e-001
1.232342e+003;1.162468e-001
1.234271e+003;1.157329e-001
1.236199e+003;1.154000e-001
1.238128e+003;1.154681e-001
1.240056e+003;1.150369e-001
1.241985e+003;1.146883e-001
1.243913e+003;1.147107e-001
1.245842e+003;1.146723e-001
1.247771e+003;1.148017e-001
1.249699e+003;1.155116e-001
1.251628e+003;1.165603e-001
1.253556e+003;1.180096e-001
1.255485e+003;1.198976e-001
1.257413e+003;1.213464e-001
1.259342e+003;1.219460e-001
1.261270e+003;1.220815e-001
1.263199e+003;1.217717e-001
1.265127e+003;1.205689e-001
1.267056e+003;1.191201e-001
1.268985e+003;1.179162e-001
1.270913e+003;1.167427e-001
1.272842e+003;1.158001e-001
1.274770e+003;1.153371e-001
1.276699e+003;1.150794e-001
1.278627e+003;1.145948e-001
1.280556e+003;1.135064e-001
1.282484e+003;1.125134e-001
1.284413e+003;1.122684e-001
1.286342e+003;1.127819e-001
1.288270e+003;1.139395e-001
1.290199e+003;1.155868e-001
1.292127e+003;1.172799e-001
1.294056e+003;1.189329e-001
1.295984e+003;1.206337e-001
1.297913e+003;1.222353e-001
1.299841e+003;1.237475e-001
1.301770e+003;1.254367e-001
1.303698e+003;1.273790e-001
1.305627e+003;1.295963e-001
1.307556e+003;1.321641e-001
1.309484e+003;1.343688e-001
1.311413e+003;1.357459e-001
1.313341e+003;1.364438e-001
1.315270e+003;1.362371e-001
1.317198e+003;1.348667e-001
1.319127e+003;1.325908e-001
1.321055e+003;1.301252e-001
1.322984e+003;1.286063e-001
1.324912e+003;1.281553e-001
1.326841e+003;1.281002e-001
1.328770e+003;1.282201e-001
1.330698e+003;1.286129e-001
1.332627e+003;1.289537e-001
1.334555e+003;1.290711e-001
1.336484e+003;1.286647e-001
1.338412e+003;1.278575e-001
1.340341e+003;1.271822e-001
1.342269e+003;1.266053e-001
1.344198e+003;1.261120e-001
1.346126e+003;1.257021e-001
1.348055e+003;1.254191e-001
1.349984e+003;1.257003e-001
1.351912e+003;1.266825e-001
1.353841e+003;1.278023e-001
1.355769e+003;1.290662e-001
1.357698e+003;1.304561e-001
1.359626e+003;1.317289e-001
1.361555e+003;1.325940e-001
1.363483e+003;1.331611e-001
1.365412e+003;1.334416e-001
1.367341e+003;1.331730e-001
1.369269e+003;1.323754e-001
1.371198e+003;1.310198e-001
1.373126e+003;1.291706e-001
1.375055e+003;1.273483e-001
1.376983e+003;1.253905e-001
1.378912e+003;1.230789e-001
1.380840e+003;1.200639e-001
1.382769e+003;1.170199e-001
1.384698e+003;1.146806e-001
1.386626e+003;1.129859e-001
1.388555e+003;1.118964e-001
1.390483e+003;1.111703e-001
1.392412e+003;1.106320e-001
1.394340e+003;1.101309e-001
1.396269e+003;1.098456e-001
1.398197e+003;1.094108e-001
1.400126e+003;1.089307e-001
1.402054e+003;1.086933e-001
1.403983e+003;1.084868e-001
1.405911e+003;1.086224e-001
1.407840e+003;1.092097e-001
1.409769e+003;1.098223e-001
1.411697e+003;1.098774e-001
1.413626e+003;1.099537e-001
1.415554e+003;1.100155e-001
1.417483e+003;1.099579e-001
1.419411e+003;1.098547e-001
1.421340e+003;1.097133e-001
1.423268e+003;1.094323e-001
1.425197e+003;1.090453e-001
1.427125e+003;1.087829e-001
1.429054e+003;1.084033e-001
1.430983e+003;1.078092e-001
1.432911e+003;1.073435e-001
1.434840e+003;1.066767e-001
1.436768e+003;1.059232e-001
1.438697e+003;1.056245e-001
1.440625e+003;1.050832e-001
1.442554e+003;1.042347e-001
1.444482e+003;1.031865e-001
1.446411e+003;1.020950e-001
1.448340e+003;1.011242e-001
1.450268e+003;1.003344e-001
1.452197e+003;9.949940e-002
1.454125e+003;9.839135e-002
1.456054e+003;9.681054e-002
1.457982e+003;9.609651e-002
1.459911e+003;9.620471e-002
1.461839e+003;9.576149e-002
1.463768e+003;9.508432e-002
1.465697e+003;9.444250e-002
1.467625e+003;9.351490e-002
1.469554e+003;9.202612e-002
1.471482e+003;8.998949e-002
1.473411e+003;8.799884e-002
1.475339e+003;8.645041e-002
1.477268e+003;8.477210e-002
1.479196e+003;8.302369e-002
1.481125e+003;8.112939e-002
1.483053e+003;7.936680e-002
1.484982e+003;7.761193e-002
1.486911e+003;7.600986e-002
1.488839e+003;7.443234e-002
1.490768e+003;7.288390e-002
1.492696e+003;7.176647e-002
1.494625e+003;7.050210e-002
1.496553e+003;6.913347e-002
1.498482e+003;6.858923e-002
1.500410e+003;6.816908e-002
1.502339e+003;6.734745e-002
1.504267e+003;6.605697e-002
1.506196e+003;6.483614e-002
1.508125e+003;6.486999e-002
1.510053e+003;6.518497e-002
1.511982e+003;6.499994e-002
1.513910e+003;6.472617e-002
1.515839e+003;6.434313e-002
1.517767e+003;6.394692e-002
1.519696e+003;6.329964e-002
1.521624e+003;6.300010e-002
1.523553e+003;6.348552e-002
1.525481e+003;6.370417e-002
1.527410e+003;6.401584e-002
1.529339e+003;6.439163e-002
1.531267e+003;6.414982e-002
1.533196e+003;6.409947e-002
1.535124e+003;6.491070e-002
1.537053e+003;6.473898e-002
1.538981e+003;6.351463e-002
1.540910e+003;6.338847e-002
1.542838e+003;6.381595e-002
1.544767e+003;6.414083e-002
1.546695e+003;6.463750e-002
1.548624e+003;6.462638e-002
1.550553e+003;6.435124e-002
1.552481e+003;6.402732e-002
1.554410e+003;6.376007e-002
1.556338e+003;6.326066e-002
1.558267e+003;6.239852e-002
1.560195e+003;6.290832e-002
1.562124e+003;6.433341e-002
1.564052e+003;6.488831e-002
1.565981e+003;6.490978e-002
1.567910e+003;6.493286e-002
1.569838e+003;6.492509e-002
1.571767e+003;6.510939e-002
1.573695e+003;6.500556e-002
1.575624e+003;6.470502e-002
1.577552e+003;6.522019e-002
1.579481e+003;6.577565e-002
1.581409e+003;6.589352e-002
1.583338e+003;6.590018e-002
1.585266e+003;6.576944e-002
1.587195e+003;6.582079e-002
1.589124e+003;6.596278e-002
1.591052e+003;6.629498e-002
1.592981e+003;6.665870e-002
1.594909e+003;6.700512e-002
1.596838e+003;6.729456e-002
1.598766e+003;6.767123e-002
1.600695e+003;6.821634e-002
1.602623e+003;6.874823e-002
1.604552e+003;6.921432e-002
1.606480e+003;6.985530e-002
1.608409e+003;7.052799e-002
1.610338e+003;7.101858e-002
1.612266e+003;7.136042e-002
1.614195e+003;7.148091e-002
1.616123e+003;7.166482e-002
1.618052e+003;7.272847e-002
1.619980e+003;7.384952e-002
1.621909e+003;7.437315e-002
1.623837e+003;7.498486e-002
1.625766e+003;7.567365e-002
1.627694e+003;7.604729e-002
1.629623e+003;7.643060e-002
1.631552e+003;7.676035e-002
1.633480e+003;7.665642e-002
1.635409e+003;7.626054e-002
1.637337e+003;7.669962e-002
1.639266e+003;7.736578e-002
1.641194e+003;7.732987e-002
1.643123e+003;7.704625e-002
1.645051e+003;7.639710e-002
1.646980e+003;7.572860e-002
1.648909e+003;7.550752e-002
1.650837e+003;7.436910e-002
1.652766e+003;7.273607e-002
1.654694e+003;7.283233e-002
1.656623e+003;7.328290e-002
1.658551e+003;7.277944e-002
1.660480e+003;7.199019e-002
1.662408e+003;7.123400e-002
1.664337e+003;7.038692e-002
1.666266e+003;6.947681e-002
1.668194e+003;6.826926e-002
1.670123e+003;6.711753e-002
1.672051e+003;6.616501e-002
1.673980e+003;6.489323e-002
1.675908e+003;6.400927e-002
1.677837e+003;6.345043e-002
1.679765e+003;6.210717e-002
1.681694e+003;6.039849e-002
1.683622e+003;5.842438e-002
1.685551e+003;5.750789e-002
1.687479e+003;5.716941e-002
1.689408e+003;5.620416e-002
1.691337e+003;5.526016e-002
1.693265e+003;5.424031e-002
1.695194e+003;5.268366e-002
1.697122e+003;5.155087e-002
1.699051e+003;5.054935e-002
1.700979e+003;5.024076e-002
1.702908e+003;5.059480e-002
1.704836e+003;5.001901e-002
1.706765e+003;4.938658e-002
1.708693e+003;4.883745e-002
1.710622e+003;4.856642e-002
1.712551e+003;4.813528e-002
1.714479e+003;4.731615e-002
1.716408e+003;4.648750e-002
1.718336e+003;4.635100e-002
1.720265e+003;4.674335e-002
1.722193e+003;4.669528e-002
1.724122e+003;4.634119e-002
1.726050e+003;4.616825e-002
1.727979e+003;4.598504e-002
1.729908e+003;4.544971e-002
1.731836e+003;4.443422e-002
1.733765e+003;4.349504e-002
1.735693e+003;4.372931e-002
1.737622e+003;4.385986e-002
1.739550e+003;4.300967e-002
1.741479e+003;4.234418e-002
1.743407e+003;4.176473e-002
1.745336e+003;4.128607e-002
1.747265e+003;4.086071e-002
1.749193e+003;4.046039e-002
1.751122e+003;4.031385e-002
1.753050e+003;4.055245e-002
1.754979e+003;4.065046e-002
1.756907e+003;4.055922e-002
1.758836e+003;4.056948e-002
1.760764e+003;4.022340e-002
1.762693e+003;4.015899e-002
1.764621e+003;4.049760e-002
1.766550e+003;4.042500e-002
1.768479e+003;3.998221e-002
1.770407e+003;3.948747e-002
1.772336e+003;3.921246e-002
1.774264e+003;3.959922e-002
1.776193e+003;3.996848e-002
1.778121e+003;3.977112e-002
1.780050e+003;3.925500e-002
1.781978e+003;3.907569e-002
1.783907e+003;3.907907e-002
1.785835e+003;3.897148e-002
1.787764e+003;3.885902e-002
1.789693e+003;3.854031e-002
1.791621e+003;3.821589e-002
1.793550e+003;3.822565e-002
1.795478e+003;3.831739e-002
1.797407e+003;3.824158e-002
1.799335e+003;3.810334e-002
1.801264e+003;3.804576e-002
1.803192e+003;3.796580e-002
1.805121e+003;3.769594e-002
1.807049e+003;3.752450e-002
1.808978e+003;3.753306e-002
1.810907e+003;3.755480e-002
1.812835e+003;3.747801e-002
1.814764e+003;3.733911e-002
1.816692e+003;3.735012e-002
1.818621e+003;3.731827e-002
1.820549e+003;3.717304e-002
1.822478e+003;3.714850e-002
1.824406e+003;3.687143e-002
1.826335e+003;3.663635e-002
1.828264e+003;3.652198e-002
1.830192e+003;3.641009e-002
1.832121e+003;3.648731e-002
1.834049e+003;3.650324e-002
1.835978e+003;3.639290e-002
1.837906e+003;3.627920e-002
1.839835e+003;3.613518e-002
1.841763e+003;3.567674e-002
1.843692e+003;3.520937e-002
1.845620e+003;3.544001e-002
1.847549e+003;3.579539e-002
1.849478e+003;3.583515e-002
1.851406e+003;3.568041e-002
1.853335e+003;3.539867e-002
1.855263e+003;3.518390e-002
1.857192e+003;3.519762e-002
1.859120e+003;3.528228e-002
1.861049e+003;3.525134e-002
1.862977e+003;3.523528e-002
1.864906e+003;3.528020e-002
1.866834e+003;3.502199e-002
1.868763e+003;3.477115e-002
1.870692e+003;3.488280e-002
1.872620e+003;3.497914e-002
1.874549e+003;3.492255e-002
1.876477e+003;3.490488e-002
1.878406e+003;3.490632e-002
1.880334e+003;3.491346e-002
1.882263e+003;3.487253e-002
1.884191e+003;3.485845e-002
1.886120e+003;3.491421e-002
1.888048e+003;3.476949e-002
1.889977e+003;3.458108e-002
1.891906e+003;3.463839e-002
1.893834e+003;3.462820e-002
1.895763e+003;3.477757e-002
1.897691e+003;3.507612e-002
1.899620e+003;3.529989e-002
1.901548e+003;3.525706e-002
1.903477e+003;3.515415e-002
1.905405e+003;3.505058e-002
1.907334e+003;3.513162e-002
1.909262e+003;3.533421e-002
1.911191e+003;3.549376e-002
1.913120e+003;3.554072e-002
1.915048e+003;3.554640e-002
1.916977e+003;3.541351e-002
1.918905e+003;3.546147e-002
1.920834e+003;3.579345e-002
1.922762e+003;3.591526e-002
1.924691e+003;3.586081e-002
1.926619e+003;3.581449e-002
1.928548e+003;3.568393e-002
1.930477e+003;3.580215e-002
1.932405e+003;3.612142e-002
1.934334e+003;3.634264e-002
1.936262e+003;3.643297e-002
1.938191e+003;3.650428e-002
1.940119e+003;3.648435e-002
1.942048e+003;3.641729e-002
1.943976e+003;3.655099e-002
1.945905e+003;3.669843e-002
1.947833e+003;3.663221e-002
1.949762e+003;3.680092e-002
1.951691e+003;3.717744e-002
1.953619e+003;3.738970e-002
1.955548e+003;3.756817e-002
1.957476e+003;3.772554e-002
1.959405e+003;3.794179e-002
1.961333e+003;3.801494e-002
1.963262e+003;3.818387e-002
1.965190e+003;3.845479e-002
1.967119e+003;3.845953e-002
1.969047e+003;3.843111e-002
1.970976e+003;3.854610e-002
1.972905e+003;3.862990e-002
1.974833e+003;3.872871e-002
1.976762e+003;3.887587e-002
1.978690e+003;3.900747e-002
1.980619e+003;3.912533e-002
1.982547e+003;3.915248e-002
1.984476e+003;3.931464e-002
1.986404e+003;3.949310e-002
1.988333e+003;3.948580e-002
1.990261e+003;3.939158e-002
1.992190e+003;3.947408e-002
1.994119e+003;3.966768e-002
1.996047e+003;3.965857e-002
1.997976e+003;3.967048e-002
1.999904e+003;3.979727e-002
2.001833e+003;3.988730e-002
2.003761e+003;3.984368e-002
2.005690e+003;4.003566e-002
2.007618e+003;4.041122e-002
2.009547e+003;4.066211e-002
2.011476e+003;4.071108e-002
2.013404e+003;4.057672e-002
2.015333e+003;4.077750e-002
2.017261e+003;4.116401e-002
2.019190e+003;4.124285e-002
2.021118e+003;4.132742e-002
2.023047e+003;4.145011e-002
2.024975e+003;4.148488e-002
2.026904e+003;4.167168e-002
2.028833e+003;4.196603e-002
2.030761e+003;4.199632e-002
2.032690e+003;4.193191e-002
2.034618e+003;4.219057e-002
2.036547e+003;4.239715e-002
2.038475e+003;4.236376e-002
2.040404e+003;4.222132e-002
2.042332e+003;4.218090e-002
2.044261e+003;4.243222e-002
2.046189e+003;4.258672e-002
2.048118e+003;4.264929e-002
2.050047e+003;4.273926e-002
2.051975e+003;4.271758e-002
2.053904e+003;4.274046e-002
2.055832e+003;4.267097e-002
2.057761e+003;4.273363e-002
2.059689e+003;4.263310e-002
2.061618e+003;4.242645e-002
2.063546e+003;4.244322e-002
2.065475e+003;4.250873e-002
2.067404e+003;4.256172e-002
2.069332e+003;4.258537e-002
2.071260e+003;4.255722e-002
2.073189e+003;4.251312e-002
2.075118e+003;4.251692e-002
2.077046e+003;4.259593e-002
2.078975e+003;4.251472e-002
2.080903e+003;4.245871e-002
2.082832e+003;4.266746e-002
2.084760e+003;4.273995e-002
2.086689e+003;4.267890e-002
2.088617e+003;4.281026e-002
2.090546e+003;4.291636e-002
2.092475e+003;4.289544e-002
2.094403e+003;4.286962e-002
2.096332e+003;4.295096e-002
2.098260e+003;4.311065e-002
2.100189e+003;4.332722e-002
2.102117e+003;4.350775e-002
2.104046e+003;4.360631e-002
2.105974e+003;4.362039e-002
2.107903e+003;4.357767e-002
2.109832e+003;4.356679e-002
2.111760e+003;4.372920e-002
2.113688e+003;4.403444e-002
2.115617e+003;4.417950e-002
2.117546e+003;4.408304e-002
2.119474e+003;4.397248e-002
2.121403e+003;4.388786e-002
2.123331e+003;4.400669e-002
2.125260e+003;4.413335e-002
2.127188e+003;4.408501e-002
2.129117e+003;4.407962e-002
2.131045e+003;4.432941e-002
2.132974e+003;4.454280e-002
2.134903e+003;4.449563e-002
2.136831e+003;4.437249e-002
2.138760e+003;4.423885e-002
2.140688e+003;4.409697e-002
2.142617e+003;4.423419e-002
2.144545e+003;4.445246e-002
2.146474e+003;4.422539e-002
2.148402e+003;4.420742e-002
2.150331e+003;4.420837e-002
2.152260e+003;4.407797e-002
2.154188e+003;4.423456e-002
2.156117e+003;4.431458e-002
2.158045e+003;4.413104e-002
2.159974e+003;4.374471e-002
2.161902e+003;4.360152e-002
2.163831e+003;4.355859e-002
2.165759e+003;4.346325e-002
2.167688e+003;4.360427e-002
2.169616e+003;4.363878e-002
2.171545e+003;4.353412e-002
2.173474e+003;4.350452e-002
2.175402e+003;4.337873e-002
2.177331e+003;4.303414e-002
2.179259e+003;4.284058e-002
2.181188e+003;4.295465e-002
2.183116e+003;4.308109e-002
2.185045e+003;4.297148e-002
2.186973e+003;4.284175e-002
2.188902e+003;4.261102e-002
2.190831e+003;4.265101e-002
2.192759e+003;4.272361e-002
2.194688e+003;4.265576e-002
2.196616e+003;4.249324e-002
2.198545e+003;4.234159e-002
2.200473e+003;4.216038e-002
2.202402e+003;4.210747e-002
2.204330e+003;4.226631e-002
2.206259e+003;4.219919e-002
2.208188e+003;4.203662e-002
2.210116e+003;4.202830e-002
2.212044e+003;4.188805e-002
2.213973e+003;4.180223e-002
2.215902e+003;4.175434e-002
2.217830e+003;4.177604e-002
2.219759e+003;4.169200e-002
2.221687e+003;4.147187e-002
2.223616e+003;4.136832e-002
2.225544e+003;4.129984e-002
2.227473e+003;4.120875e-002
2.229401e+003;4.108894e-002
2.231330e+003;4.103282e-002
2.233259e+003;4.092660e-002
2.235187e+003;4.076564e-002
2.237116e+003;4.072960e-002
2.239044e+003;4.078754e-002
2.240973e+003;4.083006e-002
2.242901e+003;4.088255e-002
2.244830e+003;4.088914e-002
2.246758e+003;4.084942e-002
2.248687e+003;4.060593e-002
2.250615e+003;4.041028e-002
2.252544e+003;4.049236e-002
2.254473e+003;4.035984e-002
2.256401e+003;4.008213e-002
2.258330e+003;3.985690e-002
2.260258e+003;3.973220e-002
2.262187e+003;3.974639e-002
2.264115e+003;3.973793e-002
2.266044e+003;3.953955e-002
2.267972e+003;3.947020e-002
2.269901e+003;3.956492e-002
2.271830e+003;3.946324e-002
2.273758e+003;3.927303e-002
2.275687e+003;3.917428e-002
2.277615e+003;3.912750e-002
2.279544e+003;3.902650e-002
2.281472e+003;3.906764e-002
2.283401e+003;3.915386e-002
2.285329e+003;3.914727e-002
2.287258e+003;3.931405e-002
2.289187e+003;3.935120e-002
2.291115e+003;3.912275e-002
2.293043e+003;3.897082e-002
2.294972e+003;3.896448e-002
2.296901e+003;3.895709e-002
2.298829e+003;3.874838e-002
2.300758e+003;3.874946e-002
2.302686e+003;3.906406e-002
2.304615e+003;3.890186e-002
2.306543e+003;3.865796e-002
2.308472e+003;3.864906e-002
2.310400e+003;3.836856e-002
2.312329e+003;3.807777e-002
2.314258e+003;3.794974e-002
2.316186e+003;3.769605e-002
2.318115e+003;3.735568e-002
2.320043e+003;3.708530e-002
2.321972e+003;3.677733e-002
2.323900e+003;3.627625e-002
2.325829e+003;3.581813e-002
2.327757e+003;3.544188e-002
2.329686e+003;3.527240e-002
2.331615e+003;3.510503e-002
2.333543e+003;3.500618e-002
2.335472e+003;3.511797e-002
2.337400e+003;3.531502e-002
2.339329e+003;3.556941e-002
2.341257e+003;3.582691e-002
2.343186e+003;3.650118e-002
2.345114e+003;3.757522e-002
2.347043e+003;3.869839e-002
2.348971e+003;3.934851e-002
2.350900e+003;3.884388e-002
2.352829e+003;3.765485e-002
2.354757e+003;3.652962e-002
2.356686e+003;3.559243e-002
2.358614e+003;3.512806e-002
2.360543e+003;3.489016e-002
2.362471e+003;3.480378e-002
2.364400e+003;3.505924e-002
2.366328e+003;3.577524e-002
2.368257e+003;3.664846e-002
2.370186e+003;3.772792e-002
2.372114e+003;3.886555e-002
2.374042e+003;3.986845e-002
2.375971e+003;4.068736e-002
2.377900e+003;4.128905e-002
2.379828e+003;4.164616e-002
2.381757e+003;4.206607e-002
2.383685e+003;4.252250e-002
2.385614e+003;4.270782e-002
2.387542e+003;4.283875e-002
2.389471e+003;4.313030e-002
2.391399e+003;4.339324e-002
2.393328e+003;4.352551e-002
2.395257e+003;4.374892e-002
2.397185e+003;4.392867e-002
2.399114e+003;4.392331e-002
2.401042e+003;4.399261e-002
2.402971e+003;4.426252e-002
2.404899e+003;4.446204e-002
2.406828e+003;4.440493e-002
2.408756e+003;4.448755e-002
2.410685e+003;4.468156e-002
2.412614e+003;4.487463e-002
2.414542e+003;4.511682e-002
2.416471e+003;4.506312e-002
2.418399e+003;4.511119e-002
2.420328e+003;4.528011e-002
2.422256e+003;4.546936e-002
2.424185e+003;4.570974e-002
2.426113e+003;4.617621e-002
2.428042e+003;4.655631e-002
2.429970e+003;4.673125e-002
2.431899e+003;4.675317e-002
2.433828e+003;4.682373e-002
2.435756e+003;4.716188e-002
2.437685e+003;4.751176e-002
2.439613e+003;4.761254e-002
2.441542e+003;4.776282e-002
2.443470e+003;4.790968e-002
2.445399e+003;4.789925e-002
2.447327e+003;4.808846e-002
2.449256e+003;4.852370e-002
2.451185e+003;4.877075e-002
2.453113e+003;4.883355e-002
2.455042e+003;4.899921e-002
2.456970e+003;4.916689e-002
2.458899e+003;4.937169e-002
2.460827e+003;4.972213e-002
2.462756e+003;4.992165e-002
2.464684e+003;4.989745e-002
2.466613e+003;5.013893e-002
2.468542e+003;5.049601e-002
2.470470e+003;5.050919e-002
2.472398e+003;5.068081e-002
2.474327e+003;5.080985e-002
2.476256e+003;5.075596e-002
2.478184e+003;5.106995e-002
2.480113e+003;5.148875e-002
2.482041e+003;5.167550e-002
2.483970e+003;5.180898e-002
2.485898e+003;5.200826e-002
2.487827e+003;5.225514e-002
2.489755e+003;5.226448e-002
2.491684e+003;5.219685e-002
2.493613e+003;5.241041e-002
2.495541e+003;5.261936e-002
2.497470e+003;5.279990e-002
2.499398e+003;5.295992e-002
2.501327e+003;5.317004e-002
2.503255e+003;5.334548e-002
2.505184e+003;5.349173e-002
2.507112e+003;5.350549e-002
2.509041e+003;5.347078e-002
2.510969e+003;5.350013e-002
2.512898e+003;5.372603e-002
2.514827e+003;5.406540e-002
2.516755e+003;5.429219e-002
2.518684e+003;5.434063e-002
2.520612e+003;5.443095e-002
2.522541e+003;5.442160e-002
2.524469e+003;5.441788e-002
2.526398e+003;5.471750e-002
2.528326e+003;5.497483e-002
2.530255e+003;5.513649e-002
2.532184e+003;5.504366e-002
2.534112e+003;5.490771e-002
2.536041e+003;5.493904e-002
2.537969e+003;5.497382e-002
2.539898e+003;5.515680e-002
2.541826e+003;5.528805e-002
2.543755e+003;5.528041e-002
2.545683e+003;5.532858e-002
2.547612e+003;5.541534e-002
2.549541e+003;5.533754e-002
2.551469e+003;5.529008e-002
2.553397e+003;5.536923e-002
2.555326e+003;5.572725e-002
2.557255e+003;5.604184e-002
2.559183e+003;5.601146e-002
2.561112e+003;5.613225e-002
2.563040e+003;5.626820e-002
2.564969e+003;5.617561e-002
2.566897e+003;5.613655e-002
2.568826e+003;5.628464e-002
2.570754e+003;5.653479e-002
2.572683e+003;5.658888e-002
2.574612e+003;5.657725e-002
2.576540e+003;5.683312e-002
2.578469e+003;5.720763e-002
2.580397e+003;5.742340e-002
2.582326e+003;5.755378e-002
2.584254e+003;5.741844e-002
2.586183e+003;5.735306e-002
2.588111e+003;5.739019e-002
2.590040e+003;5.756164e-002
2.591969e+003;5.779167e-002
2.593897e+003;5.797877e-002
2.595826e+003;5.820508e-002
2.597754e+003;5.834479e-002
2.599683e+003;5.832277e-002
2.601611e+003;5.835771e-002
2.603540e+003;5.838553e-002
2.605468e+003;5.852386e-002
2.607397e+003;5.872128e-002
2.609325e+003;5.894658e-002
2.611254e+003;5.928903e-002
2.613183e+003;5.955600e-002
2.615111e+003;5.964273e-002
2.617040e+003;5.951689e-002
2.618968e+003;5.954783e-002
2.620897e+003;5.995165e-002
2.622825e+003;6.037923e-002
2.624754e+003;6.047275e-002
2.626682e+003;6.055529e-002
2.628611e+003;6.089504e-002
2.630540e+003;6.132340e-002
2.632468e+003;6.130039e-002
2.634396e+003;6.131813e-002
2.636325e+003;6.166456e-002
2.638254e+003;6.192826e-002
2.640182e+003;6.209214e-002
2.642111e+003;6.219231e-002
2.644039e+003;6.219720e-002
2.645968e+003;6.250963e-002
2.647896e+003;6.294402e-002
2.649825e+003;6.316496e-002
2.651753e+003;6.334791e-002
2.653682e+003;6.354347e-002
2.655611e+003;6.383184e-002
2.657539e+003;6.413408e-002
2.659468e+003;6.429595e-002
2.661396e+003;6.444351e-002
2.663325e+003;6.440723e-002
2.665253e+003;6.453730e-002
2.667182e+003;6.506886e-002
2.669110e+003;6.537127e-002
2.671039e+003;6.546302e-002
2.672968e+003;6.574561e-002
2.674896e+003;6.590628e-002
2.676825e+003;6.600478e-002
2.678753e+003;6.621899e-002
2.680682e+003;6.643234e-002
2.682610e+003;6.667373e-002
2.684539e+003;6.690716e-002
2.686467e+003;6.728198e-002
2.688396e+003;6.774043e-002
2.690324e+003;6.804842e-002
2.692253e+003;6.814469e-002
2.694182e+003;6.823216e-002
2.696110e+003;6.827147e-002
2.698039e+003;6.814536e-002
2.699967e+003;6.824034e-002
2.701896e+003;6.867246e-002
2.703824e+003;6.910538e-002
2.705753e+003;6.925789e-002
2.707681e+003;6.931128e-002
2.709610e+003;6.953421e-002
2.711539e+003;6.975877e-002
2.713467e+003;6.983752e-002
2.715396e+003;6.999449e-002
2.717324e+003;7.029158e-002
2.719253e+003;7.048702e-002
2.721181e+003;7.020600e-002
2.723110e+003;7.026712e-002
2.725038e+003;7.092034e-002
2.726967e+003;7.113203e-002
2.728896e+003;7.105257e-002
2.730824e+003;7.130954e-002
2.732752e+003;7.149217e-002
2.734681e+003;7.154654e-002
2.736610e+003;7.155260e-002
2.738538e+003;7.169268e-002
2.740467e+003;7.188097e-002
2.742395e+003;7.203591e-002
2.744324e+003;7.197870e-002
2.746252e+003;7.186209e-002
2.748181e+003;7.209943e-002
2.750109e+003;7.224290e-002
2.752038e+003;7.245492e-002
2.753967e+003;7.253201e-002
2.755895e+003;7.260443e-002
2.757824e+003;7.271848e-002
2.759752e+003;7.278183e-002
2.761681e+003;7.288861e-002
2.763609e+003;7.330562e-002
2.765538e+003;7.352840e-002
2.767466e+003;7.339922e-002
2.769395e+003;7.383181e-002
2.771323e+003;7.438781e-002
2.773252e+003;7.468588e-002
2.775181e+003;7.526442e-002
2.777109e+003;7.549731e-002
2.779038e+003;7.547867e-002
2.780966e+003;7.570691e-002
2.782895e+003;7.611527e-002
2.784823e+003;7.641523e-002
2.786752e+003;7.673200e-002
2.788680e+003;7.725061e-002
2.790609e+003;7.761981e-002
2.792538e+003;7.774372e-002
2.794466e+003;7.779025e-002
2.796395e+003;7.796459e-002
2.798323e+003;7.861489e-002
2.800252e+003;7.911631e-002
2.802180e+003;7.934671e-002
2.804109e+003;7.980139e-002
2.806037e+003;8.029720e-002
2.807966e+003;8.076493e-002
2.809895e+003;8.105326e-002
2.811823e+003;8.124015e-002
2.813751e+003;8.187550e-002
2.815680e+003;8.260766e-002
2.817609e+003;8.289170e-002
2.819537e+003;8.299698e-002
2.821466e+003;8.333529e-002
2.823394e+003;8.389155e-002
2.825323e+003;8.430345e-002
2.827251e+003;8.495466e-002
2.829180e+003;8.565757e-002
2.831108e+003;8.606821e-002
2.833037e+003;8.672976e-002
2.834966e+003;8.766535e-002
2.836894e+003;8.851922e-002
2.838823e+003;8.917276e-002
2.840751e+003;9.002002e-002
2.842680e+003;9.144770e-002
2.844608e+003;9.293544e-002
2.846537e+003;9.456809e-002
2.848465e+003;9.628059e-002
2.850394e+003;9.732605e-002
2.852323e+003;9.767023e-002
2.854251e+003;9.777579e-002
2.856180e+003;9.811009e-002
2.858108e+003;9.906834e-002
2.860037e+003;1.000306e-001
2.861965e+003;1.011550e-001
2.863894e+003;1.022931e-001
2.865822e+003;1.034653e-001
2.867751e+003;1.047708e-001
2.869679e+003;1.058021e-001
2.871608e+003;1.069468e-001
2.873536e+003;1.078538e-001
2.875465e+003;1.083833e-001
2.877394e+003;1.089861e-001
2.879322e+003;1.092359e-001
2.881251e+003;1.093203e-001
2.883179e+003;1.097715e-001
2.885108e+003;1.107312e-001
2.887036e+003;1.114864e-001
2.888965e+003;1.116135e-001
2.890893e+003;1.119941e-001
2.892822e+003;1.125134e-001
2.894750e+003;1.123424e-001
2.896679e+003;1.118372e-001
2.898608e+003;1.114021e-001
2.900536e+003;1.111934e-001
2.902465e+003;1.109145e-001
2.904393e+003;1.104429e-001
2.906322e+003;1.098256e-001
2.908250e+003;1.094417e-001
2.910179e+003;1.090795e-001
2.912107e+003;1.090427e-001
2.914036e+003;1.093710e-001
2.915965e+003;1.092177e-001
2.917893e+003;1.080583e-001
2.919822e+003;1.062703e-001
2.921750e+003;1.044264e-001
2.923679e+003;1.026646e-001
2.925607e+003;1.009198e-001
2.927536e+003;9.921679e-002
2.929464e+003;9.808982e-002
2.931393e+003;9.700193e-002
2.933322e+003;9.590655e-002
2.935250e+003;9.474435e-002
2.937178e+003;9.360997e-002
2.939107e+003;9.249227e-002
2.941036e+003;9.100351e-002
2.942964e+003;8.963964e-002
2.944893e+003;8.883601e-002
2.946821e+003;8.794796e-002
2.948750e+003;8.677455e-002
2.950678e+003;8.565596e-002
2.952607e+003;8.466373e-002
2.954535e+003;8.376780e-002
2.956464e+003;8.304483e-002
2.958393e+003;8.246097e-002
2.960321e+003;8.192459e-002
2.962250e+003;8.114440e-002
2.964178e+003;8.062340e-002
2.966107e+003;8.006860e-002
2.968035e+003;7.941919e-002
2.969964e+003;7.895942e-002
2.971892e+003;7.808756e-002
2.973821e+003;7.735706e-002
2.975750e+003;7.715463e-002
2.977678e+003;7.697048e-002
2.979607e+003;7.655622e-002
2.981535e+003;7.622421e-002
2.983464e+003;7.599964e-002
2.985392e+003;7.564846e-002
2.987321e+003;7.526552e-002
2.989249e+003;7.502616e-002
2.991178e+003;7.477010e-002
2.993106e+003;7.443450e-002
2.995035e+003;7.442883e-002
2.996964e+003;7.444645e-002
2.998892e+003;7.427772e-002
3.000821e+003;7.436761e-002
3.002749e+003;7.455604e-002
3.004678e+003;7.475491e-002
3.006606e+003;7.494863e-002
3.008535e+003;7.504058e-002
3.010463e+003;7.525562e-002
3.012392e+003;7.556513e-002
3.014321e+003;7.593112e-002
3.016249e+003;7.665883e-002
3.018177e+003;7.672955e-002
3.020106e+003;7.656243e-002
3.022035e+003;7.704217e-002
3.023963e+003;7.735413e-002
3.025892e+003;7.768819e-002
3.027820e+003;7.811584e-002
3.029749e+003;7.835738e-002
3.031677e+003;7.867279e-002
3.033606e+003;7.924128e-002
3.035534e+003;7.985646e-002
3.037463e+003;8.008849e-002
3.039392e+003;8.050849e-002
3.041320e+003;8.116365e-002
3.043249e+003;8.150055e-002
3.045177e+003;8.178165e-002
3.047106e+003;8.234509e-002
3.049034e+003;8.269232e-002
3.050963e+003;8.286367e-002
3.052891e+003;8.318012e-002
3.054820e+003;8.380047e-002
3.056749e+003;8.440964e-002
3.058677e+003;8.487606e-002
3.060606e+003;8.522028e-002
3.062534e+003;8.599765e-002
3.064463e+003;8.665549e-002
3.066391e+003;8.691639e-002
3.068320e+003;8.721873e-002
3.070248e+003;8.764735e-002
3.072177e+003;8.795884e-002
3.074105e+003;8.852568e-002
3.076034e+003;8.909969e-002
3.077963e+003;8.976185e-002
3.079891e+003;9.017859e-002
3.081820e+003;9.038780e-002
3.083748e+003;9.099386e-002
3.085677e+003;9.166379e-002
3.087605e+003;9.232417e-002
3.089534e+003;9.300267e-002
3.091462e+003;9.379247e-002
3.093391e+003;9.434458e-002
3.095320e+003;9.437340e-002
3.097248e+003;9.464534e-002
3.099177e+003;9.494761e-002
3.101105e+003;9.576797e-002
3.103034e+003;9.688640e-002
3.104962e+003;9.740660e-002
3.106891e+003;9.762140e-002
3.108819e+003;9.804655e-002
3.110748e+003;9.892762e-002
3.112677e+003;9.960765e-002
3.114605e+003;9.953881e-002
3.116533e+003;9.992296e-002
3.118462e+003;1.008190e-001
3.120391e+003;1.014489e-001
3.122319e+003;1.019480e-001
3.124248e+003;1.025638e-001
3.126176e+003;1.031932e-001
3.128105e+003;1.035127e-001
3.130033e+003;1.039034e-001
3.131962e+003;1.044105e-001
3.133890e+003;1.049203e-001
3.135819e+003;1.056733e-001
3.137748e+003;1.063064e-001
3.139676e+003;1.064167e-001
3.141605e+003;1.067737e-001
3.143533e+003;1.072613e-001
3.145462e+003;1.077848e-001
3.147390e+003;1.082944e-001
3.149319e+003;1.089603e-001
3.151247e+003;1.093151e-001
3.153176e+003;1.093221e-001
3.155104e+003;1.097413e-001
3.157033e+003;1.103321e-001
3.158962e+003;1.109339e-001
3.160890e+003;1.115920e-001
3.162819e+003;1.120464e-001
3.164747e+003;1.124750e-001
3.166676e+003;1.125754e-001
3.168604e+003;1.128708e-001
3.170533e+003;1.135305e-001
3.172461e+003;1.140441e-001
3.174390e+003;1.141890e-001
3.176319e+003;1.141975e-001
3.178247e+003;1.145103e-001
3.180176e+003;1.152069e-001
3.182104e+003;1.156197e-001
3.184033e+003;1.161234e-001
3.185961e+003;1.166014e-001
3.187890e+003;1.167809e-001
3.189818e+003;1.171774e-001
3.191747e+003;1.177487e-001
3.193676e+003;1.180688e-001
3.195604e+003;1.184800e-001
3.197532e+003;1.187750e-001
3.199461e+003;1.190308e-001
3.201390e+003;1.193901e-001
3.203318e+003;1.197968e-001
3.205247e+003;1.201159e-001
3.207175e+003;1.205733e-001
3.209104e+003;1.211058e-001
3.211032e+003;1.215626e-001
3.212961e+003;1.221365e-001
3.214889e+003;1.224790e-001
3.216818e+003;1.228331e-001
3.218747e+003;1.233476e-001
3.220675e+003;1.235463e-001
3.222604e+003;1.234875e-001
3.224532e+003;1.236934e-001
3.226461e+003;1.242893e-001
3.228389e+003;1.249003e-001
3.230318e+003;1.253984e-001
3.232246e+003;1.257080e-001
3.234175e+003;1.259521e-001
3.236104e+003;1.262957e-001
3.238032e+003;1.266701e-001
3.239961e+003;1.272880e-001
3.241889e+003;1.281954e-001
3.243818e+003;1.286640e-001
3.245746e+003;1.288778e-001
3.247675e+003;1.291175e-001
3.249603e+003;1.293033e-001
3.251532e+003;1.297950e-001
3.253460e+003;1.301547e-001
3.255389e+003;1.302896e-001
3.257318e+003;1.307770e-001
3.259246e+003;1.314926e-001
3.261175e+003;1.322068e-001
3.263103e+003;1.326856e-001
3.265032e+003;1.327001e-001
3.266960e+003;1.326344e-001
3.268889e+003;1.329257e-001
3.270817e+003;1.333365e-001
3.272746e+003;1.335470e-001
3.274675e+003;1.338580e-001
3.276603e+003;1.342141e-001
3.278531e+003;1.344167e-001
3.280460e+003;1.344982e-001
3.282389e+003;1.347049e-001
3.284317e+003;1.350762e-001
3.286246e+003;1.351471e-001
3.288174e+003;1.352735e-001
3.290103e+003;1.356561e-001
3.292031e+003;1.360766e-001
3.293960e+003;1.362287e-001
3.295888e+003;1.365868e-001
3.297817e+003;1.368291e-001
3.299746e+003;1.370648e-001
3.301674e+003;1.371412e-001
3.303603e+003;1.370815e-001
3.305531e+003;1.374067e-001
3.307460e+003;1.375998e-001
3.309388e+003;1.377173e-001
3.311317e+003;1.377033e-001
3.313245e+003;1.382316e-001
3.315174e+003;1.384181e-001
3.317103e+003;1.378714e-001
3.319031e+003;1.377160e-001
3.320960e+003;1.381620e-001
3.322888e+003;1.380660e-001
3.324817e+003;1.378144e-001
3.326745e+003;1.382236e-001
3.328674e+003;1.384757e-001
3.330602e+003;1.382496e-001
3.332531e+003;1.378178e-001
3.334459e+003;1.377848e-001
3.336388e+003;1.378075e-001
3.338317e+003;1.379823e-001
3.340245e+003;1.380455e-001
3.342174e+003;1.377432e-001
3.344102e+003;1.372831e-001
3.346031e+003;1.371120e-001
3.347959e+003;1.371988e-001
3.349888e+003;1.367714e-001
3.351816e+003;1.363073e-001
3.353745e+003;1.365093e-001
3.355674e+003;1.370336e-001
3.357602e+003;1.370711e-001
3.359531e+003;1.367047e-001
3.361459e+003;1.362975e-001
3.363388e+003;1.355927e-001
3.365316e+003;1.350601e-001
3.367245e+003;1.349851e-001
3.369173e+003;1.347264e-001
3.371102e+003;1.344169e-001
3.373031e+003;1.340449e-001
3.374959e+003;1.339033e-001
3.376887e+003;1.334978e-001
3.378816e+003;1.330876e-001
3.380745e+003;1.324823e-001
3.382673e+003;1.321933e-001
3.384602e+003;1.322240e-001
3.386530e+003;1.315555e-001
3.388459e+003;1.309230e-001
3.390387e+003;1.309433e-001
3.392316e+003;1.313248e-001
3.394244e+003;1.312477e-001
3.396173e+003;1.308435e-001
3.398102e+003;1.303632e-001
3.400030e+003;1.298995e-001
3.401959e+003;1.291342e-001
3.403887e+003;1.282010e-001
3.405816e+003;1.277750e-001
3.407744e+003;1.278297e-001
3.409673e+003;1.279283e-001
3.411601e+003;1.276871e-001
3.413530e+003;1.272263e-001
3.415458e+003;1.269987e-001
3.417387e+003;1.267048e-001
3.419316e+003;1.262531e-001
3.421244e+003;1.256281e-001
3.423173e+003;1.252844e-001
3.425101e+003;1.252831e-001
3.427030e+003;1.254336e-001
3.428958e+003;1.254474e-001
3.430887e+003;1.248916e-001
3.432815e+003;1.245853e-001
3.434744e+003;1.248153e-001
3.436673e+003;1.248938e-001
3.438601e+003;1.247792e-001
3.440530e+003;1.243153e-001
3.442458e+003;1.235237e-001
3.444387e+003;1.226611e-001
3.446315e+003;1.218386e-001
3.448244e+003;1.213557e-001
3.450172e+003;1.204218e-001
3.452101e+003;1.188245e-001
3.454030e+003;1.176779e-001
3.455958e+003;1.165987e-001
3.457886e+003;1.151002e-001
3.459815e+003;1.136650e-001
3.461744e+003;1.127130e-001
3.463672e+003;1.118869e-001
3.465601e+003;1.111992e-001
3.467529e+003;1.104333e-001
3.469458e+003;1.092761e-001
3.471386e+003;1.079910e-001
3.473315e+003;1.075216e-001
3.475243e+003;1.072456e-001
3.477172e+003;1.062199e-001
3.479101e+003;1.051041e-001
3.481029e+003;1.047084e-001
3.482958e+003;1.045762e-001
3.484886e+003;1.041361e-001
3.486815e+003;1.030902e-001
3.488743e+003;1.017521e-001
3.490672e+003;1.007677e-001
3.492600e+003;9.967189e-002
3.494529e+003;9.845261e-002
3.496458e+003;9.730088e-002
3.498386e+003;9.608369e-002
3.500315e+003;9.467822e-002
3.502243e+003;9.330709e-002
3.504172e+003;9.185865e-002
3.506100e+003;9.055054e-002
3.508029e+003;8.910685e-002
3.509957e+003;8.741830e-002
3.511886e+003;8.610154e-002
3.513814e+003;8.502027e-002
3.515743e+003;8.405919e-002
3.517672e+003;8.320817e-002
3.519600e+003;8.206530e-002
3.521529e+003;8.118794e-002
3.523457e+003;8.030398e-002
3.525386e+003;7.917288e-002
3.527314e+003;7.806230e-002
3.529243e+003;7.702421e-002
3.531171e+003;7.617556e-002
3.533100e+003;7.581334e-002
3.535029e+003;7.539210e-002
3.536957e+003;7.430001e-002
3.538885e+003;7.327718e-002
3.540814e+003;7.292055e-002
3.542743e+003;7.224219e-002
3.544671e+003;7.133910e-002
3.546600e+003;7.029025e-002
3.548528e+003;6.936920e-002
3.550457e+003;6.888450e-002
3.552385e+003;6.809613e-002
3.554314e+003;6.712139e-002
3.556242e+003;6.650995e-002
3.558171e+003;6.595758e-002
3.560100e+003;6.527448e-002
3.562028e+003;6.469302e-002
3.563957e+003;6.387778e-002
3.565885e+003;6.296999e-002
3.567814e+003;6.267243e-002
3.569742e+003;6.259737e-002
3.571671e+003;6.183247e-002
3.573599e+003;6.107940e-002
3.575528e+003;6.067952e-002
3.577457e+003;6.039453e-002
3.579385e+003;5.984622e-002
3.581314e+003;5.906906e-002
3.583242e+003;5.831659e-002
3.585171e+003;5.749794e-002
3.587099e+003;5.660964e-002
3.589028e+003;5.616000e-002
3.590956e+003;5.587091e-002
3.592885e+003;5.520444e-002
3.594813e+003;5.500240e-002
3.596742e+003;5.462040e-002
3.598671e+003;5.398731e-002
3.600599e+003;5.354019e-002
3.602528e+003;5.331387e-002
3.604456e+003;5.257908e-002
3.606385e+003;5.140318e-002
3.608313e+003;5.104520e-002
3.610242e+003;5.107017e-002
3.612170e+003;5.041719e-002
3.614099e+003;4.965325e-002
3.616028e+003;4.901523e-002
3.617956e+003;4.846768e-002
3.619885e+003;4.806895e-002
3.621813e+003;4.795789e-002
3.623742e+003;4.750947e-002
3.625670e+003;4.633430e-002
3.627599e+003;4.495080e-002
3.629527e+003;4.429015e-002
3.631456e+003;4.434453e-002
3.633385e+003;4.430453e-002
3.635313e+003;4.386646e-002
3.637241e+003;4.299515e-002
3.639170e+003;4.207966e-002
3.641099e+003;4.139769e-002
3.643027e+003;4.086544e-002
3.644956e+003;4.011756e-002
3.646884e+003;3.916935e-002
3.648813e+003;3.816531e-002
3.650741e+003;3.768311e-002
3.652670e+003;3.745998e-002
3.654598e+003;3.683132e-002
3.656527e+003;3.624257e-002
3.658456e+003;3.578592e-002
3.660384e+003;3.510529e-002
3.662313e+003;3.444526e-002
3.664241e+003;3.411041e-002
3.666170e+003;3.356145e-002
3.668098e+003;3.190500e-002
3.670027e+003;3.040116e-002
3.671955e+003;3.037095e-002
3.673884e+003;3.028429e-002
3.675813e+003;2.962406e-002
3.677741e+003;2.945936e-002
3.679669e+003;2.964772e-002
3.681598e+003;2.959423e-002
3.683527e+003;2.876689e-002
3.685455e+003;2.767448e-002
3.687384e+003;2.665940e-002
3.689312e+003;2.631286e-002
3.691241e+003;2.652822e-002
3.693169e+003;2.673917e-002
3.695098e+003;2.646651e-002
3.697026e+003;2.618421e-002
3.698955e+003;2.588826e-002
3.700884e+003;2.549103e-002
3.702812e+003;2.575714e-002
3.704741e+003;2.582092e-002
3.706669e+003;2.495816e-002
3.708598e+003;2.422685e-002
3.710526e+003;2.413623e-002
3.712455e+003;2.453453e-002
3.714383e+003;2.486004e-002
3.716312e+003;2.467753e-002
3.718240e+003;2.432854e-002
3.720169e+003;2.399736e-002
3.722098e+003;2.361074e-002
3.724026e+003;2.314604e-002
3.725955e+003;2.286567e-002
3.727883e+003;2.321307e-002
3.729812e+003;2.300603e-002
3.731740e+003;2.237525e-002
3.733669e+003;2.271032e-002
3.735597e+003;2.285809e-002
3.737526e+003;2.276580e-002
3.739455e+003;2.263397e-002
3.741383e+003;2.230203e-002
3.743312e+003;2.135781e-002
3.745240e+003;2.130870e-002
3.747169e+003;2.209604e-002
3.749097e+003;2.218869e-002
3.751026e+003;2.172710e-002
3.752954e+003;2.169373e-002
3.754883e+003;2.213300e-002
3.756812e+003;2.244890e-002
3.758740e+003;2.274415e-002
3.760668e+003;2.261606e-002
3.762597e+003;2.229157e-002
3.764526e+003;2.213370e-002
3.766454e+003;2.234333e-002
3.768383e+003;2.228532e-002
3.770311e+003;2.235875e-002
3.772240e+003;2.272188e-002
3.774168e+003;2.268330e-002
3.776097e+003;2.245323e-002
3.778025e+003;2.241739e-002
3.779954e+003;2.254151e-002
3.781883e+003;2.259652e-002
3.783811e+003;2.219475e-002
3.785740e+003;2.203908e-002
3.787668e+003;2.226565e-002
3.789597e+003;2.244541e-002
3.791525e+003;2.221599e-002
3.793454e+003;2.201311e-002
3.795382e+003;2.202374e-002
3.797311e+003;2.250567e-002
3.799240e+003;2.214461e-002
3.801168e+003;2.148727e-002
3.803097e+003;2.184120e-002
3.805025e+003;2.187304e-002
3.806954e+003;2.161349e-002
3.808882e+003;2.210169e-002
3.810811e+003;2.235732e-002
3.812739e+003;2.217913e-002
3.814668e+003;2.139968e-002
3.816596e+003;2.140542e-002
3.818525e+003;2.198164e-002
3.820454e+003;2.153225e-002
3.822382e+003;2.122206e-002
3.824311e+003;2.155910e-002
3.826239e+003;2.213718e-002
3.828168e+003;2.268435e-002
3.830096e+003;2.263778e-002
3.832025e+003;2.271430e-002
3.833953e+003;2.220773e-002
3.835882e+003;2.120442e-002
3.837811e+003;2.148076e-002
3.839739e+003;2.224776e-002
3.841667e+003;2.242420e-002
3.843596e+003;2.235418e-002
3.845525e+003;2.264423e-002
3.847453e+003;2.294891e-002
3.849382e+003;2.250885e-002
3.851310e+003;2.176232e-002
3.853239e+003;2.115811e-002
3.855167e+003;2.207411e-002
3.857096e+003;2.313377e-002
3.859024e+003;2.348450e-002
3.860953e+003;2.346107e-002
3.862882e+003;2.292502e-002
3.864810e+003;2.300767e-002
3.866739e+003;2.366302e-002
3.868667e+003;2.341414e-002
3.870596e+003;2.331547e-002
3.872524e+003;2.312633e-002
3.874453e+003;2.315922e-002
3.876381e+003;2.407724e-002
3.878310e+003;2.419427e-002
3.880239e+003;2.385928e-002
3.882167e+003;2.418110e-002
3.884096e+003;2.398409e-002
3.886024e+003;2.347044e-002
3.887953e+003;2.402289e-002
3.889881e+003;2.421757e-002
3.891810e+003;2.403151e-002
3.893738e+003;2.409633e-002
3.895667e+003;2.472839e-002
3.897595e+003;2.516129e-002
3.899524e+003;2.488917e-002
3.901453e+003;2.441054e-002
3.903381e+003;2.436284e-002
3.905310e+003;2.490278e-002
3.907238e+003;2.542639e-002
3.909167e+003;2.571882e-002
3.911095e+003;2.559498e-002
3.913024e+003;2.562683e-002
3.914952e+003;2.596329e-002
3.916881e+003;2.626111e-002
3.918810e+003;2.664563e-002
3.920738e+003;2.676906e-002
3.922667e+003;2.673339e-002
3.924595e+003;2.666314e-002
3.926524e+003;2.700544e-002
3.928452e+003;2.706486e-002
3.930381e+003;2.693017e-002
3.932309e+003;2.727135e-002
3.934238e+003;2.760976e-002
3.936167e+003;2.725043e-002
3.938095e+003;2.684617e-002
3.940023e+003;2.692714e-002
3.941952e+003;2.704917e-002
3.943881e+003;2.717712e-002
3.945809e+003;2.720203e-002
3.947738e+003;2.759888e-002
3.949666e+003;2.795253e-002
3.951595e+003;2.760337e-002
3.953523e+003;2.749950e-002
3.955452e+003;2.773459e-002
3.957380e+003;2.756757e-002
3.959309e+003;2.735720e-002
3.961238e+003;2.721412e-002
3.963166e+003;2.749671e-002
3.965095e+003;2.786335e-002
3.967023e+003;2.791175e-002
3.968952e+003;2.780510e-002
3.970880e+003;2.763126e-002
3.972809e+003;2.752894e-002
3.974737e+003;2.762865e-002
3.976666e+003;2.781792e-002
3.978594e+003;2.773834e-002
3.980523e+003;2.755464e-002
3.982452e+003;2.724422e-002
3.984380e+003;2.711194e-002
3.986309e+003;2.736637e-002
3.988237e+003;2.759528e-002
3.990166e+003;2.779238e-002
3.992094e+003;2.761633e-002
3.994023e+003;2.749304e-002
3.995951e+003;2.770475e-002
3.997880e+003;2.803070e-002
3.999809e+003;2.801819e-002
4.001737e+003;0.000000e+000
