3.992094e+002;0.000000e+000
4.011380e+002;0.000000e+000
4.030665e+002;0.000000e+000
4.049951e+002;0.000000e+000
4.069236e+002;0.000000e+000
4.088522e+002;0.000000e+000
4.107807e+002;0.000000e+000
4.127093e+002;0.000000e+000
4.146378e+002;0.000000e+000
4.165664e+002;0.000000e+000
4.184949e+002;0.000000e+000
4.204235e+002;0.000000e+000
4.223520e+002;0.000000e+000
4.242806e+002;0.000000e+000
4.262091e+002;0.000000e+000
4.281377e+002;0.000000e+000
4.300662e+002;0.000000e+000
4.319948e+002;0.000000e+000
4.339233e+002;0.000000e+000
4.358519e+002;0.000000e+000
4.377804e+002;0.000000e+000
4.397090e+002;0.000000e+000
4.416375e+002;0.000000e+000
4.435660e+002;0.000000e+000
4.454946e+002;0.000000e+000
4.474232e+002;0.000000e+000
4.493517e+002;0.000000e+000
4.512802e+002;0.000000e+000
4.532088e+002;0.000000e+000
4.551373e+002;0.000000e+000
4.570659e+002;0.000000e+000
4.589944e+002;0.000000e+000
4.609230e+002;0.000000e+000
4.628515e+002;0.000000e+000
4.647801e+002;0.000000e+000
4.667086e+002;0.000000e+000
4.686372e+002;0.000000e+000
4.705657e+002;0.000000e+000
4.724943e+002;0.000000e+000
4.744228e+002;0.000000e+000
4.763513e+002;0.000000e+000
4.782799e+002;0.000000e+000
4.802085e+002;0.000000e+000
4.821370e+002;0.000000e+000
4.840656e+002;0.000000e+000
4.859941e+002;0.000000e+000
4.879226e+002;0.000000e+000
4.898512e+002;0.000000e+000
4.917798e+002;0.000000e+000
4.937083e+002;0.000000e+000
4.956368e+002;0.000000e+000
4.975654e+002;0.000000e+000
4.994939e+002;0.000000e+000
5.014225e+002;0.000000e+000
5.033510e+002;0.000000e+000
5.052796e+002;0.000000e+000
5.072081e+002;0.000000e+000
5.091367e+002;0.000000e+000
5.110652e+002;0.000000e+000
5.129938e+002;0.000000e+000
5.149223e+002;0.000000e+000
5.168509e+002;0.000000e+000
5.187794e+002;0.000000e+000
5.207079e+002;0.000000e+000
5.226365e+002;0.000000e+000
5.245651e+002;0.000000e+000
5.264936e+002;0.000000e+000
5.284222e+002;0.000000e+000
5.303507e+002;0.000000e+000
5.322792e+002;0.000000e+000
5.342078e+002;0.000000e+000
5.361364e+002;0.000000e+000
5.380649e+002;0.000000e+000
5.399935e+002;0.000000e+000
5.419220e+002;0.000000e+000
5.438505e+002;0.000000e+000
5.457791e+002;0.000000e+000
5.477076e+002;0.000000e+000
5.496362e+002;0.000000e+000
5.515648e+002;0.000000e+000
5.534933e+002;0.000000e+000
5.554218e+002;0.000000e+000
5.573504e+002;0.000000e+000
5.592789e+002;0.000000e+000
5.612075e+002;0.000000e+000
5.631360e+002;0.000000e+000
5.650646e+002;0.000000e+000
5.669931e+002;0.000000e+000
5.689217e+002;0.000000e+000
5.708502e+002;0.000000e+000
5.727787e+002;0.000000e+000
5.747073e+002;0.000000e+000
5.766359e+002;0.000000e+000
5.785644e+002;0.000000e+000
5.804930e+002;0.000000e+000
5.824215e+002;0.000000e+000
5.843500e+002;0.000000e+000
5.862786e+002;0.000000e+000
5.882072e+002;0.000000e+000
5.901357e+002;0.000000e+000
5.920643e+002;0.000000e+000
5.939928e+002;0.000000e+000
5.959213e+002;0.000000e+000
5.978499e+002;0.000000e+000
5.997784e+002;2.871946e-001
6.017070e+002;2.909675e-001
6.036355e+002;2.935108e-001
6.055641e+002;2.944208e-001
6.074926e+002;2.854634e-001
6.094211e+002;2.817360e-001
6.113497e+002;2.829744e-001
6.132783e+002;2.832557e-001
6.152068e+002;2.802512e-001
6.171354e+002;2.776935e-001
6.190639e+002;2.788496e-001
6.209924e+002;2.729036e-001
6.229210e+002;2.649996e-001
6.248495e+002;2.607020e-001
6.267781e+002;2.591730e-001
6.287067e+002;2.558925e-001
6.306352e+002;2.552510e-001
6.325637e+002;2.572267e-001
6.344923e+002;2.560140e-001
6.364208e+002;2.503829e-001
6.383494e+002;2.477769e-001
6.402780e+002;2.469898e-001
6.422065e+002;2.447310e-001
6.441350e+002;2.461199e-001
6.460636e+002;2.479716e-001
6.479921e+002;2.496862e-001
6.499207e+002;2.529926e-001
6.518492e+002;2.530628e-001
6.537778e+002;2.468100e-001
6.557063e+002;2.436489e-001
6.576349e+002;2.459297e-001
6.595634e+002;2.502964e-001
6.614919e+002;2.548902e-001
6.634205e+002;2.581585e-001
6.653491e+002;2.575132e-001
6.672776e+002;2.534346e-001
6.692062e+002;2.517942e-001
6.711347e+002;2.490661e-001
6.730632e+002;2.407014e-001
6.749918e+002;2.323287e-001
6.769203e+002;2.230605e-001
6.788489e+002;2.122957e-001
6.807775e+002;2.049472e-001
6.827060e+002;2.002883e-001
6.846345e+002;1.968073e-001
6.865631e+002;1.938137e-001
6.884916e+002;1.913667e-001
6.904202e+002;1.894902e-001
6.923488e+002;1.878286e-001
6.942773e+002;1.873781e-001
6.962058e+002;1.879519e-001
6.981344e+002;1.861223e-001
7.000629e+002;1.838493e-001
7.019915e+002;1.826233e-001
7.039200e+002;1.825416e-001
7.058486e+002;1.821742e-001
7.077771e+002;1.808420e-001
7.097057e+002;1.796708e-001
7.116342e+002;1.789350e-001
7.135627e+002;1.776286e-001
7.154913e+002;1.751934e-001
7.174199e+002;1.737810e-001
7.193484e+002;1.733800e-001
7.212770e+002;1.722489e-001
7.232055e+002;1.716412e-001
7.251340e+002;1.699722e-001
7.270626e+002;1.667671e-001
7.289911e+002;1.646169e-001
7.309197e+002;1.641531e-001
7.328483e+002;1.639321e-001
7.347768e+002;1.622373e-001
7.367053e+002;1.600535e-001
7.386339e+002;1.596420e-001
7.405624e+002;1.591245e-001
7.424910e+002;1.568587e-001
7.444196e+002;1.547785e-001
7.463481e+002;1.540011e-001
7.482766e+002;1.533049e-001
7.502052e+002;1.522215e-001
7.521337e+002;1.507833e-001
7.540623e+002;1.494437e-001
7.559908e+002;1.476254e-001
7.579194e+002;1.457790e-001
7.598479e+002;1.447131e-001
7.617765e+002;1.430402e-001
7.637050e+002;1.417569e-001
7.656335e+002;1.406397e-001
7.675621e+002;1.395055e-001
7.694907e+002;1.385839e-001
7.714192e+002;1.371953e-001
7.733478e+002;1.359718e-001
7.752763e+002;1.351783e-001
7.772048e+002;1.344533e-001
7.791334e+002;1.330702e-001
7.810620e+002;1.324578e-001
7.829905e+002;1.327039e-001
7.849191e+002;1.322475e-001
7.868476e+002;1.309084e-001
7.887761e+002;1.294576e-001
7.907047e+002;1.288445e-001
7.926332e+002;1.283758e-001
7.945618e+002;1.279708e-001
7.964903e+002;1.274679e-001
7.984189e+002;1.263736e-001
8.003474e+002;1.259006e-001
8.022759e+002;1.256790e-001
8.042045e+002;1.248657e-001
8.061331e+002;1.245081e-001
8.080616e+002;1.241067e-001
8.099902e+002;1.238443e-001
8.119187e+002;1.236595e-001
8.138472e+002;1.234721e-001
8.157758e+002;1.227839e-001
8.177043e+002;1.229197e-001
8.196329e+002;1.232971e-001
8.215615e+002;1.229294e-001
8.234900e+002;1.226684e-001
8.254185e+002;1.226818e-001
8.273471e+002;1.224306e-001
8.292756e+002;1.220051e-001
8.312042e+002;1.213105e-001
8.331328e+002;1.206076e-001
8.350613e+002;1.195526e-001
8.369898e+002;1.184048e-001
8.389184e+002;1.172278e-001
8.408469e+002;1.163462e-001
8.427755e+002;1.161882e-001
8.447040e+002;1.163838e-001
8.466326e+002;1.165873e-001
8.485611e+002;1.164099e-001
8.504897e+002;1.159702e-001
8.524182e+002;1.159798e-001
8.543467e+002;1.164519e-001
8.562753e+002;1.171179e-001
8.582039e+002;1.178519e-001
8.601324e+002;1.184829e-001
8.620610e+002;1.193216e-001
8.639895e+002;1.210118e-001
8.659180e+002;1.231575e-001
8.678466e+002;1.249512e-001
8.697751e+002;1.271472e-001
8.717037e+002;1.304785e-001
8.736323e+002;1.340302e-001
8.755608e+002;1.376358e-001
8.774893e+002;1.423449e-001
8.794179e+002;1.480064e-001
8.813464e+002;1.538158e-001
8.832750e+002;1.597829e-001
8.852036e+002;1.659376e-001
8.871321e+002;1.725754e-001
8.890606e+002;1.792341e-001
8.909892e+002;1.846068e-001
8.929177e+002;1.883810e-001
8.948463e+002;1.904044e-001
8.967748e+002;1.903985e-001
8.987034e+002;1.888409e-001
9.006319e+002;1.863368e-001
9.025605e+002;1.831369e-001
9.044890e+002;1.788935e-001
9.064175e+002;1.743498e-001
9.083461e+002;1.707598e-001
9.102747e+002;1.674392e-001
9.122032e+002;1.638998e-001
9.141318e+002;1.610960e-001
9.160603e+002;1.591435e-001
9.179888e+002;1.583255e-001
9.199174e+002;1.591009e-001
9.218459e+002;1.603520e-001
9.237745e+002;1.614842e-001
9.257031e+002;1.634773e-001
9.276316e+002;1.652109e-001
9.295601e+002;1.673244e-001
9.314887e+002;1.698900e-001
9.334172e+002;1.719321e-001
9.353458e+002;1.739535e-001
9.372744e+002;1.761933e-001
9.392029e+002;1.789939e-001
9.411314e+002;1.825568e-001
9.430600e+002;1.865542e-001
9.449885e+002;1.909410e-001
9.469171e+002;1.954503e-001
9.488456e+002;2.008784e-001
9.507742e+002;2.072583e-001
9.527027e+002;2.138218e-001
9.546313e+002;2.208586e-001
9.565598e+002;2.279986e-001
9.584883e+002;2.354743e-001
9.604169e+002;2.433989e-001
9.623455e+002;2.515489e-001
9.642740e+002;2.596552e-001
9.662026e+002;2.679941e-001
9.681311e+002;2.772075e-001
9.700596e+002;2.870501e-001
9.719882e+002;2.982064e-001
9.739167e+002;3.105952e-001
9.758453e+002;3.248044e-001
9.777739e+002;3.411941e-001
9.797024e+002;3.600714e-001
9.816309e+002;3.801973e-001
9.835595e+002;4.019492e-001
9.854880e+002;4.244431e-001
9.874166e+002;4.453765e-001
9.893452e+002;4.641947e-001
9.912737e+002;4.798943e-001
9.932022e+002;4.915873e-001
9.951307e+002;4.999535e-001
9.970593e+002;5.055885e-001
9.989879e+002;5.092709e-001
1.000916e+003;5.128928e-001
1.002845e+003;5.178211e-001
1.004773e+003;5.238418e-001
1.006702e+003;5.316017e-001
1.008631e+003;5.418792e-001
1.010559e+003;5.530781e-001
1.012488e+003;5.638628e-001
1.014416e+003;5.744131e-001
1.016345e+003;5.832645e-001
1.018273e+003;5.900009e-001
1.020202e+003;5.938174e-001
1.022130e+003;5.936303e-001
1.024059e+003;5.914106e-001
1.025988e+003;5.867718e-001
1.027916e+003;5.804405e-001
1.029845e+003;5.729387e-001
1.031773e+003;5.649428e-001
1.033702e+003;5.580266e-001
1.035630e+003;5.511785e-001
1.037559e+003;5.455109e-001
1.039487e+003;5.402814e-001
1.041416e+003;5.344900e-001
1.043344e+003;5.290927e-001
1.045273e+003;5.247750e-001
1.047202e+003;5.204436e-001
1.049130e+003;5.150493e-001
1.051059e+003;5.092356e-001
1.052987e+003;5.031271e-001
1.054916e+003;4.965462e-001
1.056844e+003;4.896804e-001
1.058773e+003;4.827181e-001
1.060701e+003;4.754513e-001
1.062630e+003;4.666650e-001
1.064558e+003;4.575940e-001
1.066487e+003;4.479779e-001
1.068416e+003;4.380319e-001
1.070344e+003;4.293928e-001
1.072273e+003;4.203160e-001
1.074201e+003;4.105524e-001
1.076130e+003;4.010799e-001
1.078058e+003;3.919192e-001
1.079987e+003;3.835035e-001
1.081915e+003;3.756983e-001
1.083844e+003;3.680674e-001
1.085773e+003;3.602805e-001
1.087701e+003;3.529178e-001
1.089630e+003;3.463404e-001
1.091558e+003;3.402074e-001
1.093487e+003;3.327507e-001
1.095415e+003;3.255477e-001
1.097344e+003;3.190808e-001
1.099272e+003;3.118298e-001
1.101201e+003;3.040636e-001
1.103129e+003;2.966473e-001
1.105058e+003;2.894426e-001
1.106987e+003;2.832509e-001
1.108915e+003;2.776714e-001
1.110844e+003;2.724821e-001
1.112772e+003;2.672575e-001
1.114701e+003;2.615465e-001
1.116629e+003;2.551815e-001
1.118558e+003;2.484531e-001
1.120486e+003;2.415829e-001
1.122415e+003;2.345037e-001
1.124344e+003;2.273249e-001
1.126272e+003;2.202022e-001
1.128201e+003;2.129362e-001
1.130129e+003;2.060466e-001
1.132058e+003;2.000814e-001
1.133986e+003;1.949795e-001
1.135915e+003;1.903362e-001
1.137843e+003;1.862416e-001
1.139772e+003;1.825146e-001
1.141700e+003;1.795658e-001
1.143629e+003;1.781802e-001
1.145557e+003;1.779237e-001
1.147486e+003;1.781675e-001
1.149415e+003;1.790694e-001
1.151343e+003;1.803651e-001
1.153272e+003;1.813357e-001
1.155200e+003;1.818044e-001
1.157129e+003;1.813252e-001
1.159057e+003;1.793836e-001
1.160986e+003;1.756969e-001
1.162914e+003;1.704478e-001
1.164843e+003;1.637322e-001
1.166771e+003;1.561906e-001
1.168700e+003;1.487043e-001
1.170629e+003;1.413323e-001
1.172557e+003;1.344627e-001
1.174486e+003;1.283942e-001
1.176414e+003;1.231207e-001
1.178343e+003;1.185013e-001
1.180271e+003;1.144587e-001
1.182200e+003;1.117268e-001
1.184128e+003;1.103853e-001
1.186057e+003;1.102682e-001
1.187986e+003;1.117785e-001
1.189914e+003;1.141528e-001
1.191843e+003;1.167830e-001
1.193771e+003;1.200149e-001
1.195700e+003;1.229482e-001
1.197628e+003;1.244838e-001
1.199557e+003;1.248760e-001
1.201485e+003;1.241325e-001
1.203414e+003;1.222890e-001
1.205343e+003;1.199030e-001
1.207271e+003;1.175336e-001
1.209200e+003;1.155406e-001
1.211128e+003;1.142932e-001
1.213057e+003;1.140883e-001
1.214985e+003;1.149258e-001
1.216914e+003;1.161983e-001
1.218842e+003;1.179897e-001
1.220771e+003;1.202755e-001
1.222699e+003;1.225427e-001
1.224628e+003;1.247438e-001
1.226557e+003;1.266856e-001
1.228485e+003;1.280016e-001
1.230414e+003;1.288025e-001
1.232342e+003;1.294258e-001
1.234271e+003;1.295741e-001
1.236199e+003;1.294130e-001
1.238128e+003;1.293420e-001
1.240056e+003;1.293308e-001
1.241985e+003;1.292284e-001
1.243913e+003;1.291724e-001
1.245842e+003;1.292820e-001
1.247771e+003;1.295987e-001
1.249699e+003;1.306771e-001
1.251628e+003;1.321562e-001
1.253556e+003;1.336797e-001
1.255485e+003;1.352568e-001
1.257413e+003;1.361346e-001
1.259342e+003;1.361764e-001
1.261270e+003;1.362449e-001
1.263199e+003;1.357694e-001
1.265127e+003;1.346503e-001
1.267056e+003;1.333199e-001
1.268985e+003;1.319514e-001
1.270913e+003;1.305531e-001
1.272842e+003;1.291241e-001
1.274770e+003;1.277494e-001
1.276699e+003;1.268843e-001
1.278627e+003;1.261848e-001
1.280556e+003;1.250314e-001
1.282484e+003;1.239655e-001
1.284413e+003;1.239428e-001
1.286342e+003;1.245234e-001
1.288270e+003;1.255580e-001
1.290199e+003;1.271921e-001
1.292127e+003;1.289934e-001
1.294056e+003;1.308621e-001
1.295984e+003;1.328352e-001
1.297913e+003;1.345747e-001
1.299841e+003;1.363071e-001
1.301770e+003;1.382220e-001
1.303698e+003;1.399742e-001
1.305627e+003;1.417446e-001
1.307556e+003;1.437529e-001
1.309484e+003;1.454038e-001
1.311413e+003;1.467181e-001
1.313341e+003;1.478096e-001
1.315270e+003;1.485936e-001
1.317198e+003;1.487465e-001
1.319127e+003;1.483357e-001
1.321055e+003;1.477139e-001
1.322984e+003;1.475181e-001
1.324912e+003;1.475639e-001
1.326841e+003;1.474469e-001
1.328770e+003;1.473784e-001
1.330698e+003;1.475541e-001
1.332627e+003;1.477065e-001
1.334555e+003;1.477642e-001
1.336484e+003;1.475573e-001
1.338412e+003;1.471578e-001
1.340341e+003;1.467840e-001
1.342269e+003;1.465117e-001
1.344198e+003;1.462225e-001
1.346126e+003;1.460583e-001
1.348055e+003;1.461621e-001
1.349984e+003;1.463852e-001
1.351912e+003;1.470722e-001
1.353841e+003;1.481471e-001
1.355769e+003;1.491024e-001
1.357698e+003;1.499166e-001
1.359626e+003;1.506353e-001
1.361555e+003;1.511938e-001
1.363483e+003;1.515844e-001
1.365412e+003;1.515649e-001
1.367341e+003;1.511495e-001
1.369269e+003;1.503434e-001
1.371198e+003;1.490945e-001
1.373126e+003;1.473859e-001
1.375055e+003;1.455752e-001
1.376983e+003;1.437135e-001
1.378912e+003;1.413878e-001
1.380840e+003;1.386757e-001
1.382769e+003;1.360935e-001
1.384698e+003;1.338413e-001
1.386626e+003;1.317972e-001
1.388555e+003;1.304545e-001
1.390483e+003;1.296940e-001
1.392412e+003;1.288605e-001
1.394340e+003;1.279765e-001
1.396269e+003;1.277012e-001
1.398197e+003;1.275314e-001
1.400126e+003;1.272428e-001
1.402054e+003;1.273093e-001
1.403983e+003;1.274498e-001
1.405911e+003;1.276962e-001
1.407840e+003;1.280119e-001
1.409769e+003;1.283552e-001
1.411697e+003;1.282549e-001
1.413626e+003;1.279738e-001
1.415554e+003;1.277207e-001
1.417483e+003;1.271814e-001
1.419411e+003;1.267515e-001
1.421340e+003;1.268724e-001
1.423268e+003;1.267074e-001
1.425197e+003;1.262475e-001
1.427125e+003;1.256850e-001
1.429054e+003;1.249562e-001
1.430983e+003;1.240494e-001
1.432911e+003;1.232024e-001
1.434840e+003;1.219250e-001
1.436768e+003;1.207633e-001
1.438697e+003;1.205045e-001
1.440625e+003;1.197100e-001
1.442554e+003;1.183832e-001
1.444482e+003;1.169035e-001
1.446411e+003;1.154573e-001
1.448340e+003;1.142083e-001
1.450268e+003;1.128490e-001
1.452197e+003;1.112753e-001
1.454125e+003;1.095781e-001
1.456054e+003;1.072248e-001
1.457982e+003;1.059644e-001
1.459911e+003;1.055954e-001
1.461839e+003;1.044214e-001
1.463768e+003;1.028581e-001
1.465697e+003;1.012660e-001
1.467625e+003;9.958544e-002
1.469554e+003;9.736212e-002
1.471482e+003;9.454696e-002
1.473411e+003;9.184211e-002
1.475339e+003;8.985752e-002
1.477268e+003;8.780262e-002
1.479196e+003;8.570234e-002
1.481125e+003;8.345373e-002
1.483053e+003;8.100655e-002
1.484982e+003;7.884511e-002
1.486911e+003;7.707343e-002
1.488839e+003;7.523762e-002
1.490768e+003;7.371738e-002
1.492696e+003;7.273834e-002
1.494625e+003;7.131485e-002
1.496553e+003;6.988371e-002
1.498482e+003;6.927957e-002
1.500410e+003;6.877276e-002
1.502339e+003;6.811070e-002
1.504267e+003;6.680757e-002
1.506196e+003;6.544777e-002
1.508125e+003;6.580456e-002
1.510053e+003;6.638682e-002
1.511982e+003;6.610779e-002
1.513910e+003;6.579207e-002
1.515839e+003;6.543814e-002
1.517767e+003;6.523937e-002
1.519696e+003;6.463134e-002
1.521624e+003;6.416937e-002
1.523553e+003;6.472098e-002
1.525481e+003;6.490593e-002
1.527410e+003;6.516791e-002
1.529339e+003;6.574631e-002
1.531267e+003;6.563731e-002
1.533196e+003;6.539611e-002
1.535124e+003;6.586576e-002
1.537053e+003;6.570175e-002
1.538981e+003;6.473560e-002
1.540910e+003;6.463127e-002
1.542838e+003;6.504908e-002
1.544767e+003;6.536414e-002
1.546695e+003;6.611951e-002
1.548624e+003;6.645157e-002
1.550553e+003;6.631660e-002
1.552481e+003;6.604517e-002
1.554410e+003;6.581416e-002
1.556338e+003;6.531966e-002
1.558267e+003;6.447300e-002
1.560195e+003;6.535529e-002
1.562124e+003;6.702209e-002
1.564052e+003;6.758226e-002
1.565981e+003;6.763487e-002
1.567910e+003;6.758060e-002
1.569838e+003;6.763247e-002
1.571767e+003;6.810078e-002
1.573695e+003;6.795611e-002
1.575624e+003;6.746218e-002
1.577552e+003;6.808167e-002
1.579481e+003;6.889980e-002
1.581409e+003;6.904656e-002
1.583338e+003;6.919276e-002
1.585266e+003;6.934658e-002
1.587195e+003;6.947207e-002
1.589124e+003;6.947973e-002
1.591052e+003;6.952344e-002
1.592981e+003;6.989683e-002
1.594909e+003;7.042790e-002
1.596838e+003;7.087466e-002
1.598766e+003;7.137085e-002
1.600695e+003;7.187261e-002
1.602623e+003;7.232931e-002
1.604552e+003;7.277979e-002
1.606480e+003;7.331099e-002
1.608409e+003;7.397550e-002
1.610338e+003;7.461497e-002
1.612266e+003;7.514109e-002
1.614195e+003;7.519034e-002
1.616123e+003;7.512152e-002
1.618052e+003;7.608732e-002
1.619980e+003;7.714208e-002
1.621909e+003;7.757639e-002
1.623837e+003;7.812956e-002
1.625766e+003;7.873098e-002
1.627694e+003;7.897595e-002
1.629623e+003;7.957377e-002
1.631552e+003;8.020465e-002
1.633480e+003;7.998320e-002
1.635409e+003;7.953903e-002
1.637337e+003;8.029361e-002
1.639266e+003;8.104157e-002
1.641194e+003;8.097121e-002
1.643123e+003;8.076321e-002
1.645051e+003;8.015460e-002
1.646980e+003;7.962750e-002
1.648909e+003;7.965397e-002
1.650837e+003;7.833991e-002
1.652766e+003;7.639614e-002
1.654694e+003;7.703426e-002
1.656623e+003;7.787324e-002
1.658551e+003;7.758301e-002
1.660480e+003;7.692531e-002
1.662408e+003;7.593066e-002
1.664337e+003;7.498427e-002
1.666266e+003;7.414069e-002
1.668194e+003;7.291847e-002
1.670123e+003;7.207776e-002
1.672051e+003;7.146630e-002
1.673980e+003;7.030156e-002
1.675908e+003;6.943253e-002
1.677837e+003;6.894574e-002
1.679765e+003;6.766918e-002
1.681694e+003;6.603105e-002
1.683622e+003;6.399637e-002
1.685551e+003;6.328581e-002
1.687479e+003;6.324644e-002
1.689408e+003;6.227341e-002
1.691337e+003;6.130069e-002
1.693265e+003;6.004413e-002
1.695194e+003;5.808238e-002
1.697122e+003;5.695962e-002
1.699051e+003;5.565361e-002
1.700979e+003;5.477369e-002
1.702908e+003;5.508571e-002
1.704836e+003;5.443076e-002
1.706765e+003;5.371827e-002
1.708693e+003;5.300072e-002
1.710622e+003;5.243321e-002
1.712551e+003;5.179498e-002
1.714479e+003;5.087954e-002
1.716408e+003;4.994838e-002
1.718336e+003;4.973703e-002
1.720265e+003;5.015351e-002
1.722193e+003;5.010322e-002
1.724122e+003;4.981365e-002
1.726050e+003;4.973781e-002
1.727979e+003;4.933286e-002
1.729908e+003;4.850969e-002
1.731836e+003;4.739013e-002
1.733765e+003;4.620555e-002
1.735693e+003;4.618369e-002
1.737622e+003;4.609131e-002
1.739550e+003;4.518778e-002
1.741479e+003;4.434343e-002
1.743407e+003;4.370055e-002
1.745336e+003;4.323347e-002
1.747265e+003;4.260886e-002
1.749193e+003;4.203289e-002
1.751122e+003;4.173164e-002
1.753050e+003;4.218736e-002
1.754979e+003;4.230440e-002
1.756907e+003;4.197008e-002
1.758836e+003;4.177626e-002
1.760764e+003;4.134375e-002
1.762693e+003;4.113269e-002
1.764621e+003;4.143520e-002
1.766550e+003;4.131001e-002
1.768479e+003;4.088605e-002
1.770407e+003;4.036907e-002
1.772336e+003;3.995392e-002
1.774264e+003;4.025023e-002
1.776193e+003;4.052968e-002
1.778121e+003;4.035871e-002
1.780050e+003;3.987622e-002
1.781978e+003;3.958093e-002
1.783907e+003;3.951506e-002
1.785835e+003;3.939459e-002
1.787764e+003;3.911880e-002
1.789693e+003;3.873055e-002
1.791621e+003;3.827588e-002
1.793550e+003;3.837902e-002
1.795478e+003;3.867332e-002
1.797407e+003;3.833943e-002
1.799335e+003;3.791951e-002
1.801264e+003;3.792682e-002
1.803192e+003;3.801823e-002
1.805121e+003;3.784424e-002
1.807049e+003;3.765879e-002
1.808978e+003;3.746855e-002
1.810907e+003;3.735435e-002
1.812835e+003;3.749304e-002
1.814764e+003;3.743495e-002
1.816692e+003;3.713406e-002
1.818621e+003;3.699379e-002
1.820549e+003;3.684852e-002
1.822478e+003;3.685040e-002
1.824406e+003;3.671729e-002
1.826335e+003;3.662741e-002
1.828264e+003;3.647949e-002
1.830192e+003;3.629988e-002
1.832121e+003;3.633868e-002
1.834049e+003;3.637589e-002
1.835978e+003;3.624268e-002
1.837906e+003;3.609312e-002
1.839835e+003;3.603361e-002
1.841763e+003;3.562117e-002
1.843692e+003;3.497886e-002
1.845620e+003;3.509677e-002
1.847549e+003;3.539133e-002
1.849478e+003;3.537293e-002
1.851406e+003;3.539773e-002
1.853335e+003;3.521188e-002
1.855263e+003;3.502892e-002
1.857192e+003;3.506053e-002
1.859120e+003;3.501039e-002
1.861049e+003;3.497853e-002
1.862977e+003;3.494201e-002
1.864906e+003;3.483842e-002
1.866834e+003;3.481006e-002
1.868763e+003;3.463336e-002
1.870692e+003;3.467334e-002
1.872620e+003;3.486851e-002
1.874549e+003;3.480170e-002
1.876477e+003;3.468418e-002
1.878406e+003;3.462888e-002
1.880334e+003;3.466616e-002
1.882263e+003;3.447571e-002
1.884191e+003;3.428072e-002
1.886120e+003;3.431626e-002
1.888048e+003;3.416099e-002
1.889977e+003;3.412192e-002
1.891906e+003;3.424641e-002
1.893834e+003;3.414148e-002
1.895763e+003;3.423218e-002
1.897691e+003;3.436270e-002
1.899620e+003;3.440577e-002
1.901548e+003;3.444888e-002
1.903477e+003;3.453731e-002
1.905405e+003;3.450908e-002
1.907334e+003;3.461391e-002
1.909262e+003;3.481038e-002
1.911191e+003;3.477269e-002
1.913120e+003;3.469186e-002
1.915048e+003;3.476120e-002
1.916977e+003;3.467977e-002
1.918905e+003;3.472333e-002
1.920834e+003;3.501879e-002
1.922762e+003;3.511358e-002
1.924691e+003;3.518163e-002
1.926619e+003;3.530942e-002
1.928548e+003;3.532980e-002
1.930477e+003;3.524268e-002
1.932405e+003;3.525001e-002
1.934334e+003;3.544918e-002
1.936262e+003;3.559444e-002
1.938191e+003;3.574469e-002
1.940119e+003;3.575671e-002
1.942048e+003;3.560063e-002
1.943976e+003;3.567886e-002
1.945905e+003;3.578557e-002
1.947833e+003;3.589683e-002
1.949762e+003;3.637777e-002
1.951691e+003;3.656800e-002
1.953619e+003;3.651470e-002
1.955548e+003;3.656473e-002
1.957476e+003;3.672335e-002
1.959405e+003;3.685516e-002
1.961333e+003;3.693697e-002
1.963262e+003;3.720181e-002
1.965190e+003;3.729048e-002
1.967119e+003;3.715102e-002
1.969047e+003;3.722748e-002
1.970976e+003;3.741051e-002
1.972905e+003;3.753559e-002
1.974833e+003;3.766775e-002
1.976762e+003;3.779403e-002
1.978690e+003;3.788231e-002
1.980619e+003;3.794613e-002
1.982547e+003;3.795126e-002
1.984476e+003;3.805845e-002
1.986404e+003;3.827932e-002
1.988333e+003;3.825421e-002
1.990261e+003;3.812598e-002
1.992190e+003;3.815449e-002
1.994119e+003;3.842833e-002
1.996047e+003;3.853010e-002
1.997976e+003;3.855113e-002
1.999904e+003;3.866662e-002
2.001833e+003;3.891693e-002
2.003761e+003;3.907624e-002
2.005690e+003;3.910586e-002
2.007618e+003;3.929327e-002
2.009547e+003;3.940329e-002
2.011476e+003;3.929164e-002
2.013404e+003;3.934271e-002
2.015333e+003;3.952779e-002
2.017261e+003;3.970290e-002
2.019190e+003;3.988770e-002
2.021118e+003;4.006429e-002
2.023047e+003;4.029658e-002
2.024975e+003;4.047708e-002
2.026904e+003;4.057715e-002
2.028833e+003;4.071258e-002
2.030761e+003;4.085081e-002
2.032690e+003;4.093083e-002
2.034618e+003;4.120908e-002
2.036547e+003;4.133479e-002
2.038475e+003;4.108483e-002
2.040404e+003;4.083385e-002
2.042332e+003;4.094266e-002
2.044261e+003;4.116700e-002
2.046189e+003;4.132531e-002
2.048118e+003;4.141916e-002
2.050047e+003;4.138118e-002
2.051975e+003;4.125611e-002
2.053904e+003;4.128242e-002
2.055832e+003;4.120857e-002
2.057761e+003;4.129984e-002
2.059689e+003;4.150905e-002
2.061618e+003;4.161115e-002
2.063546e+003;4.142237e-002
2.065475e+003;4.132006e-002
2.067404e+003;4.131915e-002
2.069332e+003;4.126326e-002
2.071260e+003;4.137768e-002
2.073189e+003;4.139605e-002
2.075118e+003;4.121917e-002
2.077046e+003;4.131438e-002
2.078975e+003;4.145514e-002
2.080903e+003;4.147526e-002
2.082832e+003;4.163795e-002
2.084760e+003;4.170385e-002
2.086689e+003;4.144912e-002
2.088617e+003;4.133034e-002
2.090546e+003;4.144406e-002
2.092475e+003;4.160652e-002
2.094403e+003;4.173588e-002
2.096332e+003;4.191750e-002
2.098260e+003;4.187783e-002
2.100189e+003;4.176036e-002
2.102117e+003;4.179829e-002
2.104046e+003;4.198041e-002
2.105974e+003;4.213822e-002
2.107903e+003;4.203855e-002
2.109832e+003;4.186834e-002
2.111760e+003;4.200132e-002
2.113688e+003;4.223918e-002
2.115617e+003;4.237808e-002
2.117546e+003;4.266190e-002
2.119474e+003;4.276646e-002
2.121403e+003;4.241497e-002
2.123331e+003;4.232767e-002
2.125260e+003;4.260280e-002
2.127188e+003;4.277801e-002
2.129117e+003;4.280741e-002
2.131045e+003;4.290666e-002
2.132974e+003;4.297195e-002
2.134903e+003;4.285912e-002
2.136831e+003;4.272303e-002
2.138760e+003;4.269568e-002
2.140688e+003;4.273586e-002
2.142617e+003;4.283476e-002
2.144545e+003;4.281506e-002
2.146474e+003;4.257802e-002
2.148402e+003;4.242082e-002
2.150331e+003;4.253278e-002
2.152260e+003;4.247997e-002
2.154188e+003;4.234681e-002
2.156117e+003;4.243123e-002
2.158045e+003;4.243412e-002
2.159974e+003;4.230623e-002
2.161902e+003;4.233636e-002
2.163831e+003;4.223425e-002
2.165759e+003;4.186947e-002
2.167688e+003;4.190104e-002
2.169616e+003;4.208623e-002
2.171545e+003;4.178483e-002
2.173474e+003;4.162500e-002
2.175402e+003;4.173931e-002
2.177331e+003;4.164017e-002
2.179259e+003;4.155846e-002
2.181188e+003;4.159835e-002
2.183116e+003;4.140699e-002
2.185045e+003;4.117917e-002
2.186973e+003;4.137425e-002
2.188902e+003;4.136008e-002
2.190831e+003;4.094754e-002
2.192759e+003;4.090221e-002
2.194688e+003;4.091353e-002
2.196616e+003;4.090061e-002
2.198545e+003;4.090465e-002
2.200473e+003;4.077845e-002
2.202402e+003;4.060866e-002
2.204330e+003;4.052091e-002
2.206259e+003;4.050844e-002
2.208188e+003;4.035482e-002
2.210116e+003;4.024772e-002
2.212044e+003;4.012374e-002
2.213973e+003;4.008224e-002
2.215902e+003;4.013406e-002
2.217830e+003;4.008940e-002
2.219759e+003;3.984698e-002
2.221687e+003;3.958162e-002
2.223616e+003;3.947869e-002
2.225544e+003;3.946004e-002
2.227473e+003;3.961882e-002
2.229401e+003;3.963530e-002
2.231330e+003;3.949012e-002
2.233259e+003;3.942543e-002
2.235187e+003;3.945126e-002
2.237116e+003;3.936067e-002
2.239044e+003;3.929809e-002
2.240973e+003;3.937532e-002
2.242901e+003;3.929537e-002
2.244830e+003;3.927368e-002
2.246758e+003;3.932802e-002
2.248687e+003;3.918291e-002
2.250615e+003;3.909306e-002
2.252544e+003;3.909027e-002
2.254473e+003;3.902248e-002
2.256401e+003;3.888975e-002
2.258330e+003;3.875301e-002
2.260258e+003;3.863337e-002
2.262187e+003;3.856305e-002
2.264115e+003;3.838196e-002
2.266044e+003;3.824986e-002
2.267972e+003;3.839604e-002
2.269901e+003;3.847035e-002
2.271830e+003;3.839050e-002
2.273758e+003;3.822804e-002
2.275687e+003;3.810146e-002
2.277615e+003;3.809857e-002
2.279544e+003;3.808677e-002
2.281472e+003;3.814205e-002
2.283401e+003;3.824234e-002
2.285329e+003;3.829372e-002
2.287258e+003;3.828518e-002
2.289187e+003;3.806026e-002
2.291115e+003;3.781297e-002
2.293043e+003;3.782508e-002
2.294972e+003;3.808207e-002
2.296901e+003;3.793676e-002
2.298829e+003;3.764904e-002
2.300758e+003;3.772438e-002
2.302686e+003;3.803769e-002
2.304615e+003;3.812740e-002
2.306543e+003;3.785332e-002
2.308472e+003;3.753866e-002
2.310400e+003;3.728950e-002
2.312329e+003;3.701830e-002
2.314258e+003;3.669753e-002
2.316186e+003;3.649963e-002
2.318115e+003;3.646896e-002
2.320043e+003;3.628500e-002
2.321972e+003;3.573937e-002
2.323900e+003;3.519651e-002
2.325829e+003;3.487497e-002
2.327757e+003;3.451945e-002
2.329686e+003;3.420608e-002
2.331615e+003;3.404597e-002
2.333543e+003;3.398835e-002
2.335472e+003;3.419633e-002
2.337400e+003;3.443271e-002
2.339329e+003;3.466132e-002
2.341257e+003;3.496312e-002
2.343186e+003;3.566562e-002
2.345114e+003;3.675797e-002
2.347043e+003;3.796388e-002
2.348971e+003;3.846177e-002
2.350900e+003;3.775861e-002
2.352829e+003;3.659342e-002
2.354757e+003;3.546740e-002
2.356686e+003;3.475255e-002
2.358614e+003;3.423627e-002
2.360543e+003;3.390115e-002
2.362471e+003;3.394743e-002
2.364400e+003;3.425978e-002
2.366328e+003;3.495921e-002
2.368257e+003;3.592868e-002
2.370186e+003;3.709386e-002
2.372114e+003;3.804460e-002
2.374042e+003;3.888863e-002
2.375971e+003;3.975282e-002
2.377900e+003;4.048821e-002
2.379828e+003;4.106065e-002
2.381757e+003;4.157100e-002
2.383685e+003;4.205943e-002
2.385614e+003;4.225517e-002
2.387542e+003;4.221047e-002
2.389471e+003;4.237366e-002
2.391399e+003;4.245776e-002
2.393328e+003;4.263262e-002
2.395257e+003;4.291021e-002
2.397185e+003;4.298662e-002
2.399114e+003;4.303725e-002
2.401042e+003;4.334575e-002
2.402971e+003;4.353708e-002
2.404899e+003;4.345871e-002
2.406828e+003;4.348573e-002
2.408756e+003;4.383798e-002
2.410685e+003;4.406114e-002
2.412614e+003;4.413313e-002
2.414542e+003;4.429591e-002
2.416471e+003;4.442321e-002
2.418399e+003;4.461532e-002
2.420328e+003;4.485347e-002
2.422256e+003;4.500482e-002
2.424185e+003;4.500795e-002
2.426113e+003;4.536293e-002
2.428042e+003;4.579585e-002
2.429970e+003;4.589329e-002
2.431899e+003;4.600360e-002
2.433828e+003;4.622044e-002
2.435756e+003;4.661854e-002
2.437685e+003;4.692036e-002
2.439613e+003;4.700992e-002
2.441542e+003;4.720724e-002
2.443470e+003;4.753057e-002
2.445399e+003;4.743118e-002
2.447327e+003;4.731903e-002
2.449256e+003;4.766504e-002
2.451185e+003;4.802173e-002
2.453113e+003;4.838474e-002
2.455042e+003;4.872237e-002
2.456970e+003;4.875762e-002
2.458899e+003;4.878561e-002
2.460827e+003;4.905555e-002
2.462756e+003;4.943711e-002
2.464684e+003;4.959363e-002
2.466613e+003;4.978919e-002
2.468542e+003;5.017262e-002
2.470470e+003;5.036788e-002
2.472398e+003;5.036167e-002
2.474327e+003;5.038761e-002
2.476256e+003;5.045165e-002
2.478184e+003;5.066331e-002
2.480113e+003;5.109566e-002
2.482041e+003;5.150934e-002
2.483970e+003;5.158392e-002
2.485898e+003;5.147021e-002
2.487827e+003;5.153695e-002
2.489755e+003;5.175765e-002
2.491684e+003;5.175003e-002
2.493613e+003;5.197644e-002
2.495541e+003;5.222692e-002
2.497470e+003;5.225368e-002
2.499398e+003;5.252130e-002
2.501327e+003;5.296838e-002
2.503255e+003;5.318902e-002
2.505184e+003;5.305856e-002
2.507112e+003;5.295910e-002
2.509041e+003;5.309473e-002
2.510969e+003;5.313839e-002
2.512898e+003;5.332289e-002
2.514827e+003;5.378235e-002
2.516755e+003;5.409516e-002
2.518684e+003;5.408146e-002
2.520612e+003;5.394124e-002
2.522541e+003;5.395857e-002
2.524469e+003;5.427004e-002
2.526398e+003;5.458422e-002
2.528326e+003;5.490324e-002
2.530255e+003;5.512690e-002
2.532184e+003;5.513273e-002
2.534112e+003;5.524398e-002
2.536041e+003;5.520380e-002
2.537969e+003;5.488267e-002
2.539898e+003;5.475448e-002
2.541826e+003;5.507363e-002
2.543755e+003;5.529113e-002
2.545683e+003;5.551390e-002
2.547612e+003;5.574496e-002
2.549541e+003;5.580784e-002
2.551469e+003;5.593098e-002
2.553397e+003;5.612788e-002
2.555326e+003;5.656427e-002
2.557255e+003;5.674136e-002
2.559183e+003;5.651626e-002
2.561112e+003;5.663523e-002
2.563040e+003;5.697787e-002
2.564969e+003;5.710592e-002
2.566897e+003;5.726039e-002
2.568826e+003;5.730852e-002
2.570754e+003;5.731094e-002
2.572683e+003;5.750706e-002
2.574612e+003;5.763050e-002
2.576540e+003;5.788317e-002
2.578469e+003;5.828063e-002
2.580397e+003;5.845315e-002
2.582326e+003;5.862104e-002
2.584254e+003;5.871927e-002
2.586183e+003;5.862540e-002
2.588111e+003;5.866769e-002
2.590040e+003;5.882048e-002
2.591969e+003;5.907927e-002
2.593897e+003;5.921900e-002
2.595826e+003;5.936180e-002
2.597754e+003;5.967417e-002
2.599683e+003;5.968637e-002
2.601611e+003;5.968972e-002
2.603540e+003;6.010276e-002
2.605468e+003;6.048474e-002
2.607397e+003;6.051762e-002
2.609325e+003;6.069008e-002
2.611254e+003;6.116060e-002
2.613183e+003;6.145846e-002
2.615111e+003;6.146877e-002
2.617040e+003;6.145533e-002
2.618968e+003;6.178331e-002
2.620897e+003;6.226252e-002
2.622825e+003;6.249264e-002
2.624754e+003;6.266573e-002
2.626682e+003;6.315615e-002
2.628611e+003;6.336447e-002
2.630540e+003;6.356875e-002
2.632468e+003;6.371092e-002
2.634396e+003;6.382044e-002
2.636325e+003;6.416211e-002
2.638254e+003;6.450278e-002
2.640182e+003;6.471248e-002
2.642111e+003;6.489293e-002
2.644039e+003;6.508745e-002
2.645968e+003;6.542866e-002
2.647896e+003;6.586101e-002
2.649825e+003;6.621293e-002
2.651753e+003;6.646045e-002
2.653682e+003;6.648269e-002
2.655611e+003;6.666496e-002
2.657539e+003;6.690712e-002
2.659468e+003;6.723185e-002
2.661396e+003;6.775910e-002
2.663325e+003;6.797308e-002
2.665253e+003;6.799777e-002
2.667182e+003;6.819312e-002
2.669110e+003;6.861103e-002
2.671039e+003;6.885872e-002
2.672968e+003;6.915087e-002
2.674896e+003;6.933216e-002
2.676825e+003;6.948657e-002
2.678753e+003;6.991100e-002
2.680682e+003;7.030603e-002
2.682610e+003;7.058123e-002
2.684539e+003;7.072381e-002
2.686467e+003;7.088804e-002
2.688396e+003;7.113266e-002
2.690324e+003;7.148966e-002
2.692253e+003;7.173216e-002
2.694182e+003;7.195108e-002
2.696110e+003;7.215796e-002
2.698039e+003;7.237514e-002
2.699967e+003;7.265882e-002
2.701896e+003;7.296648e-002
2.703824e+003;7.328797e-002
2.705753e+003;7.360530e-002
2.707681e+003;7.391170e-002
2.709610e+003;7.393833e-002
2.711539e+003;7.410622e-002
2.713467e+003;7.427898e-002
2.715396e+003;7.454345e-002
2.717324e+003;7.498505e-002
2.719253e+003;7.514634e-002
2.721181e+003;7.509194e-002
2.723110e+003;7.532104e-002
2.725038e+003;7.592659e-002
2.726967e+003;7.612285e-002
2.728896e+003;7.601046e-002
2.730824e+003;7.619897e-002
2.732752e+003;7.621042e-002
2.734681e+003;7.636359e-002
2.736610e+003;7.670852e-002
2.738538e+003;7.697538e-002
2.740467e+003;7.723600e-002
2.742395e+003;7.751876e-002
2.744324e+003;7.761383e-002
2.746252e+003;7.744391e-002
2.748181e+003;7.754609e-002
2.750109e+003;7.795571e-002
2.752038e+003;7.817986e-002
2.753967e+003;7.833860e-002
2.755895e+003;7.857633e-002
2.757824e+003;7.877872e-002
2.759752e+003;7.893495e-002
2.761681e+003;7.920051e-002
2.763609e+003;7.953883e-002
2.765538e+003;7.991193e-002
2.767466e+003;8.026268e-002
2.769395e+003;8.064666e-002
2.771323e+003;8.087429e-002
2.773252e+003;8.109543e-002
2.775181e+003;8.157166e-002
2.777109e+003;8.197377e-002
2.779038e+003;8.207146e-002
2.780966e+003;8.243986e-002
2.782895e+003;8.287802e-002
2.784823e+003;8.314967e-002
2.786752e+003;8.341771e-002
2.788680e+003;8.380232e-002
2.790609e+003;8.428708e-002
2.792538e+003;8.465052e-002
2.794466e+003;8.491469e-002
2.796395e+003;8.535149e-002
2.798323e+003;8.598941e-002
2.800252e+003;8.652683e-002
2.802180e+003;8.718006e-002
2.804109e+003;8.761885e-002
2.806037e+003;8.811767e-002
2.807966e+003;8.874878e-002
2.809895e+003;8.904242e-002
2.811823e+003;8.955025e-002
2.813751e+003;9.016680e-002
2.815680e+003;9.081874e-002
2.817609e+003;9.134100e-002
2.819537e+003;9.171301e-002
2.821466e+003;9.226307e-002
2.823394e+003;9.299257e-002
2.825323e+003;9.344283e-002
2.827251e+003;9.394929e-002
2.829180e+003;9.477691e-002
2.831108e+003;9.567372e-002
2.833037e+003;9.657867e-002
2.834966e+003;9.770683e-002
2.836894e+003;9.875564e-002
2.838823e+003;9.959590e-002
2.840751e+003;1.006704e-001
2.842680e+003;1.020297e-001
2.844608e+003;1.033565e-001
2.846537e+003;1.049415e-001
2.848465e+003;1.066309e-001
2.850394e+003;1.077391e-001
2.852323e+003;1.085666e-001
2.854251e+003;1.095444e-001
2.856180e+003;1.106753e-001
2.858108e+003;1.120268e-001
2.860037e+003;1.135182e-001
2.861965e+003;1.153922e-001
2.863894e+003;1.171795e-001
2.865822e+003;1.184380e-001
2.867751e+003;1.195923e-001
2.869679e+003;1.207201e-001
2.871608e+003;1.220049e-001
2.873536e+003;1.231911e-001
2.875465e+003;1.243062e-001
2.877394e+003;1.251999e-001
2.879322e+003;1.260448e-001
2.881251e+003;1.266934e-001
2.883179e+003;1.271392e-001
2.885108e+003;1.277420e-001
2.887036e+003;1.279356e-001
2.888965e+003;1.277671e-001
2.890893e+003;1.275964e-001
2.892822e+003;1.278281e-001
2.894750e+003;1.282055e-001
2.896679e+003;1.280124e-001
2.898608e+003;1.274354e-001
2.900536e+003;1.267335e-001
2.902465e+003;1.261463e-001
2.904393e+003;1.257558e-001
2.906322e+003;1.252695e-001
2.908250e+003;1.246018e-001
2.910179e+003;1.241385e-001
2.912107e+003;1.237372e-001
2.914036e+003;1.232453e-001
2.915965e+003;1.229075e-001
2.917893e+003;1.218960e-001
2.919822e+003;1.205333e-001
2.921750e+003;1.192222e-001
2.923679e+003;1.176057e-001
2.925607e+003;1.162680e-001
2.927536e+003;1.150064e-001
2.929464e+003;1.136499e-001
2.931393e+003;1.125455e-001
2.933322e+003;1.115215e-001
2.935250e+003;1.102803e-001
2.937178e+003;1.091146e-001
2.939107e+003;1.079291e-001
2.941036e+003;1.066813e-001
2.942964e+003;1.055532e-001
2.944893e+003;1.042062e-001
2.946821e+003;1.027236e-001
2.948750e+003;1.014066e-001
2.950678e+003;9.990583e-002
2.952607e+003;9.828883e-002
2.954535e+003;9.695922e-002
2.956464e+003;9.564122e-002
2.958393e+003;9.436084e-002
2.960321e+003;9.345227e-002
2.962250e+003;9.258362e-002
2.964178e+003;9.180956e-002
2.966107e+003;9.137367e-002
2.968035e+003;9.075239e-002
2.969964e+003;9.014845e-002
2.971892e+003;8.931153e-002
2.973821e+003;8.823466e-002
2.975750e+003;8.766158e-002
2.977678e+003;8.731494e-002
2.979607e+003;8.671645e-002
2.981535e+003;8.614178e-002
2.983464e+003;8.559506e-002
2.985392e+003;8.524092e-002
2.987321e+003;8.496094e-002
2.989249e+003;8.463220e-002
2.991178e+003;8.405577e-002
2.993106e+003;8.346842e-002
2.995035e+003;8.332140e-002
2.996964e+003;8.325569e-002
2.998892e+003;8.300472e-002
3.000821e+003;8.297014e-002
3.002749e+003;8.308186e-002
3.004678e+003;8.319842e-002
3.006606e+003;8.356910e-002
3.008535e+003;8.388937e-002
3.010463e+003;8.383198e-002
3.012392e+003;8.389400e-002
3.014321e+003;8.442256e-002
3.016249e+003;8.506721e-002
3.018177e+003;8.511417e-002
3.020106e+003;8.498500e-002
3.022035e+003;8.530257e-002
3.023963e+003;8.592499e-002
3.025892e+003;8.641297e-002
3.027820e+003;8.667034e-002
3.029749e+003;8.698460e-002
3.031677e+003;8.751038e-002
3.033606e+003;8.823550e-002
3.035534e+003;8.903249e-002
3.037463e+003;8.958417e-002
3.039392e+003;8.994583e-002
3.041320e+003;9.033126e-002
3.043249e+003;9.091849e-002
3.045177e+003;9.124684e-002
3.047106e+003;9.151989e-002
3.049034e+003;9.192850e-002
3.050963e+003;9.261762e-002
3.052891e+003;9.331626e-002
3.054820e+003;9.410781e-002
3.056749e+003;9.457641e-002
3.058677e+003;9.469354e-002
3.060606e+003;9.502114e-002
3.062534e+003;9.582140e-002
3.064463e+003;9.661353e-002
3.066391e+003;9.716783e-002
3.068320e+003;9.765472e-002
3.070248e+003;9.827795e-002
3.072177e+003;9.896138e-002
3.074105e+003;9.974575e-002
3.076034e+003;1.004796e-001
3.077963e+003;1.010358e-001
3.079891e+003;1.014888e-001
3.081820e+003;1.020546e-001
3.083748e+003;1.028151e-001
3.085677e+003;1.034606e-001
3.087605e+003;1.043490e-001
3.089534e+003;1.052782e-001
3.091462e+003;1.059935e-001
3.093391e+003;1.063480e-001
3.095320e+003;1.065228e-001
3.097248e+003;1.069326e-001
3.099177e+003;1.075540e-001
3.101105e+003;1.085154e-001
3.103034e+003;1.094120e-001
3.104962e+003;1.100706e-001
3.106891e+003;1.106551e-001
3.108819e+003;1.114432e-001
3.110748e+003;1.122167e-001
3.112677e+003;1.125216e-001
3.114605e+003;1.128237e-001
3.116533e+003;1.139551e-001
3.118462e+003;1.151126e-001
3.120391e+003;1.158107e-001
3.122319e+003;1.162852e-001
3.124248e+003;1.169667e-001
3.126176e+003;1.178722e-001
3.128105e+003;1.186684e-001
3.130033e+003;1.193094e-001
3.131962e+003;1.198409e-001
3.133890e+003;1.205389e-001
3.135819e+003;1.216173e-001
3.137748e+003;1.227506e-001
3.139676e+003;1.235191e-001
3.141605e+003;1.240454e-001
3.143533e+003;1.243953e-001
3.145462e+003;1.249238e-001
3.147390e+003;1.256452e-001
3.149319e+003;1.267279e-001
3.151247e+003;1.276147e-001
3.153176e+003;1.280089e-001
3.155104e+003;1.285827e-001
3.157033e+003;1.295083e-001
3.158962e+003;1.307295e-001
3.160890e+003;1.314138e-001
3.162819e+003;1.317658e-001
3.164747e+003;1.322956e-001
3.166676e+003;1.329583e-001
3.168604e+003;1.339241e-001
3.170533e+003;1.348662e-001
3.172461e+003;1.357793e-001
3.174390e+003;1.362815e-001
3.176319e+003;1.366882e-001
3.178247e+003;1.372777e-001
3.180176e+003;1.380853e-001
3.182104e+003;1.389976e-001
3.184033e+003;1.398932e-001
3.185961e+003;1.408303e-001
3.187890e+003;1.415838e-001
3.189818e+003;1.420161e-001
3.191747e+003;1.425131e-001
3.193676e+003;1.430960e-001
3.195604e+003;1.437626e-001
3.197532e+003;1.444867e-001
3.199461e+003;1.453149e-001
3.201390e+003;1.459272e-001
3.203318e+003;1.465750e-001
3.205247e+003;1.473542e-001
3.207175e+003;1.483700e-001
3.209104e+003;1.492393e-001
3.211032e+003;1.496048e-001
3.212961e+003;1.503472e-001
3.214889e+003;1.510660e-001
3.216818e+003;1.515249e-001
3.218747e+003;1.524018e-001
3.220675e+003;1.532353e-001
3.222604e+003;1.534725e-001
3.224532e+003;1.537701e-001
3.226461e+003;1.544753e-001
3.228389e+003;1.553858e-001
3.230318e+003;1.561300e-001
3.232246e+003;1.565411e-001
3.234175e+003;1.574209e-001
3.236104e+003;1.585770e-001
3.238032e+003;1.589372e-001
3.239961e+003;1.591557e-001
3.241889e+003;1.597614e-001
3.243818e+003;1.605165e-001
3.245746e+003;1.611726e-001
3.247675e+003;1.618273e-001
3.249603e+003;1.625898e-001
3.251532e+003;1.630291e-001
3.253460e+003;1.635675e-001
3.255389e+003;1.637362e-001
3.257318e+003;1.637434e-001
3.259246e+003;1.646505e-001
3.261175e+003;1.655610e-001
3.263103e+003;1.658632e-001
3.265032e+003;1.663637e-001
3.266960e+003;1.669750e-001
3.268889e+003;1.673405e-001
3.270817e+003;1.678803e-001
3.272746e+003;1.685950e-001
3.274675e+003;1.689348e-001
3.276603e+003;1.692159e-001
3.278531e+003;1.693822e-001
3.280460e+003;1.696162e-001
3.282389e+003;1.700200e-001
3.284317e+003;1.704469e-001
3.286246e+003;1.709964e-001
3.288174e+003;1.714531e-001
3.290103e+003;1.717277e-001
3.292031e+003;1.714918e-001
3.293960e+003;1.714358e-001
3.295888e+003;1.722321e-001
3.297817e+003;1.729339e-001
3.299746e+003;1.732193e-001
3.301674e+003;1.735708e-001
3.303603e+003;1.739841e-001
3.305531e+003;1.741832e-001
3.307460e+003;1.741933e-001
3.309388e+003;1.744795e-001
3.311317e+003;1.754043e-001
3.313245e+003;1.760704e-001
3.315174e+003;1.755881e-001
3.317103e+003;1.752274e-001
3.319031e+003;1.754296e-001
3.320960e+003;1.756265e-001
3.322888e+003;1.756309e-001
3.324817e+003;1.756226e-001
3.326745e+003;1.762974e-001
3.328674e+003;1.770829e-001
3.330602e+003;1.769671e-001
3.332531e+003;1.767348e-001
3.334459e+003;1.764592e-001
3.336388e+003;1.763263e-001
3.338317e+003;1.765537e-001
3.340245e+003;1.764831e-001
3.342174e+003;1.764617e-001
3.344102e+003;1.764851e-001
3.346031e+003;1.765466e-001
3.347959e+003;1.762752e-001
3.349888e+003;1.757523e-001
3.351816e+003;1.751994e-001
3.353745e+003;1.753428e-001
3.355674e+003;1.759115e-001
3.357602e+003;1.764412e-001
3.359531e+003;1.762899e-001
3.361459e+003;1.757317e-001
3.363388e+003;1.752574e-001
3.365316e+003;1.746580e-001
3.367245e+003;1.744286e-001
3.369173e+003;1.743339e-001
3.371102e+003;1.742459e-001
3.373031e+003;1.740664e-001
3.374959e+003;1.740050e-001
3.376887e+003;1.734812e-001
3.378816e+003;1.726143e-001
3.380745e+003;1.724639e-001
3.382673e+003;1.724703e-001
3.384602e+003;1.721882e-001
3.386530e+003;1.717361e-001
3.388459e+003;1.710326e-001
3.390387e+003;1.705871e-001
3.392316e+003;1.708807e-001
3.394244e+003;1.707979e-001
3.396173e+003;1.700213e-001
3.398102e+003;1.694009e-001
3.400030e+003;1.688987e-001
3.401959e+003;1.680979e-001
3.403887e+003;1.675828e-001
3.405816e+003;1.671173e-001
3.407744e+003;1.663763e-001
3.409673e+003;1.664648e-001
3.411601e+003;1.665255e-001
3.413530e+003;1.656341e-001
3.415458e+003;1.646010e-001
3.417387e+003;1.637454e-001
3.419316e+003;1.629635e-001
3.421244e+003;1.620218e-001
3.423173e+003;1.612590e-001
3.425101e+003;1.611883e-001
3.427030e+003;1.612004e-001
3.428958e+003;1.607303e-001
3.430887e+003;1.599192e-001
3.432815e+003;1.592490e-001
3.434744e+003;1.586538e-001
3.436673e+003;1.579829e-001
3.438601e+003;1.571627e-001
3.440530e+003;1.559789e-001
3.442458e+003;1.544797e-001
3.444387e+003;1.531985e-001
3.446315e+003;1.524513e-001
3.448244e+003;1.521190e-001
3.450172e+003;1.506113e-001
3.452101e+003;1.485432e-001
3.454030e+003;1.472832e-001
3.455958e+003;1.459287e-001
3.457886e+003;1.447060e-001
3.459815e+003;1.434862e-001
3.461744e+003;1.421716e-001
3.463672e+003;1.411526e-001
3.465601e+003;1.401078e-001
3.467529e+003;1.391055e-001
3.469458e+003;1.376368e-001
3.471386e+003;1.359100e-001
3.473315e+003;1.347989e-001
3.475243e+003;1.340021e-001
3.477172e+003;1.329260e-001
3.479101e+003;1.313295e-001
3.481029e+003;1.298675e-001
3.482958e+003;1.288397e-001
3.484886e+003;1.276838e-001
3.486815e+003;1.265087e-001
3.488743e+003;1.252362e-001
3.490672e+003;1.239015e-001
3.492600e+003;1.222881e-001
3.494529e+003;1.204622e-001
3.496458e+003;1.189347e-001
3.498386e+003;1.174574e-001
3.500315e+003;1.158861e-001
3.502243e+003;1.144826e-001
3.504172e+003;1.127848e-001
3.506100e+003;1.114854e-001
3.508029e+003;1.100162e-001
3.509957e+003;1.080643e-001
3.511886e+003;1.066563e-001
3.513814e+003;1.054156e-001
3.515743e+003;1.038924e-001
3.517672e+003;1.023827e-001
3.519600e+003;1.010090e-001
3.521529e+003;9.969656e-002
3.523457e+003;9.818070e-002
3.525386e+003;9.711590e-002
3.527314e+003;9.610572e-002
3.529243e+003;9.443851e-002
3.531171e+003;9.278468e-002
3.533100e+003;9.200507e-002
3.535029e+003;9.130069e-002
3.536957e+003;8.999226e-002
3.538885e+003;8.876987e-002
3.540814e+003;8.756331e-002
3.542743e+003;8.639321e-002
3.544671e+003;8.501454e-002
3.546600e+003;8.354750e-002
3.548528e+003;8.277533e-002
3.550457e+003;8.197061e-002
3.552385e+003;8.047487e-002
3.554314e+003;7.905843e-002
3.556242e+003;7.802946e-002
3.558171e+003;7.709768e-002
3.560100e+003;7.572774e-002
3.562028e+003;7.460164e-002
3.563957e+003;7.357374e-002
3.565885e+003;7.222369e-002
3.567814e+003;7.134340e-002
3.569742e+003;7.079693e-002
3.571671e+003;7.028940e-002
3.573599e+003;6.953795e-002
3.575528e+003;6.855267e-002
3.577457e+003;6.758365e-002
3.579385e+003;6.648269e-002
3.581314e+003;6.556701e-002
3.583242e+003;6.462723e-002
3.585171e+003;6.332230e-002
3.587099e+003;6.235572e-002
3.589028e+003;6.170191e-002
3.590956e+003;6.095150e-002
3.592885e+003;5.999958e-002
3.594813e+003;5.904044e-002
3.596742e+003;5.826949e-002
3.598671e+003;5.761056e-002
3.600599e+003;5.680042e-002
3.602528e+003;5.625783e-002
3.604456e+003;5.520553e-002
3.606385e+003;5.372209e-002
3.608313e+003;5.289266e-002
3.610242e+003;5.233564e-002
3.612170e+003;5.147599e-002
3.614099e+003;5.084319e-002
3.616028e+003;5.039799e-002
3.617956e+003;4.929522e-002
3.619885e+003;4.822994e-002
3.621813e+003;4.787742e-002
3.623742e+003;4.731770e-002
3.625670e+003;4.619737e-002
3.627599e+003;4.456758e-002
3.629527e+003;4.376475e-002
3.631456e+003;4.353320e-002
3.633385e+003;4.308343e-002
3.635313e+003;4.244358e-002
3.637241e+003;4.185681e-002
3.639170e+003;4.109557e-002
3.641099e+003;4.000223e-002
3.643027e+003;3.908617e-002
3.644956e+003;3.810718e-002
3.646884e+003;3.700946e-002
3.648813e+003;3.576243e-002
3.650741e+003;3.473349e-002
3.652670e+003;3.462034e-002
3.654598e+003;3.427825e-002
3.656527e+003;3.338967e-002
3.658456e+003;3.304826e-002
3.660384e+003;3.262564e-002
3.662313e+003;3.189452e-002
3.664241e+003;3.128909e-002
3.666170e+003;3.034750e-002
3.668098e+003;2.885342e-002
3.670027e+003;2.777062e-002
3.671955e+003;2.787515e-002
3.673884e+003;2.756792e-002
3.675813e+003;2.658926e-002
3.677741e+003;2.669312e-002
3.679669e+003;2.680028e-002
3.681598e+003;2.657837e-002
3.683527e+003;2.596645e-002
3.685455e+003;2.509044e-002
3.687384e+003;2.401858e-002
3.689312e+003;2.355306e-002
3.691241e+003;2.359234e-002
3.693169e+003;2.381875e-002
3.695098e+003;2.361316e-002
3.697026e+003;2.334588e-002
3.698955e+003;2.292009e-002
3.700884e+003;2.230901e-002
3.702812e+003;2.256455e-002
3.704741e+003;2.298793e-002
3.706669e+003;2.257708e-002
3.708598e+003;2.203030e-002
3.710526e+003;2.143529e-002
3.712455e+003;2.136376e-002
3.714383e+003;2.169464e-002
3.716312e+003;2.194738e-002
3.718240e+003;2.171686e-002
3.720169e+003;2.098129e-002
3.722098e+003;2.054054e-002
3.724026e+003;2.037098e-002
3.725955e+003;2.035858e-002
3.727883e+003;2.086971e-002
3.729812e+003;2.072105e-002
3.731740e+003;2.016080e-002
3.733669e+003;2.017326e-002
3.735597e+003;1.993283e-002
3.737526e+003;2.021884e-002
3.739455e+003;2.030435e-002
3.741383e+003;1.978885e-002
3.743312e+003;1.861542e-002
3.745240e+003;1.864942e-002
3.747169e+003;1.941795e-002
3.749097e+003;1.918164e-002
3.751026e+003;1.886357e-002
3.752954e+003;1.894438e-002
3.754883e+003;1.938105e-002
3.756812e+003;1.956232e-002
3.758740e+003;1.992336e-002
3.760668e+003;2.029390e-002
3.762597e+003;2.008275e-002
3.764526e+003;1.964943e-002
3.766454e+003;1.957570e-002
3.768383e+003;1.910251e-002
3.770311e+003;1.907295e-002
3.772240e+003;1.983886e-002
3.774168e+003;2.043088e-002
3.776097e+003;2.026459e-002
3.778025e+003;1.979503e-002
3.779954e+003;1.958378e-002
3.781883e+003;1.948167e-002
3.783811e+003;1.925170e-002
3.785740e+003;1.939480e-002
3.787668e+003;1.954284e-002
3.789597e+003;1.974266e-002
3.791525e+003;1.987878e-002
3.793454e+003;1.968410e-002
3.795382e+003;1.914220e-002
3.797311e+003;1.929773e-002
3.799240e+003;1.939387e-002
3.801168e+003;1.924522e-002
3.803097e+003;1.997883e-002
3.805025e+003;1.997168e-002
3.806954e+003;1.915463e-002
3.808882e+003;1.937634e-002
3.810811e+003;1.977970e-002
3.812739e+003;1.953390e-002
3.814668e+003;1.851309e-002
3.816596e+003;1.860449e-002
3.818525e+003;1.942762e-002
3.820454e+003;1.933054e-002
3.822382e+003;1.928000e-002
3.824311e+003;1.945090e-002
3.826239e+003;1.996561e-002
3.828168e+003;2.049323e-002
3.830096e+003;2.022453e-002
3.832025e+003;2.011145e-002
3.833953e+003;1.976198e-002
3.835882e+003;1.920934e-002
3.837811e+003;1.959771e-002
3.839739e+003;2.036428e-002
3.841667e+003;2.061277e-002
3.843596e+003;2.075559e-002
3.845525e+003;2.061499e-002
3.847453e+003;2.017830e-002
3.849382e+003;1.945575e-002
3.851310e+003;1.862279e-002
3.853239e+003;1.826345e-002
3.855167e+003;1.939851e-002
3.857096e+003;2.052598e-002
3.859024e+003;2.103999e-002
3.860953e+003;2.104827e-002
3.862882e+003;2.049028e-002
3.864810e+003;2.044540e-002
3.866739e+003;2.115589e-002
3.868667e+003;2.050566e-002
3.870596e+003;2.034567e-002
3.872524e+003;2.068188e-002
3.874453e+003;2.063372e-002
3.876381e+003;2.135840e-002
3.878310e+003;2.155582e-002
3.880239e+003;2.134225e-002
3.882167e+003;2.163034e-002
3.884096e+003;2.126823e-002
3.886024e+003;2.111453e-002
3.887953e+003;2.191817e-002
3.889881e+003;2.195978e-002
3.891810e+003;2.180385e-002
3.893738e+003;2.153549e-002
3.895667e+003;2.183872e-002
3.897595e+003;2.217526e-002
3.899524e+003;2.185343e-002
3.901453e+003;2.157240e-002
3.903381e+003;2.175633e-002
3.905310e+003;2.224051e-002
3.907238e+003;2.277044e-002
3.909167e+003;2.313447e-002
3.911095e+003;2.310463e-002
3.913024e+003;2.337462e-002
3.914952e+003;2.374052e-002
3.916881e+003;2.368548e-002
3.918810e+003;2.388512e-002
3.920738e+003;2.371382e-002
3.922667e+003;2.344099e-002
3.924595e+003;2.379033e-002
3.926524e+003;2.440644e-002
3.928452e+003;2.458706e-002
3.930381e+003;2.464611e-002
3.932309e+003;2.487864e-002
3.934238e+003;2.484373e-002
3.936167e+003;2.471281e-002
3.938095e+003;2.487306e-002
3.940023e+003;2.518556e-002
3.941952e+003;2.518699e-002
3.943881e+003;2.506194e-002
3.945809e+003;2.499996e-002
3.947738e+003;2.551725e-002
3.949666e+003;2.582081e-002
3.951595e+003;2.561442e-002
3.953523e+003;2.578942e-002
3.955452e+003;2.592541e-002
3.957380e+003;2.563044e-002
3.959309e+003;2.523956e-002
3.961238e+003;2.510645e-002
3.963166e+003;2.507739e-002
3.965095e+003;2.541082e-002
3.967023e+003;2.579205e-002
3.968952e+003;2.622018e-002
3.970880e+003;2.616091e-002
3.972809e+003;2.587019e-002
3.974737e+003;2.579719e-002
3.976666e+003;2.610714e-002
3.978594e+003;2.620328e-002
3.980523e+003;2.613350e-002
3.982452e+003;2.601021e-002
3.984380e+003;2.575833e-002
3.986309e+003;2.594345e-002
3.988237e+003;2.616098e-002
3.990166e+003;2.610042e-002
3.992094e+003;2.621180e-002
3.994023e+003;2.603104e-002
3.995951e+003;2.597018e-002
3.997880e+003;2.619406e-002
3.999809e+003;2.611453e-002
4.001737e+003;0.000000e+000
