3.992094e+002;0.000000e+000
4.011380e+002;0.000000e+000
4.030665e+002;0.000000e+000
4.049951e+002;0.000000e+000
4.069236e+002;0.000000e+000
4.088522e+002;0.000000e+000
4.107807e+002;0.000000e+000
4.127093e+002;0.000000e+000
4.146378e+002;0.000000e+000
4.165664e+002;0.000000e+000
4.184949e+002;0.000000e+000
4.204235e+002;0.000000e+000
4.223520e+002;0.000000e+000
4.242806e+002;0.000000e+000
4.262091e+002;0.000000e+000
4.281377e+002;0.000000e+000
4.300662e+002;0.000000e+000
4.319948e+002;0.000000e+000
4.339233e+002;0.000000e+000
4.358519e+002;0.000000e+000
4.377804e+002;0.000000e+000
4.397090e+002;0.000000e+000
4.416375e+002;0.000000e+000
4.435660e+002;0.000000e+000
4.454946e+002;0.000000e+000
4.474232e+002;0.000000e+000
4.493517e+002;0.000000e+000
4.512802e+002;0.000000e+000
4.532088e+002;0.000000e+000
4.551373e+002;0.000000e+000
4.570659e+002;0.000000e+000
4.589944e+002;0.000000e+000
4.609230e+002;0.000000e+000
4.628515e+002;0.000000e+000
4.647801e+002;0.000000e+000
4.667086e+002;0.000000e+000
4.686372e+002;0.000000e+000
4.705657e+002;0.000000e+000
4.724943e+002;0.000000e+000
4.744228e+002;0.000000e+000
4.763513e+002;0.000000e+000
4.782799e+002;0.000000e+000
4.802085e+002;0.000000e+000
4.821370e+002;0.000000e+000
4.840656e+002;0.000000e+000
4.859941e+002;0.000000e+000
4.879226e+002;0.000000e+000
4.898512e+002;0.000000e+000
4.917798e+002;0.000000e+000
4.937083e+002;0.000000e+000
4.956368e+002;0.000000e+000
4.975654e+002;0.000000e+000
4.994939e+002;0.000000e+000
5.014225e+002;0.000000e+000
5.033510e+002;0.000000e+000
5.052796e+002;0.000000e+000
5.072081e+002;0.000000e+000
5.091367e+002;0.000000e+000
5.110652e+002;0.000000e+000
5.129938e+002;0.000000e+000
5.149223e+002;0.000000e+000
5.168509e+002;0.000000e+000
5.187794e+002;0.000000e+000
5.207079e+002;0.000000e+000
5.226365e+002;0.000000e+000
5.245651e+002;0.000000e+000
5.264936e+002;0.000000e+000
5.284222e+002;0.000000e+000
5.303507e+002;0.000000e+000
5.322792e+002;0.000000e+000
5.342078e+002;0.000000e+000
5.361364e+002;0.000000e+000
5.380649e+002;0.000000e+000
5.399935e+002;0.000000e+000
5.419220e+002;0.000000e+000
5.438505e+002;0.000000e+000
5.457791e+002;0.000000e+000
5.477076e+002;0.000000e+000
5.496362e+002;0.000000e+000
5.515648e+002;0.000000e+000
5.534933e+002;0.000000e+000
5.554218e+002;0.000000e+000
5.573504e+002;0.000000e+000
5.592789e+002;0.000000e+000
5.612075e+002;0.000000e+000
5.631360e+002;0.000000e+000
5.650646e+002;0.000000e+000
5.669931e+002;0.000000e+000
5.689217e+002;0.000000e+000
5.708502e+002;0.000000e+000
5.727787e+002;0.000000e+000
5.747073e+002;0.000000e+000
5.766359e+002;0.000000e+000
5.785644e+002;0.000000e+000
5.804930e+002;0.000000e+000
5.824215e+002;0.000000e+000
5.843500e+002;0.000000e+000
5.862786e+002;0.000000e+000
5.882072e+002;0.000000e+000
5.901357e+002;0.000000e+000
5.920643e+002;0.000000e+000
5.939928e+002;0.000000e+000
5.959213e+002;0.000000e+000
5.978499e+002;0.000000e+000
5.997784e+002;2.047150e-001
6.017070e+002;2.005322e-001
6.036355e+002;2.068884e-001
6.055641e+002;2.097100e-001
6.074926e+002;2.074772e-001
6.094211e+002;2.050065e-001
6.113497e+002;2.020300e-001
6.132783e+002;2.010645e-001
6.152068e+002;2.013014e-001
6.171354e+002;2.007902e-001
6.190639e+002;1.995070e-001
6.209924e+002;1.998941e-001
6.229210e+002;2.010916e-001
6.248495e+002;2.000449e-001
6.267781e+002;1.949494e-001
6.287067e+002;1.921298e-001
6.306352e+002;1.893384e-001
6.325637e+002;1.850062e-001
6.344923e+002;1.839810e-001
6.364208e+002;1.830120e-001
6.383494e+002;1.826717e-001
6.402780e+002;1.871332e-001
6.422065e+002;1.881389e-001
6.441350e+002;1.839677e-001
6.460636e+002;1.806258e-001
6.479921e+002;1.813451e-001
6.499207e+002;1.834129e-001
6.518492e+002;1.835219e-001
6.537778e+002;1.829493e-001
6.557063e+002;1.846459e-001
6.576349e+002;1.903869e-001
6.595634e+002;1.898405e-001
6.614919e+002;1.848964e-001
6.634205e+002;1.861995e-001
6.653491e+002;1.881318e-001
6.672776e+002;1.879553e-001
6.692062e+002;1.869418e-001
6.711347e+002;1.862229e-001
6.730632e+002;1.848163e-001
6.749918e+002;1.782670e-001
6.769203e+002;1.691524e-001
6.788489e+002;1.612052e-001
6.807775e+002;1.588380e-001
6.827060e+002;1.568752e-001
6.846345e+002;1.531199e-001
6.865631e+002;1.506301e-001
6.884916e+002;1.494844e-001
6.904202e+002;1.496620e-001
6.923488e+002;1.494419e-001
6.942773e+002;1.483350e-001
6.962058e+002;1.470867e-001
6.981344e+002;1.461421e-001
7.000629e+002;1.449575e-001
7.019915e+002;1.442691e-001
7.039200e+002;1.439448e-001
7.058486e+002;1.432652e-001
7.077771e+002;1.427328e-001
7.097057e+002;1.427631e-001
7.116342e+002;1.413932e-001
7.135627e+002;1.404644e-001
7.154913e+002;1.384848e-001
7.174199e+002;1.368142e-001
7.193484e+002;1.369212e-001
7.212770e+002;1.371561e-001
7.232055e+002;1.371886e-001
7.251340e+002;1.356500e-001
7.270626e+002;1.337574e-001
7.289911e+002;1.327079e-001
7.309197e+002;1.303475e-001
7.328483e+002;1.283891e-001
7.347768e+002;1.273425e-001
7.367053e+002;1.258739e-001
7.386339e+002;1.247213e-001
7.405624e+002;1.223033e-001
7.424910e+002;1.210108e-001
7.444196e+002;1.215310e-001
7.463481e+002;1.222784e-001
7.482766e+002;1.210629e-001
7.502052e+002;1.198267e-001
7.521337e+002;1.185360e-001
7.540623e+002;1.171491e-001
7.559908e+002;1.167681e-001
7.579194e+002;1.154915e-001
7.598479e+002;1.138967e-001
7.617765e+002;1.138429e-001
7.637050e+002;1.132522e-001
7.656335e+002;1.125548e-001
7.675621e+002;1.125989e-001
7.694907e+002;1.122452e-001
7.714192e+002;1.114577e-001
7.733478e+002;1.102169e-001
7.752763e+002;1.086702e-001
7.772048e+002;1.074084e-001
7.791334e+002;1.070984e-001
7.810620e+002;1.073923e-001
7.829905e+002;1.071118e-001
7.849191e+002;1.060679e-001
7.868476e+002;1.051636e-001
7.887761e+002;1.049980e-001
7.907047e+002;1.041215e-001
7.926332e+002;1.028528e-001
7.945618e+002;1.021713e-001
7.964903e+002;1.029429e-001
7.984189e+002;1.031489e-001
8.003474e+002;1.024971e-001
8.022759e+002;1.025407e-001
8.042045e+002;1.027697e-001
8.061331e+002;1.019029e-001
8.080616e+002;1.011646e-001
8.099902e+002;1.017937e-001
8.119187e+002;1.021947e-001
8.138472e+002;1.016161e-001
8.157758e+002;1.012087e-001
8.177043e+002;1.013509e-001
8.196329e+002;1.007279e-001
8.215615e+002;1.003795e-001
8.234900e+002;1.007041e-001
8.254185e+002;1.003549e-001
8.273471e+002;9.969743e-002
8.292756e+002;9.947310e-002
8.312042e+002;1.004436e-001
8.331328e+002;1.007335e-001
8.350613e+002;9.990307e-002
8.369898e+002;9.882852e-002
8.389184e+002;9.802562e-002
8.408469e+002;9.811199e-002
8.427755e+002;9.781170e-002
8.447040e+002;9.766061e-002
8.466326e+002;9.833533e-002
8.485611e+002;9.914560e-002
8.504897e+002;9.877927e-002
8.524182e+002;9.854660e-002
8.543467e+002;9.868552e-002
8.562753e+002;9.917107e-002
8.582039e+002;1.005365e-001
8.601324e+002;1.018129e-001
8.620610e+002;1.027480e-001
8.639895e+002;1.033598e-001
8.659180e+002;1.046141e-001
8.678466e+002;1.064692e-001
8.697751e+002;1.077781e-001
8.717037e+002;1.094255e-001
8.736323e+002;1.122820e-001
8.755608e+002;1.158116e-001
8.774893e+002;1.196771e-001
8.794179e+002;1.230826e-001
8.813464e+002;1.265551e-001
8.832750e+002;1.302585e-001
8.852036e+002;1.346633e-001
8.871321e+002;1.391915e-001
8.890606e+002;1.429540e-001
8.909892e+002;1.461106e-001
8.929177e+002;1.485667e-001
8.948463e+002;1.494386e-001
8.967748e+002;1.483303e-001
8.987034e+002;1.461628e-001
9.006319e+002;1.438774e-001
9.025605e+002;1.415318e-001
9.044890e+002;1.386303e-001
9.064175e+002;1.355888e-001
9.083461e+002;1.329628e-001
9.102747e+002;1.311852e-001
9.122032e+002;1.296041e-001
9.141318e+002;1.286057e-001
9.160603e+002;1.284076e-001
9.179888e+002;1.289812e-001
9.199174e+002;1.297604e-001
9.218459e+002;1.304886e-001
9.237745e+002;1.316087e-001
9.257031e+002;1.331476e-001
9.276316e+002;1.344743e-001
9.295601e+002;1.363657e-001
9.314887e+002;1.375130e-001
9.334172e+002;1.384037e-001
9.353458e+002;1.402956e-001
9.372744e+002;1.422864e-001
9.392029e+002;1.436894e-001
9.411314e+002;1.456820e-001
9.430600e+002;1.489192e-001
9.449885e+002;1.523651e-001
9.469171e+002;1.552367e-001
9.488456e+002;1.586970e-001
9.507742e+002;1.624500e-001
9.527027e+002;1.663731e-001
9.546313e+002;1.704905e-001
9.565598e+002;1.751430e-001
9.584883e+002;1.798667e-001
9.604169e+002;1.841889e-001
9.623455e+002;1.882353e-001
9.642740e+002;1.925699e-001
9.662026e+002;1.970372e-001
9.681311e+002;2.019789e-001
9.700596e+002;2.072310e-001
9.719882e+002;2.132025e-001
9.739167e+002;2.198846e-001
9.758453e+002;2.270013e-001
9.777739e+002;2.354491e-001
9.797024e+002;2.453955e-001
9.816309e+002;2.554694e-001
9.835595e+002;2.661094e-001
9.854880e+002;2.767491e-001
9.874166e+002;2.868126e-001
9.893452e+002;2.954350e-001
9.912737e+002;3.020860e-001
9.932022e+002;3.066218e-001
9.951307e+002;3.097149e-001
9.970593e+002;3.114851e-001
9.989879e+002;3.127081e-001
1.000916e+003;3.142511e-001
1.002845e+003;3.169908e-001
1.004773e+003;3.199476e-001
1.006702e+003;3.235864e-001
1.008631e+003;3.285969e-001
1.010559e+003;3.340887e-001
1.012488e+003;3.393147e-001
1.014416e+003;3.437029e-001
1.016345e+003;3.472854e-001
1.018273e+003;3.494628e-001
1.020202e+003;3.502811e-001
1.022130e+003;3.503045e-001
1.024059e+003;3.495519e-001
1.025988e+003;3.470331e-001
1.027916e+003;3.436110e-001
1.029845e+003;3.405697e-001
1.031773e+003;3.378830e-001
1.033702e+003;3.351370e-001
1.035630e+003;3.321792e-001
1.037559e+003;3.288928e-001
1.039487e+003;3.256411e-001
1.041416e+003;3.234269e-001
1.043344e+003;3.214220e-001
1.045273e+003;3.197224e-001
1.047202e+003;3.182297e-001
1.049130e+003;3.167998e-001
1.051059e+003;3.143905e-001
1.052987e+003;3.114678e-001
1.054916e+003;3.086927e-001
1.056844e+003;3.053654e-001
1.058773e+003;3.020006e-001
1.060701e+003;2.975798e-001
1.062630e+003;2.916730e-001
1.064558e+003;2.858051e-001
1.066487e+003;2.803665e-001
1.068416e+003;2.747300e-001
1.070344e+003;2.693499e-001
1.072273e+003;2.651755e-001
1.074201e+003;2.612109e-001
1.076130e+003;2.562011e-001
1.078058e+003;2.511453e-001
1.079987e+003;2.469696e-001
1.081915e+003;2.426835e-001
1.083844e+003;2.384772e-001
1.085773e+003;2.354922e-001
1.087701e+003;2.326641e-001
1.089630e+003;2.290580e-001
1.091558e+003;2.248973e-001
1.093487e+003;2.209689e-001
1.095415e+003;2.169881e-001
1.097344e+003;2.126314e-001
1.099272e+003;2.079132e-001
1.101201e+003;2.026410e-001
1.103129e+003;1.984135e-001
1.105058e+003;1.956228e-001
1.106987e+003;1.926393e-001
1.108915e+003;1.889017e-001
1.110844e+003;1.848753e-001
1.112772e+003;1.812124e-001
1.114701e+003;1.773622e-001
1.116629e+003;1.731756e-001
1.118558e+003;1.687159e-001
1.120486e+003;1.644059e-001
1.122415e+003;1.602291e-001
1.124344e+003;1.554014e-001
1.126272e+003;1.503454e-001
1.128201e+003;1.460205e-001
1.130129e+003;1.422567e-001
1.132058e+003;1.388659e-001
1.133986e+003;1.355997e-001
1.135915e+003;1.325818e-001
1.137843e+003;1.305173e-001
1.139772e+003;1.294103e-001
1.141700e+003;1.289530e-001
1.143629e+003;1.289224e-001
1.145557e+003;1.293811e-001
1.147486e+003;1.301496e-001
1.149415e+003;1.315031e-001
1.151343e+003;1.329483e-001
1.153272e+003;1.340872e-001
1.155200e+003;1.343813e-001
1.157129e+003;1.336069e-001
1.159057e+003;1.320776e-001
1.160986e+003;1.293937e-001
1.162914e+003;1.254646e-001
1.164843e+003;1.206885e-001
1.166771e+003;1.161194e-001
1.168700e+003;1.115100e-001
1.170629e+003;1.069913e-001
1.172557e+003;1.025334e-001
1.174486e+003;9.854053e-002
1.176414e+003;9.519792e-002
1.178343e+003;9.271154e-002
1.180271e+003;9.105511e-002
1.182200e+003;8.981465e-002
1.184128e+003;8.947846e-002
1.186057e+003;8.998553e-002
1.187986e+003;9.131831e-002
1.189914e+003;9.349625e-002
1.191843e+003;9.624395e-002
1.193771e+003;9.904169e-002
1.195700e+003;1.012033e-001
1.197628e+003;1.020645e-001
1.199557e+003;1.019194e-001
1.201485e+003;1.011482e-001
1.203414e+003;9.994720e-002
1.205343e+003;9.818884e-002
1.207271e+003;9.633511e-002
1.209200e+003;9.499636e-002
1.211128e+003;9.437044e-002
1.213057e+003;9.441149e-002
1.214985e+003;9.471089e-002
1.216914e+003;9.524643e-002
1.218842e+003;9.641717e-002
1.220771e+003;9.818710e-002
1.222699e+003;1.000849e-001
1.224628e+003;1.020546e-001
1.226557e+003;1.035438e-001
1.228485e+003;1.044857e-001
1.230414e+003;1.053218e-001
1.232342e+003;1.060642e-001
1.234271e+003;1.064303e-001
1.236199e+003;1.064883e-001
1.238128e+003;1.064725e-001
1.240056e+003;1.064101e-001
1.241985e+003;1.063070e-001
1.243913e+003;1.062737e-001
1.245842e+003;1.062711e-001
1.247771e+003;1.066412e-001
1.249699e+003;1.075574e-001
1.251628e+003;1.084543e-001
1.253556e+003;1.095341e-001
1.255485e+003;1.108004e-001
1.257413e+003;1.116264e-001
1.259342e+003;1.120434e-001
1.261270e+003;1.121511e-001
1.263199e+003;1.115399e-001
1.265127e+003;1.107934e-001
1.267056e+003;1.099031e-001
1.268985e+003;1.086122e-001
1.270913e+003;1.074153e-001
1.272842e+003;1.068081e-001
1.274770e+003;1.063345e-001
1.276699e+003;1.057668e-001
1.278627e+003;1.050172e-001
1.280556e+003;1.043285e-001
1.282484e+003;1.036714e-001
1.284413e+003;1.033452e-001
1.286342e+003;1.033671e-001
1.288270e+003;1.039589e-001
1.290199e+003;1.052406e-001
1.292127e+003;1.068344e-001
1.294056e+003;1.082062e-001
1.295984e+003;1.093014e-001
1.297913e+003;1.103923e-001
1.299841e+003;1.117943e-001
1.301770e+003;1.131603e-001
1.303698e+003;1.145054e-001
1.305627e+003;1.157930e-001
1.307556e+003;1.170306e-001
1.309484e+003;1.182956e-001
1.311413e+003;1.192072e-001
1.313341e+003;1.197410e-001
1.315270e+003;1.197865e-001
1.317198e+003;1.193426e-001
1.319127e+003;1.188348e-001
1.321055e+003;1.181012e-001
1.322984e+003;1.174251e-001
1.324912e+003;1.171051e-001
1.326841e+003;1.170618e-001
1.328770e+003;1.174050e-001
1.330698e+003;1.178273e-001
1.332627e+003;1.177748e-001
1.334555e+003;1.177358e-001
1.336484e+003;1.175689e-001
1.338412e+003;1.170619e-001
1.340341e+003;1.166167e-001
1.342269e+003;1.162902e-001
1.344198e+003;1.162820e-001
1.346126e+003;1.166269e-001
1.348055e+003;1.167976e-001
1.349984e+003;1.172316e-001
1.351912e+003;1.178944e-001
1.353841e+003;1.184824e-001
1.355769e+003;1.193242e-001
1.357698e+003;1.203401e-001
1.359626e+003;1.212160e-001
1.361555e+003;1.218231e-001
1.363483e+003;1.220976e-001
1.365412e+003;1.224846e-001
1.367341e+003;1.224776e-001
1.369269e+003;1.218846e-001
1.371198e+003;1.205751e-001
1.373126e+003;1.188751e-001
1.375055e+003;1.170843e-001
1.376983e+003;1.154683e-001
1.378912e+003;1.138198e-001
1.380840e+003;1.116675e-001
1.382769e+003;1.095257e-001
1.384698e+003;1.078391e-001
1.386626e+003;1.061218e-001
1.388555e+003;1.050313e-001
1.390483e+003;1.045042e-001
1.392412e+003;1.039945e-001
1.394340e+003;1.032148e-001
1.396269e+003;1.026381e-001
1.398197e+003;1.024303e-001
1.400126e+003;1.028687e-001
1.402054e+003;1.032418e-001
1.403983e+003;1.031200e-001
1.405911e+003;1.035236e-001
1.407840e+003;1.042506e-001
1.409769e+003;1.047812e-001
1.411697e+003;1.054142e-001
1.413626e+003;1.061250e-001
1.415554e+003;1.064636e-001
1.417483e+003;1.056822e-001
1.419411e+003;1.050658e-001
1.421340e+003;1.056316e-001
1.423268e+003;1.055431e-001
1.425197e+003;1.052773e-001
1.427125e+003;1.051558e-001
1.429054e+003;1.047295e-001
1.430983e+003;1.046425e-001
1.432911e+003;1.044452e-001
1.434840e+003;1.030697e-001
1.436768e+003;1.018769e-001
1.438697e+003;1.019614e-001
1.440625e+003;1.016394e-001
1.442554e+003;1.008976e-001
1.444482e+003;9.990712e-002
1.446411e+003;9.857944e-002
1.448340e+003;9.741349e-002
1.450268e+003;9.685228e-002
1.452197e+003;9.612636e-002
1.454125e+003;9.455519e-002
1.456054e+003;9.200659e-002
1.457982e+003;9.174358e-002
1.459911e+003;9.304663e-002
1.461839e+003;9.272848e-002
1.463768e+003;9.111911e-002
1.465697e+003;8.972494e-002
1.467625e+003;8.856009e-002
1.469554e+003;8.714940e-002
1.471482e+003;8.533520e-002
1.473411e+003;8.409409e-002
1.475339e+003;8.350769e-002
1.477268e+003;8.262498e-002
1.479196e+003;8.122369e-002
1.481125e+003;7.921968e-002
1.483053e+003;7.768332e-002
1.484982e+003;7.614698e-002
1.486911e+003;7.451544e-002
1.488839e+003;7.317239e-002
1.490768e+003;7.270144e-002
1.492696e+003;7.296687e-002
1.494625e+003;7.191073e-002
1.496553e+003;7.065893e-002
1.498482e+003;7.097337e-002
1.500410e+003;7.151486e-002
1.502339e+003;7.177589e-002
1.504267e+003;7.050733e-002
1.506196e+003;6.900465e-002
1.508125e+003;7.043847e-002
1.510053e+003;7.257611e-002
1.511982e+003;7.336007e-002
1.513910e+003;7.381952e-002
1.515839e+003;7.375963e-002
1.517767e+003;7.380451e-002
1.519696e+003;7.359925e-002
1.521624e+003;7.361115e-002
1.523553e+003;7.528707e-002
1.525481e+003;7.646462e-002
1.527410e+003;7.727780e-002
1.529339e+003;7.821564e-002
1.531267e+003;7.878520e-002
1.533196e+003;7.865123e-002
1.535124e+003;7.921917e-002
1.537053e+003;7.888889e-002
1.538981e+003;7.677320e-002
1.540910e+003;7.641874e-002
1.542838e+003;7.758503e-002
1.544767e+003;7.834380e-002
1.546695e+003;7.873916e-002
1.548624e+003;7.830197e-002
1.550553e+003;7.783507e-002
1.552481e+003;7.704256e-002
1.554410e+003;7.555641e-002
1.556338e+003;7.378786e-002
1.558267e+003;7.087357e-002
1.560195e+003;7.102650e-002
1.562124e+003;7.332104e-002
1.564052e+003;7.327832e-002
1.565981e+003;7.232641e-002
1.567910e+003;7.130373e-002
1.569838e+003;7.070232e-002
1.571767e+003;7.091574e-002
1.573695e+003;6.993295e-002
1.575624e+003;6.819164e-002
1.577552e+003;6.885414e-002
1.579481e+003;6.991746e-002
1.581409e+003;6.978643e-002
1.583338e+003;6.974749e-002
1.585266e+003;6.977694e-002
1.587195e+003;6.984733e-002
1.589124e+003;6.995490e-002
1.591052e+003;7.007823e-002
1.592981e+003;7.035971e-002
1.594909e+003;7.083113e-002
1.596838e+003;7.117637e-002
1.598766e+003;7.145220e-002
1.600695e+003;7.215714e-002
1.602623e+003;7.311361e-002
1.604552e+003;7.415987e-002
1.606480e+003;7.499151e-002
1.608409e+003;7.579022e-002
1.610338e+003;7.687124e-002
1.612266e+003;7.802153e-002
1.614195e+003;7.856105e-002
1.616123e+003;7.822528e-002
1.618052e+003;7.982285e-002
1.619980e+003;8.209408e-002
1.621909e+003;8.329892e-002
1.623837e+003;8.467850e-002
1.625766e+003;8.627639e-002
1.627694e+003;8.752947e-002
1.629623e+003;8.897149e-002
1.631552e+003;9.018116e-002
1.633480e+003;9.025595e-002
1.635409e+003;9.003922e-002
1.637337e+003;9.157524e-002
1.639266e+003;9.265793e-002
1.641194e+003;9.211840e-002
1.643123e+003;9.089483e-002
1.645051e+003;8.857264e-002
1.646980e+003;8.697724e-002
1.648909e+003;8.630650e-002
1.650837e+003;8.319589e-002
1.652766e+003;7.909735e-002
1.654694e+003;7.965397e-002
1.656623e+003;8.069374e-002
1.658551e+003;7.980919e-002
1.660480e+003;7.833249e-002
1.662408e+003;7.656756e-002
1.664337e+003;7.530083e-002
1.666266e+003;7.389697e-002
1.668194e+003;7.173884e-002
1.670123e+003;7.008435e-002
1.672051e+003;6.940586e-002
1.673980e+003;6.795511e-002
1.675908e+003;6.678098e-002
1.677837e+003;6.628109e-002
1.679765e+003;6.463392e-002
1.681694e+003;6.178331e-002
1.683622e+003;5.819402e-002
1.685551e+003;5.762778e-002
1.687479e+003;5.849455e-002
1.689408e+003;5.781772e-002
1.691337e+003;5.708358e-002
1.693265e+003;5.548197e-002
1.695194e+003;5.290011e-002
1.697122e+003;5.190545e-002
1.699051e+003;5.045247e-002
1.700979e+003;4.986571e-002
1.702908e+003;5.097011e-002
1.704836e+003;5.042110e-002
1.706765e+003;4.987002e-002
1.708693e+003;4.940087e-002
1.710622e+003;4.893222e-002
1.712551e+003;4.852132e-002
1.714479e+003;4.749272e-002
1.716408e+003;4.605013e-002
1.718336e+003;4.639948e-002
1.720265e+003;4.774229e-002
1.722193e+003;4.831034e-002
1.724122e+003;4.858361e-002
1.726050e+003;4.836522e-002
1.727979e+003;4.760728e-002
1.729908e+003;4.674697e-002
1.731836e+003;4.517822e-002
1.733765e+003;4.316430e-002
1.735693e+003;4.351785e-002
1.737622e+003;4.383343e-002
1.739550e+003;4.264249e-002
1.741479e+003;4.216220e-002
1.743407e+003;4.194067e-002
1.745336e+003;4.180916e-002
1.747265e+003;4.158176e-002
1.749193e+003;4.147376e-002
1.751122e+003;4.189381e-002
1.753050e+003;4.334007e-002
1.754979e+003;4.399096e-002
1.756907e+003;4.397207e-002
1.758836e+003;4.423412e-002
1.760764e+003;4.418753e-002
1.762693e+003;4.429958e-002
1.764621e+003;4.455040e-002
1.766550e+003;4.407354e-002
1.768479e+003;4.354979e-002
1.770407e+003;4.281246e-002
1.772336e+003;4.225510e-002
1.774264e+003;4.320767e-002
1.776193e+003;4.401395e-002
1.778121e+003;4.393790e-002
1.780050e+003;4.369491e-002
1.781978e+003;4.373803e-002
1.783907e+003;4.357206e-002
1.785835e+003;4.343355e-002
1.787764e+003;4.343571e-002
1.789693e+003;4.288216e-002
1.791621e+003;4.186495e-002
1.793550e+003;4.178286e-002
1.795478e+003;4.250416e-002
1.797407e+003;4.258507e-002
1.799335e+003;4.218232e-002
1.801264e+003;4.194994e-002
1.803192e+003;4.217725e-002
1.805121e+003;4.232248e-002
1.807049e+003;4.234057e-002
1.808978e+003;4.191111e-002
1.810907e+003;4.139809e-002
1.812835e+003;4.159598e-002
1.814764e+003;4.178545e-002
1.816692e+003;4.148091e-002
1.818621e+003;4.154606e-002
1.820549e+003;4.166242e-002
1.822478e+003;4.140633e-002
1.824406e+003;4.085186e-002
1.826335e+003;4.099480e-002
1.828264e+003;4.092263e-002
1.830192e+003;4.048276e-002
1.832121e+003;4.064471e-002
1.834049e+003;4.076258e-002
1.835978e+003;4.059170e-002
1.837906e+003;4.054689e-002
1.839835e+003;4.046905e-002
1.841763e+003;3.978256e-002
1.843692e+003;3.911195e-002
1.845620e+003;3.936981e-002
1.847549e+003;3.963639e-002
1.849478e+003;3.965657e-002
1.851406e+003;3.985948e-002
1.853335e+003;4.012708e-002
1.855263e+003;3.993397e-002
1.857192e+003;3.941762e-002
1.859120e+003;3.941585e-002
1.861049e+003;3.967785e-002
1.862977e+003;3.954042e-002
1.864906e+003;3.933143e-002
1.866834e+003;3.914095e-002
1.868763e+003;3.892824e-002
1.870692e+003;3.902084e-002
1.872620e+003;3.921105e-002
1.874549e+003;3.934757e-002
1.876477e+003;3.924333e-002
1.878406e+003;3.902273e-002
1.880334e+003;3.906029e-002
1.882263e+003;3.899428e-002
1.884191e+003;3.878178e-002
1.886120e+003;3.871132e-002
1.888048e+003;3.846579e-002
1.889977e+003;3.846109e-002
1.891906e+003;3.890385e-002
1.893834e+003;3.913001e-002
1.895763e+003;3.906134e-002
1.897691e+003;3.899634e-002
1.899620e+003;3.889370e-002
1.901548e+003;3.902378e-002
1.903477e+003;3.918668e-002
1.905405e+003;3.900490e-002
1.907334e+003;3.883460e-002
1.909262e+003;3.890392e-002
1.911191e+003;3.903440e-002
1.913120e+003;3.903426e-002
1.915048e+003;3.903252e-002
1.916977e+003;3.867810e-002
1.918905e+003;3.888290e-002
1.920834e+003;3.925515e-002
1.922762e+003;3.922109e-002
1.924691e+003;3.942071e-002
1.926619e+003;3.964154e-002
1.928548e+003;3.947550e-002
1.930477e+003;3.940975e-002
1.932405e+003;3.946628e-002
1.934334e+003;3.951669e-002
1.936262e+003;3.953766e-002
1.938191e+003;3.963095e-002
1.940119e+003;3.966198e-002
1.942048e+003;3.970631e-002
1.943976e+003;3.991469e-002
1.945905e+003;4.017582e-002
1.947833e+003;4.029007e-002
1.949762e+003;4.036682e-002
1.951691e+003;4.053979e-002
1.953619e+003;4.071356e-002
1.955548e+003;4.082806e-002
1.957476e+003;4.091877e-002
1.959405e+003;4.090960e-002
1.961333e+003;4.081990e-002
1.963262e+003;4.090327e-002
1.965190e+003;4.070759e-002
1.967119e+003;4.050702e-002
1.969047e+003;4.079694e-002
1.970976e+003;4.087967e-002
1.972905e+003;4.116671e-002
1.974833e+003;4.148496e-002
1.976762e+003;4.133479e-002
1.978690e+003;4.121913e-002
1.980619e+003;4.140618e-002
1.982547e+003;4.175331e-002
1.984476e+003;4.186032e-002
1.986404e+003;4.174726e-002
1.988333e+003;4.147923e-002
1.990261e+003;4.120988e-002
1.992190e+003;4.157862e-002
1.994119e+003;4.188389e-002
1.996047e+003;4.162405e-002
1.997976e+003;4.157556e-002
1.999904e+003;4.182405e-002
2.001833e+003;4.214274e-002
2.003761e+003;4.215377e-002
2.005690e+003;4.211485e-002
2.007618e+003;4.234652e-002
2.009547e+003;4.239134e-002
2.011476e+003;4.229421e-002
2.013404e+003;4.229155e-002
2.015333e+003;4.237797e-002
2.017261e+003;4.236354e-002
2.019190e+003;4.252444e-002
2.021118e+003;4.271977e-002
2.023047e+003;4.290747e-002
2.024975e+003;4.297836e-002
2.026904e+003;4.301271e-002
2.028833e+003;4.307271e-002
2.030761e+003;4.312851e-002
2.032690e+003;4.292930e-002
2.034618e+003;4.277809e-002
2.036547e+003;4.296764e-002
2.038475e+003;4.310831e-002
2.040404e+003;4.310048e-002
2.042332e+003;4.325181e-002
2.044261e+003;4.316942e-002
2.046189e+003;4.307300e-002
2.048118e+003;4.314227e-002
2.050047e+003;4.317242e-002
2.051975e+003;4.321733e-002
2.053904e+003;4.341876e-002
2.055832e+003;4.345988e-002
2.057761e+003;4.343728e-002
2.059689e+003;4.333963e-002
2.061618e+003;4.320997e-002
2.063546e+003;4.325917e-002
2.065475e+003;4.341747e-002
2.067404e+003;4.329914e-002
2.069332e+003;4.303989e-002
2.071260e+003;4.299786e-002
2.073189e+003;4.288812e-002
2.075118e+003;4.271900e-002
2.077046e+003;4.272423e-002
2.078975e+003;4.296343e-002
2.080903e+003;4.290732e-002
2.082832e+003;4.260371e-002
2.084760e+003;4.258741e-002
2.086689e+003;4.248392e-002
2.088617e+003;4.238056e-002
2.090546e+003;4.245502e-002
2.092475e+003;4.268358e-002
2.094403e+003;4.280119e-002
2.096332e+003;4.266903e-002
2.098260e+003;4.275918e-002
2.100189e+003;4.297901e-002
2.102117e+003;4.314106e-002
2.104046e+003;4.315336e-002
2.105974e+003;4.311102e-002
2.107903e+003;4.346054e-002
2.109832e+003;4.379597e-002
2.111760e+003;4.349716e-002
2.113688e+003;4.336372e-002
2.115617e+003;4.339649e-002
2.117546e+003;4.324709e-002
2.119474e+003;4.358207e-002
2.121403e+003;4.384113e-002
2.123331e+003;4.383915e-002
2.125260e+003;4.390828e-002
2.127188e+003;4.377017e-002
2.129117e+003;4.374100e-002
2.131045e+003;4.384769e-002
2.132974e+003;4.396306e-002
2.134903e+003;4.421372e-002
2.136831e+003;4.405846e-002
2.138760e+003;4.368051e-002
2.140688e+003;4.365321e-002
2.142617e+003;4.354690e-002
2.144545e+003;4.343315e-002
2.146474e+003;4.358829e-002
2.148402e+003;4.378161e-002
2.150331e+003;4.369447e-002
2.152260e+003;4.341297e-002
2.154188e+003;4.335431e-002
2.156117e+003;4.326627e-002
2.158045e+003;4.325408e-002
2.159974e+003;4.319618e-002
2.161902e+003;4.314121e-002
2.163831e+003;4.316865e-002
2.165759e+003;4.308921e-002
2.167688e+003;4.300111e-002
2.169616e+003;4.294287e-002
2.171545e+003;4.279344e-002
2.173474e+003;4.296895e-002
2.175402e+003;4.308423e-002
2.177331e+003;4.293457e-002
2.179259e+003;4.257319e-002
2.181188e+003;4.248034e-002
2.183116e+003;4.257045e-002
2.185045e+003;4.250252e-002
2.186973e+003;4.233494e-002
2.188902e+003;4.234436e-002
2.190831e+003;4.241940e-002
2.192759e+003;4.203432e-002
2.194688e+003;4.152987e-002
2.196616e+003;4.161888e-002
2.198545e+003;4.184273e-002
2.200473e+003;4.190779e-002
2.202402e+003;4.198592e-002
2.204330e+003;4.200651e-002
2.206259e+003;4.182540e-002
2.208188e+003;4.157563e-002
2.210116e+003;4.160050e-002
2.212044e+003;4.142900e-002
2.213973e+003;4.141482e-002
2.215902e+003;4.152360e-002
2.217830e+003;4.136099e-002
2.219759e+003;4.129700e-002
2.221687e+003;4.131886e-002
2.223616e+003;4.110686e-002
2.225544e+003;4.069802e-002
2.227473e+003;4.056206e-002
2.229401e+003;4.076498e-002
2.231330e+003;4.093560e-002
2.233259e+003;4.094386e-002
2.235187e+003;4.096877e-002
2.237116e+003;4.100635e-002
2.239044e+003;4.091237e-002
2.240973e+003;4.075465e-002
2.242901e+003;4.062703e-002
2.244830e+003;4.070242e-002
2.246758e+003;4.074132e-002
2.248687e+003;4.062088e-002
2.250615e+003;4.039413e-002
2.252544e+003;4.005673e-002
2.254473e+003;3.976146e-002
2.256401e+003;3.988570e-002
2.258330e+003;4.008006e-002
2.260258e+003;4.030447e-002
2.262187e+003;4.039420e-002
2.264115e+003;3.995530e-002
2.266044e+003;3.967629e-002
2.267972e+003;3.976073e-002
2.269901e+003;3.985029e-002
2.271830e+003;3.991737e-002
2.273758e+003;3.995522e-002
2.275687e+003;3.967505e-002
2.277615e+003;3.937696e-002
2.279544e+003;3.936546e-002
2.281472e+003;3.949651e-002
2.283401e+003;3.955567e-002
2.285329e+003;3.940594e-002
2.287258e+003;3.934383e-002
2.289187e+003;3.952329e-002
2.291115e+003;3.943022e-002
2.293043e+003;3.925221e-002
2.294972e+003;3.931231e-002
2.296901e+003;3.952351e-002
2.298829e+003;3.954485e-002
2.300758e+003;3.933440e-002
2.302686e+003;3.920028e-002
2.304615e+003;3.931387e-002
2.306543e+003;3.921736e-002
2.308472e+003;3.899467e-002
2.310400e+003;3.897097e-002
2.312329e+003;3.906565e-002
2.314258e+003;3.907051e-002
2.316186e+003;3.884576e-002
2.318115e+003;3.856688e-002
2.320043e+003;3.821397e-002
2.321972e+003;3.772749e-002
2.323900e+003;3.752587e-002
2.325829e+003;3.745572e-002
2.327757e+003;3.703219e-002
2.329686e+003;3.655845e-002
2.331615e+003;3.648233e-002
2.333543e+003;3.663599e-002
2.335472e+003;3.697074e-002
2.337400e+003;3.702667e-002
2.339329e+003;3.717564e-002
2.341257e+003;3.758862e-002
2.343186e+003;3.798453e-002
2.345114e+003;3.867089e-002
2.347043e+003;3.938356e-002
2.348971e+003;3.969596e-002
2.350900e+003;3.941353e-002
2.352829e+003;3.878297e-002
2.354757e+003;3.821187e-002
2.356686e+003;3.742766e-002
2.358614e+003;3.666094e-002
2.360543e+003;3.659111e-002
2.362471e+003;3.705546e-002
2.364400e+003;3.724130e-002
2.366328e+003;3.769746e-002
2.368257e+003;3.842720e-002
2.370186e+003;3.893447e-002
2.372114e+003;3.948697e-002
2.374042e+003;4.035373e-002
2.375971e+003;4.092770e-002
2.377900e+003;4.137768e-002
2.379828e+003;4.180997e-002
2.381757e+003;4.225145e-002
2.383685e+003;4.260463e-002
2.385614e+003;4.266121e-002
2.387542e+003;4.248224e-002
2.389471e+003;4.214643e-002
2.391399e+003;4.213376e-002
2.393328e+003;4.245527e-002
2.395257e+003;4.271447e-002
2.397185e+003;4.307340e-002
2.399114e+003;4.328161e-002
2.401042e+003;4.329402e-002
2.402971e+003;4.321470e-002
2.404899e+003;4.317663e-002
2.406828e+003;4.332250e-002
2.408756e+003;4.338467e-002
2.410685e+003;4.363573e-002
2.412614e+003;4.415654e-002
2.414542e+003;4.420602e-002
2.416471e+003;4.410310e-002
2.418399e+003;4.431590e-002
2.420328e+003;4.465545e-002
2.422256e+003;4.503004e-002
2.424185e+003;4.498200e-002
2.426113e+003;4.491167e-002
2.428042e+003;4.524161e-002
2.429970e+003;4.547131e-002
2.431899e+003;4.544361e-002
2.433828e+003;4.551682e-002
2.435756e+003;4.599354e-002
2.437685e+003;4.640973e-002
2.439613e+003;4.646810e-002
2.441542e+003;4.636519e-002
2.443470e+003;4.631310e-002
2.445399e+003;4.620831e-002
2.447327e+003;4.630315e-002
2.449256e+003;4.654750e-002
2.451185e+003;4.666462e-002
2.453113e+003;4.676343e-002
2.455042e+003;4.671453e-002
2.456970e+003;4.685192e-002
2.458899e+003;4.724710e-002
2.460827e+003;4.718120e-002
2.462756e+003;4.692169e-002
2.464684e+003;4.719239e-002
2.466613e+003;4.779071e-002
2.468542e+003;4.803590e-002
2.470470e+003;4.809305e-002
2.472398e+003;4.820355e-002
2.474327e+003;4.820207e-002
2.476256e+003;4.822028e-002
2.478184e+003;4.826301e-002
2.480113e+003;4.839174e-002
2.482041e+003;4.845468e-002
2.483970e+003;4.848327e-002
2.485898e+003;4.868108e-002
2.487827e+003;4.884138e-002
2.489755e+003;4.894376e-002
2.491684e+003;4.916745e-002
2.493613e+003;4.919884e-002
2.495541e+003;4.910241e-002
2.497470e+003;4.901163e-002
2.499398e+003;4.915127e-002
2.501327e+003;4.955460e-002
2.503255e+003;4.960548e-002
2.505184e+003;4.951846e-002
2.507112e+003;4.982219e-002
2.509041e+003;5.004258e-002
2.510969e+003;4.975716e-002
2.512898e+003;4.937229e-002
2.514827e+003;4.953310e-002
2.516755e+003;5.013755e-002
2.518684e+003;5.037194e-002
2.520612e+003;5.027662e-002
2.522541e+003;5.045005e-002
2.524469e+003;5.036286e-002
2.526398e+003;5.014968e-002
2.528326e+003;5.014715e-002
2.530255e+003;5.018988e-002
2.532184e+003;5.023079e-002
2.534112e+003;5.036945e-002
2.536041e+003;5.059194e-002
2.537969e+003;5.055773e-002
2.539898e+003;5.048879e-002
2.541826e+003;5.051924e-002
2.543755e+003;5.053826e-002
2.545683e+003;5.063609e-002
2.547612e+003;5.083086e-002
2.549541e+003;5.100078e-002
2.551469e+003;5.105165e-002
2.553397e+003;5.100693e-002
2.555326e+003;5.114232e-002
2.557255e+003;5.121759e-002
2.559183e+003;5.138021e-002
2.561112e+003;5.147946e-002
2.563040e+003;5.145324e-002
2.564969e+003;5.133415e-002
2.566897e+003;5.126118e-002
2.568826e+003;5.136984e-002
2.570754e+003;5.160187e-002
2.572683e+003;5.194414e-002
2.574612e+003;5.194646e-002
2.576540e+003;5.157086e-002
2.578469e+003;5.200472e-002
2.580397e+003;5.253012e-002
2.582326e+003;5.231082e-002
2.584254e+003;5.222326e-002
2.586183e+003;5.244999e-002
2.588111e+003;5.249490e-002
2.590040e+003;5.269899e-002
2.591969e+003;5.279574e-002
2.593897e+003;5.266779e-002
2.595826e+003;5.273109e-002
2.597754e+003;5.282553e-002
2.599683e+003;5.295854e-002
2.601611e+003;5.313296e-002
2.603540e+003;5.317101e-002
2.605468e+003;5.337943e-002
2.607397e+003;5.381194e-002
2.609325e+003;5.399564e-002
2.611254e+003;5.414354e-002
2.613183e+003;5.420930e-002
2.615111e+003;5.416902e-002
2.617040e+003;5.421643e-002
2.618968e+003;5.425645e-002
2.620897e+003;5.430312e-002
2.622825e+003;5.449683e-002
2.624754e+003;5.479001e-002
2.626682e+003;5.522144e-002
2.628611e+003;5.549293e-002
2.630540e+003;5.557724e-002
2.632468e+003;5.564453e-002
2.634396e+003;5.569938e-002
2.636325e+003;5.598545e-002
2.638254e+003;5.609782e-002
2.640182e+003;5.595262e-002
2.642111e+003;5.610337e-002
2.644039e+003;5.646954e-002
2.645968e+003;5.647822e-002
2.647896e+003;5.655918e-002
2.649825e+003;5.715157e-002
2.651753e+003;5.745642e-002
2.653682e+003;5.733956e-002
2.655611e+003;5.717595e-002
2.657539e+003;5.755907e-002
2.659468e+003;5.810181e-002
2.661396e+003;5.834475e-002
2.663325e+003;5.833490e-002
2.665253e+003;5.833584e-002
2.667182e+003;5.858111e-002
2.669110e+003;5.860834e-002
2.671039e+003;5.868214e-002
2.672968e+003;5.869481e-002
2.674896e+003;5.884484e-002
2.676825e+003;5.914757e-002
2.678753e+003;5.952393e-002
2.680682e+003;5.983595e-002
2.682610e+003;5.998877e-002
2.684539e+003;6.007575e-002
2.686467e+003;5.994157e-002
2.688396e+003;5.979260e-002
2.690324e+003;6.024678e-002
2.692253e+003;6.069396e-002
2.694182e+003;6.059932e-002
2.696110e+003;6.044823e-002
2.698039e+003;6.061658e-002
2.699967e+003;6.094983e-002
2.701896e+003;6.093054e-002
2.703824e+003;6.108604e-002
2.705753e+003;6.135454e-002
2.707681e+003;6.158548e-002
2.709610e+003;6.177685e-002
2.711539e+003;6.203446e-002
2.713467e+003;6.195356e-002
2.715396e+003;6.194970e-002
2.717324e+003;6.203637e-002
2.719253e+003;6.208476e-002
2.721181e+003;6.243418e-002
2.723110e+003;6.299137e-002
2.725038e+003;6.321421e-002
2.726967e+003;6.285310e-002
2.728896e+003;6.259110e-002
2.730824e+003;6.283464e-002
2.732752e+003;6.296271e-002
2.734681e+003;6.300010e-002
2.736610e+003;6.349971e-002
2.738538e+003;6.374607e-002
2.740467e+003;6.365985e-002
2.742395e+003;6.371668e-002
2.744324e+003;6.363346e-002
2.746252e+003;6.378924e-002
2.748181e+003;6.416860e-002
2.750109e+003;6.444982e-002
2.752038e+003;6.473617e-002
2.753967e+003;6.482448e-002
2.755895e+003;6.479848e-002
2.757824e+003;6.464703e-002
2.759752e+003;6.464084e-002
2.761681e+003;6.502895e-002
2.763609e+003;6.534142e-002
2.765538e+003;6.538121e-002
2.767466e+003;6.571451e-002
2.769395e+003;6.610455e-002
2.771323e+003;6.627970e-002
2.773252e+003;6.634934e-002
2.775181e+003;6.627449e-002
2.777109e+003;6.661408e-002
2.779038e+003;6.699573e-002
2.780966e+003;6.680498e-002
2.782895e+003;6.685834e-002
2.784823e+003;6.739075e-002
2.786752e+003;6.792237e-002
2.788680e+003;6.844529e-002
2.790609e+003;6.853010e-002
2.792538e+003;6.862333e-002
2.794466e+003;6.902353e-002
2.796395e+003;6.925081e-002
2.798323e+003;6.940267e-002
2.800252e+003;6.939140e-002
2.802180e+003;6.958959e-002
2.804109e+003;7.016359e-002
2.806037e+003;7.050507e-002
2.807966e+003;7.064902e-002
2.809895e+003;7.074654e-002
2.811823e+003;7.099158e-002
2.813751e+003;7.131470e-002
2.815680e+003;7.161230e-002
2.817609e+003;7.204533e-002
2.819537e+003;7.250319e-002
2.821466e+003;7.280412e-002
2.823394e+003;7.328530e-002
2.825323e+003;7.358740e-002
2.827251e+003;7.407149e-002
2.829180e+003;7.480068e-002
2.831108e+003;7.519274e-002
2.833037e+003;7.557944e-002
2.834966e+003;7.615483e-002
2.836894e+003;7.683580e-002
2.838823e+003;7.733323e-002
2.840751e+003;7.738062e-002
2.842680e+003;7.786611e-002
2.844608e+003;7.836611e-002
2.846537e+003;7.871640e-002
2.848465e+003;7.951523e-002
2.850394e+003;8.012021e-002
2.852323e+003;8.040597e-002
2.854251e+003;8.099201e-002
2.856180e+003;8.216281e-002
2.858108e+003;8.429802e-002
2.860037e+003;8.637578e-002
2.861965e+003;8.787174e-002
2.863894e+003;8.913919e-002
2.865822e+003;9.025078e-002
2.867751e+003;9.139170e-002
2.869679e+003;9.242745e-002
2.871608e+003;9.301613e-002
2.873536e+003;9.332870e-002
2.875465e+003;9.359895e-002
2.877394e+003;9.403647e-002
2.879322e+003;9.478112e-002
2.881251e+003;9.520617e-002
2.883179e+003;9.512454e-002
2.885108e+003;9.488763e-002
2.887036e+003;9.470005e-002
2.888965e+003;9.477177e-002
2.890893e+003;9.480346e-002
2.892822e+003;9.451161e-002
2.894750e+003;9.422750e-002
2.896679e+003;9.382606e-002
2.898608e+003;9.318852e-002
2.900536e+003;9.299979e-002
2.902465e+003;9.262147e-002
2.904393e+003;9.216936e-002
2.906322e+003;9.163985e-002
2.908250e+003;9.055410e-002
2.910179e+003;8.953909e-002
2.912107e+003;8.872373e-002
2.914036e+003;8.780886e-002
2.915965e+003;8.683064e-002
2.917893e+003;8.529761e-002
2.919822e+003;8.392937e-002
2.921750e+003;8.308575e-002
2.923679e+003;8.216897e-002
2.925607e+003;8.138659e-002
2.927536e+003;8.141045e-002
2.929464e+003;8.130911e-002
2.931393e+003;8.110670e-002
2.933322e+003;8.102683e-002
2.935250e+003;8.100731e-002
2.937178e+003;8.088494e-002
2.939107e+003;8.019951e-002
2.941036e+003;7.979362e-002
2.942964e+003;7.945388e-002
2.944893e+003;7.869809e-002
2.946821e+003;7.788137e-002
2.948750e+003;7.620893e-002
2.950678e+003;7.405475e-002
2.952607e+003;7.231612e-002
2.954535e+003;7.134800e-002
2.956464e+003;7.031413e-002
2.958393e+003;6.923721e-002
2.960321e+003;6.825049e-002
2.962250e+003;6.787600e-002
2.964178e+003;6.785294e-002
2.966107e+003;6.781944e-002
2.968035e+003;6.739412e-002
2.969964e+003;6.670436e-002
2.971892e+003;6.629950e-002
2.973821e+003;6.609185e-002
2.975750e+003;6.600787e-002
2.977678e+003;6.583167e-002
2.979607e+003;6.575294e-002
2.981535e+003;6.571478e-002
2.983464e+003;6.529443e-002
2.985392e+003;6.480075e-002
2.987321e+003;6.459931e-002
2.989249e+003;6.469256e-002
2.991178e+003;6.450405e-002
2.993106e+003;6.441223e-002
2.995035e+003;6.441757e-002
2.996964e+003;6.399956e-002
2.998892e+003;6.332314e-002
3.000821e+003;6.335577e-002
3.002749e+003;6.386669e-002
3.004678e+003;6.410085e-002
3.006606e+003;6.390254e-002
3.008535e+003;6.422234e-002
3.010463e+003;6.488119e-002
3.012392e+003;6.527791e-002
3.014321e+003;6.531326e-002
3.016249e+003;6.524657e-002
3.018177e+003;6.516552e-002
3.020106e+003;6.524049e-002
3.022035e+003;6.584767e-002
3.023963e+003;6.649134e-002
3.025892e+003;6.681881e-002
3.027820e+003;6.742147e-002
3.029749e+003;6.766608e-002
3.031677e+003;6.780306e-002
3.033606e+003;6.847364e-002
3.035534e+003;6.904404e-002
3.037463e+003;6.926803e-002
3.039392e+003;6.941593e-002
3.041320e+003;6.987009e-002
3.043249e+003;7.070934e-002
3.045177e+003;7.097332e-002
3.047106e+003;7.109554e-002
3.049034e+003;7.131091e-002
3.050963e+003;7.154314e-002
3.052891e+003;7.201456e-002
3.054820e+003;7.257748e-002
3.056749e+003;7.290267e-002
3.058677e+003;7.330519e-002
3.060606e+003;7.366877e-002
3.062534e+003;7.412497e-002
3.064463e+003;7.444736e-002
3.066391e+003;7.469591e-002
3.068320e+003;7.503786e-002
3.070248e+003;7.550658e-002
3.072177e+003;7.604184e-002
3.074105e+003;7.618429e-002
3.076034e+003;7.626501e-002
3.077963e+003;7.664251e-002
3.079891e+003;7.715585e-002
3.081820e+003;7.770781e-002
3.083748e+003;7.812928e-002
3.085677e+003;7.850713e-002
3.087605e+003;7.888699e-002
3.089534e+003;7.863376e-002
3.091462e+003;7.891937e-002
3.093391e+003;7.947604e-002
3.095320e+003;7.962384e-002
3.097248e+003;7.984941e-002
3.099177e+003;8.063055e-002
3.101105e+003;8.144158e-002
3.103034e+003;8.170281e-002
3.104962e+003;8.186950e-002
3.106891e+003;8.229823e-002
3.108819e+003;8.271528e-002
3.110748e+003;8.290673e-002
3.112677e+003;8.313968e-002
3.114605e+003;8.337134e-002
3.116533e+003;8.393307e-002
3.118462e+003;8.429895e-002
3.120391e+003;8.453936e-002
3.122319e+003;8.466107e-002
3.124248e+003;8.486812e-002
3.126176e+003;8.563272e-002
3.128105e+003;8.636895e-002
3.130033e+003;8.686431e-002
3.131962e+003;8.741935e-002
3.133890e+003;8.809234e-002
3.135819e+003;8.839680e-002
3.137748e+003;8.882902e-002
3.139676e+003;8.944288e-002
3.141605e+003;8.962730e-002
3.143533e+003;8.970494e-002
3.145462e+003;9.035467e-002
3.147390e+003;9.114988e-002
3.149319e+003;9.166379e-002
3.151247e+003;9.196948e-002
3.153176e+003;9.209194e-002
3.155104e+003;9.233540e-002
3.157033e+003;9.313966e-002
3.158962e+003;9.368051e-002
3.160890e+003;9.389614e-002
3.162819e+003;9.427229e-002
3.164747e+003;9.496044e-002
3.166676e+003;9.561075e-002
3.168604e+003;9.584651e-002
3.170533e+003;9.623849e-002
3.172461e+003;9.677195e-002
3.174390e+003;9.749763e-002
3.176319e+003;9.815843e-002
3.178247e+003;9.834456e-002
3.180176e+003;9.887145e-002
3.182104e+003;9.944290e-002
3.184033e+003;9.931144e-002
3.185961e+003;9.987333e-002
3.187890e+003;1.007017e-001
3.189818e+003;1.011862e-001
3.191747e+003;1.016616e-001
3.193676e+003;1.020435e-001
3.195604e+003;1.022983e-001
3.197532e+003;1.024963e-001
3.199461e+003;1.026705e-001
3.201390e+003;1.030460e-001
3.203318e+003;1.036502e-001
3.205247e+003;1.043843e-001
3.207175e+003;1.049903e-001
3.209104e+003;1.054047e-001
3.211032e+003;1.058838e-001
3.212961e+003;1.062338e-001
3.214889e+003;1.066139e-001
3.216818e+003;1.072129e-001
3.218747e+003;1.075500e-001
3.220675e+003;1.079708e-001
3.222604e+003;1.085483e-001
3.224532e+003;1.088530e-001
3.226461e+003;1.084954e-001
3.228389e+003;1.088873e-001
3.230318e+003;1.101618e-001
3.232246e+003;1.108409e-001
3.234175e+003;1.112700e-001
3.236104e+003;1.118953e-001
3.238032e+003;1.120865e-001
3.239961e+003;1.124774e-001
3.241889e+003;1.131731e-001
3.243818e+003;1.135580e-001
3.245746e+003;1.137414e-001
3.247675e+003;1.139640e-001
3.249603e+003;1.146192e-001
3.251532e+003;1.155247e-001
3.253460e+003;1.158131e-001
3.255389e+003;1.160706e-001
3.257318e+003;1.167815e-001
3.259246e+003;1.177473e-001
3.261175e+003;1.184334e-001
3.263103e+003;1.191888e-001
3.265032e+003;1.199490e-001
3.266960e+003;1.201353e-001
3.268889e+003;1.198199e-001
3.270817e+003;1.198831e-001
3.272746e+003;1.205758e-001
3.274675e+003;1.209447e-001
3.276603e+003;1.212997e-001
3.278531e+003;1.217785e-001
3.280460e+003;1.215835e-001
3.282389e+003;1.213730e-001
3.284317e+003;1.221417e-001
3.286246e+003;1.226312e-001
3.288174e+003;1.229411e-001
3.290103e+003;1.235305e-001
3.292031e+003;1.240328e-001
3.293960e+003;1.241926e-001
3.295888e+003;1.238227e-001
3.297817e+003;1.236942e-001
3.299746e+003;1.238875e-001
3.301674e+003;1.241264e-001
3.303603e+003;1.243126e-001
3.305531e+003;1.246599e-001
3.307460e+003;1.244840e-001
3.309388e+003;1.239375e-001
3.311317e+003;1.235246e-001
3.313245e+003;1.236853e-001
3.315174e+003;1.242632e-001
3.317103e+003;1.242842e-001
3.319031e+003;1.237078e-001
3.320960e+003;1.231017e-001
3.322888e+003;1.225090e-001
3.324817e+003;1.228997e-001
3.326745e+003;1.232733e-001
3.328674e+003;1.227610e-001
3.330602e+003;1.224898e-001
3.332531e+003;1.226862e-001
3.334459e+003;1.226710e-001
3.336388e+003;1.223762e-001
3.338317e+003;1.222023e-001
3.340245e+003;1.219110e-001
3.342174e+003;1.217177e-001
3.344102e+003;1.217140e-001
3.346031e+003;1.217476e-001
3.347959e+003;1.214201e-001
3.349888e+003;1.210757e-001
3.351816e+003;1.208350e-001
3.353745e+003;1.204308e-001
3.355674e+003;1.198123e-001
3.357602e+003;1.196778e-001
3.359531e+003;1.196459e-001
3.361459e+003;1.191788e-001
3.363388e+003;1.191583e-001
3.365316e+003;1.195378e-001
3.367245e+003;1.197222e-001
3.369173e+003;1.191941e-001
3.371102e+003;1.186718e-001
3.373031e+003;1.183953e-001
3.374959e+003;1.182170e-001
3.376887e+003;1.179193e-001
3.378816e+003;1.171792e-001
3.380745e+003;1.172002e-001
3.382673e+003;1.168881e-001
3.384602e+003;1.161999e-001
3.386530e+003;1.162705e-001
3.388459e+003;1.164653e-001
3.390387e+003;1.165120e-001
3.392316e+003;1.162993e-001
3.394244e+003;1.157377e-001
3.396173e+003;1.150683e-001
3.398102e+003;1.149327e-001
3.400030e+003;1.151107e-001
3.401959e+003;1.147783e-001
3.403887e+003;1.139538e-001
3.405816e+003;1.139124e-001
3.407744e+003;1.138547e-001
3.409673e+003;1.132279e-001
3.411601e+003;1.124902e-001
3.413530e+003;1.121617e-001
3.415458e+003;1.120467e-001
3.417387e+003;1.118304e-001
3.419316e+003;1.111985e-001
3.421244e+003;1.111858e-001
3.423173e+003;1.110553e-001
3.425101e+003;1.105389e-001
3.427030e+003;1.104680e-001
3.428958e+003;1.101026e-001
3.430887e+003;1.096894e-001
3.432815e+003;1.096190e-001
3.434744e+003;1.093155e-001
3.436673e+003;1.087045e-001
3.438601e+003;1.083230e-001
3.440530e+003;1.079493e-001
3.442458e+003;1.074135e-001
3.444387e+003;1.066888e-001
3.446315e+003;1.059437e-001
3.448244e+003;1.051373e-001
3.450172e+003;1.043920e-001
3.452101e+003;1.037319e-001
3.454030e+003;1.028247e-001
3.455958e+003;1.020877e-001
3.457886e+003;1.010412e-001
3.459815e+003;1.001498e-001
3.461744e+003;9.930190e-002
3.463672e+003;9.870107e-002
3.465601e+003;9.799697e-002
3.467529e+003;9.723779e-002
3.469458e+003;9.676872e-002
3.471386e+003;9.669991e-002
3.473315e+003;9.599069e-002
3.475243e+003;9.471353e-002
3.477172e+003;9.353031e-002
3.479101e+003;9.265625e-002
3.481029e+003;9.178578e-002
3.482958e+003;9.105957e-002
3.484886e+003;9.064765e-002
3.486815e+003;9.042526e-002
3.488743e+003;8.975354e-002
3.490672e+003;8.820579e-002
3.492600e+003;8.718759e-002
3.494529e+003;8.637800e-002
3.496458e+003;8.552809e-002
3.498386e+003;8.474313e-002
3.500315e+003;8.417626e-002
3.502243e+003;8.321965e-002
3.504172e+003;8.174261e-002
3.506100e+003;8.079155e-002
3.508029e+003;8.010112e-002
3.509957e+003;7.901630e-002
3.511886e+003;7.819775e-002
3.513814e+003;7.764061e-002
3.515743e+003;7.664887e-002
3.517672e+003;7.508048e-002
3.519600e+003;7.433092e-002
3.521529e+003;7.404064e-002
3.523457e+003;7.314043e-002
3.525386e+003;7.177433e-002
3.527314e+003;7.048348e-002
3.529243e+003;6.992976e-002
3.531171e+003;6.976495e-002
3.533100e+003;6.932536e-002
3.535029e+003;6.873410e-002
3.536957e+003;6.748258e-002
3.538885e+003;6.683628e-002
3.540814e+003;6.663162e-002
3.542743e+003;6.600382e-002
3.544671e+003;6.500186e-002
3.546600e+003;6.426886e-002
3.548528e+003;6.380931e-002
3.550457e+003;6.307821e-002
3.552385e+003;6.198401e-002
3.554314e+003;6.139442e-002
3.556242e+003;6.060614e-002
3.558171e+003;6.002263e-002
3.560100e+003;5.986592e-002
3.562028e+003;5.911686e-002
3.563957e+003;5.822815e-002
3.565885e+003;5.733537e-002
3.567814e+003;5.618689e-002
3.569742e+003;5.561249e-002
3.571671e+003;5.551639e-002
3.573599e+003;5.530265e-002
3.575528e+003;5.498533e-002
3.577457e+003;5.453466e-002
3.579385e+003;5.385110e-002
3.581314e+003;5.306500e-002
3.583242e+003;5.259744e-002
3.585171e+003;5.163456e-002
3.587099e+003;5.065158e-002
3.589028e+003;5.054399e-002
3.590956e+003;5.049530e-002
3.592885e+003;5.024508e-002
3.594813e+003;5.032257e-002
3.596742e+003;4.982045e-002
3.598671e+003;4.887137e-002
3.600599e+003;4.812129e-002
3.602528e+003;4.824401e-002
3.604456e+003;4.787697e-002
3.606385e+003;4.683347e-002
3.608313e+003;4.616810e-002
3.610242e+003;4.594131e-002
3.612170e+003;4.559947e-002
3.614099e+003;4.534263e-002
3.616028e+003;4.533597e-002
3.617956e+003;4.427639e-002
3.619885e+003;4.325108e-002
3.621813e+003;4.317151e-002
3.623742e+003;4.301209e-002
3.625670e+003;4.214081e-002
3.627599e+003;4.023758e-002
3.629527e+003;3.942496e-002
3.631456e+003;4.034079e-002
3.633385e+003;4.101341e-002
3.635313e+003;4.092468e-002
3.637241e+003;4.035228e-002
3.639170e+003;3.985417e-002
3.641099e+003;3.938813e-002
3.643027e+003;3.852542e-002
3.644956e+003;3.752486e-002
3.646884e+003;3.627240e-002
3.648813e+003;3.519083e-002
3.650741e+003;3.530812e-002
3.652670e+003;3.622698e-002
3.654598e+003;3.589114e-002
3.656527e+003;3.502465e-002
3.658456e+003;3.476899e-002
3.660384e+003;3.440351e-002
3.662313e+003;3.428672e-002
3.664241e+003;3.370072e-002
3.666170e+003;3.281685e-002
3.668098e+003;3.146033e-002
3.670027e+003;3.040357e-002
3.671955e+003;3.106086e-002
3.673884e+003;3.065151e-002
3.675813e+003;2.980104e-002
3.677741e+003;3.011063e-002
3.679669e+003;3.042664e-002
3.681598e+003;3.071972e-002
3.683527e+003;3.070770e-002
3.685455e+003;2.954422e-002
3.687384e+003;2.741991e-002
3.689312e+003;2.739263e-002
3.691241e+003;2.846278e-002
3.693169e+003;2.904496e-002
3.695098e+003;2.918655e-002
3.697026e+003;2.903267e-002
3.698955e+003;2.867945e-002
3.700884e+003;2.796493e-002
3.702812e+003;2.782205e-002
3.704741e+003;2.785409e-002
3.706669e+003;2.738426e-002
3.708598e+003;2.645901e-002
3.710526e+003;2.586410e-002
3.712455e+003;2.629385e-002
3.714383e+003;2.671066e-002
3.716312e+003;2.646433e-002
3.718240e+003;2.650332e-002
3.720169e+003;2.639207e-002
3.722098e+003;2.608902e-002
3.724026e+003;2.589829e-002
3.725955e+003;2.564841e-002
3.727883e+003;2.608114e-002
3.729812e+003;2.582809e-002
3.731740e+003;2.474091e-002
3.733669e+003;2.416887e-002
3.735597e+003;2.409304e-002
3.737526e+003;2.470696e-002
3.739455e+003;2.554673e-002
3.741383e+003;2.533758e-002
3.743312e+003;2.290919e-002
3.745240e+003;2.268595e-002
3.747169e+003;2.445264e-002
3.749097e+003;2.402405e-002
3.751026e+003;2.338102e-002
3.752954e+003;2.407710e-002
3.754883e+003;2.513573e-002
3.756812e+003;2.515178e-002
3.758740e+003;2.541135e-002
3.760668e+003;2.573566e-002
3.762597e+003;2.561466e-002
3.764526e+003;2.501354e-002
3.766454e+003;2.529656e-002
3.768383e+003;2.529695e-002
3.770311e+003;2.522794e-002
3.772240e+003;2.560433e-002
3.774168e+003;2.571498e-002
3.776097e+003;2.547554e-002
3.778025e+003;2.510617e-002
3.779954e+003;2.549954e-002
3.781883e+003;2.608951e-002
3.783811e+003;2.555608e-002
3.785740e+003;2.552213e-002
3.787668e+003;2.578892e-002
3.789597e+003;2.588457e-002
3.791525e+003;2.576987e-002
3.793454e+003;2.534847e-002
3.795382e+003;2.506159e-002
3.797311e+003;2.512085e-002
3.799240e+003;2.399813e-002
3.801168e+003;2.322754e-002
3.803097e+003;2.497693e-002
3.805025e+003;2.534545e-002
3.806954e+003;2.463278e-002
3.808882e+003;2.545969e-002
3.810811e+003;2.598612e-002
3.812739e+003;2.586882e-002
3.814668e+003;2.436207e-002
3.816596e+003;2.411570e-002
3.818525e+003;2.469903e-002
3.820454e+003;2.375708e-002
3.822382e+003;2.415178e-002
3.824311e+003;2.520768e-002
3.826239e+003;2.541978e-002
3.828168e+003;2.566837e-002
3.830096e+003;2.552659e-002
3.832025e+003;2.520336e-002
3.833953e+003;2.489022e-002
3.835882e+003;2.399929e-002
3.837811e+003;2.349751e-002
3.839739e+003;2.452114e-002
3.841667e+003;2.531844e-002
3.843596e+003;2.607773e-002
3.845525e+003;2.676190e-002
3.847453e+003;2.667473e-002
3.849382e+003;2.570743e-002
3.851310e+003;2.366473e-002
3.853239e+003;2.197641e-002
3.855167e+003;2.362817e-002
3.857096e+003;2.592277e-002
3.859024e+003;2.696356e-002
3.860953e+003;2.620170e-002
3.862882e+003;2.547080e-002
3.864810e+003;2.552399e-002
3.866739e+003;2.547845e-002
3.868667e+003;2.492850e-002
3.870596e+003;2.558855e-002
3.872524e+003;2.637077e-002
3.874453e+003;2.668336e-002
3.876381e+003;2.735578e-002
3.878310e+003;2.696835e-002
3.880239e+003;2.635584e-002
3.882167e+003;2.669382e-002
3.884096e+003;2.682224e-002
3.886024e+003;2.688311e-002
3.887953e+003;2.703961e-002
3.889881e+003;2.652417e-002
3.891810e+003;2.676754e-002
3.893738e+003;2.733938e-002
3.895667e+003;2.791271e-002
3.897595e+003;2.829016e-002
3.899524e+003;2.768875e-002
3.901453e+003;2.709663e-002
3.903381e+003;2.684754e-002
3.905310e+003;2.690750e-002
3.907238e+003;2.760001e-002
3.909167e+003;2.826152e-002
3.911095e+003;2.860159e-002
3.913024e+003;2.861185e-002
3.914952e+003;2.908531e-002
3.916881e+003;2.904277e-002
3.918810e+003;2.874504e-002
3.920738e+003;2.900670e-002
3.922667e+003;2.894861e-002
3.924595e+003;2.868646e-002
3.926524e+003;2.877864e-002
3.928452e+003;2.905679e-002
3.930381e+003;2.951979e-002
3.932309e+003;2.941163e-002
3.934238e+003;2.956146e-002
3.936167e+003;2.983518e-002
3.938095e+003;2.995228e-002
3.940023e+003;3.002364e-002
3.941952e+003;3.006767e-002
3.943881e+003;3.028703e-002
3.945809e+003;2.988891e-002
3.947738e+003;2.975711e-002
3.949666e+003;3.042465e-002
3.951595e+003;3.048869e-002
3.953523e+003;3.030685e-002
3.955452e+003;3.023523e-002
3.957380e+003;3.031215e-002
3.959309e+003;3.014548e-002
3.961238e+003;3.026148e-002
3.963166e+003;3.057273e-002
3.965095e+003;3.042330e-002
3.967023e+003;3.057514e-002
3.968952e+003;3.058311e-002
3.970880e+003;3.074724e-002
3.972809e+003;3.097940e-002
3.974737e+003;3.068529e-002
3.976666e+003;3.068864e-002
3.978594e+003;3.039188e-002
3.980523e+003;3.019836e-002
3.982452e+003;3.061429e-002
3.984380e+003;3.048041e-002
3.986309e+003;3.064878e-002
3.988237e+003;3.079320e-002
3.990166e+003;3.082645e-002
3.992094e+003;3.069173e-002
3.994023e+003;3.053721e-002
3.995951e+003;3.081916e-002
3.997880e+003;3.093670e-002
3.999809e+003;3.118441e-002
4.001737e+003;0.000000e+000
