3.992094e+002;0.000000e+000
4.011380e+002;0.000000e+000
4.030665e+002;0.000000e+000
4.049951e+002;0.000000e+000
4.069236e+002;0.000000e+000
4.088522e+002;0.000000e+000
4.107807e+002;0.000000e+000
4.127093e+002;0.000000e+000
4.146378e+002;0.000000e+000
4.165664e+002;0.000000e+000
4.184949e+002;0.000000e+000
4.204235e+002;0.000000e+000
4.223520e+002;0.000000e+000
4.242806e+002;0.000000e+000
4.262091e+002;0.000000e+000
4.281377e+002;0.000000e+000
4.300662e+002;0.000000e+000
4.319948e+002;0.000000e+000
4.339233e+002;0.000000e+000
4.358519e+002;0.000000e+000
4.377804e+002;0.000000e+000
4.397090e+002;0.000000e+000
4.416375e+002;0.000000e+000
4.435660e+002;0.000000e+000
4.454946e+002;0.000000e+000
4.474232e+002;0.000000e+000
4.493517e+002;0.000000e+000
4.512802e+002;0.000000e+000
4.532088e+002;0.000000e+000
4.551373e+002;0.000000e+000
4.570659e+002;0.000000e+000
4.589944e+002;0.000000e+000
4.609230e+002;0.000000e+000
4.628515e+002;0.000000e+000
4.647801e+002;0.000000e+000
4.667086e+002;0.000000e+000
4.686372e+002;0.000000e+000
4.705657e+002;0.000000e+000
4.724943e+002;0.000000e+000
4.744228e+002;0.000000e+000
4.763513e+002;0.000000e+000
4.782799e+002;0.000000e+000
4.802085e+002;0.000000e+000
4.821370e+002;0.000000e+000
4.840656e+002;0.000000e+000
4.859941e+002;0.000000e+000
4.879226e+002;0.000000e+000
4.898512e+002;0.000000e+000
4.917798e+002;0.000000e+000
4.937083e+002;0.000000e+000
4.956368e+002;0.000000e+000
4.975654e+002;0.000000e+000
4.994939e+002;0.000000e+000
5.014225e+002;0.000000e+000
5.033510e+002;0.000000e+000
5.052796e+002;0.000000e+000
5.072081e+002;0.000000e+000
5.091367e+002;0.000000e+000
5.110652e+002;0.000000e+000
5.129938e+002;0.000000e+000
5.149223e+002;0.000000e+000
5.168509e+002;0.000000e+000
5.187794e+002;0.000000e+000
5.207079e+002;0.000000e+000
5.226365e+002;0.000000e+000
5.245651e+002;0.000000e+000
5.264936e+002;0.000000e+000
5.284222e+002;0.000000e+000
5.303507e+002;0.000000e+000
5.322792e+002;0.000000e+000
5.342078e+002;0.000000e+000
5.361364e+002;0.000000e+000
5.380649e+002;0.000000e+000
5.399935e+002;0.000000e+000
5.419220e+002;0.000000e+000
5.438505e+002;0.000000e+000
5.457791e+002;0.000000e+000
5.477076e+002;0.000000e+000
5.496362e+002;0.000000e+000
5.515648e+002;0.000000e+000
5.534933e+002;0.000000e+000
5.554218e+002;0.000000e+000
5.573504e+002;0.000000e+000
5.592789e+002;0.000000e+000
5.612075e+002;0.000000e+000
5.631360e+002;0.000000e+000
5.650646e+002;0.000000e+000
5.669931e+002;0.000000e+000
5.689217e+002;0.000000e+000
5.708502e+002;0.000000e+000
5.727787e+002;0.000000e+000
5.747073e+002;0.000000e+000
5.766359e+002;0.000000e+000
5.785644e+002;0.000000e+000
5.804930e+002;0.000000e+000
5.824215e+002;0.000000e+000
5.843500e+002;0.000000e+000
5.862786e+002;0.000000e+000
5.882072e+002;0.000000e+000
5.901357e+002;0.000000e+000
5.920643e+002;0.000000e+000
5.939928e+002;0.000000e+000
5.959213e+002;0.000000e+000
5.978499e+002;0.000000e+000
5.997784e+002;2.062793e-001
6.017070e+002;2.218268e-001
6.036355e+002;2.317708e-001
6.055641e+002;2.302021e-001
6.074926e+002;2.257938e-001
6.094211e+002;2.223289e-001
6.113497e+002;2.193306e-001
6.132783e+002;2.205839e-001
6.152068e+002;2.250893e-001
6.171354e+002;2.238009e-001
6.190639e+002;2.193957e-001
6.209924e+002;2.175196e-001
6.229210e+002;2.103032e-001
6.248495e+002;2.122504e-001
6.267781e+002;2.132648e-001
6.287067e+002;2.064891e-001
6.306352e+002;2.022792e-001
6.325637e+002;1.996144e-001
6.344923e+002;2.015813e-001
6.364208e+002;2.025791e-001
6.383494e+002;2.023779e-001
6.402780e+002;2.037199e-001
6.422065e+002;2.065063e-001
6.441350e+002;2.017769e-001
6.460636e+002;1.967544e-001
6.479921e+002;1.999714e-001
6.499207e+002;2.020295e-001
6.518492e+002;2.019300e-001
6.537778e+002;1.999105e-001
6.557063e+002;2.031225e-001
6.576349e+002;2.089681e-001
6.595634e+002;2.087323e-001
6.614919e+002;2.070747e-001
6.634205e+002;2.079387e-001
6.653491e+002;2.089893e-001
6.672776e+002;2.081784e-001
6.692062e+002;2.090235e-001
6.711347e+002;2.084580e-001
6.730632e+002;2.014717e-001
6.749918e+002;1.900950e-001
6.769203e+002;1.790503e-001
6.788489e+002;1.714166e-001
6.807775e+002;1.676814e-001
6.827060e+002;1.645260e-001
6.846345e+002;1.609195e-001
6.865631e+002;1.580188e-001
6.884916e+002;1.575951e-001
6.904202e+002;1.582200e-001
6.923488e+002;1.582498e-001
6.942773e+002;1.568327e-001
6.962058e+002;1.554390e-001
6.981344e+002;1.542752e-001
7.000629e+002;1.533499e-001
7.019915e+002;1.524426e-001
7.039200e+002;1.515307e-001
7.058486e+002;1.510179e-001
7.077771e+002;1.506572e-001
7.097057e+002;1.503481e-001
7.116342e+002;1.498936e-001
7.135627e+002;1.497173e-001
7.154913e+002;1.481342e-001
7.174199e+002;1.450025e-001
7.193484e+002;1.440957e-001
7.212770e+002;1.442304e-001
7.232055e+002;1.441400e-001
7.251340e+002;1.421529e-001
7.270626e+002;1.409309e-001
7.289911e+002;1.402042e-001
7.309197e+002;1.384387e-001
7.328483e+002;1.380069e-001
7.347768e+002;1.370025e-001
7.367053e+002;1.349889e-001
7.386339e+002;1.335874e-001
7.405624e+002;1.319846e-001
7.424910e+002;1.304855e-001
7.444196e+002;1.299880e-001
7.463481e+002;1.311291e-001
7.482766e+002;1.301912e-001
7.502052e+002;1.283149e-001
7.521337e+002;1.275930e-001
7.540623e+002;1.269286e-001
7.559908e+002;1.258550e-001
7.579194e+002;1.247352e-001
7.598479e+002;1.243242e-001
7.617765e+002;1.228551e-001
7.637050e+002;1.216524e-001
7.656335e+002;1.217640e-001
7.675621e+002;1.214235e-001
7.694907e+002;1.208735e-001
7.714192e+002;1.193776e-001
7.733478e+002;1.173810e-001
7.752763e+002;1.162236e-001
7.772048e+002;1.151003e-001
7.791334e+002;1.144151e-001
7.810620e+002;1.142990e-001
7.829905e+002;1.138221e-001
7.849191e+002;1.134434e-001
7.868476e+002;1.130280e-001
7.887761e+002;1.126797e-001
7.907047e+002;1.116580e-001
7.926332e+002;1.105083e-001
7.945618e+002;1.092532e-001
7.964903e+002;1.092446e-001
7.984189e+002;1.095830e-001
8.003474e+002;1.095980e-001
8.022759e+002;1.098692e-001
8.042045e+002;1.101134e-001
8.061331e+002;1.099322e-001
8.080616e+002;1.097273e-001
8.099902e+002;1.094531e-001
8.119187e+002;1.092967e-001
8.138472e+002;1.090178e-001
8.157758e+002;1.088850e-001
8.177043e+002;1.086655e-001
8.196329e+002;1.077329e-001
8.215615e+002;1.073171e-001
8.234900e+002;1.074807e-001
8.254185e+002;1.071836e-001
8.273471e+002;1.064393e-001
8.292756e+002;1.055151e-001
8.312042e+002;1.052213e-001
8.331328e+002;1.051788e-001
8.350613e+002;1.055217e-001
8.369898e+002;1.055721e-001
8.389184e+002;1.041279e-001
8.408469e+002;1.027432e-001
8.427755e+002;1.025700e-001
8.447040e+002;1.025622e-001
8.466326e+002;1.018860e-001
8.485611e+002;1.017556e-001
8.504897e+002;1.021005e-001
8.524182e+002;1.025470e-001
8.543467e+002;1.021658e-001
8.562753e+002;1.025164e-001
8.582039e+002;1.039660e-001
8.601324e+002;1.057780e-001
8.620610e+002;1.072579e-001
8.639895e+002;1.078439e-001
8.659180e+002;1.085551e-001
8.678466e+002;1.104221e-001
8.697751e+002;1.124224e-001
8.717037e+002;1.150623e-001
8.736323e+002;1.188816e-001
8.755608e+002;1.233441e-001
8.774893e+002;1.279874e-001
8.794179e+002;1.326019e-001
8.813464e+002;1.372796e-001
8.832750e+002;1.424216e-001
8.852036e+002;1.478090e-001
8.871321e+002;1.533939e-001
8.890606e+002;1.585200e-001
8.909892e+002;1.625666e-001
8.929177e+002;1.663102e-001
8.948463e+002;1.682518e-001
8.967748e+002;1.667094e-001
8.987034e+002;1.637354e-001
9.006319e+002;1.605829e-001
9.025605e+002;1.576762e-001
9.044890e+002;1.542462e-001
9.064175e+002;1.508488e-001
9.083461e+002;1.476548e-001
9.102747e+002;1.449086e-001
9.122032e+002;1.429592e-001
9.141318e+002;1.415549e-001
9.160603e+002;1.405356e-001
9.179888e+002;1.405736e-001
9.199174e+002;1.413024e-001
9.218459e+002;1.418216e-001
9.237745e+002;1.427255e-001
9.257031e+002;1.442843e-001
9.276316e+002;1.460884e-001
9.295601e+002;1.482774e-001
9.314887e+002;1.503657e-001
9.334172e+002;1.520862e-001
9.353458e+002;1.538862e-001
9.372744e+002;1.555972e-001
9.392029e+002;1.574079e-001
9.411314e+002;1.601793e-001
9.430600e+002;1.635808e-001
9.449885e+002;1.670858e-001
9.469171e+002;1.707459e-001
9.488456e+002;1.750445e-001
9.507742e+002;1.799561e-001
9.527027e+002;1.850066e-001
9.546313e+002;1.903574e-001
9.565598e+002;1.964869e-001
9.584883e+002;2.022633e-001
9.604169e+002;2.077219e-001
9.623455e+002;2.135229e-001
9.642740e+002;2.190621e-001
9.662026e+002;2.247271e-001
9.681311e+002;2.313510e-001
9.700596e+002;2.380107e-001
9.719882e+002;2.458527e-001
9.739167e+002;2.551423e-001
9.758453e+002;2.647052e-001
9.777739e+002;2.756709e-001
9.797024e+002;2.891548e-001
9.816309e+002;3.037451e-001
9.835595e+002;3.189342e-001
9.854880e+002;3.340496e-001
9.874166e+002;3.484935e-001
9.893452e+002;3.615356e-001
9.912737e+002;3.721926e-001
9.932022e+002;3.795739e-001
9.951307e+002;3.839824e-001
9.970593e+002;3.874923e-001
9.989879e+002;3.899328e-001
1.000916e+003;3.915592e-001
1.002845e+003;3.938919e-001
1.004773e+003;3.979113e-001
1.006702e+003;4.040960e-001
1.008631e+003;4.113557e-001
1.010559e+003;4.192595e-001
1.012488e+003;4.269328e-001
1.014416e+003;4.329148e-001
1.016345e+003;4.379470e-001
1.018273e+003;4.420514e-001
1.020202e+003;4.438084e-001
1.022130e+003;4.442062e-001
1.024059e+003;4.426318e-001
1.025988e+003;4.391333e-001
1.027916e+003;4.343061e-001
1.029845e+003;4.299915e-001
1.031773e+003;4.260897e-001
1.033702e+003;4.210813e-001
1.035630e+003;4.168061e-001
1.037559e+003;4.134427e-001
1.039487e+003;4.096984e-001
1.041416e+003;4.073176e-001
1.043344e+003;4.057809e-001
1.045273e+003;4.034684e-001
1.047202e+003;4.001520e-001
1.049130e+003;3.963492e-001
1.051059e+003;3.927550e-001
1.052987e+003;3.892786e-001
1.054916e+003;3.862966e-001
1.056844e+003;3.832174e-001
1.058773e+003;3.780342e-001
1.060701e+003;3.727945e-001
1.062630e+003;3.664418e-001
1.064558e+003;3.589287e-001
1.066487e+003;3.516319e-001
1.068416e+003;3.449185e-001
1.070344e+003;3.373741e-001
1.072273e+003;3.301920e-001
1.074201e+003;3.240731e-001
1.076130e+003;3.164351e-001
1.078058e+003;3.084626e-001
1.079987e+003;3.018779e-001
1.081915e+003;2.962977e-001
1.083844e+003;2.916405e-001
1.085773e+003;2.862561e-001
1.087701e+003;2.803276e-001
1.089630e+003;2.751831e-001
1.091558e+003;2.705185e-001
1.093487e+003;2.661439e-001
1.095415e+003;2.616426e-001
1.097344e+003;2.566382e-001
1.099272e+003;2.503322e-001
1.101201e+003;2.430768e-001
1.103129e+003;2.373388e-001
1.105058e+003;2.326241e-001
1.106987e+003;2.279298e-001
1.108915e+003;2.231937e-001
1.110844e+003;2.184570e-001
1.112772e+003;2.145265e-001
1.114701e+003;2.098010e-001
1.116629e+003;2.042231e-001
1.118558e+003;1.988258e-001
1.120486e+003;1.929162e-001
1.122415e+003;1.868636e-001
1.124344e+003;1.813500e-001
1.126272e+003;1.759940e-001
1.128201e+003;1.704842e-001
1.130129e+003;1.655011e-001
1.132058e+003;1.613927e-001
1.133986e+003;1.570954e-001
1.135915e+003;1.533855e-001
1.137843e+003;1.504846e-001
1.139772e+003;1.482421e-001
1.141700e+003;1.470736e-001
1.143629e+003;1.467641e-001
1.145557e+003;1.470496e-001
1.147486e+003;1.474894e-001
1.149415e+003;1.486380e-001
1.151343e+003;1.504352e-001
1.153272e+003;1.516900e-001
1.155200e+003;1.515393e-001
1.157129e+003;1.501200e-001
1.159057e+003;1.476581e-001
1.160986e+003;1.443854e-001
1.162914e+003;1.398684e-001
1.164843e+003;1.336201e-001
1.166771e+003;1.271754e-001
1.168700e+003;1.212388e-001
1.170629e+003;1.155391e-001
1.172557e+003;1.101714e-001
1.174486e+003;1.053637e-001
1.176414e+003;1.013838e-001
1.178343e+003;9.831493e-002
1.180271e+003;9.608295e-002
1.182200e+003;9.431765e-002
1.184128e+003;9.332517e-002
1.186057e+003;9.365255e-002
1.187986e+003;9.496964e-002
1.189914e+003;9.761178e-002
1.191843e+003;1.005672e-001
1.193771e+003;1.030361e-001
1.195700e+003;1.049993e-001
1.197628e+003;1.060359e-001
1.199557e+003;1.059521e-001
1.201485e+003;1.053089e-001
1.203414e+003;1.046440e-001
1.205343e+003;1.029788e-001
1.207271e+003;1.003990e-001
1.209200e+003;9.841549e-002
1.211128e+003;9.764434e-002
1.213057e+003;9.794436e-002
1.214985e+003;9.885710e-002
1.216914e+003;9.986938e-002
1.218842e+003;1.010713e-001
1.220771e+003;1.027159e-001
1.222699e+003;1.048060e-001
1.224628e+003;1.068548e-001
1.226557e+003;1.081973e-001
1.228485e+003;1.090465e-001
1.230414e+003;1.097283e-001
1.232342e+003;1.105139e-001
1.234271e+003;1.109266e-001
1.236199e+003;1.108563e-001
1.238128e+003;1.106113e-001
1.240056e+003;1.106566e-001
1.241985e+003;1.108499e-001
1.243913e+003;1.106948e-001
1.245842e+003;1.106561e-001
1.247771e+003;1.111416e-001
1.249699e+003;1.117850e-001
1.251628e+003;1.131249e-001
1.253556e+003;1.146038e-001
1.255485e+003;1.155557e-001
1.257413e+003;1.163602e-001
1.259342e+003;1.170221e-001
1.261270e+003;1.172493e-001
1.263199e+003;1.169009e-001
1.265127e+003;1.165310e-001
1.267056e+003;1.156362e-001
1.268985e+003;1.143597e-001
1.270913e+003;1.129097e-001
1.272842e+003;1.118912e-001
1.274770e+003;1.115343e-001
1.276699e+003;1.110918e-001
1.278627e+003;1.098907e-001
1.280556e+003;1.089383e-001
1.282484e+003;1.086720e-001
1.284413e+003;1.089043e-001
1.286342e+003;1.094808e-001
1.288270e+003;1.106141e-001
1.290199e+003;1.120264e-001
1.292127e+003;1.134409e-001
1.294056e+003;1.149008e-001
1.295984e+003;1.164610e-001
1.297913e+003;1.179207e-001
1.299841e+003;1.190936e-001
1.301770e+003;1.204628e-001
1.303698e+003;1.224113e-001
1.305627e+003;1.241533e-001
1.307556e+003;1.256905e-001
1.309484e+003;1.274926e-001
1.311413e+003;1.288026e-001
1.313341e+003;1.295381e-001
1.315270e+003;1.300830e-001
1.317198e+003;1.302954e-001
1.319127e+003;1.298184e-001
1.321055e+003;1.289656e-001
1.322984e+003;1.283698e-001
1.324912e+003;1.281440e-001
1.326841e+003;1.281431e-001
1.328770e+003;1.285008e-001
1.330698e+003;1.289353e-001
1.332627e+003;1.289914e-001
1.334555e+003;1.290011e-001
1.336484e+003;1.290171e-001
1.338412e+003;1.286388e-001
1.340341e+003;1.280902e-001
1.342269e+003;1.276896e-001
1.344198e+003;1.276596e-001
1.346126e+003;1.279915e-001
1.348055e+003;1.282921e-001
1.349984e+003;1.286701e-001
1.351912e+003;1.289675e-001
1.353841e+003;1.297828e-001
1.355769e+003;1.309342e-001
1.357698e+003;1.318764e-001
1.359626e+003;1.325573e-001
1.361555e+003;1.331194e-001
1.363483e+003;1.334259e-001
1.365412e+003;1.333783e-001
1.367341e+003;1.332383e-001
1.369269e+003;1.330879e-001
1.371198e+003;1.318244e-001
1.373126e+003;1.298795e-001
1.375055e+003;1.280666e-001
1.376983e+003;1.261116e-001
1.378912e+003;1.240560e-001
1.380840e+003;1.220893e-001
1.382769e+003;1.200098e-001
1.384698e+003;1.179389e-001
1.386626e+003;1.159509e-001
1.388555e+003;1.148849e-001
1.390483e+003;1.145118e-001
1.392412e+003;1.137736e-001
1.394340e+003;1.128187e-001
1.396269e+003;1.126654e-001
1.398197e+003;1.126842e-001
1.400126e+003;1.129586e-001
1.402054e+003;1.129155e-001
1.403983e+003;1.124063e-001
1.405911e+003;1.125700e-001
1.407840e+003;1.128767e-001
1.409769e+003;1.129561e-001
1.411697e+003;1.129302e-001
1.413626e+003;1.131191e-001
1.415554e+003;1.130769e-001
1.417483e+003;1.118908e-001
1.419411e+003;1.108455e-001
1.421340e+003;1.116918e-001
1.423268e+003;1.118631e-001
1.425197e+003;1.116711e-001
1.427125e+003;1.114080e-001
1.429054e+003;1.104951e-001
1.430983e+003;1.099597e-001
1.432911e+003;1.095576e-001
1.434840e+003;1.079452e-001
1.436768e+003;1.061375e-001
1.438697e+003;1.061555e-001
1.440625e+003;1.060140e-001
1.442554e+003;1.049102e-001
1.444482e+003;1.037628e-001
1.446411e+003;1.024517e-001
1.448340e+003;1.009643e-001
1.450268e+003;9.975054e-002
1.452197e+003;9.840893e-002
1.454125e+003;9.618858e-002
1.456054e+003;9.269603e-002
1.457982e+003;9.202780e-002
1.459911e+003;9.344279e-002
1.461839e+003;9.286399e-002
1.463768e+003;9.079620e-002
1.465697e+003;8.945228e-002
1.467625e+003;8.896197e-002
1.469554e+003;8.776368e-002
1.471482e+003;8.550780e-002
1.473411e+003;8.389553e-002
1.475339e+003;8.293898e-002
1.477268e+003;8.179273e-002
1.479196e+003;8.062979e-002
1.481125e+003;7.870293e-002
1.483053e+003;7.678139e-002
1.484982e+003;7.472987e-002
1.486911e+003;7.259827e-002
1.488839e+003;7.061437e-002
1.490768e+003;6.939307e-002
1.492696e+003;6.890955e-002
1.494625e+003;6.705206e-002
1.496553e+003;6.507664e-002
1.498482e+003;6.461243e-002
1.500410e+003;6.460612e-002
1.502339e+003;6.425960e-002
1.504267e+003;6.182838e-002
1.506196e+003;5.890620e-002
1.508125e+003;5.953673e-002
1.510053e+003;6.118834e-002
1.511982e+003;6.127398e-002
1.513910e+003;6.085201e-002
1.515839e+003;5.991886e-002
1.517767e+003;5.923776e-002
1.519696e+003;5.791141e-002
1.521624e+003;5.695165e-002
1.523553e+003;5.831561e-002
1.525481e+003;5.909985e-002
1.527410e+003;5.931877e-002
1.529339e+003;5.955231e-002
1.531267e+003;5.909617e-002
1.533196e+003;5.827915e-002
1.535124e+003;5.879013e-002
1.537053e+003;5.794000e-002
1.538981e+003;5.503245e-002
1.540910e+003;5.505024e-002
1.542838e+003;5.711238e-002
1.544767e+003;5.837484e-002
1.546695e+003;5.947338e-002
1.548624e+003;5.959648e-002
1.550553e+003;5.962338e-002
1.552481e+003;5.944979e-002
1.554410e+003;5.880326e-002
1.556338e+003;5.762093e-002
1.558267e+003;5.505520e-002
1.560195e+003;5.631422e-002
1.562124e+003;5.977651e-002
1.564052e+003;6.046852e-002
1.565981e+003;6.042618e-002
1.567910e+003;6.022748e-002
1.569838e+003;6.011338e-002
1.571767e+003;6.120157e-002
1.573695e+003;6.083604e-002
1.575624e+003;5.897090e-002
1.577552e+003;5.989752e-002
1.579481e+003;6.158487e-002
1.581409e+003;6.208530e-002
1.583338e+003;6.235297e-002
1.585266e+003;6.246892e-002
1.587195e+003;6.276052e-002
1.589124e+003;6.290618e-002
1.591052e+003;6.311408e-002
1.592981e+003;6.369335e-002
1.594909e+003;6.422518e-002
1.596838e+003;6.442717e-002
1.598766e+003;6.450178e-002
1.600695e+003;6.469522e-002
1.602623e+003;6.534465e-002
1.604552e+003;6.625720e-002
1.606480e+003;6.675169e-002
1.608409e+003;6.704579e-002
1.610338e+003;6.753383e-002
1.612266e+003;6.797282e-002
1.614195e+003;6.759147e-002
1.616123e+003;6.641883e-002
1.618052e+003;6.773094e-002
1.619980e+003;6.935486e-002
1.621909e+003;6.917722e-002
1.623837e+003;6.945566e-002
1.625766e+003;7.049505e-002
1.627694e+003;7.118699e-002
1.629623e+003;7.173005e-002
1.631552e+003;7.200763e-002
1.633480e+003;7.119687e-002
1.635409e+003;7.005157e-002
1.637337e+003;7.131063e-002
1.639266e+003;7.258140e-002
1.641194e+003;7.255888e-002
1.643123e+003;7.217177e-002
1.645051e+003;7.047479e-002
1.646980e+003;7.005596e-002
1.648909e+003;7.095385e-002
1.650837e+003;6.845003e-002
1.652766e+003;6.458990e-002
1.654694e+003;6.662953e-002
1.656623e+003;6.924529e-002
1.658551e+003;6.902073e-002
1.660480e+003;6.775135e-002
1.662408e+003;6.670076e-002
1.664337e+003;6.638968e-002
1.666266e+003;6.549296e-002
1.668194e+003;6.345619e-002
1.670123e+003;6.206630e-002
1.672051e+003;6.157169e-002
1.673980e+003;6.020293e-002
1.675908e+003;5.906378e-002
1.677837e+003;5.878934e-002
1.679765e+003;5.755298e-002
1.681694e+003;5.529640e-002
1.683622e+003;5.156325e-002
1.685551e+003;5.109391e-002
1.687479e+003;5.252422e-002
1.689408e+003;5.180095e-002
1.691337e+003;5.082270e-002
1.693265e+003;4.887849e-002
1.695194e+003;4.580539e-002
1.697122e+003;4.497061e-002
1.699051e+003;4.325331e-002
1.700979e+003;4.239627e-002
1.702908e+003;4.383211e-002
1.704836e+003;4.331166e-002
1.706765e+003;4.287455e-002
1.708693e+003;4.220087e-002
1.710622e+003;4.130695e-002
1.712551e+003;4.037268e-002
1.714479e+003;3.866423e-002
1.716408e+003;3.689837e-002
1.718336e+003;3.748364e-002
1.720265e+003;3.943098e-002
1.722193e+003;4.016415e-002
1.724122e+003;4.021773e-002
1.726050e+003;3.991581e-002
1.727979e+003;3.899623e-002
1.729908e+003;3.785845e-002
1.731836e+003;3.602295e-002
1.733765e+003;3.372042e-002
1.735693e+003;3.429636e-002
1.737622e+003;3.476759e-002
1.739550e+003;3.334931e-002
1.741479e+003;3.274778e-002
1.743407e+003;3.245165e-002
1.745336e+003;3.227881e-002
1.747265e+003;3.199426e-002
1.749193e+003;3.192825e-002
1.751122e+003;3.227970e-002
1.753050e+003;3.382076e-002
1.754979e+003;3.466211e-002
1.756907e+003;3.479545e-002
1.758836e+003;3.510543e-002
1.760764e+003;3.503082e-002
1.762693e+003;3.525368e-002
1.764621e+003;3.578189e-002
1.766550e+003;3.543346e-002
1.768479e+003;3.483171e-002
1.770407e+003;3.415744e-002
1.772336e+003;3.371626e-002
1.774264e+003;3.460265e-002
1.776193e+003;3.535664e-002
1.778121e+003;3.545256e-002
1.780050e+003;3.521559e-002
1.781978e+003;3.515612e-002
1.783907e+003;3.501538e-002
1.785835e+003;3.497358e-002
1.787764e+003;3.511039e-002
1.789693e+003;3.453706e-002
1.791621e+003;3.333299e-002
1.793550e+003;3.334583e-002
1.795478e+003;3.428958e-002
1.797407e+003;3.420013e-002
1.799335e+003;3.383509e-002
1.801264e+003;3.375558e-002
1.803192e+003;3.395610e-002
1.805121e+003;3.413797e-002
1.807049e+003;3.402809e-002
1.808978e+003;3.367376e-002
1.810907e+003;3.338995e-002
1.812835e+003;3.330301e-002
1.814764e+003;3.321272e-002
1.816692e+003;3.279623e-002
1.818621e+003;3.293208e-002
1.820549e+003;3.327425e-002
1.822478e+003;3.287914e-002
1.824406e+003;3.217934e-002
1.826335e+003;3.208059e-002
1.828264e+003;3.177368e-002
1.830192e+003;3.139155e-002
1.832121e+003;3.180217e-002
1.834049e+003;3.190696e-002
1.835978e+003;3.163050e-002
1.837906e+003;3.162858e-002
1.839835e+003;3.147042e-002
1.841763e+003;3.063519e-002
1.843692e+003;2.969271e-002
1.845620e+003;3.023335e-002
1.847549e+003;3.073256e-002
1.849478e+003;3.065606e-002
1.851406e+003;3.067939e-002
1.853335e+003;3.072260e-002
1.855263e+003;3.065599e-002
1.857192e+003;3.040602e-002
1.859120e+003;3.018767e-002
1.861049e+003;3.026493e-002
1.862977e+003;3.006824e-002
1.864906e+003;2.986875e-002
1.866834e+003;2.965915e-002
1.868763e+003;2.935079e-002
1.870692e+003;2.949049e-002
1.872620e+003;2.969736e-002
1.874549e+003;2.966844e-002
1.876477e+003;2.949471e-002
1.878406e+003;2.936157e-002
1.880334e+003;2.930985e-002
1.882263e+003;2.925587e-002
1.884191e+003;2.918438e-002
1.886120e+003;2.909708e-002
1.888048e+003;2.895517e-002
1.889977e+003;2.886674e-002
1.891906e+003;2.920402e-002
1.893834e+003;2.941138e-002
1.895763e+003;2.947783e-002
1.897691e+003;2.946492e-002
1.899620e+003;2.927575e-002
1.901548e+003;2.928894e-002
1.903477e+003;2.945684e-002
1.905405e+003;2.944152e-002
1.907334e+003;2.918995e-002
1.909262e+003;2.907447e-002
1.911191e+003;2.931400e-002
1.913120e+003;2.948634e-002
1.915048e+003;2.959200e-002
1.916977e+003;2.928575e-002
1.918905e+003;2.956469e-002
1.920834e+003;3.006302e-002
1.922762e+003;2.999420e-002
1.924691e+003;2.998863e-002
1.926619e+003;3.007328e-002
1.928548e+003;3.007314e-002
1.930477e+003;3.017666e-002
1.932405e+003;3.011135e-002
1.934334e+003;3.007566e-002
1.936262e+003;3.004043e-002
1.938191e+003;3.008045e-002
1.940119e+003;3.008382e-002
1.942048e+003;3.015300e-002
1.943976e+003;3.052434e-002
1.945905e+003;3.071673e-002
1.947833e+003;3.075172e-002
1.949762e+003;3.090390e-002
1.951691e+003;3.115177e-002
1.953619e+003;3.136096e-002
1.955548e+003;3.146023e-002
1.957476e+003;3.158892e-002
1.959405e+003;3.157737e-002
1.961333e+003;3.150084e-002
1.963262e+003;3.151506e-002
1.965190e+003;3.148627e-002
1.967119e+003;3.160071e-002
1.969047e+003;3.177408e-002
1.970976e+003;3.153683e-002
1.972905e+003;3.162081e-002
1.974833e+003;3.208269e-002
1.976762e+003;3.219241e-002
1.978690e+003;3.223202e-002
1.980619e+003;3.235151e-002
1.982547e+003;3.250196e-002
1.984476e+003;3.265993e-002
1.986404e+003;3.233641e-002
1.988333e+003;3.204713e-002
1.990261e+003;3.226795e-002
1.992190e+003;3.269298e-002
1.994119e+003;3.264861e-002
1.996047e+003;3.236268e-002
1.997976e+003;3.243716e-002
1.999904e+003;3.259414e-002
2.001833e+003;3.279566e-002
2.003761e+003;3.277776e-002
2.005690e+003;3.278158e-002
2.007618e+003;3.319509e-002
2.009547e+003;3.329607e-002
2.011476e+003;3.316737e-002
2.013404e+003;3.312195e-002
2.015333e+003;3.316827e-002
2.017261e+003;3.331199e-002
2.019190e+003;3.366685e-002
2.021118e+003;3.387063e-002
2.023047e+003;3.394994e-002
2.024975e+003;3.415636e-002
2.026904e+003;3.430098e-002
2.028833e+003;3.428302e-002
2.030761e+003;3.427761e-002
2.032690e+003;3.408572e-002
2.034618e+003;3.393296e-002
2.036547e+003;3.390820e-002
2.038475e+003;3.395073e-002
2.040404e+003;3.391387e-002
2.042332e+003;3.412894e-002
2.044261e+003;3.443436e-002
2.046189e+003;3.428098e-002
2.048118e+003;3.407593e-002
2.050047e+003;3.425366e-002
2.051975e+003;3.427858e-002
2.053904e+003;3.419565e-002
2.055832e+003;3.408249e-002
2.057761e+003;3.411457e-002
2.059689e+003;3.402261e-002
2.061618e+003;3.388700e-002
2.063546e+003;3.392243e-002
2.065475e+003;3.414916e-002
2.067404e+003;3.408676e-002
2.069332e+003;3.388890e-002
2.071260e+003;3.382517e-002
2.073189e+003;3.365586e-002
2.075118e+003;3.342405e-002
2.077046e+003;3.360652e-002
2.078975e+003;3.385325e-002
2.080903e+003;3.368117e-002
2.082832e+003;3.341643e-002
2.084760e+003;3.340201e-002
2.086689e+003;3.345003e-002
2.088617e+003;3.347043e-002
2.090546e+003;3.352115e-002
2.092475e+003;3.360878e-002
2.094403e+003;3.364870e-002
2.096332e+003;3.361637e-002
2.098260e+003;3.357401e-002
2.100189e+003;3.340988e-002
2.102117e+003;3.354255e-002
2.104046e+003;3.392959e-002
2.105974e+003;3.417124e-002
2.107903e+003;3.446065e-002
2.109832e+003;3.452931e-002
2.111760e+003;3.434789e-002
2.113688e+003;3.426713e-002
2.115617e+003;3.423369e-002
2.117546e+003;3.418579e-002
2.119474e+003;3.451661e-002
2.121403e+003;3.468335e-002
2.123331e+003;3.477847e-002
2.125260e+003;3.489601e-002
2.127188e+003;3.470169e-002
2.129117e+003;3.448687e-002
2.131045e+003;3.450355e-002
2.132974e+003;3.465403e-002
2.134903e+003;3.487346e-002
2.136831e+003;3.467180e-002
2.138760e+003;3.436819e-002
2.140688e+003;3.437525e-002
2.142617e+003;3.431576e-002
2.144545e+003;3.432297e-002
2.146474e+003;3.439085e-002
2.148402e+003;3.438970e-002
2.150331e+003;3.426409e-002
2.152260e+003;3.406468e-002
2.154188e+003;3.389606e-002
2.156117e+003;3.367544e-002
2.158045e+003;3.367283e-002
2.159974e+003;3.351907e-002
2.161902e+003;3.348972e-002
2.163831e+003;3.375265e-002
2.165759e+003;3.376174e-002
2.167688e+003;3.365883e-002
2.169616e+003;3.355716e-002
2.171545e+003;3.337439e-002
2.173474e+003;3.341264e-002
2.175402e+003;3.340545e-002
2.177331e+003;3.320657e-002
2.179259e+003;3.292396e-002
2.181188e+003;3.272699e-002
2.183116e+003;3.253778e-002
2.185045e+003;3.269587e-002
2.186973e+003;3.274853e-002
2.188902e+003;3.262257e-002
2.190831e+003;3.239620e-002
2.192759e+003;3.206293e-002
2.194688e+003;3.180566e-002
2.196616e+003;3.158122e-002
2.198545e+003;3.164305e-002
2.200473e+003;3.181144e-002
2.202402e+003;3.165951e-002
2.204330e+003;3.175704e-002
2.206259e+003;3.168571e-002
2.208188e+003;3.126598e-002
2.210116e+003;3.126538e-002
2.212044e+003;3.106855e-002
2.213973e+003;3.105826e-002
2.215902e+003;3.136253e-002
2.217830e+003;3.107755e-002
2.219759e+003;3.076407e-002
2.221687e+003;3.084036e-002
2.223616e+003;3.064650e-002
2.225544e+003;3.043001e-002
2.227473e+003;3.039089e-002
2.229401e+003;3.061325e-002
2.231330e+003;3.074735e-002
2.233259e+003;3.067477e-002
2.235187e+003;3.059615e-002
2.237116e+003;3.049861e-002
2.239044e+003;3.029893e-002
2.240973e+003;3.014501e-002
2.242901e+003;3.007154e-002
2.244830e+003;3.007779e-002
2.246758e+003;3.008809e-002
2.248687e+003;3.006980e-002
2.250615e+003;3.008322e-002
2.252544e+003;2.969193e-002
2.254473e+003;2.931999e-002
2.256401e+003;2.951071e-002
2.258330e+003;2.974256e-002
2.260258e+003;2.978014e-002
2.262187e+003;2.972361e-002
2.264115e+003;2.933544e-002
2.266044e+003;2.899817e-002
2.267972e+003;2.917333e-002
2.269901e+003;2.943557e-002
2.271830e+003;2.926569e-002
2.273758e+003;2.893501e-002
2.275687e+003;2.871095e-002
2.277615e+003;2.878856e-002
2.279544e+003;2.883182e-002
2.281472e+003;2.874483e-002
2.283401e+003;2.879942e-002
2.285329e+003;2.861762e-002
2.287258e+003;2.827390e-002
2.289187e+003;2.830682e-002
2.291115e+003;2.843186e-002
2.293043e+003;2.863524e-002
2.294972e+003;2.882495e-002
2.296901e+003;2.881660e-002
2.298829e+003;2.854868e-002
2.300758e+003;2.805240e-002
2.302686e+003;2.805629e-002
2.304615e+003;2.852278e-002
2.306543e+003;2.844084e-002
2.308472e+003;2.829699e-002
2.310400e+003;2.838820e-002
2.312329e+003;2.825671e-002
2.314258e+003;2.819239e-002
2.316186e+003;2.788568e-002
2.318115e+003;2.766326e-002
2.320043e+003;2.747991e-002
2.321972e+003;2.706708e-002
2.323900e+003;2.693408e-002
2.325829e+003;2.645771e-002
2.327757e+003;2.596128e-002
2.329686e+003;2.583857e-002
2.331615e+003;2.591394e-002
2.333543e+003;2.601588e-002
2.335472e+003;2.610669e-002
2.337400e+003;2.615887e-002
2.339329e+003;2.655837e-002
2.341257e+003;2.719575e-002
2.343186e+003;2.771941e-002
2.345114e+003;2.844456e-002
2.347043e+003;2.909378e-002
2.348971e+003;2.943241e-002
2.350900e+003;2.919197e-002
2.352829e+003;2.851701e-002
2.354757e+003;2.777691e-002
2.356686e+003;2.682541e-002
2.358614e+003;2.606485e-002
2.360543e+003;2.610693e-002
2.362471e+003;2.668022e-002
2.364400e+003;2.710700e-002
2.366328e+003;2.739873e-002
2.368257e+003;2.789278e-002
2.370186e+003;2.852480e-002
2.372114e+003;2.909520e-002
2.374042e+003;2.981162e-002
2.375971e+003;3.027399e-002
2.377900e+003;3.080963e-002
2.379828e+003;3.146821e-002
2.381757e+003;3.190307e-002
2.383685e+003;3.223205e-002
2.385614e+003;3.238878e-002
2.387542e+003;3.227888e-002
2.389471e+003;3.217813e-002
2.391399e+003;3.245390e-002
2.393328e+003;3.267533e-002
2.395257e+003;3.261964e-002
2.397185e+003;3.284437e-002
2.399114e+003;3.301505e-002
2.401042e+003;3.300339e-002
2.402971e+003;3.312807e-002
2.404899e+003;3.319788e-002
2.406828e+003;3.337013e-002
2.408756e+003;3.369001e-002
2.410685e+003;3.375218e-002
2.412614e+003;3.401601e-002
2.414542e+003;3.416066e-002
2.416471e+003;3.419375e-002
2.418399e+003;3.457854e-002
2.420328e+003;3.491942e-002
2.422256e+003;3.507777e-002
2.424185e+003;3.500453e-002
2.426113e+003;3.497063e-002
2.428042e+003;3.539101e-002
2.429970e+003;3.585206e-002
2.431899e+003;3.603343e-002
2.433828e+003;3.620756e-002
2.435756e+003;3.648165e-002
2.437685e+003;3.670359e-002
2.439613e+003;3.683601e-002
2.441542e+003;3.694974e-002
2.443470e+003;3.704553e-002
2.445399e+003;3.710129e-002
2.447327e+003;3.714052e-002
2.449256e+003;3.735449e-002
2.451185e+003;3.770852e-002
2.453113e+003;3.786821e-002
2.455042e+003;3.782002e-002
2.456970e+003;3.788741e-002
2.458899e+003;3.824154e-002
2.460827e+003;3.848154e-002
2.462756e+003;3.859614e-002
2.464684e+003;3.885370e-002
2.466613e+003;3.909618e-002
2.468542e+003;3.920662e-002
2.470470e+003;3.922733e-002
2.472398e+003;3.935846e-002
2.474327e+003;3.923578e-002
2.476256e+003;3.919270e-002
2.478184e+003;3.946904e-002
2.480113e+003;3.976952e-002
2.482041e+003;3.994484e-002
2.483970e+003;4.017259e-002
2.485898e+003;4.042126e-002
2.487827e+003;4.068503e-002
2.489755e+003;4.081692e-002
2.491684e+003;4.076105e-002
2.493613e+003;4.063038e-002
2.495541e+003;4.096538e-002
2.497470e+003;4.128869e-002
2.499398e+003;4.145084e-002
2.501327e+003;4.157909e-002
2.503255e+003;4.169017e-002
2.505184e+003;4.157439e-002
2.507112e+003;4.133187e-002
2.509041e+003;4.138891e-002
2.510969e+003;4.157672e-002
2.512898e+003;4.151201e-002
2.514827e+003;4.149342e-002
2.516755e+003;4.185864e-002
2.518684e+003;4.205020e-002
2.520612e+003;4.220660e-002
2.522541e+003;4.230225e-002
2.524469e+003;4.220430e-002
2.526398e+003;4.229984e-002
2.528326e+003;4.233384e-002
2.530255e+003;4.226390e-002
2.532184e+003;4.238253e-002
2.534112e+003;4.244870e-002
2.536041e+003;4.262641e-002
2.537969e+003;4.278986e-002
2.539898e+003;4.277944e-002
2.541826e+003;4.256245e-002
2.543755e+003;4.252477e-002
2.545683e+003;4.287357e-002
2.547612e+003;4.318223e-002
2.549541e+003;4.317447e-002
2.551469e+003;4.328695e-002
2.553397e+003;4.325467e-002
2.555326e+003;4.320796e-002
2.557255e+003;4.331173e-002
2.559183e+003;4.347552e-002
2.561112e+003;4.349647e-002
2.563040e+003;4.348940e-002
2.564969e+003;4.346581e-002
2.566897e+003;4.325152e-002
2.568826e+003;4.327352e-002
2.570754e+003;4.377842e-002
2.572683e+003;4.425757e-002
2.574612e+003;4.433517e-002
2.576540e+003;4.424344e-002
2.578469e+003;4.447738e-002
2.580397e+003;4.467771e-002
2.582326e+003;4.481559e-002
2.584254e+003;4.496333e-002
2.586183e+003;4.516366e-002
2.588111e+003;4.516763e-002
2.590040e+003;4.524709e-002
2.591969e+003;4.556646e-002
2.593897e+003;4.568243e-002
2.595826e+003;4.563915e-002
2.597754e+003;4.563569e-002
2.599683e+003;4.589874e-002
2.601611e+003;4.615115e-002
2.603540e+003;4.623473e-002
2.605468e+003;4.639523e-002
2.607397e+003;4.656649e-002
2.609325e+003;4.667912e-002
2.611254e+003;4.694262e-002
2.613183e+003;4.742553e-002
2.615111e+003;4.763453e-002
2.617040e+003;4.758067e-002
2.618968e+003;4.778878e-002
2.620897e+003;4.817922e-002
2.622825e+003;4.852481e-002
2.624754e+003;4.846249e-002
2.626682e+003;4.861507e-002
2.628611e+003;4.916029e-002
2.630540e+003;4.957781e-002
2.632468e+003;4.963026e-002
2.634396e+003;4.975089e-002
2.636325e+003;5.031077e-002
2.638254e+003;5.049345e-002
2.640182e+003;5.042054e-002
2.642111e+003;5.044484e-002
2.644039e+003;5.056171e-002
2.645968e+003;5.087001e-002
2.647896e+003;5.140299e-002
2.649825e+003;5.165284e-002
2.651753e+003;5.158321e-002
2.653682e+003;5.163710e-002
2.655611e+003;5.177400e-002
2.657539e+003;5.232548e-002
2.659468e+003;5.277486e-002
2.661396e+003;5.297078e-002
2.663325e+003;5.299855e-002
2.665253e+003;5.319962e-002
2.667182e+003;5.342462e-002
2.669110e+003;5.346696e-002
2.671039e+003;5.352063e-002
2.672968e+003;5.366578e-002
2.674896e+003;5.392661e-002
2.676825e+003;5.410773e-002
2.678753e+003;5.454195e-002
2.680682e+003;5.490252e-002
2.682610e+003;5.501049e-002
2.684539e+003;5.531507e-002
2.686467e+003;5.534819e-002
2.688396e+003;5.528891e-002
2.690324e+003;5.553450e-002
2.692253e+003;5.587917e-002
2.694182e+003;5.612640e-002
2.696110e+003;5.621943e-002
2.698039e+003;5.645400e-002
2.699967e+003;5.653589e-002
2.701896e+003;5.659205e-002
2.703824e+003;5.694934e-002
2.705753e+003;5.731094e-002
2.707681e+003;5.760054e-002
2.709610e+003;5.775867e-002
2.711539e+003;5.783051e-002
2.713467e+003;5.790751e-002
2.715396e+003;5.801043e-002
2.717324e+003;5.805746e-002
2.719253e+003;5.812450e-002
2.721181e+003;5.842594e-002
2.723110e+003;5.880143e-002
2.725038e+003;5.884640e-002
2.726967e+003;5.874305e-002
2.728896e+003;5.888768e-002
2.730824e+003;5.914981e-002
2.732752e+003;5.918546e-002
2.734681e+003;5.922632e-002
2.736610e+003;5.959161e-002
2.738538e+003;5.981294e-002
2.740467e+003;5.966109e-002
2.742395e+003;5.980526e-002
2.744324e+003;6.010178e-002
2.746252e+003;6.031553e-002
2.748181e+003;6.032775e-002
2.750109e+003;6.046651e-002
2.752038e+003;6.086501e-002
2.753967e+003;6.116526e-002
2.755895e+003;6.143907e-002
2.757824e+003;6.136854e-002
2.759752e+003;6.115381e-002
2.761681e+003;6.135957e-002
2.763609e+003;6.159854e-002
2.765538e+003;6.190694e-002
2.767466e+003;6.255685e-002
2.769395e+003;6.290327e-002
2.771323e+003;6.305350e-002
2.773252e+003;6.307354e-002
2.775181e+003;6.296179e-002
2.777109e+003;6.341366e-002
2.779038e+003;6.381787e-002
2.780966e+003;6.382842e-002
2.782895e+003;6.411341e-002
2.784823e+003;6.472267e-002
2.786752e+003;6.497127e-002
2.788680e+003;6.511455e-002
2.790609e+003;6.547111e-002
2.792538e+003;6.587269e-002
2.794466e+003;6.629808e-002
2.796395e+003;6.686129e-002
2.798323e+003;6.719232e-002
2.800252e+003;6.707862e-002
2.802180e+003;6.719282e-002
2.804109e+003;6.791040e-002
2.806037e+003;6.830815e-002
2.807966e+003;6.850065e-002
2.809895e+003;6.898259e-002
2.811823e+003;6.949952e-002
2.813751e+003;6.990321e-002
2.815680e+003;7.020760e-002
2.817609e+003;7.058653e-002
2.819537e+003;7.120308e-002
2.821466e+003;7.158972e-002
2.823394e+003;7.181854e-002
2.825323e+003;7.215589e-002
2.827251e+003;7.267492e-002
2.829180e+003;7.365315e-002
2.831108e+003;7.419768e-002
2.833037e+003;7.419965e-002
2.834966e+003;7.464287e-002
2.836894e+003;7.527836e-002
2.838823e+003;7.576608e-002
2.840751e+003;7.593291e-002
2.842680e+003;7.632089e-002
2.844608e+003;7.646458e-002
2.846537e+003;7.661638e-002
2.848465e+003;7.674897e-002
2.850394e+003;7.671347e-002
2.852323e+003;7.717711e-002
2.854251e+003;7.833249e-002
2.856180e+003;7.978351e-002
2.858108e+003;8.183989e-002
2.860037e+003;8.412244e-002
2.861965e+003;8.623593e-002
2.863894e+003;8.813564e-002
2.865822e+003;8.983645e-002
2.867751e+003;9.136104e-002
2.869679e+003;9.242508e-002
2.871608e+003;9.332976e-002
2.873536e+003;9.458729e-002
2.875465e+003;9.552164e-002
2.877394e+003;9.630698e-002
2.879322e+003;9.717728e-002
2.881251e+003;9.747647e-002
2.883179e+003;9.753782e-002
2.885108e+003;9.779838e-002
2.887036e+003;9.779663e-002
2.888965e+003;9.756137e-002
2.890893e+003;9.720944e-002
2.892822e+003;9.689137e-002
2.894750e+003;9.674355e-002
2.896679e+003;9.605294e-002
2.898608e+003;9.492374e-002
2.900536e+003;9.415432e-002
2.902465e+003;9.357166e-002
2.904393e+003;9.310550e-002
2.906322e+003;9.215142e-002
2.908250e+003;9.056793e-002
2.910179e+003;8.947850e-002
2.912107e+003;8.842685e-002
2.914036e+003;8.692732e-002
2.915965e+003;8.548459e-002
2.917893e+003;8.400857e-002
2.919822e+003;8.223068e-002
2.921750e+003;8.073176e-002
2.923679e+003;7.960935e-002
2.925607e+003;7.885531e-002
2.927536e+003;7.882107e-002
2.929464e+003;7.852190e-002
2.931393e+003;7.793219e-002
2.933322e+003;7.784688e-002
2.935250e+003;7.809501e-002
2.937178e+003;7.805535e-002
2.939107e+003;7.759140e-002
2.941036e+003;7.689414e-002
2.942964e+003;7.611069e-002
2.944893e+003;7.576367e-002
2.946821e+003;7.495623e-002
2.948750e+003;7.365523e-002
2.950678e+003;7.221508e-002
2.952607e+003;7.054865e-002
2.954535e+003;6.939564e-002
2.956464e+003;6.886823e-002
2.958393e+003;6.846026e-002
2.960321e+003;6.760719e-002
2.962250e+003;6.701116e-002
2.964178e+003;6.688741e-002
2.966107e+003;6.667125e-002
2.968035e+003;6.608753e-002
2.969964e+003;6.569227e-002
2.971892e+003;6.584300e-002
2.973821e+003;6.589919e-002
2.975750e+003;6.583710e-002
2.977678e+003;6.557025e-002
2.979607e+003;6.512329e-002
2.981535e+003;6.467357e-002
2.983464e+003;6.426871e-002
2.985392e+003;6.374941e-002
2.987321e+003;6.346849e-002
2.989249e+003;6.344227e-002
2.991178e+003;6.338065e-002
2.993106e+003;6.308154e-002
2.995035e+003;6.270428e-002
2.996964e+003;6.243093e-002
2.998892e+003;6.265368e-002
3.000821e+003;6.308982e-002
3.002749e+003;6.302010e-002
3.004678e+003;6.259198e-002
3.006606e+003;6.250936e-002
3.008535e+003;6.293291e-002
3.010463e+003;6.323846e-002
3.012392e+003;6.316201e-002
3.014321e+003;6.320734e-002
3.016249e+003;6.365713e-002
3.018177e+003;6.419177e-002
3.020106e+003;6.443905e-002
3.022035e+003;6.445678e-002
3.023963e+003;6.474371e-002
3.025892e+003;6.513526e-002
3.027820e+003;6.593926e-002
3.029749e+003;6.614456e-002
3.031677e+003;6.609493e-002
3.033606e+003;6.692816e-002
3.035534e+003;6.789099e-002
3.037463e+003;6.819443e-002
3.039392e+003;6.836373e-002
3.041320e+003;6.876718e-002
3.043249e+003;6.936788e-002
3.045177e+003;6.962790e-002
3.047106e+003;6.985901e-002
3.049034e+003;7.002618e-002
3.050963e+003;7.033727e-002
3.052891e+003;7.098491e-002
3.054820e+003;7.135624e-002
3.056749e+003;7.197306e-002
3.058677e+003;7.290362e-002
3.060606e+003;7.331927e-002
3.062534e+003;7.335905e-002
3.064463e+003;7.380664e-002
3.066391e+003;7.451902e-002
3.068320e+003;7.503932e-002
3.070248e+003;7.533349e-002
3.072177e+003;7.584230e-002
3.074105e+003;7.643838e-002
3.076034e+003;7.659748e-002
3.077963e+003;7.680520e-002
3.079891e+003;7.757465e-002
3.081820e+003;7.834440e-002
3.083748e+003;7.897099e-002
3.085677e+003;7.984690e-002
3.087605e+003;8.024682e-002
3.089534e+003;8.018149e-002
3.091462e+003;8.065715e-002
3.093391e+003;8.140662e-002
3.095320e+003;8.208447e-002
3.097248e+003;8.233223e-002
3.099177e+003;8.283632e-002
3.101105e+003;8.372787e-002
3.103034e+003;8.426008e-002
3.104962e+003;8.487203e-002
3.106891e+003;8.536819e-002
3.108819e+003;8.554637e-002
3.110748e+003;8.603885e-002
3.112677e+003;8.683586e-002
3.114605e+003;8.717430e-002
3.116533e+003;8.756907e-002
3.118462e+003;8.832674e-002
3.120391e+003;8.852645e-002
3.122319e+003;8.850752e-002
3.124248e+003;8.937905e-002
3.126176e+003;9.032755e-002
3.128105e+003;9.075642e-002
3.130033e+003;9.111915e-002
3.131962e+003;9.171043e-002
3.133890e+003;9.215834e-002
3.135819e+003;9.265756e-002
3.137748e+003;9.352781e-002
3.139676e+003;9.428377e-002
3.141605e+003;9.458510e-002
3.143533e+003;9.500720e-002
3.145462e+003;9.576026e-002
3.147390e+003;9.633713e-002
3.149319e+003;9.668671e-002
3.151247e+003;9.718499e-002
3.153176e+003;9.776148e-002
3.155104e+003;9.847456e-002
3.157033e+003;9.875336e-002
3.158962e+003;9.904444e-002
3.160890e+003;9.984819e-002
3.162819e+003;1.004296e-001
3.164747e+003;1.007115e-001
3.166676e+003;1.015620e-001
3.168604e+003;1.022441e-001
3.170533e+003;1.025739e-001
3.172461e+003;1.031673e-001
3.174390e+003;1.039625e-001
3.176319e+003;1.043964e-001
3.178247e+003;1.047432e-001
3.180176e+003;1.052428e-001
3.182104e+003;1.058761e-001
3.184033e+003;1.060736e-001
3.185961e+003;1.066052e-001
3.187890e+003;1.076233e-001
3.189818e+003;1.081511e-001
3.191747e+003;1.085517e-001
3.193676e+003;1.090496e-001
3.195604e+003;1.093998e-001
3.197532e+003;1.098927e-001
3.199461e+003;1.105396e-001
3.201390e+003;1.109824e-001
3.203318e+003;1.113037e-001
3.205247e+003;1.119190e-001
3.207175e+003;1.124750e-001
3.209104e+003;1.126407e-001
3.211032e+003;1.133660e-001
3.212961e+003;1.145426e-001
3.214889e+003;1.149763e-001
3.216818e+003;1.150322e-001
3.218747e+003;1.155217e-001
3.220675e+003;1.164875e-001
3.222604e+003;1.173258e-001
3.224532e+003;1.174396e-001
3.226461e+003;1.172655e-001
3.228389e+003;1.178456e-001
3.230318e+003;1.186658e-001
3.232246e+003;1.192599e-001
3.234175e+003;1.199024e-001
3.236104e+003;1.206947e-001
3.238032e+003;1.210976e-001
3.239961e+003;1.207941e-001
3.241889e+003;1.207674e-001
3.243818e+003;1.215639e-001
3.245746e+003;1.223277e-001
3.247675e+003;1.230105e-001
3.249603e+003;1.233670e-001
3.251532e+003;1.236722e-001
3.253460e+003;1.240408e-001
3.255389e+003;1.244849e-001
3.257318e+003;1.251891e-001
3.259246e+003;1.258174e-001
3.261175e+003;1.260572e-001
3.263103e+003;1.261092e-001
3.265032e+003;1.265225e-001
3.266960e+003;1.272569e-001
3.268889e+003;1.272138e-001
3.270817e+003;1.273402e-001
3.272746e+003;1.282598e-001
3.274675e+003;1.286638e-001
3.276603e+003;1.289005e-001
3.278531e+003;1.287514e-001
3.280460e+003;1.288928e-001
3.282389e+003;1.295922e-001
3.284317e+003;1.300116e-001
3.286246e+003;1.302347e-001
3.288174e+003;1.307617e-001
3.290103e+003;1.314389e-001
3.292031e+003;1.313305e-001
3.293960e+003;1.312778e-001
3.295888e+003;1.313745e-001
3.297817e+003;1.316604e-001
3.299746e+003;1.318261e-001
3.301674e+003;1.321520e-001
3.303603e+003;1.325575e-001
3.305531e+003;1.329159e-001
3.307460e+003;1.330689e-001
3.309388e+003;1.332321e-001
3.311317e+003;1.332865e-001
3.313245e+003;1.334693e-001
3.315174e+003;1.340657e-001
3.317103e+003;1.341158e-001
3.319031e+003;1.333406e-001
3.320960e+003;1.331470e-001
3.322888e+003;1.337073e-001
3.324817e+003;1.340858e-001
3.326745e+003;1.342374e-001
3.328674e+003;1.342960e-001
3.330602e+003;1.343597e-001
3.332531e+003;1.343685e-001
3.334459e+003;1.340638e-001
3.336388e+003;1.339223e-001
3.338317e+003;1.344061e-001
3.340245e+003;1.347938e-001
3.342174e+003;1.348891e-001
3.344102e+003;1.349712e-001
3.346031e+003;1.351246e-001
3.347959e+003;1.349133e-001
3.349888e+003;1.345459e-001
3.351816e+003;1.341147e-001
3.353745e+003;1.335590e-001
3.355674e+003;1.338878e-001
3.357602e+003;1.342397e-001
3.359531e+003;1.337818e-001
3.361459e+003;1.334170e-001
3.363388e+003;1.336577e-001
3.365316e+003;1.336399e-001
3.367245e+003;1.334782e-001
3.369173e+003;1.329531e-001
3.371102e+003;1.326234e-001
3.373031e+003;1.323353e-001
3.374959e+003;1.322571e-001
3.376887e+003;1.322288e-001
3.378816e+003;1.318365e-001
3.380745e+003;1.315246e-001
3.382673e+003;1.309979e-001
3.384602e+003;1.305594e-001
3.386530e+003;1.304685e-001
3.388459e+003;1.305360e-001
3.390387e+003;1.305166e-001
3.392316e+003;1.300767e-001
3.394244e+003;1.295045e-001
3.396173e+003;1.289494e-001
3.398102e+003;1.288129e-001
3.400030e+003;1.287135e-001
3.401959e+003;1.285634e-001
3.403887e+003;1.279444e-001
3.405816e+003;1.273200e-001
3.407744e+003;1.274914e-001
3.409673e+003;1.273756e-001
3.411601e+003;1.265024e-001
3.413530e+003;1.260557e-001
3.415458e+003;1.256390e-001
3.417387e+003;1.246077e-001
3.419316e+003;1.238542e-001
3.421244e+003;1.241760e-001
3.423173e+003;1.238133e-001
3.425101e+003;1.230990e-001
3.427030e+003;1.229837e-001
3.428958e+003;1.228991e-001
3.430887e+003;1.223808e-001
3.432815e+003;1.216167e-001
3.434744e+003;1.210032e-001
3.436673e+003;1.208277e-001
3.438601e+003;1.208111e-001
3.440530e+003;1.200206e-001
3.442458e+003;1.193460e-001
3.444387e+003;1.186839e-001
3.446315e+003;1.171132e-001
3.448244e+003;1.159600e-001
3.450172e+003;1.155560e-001
3.452101e+003;1.150542e-001
3.454030e+003;1.138693e-001
3.455958e+003;1.126522e-001
3.457886e+003;1.114100e-001
3.459815e+003;1.100855e-001
3.461744e+003;1.090761e-001
3.463672e+003;1.086793e-001
3.465601e+003;1.075544e-001
3.467529e+003;1.062792e-001
3.469458e+003;1.057067e-001
3.471386e+003;1.051629e-001
3.473315e+003;1.042143e-001
3.475243e+003;1.029967e-001
3.477172e+003;1.019075e-001
3.479101e+003;1.006780e-001
3.481029e+003;9.934839e-002
3.482958e+003;9.845132e-002
3.484886e+003;9.803791e-002
3.486815e+003;9.715258e-002
3.488743e+003;9.645044e-002
3.490672e+003;9.564544e-002
3.492600e+003;9.452718e-002
3.494529e+003;9.290712e-002
3.496458e+003;9.166395e-002
3.498386e+003;9.087858e-002
3.500315e+003;8.957896e-002
3.502243e+003;8.791547e-002
3.504172e+003;8.589435e-002
3.506100e+003;8.440083e-002
3.508029e+003;8.387732e-002
3.509957e+003;8.351633e-002
3.511886e+003;8.223560e-002
3.513814e+003;8.084527e-002
3.515743e+003;8.011060e-002
3.517672e+003;7.851639e-002
3.519600e+003;7.713725e-002
3.521529e+003;7.659748e-002
3.523457e+003;7.526642e-002
3.525386e+003;7.360797e-002
3.527314e+003;7.270602e-002
3.529243e+003;7.224365e-002
3.531171e+003;7.209525e-002
3.533100e+003;7.133016e-002
3.535029e+003;7.015806e-002
3.536957e+003;6.916587e-002
3.538885e+003;6.839459e-002
3.540814e+003;6.769566e-002
3.542743e+003;6.655645e-002
3.544671e+003;6.524122e-002
3.546600e+003;6.436769e-002
3.548528e+003;6.369960e-002
3.550457e+003;6.288186e-002
3.552385e+003;6.178323e-002
3.554314e+003;6.087068e-002
3.556242e+003;5.974127e-002
3.558171e+003;5.923977e-002
3.560100e+003;5.922933e-002
3.562028e+003;5.840747e-002
3.563957e+003;5.723696e-002
3.565885e+003;5.595183e-002
3.567814e+003;5.474460e-002
3.569742e+003;5.441803e-002
3.571671e+003;5.445623e-002
3.573599e+003;5.372014e-002
3.575528e+003;5.309833e-002
3.577457e+003;5.274355e-002
3.579385e+003;5.191494e-002
3.581314e+003;5.106551e-002
3.583242e+003;5.041537e-002
3.585171e+003;4.915365e-002
3.587099e+003;4.791523e-002
3.589028e+003;4.787124e-002
3.590956e+003;4.791945e-002
3.592885e+003;4.726136e-002
3.594813e+003;4.659430e-002
3.596742e+003;4.602802e-002
3.598671e+003;4.533097e-002
3.600599e+003;4.454886e-002
3.602528e+003;4.408964e-002
3.604456e+003;4.326447e-002
3.606385e+003;4.208210e-002
3.608313e+003;4.158715e-002
3.610242e+003;4.151259e-002
3.612170e+003;4.052772e-002
3.614099e+003;3.966235e-002
3.616028e+003;3.944085e-002
3.617956e+003;3.885305e-002
3.619885e+003;3.812052e-002
3.621813e+003;3.788723e-002
3.623742e+003;3.730585e-002
3.625670e+003;3.604617e-002
3.627599e+003;3.362951e-002
3.629527e+003;3.296307e-002
3.631456e+003;3.457495e-002
3.633385e+003;3.486564e-002
3.635313e+003;3.422064e-002
3.637241e+003;3.370534e-002
3.639170e+003;3.301669e-002
3.641099e+003;3.224237e-002
3.643027e+003;3.122518e-002
3.644956e+003;2.991831e-002
3.646884e+003;2.826870e-002
3.648813e+003;2.667430e-002
3.650741e+003;2.663129e-002
3.652670e+003;2.755136e-002
3.654598e+003;2.703954e-002
3.656527e+003;2.643549e-002
3.658456e+003;2.662410e-002
3.660384e+003;2.611320e-002
3.662313e+003;2.565537e-002
3.664241e+003;2.505871e-002
3.666170e+003;2.388137e-002
3.668098e+003;2.210302e-002
3.670027e+003;2.109390e-002
3.671955e+003;2.134859e-002
3.673884e+003;2.032035e-002
3.675813e+003;1.989946e-002
3.677741e+003;2.059748e-002
3.679669e+003;2.039949e-002
3.681598e+003;2.025834e-002
3.683527e+003;2.023842e-002
3.685455e+003;1.939512e-002
3.687384e+003;1.741466e-002
3.689312e+003;1.723656e-002
3.691241e+003;1.848637e-002
3.693169e+003;1.928346e-002
3.695098e+003;1.934994e-002
3.697026e+003;1.888139e-002
3.698955e+003;1.823176e-002
3.700884e+003;1.762323e-002
3.702812e+003;1.791135e-002
3.704741e+003;1.795794e-002
3.706669e+003;1.716230e-002
3.708598e+003;1.619248e-002
3.710526e+003;1.565604e-002
3.712455e+003;1.577155e-002
3.714383e+003;1.652873e-002
3.716312e+003;1.650663e-002
3.718240e+003;1.629945e-002
3.720169e+003;1.612635e-002
3.722098e+003;1.554662e-002
3.724026e+003;1.477753e-002
3.725955e+003;1.467343e-002
3.727883e+003;1.556757e-002
3.729812e+003;1.500285e-002
3.731740e+003;1.385310e-002
3.733669e+003;1.371811e-002
3.735597e+003;1.344998e-002
3.737526e+003;1.439516e-002
3.739455e+003;1.528089e-002
3.741383e+003;1.453397e-002
3.743312e+003;1.176140e-002
3.745240e+003;1.158996e-002
3.747169e+003;1.347308e-002
3.749097e+003;1.279323e-002
3.751026e+003;1.219656e-002
3.752954e+003;1.294020e-002
3.754883e+003;1.388875e-002
3.756812e+003;1.384955e-002
3.758740e+003;1.397025e-002
3.760668e+003;1.459012e-002
3.762597e+003;1.503183e-002
3.764526e+003;1.471926e-002
3.766454e+003;1.465277e-002
3.768383e+003;1.427708e-002
3.770311e+003;1.453482e-002
3.772240e+003;1.516412e-002
3.774168e+003;1.519366e-002
3.776097e+003;1.481562e-002
3.778025e+003;1.436988e-002
3.779954e+003;1.440653e-002
3.781883e+003;1.508833e-002
3.783811e+003;1.496005e-002
3.785740e+003;1.493673e-002
3.787668e+003;1.533488e-002
3.789597e+003;1.548635e-002
3.791525e+003;1.552467e-002
3.793454e+003;1.511643e-002
3.795382e+003;1.443064e-002
3.797311e+003;1.428016e-002
3.799240e+003;1.329782e-002
3.801168e+003;1.264843e-002
3.803097e+003;1.439787e-002
3.805025e+003;1.447727e-002
3.806954e+003;1.393716e-002
3.808882e+003;1.491204e-002
3.810811e+003;1.535713e-002
3.812739e+003;1.518350e-002
3.814668e+003;1.334958e-002
3.816596e+003;1.338249e-002
3.818525e+003;1.464053e-002
3.820454e+003;1.362414e-002
3.822382e+003;1.383843e-002
3.824311e+003;1.484054e-002
3.826239e+003;1.472659e-002
3.828168e+003;1.463361e-002
3.830096e+003;1.440872e-002
3.832025e+003;1.424527e-002
3.833953e+003;1.406559e-002
3.835882e+003;1.319127e-002
3.837811e+003;1.248165e-002
3.839739e+003;1.334695e-002
3.841667e+003;1.449505e-002
3.843596e+003;1.522935e-002
3.845525e+003;1.580202e-002
3.847453e+003;1.591145e-002
3.849382e+003;1.486904e-002
3.851310e+003;1.216627e-002
3.853239e+003;1.009256e-002
3.855167e+003;1.243163e-002
3.857096e+003;1.534137e-002
3.859024e+003;1.653623e-002
3.860953e+003;1.612380e-002
3.862882e+003;1.538830e-002
3.864810e+003;1.466723e-002
3.866739e+003;1.478542e-002
3.868667e+003;1.463190e-002
3.870596e+003;1.492922e-002
3.872524e+003;1.575186e-002
3.874453e+003;1.628824e-002
3.876381e+003;1.704674e-002
3.878310e+003;1.687155e-002
3.880239e+003;1.623289e-002
3.882167e+003;1.623974e-002
3.884096e+003;1.593372e-002
3.886024e+003;1.610369e-002
3.887953e+003;1.719650e-002
3.889881e+003;1.691695e-002
3.891810e+003;1.664928e-002
3.893738e+003;1.713490e-002
3.895667e+003;1.783108e-002
3.897595e+003;1.781689e-002
3.899524e+003;1.747516e-002
3.901453e+003;1.698372e-002
3.903381e+003;1.649806e-002
3.905310e+003;1.691030e-002
3.907238e+003;1.775848e-002
3.909167e+003;1.842711e-002
3.911095e+003;1.868494e-002
3.913024e+003;1.858423e-002
3.914952e+003;1.876769e-002
3.916881e+003;1.906914e-002
3.918810e+003;1.897179e-002
3.920738e+003;1.872036e-002
3.922667e+003;1.879890e-002
3.924595e+003;1.900482e-002
3.926524e+003;1.910179e-002
3.928452e+003;1.895508e-002
3.930381e+003;1.837737e-002
3.932309e+003;1.859892e-002
3.934238e+003;1.940613e-002
3.936167e+003;1.987903e-002
3.938095e+003;2.041508e-002
3.940023e+003;2.042588e-002
3.941952e+003;1.986848e-002
3.943881e+003;1.960010e-002
3.945809e+003;1.959227e-002
3.947738e+003;1.976395e-002
3.949666e+003;2.015872e-002
3.951595e+003;2.058932e-002
3.953523e+003;2.079556e-002
3.955452e+003;2.054811e-002
3.957380e+003;2.037692e-002
3.959309e+003;2.008206e-002
3.961238e+003;2.016459e-002
3.963166e+003;2.041994e-002
3.965095e+003;2.024338e-002
3.967023e+003;2.053265e-002
3.968952e+003;2.065572e-002
3.970880e+003;2.085282e-002
3.972809e+003;2.081180e-002
3.974737e+003;2.075938e-002
3.976666e+003;2.118264e-002
3.978594e+003;2.109547e-002
3.980523e+003;2.132409e-002
3.982452e+003;2.165486e-002
3.984380e+003;2.129231e-002
3.986309e+003;2.101279e-002
3.988237e+003;2.080690e-002
3.990166e+003;2.030445e-002
3.992094e+003;2.026623e-002
3.994023e+003;2.076668e-002
3.995951e+003;2.094638e-002
3.997880e+003;2.061162e-002
3.999809e+003;2.099008e-002
4.001737e+003;0.000000e+000
