3.992094e+002;0.000000e+000
4.011380e+002;0.000000e+000
4.030665e+002;0.000000e+000
4.049951e+002;0.000000e+000
4.069236e+002;0.000000e+000
4.088522e+002;0.000000e+000
4.107807e+002;0.000000e+000
4.127093e+002;0.000000e+000
4.146378e+002;0.000000e+000
4.165664e+002;0.000000e+000
4.184949e+002;0.000000e+000
4.204235e+002;0.000000e+000
4.223520e+002;0.000000e+000
4.242806e+002;0.000000e+000
4.262091e+002;0.000000e+000
4.281377e+002;0.000000e+000
4.300662e+002;0.000000e+000
4.319948e+002;0.000000e+000
4.339233e+002;0.000000e+000
4.358519e+002;0.000000e+000
4.377804e+002;0.000000e+000
4.397090e+002;0.000000e+000
4.416375e+002;0.000000e+000
4.435660e+002;0.000000e+000
4.454946e+002;0.000000e+000
4.474232e+002;0.000000e+000
4.493517e+002;0.000000e+000
4.512802e+002;0.000000e+000
4.532088e+002;0.000000e+000
4.551373e+002;0.000000e+000
4.570659e+002;0.000000e+000
4.589944e+002;0.000000e+000
4.609230e+002;0.000000e+000
4.628515e+002;0.000000e+000
4.647801e+002;0.000000e+000
4.667086e+002;0.000000e+000
4.686372e+002;0.000000e+000
4.705657e+002;0.000000e+000
4.724943e+002;0.000000e+000
4.744228e+002;0.000000e+000
4.763513e+002;0.000000e+000
4.782799e+002;0.000000e+000
4.802085e+002;0.000000e+000
4.821370e+002;0.000000e+000
4.840656e+002;0.000000e+000
4.859941e+002;0.000000e+000
4.879226e+002;0.000000e+000
4.898512e+002;0.000000e+000
4.917798e+002;0.000000e+000
4.937083e+002;0.000000e+000
4.956368e+002;0.000000e+000
4.975654e+002;0.000000e+000
4.994939e+002;0.000000e+000
5.014225e+002;0.000000e+000
5.033510e+002;0.000000e+000
5.052796e+002;0.000000e+000
5.072081e+002;0.000000e+000
5.091367e+002;0.000000e+000
5.110652e+002;0.000000e+000
5.129938e+002;0.000000e+000
5.149223e+002;0.000000e+000
5.168509e+002;0.000000e+000
5.187794e+002;0.000000e+000
5.207079e+002;0.000000e+000
5.226365e+002;0.000000e+000
5.245651e+002;0.000000e+000
5.264936e+002;0.000000e+000
5.284222e+002;0.000000e+000
5.303507e+002;0.000000e+000
5.322792e+002;0.000000e+000
5.342078e+002;0.000000e+000
5.361364e+002;0.000000e+000
5.380649e+002;0.000000e+000
5.399935e+002;0.000000e+000
5.419220e+002;0.000000e+000
5.438505e+002;0.000000e+000
5.457791e+002;0.000000e+000
5.477076e+002;0.000000e+000
5.496362e+002;0.000000e+000
5.515648e+002;0.000000e+000
5.534933e+002;0.000000e+000
5.554218e+002;0.000000e+000
5.573504e+002;0.000000e+000
5.592789e+002;0.000000e+000
5.612075e+002;0.000000e+000
5.631360e+002;0.000000e+000
5.650646e+002;0.000000e+000
5.669931e+002;0.000000e+000
5.689217e+002;0.000000e+000
5.708502e+002;0.000000e+000
5.727787e+002;0.000000e+000
5.747073e+002;0.000000e+000
5.766359e+002;0.000000e+000
5.785644e+002;0.000000e+000
5.804930e+002;0.000000e+000
5.824215e+002;0.000000e+000
5.843500e+002;0.000000e+000
5.862786e+002;0.000000e+000
5.882072e+002;0.000000e+000
5.901357e+002;0.000000e+000
5.920643e+002;0.000000e+000
5.939928e+002;0.000000e+000
5.959213e+002;0.000000e+000
5.978499e+002;0.000000e+000
5.997784e+002;2.345819e-001
6.017070e+002;2.286486e-001
6.036355e+002;2.311659e-001
6.055641e+002;2.364503e-001
6.074926e+002;2.375138e-001
6.094211e+002;2.354169e-001
6.113497e+002;2.307610e-001
6.132783e+002;2.292742e-001
6.152068e+002;2.303338e-001
6.171354e+002;2.265414e-001
6.190639e+002;2.250709e-001
6.209924e+002;2.248068e-001
6.229210e+002;2.204791e-001
6.248495e+002;2.145037e-001
6.267781e+002;2.140898e-001
6.287067e+002;2.149897e-001
6.306352e+002;2.114742e-001
6.325637e+002;2.095270e-001
6.344923e+002;2.098655e-001
6.364208e+002;2.100205e-001
6.383494e+002;2.069300e-001
6.402780e+002;2.026996e-001
6.422065e+002;2.019627e-001
6.441350e+002;2.050738e-001
6.460636e+002;2.075786e-001
6.479921e+002;2.078723e-001
6.499207e+002;2.082132e-001
6.518492e+002;2.071833e-001
6.537778e+002;2.038465e-001
6.557063e+002;2.064168e-001
6.576349e+002;2.132593e-001
6.595634e+002;2.143193e-001
6.614919e+002;2.126916e-001
6.634205e+002;2.145912e-001
6.653491e+002;2.153173e-001
6.672776e+002;2.124326e-001
6.692062e+002;2.117724e-001
6.711347e+002;2.111855e-001
6.730632e+002;2.061359e-001
6.749918e+002;1.970612e-001
6.769203e+002;1.893698e-001
6.788489e+002;1.818808e-001
6.807775e+002;1.759489e-001
6.827060e+002;1.711348e-001
6.846345e+002;1.666583e-001
6.865631e+002;1.645037e-001
6.884916e+002;1.629708e-001
6.904202e+002;1.618026e-001
6.923488e+002;1.623269e-001
6.942773e+002;1.627666e-001
6.962058e+002;1.606483e-001
6.981344e+002;1.573445e-001
7.000629e+002;1.577102e-001
7.019915e+002;1.580893e-001
7.039200e+002;1.572134e-001
7.058486e+002;1.573579e-001
7.077771e+002;1.579667e-001
7.097057e+002;1.570789e-001
7.116342e+002;1.559652e-001
7.135627e+002;1.551611e-001
7.154913e+002;1.539466e-001
7.174199e+002;1.538343e-001
7.193484e+002;1.519156e-001
7.212770e+002;1.498731e-001
7.232055e+002;1.497598e-001
7.251340e+002;1.483695e-001
7.270626e+002;1.464703e-001
7.289911e+002;1.453522e-001
7.309197e+002;1.442978e-001
7.328483e+002;1.435607e-001
7.347768e+002;1.420060e-001
7.367053e+002;1.393644e-001
7.386339e+002;1.380910e-001
7.405624e+002;1.367914e-001
7.424910e+002;1.362813e-001
7.444196e+002;1.366721e-001
7.463481e+002;1.364797e-001
7.482766e+002;1.349217e-001
7.502052e+002;1.339626e-001
7.521337e+002;1.328975e-001
7.540623e+002;1.316750e-001
7.559908e+002;1.318095e-001
7.579194e+002;1.312340e-001
7.598479e+002;1.293323e-001
7.617765e+002;1.277514e-001
7.637050e+002;1.273493e-001
7.656335e+002;1.269968e-001
7.675621e+002;1.264121e-001
7.694907e+002;1.254982e-001
7.714192e+002;1.247953e-001
7.733478e+002;1.244351e-001
7.752763e+002;1.238886e-001
7.772048e+002;1.214996e-001
7.791334e+002;1.195161e-001
7.810620e+002;1.200491e-001
7.829905e+002;1.199542e-001
7.849191e+002;1.184811e-001
7.868476e+002;1.174447e-001
7.887761e+002;1.178177e-001
7.907047e+002;1.182439e-001
7.926332e+002;1.174041e-001
7.945618e+002;1.161904e-001
7.964903e+002;1.156719e-001
7.984189e+002;1.152342e-001
8.003474e+002;1.148646e-001
8.022759e+002;1.155210e-001
8.042045e+002;1.155193e-001
8.061331e+002;1.150753e-001
8.080616e+002;1.154805e-001
8.099902e+002;1.150601e-001
8.119187e+002;1.142256e-001
8.138472e+002;1.142893e-001
8.157758e+002;1.146017e-001
8.177043e+002;1.148831e-001
8.196329e+002;1.141537e-001
8.215615e+002;1.126399e-001
8.234900e+002;1.122057e-001
8.254185e+002;1.122305e-001
8.273471e+002;1.111799e-001
8.292756e+002;1.104809e-001
8.312042e+002;1.109747e-001
8.331328e+002;1.104490e-001
8.350613e+002;1.099604e-001
8.369898e+002;1.103303e-001
8.389184e+002;1.100829e-001
8.408469e+002;1.093370e-001
8.427755e+002;1.090206e-001
8.447040e+002;1.087241e-001
8.466326e+002;1.080945e-001
8.485611e+002;1.077545e-001
8.504897e+002;1.070029e-001
8.524182e+002;1.068317e-001
8.543467e+002;1.075387e-001
8.562753e+002;1.089518e-001
8.582039e+002;1.105680e-001
8.601324e+002;1.113670e-001
8.620610e+002;1.119855e-001
8.639895e+002;1.129255e-001
8.659180e+002;1.146162e-001
8.678466e+002;1.161311e-001
8.697751e+002;1.178124e-001
8.717037e+002;1.205238e-001
8.736323e+002;1.235385e-001
8.755608e+002;1.266948e-001
8.774893e+002;1.305923e-001
8.794179e+002;1.353119e-001
8.813464e+002;1.405976e-001
8.832750e+002;1.453464e-001
8.852036e+002;1.501287e-001
8.871321e+002;1.557855e-001
8.890606e+002;1.606146e-001
8.909892e+002;1.644589e-001
8.929177e+002;1.680562e-001
8.948463e+002;1.697786e-001
8.967748e+002;1.681378e-001
8.987034e+002;1.645701e-001
9.006319e+002;1.614663e-001
9.025605e+002;1.586316e-001
9.044890e+002;1.547375e-001
9.064175e+002;1.504703e-001
9.083461e+002;1.470051e-001
9.102747e+002;1.442088e-001
9.122032e+002;1.421674e-001
9.141318e+002;1.410038e-001
9.160603e+002;1.402889e-001
9.179888e+002;1.403955e-001
9.199174e+002;1.412332e-001
9.218459e+002;1.422323e-001
9.237745e+002;1.437644e-001
9.257031e+002;1.452804e-001
9.276316e+002;1.466985e-001
9.295601e+002;1.481701e-001
9.314887e+002;1.493468e-001
9.334172e+002;1.513282e-001
9.353458e+002;1.538399e-001
9.372744e+002;1.561916e-001
9.392029e+002;1.581147e-001
9.411314e+002;1.600561e-001
9.430600e+002;1.629875e-001
9.449885e+002;1.667214e-001
9.469171e+002;1.702785e-001
9.488456e+002;1.740303e-001
9.507742e+002;1.783750e-001
9.527027e+002;1.835106e-001
9.546313e+002;1.886606e-001
9.565598e+002;1.936111e-001
9.584883e+002;1.993912e-001
9.604169e+002;2.051253e-001
9.623455e+002;2.106824e-001
9.642740e+002;2.158519e-001
9.662026e+002;2.208171e-001
9.681311e+002;2.263607e-001
9.700596e+002;2.319794e-001
9.719882e+002;2.387470e-001
9.739167e+002;2.470758e-001
9.758453e+002;2.560273e-001
9.777739e+002;2.664332e-001
9.797024e+002;2.787341e-001
9.816309e+002;2.915259e-001
9.835595e+002;3.055126e-001
9.854880e+002;3.205059e-001
9.874166e+002;3.350108e-001
9.893452e+002;3.474998e-001
9.912737e+002;3.578082e-001
9.932022e+002;3.652615e-001
9.951307e+002;3.710867e-001
9.970593e+002;3.747702e-001
9.989879e+002;3.764382e-001
1.000916e+003;3.777293e-001
1.002845e+003;3.800740e-001
1.004773e+003;3.839096e-001
1.006702e+003;3.883210e-001
1.008631e+003;3.941512e-001
1.010559e+003;4.013199e-001
1.012488e+003;4.089987e-001
1.014416e+003;4.164679e-001
1.016345e+003;4.225753e-001
1.018273e+003;4.259579e-001
1.020202e+003;4.268361e-001
1.022130e+003;4.271457e-001
1.024059e+003;4.268697e-001
1.025988e+003;4.248750e-001
1.027916e+003;4.217276e-001
1.029845e+003;4.168479e-001
1.031773e+003;4.110461e-001
1.033702e+003;4.061009e-001
1.035630e+003;4.016627e-001
1.037559e+003;3.973874e-001
1.039487e+003;3.938698e-001
1.041416e+003;3.915665e-001
1.043344e+003;3.891668e-001
1.045273e+003;3.867196e-001
1.047202e+003;3.849917e-001
1.049130e+003;3.828124e-001
1.051059e+003;3.794762e-001
1.052987e+003;3.769816e-001
1.054916e+003;3.743389e-001
1.056844e+003;3.707013e-001
1.058773e+003;3.659505e-001
1.060701e+003;3.605540e-001
1.062630e+003;3.536891e-001
1.064558e+003;3.459103e-001
1.066487e+003;3.382248e-001
1.068416e+003;3.315148e-001
1.070344e+003;3.249007e-001
1.072273e+003;3.187514e-001
1.074201e+003;3.143030e-001
1.076130e+003;3.094110e-001
1.078058e+003;3.030022e-001
1.079987e+003;2.959246e-001
1.081915e+003;2.904083e-001
1.083844e+003;2.852116e-001
1.085773e+003;2.804534e-001
1.087701e+003;2.754807e-001
1.089630e+003;2.695920e-001
1.091558e+003;2.641501e-001
1.093487e+003;2.593098e-001
1.095415e+003;2.545809e-001
1.097344e+003;2.488383e-001
1.099272e+003;2.417983e-001
1.101201e+003;2.348921e-001
1.103129e+003;2.286593e-001
1.105058e+003;2.238795e-001
1.106987e+003;2.204542e-001
1.108915e+003;2.168703e-001
1.110844e+003;2.133201e-001
1.112772e+003;2.093414e-001
1.114701e+003;2.048894e-001
1.116629e+003;1.998530e-001
1.118558e+003;1.941674e-001
1.120486e+003;1.884944e-001
1.122415e+003;1.830698e-001
1.124344e+003;1.775675e-001
1.126272e+003;1.720795e-001
1.128201e+003;1.672504e-001
1.130129e+003;1.623502e-001
1.132058e+003;1.579313e-001
1.133986e+003;1.536806e-001
1.135915e+003;1.496966e-001
1.137843e+003;1.474031e-001
1.139772e+003;1.457336e-001
1.141700e+003;1.448180e-001
1.143629e+003;1.449838e-001
1.145557e+003;1.456608e-001
1.147486e+003;1.463239e-001
1.149415e+003;1.476672e-001
1.151343e+003;1.499498e-001
1.153272e+003;1.519062e-001
1.155200e+003;1.525721e-001
1.157129e+003;1.518178e-001
1.159057e+003;1.494885e-001
1.160986e+003;1.462042e-001
1.162914e+003;1.414890e-001
1.164843e+003;1.353671e-001
1.166771e+003;1.290284e-001
1.168700e+003;1.227463e-001
1.170629e+003;1.168258e-001
1.172557e+003;1.115112e-001
1.174486e+003;1.068874e-001
1.176414e+003;1.029622e-001
1.178343e+003;9.982430e-002
1.180271e+003;9.751542e-002
1.182200e+003;9.603979e-002
1.184128e+003;9.575617e-002
1.186057e+003;9.625371e-002
1.187986e+003;9.725557e-002
1.189914e+003;9.936725e-002
1.191843e+003;1.023459e-001
1.193771e+003;1.053919e-001
1.195700e+003;1.075659e-001
1.197628e+003;1.085950e-001
1.199557e+003;1.085096e-001
1.201485e+003;1.072854e-001
1.203414e+003;1.054967e-001
1.205343e+003;1.034151e-001
1.207271e+003;1.012839e-001
1.209200e+003;9.945015e-002
1.211128e+003;9.869650e-002
1.213057e+003;9.893066e-002
1.214985e+003;9.949390e-002
1.216914e+003;1.008100e-001
1.218842e+003;1.027357e-001
1.220771e+003;1.045331e-001
1.222699e+003;1.067436e-001
1.224628e+003;1.088940e-001
1.226557e+003;1.102007e-001
1.228485e+003;1.106896e-001
1.230414e+003;1.105263e-001
1.232342e+003;1.106375e-001
1.234271e+003;1.110105e-001
1.236199e+003;1.110252e-001
1.238128e+003;1.108882e-001
1.240056e+003;1.110010e-001
1.241985e+003;1.112412e-001
1.243913e+003;1.110320e-001
1.245842e+003;1.106873e-001
1.247771e+003;1.108371e-001
1.249699e+003;1.116758e-001
1.251628e+003;1.130346e-001
1.253556e+003;1.144385e-001
1.255485e+003;1.157300e-001
1.257413e+003;1.166585e-001
1.259342e+003;1.172690e-001
1.261270e+003;1.172827e-001
1.263199e+003;1.169383e-001
1.265127e+003;1.164877e-001
1.267056e+003;1.154925e-001
1.268985e+003;1.142379e-001
1.270913e+003;1.133797e-001
1.272842e+003;1.127737e-001
1.274770e+003;1.124604e-001
1.276699e+003;1.120949e-001
1.278627e+003;1.112639e-001
1.280556e+003;1.104747e-001
1.282484e+003;1.099836e-001
1.284413e+003;1.097229e-001
1.286342e+003;1.098742e-001
1.288270e+003;1.110392e-001
1.290199e+003;1.125366e-001
1.292127e+003;1.139993e-001
1.294056e+003;1.157440e-001
1.295984e+003;1.175047e-001
1.297913e+003;1.190265e-001
1.299841e+003;1.203568e-001
1.301770e+003;1.217548e-001
1.303698e+003;1.236554e-001
1.305627e+003;1.257857e-001
1.307556e+003;1.277362e-001
1.309484e+003;1.298750e-001
1.311413e+003;1.312788e-001
1.313341e+003;1.317236e-001
1.315270e+003;1.319087e-001
1.317198e+003;1.314929e-001
1.319127e+003;1.303701e-001
1.321055e+003;1.289923e-001
1.322984e+003;1.278069e-001
1.324912e+003;1.272722e-001
1.326841e+003;1.271169e-001
1.328770e+003;1.272424e-001
1.330698e+003;1.277750e-001
1.332627e+003;1.279935e-001
1.334555e+003;1.280426e-001
1.336484e+003;1.279790e-001
1.338412e+003;1.274131e-001
1.340341e+003;1.268880e-001
1.342269e+003;1.266234e-001
1.344198e+003;1.263810e-001
1.346126e+003;1.261371e-001
1.348055e+003;1.260942e-001
1.349984e+003;1.264258e-001
1.351912e+003;1.271221e-001
1.353841e+003;1.282124e-001
1.355769e+003;1.295834e-001
1.357698e+003;1.308629e-001
1.359626e+003;1.321767e-001
1.361555e+003;1.330369e-001
1.363483e+003;1.332158e-001
1.365412e+003;1.331977e-001
1.367341e+003;1.329565e-001
1.369269e+003;1.324147e-001
1.371198e+003;1.312849e-001
1.373126e+003;1.296604e-001
1.375055e+003;1.278365e-001
1.376983e+003;1.259818e-001
1.378912e+003;1.239302e-001
1.380840e+003;1.213998e-001
1.382769e+003;1.188617e-001
1.384698e+003;1.168271e-001
1.386626e+003;1.148026e-001
1.388555e+003;1.134696e-001
1.390483e+003;1.129088e-001
1.392412e+003;1.123036e-001
1.394340e+003;1.114557e-001
1.396269e+003;1.108040e-001
1.398197e+003;1.105569e-001
1.400126e+003;1.106711e-001
1.402054e+003;1.105786e-001
1.403983e+003;1.102836e-001
1.405911e+003;1.103431e-001
1.407840e+003;1.106569e-001
1.409769e+003;1.108380e-001
1.411697e+003;1.110049e-001
1.413626e+003;1.112012e-001
1.415554e+003;1.110651e-001
1.417483e+003;1.103815e-001
1.419411e+003;1.100008e-001
1.421340e+003;1.105702e-001
1.423268e+003;1.104833e-001
1.425197e+003;1.099875e-001
1.427125e+003;1.096730e-001
1.429054e+003;1.090759e-001
1.430983e+003;1.085101e-001
1.432911e+003;1.081884e-001
1.434840e+003;1.070086e-001
1.436768e+003;1.052946e-001
1.438697e+003;1.050632e-001
1.440625e+003;1.051239e-001
1.442554e+003;1.042924e-001
1.444482e+003;1.031213e-001
1.446411e+003;1.018790e-001
1.448340e+003;1.008106e-001
1.450268e+003;9.996059e-002
1.452197e+003;9.886297e-002
1.454125e+003;9.720148e-002
1.456054e+003;9.479200e-002
1.457982e+003;9.394242e-002
1.459911e+003;9.425220e-002
1.461839e+003;9.345729e-002
1.463768e+003;9.204406e-002
1.465697e+003;9.121434e-002
1.467625e+003;9.032249e-002
1.469554e+003;8.864099e-002
1.471482e+003;8.641216e-002
1.473411e+003;8.487288e-002
1.475339e+003;8.386763e-002
1.477268e+003;8.254195e-002
1.479196e+003;8.120564e-002
1.481125e+003;7.938637e-002
1.483053e+003;7.760103e-002
1.484982e+003;7.593756e-002
1.486911e+003;7.402661e-002
1.488839e+003;7.209846e-002
1.490768e+003;7.097442e-002
1.492696e+003;7.027581e-002
1.494625e+003;6.887277e-002
1.496553e+003;6.736769e-002
1.498482e+003;6.671108e-002
1.500410e+003;6.650393e-002
1.502339e+003;6.625855e-002
1.504267e+003;6.454522e-002
1.506196e+003;6.245086e-002
1.508125e+003;6.265218e-002
1.510053e+003;6.351252e-002
1.511982e+003;6.353036e-002
1.513910e+003;6.336274e-002
1.515839e+003;6.303339e-002
1.517767e+003;6.276090e-002
1.519696e+003;6.175588e-002
1.521624e+003;6.105812e-002
1.523553e+003;6.197606e-002
1.525481e+003;6.255379e-002
1.527410e+003;6.255164e-002
1.529339e+003;6.285643e-002
1.531267e+003;6.307591e-002
1.533196e+003;6.253014e-002
1.535124e+003;6.273019e-002
1.537053e+003;6.225976e-002
1.538981e+003;6.031541e-002
1.540910e+003;6.027491e-002
1.542838e+003;6.175825e-002
1.544767e+003;6.272396e-002
1.546695e+003;6.345841e-002
1.548624e+003;6.358137e-002
1.550553e+003;6.363315e-002
1.552481e+003;6.354834e-002
1.554410e+003;6.294605e-002
1.556338e+003;6.210873e-002
1.558267e+003;6.056477e-002
1.560195e+003;6.143407e-002
1.562124e+003;6.382889e-002
1.564052e+003;6.436173e-002
1.565981e+003;6.428020e-002
1.567910e+003;6.427816e-002
1.569838e+003;6.417283e-002
1.571767e+003;6.475344e-002
1.573695e+003;6.467175e-002
1.575624e+003;6.375635e-002
1.577552e+003;6.430575e-002
1.579481e+003;6.539137e-002
1.581409e+003;6.601404e-002
1.583338e+003;6.629889e-002
1.585266e+003;6.643427e-002
1.587195e+003;6.678507e-002
1.589124e+003;6.691663e-002
1.591052e+003;6.686148e-002
1.592981e+003;6.740572e-002
1.594909e+003;6.801168e-002
1.596838e+003;6.840674e-002
1.598766e+003;6.869971e-002
1.600695e+003;6.889087e-002
1.602623e+003;6.923294e-002
1.604552e+003;6.981507e-002
1.606480e+003;7.046945e-002
1.608409e+003;7.099252e-002
1.610338e+003;7.134715e-002
1.612266e+003;7.179829e-002
1.614195e+003;7.200904e-002
1.616123e+003;7.142580e-002
1.618052e+003;7.216754e-002
1.619980e+003;7.343073e-002
1.621909e+003;7.371687e-002
1.623837e+003;7.433669e-002
1.625766e+003;7.518124e-002
1.627694e+003;7.561395e-002
1.629623e+003;7.611878e-002
1.631552e+003;7.637659e-002
1.633480e+003;7.586988e-002
1.635409e+003;7.526840e-002
1.637337e+003;7.617753e-002
1.639266e+003;7.708074e-002
1.641194e+003;7.716800e-002
1.643123e+003;7.672288e-002
1.645051e+003;7.533038e-002
1.646980e+003;7.479572e-002
1.648909e+003;7.508122e-002
1.650837e+003;7.348504e-002
1.652766e+003;7.090989e-002
1.654694e+003;7.171875e-002
1.656623e+003;7.319062e-002
1.658551e+003;7.306358e-002
1.660480e+003;7.224309e-002
1.662408e+003;7.129658e-002
1.664337e+003;7.046633e-002
1.666266e+003;6.959368e-002
1.668194e+003;6.822622e-002
1.670123e+003;6.685684e-002
1.672051e+003;6.615941e-002
1.673980e+003;6.505971e-002
1.675908e+003;6.410665e-002
1.677837e+003;6.369074e-002
1.679765e+003;6.253664e-002
1.681694e+003;6.073565e-002
1.683622e+003;5.827798e-002
1.685551e+003;5.780318e-002
1.687479e+003;5.835252e-002
1.689408e+003;5.765627e-002
1.691337e+003;5.686269e-002
1.693265e+003;5.565173e-002
1.695194e+003;5.346363e-002
1.697122e+003;5.251842e-002
1.699051e+003;5.129067e-002
1.700979e+003;5.053591e-002
1.702908e+003;5.129037e-002
1.704836e+003;5.109111e-002
1.706765e+003;5.071317e-002
1.708693e+003;5.008720e-002
1.710622e+003;4.942055e-002
1.712551e+003;4.887015e-002
1.714479e+003;4.784146e-002
1.716408e+003;4.638919e-002
1.718336e+003;4.641957e-002
1.720265e+003;4.765524e-002
1.722193e+003;4.814031e-002
1.724122e+003;4.815275e-002
1.726050e+003;4.814542e-002
1.727979e+003;4.776485e-002
1.729908e+003;4.708706e-002
1.731836e+003;4.588176e-002
1.733765e+003;4.437517e-002
1.735693e+003;4.457570e-002
1.737622e+003;4.463504e-002
1.739550e+003;4.355082e-002
1.741479e+003;4.297170e-002
1.743407e+003;4.254590e-002
1.745336e+003;4.219780e-002
1.747265e+003;4.171323e-002
1.749193e+003;4.124161e-002
1.751122e+003;4.148470e-002
1.753050e+003;4.255788e-002
1.754979e+003;4.306162e-002
1.756907e+003;4.310513e-002
1.758836e+003;4.326503e-002
1.760764e+003;4.320968e-002
1.762693e+003;4.325218e-002
1.764621e+003;4.346175e-002
1.766550e+003;4.322410e-002
1.768479e+003;4.252254e-002
1.770407e+003;4.187980e-002
1.772336e+003;4.162661e-002
1.774264e+003;4.204184e-002
1.776193e+003;4.264651e-002
1.778121e+003;4.279787e-002
1.780050e+003;4.256753e-002
1.781978e+003;4.261811e-002
1.783907e+003;4.258218e-002
1.785835e+003;4.237848e-002
1.787764e+003;4.215205e-002
1.789693e+003;4.162796e-002
1.791621e+003;4.083993e-002
1.793550e+003;4.098563e-002
1.795478e+003;4.154901e-002
1.797407e+003;4.132105e-002
1.799335e+003;4.098002e-002
1.801264e+003;4.101418e-002
1.803192e+003;4.107252e-002
1.805121e+003;4.107394e-002
1.807049e+003;4.103512e-002
1.808978e+003;4.080651e-002
1.810907e+003;4.044213e-002
1.812835e+003;4.038078e-002
1.814764e+003;4.049836e-002
1.816692e+003;4.018556e-002
1.818621e+003;4.011131e-002
1.820549e+003;4.035064e-002
1.822478e+003;4.011161e-002
1.824406e+003;3.957029e-002
1.826335e+003;3.968769e-002
1.828264e+003;3.965309e-002
1.830192e+003;3.934285e-002
1.832121e+003;3.943348e-002
1.834049e+003;3.944905e-002
1.835978e+003;3.925958e-002
1.837906e+003;3.917294e-002
1.839835e+003;3.918704e-002
1.841763e+003;3.884986e-002
1.843692e+003;3.809777e-002
1.845620e+003;3.804228e-002
1.847549e+003;3.821864e-002
1.849478e+003;3.812967e-002
1.851406e+003;3.812479e-002
1.853335e+003;3.825406e-002
1.855263e+003;3.821719e-002
1.857192e+003;3.785079e-002
1.859120e+003;3.774990e-002
1.861049e+003;3.798355e-002
1.862977e+003;3.785910e-002
1.864906e+003;3.768669e-002
1.866834e+003;3.751720e-002
1.868763e+003;3.734836e-002
1.870692e+003;3.742376e-002
1.872620e+003;3.742130e-002
1.874549e+003;3.742412e-002
1.876477e+003;3.735438e-002
1.878406e+003;3.710050e-002
1.880334e+003;3.702601e-002
1.882263e+003;3.703850e-002
1.884191e+003;3.693427e-002
1.886120e+003;3.693986e-002
1.888048e+003;3.678905e-002
1.889977e+003;3.674297e-002
1.891906e+003;3.699462e-002
1.893834e+003;3.701277e-002
1.895763e+003;3.713388e-002
1.897691e+003;3.724491e-002
1.899620e+003;3.718517e-002
1.901548e+003;3.729528e-002
1.903477e+003;3.733200e-002
1.905405e+003;3.706463e-002
1.907334e+003;3.695804e-002
1.909262e+003;3.715301e-002
1.911191e+003;3.741029e-002
1.913120e+003;3.755889e-002
1.915048e+003;3.764564e-002
1.916977e+003;3.745728e-002
1.918905e+003;3.768488e-002
1.920834e+003;3.795929e-002
1.922762e+003;3.790737e-002
1.924691e+003;3.812016e-002
1.926619e+003;3.813930e-002
1.928548e+003;3.783282e-002
1.930477e+003;3.772637e-002
1.932405e+003;3.784612e-002
1.934334e+003;3.792711e-002
1.936262e+003;3.794399e-002
1.938191e+003;3.796041e-002
1.940119e+003;3.800326e-002
1.942048e+003;3.818842e-002
1.943976e+003;3.840646e-002
1.945905e+003;3.864847e-002
1.947833e+003;3.875703e-002
1.949762e+003;3.886011e-002
1.951691e+003;3.899029e-002
1.953619e+003;3.911133e-002
1.955548e+003;3.917529e-002
1.957476e+003;3.925214e-002
1.959405e+003;3.929392e-002
1.961333e+003;3.934946e-002
1.963262e+003;3.940366e-002
1.965190e+003;3.939883e-002
1.967119e+003;3.957222e-002
1.969047e+003;3.955842e-002
1.970976e+003;3.927111e-002
1.972905e+003;3.940235e-002
1.974833e+003;3.973096e-002
1.976762e+003;3.982512e-002
1.978690e+003;3.990459e-002
1.980619e+003;4.010354e-002
1.982547e+003;4.040031e-002
1.984476e+003;4.050658e-002
1.986404e+003;4.041137e-002
1.988333e+003;4.016492e-002
1.990261e+003;3.988504e-002
1.992190e+003;3.993354e-002
1.994119e+003;4.022380e-002
1.996047e+003;4.007043e-002
1.997976e+003;4.004176e-002
1.999904e+003;4.026949e-002
2.001833e+003;4.043748e-002
2.003761e+003;4.035068e-002
2.005690e+003;4.019254e-002
2.007618e+003;4.059305e-002
2.009547e+003;4.078969e-002
2.011476e+003;4.061346e-002
2.013404e+003;4.055685e-002
2.015333e+003;4.070836e-002
2.017261e+003;4.096658e-002
2.019190e+003;4.114005e-002
2.021118e+003;4.097343e-002
2.023047e+003;4.094248e-002
2.024975e+003;4.117104e-002
2.026904e+003;4.127605e-002
2.028833e+003;4.124711e-002
2.030761e+003;4.143731e-002
2.032690e+003;4.153516e-002
2.034618e+003;4.162803e-002
2.036547e+003;4.188754e-002
2.038475e+003;4.192961e-002
2.040404e+003;4.180803e-002
2.042332e+003;4.187009e-002
2.044261e+003;4.189356e-002
2.046189e+003;4.181887e-002
2.048118e+003;4.189498e-002
2.050047e+003;4.199596e-002
2.051975e+003;4.197413e-002
2.053904e+003;4.201015e-002
2.055832e+003;4.198253e-002
2.057761e+003;4.202636e-002
2.059689e+003;4.187761e-002
2.061618e+003;4.172548e-002
2.063546e+003;4.185670e-002
2.065475e+003;4.202078e-002
2.067404e+003;4.171523e-002
2.069332e+003;4.144355e-002
2.071260e+003;4.140389e-002
2.073189e+003;4.111837e-002
2.075118e+003;4.112198e-002
2.077046e+003;4.128162e-002
2.078975e+003;4.138745e-002
2.080903e+003;4.124821e-002
2.082832e+003;4.116504e-002
2.084760e+003;4.117855e-002
2.086689e+003;4.095544e-002
2.088617e+003;4.098344e-002
2.090546e+003;4.128811e-002
2.092475e+003;4.164736e-002
2.094403e+003;4.184729e-002
2.096332e+003;4.167639e-002
2.098260e+003;4.151266e-002
2.100189e+003;4.154015e-002
2.102117e+003;4.151813e-002
2.104046e+003;4.169791e-002
2.105974e+003;4.180625e-002
2.107903e+003;4.206692e-002
2.109832e+003;4.220697e-002
2.111760e+003;4.202746e-002
2.113688e+003;4.196486e-002
2.115617e+003;4.208342e-002
2.117546e+003;4.203567e-002
2.119474e+003;4.229644e-002
2.121403e+003;4.252934e-002
2.123331e+003;4.264969e-002
2.125260e+003;4.280401e-002
2.127188e+003;4.271092e-002
2.129117e+003;4.224301e-002
2.131045e+003;4.196581e-002
2.132974e+003;4.233519e-002
2.134903e+003;4.269546e-002
2.136831e+003;4.268486e-002
2.138760e+003;4.245604e-002
2.140688e+003;4.225188e-002
2.142617e+003;4.194662e-002
2.144545e+003;4.192111e-002
2.146474e+003;4.204673e-002
2.148402e+003;4.215545e-002
2.150331e+003;4.229111e-002
2.152260e+003;4.217162e-002
2.154188e+003;4.190713e-002
2.156117e+003;4.177994e-002
2.158045e+003;4.184368e-002
2.159974e+003;4.163212e-002
2.161902e+003;4.151310e-002
2.163831e+003;4.175094e-002
2.165759e+003;4.183014e-002
2.167688e+003;4.151729e-002
2.169616e+003;4.109648e-002
2.171545e+003;4.096312e-002
2.173474e+003;4.118103e-002
2.175402e+003;4.115986e-002
2.177331e+003;4.091240e-002
2.179259e+003;4.059665e-002
2.181188e+003;4.030538e-002
2.183116e+003;4.012185e-002
2.185045e+003;4.028393e-002
2.186973e+003;4.048461e-002
2.188902e+003;4.043562e-002
2.190831e+003;4.026470e-002
2.192759e+003;4.007810e-002
2.194688e+003;3.994146e-002
2.196616e+003;3.974683e-002
2.198545e+003;3.949306e-002
2.200473e+003;3.961893e-002
2.202402e+003;3.960416e-002
2.204330e+003;3.962702e-002
2.206259e+003;3.963265e-002
2.208188e+003;3.929998e-002
2.210116e+003;3.911068e-002
2.212044e+003;3.910172e-002
2.213973e+003;3.903919e-002
2.215902e+003;3.907997e-002
2.217830e+003;3.886761e-002
2.219759e+003;3.876754e-002
2.221687e+003;3.886431e-002
2.223616e+003;3.871606e-002
2.225544e+003;3.855236e-002
2.227473e+003;3.843821e-002
2.229401e+003;3.841678e-002
2.231330e+003;3.829868e-002
2.233259e+003;3.812866e-002
2.235187e+003;3.806023e-002
2.237116e+003;3.810558e-002
2.239044e+003;3.807176e-002
2.240973e+003;3.812070e-002
2.242901e+003;3.813260e-002
2.244830e+003;3.791330e-002
2.246758e+003;3.772514e-002
2.248687e+003;3.756420e-002
2.250615e+003;3.746674e-002
2.252544e+003;3.718679e-002
2.254473e+003;3.695880e-002
2.256401e+003;3.713872e-002
2.258330e+003;3.732503e-002
2.260258e+003;3.735088e-002
2.262187e+003;3.745395e-002
2.264115e+003;3.708545e-002
2.266044e+003;3.666739e-002
2.267972e+003;3.651726e-002
2.269901e+003;3.651823e-002
2.271830e+003;3.668650e-002
2.273758e+003;3.659039e-002
2.275687e+003;3.625150e-002
2.277615e+003;3.613021e-002
2.279544e+003;3.630953e-002
2.281472e+003;3.634869e-002
2.283401e+003;3.648947e-002
2.285329e+003;3.625424e-002
2.287258e+003;3.588960e-002
2.289187e+003;3.589744e-002
2.291115e+003;3.605532e-002
2.293043e+003;3.630222e-002
2.294972e+003;3.643999e-002
2.296901e+003;3.641873e-002
2.298829e+003;3.620256e-002
2.300758e+003;3.591457e-002
2.302686e+003;3.573721e-002
2.304615e+003;3.568591e-002
2.306543e+003;3.547272e-002
2.308472e+003;3.544953e-002
2.310400e+003;3.560463e-002
2.312329e+003;3.562980e-002
2.314258e+003;3.562761e-002
2.316186e+003;3.534996e-002
2.318115e+003;3.514351e-002
2.320043e+003;3.498517e-002
2.321972e+003;3.452544e-002
2.323900e+003;3.429783e-002
2.325829e+003;3.396947e-002
2.327757e+003;3.350304e-002
2.329686e+003;3.349477e-002
2.331615e+003;3.369127e-002
2.333543e+003;3.371304e-002
2.335472e+003;3.367265e-002
2.337400e+003;3.364612e-002
2.339329e+003;3.390885e-002
2.341257e+003;3.435843e-002
2.343186e+003;3.479861e-002
2.345114e+003;3.564962e-002
2.347043e+003;3.653218e-002
2.348971e+003;3.682310e-002
2.350900e+003;3.648727e-002
2.352829e+003;3.589600e-002
2.354757e+003;3.523905e-002
2.356686e+003;3.449609e-002
2.358614e+003;3.410769e-002
2.360543e+003;3.394174e-002
2.362471e+003;3.401411e-002
2.364400e+003;3.423254e-002
2.366328e+003;3.475259e-002
2.368257e+003;3.541905e-002
2.370186e+003;3.608790e-002
2.372114e+003;3.672631e-002
2.374042e+003;3.743470e-002
2.375971e+003;3.791886e-002
2.377900e+003;3.842434e-002
2.379828e+003;3.904053e-002
2.381757e+003;3.953999e-002
2.383685e+003;3.956067e-002
2.385614e+003;3.967509e-002
2.387542e+003;3.978347e-002
2.389471e+003;3.943885e-002
2.391399e+003;3.952442e-002
2.393328e+003;3.993357e-002
2.395257e+003;4.014224e-002
2.397185e+003;4.029396e-002
2.399114e+003;4.036729e-002
2.401042e+003;4.051426e-002
2.402971e+003;4.060666e-002
2.404899e+003;4.052306e-002
2.406828e+003;4.077630e-002
2.408756e+003;4.109247e-002
2.410685e+003;4.135315e-002
2.412614e+003;4.167734e-002
2.414542e+003;4.153888e-002
2.416471e+003;4.165155e-002
2.418399e+003;4.187075e-002
2.420328e+003;4.197377e-002
2.422256e+003;4.249218e-002
2.424185e+003;4.297356e-002
2.426113e+003;4.301487e-002
2.428042e+003;4.314904e-002
2.429970e+003;4.318304e-002
2.431899e+003;4.311651e-002
2.433828e+003;4.344567e-002
2.435756e+003;4.417796e-002
2.437685e+003;4.452878e-002
2.439613e+003;4.437803e-002
2.441542e+003;4.435796e-002
2.443470e+003;4.451292e-002
2.445399e+003;4.446546e-002
2.447327e+003;4.452217e-002
2.449256e+003;4.473213e-002
2.451185e+003;4.489271e-002
2.453113e+003;4.500677e-002
2.455042e+003;4.508289e-002
2.456970e+003;4.529122e-002
2.458899e+003;4.572075e-002
2.460827e+003;4.573106e-002
2.462756e+003;4.574869e-002
2.464684e+003;4.607967e-002
2.466613e+003;4.646279e-002
2.468542e+003;4.679166e-002
2.470470e+003;4.684583e-002
2.472398e+003;4.680889e-002
2.474327e+003;4.679664e-002
2.476256e+003;4.692922e-002
2.478184e+003;4.695358e-002
2.480113e+003;4.704570e-002
2.482041e+003;4.740099e-002
2.483970e+003;4.764925e-002
2.485898e+003;4.795286e-002
2.487827e+003;4.813743e-002
2.489755e+003;4.831734e-002
2.491684e+003;4.846653e-002
2.493613e+003;4.841296e-002
2.495541e+003;4.848653e-002
2.497470e+003;4.853211e-002
2.499398e+003;4.858198e-002
2.501327e+003;4.882873e-002
2.503255e+003;4.887693e-002
2.505184e+003;4.898048e-002
2.507112e+003;4.921131e-002
2.509041e+003;4.932451e-002
2.510969e+003;4.923031e-002
2.512898e+003;4.882110e-002
2.514827e+003;4.893838e-002
2.516755e+003;4.936954e-002
2.518684e+003;4.959319e-002
2.520612e+003;4.966570e-002
2.522541e+003;4.979529e-002
2.524469e+003;4.966748e-002
2.526398e+003;4.964003e-002
2.528326e+003;4.989619e-002
2.530255e+003;5.007299e-002
2.532184e+003;5.024091e-002
2.534112e+003;5.028942e-002
2.536041e+003;5.018240e-002
2.537969e+003;5.011241e-002
2.539898e+003;5.024727e-002
2.541826e+003;5.024619e-002
2.543755e+003;5.020981e-002
2.545683e+003;5.019925e-002
2.547612e+003;5.014975e-002
2.549541e+003;5.033723e-002
2.551469e+003;5.053740e-002
2.553397e+003;5.053647e-002
2.555326e+003;5.080609e-002
2.557255e+003;5.095305e-002
2.559183e+003;5.108955e-002
2.561112e+003;5.123802e-002
2.563040e+003;5.110114e-002
2.564969e+003;5.078054e-002
2.566897e+003;5.069909e-002
2.568826e+003;5.110117e-002
2.570754e+003;5.145760e-002
2.572683e+003;5.161109e-002
2.574612e+003;5.144119e-002
2.576540e+003;5.141314e-002
2.578469e+003;5.189179e-002
2.580397e+003;5.231008e-002
2.582326e+003;5.223518e-002
2.584254e+003;5.218481e-002
2.586183e+003;5.247246e-002
2.588111e+003;5.242084e-002
2.590040e+003;5.258386e-002
2.591969e+003;5.287141e-002
2.593897e+003;5.276083e-002
2.595826e+003;5.262620e-002
2.597754e+003;5.255757e-002
2.599683e+003;5.285048e-002
2.601611e+003;5.320648e-002
2.603540e+003;5.339168e-002
2.605468e+003;5.351906e-002
2.607397e+003;5.382488e-002
2.609325e+003;5.392147e-002
2.611254e+003;5.385875e-002
2.613183e+003;5.399313e-002
2.615111e+003;5.426734e-002
2.617040e+003;5.455341e-002
2.618968e+003;5.495193e-002
2.620897e+003;5.534894e-002
2.622825e+003;5.558274e-002
2.624754e+003;5.551586e-002
2.626682e+003;5.576764e-002
2.628611e+003;5.595254e-002
2.630540e+003;5.597975e-002
2.632468e+003;5.615287e-002
2.634396e+003;5.637333e-002
2.636325e+003;5.671693e-002
2.638254e+003;5.680265e-002
2.640182e+003;5.693949e-002
2.642111e+003;5.719409e-002
2.644039e+003;5.727495e-002
2.645968e+003;5.752196e-002
2.647896e+003;5.820951e-002
2.649825e+003;5.835771e-002
2.651753e+003;5.821970e-002
2.653682e+003;5.825650e-002
2.655611e+003;5.827896e-002
2.657539e+003;5.869246e-002
2.659468e+003;5.913223e-002
2.661396e+003;5.947768e-002
2.663325e+003;5.947787e-002
2.665253e+003;5.945640e-002
2.667182e+003;5.962988e-002
2.669110e+003;5.951450e-002
2.671039e+003;5.969698e-002
2.672968e+003;6.020011e-002
2.674896e+003;6.037964e-002
2.676825e+003;6.062667e-002
2.678753e+003;6.114813e-002
2.680682e+003;6.148538e-002
2.682610e+003;6.154840e-002
2.684539e+003;6.153680e-002
2.686467e+003;6.146931e-002
2.688396e+003;6.141232e-002
2.690324e+003;6.157563e-002
2.692253e+003;6.192616e-002
2.694182e+003;6.230879e-002
2.696110e+003;6.254257e-002
2.698039e+003;6.277373e-002
2.699967e+003;6.291123e-002
2.701896e+003;6.304879e-002
2.703824e+003;6.330321e-002
2.705753e+003;6.349250e-002
2.707681e+003;6.354094e-002
2.709610e+003;6.355540e-002
2.711539e+003;6.357132e-002
2.713467e+003;6.388934e-002
2.715396e+003;6.442149e-002
2.717324e+003;6.456510e-002
2.719253e+003;6.435093e-002
2.721181e+003;6.439424e-002
2.723110e+003;6.485784e-002
2.725038e+003;6.518520e-002
2.726967e+003;6.519724e-002
2.728896e+003;6.522593e-002
2.730824e+003;6.539623e-002
2.732752e+003;6.534646e-002
2.734681e+003;6.544989e-002
2.736610e+003;6.602230e-002
2.738538e+003;6.633100e-002
2.740467e+003;6.601327e-002
2.742395e+003;6.591149e-002
2.744324e+003;6.588106e-002
2.746252e+003;6.576794e-002
2.748181e+003;6.606886e-002
2.750109e+003;6.655599e-002
2.752038e+003;6.700844e-002
2.753967e+003;6.711462e-002
2.755895e+003;6.732141e-002
2.757824e+003;6.741002e-002
2.759752e+003;6.726965e-002
2.761681e+003;6.757134e-002
2.763609e+003;6.783179e-002
2.765538e+003;6.757122e-002
2.767466e+003;6.766778e-002
2.769395e+003;6.829609e-002
2.771323e+003;6.866509e-002
2.773252e+003;6.857025e-002
2.775181e+003;6.872568e-002
2.777109e+003;6.931684e-002
2.779038e+003;6.958804e-002
2.780966e+003;6.980328e-002
2.782895e+003;7.007672e-002
2.784823e+003;7.036759e-002
2.786752e+003;7.064088e-002
2.788680e+003;7.118493e-002
2.790609e+003;7.160359e-002
2.792538e+003;7.186002e-002
2.794466e+003;7.221449e-002
2.796395e+003;7.248711e-002
2.798323e+003;7.290001e-002
2.800252e+003;7.327192e-002
2.802180e+003;7.335819e-002
2.804109e+003;7.348178e-002
2.806037e+003;7.397196e-002
2.807966e+003;7.445987e-002
2.809895e+003;7.467427e-002
2.811823e+003;7.484127e-002
2.813751e+003;7.527773e-002
2.815680e+003;7.575563e-002
2.817609e+003;7.607022e-002
2.819537e+003;7.626769e-002
2.821466e+003;7.643376e-002
2.823394e+003;7.671575e-002
2.825323e+003;7.733002e-002
2.827251e+003;7.804996e-002
2.829180e+003;7.881980e-002
2.831108e+003;7.926501e-002
2.833037e+003;7.970607e-002
2.834966e+003;8.037275e-002
2.836894e+003;8.092738e-002
2.838823e+003;8.123652e-002
2.840751e+003;8.141073e-002
2.842680e+003;8.169582e-002
2.844608e+003;8.195508e-002
2.846537e+003;8.241519e-002
2.848465e+003;8.300107e-002
2.850394e+003;8.355545e-002
2.852323e+003;8.375579e-002
2.854251e+003;8.428929e-002
2.856180e+003;8.576087e-002
2.858108e+003;8.778798e-002
2.860037e+003;8.983674e-002
2.861965e+003;9.178988e-002
2.863894e+003;9.352534e-002
2.865822e+003;9.485028e-002
2.867751e+003;9.627368e-002
2.869679e+003;9.752662e-002
2.871608e+003;9.839887e-002
2.873536e+003;9.915392e-002
2.875465e+003;9.979336e-002
2.877394e+003;1.006231e-001
2.879322e+003;1.013779e-001
2.881251e+003;1.020616e-001
2.883179e+003;1.022540e-001
2.885108e+003;1.021540e-001
2.887036e+003;1.024203e-001
2.888965e+003;1.028920e-001
2.890893e+003;1.027459e-001
2.892822e+003;1.023896e-001
2.894750e+003;1.021708e-001
2.896679e+003;1.015872e-001
2.898608e+003;1.008317e-001
2.900536e+003;1.004579e-001
2.902465e+003;1.000644e-001
2.904393e+003;9.936193e-002
2.906322e+003;9.833849e-002
2.908250e+003;9.728102e-002
2.910179e+003;9.625168e-002
2.912107e+003;9.509240e-002
2.914036e+003;9.379201e-002
2.915965e+003;9.238011e-002
2.917893e+003;9.072347e-002
2.919822e+003;8.923396e-002
2.921750e+003;8.804295e-002
2.923679e+003;8.673491e-002
2.925607e+003;8.548798e-002
2.927536e+003;8.489467e-002
2.929464e+003;8.482002e-002
2.931393e+003;8.483710e-002
2.933322e+003;8.467230e-002
2.935250e+003;8.436300e-002
2.937178e+003;8.400459e-002
2.939107e+003;8.333461e-002
2.941036e+003;8.258739e-002
2.942964e+003;8.161836e-002
2.944893e+003;8.084239e-002
2.946821e+003;8.006670e-002
2.948750e+003;7.866000e-002
2.950678e+003;7.712594e-002
2.952607e+003;7.566849e-002
2.954535e+003;7.465432e-002
2.956464e+003;7.405651e-002
2.958393e+003;7.354803e-002
2.960321e+003;7.285871e-002
2.962250e+003;7.234591e-002
2.964178e+003;7.188168e-002
2.966107e+003;7.179407e-002
2.968035e+003;7.149490e-002
2.969964e+003;7.099892e-002
2.971892e+003;7.091332e-002
2.973821e+003;7.105929e-002
2.975750e+003;7.133110e-002
2.977678e+003;7.099014e-002
2.979607e+003;7.023229e-002
2.981535e+003;6.950104e-002
2.983464e+003;6.903405e-002
2.985392e+003;6.885969e-002
2.987321e+003;6.871457e-002
2.989249e+003;6.894884e-002
2.991178e+003;6.873616e-002
2.993106e+003;6.825294e-002
2.995035e+003;6.817427e-002
2.996964e+003;6.811640e-002
2.998892e+003;6.814206e-002
3.000821e+003;6.803710e-002
3.002749e+003;6.791613e-002
3.004678e+003;6.802145e-002
3.006606e+003;6.791497e-002
3.008535e+003;6.814353e-002
3.010463e+003;6.877963e-002
3.012392e+003;6.911447e-002
3.014321e+003;6.921417e-002
3.016249e+003;6.952538e-002
3.018177e+003;6.960585e-002
3.020106e+003;6.966909e-002
3.022035e+003;6.997004e-002
3.023963e+003;7.027958e-002
3.025892e+003;7.052147e-002
3.027820e+003;7.111622e-002
3.029749e+003;7.150868e-002
3.031677e+003;7.162695e-002
3.033606e+003;7.200427e-002
3.035534e+003;7.257897e-002
3.037463e+003;7.297977e-002
3.039392e+003;7.340385e-002
3.041320e+003;7.406052e-002
3.043249e+003;7.452449e-002
3.045177e+003;7.476215e-002
3.047106e+003;7.526714e-002
3.049034e+003;7.569819e-002
3.050963e+003;7.585793e-002
3.052891e+003;7.618626e-002
3.054820e+003;7.664033e-002
3.056749e+003;7.728805e-002
3.058677e+003;7.785893e-002
3.060606e+003;7.809747e-002
3.062534e+003;7.830761e-002
3.064463e+003;7.844707e-002
3.066391e+003;7.878666e-002
3.068320e+003;7.928705e-002
3.070248e+003;8.005602e-002
3.072177e+003;8.065724e-002
3.074105e+003;8.118331e-002
3.076034e+003;8.195360e-002
3.077963e+003;8.265800e-002
3.079891e+003;8.294419e-002
3.081820e+003;8.319601e-002
3.083748e+003;8.369492e-002
3.085677e+003;8.430173e-002
3.087605e+003;8.471664e-002
3.089534e+003;8.505722e-002
3.091462e+003;8.582667e-002
3.093391e+003;8.644155e-002
3.095320e+003;8.662010e-002
3.097248e+003;8.688519e-002
3.099177e+003;8.779252e-002
3.101105e+003;8.847640e-002
3.103034e+003;8.878613e-002
3.104962e+003;8.963422e-002
3.106891e+003;9.007783e-002
3.108819e+003;9.027692e-002
3.110748e+003;9.075703e-002
3.112677e+003;9.141056e-002
3.114605e+003;9.159648e-002
3.116533e+003;9.198148e-002
3.118462e+003;9.266982e-002
3.120391e+003;9.319222e-002
3.122319e+003;9.378864e-002
3.124248e+003;9.404091e-002
3.126176e+003;9.442438e-002
3.128105e+003;9.521248e-002
3.130033e+003;9.601871e-002
3.131962e+003;9.657449e-002
3.133890e+003;9.716986e-002
3.135819e+003;9.805506e-002
3.137748e+003;9.874400e-002
3.139676e+003;9.918935e-002
3.141605e+003;9.933085e-002
3.143533e+003;9.944140e-002
3.145462e+003;1.000149e-001
3.147390e+003;1.009799e-001
3.149319e+003;1.017860e-001
3.151247e+003;1.022942e-001
3.153176e+003;1.026262e-001
3.155104e+003;1.030372e-001
3.157033e+003;1.036869e-001
3.158962e+003;1.044413e-001
3.160890e+003;1.046116e-001
3.162819e+003;1.046735e-001
3.164747e+003;1.050869e-001
3.166676e+003;1.054512e-001
3.168604e+003;1.058854e-001
3.170533e+003;1.070683e-001
3.172461e+003;1.080902e-001
3.174390e+003;1.082438e-001
3.176319e+003;1.085416e-001
3.178247e+003;1.089101e-001
3.180176e+003;1.094781e-001
3.182104e+003;1.097951e-001
3.184033e+003;1.097594e-001
3.185961e+003;1.105005e-001
3.187890e+003;1.114222e-001
3.189818e+003;1.117548e-001
3.191747e+003;1.116896e-001
3.193676e+003;1.121152e-001
3.195604e+003;1.127653e-001
3.197532e+003;1.132020e-001
3.199461e+003;1.135316e-001
3.201390e+003;1.141822e-001
3.203318e+003;1.149379e-001
3.205247e+003;1.153435e-001
3.207175e+003;1.156105e-001
3.209104e+003;1.157283e-001
3.211032e+003;1.160475e-001
3.212961e+003;1.168337e-001
3.214889e+003;1.172976e-001
3.216818e+003;1.172088e-001
3.218747e+003;1.175466e-001
3.220675e+003;1.183615e-001
3.222604e+003;1.189133e-001
3.224532e+003;1.195080e-001
3.226461e+003;1.199020e-001
3.228389e+003;1.206241e-001
3.230318e+003;1.215424e-001
3.232246e+003;1.220209e-001
3.234175e+003;1.224319e-001
3.236104e+003;1.227295e-001
3.238032e+003;1.230863e-001
3.239961e+003;1.231709e-001
3.241889e+003;1.230300e-001
3.243818e+003;1.235590e-001
3.245746e+003;1.243132e-001
3.247675e+003;1.250892e-001
3.249603e+003;1.253884e-001
3.251532e+003;1.252255e-001
3.253460e+003;1.254697e-001
3.255389e+003;1.261164e-001
3.257318e+003;1.265193e-001
3.259246e+003;1.269318e-001
3.261175e+003;1.274913e-001
3.263103e+003;1.281148e-001
3.265032e+003;1.282746e-001
3.266960e+003;1.286210e-001
3.268889e+003;1.289399e-001
3.270817e+003;1.293408e-001
3.272746e+003;1.299122e-001
3.274675e+003;1.303397e-001
3.276603e+003;1.304433e-001
3.278531e+003;1.305872e-001
3.280460e+003;1.307907e-001
3.282389e+003;1.309547e-001
3.284317e+003;1.310127e-001
3.286246e+003;1.307968e-001
3.288174e+003;1.310144e-001
3.290103e+003;1.317291e-001
3.292031e+003;1.323548e-001
3.293960e+003;1.327921e-001
3.295888e+003;1.329043e-001
3.297817e+003;1.332090e-001
3.299746e+003;1.331519e-001
3.301674e+003;1.330488e-001
3.303603e+003;1.332423e-001
3.305531e+003;1.338024e-001
3.307460e+003;1.343809e-001
3.309388e+003;1.344140e-001
3.311317e+003;1.340843e-001
3.313245e+003;1.336767e-001
3.315174e+003;1.343859e-001
3.317103e+003;1.351715e-001
3.319031e+003;1.347263e-001
3.320960e+003;1.341852e-001
3.322888e+003;1.342546e-001
3.324817e+003;1.346974e-001
3.326745e+003;1.350916e-001
3.328674e+003;1.348228e-001
3.330602e+003;1.345994e-001
3.332531e+003;1.343477e-001
3.334459e+003;1.343209e-001
3.336388e+003;1.351672e-001
3.338317e+003;1.355806e-001
3.340245e+003;1.349407e-001
3.342174e+003;1.349121e-001
3.344102e+003;1.353679e-001
3.346031e+003;1.355062e-001
3.347959e+003;1.348413e-001
3.349888e+003;1.343586e-001
3.351816e+003;1.343973e-001
3.353745e+003;1.340750e-001
3.355674e+003;1.336238e-001
3.357602e+003;1.335221e-001
3.359531e+003;1.334456e-001
3.361459e+003;1.328034e-001
3.363388e+003;1.326281e-001
3.365316e+003;1.329420e-001
3.367245e+003;1.330473e-001
3.369173e+003;1.327562e-001
3.371102e+003;1.328471e-001
3.373031e+003;1.323580e-001
3.374959e+003;1.318616e-001
3.376887e+003;1.319578e-001
3.378816e+003;1.319052e-001
3.380745e+003;1.314045e-001
3.382673e+003;1.305507e-001
3.384602e+003;1.301813e-001
3.386530e+003;1.300986e-001
3.388459e+003;1.300598e-001
3.390387e+003;1.303021e-001
3.392316e+003;1.303072e-001
3.394244e+003;1.298058e-001
3.396173e+003;1.292847e-001
3.398102e+003;1.288285e-001
3.400030e+003;1.283727e-001
3.401959e+003;1.279248e-001
3.403887e+003;1.273527e-001
3.405816e+003;1.272210e-001
3.407744e+003;1.274911e-001
3.409673e+003;1.270872e-001
3.411601e+003;1.260568e-001
3.413530e+003;1.253237e-001
3.415458e+003;1.253808e-001
3.417387e+003;1.254494e-001
3.419316e+003;1.245222e-001
3.421244e+003;1.243115e-001
3.423173e+003;1.243652e-001
3.425101e+003;1.235988e-001
3.427030e+003;1.231794e-001
3.428958e+003;1.231850e-001
3.430887e+003;1.231105e-001
3.432815e+003;1.230332e-001
3.434744e+003;1.227699e-001
3.436673e+003;1.224704e-001
3.438601e+003;1.221287e-001
3.440530e+003;1.215662e-001
3.442458e+003;1.208722e-001
3.444387e+003;1.200975e-001
3.446315e+003;1.189894e-001
3.448244e+003;1.179201e-001
3.450172e+003;1.171192e-001
3.452101e+003;1.164742e-001
3.454030e+003;1.153882e-001
3.455958e+003;1.140205e-001
3.457886e+003;1.126133e-001
3.459815e+003;1.116219e-001
3.461744e+003;1.106192e-001
3.463672e+003;1.097902e-001
3.465601e+003;1.085976e-001
3.467529e+003;1.075196e-001
3.469458e+003;1.071353e-001
3.471386e+003;1.067811e-001
3.473315e+003;1.059847e-001
3.475243e+003;1.049150e-001
3.477172e+003;1.037111e-001
3.479101e+003;1.029063e-001
3.481029e+003;1.019726e-001
3.482958e+003;1.007294e-001
3.484886e+003;9.998620e-002
3.486815e+003;9.923057e-002
3.488743e+003;9.827051e-002
3.490672e+003;9.725868e-002
3.492600e+003;9.624986e-002
3.494529e+003;9.512185e-002
3.496458e+003;9.375151e-002
3.498386e+003;9.271535e-002
3.500315e+003;9.172414e-002
3.502243e+003;9.061398e-002
3.504172e+003;8.873479e-002
3.506100e+003;8.726787e-002
3.508029e+003;8.639733e-002
3.509957e+003;8.520612e-002
3.511886e+003;8.432743e-002
3.513814e+003;8.329679e-002
3.515743e+003;8.165362e-002
3.517672e+003;8.029198e-002
3.519600e+003;7.981317e-002
3.521529e+003;7.908912e-002
3.523457e+003;7.785358e-002
3.525386e+003;7.691107e-002
3.527314e+003;7.582001e-002
3.529243e+003;7.464106e-002
3.531171e+003;7.429612e-002
3.533100e+003;7.379968e-002
3.535029e+003;7.298604e-002
3.536957e+003;7.180736e-002
3.538885e+003;7.076062e-002
3.540814e+003;7.026864e-002
3.542743e+003;6.982729e-002
3.544671e+003;6.888954e-002
3.546600e+003;6.816551e-002
3.548528e+003;6.749551e-002
3.550457e+003;6.640200e-002
3.552385e+003;6.535687e-002
3.554314e+003;6.471575e-002
3.556242e+003;6.365307e-002
3.558171e+003;6.251697e-002
3.560100e+003;6.203431e-002
3.562028e+003;6.145033e-002
3.563957e+003;6.053468e-002
3.565885e+003;6.000707e-002
3.567814e+003;5.944968e-002
3.569742e+003;5.858058e-002
3.571671e+003;5.795030e-002
3.573599e+003;5.749348e-002
3.575528e+003;5.721284e-002
3.577457e+003;5.646637e-002
3.579385e+003;5.553582e-002
3.581314e+003;5.477106e-002
3.583242e+003;5.436568e-002
3.585171e+003;5.383478e-002
3.587099e+003;5.293832e-002
3.589028e+003;5.245680e-002
3.590956e+003;5.194549e-002
3.592885e+003;5.156008e-002
3.594813e+003;5.127560e-002
3.596742e+003;5.066480e-002
3.598671e+003;4.990533e-002
3.600599e+003;4.917981e-002
3.602528e+003;4.908308e-002
3.604456e+003;4.877538e-002
3.606385e+003;4.748825e-002
3.608313e+003;4.640582e-002
3.610242e+003;4.632501e-002
3.612170e+003;4.602132e-002
3.614099e+003;4.528853e-002
3.616028e+003;4.525025e-002
3.617956e+003;4.466617e-002
3.619885e+003;4.360408e-002
3.621813e+003;4.292378e-002
3.623742e+003;4.255741e-002
3.625670e+003;4.182635e-002
3.627599e+003;4.011622e-002
3.629527e+003;3.956768e-002
3.631456e+003;4.043344e-002
3.633385e+003;4.095041e-002
3.635313e+003;4.035868e-002
3.637241e+003;3.914549e-002
3.639170e+003;3.836864e-002
3.641099e+003;3.802037e-002
3.643027e+003;3.718069e-002
3.644956e+003;3.618098e-002
3.646884e+003;3.510202e-002
3.648813e+003;3.392386e-002
3.650741e+003;3.354427e-002
3.652670e+003;3.350100e-002
3.654598e+003;3.283561e-002
3.656527e+003;3.240235e-002
3.658456e+003;3.228184e-002
3.660384e+003;3.166344e-002
3.662313e+003;3.097271e-002
3.664241e+003;3.032074e-002
3.666170e+003;2.980281e-002
3.668098e+003;2.868356e-002
3.670027e+003;2.768515e-002
3.671955e+003;2.798603e-002
3.673884e+003;2.750896e-002
3.675813e+003;2.649321e-002
3.677741e+003;2.654910e-002
3.679669e+003;2.682809e-002
3.681598e+003;2.697470e-002
3.683527e+003;2.664848e-002
3.685455e+003;2.568598e-002
3.687384e+003;2.421284e-002
3.689312e+003;2.417644e-002
3.691241e+003;2.488348e-002
3.693169e+003;2.511032e-002
3.695098e+003;2.477507e-002
3.697026e+003;2.421873e-002
3.698955e+003;2.420639e-002
3.700884e+003;2.389205e-002
3.702812e+003;2.380135e-002
3.704741e+003;2.398129e-002
3.706669e+003;2.340232e-002
3.708598e+003;2.241035e-002
3.710526e+003;2.193779e-002
3.712455e+003;2.244091e-002
3.714383e+003;2.263603e-002
3.716312e+003;2.204058e-002
3.718240e+003;2.205048e-002
3.720169e+003;2.212777e-002
3.722098e+003;2.170376e-002
3.724026e+003;2.139189e-002
3.725955e+003;2.114427e-002
3.727883e+003;2.141931e-002
3.729812e+003;2.124290e-002
3.731740e+003;2.086634e-002
3.733669e+003;2.074718e-002
3.735597e+003;2.034657e-002
3.737526e+003;2.056197e-002
3.739455e+003;2.117965e-002
3.741383e+003;2.102959e-002
3.743312e+003;1.917201e-002
3.745240e+003;1.851368e-002
3.747169e+003;1.947315e-002
3.749097e+003;1.925118e-002
3.751026e+003;1.932139e-002
3.752954e+003;1.971045e-002
3.754883e+003;2.016132e-002
3.756812e+003;2.003934e-002
3.758740e+003;1.999645e-002
3.760668e+003;2.071987e-002
3.762597e+003;2.098212e-002
3.764526e+003;2.063907e-002
3.766454e+003;2.073251e-002
3.768383e+003;2.038195e-002
3.770311e+003;2.043557e-002
3.772240e+003;2.090782e-002
3.774168e+003;2.100135e-002
3.776097e+003;2.075403e-002
3.778025e+003;2.061475e-002
3.779954e+003;2.051772e-002
3.781883e+003;2.063775e-002
3.783811e+003;2.050969e-002
3.785740e+003;2.043016e-002
3.787668e+003;2.051251e-002
3.789597e+003;2.093873e-002
3.791525e+003;2.126517e-002
3.793454e+003;2.094474e-002
3.795382e+003;2.015386e-002
3.797311e+003;1.980023e-002
3.799240e+003;1.888150e-002
3.801168e+003;1.834159e-002
3.803097e+003;2.001894e-002
3.805025e+003;2.061037e-002
3.806954e+003;1.984840e-002
3.808882e+003;1.997134e-002
3.810811e+003;2.026727e-002
3.812739e+003;2.039807e-002
3.814668e+003;1.925011e-002
3.816596e+003;1.918067e-002
3.818525e+003;2.025873e-002
3.820454e+003;1.947031e-002
3.822382e+003;1.909829e-002
3.824311e+003;2.013692e-002
3.826239e+003;2.034226e-002
3.828168e+003;2.018128e-002
3.830096e+003;2.030660e-002
3.832025e+003;2.013325e-002
3.833953e+003;1.996648e-002
3.835882e+003;1.936078e-002
3.837811e+003;1.915335e-002
3.839739e+003;2.017857e-002
3.841667e+003;2.062590e-002
3.843596e+003;2.075027e-002
3.845525e+003;2.139175e-002
3.847453e+003;2.164925e-002
3.849382e+003;2.131479e-002
3.851310e+003;1.981646e-002
3.853239e+003;1.815060e-002
3.855167e+003;1.930743e-002
3.857096e+003;2.096359e-002
3.859024e+003;2.166670e-002
3.860953e+003;2.110952e-002
3.862882e+003;2.037087e-002
3.864810e+003;2.005995e-002
3.866739e+003;2.026914e-002
3.868667e+003;2.059828e-002
3.870596e+003;2.126298e-002
3.872524e+003;2.146230e-002
3.874453e+003;2.168732e-002
3.876381e+003;2.236785e-002
3.878310e+003;2.219671e-002
3.880239e+003;2.162850e-002
3.882167e+003;2.166332e-002
3.884096e+003;2.148608e-002
3.886024e+003;2.141719e-002
3.887953e+003;2.161791e-002
3.889881e+003;2.146833e-002
3.891810e+003;2.195225e-002
3.893738e+003;2.248135e-002
3.895667e+003;2.279482e-002
3.897595e+003;2.293469e-002
3.899524e+003;2.239883e-002
3.901453e+003;2.189531e-002
3.903381e+003;2.207851e-002
3.905310e+003;2.237965e-002
3.907238e+003;2.299352e-002
3.909167e+003;2.353571e-002
3.911095e+003;2.335543e-002
3.913024e+003;2.327886e-002
3.914952e+003;2.415693e-002
3.916881e+003;2.440087e-002
3.918810e+003;2.375918e-002
3.920738e+003;2.356051e-002
3.922667e+003;2.372772e-002
3.924595e+003;2.380734e-002
3.926524e+003;2.415941e-002
3.928452e+003;2.454473e-002
3.930381e+003;2.472365e-002
3.932309e+003;2.477883e-002
3.934238e+003;2.503260e-002
3.936167e+003;2.531570e-002
3.938095e+003;2.551531e-002
3.940023e+003;2.549402e-002
3.941952e+003;2.509413e-002
3.943881e+003;2.486780e-002
3.945809e+003;2.493784e-002
3.947738e+003;2.509943e-002
3.949666e+003;2.541089e-002
3.951595e+003;2.555819e-002
3.953523e+003;2.532817e-002
3.955452e+003;2.519693e-002
3.957380e+003;2.527120e-002
3.959309e+003;2.483727e-002
3.961238e+003;2.478013e-002
3.963166e+003;2.490601e-002
3.965095e+003;2.494345e-002
3.967023e+003;2.561716e-002
3.968952e+003;2.607122e-002
3.970880e+003;2.603674e-002
3.972809e+003;2.593501e-002
3.974737e+003;2.606323e-002
3.976666e+003;2.601669e-002
3.978594e+003;2.541328e-002
3.980523e+003;2.516744e-002
3.982452e+003;2.543204e-002
3.984380e+003;2.552716e-002
3.986309e+003;2.575953e-002
3.988237e+003;2.612090e-002
3.990166e+003;2.624922e-002
3.992094e+003;2.594841e-002
3.994023e+003;2.566257e-002
3.995951e+003;2.610056e-002
3.997880e+003;2.622803e-002
3.999809e+003;2.645236e-002
4.001737e+003;0.000000e+000
