3.992094e+002;0.000000e+000
4.011380e+002;0.000000e+000
4.030665e+002;0.000000e+000
4.049951e+002;0.000000e+000
4.069236e+002;0.000000e+000
4.088522e+002;0.000000e+000
4.107807e+002;0.000000e+000
4.127093e+002;0.000000e+000
4.146378e+002;0.000000e+000
4.165664e+002;0.000000e+000
4.184949e+002;0.000000e+000
4.204235e+002;0.000000e+000
4.223520e+002;0.000000e+000
4.242806e+002;0.000000e+000
4.262091e+002;0.000000e+000
4.281377e+002;0.000000e+000
4.300662e+002;0.000000e+000
4.319948e+002;0.000000e+000
4.339233e+002;0.000000e+000
4.358519e+002;0.000000e+000
4.377804e+002;0.000000e+000
4.397090e+002;0.000000e+000
4.416375e+002;0.000000e+000
4.435660e+002;0.000000e+000
4.454946e+002;0.000000e+000
4.474232e+002;0.000000e+000
4.493517e+002;0.000000e+000
4.512802e+002;0.000000e+000
4.532088e+002;0.000000e+000
4.551373e+002;0.000000e+000
4.570659e+002;0.000000e+000
4.589944e+002;0.000000e+000
4.609230e+002;0.000000e+000
4.628515e+002;0.000000e+000
4.647801e+002;0.000000e+000
4.667086e+002;0.000000e+000
4.686372e+002;0.000000e+000
4.705657e+002;0.000000e+000
4.724943e+002;0.000000e+000
4.744228e+002;0.000000e+000
4.763513e+002;0.000000e+000
4.782799e+002;0.000000e+000
4.802085e+002;0.000000e+000
4.821370e+002;0.000000e+000
4.840656e+002;0.000000e+000
4.859941e+002;0.000000e+000
4.879226e+002;0.000000e+000
4.898512e+002;0.000000e+000
4.917798e+002;0.000000e+000
4.937083e+002;0.000000e+000
4.956368e+002;0.000000e+000
4.975654e+002;0.000000e+000
4.994939e+002;0.000000e+000
5.014225e+002;0.000000e+000
5.033510e+002;0.000000e+000
5.052796e+002;0.000000e+000
5.072081e+002;0.000000e+000
5.091367e+002;0.000000e+000
5.110652e+002;0.000000e+000
5.129938e+002;0.000000e+000
5.149223e+002;0.000000e+000
5.168509e+002;0.000000e+000
5.187794e+002;0.000000e+000
5.207079e+002;0.000000e+000
5.226365e+002;0.000000e+000
5.245651e+002;0.000000e+000
5.264936e+002;0.000000e+000
5.284222e+002;0.000000e+000
5.303507e+002;0.000000e+000
5.322792e+002;0.000000e+000
5.342078e+002;0.000000e+000
5.361364e+002;0.000000e+000
5.380649e+002;0.000000e+000
5.399935e+002;0.000000e+000
5.419220e+002;0.000000e+000
5.438505e+002;0.000000e+000
5.457791e+002;0.000000e+000
5.477076e+002;0.000000e+000
5.496362e+002;0.000000e+000
5.515648e+002;0.000000e+000
5.534933e+002;0.000000e+000
5.554218e+002;0.000000e+000
5.573504e+002;0.000000e+000
5.592789e+002;0.000000e+000
5.612075e+002;0.000000e+000
5.631360e+002;0.000000e+000
5.650646e+002;0.000000e+000
5.669931e+002;0.000000e+000
5.689217e+002;0.000000e+000
5.708502e+002;0.000000e+000
5.727787e+002;0.000000e+000
5.747073e+002;0.000000e+000
5.766359e+002;0.000000e+000
5.785644e+002;0.000000e+000
5.804930e+002;0.000000e+000
5.824215e+002;0.000000e+000
5.843500e+002;0.000000e+000
5.862786e+002;0.000000e+000
5.882072e+002;0.000000e+000
5.901357e+002;0.000000e+000
5.920643e+002;0.000000e+000
5.939928e+002;0.000000e+000
5.959213e+002;0.000000e+000
5.978499e+002;0.000000e+000
5.997784e+002;7.369877e-002
6.017070e+002;7.499694e-002
6.036355e+002;7.614247e-002
6.055641e+002;7.664954e-002
6.074926e+002;7.559475e-002
6.094211e+002;8.014870e-002
6.113497e+002;8.695506e-002
6.132783e+002;8.244755e-002
6.152068e+002;7.556506e-002
6.171354e+002;7.392125e-002
6.190639e+002;7.642946e-002
6.209924e+002;7.899272e-002
6.229210e+002;8.033499e-002
6.248495e+002;8.036868e-002
6.267781e+002;8.336604e-002
6.287067e+002;8.753842e-002
6.306352e+002;8.827172e-002
6.325637e+002;8.303035e-002
6.344923e+002;7.975417e-002
6.364208e+002;8.023183e-002
6.383494e+002;8.134787e-002
6.402780e+002;8.474813e-002
6.422065e+002;8.646367e-002
6.441350e+002;8.278459e-002
6.460636e+002;8.508886e-002
6.479921e+002;8.639684e-002
6.499207e+002;8.581492e-002
6.518492e+002;8.606151e-002
6.537778e+002;8.558115e-002
6.557063e+002;8.729383e-002
6.576349e+002;9.070060e-002
6.595634e+002;9.115981e-002
6.614919e+002;9.276479e-002
6.634205e+002;9.067579e-002
6.653491e+002;8.625206e-002
6.672776e+002;8.562025e-002
6.692062e+002;8.862729e-002
6.711347e+002;9.020770e-002
6.730632e+002;9.212819e-002
6.749918e+002;9.225065e-002
6.769203e+002;9.225610e-002
6.788489e+002;9.382182e-002
6.807775e+002;9.530953e-002
6.827060e+002;9.587643e-002
6.846345e+002;9.666353e-002
6.865631e+002;9.718474e-002
6.884916e+002;9.836766e-002
6.904202e+002;9.834327e-002
6.923488e+002;9.771916e-002
6.942773e+002;9.813671e-002
6.962058e+002;9.765874e-002
6.981344e+002;9.730146e-002
7.000629e+002;9.774393e-002
7.019915e+002;9.700549e-002
7.039200e+002;9.793203e-002
7.058486e+002;9.897648e-002
7.077771e+002;9.859516e-002
7.097057e+002;9.854273e-002
7.116342e+002;9.964100e-002
7.135627e+002;1.001840e-001
7.154913e+002;9.994678e-002
7.174199e+002;9.976555e-002
7.193484e+002;9.961395e-002
7.212770e+002;9.887400e-002
7.232055e+002;9.842905e-002
7.251340e+002;9.892342e-002
7.270626e+002;9.893062e-002
7.289911e+002;9.818120e-002
7.309197e+002;9.862489e-002
7.328483e+002;1.008056e-001
7.347768e+002;1.022955e-001
7.367053e+002;1.027100e-001
7.386339e+002;1.038439e-001
7.405624e+002;1.043971e-001
7.424910e+002;1.040535e-001
7.444196e+002;1.033377e-001
7.463481e+002;1.028795e-001
7.482766e+002;1.032725e-001
7.502052e+002;1.035424e-001
7.521337e+002;1.038713e-001
7.540623e+002;1.048230e-001
7.559908e+002;1.039498e-001
7.579194e+002;1.028755e-001
7.598479e+002;1.029700e-001
7.617765e+002;1.039131e-001
7.637050e+002;1.042775e-001
7.656335e+002;1.033919e-001
7.675621e+002;1.038153e-001
7.694907e+002;1.047427e-001
7.714192e+002;1.043214e-001
7.733478e+002;1.036599e-001
7.752763e+002;1.026253e-001
7.772048e+002;1.013545e-001
7.791334e+002;1.006854e-001
7.810620e+002;1.014340e-001
7.829905e+002;1.016565e-001
7.849191e+002;1.020712e-001
7.868476e+002;1.019283e-001
7.887761e+002;1.016150e-001
7.907047e+002;1.022982e-001
7.926332e+002;1.016100e-001
7.945618e+002;1.000254e-001
7.964903e+002;9.878980e-002
7.984189e+002;9.731941e-002
8.003474e+002;9.625541e-002
8.022759e+002;9.581276e-002
8.042045e+002;9.607604e-002
8.061331e+002;9.640662e-002
8.080616e+002;9.630528e-002
8.099902e+002;9.646091e-002
8.119187e+002;9.744355e-002
8.138472e+002;9.762821e-002
8.157758e+002;9.867912e-002
8.177043e+002;1.007340e-001
8.196329e+002;1.021889e-001
8.215615e+002;1.045991e-001
8.234900e+002;1.070655e-001
8.254185e+002;1.095279e-001
8.273471e+002;1.126908e-001
8.292756e+002;1.157593e-001
8.312042e+002;1.180946e-001
8.331328e+002;1.195896e-001
8.350613e+002;1.217226e-001
8.369898e+002;1.243086e-001
8.389184e+002;1.277014e-001
8.408469e+002;1.313992e-001
8.427755e+002;1.347736e-001
8.447040e+002;1.388130e-001
8.466326e+002;1.428886e-001
8.485611e+002;1.468066e-001
8.504897e+002;1.512934e-001
8.524182e+002;1.560751e-001
8.543467e+002;1.607550e-001
8.562753e+002;1.654398e-001
8.582039e+002;1.697924e-001
8.601324e+002;1.740919e-001
8.620610e+002;1.792364e-001
8.639895e+002;1.839387e-001
8.659180e+002;1.877746e-001
8.678466e+002;1.915691e-001
8.697751e+002;1.955571e-001
8.717037e+002;1.990037e-001
8.736323e+002;2.019434e-001
8.755608e+002;2.049496e-001
8.774893e+002;2.083683e-001
8.794179e+002;2.118759e-001
8.813464e+002;2.151325e-001
8.832750e+002;2.184429e-001
8.852036e+002;2.215029e-001
8.871321e+002;2.241840e-001
8.890606e+002;2.265998e-001
8.909892e+002;2.282860e-001
8.929177e+002;2.297645e-001
8.948463e+002;2.317718e-001
8.967748e+002;2.339918e-001
8.987034e+002;2.358568e-001
9.006319e+002;2.370909e-001
9.025605e+002;2.380157e-001
9.044890e+002;2.386451e-001
9.064175e+002;2.398081e-001
9.083461e+002;2.411348e-001
9.102747e+002;2.423012e-001
9.122032e+002;2.432702e-001
9.141318e+002;2.436410e-001
9.160603e+002;2.443490e-001
9.179888e+002;2.452940e-001
9.199174e+002;2.459799e-001
9.218459e+002;2.462887e-001
9.237745e+002;2.468797e-001
9.257031e+002;2.475367e-001
9.276316e+002;2.480406e-001
9.295601e+002;2.480990e-001
9.314887e+002;2.476806e-001
9.334172e+002;2.473768e-001
9.353458e+002;2.475164e-001
9.372744e+002;2.473051e-001
9.392029e+002;2.467987e-001
9.411314e+002;2.462430e-001
9.430600e+002;2.456159e-001
9.449885e+002;2.449698e-001
9.469171e+002;2.440486e-001
9.488456e+002;2.429010e-001
9.507742e+002;2.421743e-001
9.527027e+002;2.409826e-001
9.546313e+002;2.391608e-001
9.565598e+002;2.376132e-001
9.584883e+002;2.363569e-001
9.604169e+002;2.355899e-001
9.623455e+002;2.350287e-001
9.642740e+002;2.340139e-001
9.662026e+002;2.323955e-001
9.681311e+002;2.308701e-001
9.700596e+002;2.297840e-001
9.719882e+002;2.288059e-001
9.739167e+002;2.278303e-001
9.758453e+002;2.268866e-001
9.777739e+002;2.257235e-001
9.797024e+002;2.243485e-001
9.816309e+002;2.226594e-001
9.835595e+002;2.209915e-001
9.854880e+002;2.199066e-001
9.874166e+002;2.183729e-001
9.893452e+002;2.170896e-001
9.912737e+002;2.159977e-001
9.932022e+002;2.148891e-001
9.951307e+002;2.137550e-001
9.970593e+002;2.124069e-001
9.989879e+002;2.110212e-001
1.000916e+003;2.094526e-001
1.002845e+003;2.077954e-001
1.004773e+003;2.061801e-001
1.006702e+003;2.047135e-001
1.008631e+003;2.037121e-001
1.010559e+003;2.025060e-001
1.012488e+003;2.010726e-001
1.014416e+003;1.996356e-001
1.016345e+003;1.981544e-001
1.018273e+003;1.968229e-001
1.020202e+003;1.946623e-001
1.022130e+003;1.925436e-001
1.024059e+003;1.909125e-001
1.025988e+003;1.887373e-001
1.027916e+003;1.860396e-001
1.029845e+003;1.834401e-001
1.031773e+003;1.814961e-001
1.033702e+003;1.792182e-001
1.035630e+003;1.765337e-001
1.037559e+003;1.742143e-001
1.039487e+003;1.725156e-001
1.041416e+003;1.705914e-001
1.043344e+003;1.681538e-001
1.045273e+003;1.665561e-001
1.047202e+003;1.647082e-001
1.049130e+003;1.626675e-001
1.051059e+003;1.608592e-001
1.052987e+003;1.583083e-001
1.054916e+003;1.552608e-001
1.056844e+003;1.529992e-001
1.058773e+003;1.507738e-001
1.060701e+003;1.490659e-001
1.062630e+003;1.479893e-001
1.064558e+003;1.466507e-001
1.066487e+003;1.445568e-001
1.068416e+003;1.420719e-001
1.070344e+003;1.403874e-001
1.072273e+003;1.387330e-001
1.074201e+003;1.369234e-001
1.076130e+003;1.348373e-001
1.078058e+003;1.328063e-001
1.079987e+003;1.317702e-001
1.081915e+003;1.305832e-001
1.083844e+003;1.289938e-001
1.085773e+003;1.272204e-001
1.087701e+003;1.251272e-001
1.089630e+003;1.230815e-001
1.091558e+003;1.211586e-001
1.093487e+003;1.201777e-001
1.095415e+003;1.188713e-001
1.097344e+003;1.169827e-001
1.099272e+003;1.162513e-001
1.101201e+003;1.153885e-001
1.103129e+003;1.137919e-001
1.105058e+003;1.117655e-001
1.106987e+003;1.097945e-001
1.108915e+003;1.082307e-001
1.110844e+003;1.067192e-001
1.112772e+003;1.053546e-001
1.114701e+003;1.042040e-001
1.116629e+003;1.030160e-001
1.118558e+003;1.017229e-001
1.120486e+003;1.008399e-001
1.122415e+003;1.001065e-001
1.124344e+003;9.940212e-002
1.126272e+003;9.833820e-002
1.128201e+003;9.683564e-002
1.130129e+003;9.548131e-002
1.132058e+003;9.480877e-002
1.133986e+003;9.393119e-002
1.135915e+003;9.215613e-002
1.137843e+003;9.022532e-002
1.139772e+003;8.916865e-002
1.141700e+003;8.831249e-002
1.143629e+003;8.699246e-002
1.145557e+003;8.536085e-002
1.147486e+003;8.319172e-002
1.149415e+003;8.086095e-002
1.151343e+003;7.903613e-002
1.153272e+003;7.728683e-002
1.155200e+003;7.574194e-002
1.157129e+003;7.379042e-002
1.159057e+003;7.199672e-002
1.160986e+003;7.110424e-002
1.162914e+003;7.023529e-002
1.164843e+003;6.916016e-002
1.166771e+003;6.785101e-002
1.168700e+003;6.671773e-002
1.170629e+003;6.574334e-002
1.172557e+003;6.513969e-002
1.174486e+003;6.478279e-002
1.176414e+003;6.445965e-002
1.178343e+003;6.358409e-002
1.180271e+003;6.204528e-002
1.182200e+003;6.097709e-002
1.184128e+003;6.024419e-002
1.186057e+003;5.907707e-002
1.187986e+003;5.756811e-002
1.189914e+003;5.578421e-002
1.191843e+003;5.441735e-002
1.193771e+003;5.301341e-002
1.195700e+003;5.117453e-002
1.197628e+003;4.984713e-002
1.199557e+003;4.871329e-002
1.201485e+003;4.734851e-002
1.203414e+003;4.608273e-002
1.205343e+003;4.505051e-002
1.207271e+003;4.408399e-002
1.209200e+003;4.362115e-002
1.211128e+003;4.343813e-002
1.213057e+003;4.326623e-002
1.214985e+003;4.328765e-002
1.216914e+003;4.348735e-002
1.218842e+003;4.399367e-002
1.220771e+003;4.482525e-002
1.222699e+003;4.611346e-002
1.224628e+003;4.704227e-002
1.226557e+003;4.755301e-002
1.228485e+003;4.875221e-002
1.230414e+003;4.971102e-002
1.232342e+003;5.036405e-002
1.234271e+003;5.083670e-002
1.236199e+003;5.059600e-002
1.238128e+003;5.009913e-002
1.240056e+003;4.954398e-002
1.241985e+003;4.869405e-002
1.243913e+003;4.754850e-002
1.245842e+003;4.628000e-002
1.247771e+003;4.455378e-002
1.249699e+003;4.269228e-002
1.251628e+003;4.074857e-002
1.253556e+003;3.838406e-002
1.255485e+003;3.581723e-002
1.257413e+003;3.277411e-002
1.259342e+003;2.953816e-002
1.261270e+003;2.692107e-002
1.263199e+003;2.488355e-002
1.265127e+003;2.345848e-002
1.267056e+003;2.219304e-002
1.268985e+003;2.065161e-002
1.270913e+003;1.890385e-002
1.272842e+003;1.745488e-002
1.274770e+003;1.638058e-002
1.276699e+003;1.523302e-002
1.278627e+003;1.417721e-002
1.280556e+003;1.339605e-002
1.282484e+003;1.284695e-002
1.284413e+003;1.218573e-002
1.286342e+003;1.087721e-002
1.288270e+003;1.012044e-002
1.290199e+003;9.722525e-003
1.292127e+003;9.248880e-003
1.294056e+003;8.908544e-003
1.295984e+003;8.421089e-003
1.297913e+003;7.797569e-003
1.299841e+003;7.244071e-003
1.301770e+003;6.844978e-003
1.303698e+003;6.291886e-003
1.305627e+003;5.661577e-003
1.307556e+003;5.262728e-003
1.309484e+003;4.698249e-003
1.311413e+003;4.049644e-003
1.313341e+003;3.719072e-003
1.315270e+003;3.491047e-003
1.317198e+003;3.164971e-003
1.319127e+003;3.100926e-003
1.321055e+003;2.908682e-003
1.322984e+003;2.196967e-003
1.324912e+003;1.557837e-003
1.326841e+003;1.337226e-003
1.328770e+003;1.329116e-003
1.330698e+003;1.318481e-003
1.332627e+003;1.285613e-003
1.334555e+003;9.735413e-004
1.336484e+003;1.614922e-004
1.338412e+003;-5.512324e-004
1.340341e+003;-4.299663e-004
1.342269e+003;4.306246e-004
1.344198e+003;1.057866e-003
1.346126e+003;1.352415e-003
1.348055e+003;1.420258e-003
1.349984e+003;1.870762e-003
1.351912e+003;2.638444e-003
1.353841e+003;3.149951e-003
1.355769e+003;3.453037e-003
1.357698e+003;4.179863e-003
1.359626e+003;4.992295e-003
1.361555e+003;5.453736e-003
1.363483e+003;6.432162e-003
1.365412e+003;8.361770e-003
1.367341e+003;9.478290e-003
1.369269e+003;1.012024e-002
1.371198e+003;1.062390e-002
1.373126e+003;1.010701e-002
1.375055e+003;9.412833e-003
1.376983e+003;8.738087e-003
1.378912e+003;7.408280e-003
1.380840e+003;5.978852e-003
1.382769e+003;4.572696e-003
1.384698e+003;2.957152e-003
1.386626e+003;6.430442e-004
1.388555e+003;5.197864e-004
1.390483e+003;1.181243e-003
1.392412e+003;3.863601e-005
1.394340e+003;-1.722301e-003
1.396269e+003;-1.764278e-003
1.398197e+003;-1.876661e-003
1.400126e+003;-1.662627e-003
1.402054e+003;-1.159534e-003
1.403983e+003;-1.953886e-003
1.405911e+003;-2.233116e-003
1.407840e+003;-2.197942e-003
1.409769e+003;-2.437445e-003
1.411697e+003;-2.477509e-003
1.413626e+003;-2.558053e-003
1.415554e+003;-3.155230e-003
1.417483e+003;-5.789876e-003
1.419411e+003;-7.374173e-003
1.421340e+003;-4.452217e-003
1.423268e+003;-2.955780e-003
1.425197e+003;-2.702765e-003
1.427125e+003;-2.566189e-003
1.429054e+003;-2.997178e-003
1.430983e+003;-2.747151e-003
1.432911e+003;-2.495332e-003
1.434840e+003;-5.269186e-003
1.436768e+003;-7.531552e-003
1.438697e+003;-4.410957e-003
1.440625e+003;-2.565366e-003
1.442554e+003;-2.908223e-003
1.444482e+003;-4.076244e-003
1.446411e+003;-5.792720e-003
1.448340e+003;-6.423733e-003
1.450268e+003;-5.825577e-003
1.452197e+003;-6.465879e-003
1.454125e+003;-9.781482e-003
1.456054e+003;-1.654797e-002
1.457982e+003;-1.631638e-002
1.459911e+003;-1.107262e-002
1.461839e+003;-9.932680e-003
1.463768e+003;-1.252520e-002
1.465697e+003;-1.305290e-002
1.467625e+003;-1.154394e-002
1.469554e+003;-1.227445e-002
1.471482e+003;-1.550457e-002
1.473411e+003;-1.573880e-002
1.475339e+003;-1.298334e-002
1.477268e+003;-1.100808e-002
1.479196e+003;-9.704242e-003
1.481125e+003;-9.735671e-003
1.483053e+003;-9.645202e-003
1.484982e+003;-1.046806e-002
1.486911e+003;-1.213431e-002
1.488839e+003;-1.356453e-002
1.490768e+003;-1.301849e-002
1.492696e+003;-1.139747e-002
1.494625e+003;-1.352208e-002
1.496553e+003;-1.577724e-002
1.498482e+003;-1.411041e-002
1.500410e+003;-1.185783e-002
1.502339e+003;-1.102442e-002
1.504267e+003;-1.614099e-002
1.506196e+003;-2.227367e-002
1.508125e+003;-1.845764e-002
1.510053e+003;-1.272777e-002
1.511982e+003;-1.166192e-002
1.513910e+003;-1.224314e-002
1.515839e+003;-1.475418e-002
1.517767e+003;-1.654112e-002
1.519696e+003;-1.968370e-002
1.521624e+003;-2.151597e-002
1.523553e+003;-1.839715e-002
1.525481e+003;-1.717637e-002
1.527410e+003;-1.604105e-002
1.529339e+003;-1.479969e-002
1.531267e+003;-1.574618e-002
1.533196e+003;-1.809644e-002
1.535124e+003;-1.706211e-002
1.537053e+003;-1.952145e-002
1.538981e+003;-2.695313e-002
1.540910e+003;-2.691974e-002
1.542838e+003;-2.174745e-002
1.544767e+003;-1.830881e-002
1.546695e+003;-1.596910e-002
1.548624e+003;-1.572717e-002
1.550553e+003;-1.592429e-002
1.552481e+003;-1.736837e-002
1.554410e+003;-1.973962e-002
1.556338e+003;-2.340874e-002
1.558267e+003;-3.075364e-002
1.560195e+003;-2.760288e-002
1.562124e+003;-1.828223e-002
1.564052e+003;-1.588053e-002
1.565981e+003;-1.614900e-002
1.567910e+003;-1.729534e-002
1.569838e+003;-1.832222e-002
1.571767e+003;-1.645205e-002
1.573695e+003;-1.787540e-002
1.575624e+003;-2.231994e-002
1.577552e+003;-1.966942e-002
1.579481e+003;-1.544961e-002
1.581409e+003;-1.485794e-002
1.583338e+003;-1.495994e-002
1.585266e+003;-1.517667e-002
1.587195e+003;-1.532687e-002
1.589124e+003;-1.572899e-002
1.591052e+003;-1.592075e-002
1.592981e+003;-1.622303e-002
1.594909e+003;-1.638177e-002
1.596838e+003;-1.608726e-002
1.598766e+003;-1.577897e-002
1.600695e+003;-1.588430e-002
1.602623e+003;-1.593004e-002
1.604552e+003;-1.590822e-002
1.606480e+003;-1.601832e-002
1.608409e+003;-1.625814e-002
1.610338e+003;-1.609428e-002
1.612266e+003;-1.588855e-002
1.614195e+003;-1.811541e-002
1.616123e+003;-2.262881e-002
1.618052e+003;-2.078320e-002
1.619980e+003;-1.756491e-002
1.621909e+003;-1.893917e-002
1.623837e+003;-1.955806e-002
1.625766e+003;-1.839667e-002
1.627694e+003;-1.825328e-002
1.629623e+003;-1.764563e-002
1.631552e+003;-1.753478e-002
1.633480e+003;-2.143836e-002
1.635409e+003;-2.538041e-002
1.637337e+003;-2.230518e-002
1.639266e+003;-1.897679e-002
1.641194e+003;-1.843176e-002
1.643123e+003;-1.978888e-002
1.645051e+003;-2.400281e-002
1.646980e+003;-2.497268e-002
1.648909e+003;-2.209150e-002
1.650837e+003;-2.726641e-002
1.652766e+003;-3.551682e-002
1.654694e+003;-2.839315e-002
1.656623e+003;-1.998281e-002
1.658551e+003;-1.838511e-002
1.660480e+003;-1.948650e-002
1.662408e+003;-2.097267e-002
1.664337e+003;-1.962499e-002
1.666266e+003;-1.910814e-002
1.668194e+003;-2.187126e-002
1.670123e+003;-2.219569e-002
1.672051e+003;-1.999996e-002
1.673980e+003;-2.114531e-002
1.675908e+003;-2.097362e-002
1.677837e+003;-1.767334e-002
1.679765e+003;-1.713716e-002
1.681694e+003;-1.988182e-002
1.683622e+003;-2.591716e-002
1.685551e+003;-2.320940e-002
1.687479e+003;-1.642060e-002
1.689408e+003;-1.472504e-002
1.691337e+003;-1.377388e-002
1.693265e+003;-1.566600e-002
1.695194e+003;-2.094672e-002
1.697122e+003;-2.016915e-002
1.699051e+003;-2.152458e-002
1.700979e+003;-2.063264e-002
1.702908e+003;-1.394005e-002
1.704836e+003;-1.264359e-002
1.706765e+003;-1.127361e-002
1.708693e+003;-9.226408e-003
1.710622e+003;-7.753259e-003
1.712551e+003;-7.573623e-003
1.714479e+003;-8.599294e-003
1.716408e+003;-1.030307e-002
1.718336e+003;-6.239105e-003
1.720265e+003;2.937036e-003
1.722193e+003;9.662114e-003
1.724122e+003;1.523058e-002
1.726050e+003;2.145632e-002
1.727979e+003;2.651585e-002
1.729908e+003;3.012197e-002
1.731836e+003;2.988927e-002
1.733765e+003;2.778065e-002
1.735693e+003;3.198817e-002
1.737622e+003;3.406597e-002
1.739550e+003;3.077321e-002
1.741479e+003;2.822588e-002
1.743407e+003;2.453643e-002
1.745336e+003;1.962284e-002
1.747265e+003;1.384920e-002
1.749193e+003;6.878809e-003
1.751122e+003;6.619591e-004
1.753050e+003;-1.324533e-003
1.754979e+003;-4.064689e-003
1.756907e+003;-7.268287e-003
1.758836e+003;-8.822210e-003
1.760764e+003;-1.092479e-002
1.762693e+003;-1.149606e-002
1.764621e+003;-1.071220e-002
1.766550e+003;-1.215023e-002
1.768479e+003;-1.355795e-002
1.770407e+003;-1.536141e-002
1.772336e+003;-1.725971e-002
1.774264e+003;-1.488455e-002
1.776193e+003;-1.250022e-002
1.778121e+003;-1.227426e-002
1.780050e+003;-1.290632e-002
1.781978e+003;-1.314214e-002
1.783907e+003;-1.353887e-002
1.785835e+003;-1.331069e-002
1.787764e+003;-1.276921e-002
1.789693e+003;-1.410053e-002
1.791621e+003;-1.636476e-002
1.793550e+003;-1.565680e-002
1.795478e+003;-1.362780e-002
1.797407e+003;-1.362539e-002
1.799335e+003;-1.419527e-002
1.801264e+003;-1.422714e-002
1.803192e+003;-1.355288e-002
1.805121e+003;-1.314668e-002
1.807049e+003;-1.330407e-002
1.808978e+003;-1.374864e-002
1.810907e+003;-1.367301e-002
1.812835e+003;-1.320907e-002
1.814764e+003;-1.292362e-002
1.816692e+003;-1.330477e-002
1.818621e+003;-1.341993e-002
1.820549e+003;-1.336531e-002
1.822478e+003;-1.378405e-002
1.824406e+003;-1.475928e-002
1.826335e+003;-1.433195e-002
1.828264e+003;-1.468385e-002
1.830192e+003;-1.534107e-002
1.832121e+003;-1.424353e-002
1.834049e+003;-1.380402e-002
1.835978e+003;-1.406483e-002
1.837906e+003;-1.402976e-002
1.839835e+003;-1.379079e-002
1.841763e+003;-1.511952e-002
1.843692e+003;-1.751355e-002
1.845620e+003;-1.647123e-002
1.847549e+003;-1.486703e-002
1.849478e+003;-1.462477e-002
1.851406e+003;-1.436757e-002
1.853335e+003;-1.427008e-002
1.855263e+003;-1.433250e-002
1.857192e+003;-1.466764e-002
1.859120e+003;-1.475572e-002
1.861049e+003;-1.453638e-002
1.862977e+003;-1.452727e-002
1.864906e+003;-1.476811e-002
1.866834e+003;-1.584497e-002
1.868763e+003;-1.667241e-002
1.870692e+003;-1.554348e-002
1.872620e+003;-1.433551e-002
1.874549e+003;-1.427543e-002
1.876477e+003;-1.450609e-002
1.878406e+003;-1.466863e-002
1.880334e+003;-1.473170e-002
1.882263e+003;-1.476347e-002
1.884191e+003;-1.491493e-002
1.886120e+003;-1.518938e-002
1.888048e+003;-1.585670e-002
1.889977e+003;-1.590551e-002
1.891906e+003;-1.533989e-002
1.893834e+003;-1.528196e-002
1.895763e+003;-1.513021e-002
1.897691e+003;-1.496884e-002
1.899620e+003;-1.486614e-002
1.901548e+003;-1.460347e-002
1.903477e+003;-1.472308e-002
1.905405e+003;-1.515492e-002
1.907334e+003;-1.507683e-002
1.909262e+003;-1.512413e-002
1.911191e+003;-1.527284e-002
1.913120e+003;-1.539339e-002
1.915048e+003;-1.589181e-002
1.916977e+003;-1.688274e-002
1.918905e+003;-1.661635e-002
1.920834e+003;-1.594042e-002
1.922762e+003;-1.603997e-002
1.924691e+003;-1.583229e-002
1.926619e+003;-1.565482e-002
1.928548e+003;-1.569774e-002
1.930477e+003;-1.578622e-002
1.932405e+003;-1.602630e-002
1.934334e+003;-1.614172e-002
1.936262e+003;-1.613007e-002
1.938191e+003;-1.628224e-002
1.940119e+003;-1.695849e-002
1.942048e+003;-1.731002e-002
1.943976e+003;-1.690238e-002
1.945905e+003;-1.659288e-002
1.947833e+003;-1.643897e-002
1.949762e+003;-1.624617e-002
1.951691e+003;-1.609997e-002
1.953619e+003;-1.626762e-002
1.955548e+003;-1.655607e-002
1.957476e+003;-1.653024e-002
1.959405e+003;-1.645719e-002
1.961333e+003;-1.659189e-002
1.963262e+003;-1.703538e-002
1.965190e+003;-1.741886e-002
1.967119e+003;-1.763014e-002
1.969047e+003;-1.755804e-002
1.970976e+003;-1.742940e-002
1.972905e+003;-1.722430e-002
1.974833e+003;-1.722044e-002
1.976762e+003;-1.729384e-002
1.978690e+003;-1.738120e-002
1.980619e+003;-1.770550e-002
1.982547e+003;-1.803713e-002
1.984476e+003;-1.812469e-002
1.986404e+003;-1.818535e-002
1.988333e+003;-1.811840e-002
1.990261e+003;-1.846038e-002
1.992190e+003;-1.886126e-002
1.994119e+003;-1.873062e-002
1.996047e+003;-1.864017e-002
1.997976e+003;-1.856001e-002
1.999904e+003;-1.865490e-002
2.001833e+003;-1.887297e-002
2.003761e+003;-1.889485e-002
2.005690e+003;-1.893368e-002
2.007618e+003;-1.906949e-002
2.009547e+003;-1.917206e-002
2.011476e+003;-1.940267e-002
2.013404e+003;-1.954299e-002
2.015333e+003;-1.962090e-002
2.017261e+003;-1.945397e-002
2.019190e+003;-1.930263e-002
2.021118e+003;-1.971280e-002
2.023047e+003;-2.012784e-002
2.024975e+003;-2.030919e-002
2.026904e+003;-2.018680e-002
2.028833e+003;-1.986811e-002
2.030761e+003;-1.989071e-002
2.032690e+003;-2.010677e-002
2.034618e+003;-2.018418e-002
2.036547e+003;-2.035503e-002
2.038475e+003;-2.056258e-002
2.040404e+003;-2.072293e-002
2.042332e+003;-2.069756e-002
2.044261e+003;-2.070777e-002
2.046189e+003;-2.078415e-002
2.048118e+003;-2.070072e-002
2.050047e+003;-2.068938e-002
2.051975e+003;-2.079697e-002
2.053904e+003;-2.080727e-002
2.055832e+003;-2.078137e-002
2.057761e+003;-2.093261e-002
2.059689e+003;-2.110781e-002
2.061618e+003;-2.127181e-002
2.063546e+003;-2.149882e-002
2.065475e+003;-2.179586e-002
2.067404e+003;-2.196826e-002
2.069332e+003;-2.187120e-002
2.071260e+003;-2.189395e-002
2.073189e+003;-2.199371e-002
2.075118e+003;-2.198332e-002
2.077046e+003;-2.200404e-002
2.078975e+003;-2.255008e-002
2.080903e+003;-2.293140e-002
2.082832e+003;-2.268256e-002
2.084760e+003;-2.244103e-002
2.086689e+003;-2.251428e-002
2.088617e+003;-2.269470e-002
2.090546e+003;-2.292263e-002
2.092475e+003;-2.298897e-002
2.094403e+003;-2.300773e-002
2.096332e+003;-2.304098e-002
2.098260e+003;-2.315826e-002
2.100189e+003;-2.329219e-002
2.102117e+003;-2.313165e-002
2.104046e+003;-2.286759e-002
2.105974e+003;-2.299290e-002
2.107903e+003;-2.320170e-002
2.109832e+003;-2.344968e-002
2.111760e+003;-2.381277e-002
2.113688e+003;-2.376628e-002
2.115617e+003;-2.332601e-002
2.117546e+003;-2.326914e-002
2.119474e+003;-2.341995e-002
2.121403e+003;-2.343499e-002
2.123331e+003;-2.351280e-002
2.125260e+003;-2.363759e-002
2.127188e+003;-2.374922e-002
2.129117e+003;-2.355179e-002
2.131045e+003;-2.334340e-002
2.132974e+003;-2.337578e-002
2.134903e+003;-2.353227e-002
2.136831e+003;-2.366175e-002
2.138760e+003;-2.373839e-002
2.140688e+003;-2.360552e-002
2.142617e+003;-2.341345e-002
2.144545e+003;-2.355144e-002
2.146474e+003;-2.402641e-002
2.148402e+003;-2.422065e-002
2.150331e+003;-2.411717e-002
2.152260e+003;-2.417095e-002
2.154188e+003;-2.412691e-002
2.156117e+003;-2.401701e-002
2.158045e+003;-2.381268e-002
2.159974e+003;-2.373322e-002
2.161902e+003;-2.393687e-002
2.163831e+003;-2.397616e-002
2.165759e+003;-2.421476e-002
2.167688e+003;-2.441862e-002
2.169616e+003;-2.416424e-002
2.171545e+003;-2.408450e-002
2.173474e+003;-2.434651e-002
2.175402e+003;-2.453472e-002
2.177331e+003;-2.456647e-002
2.179259e+003;-2.466397e-002
2.181188e+003;-2.470904e-002
2.183116e+003;-2.466384e-002
2.185045e+003;-2.474335e-002
2.186973e+003;-2.492841e-002
2.188902e+003;-2.483432e-002
2.190831e+003;-2.465392e-002
2.192759e+003;-2.494430e-002
2.194688e+003;-2.524150e-002
2.196616e+003;-2.511552e-002
2.198545e+003;-2.510548e-002
2.200473e+003;-2.535091e-002
2.202402e+003;-2.539013e-002
2.204330e+003;-2.529514e-002
2.206259e+003;-2.529220e-002
2.208188e+003;-2.521674e-002
2.210116e+003;-2.530677e-002
2.212044e+003;-2.540794e-002
2.213973e+003;-2.541644e-002
2.215902e+003;-2.538563e-002
2.217830e+003;-2.532962e-002
2.219759e+003;-2.546141e-002
2.221687e+003;-2.566144e-002
2.223616e+003;-2.573159e-002
2.225544e+003;-2.590705e-002
2.227473e+003;-2.592553e-002
2.229401e+003;-2.571825e-002
2.231330e+003;-2.573939e-002
2.233259e+003;-2.598879e-002
2.235187e+003;-2.585014e-002
2.237116e+003;-2.584871e-002
2.239044e+003;-2.612775e-002
2.240973e+003;-2.622548e-002
2.242901e+003;-2.608344e-002
2.244830e+003;-2.600050e-002
2.246758e+003;-2.602640e-002
2.248687e+003;-2.618674e-002
2.250615e+003;-2.643018e-002
2.252544e+003;-2.633240e-002
2.254473e+003;-2.608681e-002
2.256401e+003;-2.625259e-002
2.258330e+003;-2.645410e-002
2.260258e+003;-2.620696e-002
2.262187e+003;-2.584783e-002
2.264115e+003;-2.587758e-002
2.266044e+003;-2.603136e-002
2.267972e+003;-2.629872e-002
2.269901e+003;-2.645322e-002
2.271830e+003;-2.671051e-002
2.273758e+003;-2.682244e-002
2.275687e+003;-2.657685e-002
2.277615e+003;-2.635195e-002
2.279544e+003;-2.611259e-002
2.281472e+003;-2.612039e-002
2.283401e+003;-2.612610e-002
2.285329e+003;-2.604871e-002
2.287258e+003;-2.597538e-002
2.289187e+003;-2.598664e-002
2.291115e+003;-2.631048e-002
2.293043e+003;-2.664161e-002
2.294972e+003;-2.651981e-002
2.296901e+003;-2.651115e-002
2.298829e+003;-2.652464e-002
2.300758e+003;-2.639311e-002
2.302686e+003;-2.678546e-002
2.304615e+003;-2.732543e-002
2.306543e+003;-2.748135e-002
2.308472e+003;-2.747018e-002
2.310400e+003;-2.742803e-002
2.312329e+003;-2.758061e-002
2.314258e+003;-2.810484e-002
2.316186e+003;-2.862838e-002
2.318115e+003;-2.904797e-002
2.320043e+003;-2.932903e-002
2.321972e+003;-2.970221e-002
2.323900e+003;-3.027992e-002
2.325829e+003;-3.102274e-002
2.327757e+003;-3.162485e-002
2.329686e+003;-3.204503e-002
2.331615e+003;-3.238139e-002
2.333543e+003;-3.263623e-002
2.335472e+003;-3.266128e-002
2.337400e+003;-3.264336e-002
2.339329e+003;-3.263669e-002
2.341257e+003;-3.226750e-002
2.343186e+003;-3.152964e-002
2.345114e+003;-3.049745e-002
2.347043e+003;-2.945416e-002
2.348971e+003;-2.911035e-002
2.350900e+003;-2.981162e-002
2.352829e+003;-3.144157e-002
2.354757e+003;-3.287295e-002
2.356686e+003;-3.391601e-002
2.358614e+003;-3.473746e-002
2.360543e+003;-3.507382e-002
2.362471e+003;-3.490101e-002
2.364400e+003;-3.443846e-002
2.366328e+003;-3.396274e-002
2.368257e+003;-3.330473e-002
2.370186e+003;-3.227955e-002
2.372114e+003;-3.117687e-002
2.374042e+003;-3.011236e-002
2.375971e+003;-2.911079e-002
2.377900e+003;-2.859401e-002
2.379828e+003;-2.857651e-002
2.381757e+003;-2.853773e-002
2.383685e+003;-2.799948e-002
2.385614e+003;-2.748246e-002
2.387542e+003;-2.748607e-002
2.389471e+003;-2.758577e-002
2.391399e+003;-2.752868e-002
2.393328e+003;-2.760583e-002
2.395257e+003;-2.760894e-002
2.397185e+003;-2.739752e-002
2.399114e+003;-2.725673e-002
2.401042e+003;-2.729466e-002
2.402971e+003;-2.712514e-002
2.404899e+003;-2.711920e-002
2.406828e+003;-2.745186e-002
2.408756e+003;-2.749506e-002
2.410685e+003;-2.721967e-002
2.412614e+003;-2.711437e-002
2.414542e+003;-2.713208e-002
2.416471e+003;-2.703352e-002
2.418399e+003;-2.680979e-002
2.420328e+003;-2.708881e-002
2.422256e+003;-2.726986e-002
2.424185e+003;-2.712337e-002
2.426113e+003;-2.702484e-002
2.428042e+003;-2.702686e-002
2.429970e+003;-2.722900e-002
2.431899e+003;-2.731566e-002
2.433828e+003;-2.730695e-002
2.435756e+003;-2.716651e-002
2.437685e+003;-2.701185e-002
2.439613e+003;-2.697393e-002
2.441542e+003;-2.706957e-002
2.443470e+003;-2.727696e-002
2.445399e+003;-2.725343e-002
2.447327e+003;-2.706680e-002
2.449256e+003;-2.694615e-002
2.451185e+003;-2.696060e-002
2.453113e+003;-2.721842e-002
2.455042e+003;-2.734475e-002
2.456970e+003;-2.725387e-002
2.458899e+003;-2.700098e-002
2.460827e+003;-2.681637e-002
2.462756e+003;-2.681487e-002
2.464684e+003;-2.691074e-002
2.466613e+003;-2.699675e-002
2.468542e+003;-2.687312e-002
2.470470e+003;-2.673668e-002
2.472398e+003;-2.684596e-002
2.474327e+003;-2.699077e-002
2.476256e+003;-2.693102e-002
2.478184e+003;-2.702477e-002
2.480113e+003;-2.699831e-002
2.482041e+003;-2.687103e-002
2.483970e+003;-2.704404e-002
2.485898e+003;-2.708919e-002
2.487827e+003;-2.716607e-002
2.489755e+003;-2.743755e-002
2.491684e+003;-2.749724e-002
2.493613e+003;-2.744150e-002
2.495541e+003;-2.735266e-002
2.497470e+003;-2.713937e-002
2.499398e+003;-2.703888e-002
2.501327e+003;-2.711982e-002
2.503255e+003;-2.722710e-002
2.505184e+003;-2.716529e-002
2.507112e+003;-2.729821e-002
2.509041e+003;-2.731691e-002
2.510969e+003;-2.701923e-002
2.512898e+003;-2.690753e-002
2.514827e+003;-2.710709e-002
2.516755e+003;-2.741447e-002
2.518684e+003;-2.761214e-002
2.520612e+003;-2.747143e-002
2.522541e+003;-2.704949e-002
2.524469e+003;-2.671016e-002
2.526398e+003;-2.668639e-002
2.528326e+003;-2.683593e-002
2.530255e+003;-2.681067e-002
2.532184e+003;-2.698791e-002
2.534112e+003;-2.730512e-002
2.536041e+003;-2.728959e-002
2.537969e+003;-2.723031e-002
2.539898e+003;-2.727587e-002
2.541826e+003;-2.742433e-002
2.543755e+003;-2.756905e-002
2.545683e+003;-2.768819e-002
2.547612e+003;-2.766179e-002
2.549541e+003;-2.747979e-002
2.551469e+003;-2.735138e-002
2.553397e+003;-2.732254e-002
2.555326e+003;-2.738007e-002
2.557255e+003;-2.743659e-002
2.559183e+003;-2.733019e-002
2.561112e+003;-2.715483e-002
2.563040e+003;-2.741155e-002
2.564969e+003;-2.757505e-002
2.566897e+003;-2.740343e-002
2.568826e+003;-2.742066e-002
2.570754e+003;-2.729077e-002
2.572683e+003;-2.717261e-002
2.574612e+003;-2.733418e-002
2.576540e+003;-2.717737e-002
2.578469e+003;-2.707390e-002
2.580397e+003;-2.716458e-002
2.582326e+003;-2.738395e-002
2.584254e+003;-2.740816e-002
2.586183e+003;-2.736799e-002
2.588111e+003;-2.732658e-002
2.590040e+003;-2.716405e-002
2.591969e+003;-2.731255e-002
2.593897e+003;-2.746017e-002
2.595826e+003;-2.748782e-002
2.597754e+003;-2.727699e-002
2.599683e+003;-2.709112e-002
2.601611e+003;-2.708660e-002
2.603540e+003;-2.712439e-002
2.605468e+003;-2.724827e-002
2.607397e+003;-2.722919e-002
2.609325e+003;-2.705089e-002
2.611254e+003;-2.711210e-002
2.613183e+003;-2.733349e-002
2.615111e+003;-2.734189e-002
2.617040e+003;-2.724111e-002
2.618968e+003;-2.719262e-002
2.620897e+003;-2.727621e-002
2.622825e+003;-2.742974e-002
2.624754e+003;-2.733670e-002
2.626682e+003;-2.743970e-002
2.628611e+003;-2.772350e-002
2.630540e+003;-2.748567e-002
2.632468e+003;-2.714404e-002
2.634396e+003;-2.721612e-002
2.636325e+003;-2.736193e-002
2.638254e+003;-2.752996e-002
2.640182e+003;-2.770488e-002
2.642111e+003;-2.755244e-002
2.644039e+003;-2.746467e-002
2.645968e+003;-2.766671e-002
2.647896e+003;-2.789111e-002
2.649825e+003;-2.772388e-002
2.651753e+003;-2.744110e-002
2.653682e+003;-2.752464e-002
2.655611e+003;-2.790497e-002
2.657539e+003;-2.809438e-002
2.659468e+003;-2.799327e-002
2.661396e+003;-2.786380e-002
2.663325e+003;-2.773538e-002
2.665253e+003;-2.770063e-002
2.667182e+003;-2.791740e-002
2.669110e+003;-2.783480e-002
2.671039e+003;-2.771253e-002
2.672968e+003;-2.792511e-002
2.674896e+003;-2.820282e-002
2.676825e+003;-2.808506e-002
2.678753e+003;-2.768570e-002
2.680682e+003;-2.766627e-002
2.682610e+003;-2.784217e-002
2.684539e+003;-2.792995e-002
2.686467e+003;-2.783179e-002
2.688396e+003;-2.770523e-002
2.690324e+003;-2.764622e-002
2.692253e+003;-2.764389e-002
2.694182e+003;-2.771253e-002
2.696110e+003;-2.746296e-002
2.698039e+003;-2.714357e-002
2.699967e+003;-2.724904e-002
2.701896e+003;-2.734289e-002
2.703824e+003;-2.744576e-002
2.705753e+003;-2.741705e-002
2.707681e+003;-2.723756e-002
2.709610e+003;-2.726426e-002
2.711539e+003;-2.733343e-002
2.713467e+003;-2.731458e-002
2.715396e+003;-2.740934e-002
2.717324e+003;-2.752461e-002
2.719253e+003;-2.755623e-002
2.721181e+003;-2.752849e-002
2.723110e+003;-2.761774e-002
2.725038e+003;-2.788928e-002
2.726967e+003;-2.765502e-002
2.728896e+003;-2.717286e-002
2.730824e+003;-2.695325e-002
2.732752e+003;-2.686751e-002
2.734681e+003;-2.705918e-002
2.736610e+003;-2.725010e-002
2.738538e+003;-2.709236e-002
2.740467e+003;-2.723631e-002
2.742395e+003;-2.748219e-002
2.744324e+003;-2.736211e-002
2.746252e+003;-2.763369e-002
2.748181e+003;-2.758319e-002
2.750109e+003;-2.710382e-002
2.752038e+003;-2.699111e-002
2.753967e+003;-2.703299e-002
2.755895e+003;-2.713018e-002
2.757824e+003;-2.725838e-002
2.759752e+003;-2.735580e-002
2.761681e+003;-2.746925e-002
2.763609e+003;-2.738675e-002
2.765538e+003;-2.712032e-002
2.767466e+003;-2.693341e-002
2.769395e+003;-2.677855e-002
2.771323e+003;-2.682406e-002
2.773252e+003;-2.724307e-002
2.775181e+003;-2.744443e-002
2.777109e+003;-2.730869e-002
2.779038e+003;-2.692046e-002
2.780966e+003;-2.657595e-002
2.782895e+003;-2.644933e-002
2.784823e+003;-2.664604e-002
2.786752e+003;-2.679462e-002
2.788680e+003;-2.656716e-002
2.790609e+003;-2.652586e-002
2.792538e+003;-2.667919e-002
2.794466e+003;-2.667037e-002
2.796395e+003;-2.640194e-002
2.798323e+003;-2.632479e-002
2.800252e+003;-2.663114e-002
2.802180e+003;-2.670646e-002
2.804109e+003;-2.636047e-002
2.806037e+003;-2.626466e-002
2.807966e+003;-2.638716e-002
2.809895e+003;-2.633352e-002
2.811823e+003;-2.616032e-002
2.813751e+003;-2.596099e-002
2.815680e+003;-2.596142e-002
2.817609e+003;-2.620468e-002
2.819537e+003;-2.624224e-002
2.821466e+003;-2.631085e-002
2.823394e+003;-2.621008e-002
2.825323e+003;-2.620112e-002
2.827251e+003;-2.623743e-002
2.829180e+003;-2.610463e-002
2.831108e+003;-2.611143e-002
2.833037e+003;-2.641176e-002
2.834966e+003;-2.649999e-002
2.836894e+003;-2.662092e-002
2.838823e+003;-2.700849e-002
2.840751e+003;-2.774781e-002
2.842680e+003;-2.883632e-002
2.844608e+003;-3.051993e-002
2.846537e+003;-3.268866e-002
2.848465e+003;-3.452957e-002
2.850394e+003;-3.558457e-002
2.852323e+003;-3.540305e-002
2.854251e+003;-3.458273e-002
2.856180e+003;-3.326161e-002
2.858108e+003;-3.135236e-002
2.860037e+003;-2.983596e-002
2.861965e+003;-2.868219e-002
2.863894e+003;-2.752445e-002
2.865822e+003;-2.643704e-002
2.867751e+003;-2.569267e-002
2.869679e+003;-2.553293e-002
2.871608e+003;-2.550103e-002
2.873536e+003;-2.556986e-002
2.875465e+003;-2.544535e-002
2.877394e+003;-2.508547e-002
2.879322e+003;-2.475017e-002
2.881251e+003;-2.486483e-002
2.883179e+003;-2.513879e-002
2.885108e+003;-2.574033e-002
2.887036e+003;-2.620028e-002
2.888965e+003;-2.636723e-002
2.890893e+003;-2.662544e-002
2.892822e+003;-2.681587e-002
2.894750e+003;-2.736510e-002
2.896679e+003;-2.782601e-002
2.898608e+003;-2.805344e-002
2.900536e+003;-2.853599e-002
2.902465e+003;-2.894498e-002
2.904393e+003;-2.957870e-002
2.906322e+003;-3.026138e-002
2.908250e+003;-3.073318e-002
2.910179e+003;-3.133464e-002
2.912107e+003;-3.236057e-002
2.914036e+003;-3.404843e-002
2.915965e+003;-3.608746e-002
2.917893e+003;-3.782095e-002
2.919822e+003;-3.896647e-002
2.921750e+003;-3.957797e-002
2.923679e+003;-3.944150e-002
2.925607e+003;-3.858076e-002
2.927536e+003;-3.760520e-002
2.929464e+003;-3.649358e-002
2.931393e+003;-3.533921e-002
2.933322e+003;-3.410063e-002
2.935250e+003;-3.283931e-002
2.937178e+003;-3.173654e-002
2.939107e+003;-3.068477e-002
2.941036e+003;-2.944670e-002
2.942964e+003;-2.842710e-002
2.944893e+003;-2.809587e-002
2.946821e+003;-2.816481e-002
2.948750e+003;-2.845351e-002
2.950678e+003;-2.850524e-002
2.952607e+003;-2.860148e-002
2.954535e+003;-2.861820e-002
2.956464e+003;-2.869032e-002
2.958393e+003;-2.878454e-002
2.960321e+003;-2.867500e-002
2.962250e+003;-2.854167e-002
2.964178e+003;-2.813286e-002
2.966107e+003;-2.726255e-002
2.968035e+003;-2.621672e-002
2.969964e+003;-2.560278e-002
2.971892e+003;-2.543351e-002
2.973821e+003;-2.525851e-002
2.975750e+003;-2.516568e-002
2.977678e+003;-2.539872e-002
2.979607e+003;-2.530662e-002
2.981535e+003;-2.516477e-002
2.983464e+003;-2.554349e-002
2.985392e+003;-2.572256e-002
2.987321e+003;-2.567400e-002
2.989249e+003;-2.592169e-002
2.991178e+003;-2.636854e-002
2.993106e+003;-2.682500e-002
2.995035e+003;-2.713983e-002
2.996964e+003;-2.748844e-002
2.998892e+003;-2.756684e-002
3.000821e+003;-2.764868e-002
3.002749e+003;-2.793350e-002
3.004678e+003;-2.808319e-002
3.006606e+003;-2.807981e-002
3.008535e+003;-2.826224e-002
3.010463e+003;-2.847843e-002
3.012392e+003;-2.837645e-002
3.014321e+003;-2.812531e-002
3.016249e+003;-2.800020e-002
3.018177e+003;-2.795002e-002
3.020106e+003;-2.807121e-002
3.022035e+003;-2.850142e-002
3.023963e+003;-2.855699e-002
3.025892e+003;-2.849996e-002
3.027820e+003;-2.841981e-002
3.029749e+003;-2.850149e-002
3.031677e+003;-2.850685e-002
3.033606e+003;-2.860942e-002
3.035534e+003;-2.880017e-002
3.037463e+003;-2.870995e-002
3.039392e+003;-2.869866e-002
3.041320e+003;-2.864696e-002
3.043249e+003;-2.866501e-002
3.045177e+003;-2.866448e-002
3.047106e+003;-2.855581e-002
3.049034e+003;-2.859301e-002
3.050963e+003;-2.877052e-002
3.052891e+003;-2.909241e-002
3.054820e+003;-2.925320e-002
3.056749e+003;-2.916566e-002
3.058677e+003;-2.905256e-002
3.060606e+003;-2.915206e-002
3.062534e+003;-2.917960e-002
3.064463e+003;-2.924239e-002
3.066391e+003;-2.960491e-002
3.068320e+003;-2.966242e-002
3.070248e+003;-2.946227e-002
3.072177e+003;-2.960717e-002
3.074105e+003;-2.969658e-002
3.076034e+003;-2.974377e-002
3.077963e+003;-2.986640e-002
3.079891e+003;-2.994688e-002
3.081820e+003;-3.002143e-002
3.083748e+003;-2.975877e-002
3.085677e+003;-2.980311e-002
3.087605e+003;-3.001244e-002
3.089534e+003;-3.002876e-002
3.091462e+003;-3.002799e-002
3.093391e+003;-3.006896e-002
3.095320e+003;-2.986086e-002
3.097248e+003;-2.967238e-002
3.099177e+003;-2.996361e-002
3.101105e+003;-3.033619e-002
3.103034e+003;-3.030770e-002
3.104962e+003;-3.029626e-002
3.106891e+003;-3.044426e-002
3.108819e+003;-3.067322e-002
3.110748e+003;-3.078933e-002
3.112677e+003;-3.084985e-002
3.114605e+003;-3.100602e-002
3.116533e+003;-3.113828e-002
3.118462e+003;-3.105655e-002
3.120391e+003;-3.080433e-002
3.122319e+003;-3.067773e-002
3.124248e+003;-3.091447e-002
3.126176e+003;-3.114199e-002
3.128105e+003;-3.127606e-002
3.130033e+003;-3.119972e-002
3.131962e+003;-3.096128e-002
3.133890e+003;-3.102332e-002
3.135819e+003;-3.142579e-002
3.137748e+003;-3.175197e-002
3.139676e+003;-3.175634e-002
3.141605e+003;-3.179517e-002
3.143533e+003;-3.166880e-002
3.145462e+003;-3.132218e-002
3.147390e+003;-3.124908e-002
3.149319e+003;-3.167078e-002
3.151247e+003;-3.222163e-002
3.153176e+003;-3.225285e-002
3.155104e+003;-3.176102e-002
3.157033e+003;-3.172791e-002
3.158962e+003;-3.201746e-002
3.160890e+003;-3.194407e-002
3.162819e+003;-3.190421e-002
3.164747e+003;-3.202306e-002
3.166676e+003;-3.169899e-002
3.168604e+003;-3.143898e-002
3.170533e+003;-3.189651e-002
3.172461e+003;-3.251635e-002
3.174390e+003;-3.230084e-002
3.176319e+003;-3.188293e-002
3.178247e+003;-3.218000e-002
3.180176e+003;-3.238887e-002
3.182104e+003;-3.218908e-002
3.184033e+003;-3.207387e-002
3.185961e+003;-3.213046e-002
3.187890e+003;-3.244846e-002
3.189818e+003;-3.249852e-002
3.191747e+003;-3.225864e-002
3.193676e+003;-3.186683e-002
3.195604e+003;-3.202641e-002
3.197532e+003;-3.250322e-002
3.199461e+003;-3.295567e-002
3.201390e+003;-3.299347e-002
3.203318e+003;-3.288785e-002
3.205247e+003;-3.284945e-002
3.207175e+003;-3.285516e-002
3.209104e+003;-3.292182e-002
3.211032e+003;-3.308824e-002
3.212961e+003;-3.315562e-002
3.214889e+003;-3.291706e-002
3.216818e+003;-3.289470e-002
3.218747e+003;-3.289581e-002
3.220675e+003;-3.263875e-002
3.222604e+003;-3.259978e-002
3.224532e+003;-3.286890e-002
3.226461e+003;-3.313607e-002
3.228389e+003;-3.346265e-002
3.230318e+003;-3.370435e-002
3.232246e+003;-3.350520e-002
3.234175e+003;-3.346078e-002
3.236104e+003;-3.369007e-002
3.238032e+003;-3.384564e-002
3.239961e+003;-3.386324e-002
3.241889e+003;-3.382722e-002
3.243818e+003;-3.357857e-002
3.245746e+003;-3.366857e-002
3.247675e+003;-3.442631e-002
3.249603e+003;-3.457949e-002
3.251532e+003;-3.380622e-002
3.253460e+003;-3.365937e-002
3.255389e+003;-3.386912e-002
3.257318e+003;-3.361721e-002
3.259246e+003;-3.374712e-002
3.261175e+003;-3.453221e-002
3.263103e+003;-3.501324e-002
3.265032e+003;-3.493553e-002
3.266960e+003;-3.501486e-002
3.268889e+003;-3.508574e-002
3.270817e+003;-3.468421e-002
3.272746e+003;-3.448006e-002
3.274675e+003;-3.464661e-002
3.276603e+003;-3.462290e-002
3.278531e+003;-3.496586e-002
3.280460e+003;-3.512134e-002
3.282389e+003;-3.511343e-002
3.284317e+003;-3.535311e-002
3.286246e+003;-3.514390e-002
3.288174e+003;-3.468681e-002
3.290103e+003;-3.467237e-002
3.292031e+003;-3.493987e-002
3.293960e+003;-3.525441e-002
3.295888e+003;-3.510463e-002
3.297817e+003;-3.494278e-002
3.299746e+003;-3.526300e-002
3.301674e+003;-3.550654e-002
3.303603e+003;-3.535635e-002
3.305531e+003;-3.521140e-002
3.307460e+003;-3.533103e-002
3.309388e+003;-3.562832e-002
3.311317e+003;-3.564022e-002
3.313245e+003;-3.536805e-002
3.315174e+003;-3.565164e-002
3.317103e+003;-3.595349e-002
3.319031e+003;-3.579558e-002
3.320960e+003;-3.578243e-002
3.322888e+003;-3.583787e-002
3.324817e+003;-3.570471e-002
3.326745e+003;-3.564180e-002
3.328674e+003;-3.571234e-002
3.330602e+003;-3.565130e-002
3.332531e+003;-3.576010e-002
3.334459e+003;-3.605663e-002
3.336388e+003;-3.616478e-002
3.338317e+003;-3.601559e-002
3.340245e+003;-3.597451e-002
3.342174e+003;-3.618658e-002
3.344102e+003;-3.599314e-002
3.346031e+003;-3.577862e-002
3.347959e+003;-3.590313e-002
3.349888e+003;-3.601037e-002
3.351816e+003;-3.617893e-002
3.353745e+003;-3.619472e-002
3.355674e+003;-3.617506e-002
3.357602e+003;-3.611686e-002
3.359531e+003;-3.564629e-002
3.361459e+003;-3.548495e-002
3.363388e+003;-3.565154e-002
3.365316e+003;-3.577578e-002
3.367245e+003;-3.585212e-002
3.369173e+003;-3.561290e-002
3.371102e+003;-3.537779e-002
3.373031e+003;-3.576891e-002
3.374959e+003;-3.589864e-002
3.376887e+003;-3.534673e-002
3.378816e+003;-3.497897e-002
3.380745e+003;-3.531102e-002
3.382673e+003;-3.589651e-002
3.384602e+003;-3.561033e-002
3.386530e+003;-3.528881e-002
3.388459e+003;-3.538365e-002
3.390387e+003;-3.542714e-002
3.392316e+003;-3.549225e-002
3.394244e+003;-3.536695e-002
3.396173e+003;-3.554302e-002
3.398102e+003;-3.545200e-002
3.400030e+003;-3.539474e-002
3.401959e+003;-3.564055e-002
3.403887e+003;-3.563308e-002
3.405816e+003;-3.541468e-002
3.407744e+003;-3.515578e-002
3.409673e+003;-3.480698e-002
3.411601e+003;-3.510286e-002
3.413530e+003;-3.529975e-002
3.415458e+003;-3.498182e-002
3.417387e+003;-3.526504e-002
3.419316e+003;-3.540356e-002
3.421244e+003;-3.491508e-002
3.423173e+003;-3.477230e-002
3.425101e+003;-3.486539e-002
3.427030e+003;-3.482863e-002
3.428958e+003;-3.469966e-002
3.430887e+003;-3.453735e-002
3.432815e+003;-3.486038e-002
3.434744e+003;-3.496360e-002
3.436673e+003;-3.452593e-002
3.438601e+003;-3.458961e-002
3.440530e+003;-3.468213e-002
3.442458e+003;-3.462954e-002
3.444387e+003;-3.494807e-002
3.446315e+003;-3.450665e-002
3.448244e+003;-3.383890e-002
3.450172e+003;-3.407049e-002
3.452101e+003;-3.409595e-002
3.454030e+003;-3.411016e-002
3.455958e+003;-3.434026e-002
3.457886e+003;-3.427526e-002
3.459815e+003;-3.366431e-002
3.461744e+003;-3.366094e-002
3.463672e+003;-3.377036e-002
3.465601e+003;-3.401406e-002
3.467529e+003;-3.420312e-002
3.469458e+003;-3.401167e-002
3.471386e+003;-3.386486e-002
3.473315e+003;-3.376190e-002
3.475243e+003;-3.382952e-002
3.477172e+003;-3.414290e-002
3.479101e+003;-3.386376e-002
3.481029e+003;-3.362512e-002
3.482958e+003;-3.337387e-002
3.484886e+003;-3.310239e-002
3.486815e+003;-3.333217e-002
3.488743e+003;-3.332075e-002
3.490672e+003;-3.312542e-002
3.492600e+003;-3.327515e-002
3.494529e+003;-3.304562e-002
3.496458e+003;-3.281609e-002
3.498386e+003;-3.299163e-002
3.500315e+003;-3.308203e-002
3.502243e+003;-3.337132e-002
3.504172e+003;-3.327543e-002
3.506100e+003;-3.311006e-002
3.508029e+003;-3.332045e-002
3.509957e+003;-3.335383e-002
3.511886e+003;-3.288260e-002
3.513814e+003;-3.232194e-002
3.515743e+003;-3.250525e-002
3.517672e+003;-3.279627e-002
3.519600e+003;-3.249255e-002
3.521529e+003;-3.278795e-002
3.523457e+003;-3.352784e-002
3.525386e+003;-3.311522e-002
3.527314e+003;-3.245999e-002
3.529243e+003;-3.257325e-002
3.531171e+003;-3.285772e-002
3.533100e+003;-3.259631e-002
3.535029e+003;-3.212409e-002
3.536957e+003;-3.172973e-002
3.538885e+003;-3.168858e-002
3.540814e+003;-3.201690e-002
3.542743e+003;-3.242540e-002
3.544671e+003;-3.280383e-002
3.546600e+003;-3.271580e-002
3.548528e+003;-3.220172e-002
3.550457e+003;-3.202041e-002
3.552385e+003;-3.186369e-002
3.554314e+003;-3.167127e-002
3.556242e+003;-3.173364e-002
3.558171e+003;-3.202010e-002
3.560100e+003;-3.216114e-002
3.562028e+003;-3.226119e-002
3.563957e+003;-3.305022e-002
3.565885e+003;-3.422005e-002
3.567814e+003;-3.348143e-002
3.569742e+003;-3.168146e-002
3.571671e+003;-3.144505e-002
3.573599e+003;-3.190251e-002
3.575528e+003;-3.170429e-002
3.577457e+003;-3.129576e-002
3.579385e+003;-3.083427e-002
3.581314e+003;-3.092598e-002
3.583242e+003;-3.142017e-002
3.585171e+003;-3.295066e-002
3.587099e+003;-3.388095e-002
3.589028e+003;-3.259160e-002
3.590956e+003;-3.141642e-002
3.592885e+003;-3.215471e-002
3.594813e+003;-3.257838e-002
3.596742e+003;-3.192788e-002
3.598671e+003;-3.172927e-002
3.600599e+003;-3.195799e-002
3.602528e+003;-3.158492e-002
3.604456e+003;-3.113110e-002
3.606385e+003;-3.220517e-002
3.608313e+003;-3.394683e-002
3.610242e+003;-3.336374e-002
3.612170e+003;-3.276318e-002
3.614099e+003;-3.226648e-002
3.616028e+003;-3.229583e-002
3.617956e+003;-3.391175e-002
3.619885e+003;-3.377741e-002
3.621813e+003;-3.185122e-002
3.623742e+003;-3.143497e-002
3.625670e+003;-3.297047e-002
3.627599e+003;-3.683415e-002
3.629527e+003;-3.656739e-002
3.631456e+003;-3.230102e-002
3.633385e+003;-3.122799e-002
3.635313e+003;-3.090111e-002
3.637241e+003;-3.039474e-002
3.639170e+003;-3.051264e-002
3.641099e+003;-3.072972e-002
3.643027e+003;-3.085522e-002
3.644956e+003;-3.218532e-002
3.646884e+003;-3.587915e-002
3.648813e+003;-3.820834e-002
3.650741e+003;-3.516312e-002
3.652670e+003;-3.102237e-002
3.654598e+003;-3.210178e-002
3.656527e+003;-3.261714e-002
3.658456e+003;-3.048704e-002
3.660384e+003;-2.968365e-002
3.662313e+003;-2.934485e-002
3.664241e+003;-2.936483e-002
3.666170e+003;-3.032163e-002
3.668098e+003;-3.357955e-002
3.670027e+003;-3.607243e-002
3.671955e+003;-3.380442e-002
3.673884e+003;-3.564452e-002
3.675813e+003;-3.725310e-002
3.677741e+003;-3.295825e-002
3.679669e+003;-3.026394e-002
3.681598e+003;-2.907295e-002
3.683527e+003;-2.922672e-002
3.685455e+003;-3.069900e-002
3.687384e+003;-3.478166e-002
3.689312e+003;-3.552180e-002
3.691241e+003;-3.273927e-002
3.693169e+003;-3.035930e-002
3.695098e+003;-2.982127e-002
3.697026e+003;-2.934702e-002
3.698955e+003;-2.917164e-002
3.700884e+003;-3.026029e-002
3.702812e+003;-2.980871e-002
3.704741e+003;-2.892815e-002
3.706669e+003;-2.990441e-002
3.708598e+003;-3.237782e-002
3.710526e+003;-3.466530e-002
3.712455e+003;-3.423282e-002
3.714383e+003;-3.134080e-002
3.716312e+003;-3.021369e-002
3.718240e+003;-3.049498e-002
3.720169e+003;-3.099540e-002
3.722098e+003;-3.125559e-002
3.724026e+003;-3.163936e-002
3.725955e+003;-3.189666e-002
3.727883e+003;-3.091148e-002
3.729812e+003;-3.171818e-002
3.731740e+003;-3.390743e-002
3.733669e+003;-3.437198e-002
3.735597e+003;-3.514002e-002
3.737526e+003;-3.332011e-002
3.739455e+003;-3.122164e-002
3.741383e+003;-3.255591e-002
3.743312e+003;-3.984450e-002
3.745240e+003;-3.937436e-002
3.747169e+003;-3.578787e-002
3.749097e+003;-3.832887e-002
3.751026e+003;-3.902014e-002
3.752954e+003;-3.568347e-002
3.754883e+003;-3.126012e-002
3.756812e+003;-3.071533e-002
3.758740e+003;-3.131019e-002
3.760668e+003;-3.099318e-002
3.762597e+003;-2.999926e-002
3.764526e+003;-3.066967e-002
3.766454e+003;-3.100423e-002
3.768383e+003;-3.150447e-002
3.770311e+003;-3.095520e-002
3.772240e+003;-2.958551e-002
3.774168e+003;-2.935250e-002
3.776097e+003;-2.966313e-002
3.778025e+003;-3.062268e-002
3.779954e+003;-3.070666e-002
3.781883e+003;-2.966232e-002
3.783811e+003;-2.962915e-002
3.785740e+003;-2.951518e-002
3.787668e+003;-2.945168e-002
3.789597e+003;-2.940465e-002
3.791525e+003;-2.918586e-002
3.793454e+003;-2.936944e-002
3.795382e+003;-3.073034e-002
3.797311e+003;-3.090901e-002
3.799240e+003;-3.338476e-002
3.801168e+003;-3.605130e-002
3.803097e+003;-3.292609e-002
3.805025e+003;-3.240157e-002
3.806954e+003;-3.353278e-002
3.808882e+003;-3.073639e-002
3.810811e+003;-2.892495e-002
3.812739e+003;-2.974194e-002
3.814668e+003;-3.441756e-002
3.816596e+003;-3.521613e-002
3.818525e+003;-3.354658e-002
3.820454e+003;-3.544241e-002
3.822382e+003;-3.341118e-002
3.824311e+003;-3.073802e-002
3.826239e+003;-3.111851e-002
3.828168e+003;-3.080133e-002
3.830096e+003;-3.127458e-002
3.832025e+003;-3.201675e-002
3.833953e+003;-3.231357e-002
3.835882e+003;-3.486337e-002
3.837811e+003;-3.684593e-002
3.839739e+003;-3.448242e-002
3.841667e+003;-3.228531e-002
3.843596e+003;-3.075383e-002
3.845525e+003;-2.960897e-002
3.847453e+003;-2.979670e-002
3.849382e+003;-3.207812e-002
3.851310e+003;-3.829999e-002
3.853239e+003;-4.331193e-002
3.855167e+003;-3.774723e-002
3.857096e+003;-3.141401e-002
3.859024e+003;-3.042819e-002
3.860953e+003;-3.144027e-002
3.862882e+003;-3.227026e-002
3.864810e+003;-3.216403e-002
3.866739e+003;-3.171208e-002
3.868667e+003;-3.488306e-002
3.870596e+003;-3.505331e-002
3.872524e+003;-3.272809e-002
3.874453e+003;-3.188967e-002
3.876381e+003;-3.073333e-002
3.878310e+003;-3.120567e-002
3.880239e+003;-3.137570e-002
3.882167e+003;-3.060014e-002
3.884096e+003;-3.227187e-002
3.886024e+003;-3.230890e-002
3.887953e+003;-3.004094e-002
3.889881e+003;-3.109992e-002
3.891810e+003;-3.138470e-002
3.893738e+003;-2.965443e-002
3.895667e+003;-2.968392e-002
3.897595e+003;-3.126253e-002
3.899524e+003;-3.216634e-002
3.901453e+003;-3.250851e-002
3.903381e+003;-3.273927e-002
3.905310e+003;-3.133288e-002
3.907238e+003;-2.929248e-002
3.909167e+003;-2.854303e-002
3.911095e+003;-2.868452e-002
3.913024e+003;-2.912206e-002
3.914952e+003;-3.045207e-002
3.916881e+003;-3.128882e-002
3.918810e+003;-3.076797e-002
3.920738e+003;-3.003847e-002
3.922667e+003;-2.961593e-002
3.924595e+003;-3.010473e-002
3.926524e+003;-3.017814e-002
3.928452e+003;-2.993225e-002
3.930381e+003;-3.022815e-002
3.932309e+003;-3.053846e-002
3.934238e+003;-2.974600e-002
3.936167e+003;-2.942416e-002
3.938095e+003;-2.932686e-002
3.940023e+003;-2.955428e-002
3.941952e+003;-3.010606e-002
3.943881e+003;-2.972907e-002
3.945809e+003;-2.923731e-002
3.947738e+003;-2.954542e-002
3.949666e+003;-2.967879e-002
3.951595e+003;-2.931881e-002
3.953523e+003;-2.876671e-002
3.955452e+003;-2.855867e-002
3.957380e+003;-2.867841e-002
3.959309e+003;-2.875898e-002
3.961238e+003;-2.894448e-002
3.963166e+003;-2.887638e-002
3.965095e+003;-2.908817e-002
3.967023e+003;-2.919267e-002
3.968952e+003;-2.914586e-002
3.970880e+003;-2.912904e-002
3.972809e+003;-2.884959e-002
3.974737e+003;-2.854064e-002
3.976666e+003;-2.864553e-002
3.978594e+003;-2.892561e-002
3.980523e+003;-2.901639e-002
3.982452e+003;-2.851225e-002
3.984380e+003;-2.818754e-002
3.986309e+003;-2.835090e-002
3.988237e+003;-2.836686e-002
3.990166e+003;-2.856264e-002
3.992094e+003;-2.850890e-002
3.994023e+003;-2.814795e-002
3.995951e+003;-2.817748e-002
3.997880e+003;-2.853028e-002
3.999809e+003;-2.888921e-002
4.001737e+003;0.000000e+000
