3.992094e+002;0.000000e+000
4.011380e+002;0.000000e+000
4.030665e+002;0.000000e+000
4.049951e+002;0.000000e+000
4.069236e+002;0.000000e+000
4.088522e+002;0.000000e+000
4.107807e+002;0.000000e+000
4.127093e+002;0.000000e+000
4.146378e+002;0.000000e+000
4.165664e+002;0.000000e+000
4.184949e+002;0.000000e+000
4.204235e+002;0.000000e+000
4.223520e+002;0.000000e+000
4.242806e+002;0.000000e+000
4.262091e+002;0.000000e+000
4.281377e+002;0.000000e+000
4.300662e+002;0.000000e+000
4.319948e+002;0.000000e+000
4.339233e+002;0.000000e+000
4.358519e+002;0.000000e+000
4.377804e+002;0.000000e+000
4.397090e+002;0.000000e+000
4.416375e+002;0.000000e+000
4.435660e+002;0.000000e+000
4.454946e+002;0.000000e+000
4.474232e+002;0.000000e+000
4.493517e+002;0.000000e+000
4.512802e+002;0.000000e+000
4.532088e+002;0.000000e+000
4.551373e+002;0.000000e+000
4.570659e+002;0.000000e+000
4.589944e+002;0.000000e+000
4.609230e+002;0.000000e+000
4.628515e+002;0.000000e+000
4.647801e+002;0.000000e+000
4.667086e+002;0.000000e+000
4.686372e+002;0.000000e+000
4.705657e+002;0.000000e+000
4.724943e+002;0.000000e+000
4.744228e+002;0.000000e+000
4.763513e+002;0.000000e+000
4.782799e+002;0.000000e+000
4.802085e+002;0.000000e+000
4.821370e+002;0.000000e+000
4.840656e+002;0.000000e+000
4.859941e+002;0.000000e+000
4.879226e+002;0.000000e+000
4.898512e+002;0.000000e+000
4.917798e+002;0.000000e+000
4.937083e+002;0.000000e+000
4.956368e+002;0.000000e+000
4.975654e+002;0.000000e+000
4.994939e+002;0.000000e+000
5.014225e+002;0.000000e+000
5.033510e+002;0.000000e+000
5.052796e+002;0.000000e+000
5.072081e+002;0.000000e+000
5.091367e+002;0.000000e+000
5.110652e+002;0.000000e+000
5.129938e+002;0.000000e+000
5.149223e+002;0.000000e+000
5.168509e+002;0.000000e+000
5.187794e+002;0.000000e+000
5.207079e+002;0.000000e+000
5.226365e+002;0.000000e+000
5.245651e+002;0.000000e+000
5.264936e+002;0.000000e+000
5.284222e+002;0.000000e+000
5.303507e+002;0.000000e+000
5.322792e+002;0.000000e+000
5.342078e+002;0.000000e+000
5.361364e+002;0.000000e+000
5.380649e+002;0.000000e+000
5.399935e+002;0.000000e+000
5.419220e+002;0.000000e+000
5.438505e+002;0.000000e+000
5.457791e+002;0.000000e+000
5.477076e+002;0.000000e+000
5.496362e+002;0.000000e+000
5.515648e+002;0.000000e+000
5.534933e+002;0.000000e+000
5.554218e+002;0.000000e+000
5.573504e+002;0.000000e+000
5.592789e+002;0.000000e+000
5.612075e+002;0.000000e+000
5.631360e+002;0.000000e+000
5.650646e+002;0.000000e+000
5.669931e+002;0.000000e+000
5.689217e+002;0.000000e+000
5.708502e+002;0.000000e+000
5.727787e+002;0.000000e+000
5.747073e+002;0.000000e+000
5.766359e+002;0.000000e+000
5.785644e+002;0.000000e+000
5.804930e+002;0.000000e+000
5.824215e+002;0.000000e+000
5.843500e+002;0.000000e+000
5.862786e+002;0.000000e+000
5.882072e+002;0.000000e+000
5.901357e+002;0.000000e+000
5.920643e+002;0.000000e+000
5.939928e+002;0.000000e+000
5.959213e+002;0.000000e+000
5.978499e+002;0.000000e+000
5.997784e+002;1.367933e-001
6.017070e+002;1.332970e-001
6.036355e+002;1.354287e-001
6.055641e+002;1.410829e-001
6.074926e+002;1.471674e-001
6.094211e+002;1.501916e-001
6.113497e+002;1.458408e-001
6.132783e+002;1.381528e-001
6.152068e+002;1.350890e-001
6.171354e+002;1.342942e-001
6.190639e+002;1.348216e-001
6.209924e+002;1.363351e-001
6.229210e+002;1.348739e-001
6.248495e+002;1.300894e-001
6.267781e+002;1.353652e-001
6.287067e+002;1.397313e-001
6.306352e+002;1.422055e-001
6.325637e+002;1.413651e-001
6.344923e+002;1.404645e-001
6.364208e+002;1.416608e-001
6.383494e+002;1.399231e-001
6.402780e+002;1.408106e-001
6.422065e+002;1.442479e-001
6.441350e+002;1.442707e-001
6.460636e+002;1.463407e-001
6.479921e+002;1.483224e-001
6.499207e+002;1.487380e-001
6.518492e+002;1.464199e-001
6.537778e+002;1.450182e-001
6.557063e+002;1.463390e-001
6.576349e+002;1.508548e-001
6.595634e+002;1.526546e-001
6.614919e+002;1.543622e-001
6.634205e+002;1.522177e-001
6.653491e+002;1.476030e-001
6.672776e+002;1.474135e-001
6.692062e+002;1.532137e-001
6.711347e+002;1.573670e-001
6.730632e+002;1.580677e-001
6.749918e+002;1.577790e-001
6.769203e+002;1.549527e-001
6.788489e+002;1.549597e-001
6.807775e+002;1.584681e-001
6.827060e+002;1.610966e-001
6.846345e+002;1.626830e-001
6.865631e+002;1.639018e-001
6.884916e+002;1.651726e-001
6.904202e+002;1.663023e-001
6.923488e+002;1.661595e-001
6.942773e+002;1.657968e-001
6.962058e+002;1.653218e-001
6.981344e+002;1.661820e-001
7.000629e+002;1.666850e-001
7.019915e+002;1.656609e-001
7.039200e+002;1.668248e-001
7.058486e+002;1.674616e-001
7.077771e+002;1.666743e-001
7.097057e+002;1.675903e-001
7.116342e+002;1.679724e-001
7.135627e+002;1.671273e-001
7.154913e+002;1.678618e-001
7.174199e+002;1.679379e-001
7.193484e+002;1.674260e-001
7.212770e+002;1.666038e-001
7.232055e+002;1.666832e-001
7.251340e+002;1.673693e-001
7.270626e+002;1.668847e-001
7.289911e+002;1.662195e-001
7.309197e+002;1.660140e-001
7.328483e+002;1.675055e-001
7.347768e+002;1.699773e-001
7.367053e+002;1.702691e-001
7.386339e+002;1.699665e-001
7.405624e+002;1.700999e-001
7.424910e+002;1.699215e-001
7.444196e+002;1.695197e-001
7.463481e+002;1.696493e-001
7.482766e+002;1.701900e-001
7.502052e+002;1.696219e-001
7.521337e+002;1.711314e-001
7.540623e+002;1.724505e-001
7.559908e+002;1.712982e-001
7.579194e+002;1.705317e-001
7.598479e+002;1.703747e-001
7.617765e+002;1.701285e-001
7.637050e+002;1.706715e-001
7.656335e+002;1.701038e-001
7.675621e+002;1.695477e-001
7.694907e+002;1.692544e-001
7.714192e+002;1.692075e-001
7.733478e+002;1.697725e-001
7.752763e+002;1.692498e-001
7.772048e+002;1.671273e-001
7.791334e+002;1.656732e-001
7.810620e+002;1.659170e-001
7.829905e+002;1.654175e-001
7.849191e+002;1.649871e-001
7.868476e+002;1.650975e-001
7.887761e+002;1.650575e-001
7.907047e+002;1.646460e-001
7.926332e+002;1.637905e-001
7.945618e+002;1.627619e-001
7.964903e+002;1.616165e-001
7.984189e+002;1.601792e-001
8.003474e+002;1.583389e-001
8.022759e+002;1.573178e-001
8.042045e+002;1.571814e-001
8.061331e+002;1.567673e-001
8.080616e+002;1.563735e-001
8.099902e+002;1.561297e-001
8.119187e+002;1.565981e-001
8.138472e+002;1.570395e-001
8.157758e+002;1.571526e-001
8.177043e+002;1.573888e-001
8.196329e+002;1.579307e-001
8.215615e+002;1.596860e-001
8.234900e+002;1.612693e-001
8.254185e+002;1.620285e-001
8.273471e+002;1.636697e-001
8.292756e+002;1.664292e-001
8.312042e+002;1.687468e-001
8.331328e+002;1.704686e-001
8.350613e+002;1.724005e-001
8.369898e+002;1.748866e-001
8.389184e+002;1.785175e-001
8.408469e+002;1.827945e-001
8.427755e+002;1.867862e-001
8.447040e+002;1.907911e-001
8.466326e+002;1.950386e-001
8.485611e+002;2.005340e-001
8.504897e+002;2.063787e-001
8.524182e+002;2.120979e-001
8.543467e+002;2.185002e-001
8.562753e+002;2.247028e-001
8.582039e+002;2.304305e-001
8.601324e+002;2.362399e-001
8.620610e+002;2.423702e-001
8.639895e+002;2.477702e-001
8.659180e+002;2.526723e-001
8.678466e+002;2.586099e-001
8.697751e+002;2.650583e-001
8.717037e+002;2.703092e-001
8.736323e+002;2.747250e-001
8.755608e+002;2.794513e-001
8.774893e+002;2.847581e-001
8.794179e+002;2.898599e-001
8.813464e+002;2.941238e-001
8.832750e+002;2.984443e-001
8.852036e+002;3.027355e-001
8.871321e+002;3.069126e-001
8.890606e+002;3.105032e-001
8.909892e+002;3.129255e-001
8.929177e+002;3.146043e-001
8.948463e+002;3.164626e-001
8.967748e+002;3.192314e-001
8.987034e+002;3.222361e-001
9.006319e+002;3.254234e-001
9.025605e+002;3.278078e-001
9.044890e+002;3.290277e-001
9.064175e+002;3.306217e-001
9.083461e+002;3.319167e-001
9.102747e+002;3.335062e-001
9.122032e+002;3.348147e-001
9.141318e+002;3.356352e-001
9.160603e+002;3.361041e-001
9.179888e+002;3.366720e-001
9.199174e+002;3.374467e-001
9.218459e+002;3.381466e-001
9.237745e+002;3.388743e-001
9.257031e+002;3.392754e-001
9.276316e+002;3.393162e-001
9.295601e+002;3.393706e-001
9.314887e+002;3.393812e-001
9.334172e+002;3.390675e-001
9.353458e+002;3.384851e-001
9.372744e+002;3.376862e-001
9.392029e+002;3.370788e-001
9.411314e+002;3.363500e-001
9.430600e+002;3.353393e-001
9.449885e+002;3.346039e-001
9.469171e+002;3.333732e-001
9.488456e+002;3.314415e-001
9.507742e+002;3.302894e-001
9.527027e+002;3.290204e-001
9.546313e+002;3.267185e-001
9.565598e+002;3.251233e-001
9.584883e+002;3.237351e-001
9.604169e+002;3.220067e-001
9.623455e+002;3.205335e-001
9.642740e+002;3.192546e-001
9.662026e+002;3.177905e-001
9.681311e+002;3.165372e-001
9.700596e+002;3.153386e-001
9.719882e+002;3.139526e-001
9.739167e+002;3.120963e-001
9.758453e+002;3.098686e-001
9.777739e+002;3.076926e-001
9.797024e+002;3.060658e-001
9.816309e+002;3.042569e-001
9.835595e+002;3.022238e-001
9.854880e+002;3.006958e-001
9.874166e+002;2.989318e-001
9.893452e+002;2.967215e-001
9.912737e+002;2.944611e-001
9.932022e+002;2.925384e-001
9.951307e+002;2.908644e-001
9.970593e+002;2.888290e-001
9.989879e+002;2.865711e-001
1.000916e+003;2.846689e-001
1.002845e+003;2.828523e-001
1.004773e+003;2.810258e-001
1.006702e+003;2.795512e-001
1.008631e+003;2.779672e-001
1.010559e+003;2.756351e-001
1.012488e+003;2.730725e-001
1.014416e+003;2.705604e-001
1.016345e+003;2.680592e-001
1.018273e+003;2.656296e-001
1.020202e+003;2.625372e-001
1.022130e+003;2.593655e-001
1.024059e+003;2.563731e-001
1.025988e+003;2.539461e-001
1.027916e+003;2.514680e-001
1.029845e+003;2.486377e-001
1.031773e+003;2.459087e-001
1.033702e+003;2.433190e-001
1.035630e+003;2.402927e-001
1.037559e+003;2.374217e-001
1.039487e+003;2.346955e-001
1.041416e+003;2.319851e-001
1.043344e+003;2.296662e-001
1.045273e+003;2.274650e-001
1.047202e+003;2.249565e-001
1.049130e+003;2.221815e-001
1.051059e+003;2.195752e-001
1.052987e+003;2.166642e-001
1.054916e+003;2.131139e-001
1.056844e+003;2.102881e-001
1.058773e+003;2.078736e-001
1.060701e+003;2.052239e-001
1.062630e+003;2.026086e-001
1.064558e+003;2.003168e-001
1.066487e+003;1.983748e-001
1.068416e+003;1.956053e-001
1.070344e+003;1.929457e-001
1.072273e+003;1.903824e-001
1.074201e+003;1.875784e-001
1.076130e+003;1.852186e-001
1.078058e+003;1.830732e-001
1.079987e+003;1.806013e-001
1.081915e+003;1.781656e-001
1.083844e+003;1.759486e-001
1.085773e+003;1.742118e-001
1.087701e+003;1.717927e-001
1.089630e+003;1.686858e-001
1.091558e+003;1.665183e-001
1.093487e+003;1.651141e-001
1.095415e+003;1.633272e-001
1.097344e+003;1.605500e-001
1.099272e+003;1.589739e-001
1.101201e+003;1.579371e-001
1.103129e+003;1.553657e-001
1.105058e+003;1.526504e-001
1.106987e+003;1.500939e-001
1.108915e+003;1.478831e-001
1.110844e+003;1.467197e-001
1.112772e+003;1.459210e-001
1.114701e+003;1.440451e-001
1.116629e+003;1.419938e-001
1.118558e+003;1.404854e-001
1.120486e+003;1.387337e-001
1.122415e+003;1.372475e-001
1.124344e+003;1.356229e-001
1.126272e+003;1.341766e-001
1.128201e+003;1.330318e-001
1.130129e+003;1.312245e-001
1.132058e+003;1.295419e-001
1.133986e+003;1.283682e-001
1.135915e+003;1.267457e-001
1.137843e+003;1.252104e-001
1.139772e+003;1.238992e-001
1.141700e+003;1.223289e-001
1.143629e+003;1.204594e-001
1.145557e+003;1.184026e-001
1.147486e+003;1.164966e-001
1.149415e+003;1.146607e-001
1.151343e+003;1.128503e-001
1.153272e+003;1.111991e-001
1.155200e+003;1.091290e-001
1.157129e+003;1.069885e-001
1.159057e+003;1.054148e-001
1.160986e+003;1.040694e-001
1.162914e+003;1.023597e-001
1.164843e+003;1.009029e-001
1.166771e+003;9.981112e-002
1.168700e+003;9.853508e-002
1.170629e+003;9.691987e-002
1.172557e+003;9.562561e-002
1.174486e+003;9.492032e-002
1.176414e+003;9.423874e-002
1.178343e+003;9.303243e-002
1.180271e+003;9.143923e-002
1.182200e+003;8.998085e-002
1.184128e+003;8.867630e-002
1.186057e+003;8.676048e-002
1.187986e+003;8.497158e-002
1.189914e+003;8.356714e-002
1.191843e+003;8.201039e-002
1.193771e+003;8.024219e-002
1.195700e+003;7.817264e-002
1.197628e+003;7.641286e-002
1.199557e+003;7.490095e-002
1.201485e+003;7.309973e-002
1.203414e+003;7.136714e-002
1.205343e+003;7.020967e-002
1.207271e+003;6.933803e-002
1.209200e+003;6.824704e-002
1.211128e+003;6.699298e-002
1.213057e+003;6.625292e-002
1.214985e+003;6.588098e-002
1.216914e+003;6.528489e-002
1.218842e+003;6.514373e-002
1.220771e+003;6.548984e-002
1.222699e+003;6.569311e-002
1.224628e+003;6.581887e-002
1.226557e+003;6.589926e-002
1.228485e+003;6.618260e-002
1.230414e+003;6.604864e-002
1.232342e+003;6.587493e-002
1.234271e+003;6.599128e-002
1.236199e+003;6.577314e-002
1.238128e+003;6.519636e-002
1.240056e+003;6.421144e-002
1.241985e+003;6.311905e-002
1.243913e+003;6.218730e-002
1.245842e+003;6.103738e-002
1.247771e+003;5.947399e-002
1.249699e+003;5.766126e-002
1.251628e+003;5.598933e-002
1.253556e+003;5.435385e-002
1.255485e+003;5.231262e-002
1.257413e+003;4.958951e-002
1.259342e+003;4.696130e-002
1.261270e+003;4.510285e-002
1.263199e+003;4.367919e-002
1.265127e+003;4.242360e-002
1.267056e+003;4.113422e-002
1.268985e+003;3.969415e-002
1.270913e+003;3.828073e-002
1.272842e+003;3.701505e-002
1.274770e+003;3.613072e-002
1.276699e+003;3.516399e-002
1.278627e+003;3.411869e-002
1.280556e+003;3.340494e-002
1.282484e+003;3.264968e-002
1.284413e+003;3.182795e-002
1.286342e+003;3.090909e-002
1.288270e+003;3.014995e-002
1.290199e+003;2.953543e-002
1.292127e+003;2.890927e-002
1.294056e+003;2.850771e-002
1.295984e+003;2.810019e-002
1.297913e+003;2.741553e-002
1.299841e+003;2.676733e-002
1.301770e+003;2.623961e-002
1.303698e+003;2.559741e-002
1.305627e+003;2.494735e-002
1.307556e+003;2.464923e-002
1.309484e+003;2.431245e-002
1.311413e+003;2.388074e-002
1.313341e+003;2.342249e-002
1.315270e+003;2.280816e-002
1.317198e+003;2.257879e-002
1.319127e+003;2.255973e-002
1.321055e+003;2.241153e-002
1.322984e+003;2.204797e-002
1.324912e+003;2.162153e-002
1.326841e+003;2.121802e-002
1.328770e+003;2.096477e-002
1.330698e+003;2.105933e-002
1.332627e+003;2.103790e-002
1.334555e+003;2.080526e-002
1.336484e+003;2.045603e-002
1.338412e+003;1.990400e-002
1.340341e+003;2.000326e-002
1.342269e+003;2.073623e-002
1.344198e+003;2.104416e-002
1.346126e+003;2.105568e-002
1.348055e+003;2.101599e-002
1.349984e+003;2.131939e-002
1.351912e+003;2.188406e-002
1.353841e+003;2.232746e-002
1.355769e+003;2.273001e-002
1.357698e+003;2.333455e-002
1.359626e+003;2.393595e-002
1.361555e+003;2.439852e-002
1.363483e+003;2.511502e-002
1.365412e+003;2.639348e-002
1.367341e+003;2.731012e-002
1.369269e+003;2.801695e-002
1.371198e+003;2.859302e-002
1.373126e+003;2.824950e-002
1.375055e+003;2.767388e-002
1.376983e+003;2.717105e-002
1.378912e+003;2.623799e-002
1.380840e+003;2.517671e-002
1.382769e+003;2.414561e-002
1.384698e+003;2.299656e-002
1.386626e+003;2.110263e-002
1.388555e+003;2.099909e-002
1.390483e+003;2.165719e-002
1.392412e+003;2.058445e-002
1.394340e+003;1.910224e-002
1.396269e+003;1.929295e-002
1.398197e+003;1.938535e-002
1.400126e+003;1.943094e-002
1.402054e+003;1.982908e-002
1.403983e+003;1.926909e-002
1.405911e+003;1.914863e-002
1.407840e+003;1.929275e-002
1.409769e+003;1.888631e-002
1.411697e+003;1.868505e-002
1.413626e+003;1.853720e-002
1.415554e+003;1.799423e-002
1.417483e+003;1.594661e-002
1.419411e+003;1.461720e-002
1.421340e+003;1.688005e-002
1.423268e+003;1.838463e-002
1.425197e+003;1.889908e-002
1.427125e+003;1.902084e-002
1.429054e+003;1.843088e-002
1.430983e+003;1.834311e-002
1.432911e+003;1.840613e-002
1.434840e+003;1.642462e-002
1.436768e+003;1.478617e-002
1.438697e+003;1.710505e-002
1.440625e+003;1.839845e-002
1.442554e+003;1.807429e-002
1.444482e+003;1.735617e-002
1.446411e+003;1.606428e-002
1.448340e+003;1.566992e-002
1.450268e+003;1.620723e-002
1.452197e+003;1.563386e-002
1.454125e+003;1.302264e-002
1.456054e+003;7.281672e-003
1.457982e+003;7.158369e-003
1.459911e+003;1.147747e-002
1.461839e+003;1.251637e-002
1.463768e+003;1.044971e-002
1.465697e+003;9.950152e-003
1.467625e+003;1.118577e-002
1.469554e+003;1.088978e-002
1.471482e+003;8.599870e-003
1.473411e+003;8.477847e-003
1.475339e+003;1.098570e-002
1.477268e+003;1.281637e-002
1.479196e+003;1.385085e-002
1.481125e+003;1.375596e-002
1.483053e+003;1.381674e-002
1.484982e+003;1.318069e-002
1.486911e+003;1.172971e-002
1.488839e+003;1.047160e-002
1.490768e+003;1.085961e-002
1.492696e+003;1.214654e-002
1.494625e+003;1.045715e-002
1.496553e+003;8.700528e-003
1.498482e+003;1.008968e-002
1.500410e+003;1.180631e-002
1.502339e+003;1.226837e-002
1.504267e+003;7.791564e-003
1.506196e+003;2.442272e-003
1.508125e+003;5.228353e-003
1.510053e+003;9.710768e-003
1.511982e+003;1.068237e-002
1.513910e+003;1.036606e-002
1.515839e+003;8.316915e-003
1.517767e+003;6.819296e-003
1.519696e+003;4.078541e-003
1.521624e+003;2.270271e-003
1.523553e+003;4.776029e-003
1.525481e+003;5.779555e-003
1.527410e+003;6.555461e-003
1.529339e+003;7.448693e-003
1.531267e+003;6.583482e-003
1.533196e+003;4.600355e-003
1.535124e+003;5.316158e-003
1.537053e+003;3.096921e-003
1.538981e+003;-3.462813e-003
1.540910e+003;-3.823290e-003
1.542838e+003;2.421116e-004
1.544767e+003;2.616409e-003
1.546695e+003;4.397338e-003
1.548624e+003;4.809431e-003
1.550553e+003;4.545440e-003
1.552481e+003;3.325975e-003
1.554410e+003;1.604760e-003
1.556338e+003;-1.350298e-003
1.558267e+003;-7.350522e-003
1.560195e+003;-4.867873e-003
1.562124e+003;2.463198e-003
1.564052e+003;4.115803e-003
1.565981e+003;3.779364e-003
1.567910e+003;2.857983e-003
1.569838e+003;2.184712e-003
1.571767e+003;3.667075e-003
1.573695e+003;2.236665e-003
1.575624e+003;-1.586241e-003
1.577552e+003;6.024632e-004
1.579481e+003;3.989950e-003
1.581409e+003;4.248885e-003
1.583338e+003;4.075029e-003
1.585266e+003;3.890812e-003
1.587195e+003;3.605027e-003
1.589124e+003;3.070325e-003
1.591052e+003;3.148616e-003
1.592981e+003;2.935702e-003
1.594909e+003;2.545446e-003
1.596838e+003;2.581110e-003
1.598766e+003;2.810291e-003
1.600695e+003;2.777877e-003
1.602623e+003;2.657845e-003
1.604552e+003;2.702987e-003
1.606480e+003;2.790349e-003
1.608409e+003;2.689517e-003
1.610338e+003;2.697852e-003
1.612266e+003;2.969496e-003
1.614195e+003;1.192805e-003
1.616123e+003;-2.543395e-003
1.618052e+003;-9.937779e-004
1.619980e+003;1.705839e-003
1.621909e+003;7.344070e-004
1.623837e+003;2.853447e-004
1.625766e+003;1.211279e-003
1.627694e+003;1.279199e-003
1.629623e+003;1.870097e-003
1.631552e+003;1.975531e-003
1.633480e+003;-1.187523e-003
1.635409e+003;-4.355097e-003
1.637337e+003;-1.944683e-003
1.639266e+003;7.314863e-004
1.641194e+003;1.141376e-003
1.643123e+003;8.357209e-005
1.645051e+003;-3.335190e-003
1.646980e+003;-4.128629e-003
1.648909e+003;-1.643747e-003
1.650837e+003;-5.759828e-003
1.652766e+003;-1.248148e-002
1.654694e+003;-6.788286e-003
1.656623e+003;-1.088648e-004
1.658551e+003;1.201411e-003
1.660480e+003;4.149701e-004
1.662408e+003;-8.823241e-004
1.664337e+003;2.155241e-004
1.666266e+003;6.683305e-004
1.668194e+003;-1.570956e-003
1.670123e+003;-1.863365e-003
1.672051e+003;-1.067779e-004
1.673980e+003;-1.036586e-003
1.675908e+003;-9.467003e-004
1.677837e+003;1.618163e-003
1.679765e+003;2.019170e-003
1.681694e+003;5.517168e-005
1.683622e+003;-4.622428e-003
1.685551e+003;-2.491510e-003
1.687479e+003;2.835404e-003
1.689408e+003;4.225531e-003
1.691337e+003;4.917089e-003
1.693265e+003;3.387481e-003
1.695194e+003;-1.014207e-003
1.697122e+003;-5.037427e-004
1.699051e+003;-1.418865e-003
1.700979e+003;-7.627050e-004
1.702908e+003;4.471651e-003
1.704836e+003;5.605823e-003
1.706765e+003;6.742124e-003
1.708693e+003;8.268046e-003
1.710622e+003;9.617497e-003
1.712551e+003;1.000748e-002
1.714479e+003;9.127690e-003
1.716408e+003;7.657594e-003
1.718336e+003;1.085213e-002
1.720265e+003;1.826625e-002
1.722193e+003;2.360725e-002
1.724122e+003;2.774251e-002
1.726050e+003;3.236447e-002
1.727979e+003;3.606558e-002
1.729908e+003;3.864558e-002
1.731836e+003;3.799599e-002
1.733765e+003;3.592713e-002
1.735693e+003;3.960503e-002
1.737622e+003;4.189254e-002
1.739550e+003;3.967240e-002
1.741479e+003;3.808825e-002
1.743407e+003;3.568267e-002
1.745336e+003;3.231535e-002
1.747265e+003;2.823949e-002
1.749193e+003;2.306147e-002
1.751122e+003;1.847724e-002
1.753050e+003;1.695354e-002
1.754979e+003;1.449827e-002
1.756907e+003;1.148200e-002
1.758836e+003;9.878590e-003
1.760764e+003;7.745283e-003
1.762693e+003;7.055407e-003
1.764621e+003;7.627311e-003
1.766550e+003;6.346653e-003
1.768479e+003;5.057022e-003
1.770407e+003;3.612244e-003
1.772336e+003;2.080525e-003
1.774264e+003;4.121087e-003
1.776193e+003;6.111095e-003
1.778121e+003;6.112943e-003
1.780050e+003;5.445381e-003
1.781978e+003;5.203873e-003
1.783907e+003;4.918865e-003
1.785835e+003;5.057558e-003
1.787764e+003;5.323302e-003
1.789693e+003;4.075564e-003
1.791621e+003;2.268838e-003
1.793550e+003;2.887468e-003
1.795478e+003;4.484874e-003
1.797407e+003;4.699521e-003
1.799335e+003;4.182038e-003
1.801264e+003;3.854941e-003
1.803192e+003;4.437238e-003
1.805121e+003;4.883914e-003
1.807049e+003;4.801290e-003
1.808978e+003;4.383013e-003
1.810907e+003;4.357141e-003
1.812835e+003;4.668172e-003
1.814764e+003;4.868567e-003
1.816692e+003;4.588802e-003
1.818621e+003;4.579158e-003
1.820549e+003;4.511256e-003
1.822478e+003;3.965439e-003
1.824406e+003;3.234666e-003
1.826335e+003;3.581441e-003
1.828264e+003;3.159463e-003
1.830192e+003;2.580276e-003
1.832121e+003;3.479123e-003
1.834049e+003;4.033892e-003
1.835978e+003;4.006436e-003
1.837906e+003;3.965540e-003
1.839835e+003;3.929361e-003
1.841763e+003;2.497022e-003
1.843692e+003;4.347705e-004
1.845620e+003;1.460683e-003
1.847549e+003;2.921658e-003
1.849478e+003;3.141741e-003
1.851406e+003;3.047201e-003
1.853335e+003;2.845042e-003
1.855263e+003;2.742231e-003
1.857192e+003;2.626276e-003
1.859120e+003;2.637477e-003
1.861049e+003;2.795818e-003
1.862977e+003;2.825765e-003
1.864906e+003;2.595576e-003
1.866834e+003;1.695494e-003
1.868763e+003;8.255899e-004
1.870692e+003;1.506365e-003
1.872620e+003;2.288291e-003
1.874549e+003;2.267773e-003
1.876477e+003;2.265807e-003
1.878406e+003;2.146417e-003
1.880334e+003;1.943811e-003
1.882263e+003;1.843043e-003
1.884191e+003;1.868932e-003
1.886120e+003;2.086984e-003
1.888048e+003;1.812498e-003
1.889977e+003;1.669549e-003
1.891906e+003;2.101500e-003
1.893834e+003;1.950967e-003
1.895763e+003;2.066575e-003
1.897691e+003;2.252851e-003
1.899620e+003;2.133431e-003
1.901548e+003;2.046268e-003
1.903477e+003;1.949370e-003
1.905405e+003;1.699120e-003
1.907334e+003;1.627608e-003
1.909262e+003;1.378374e-003
1.911191e+003;1.268898e-003
1.913120e+003;1.279033e-003
1.915048e+003;8.950105e-004
1.916977e+003;8.552738e-005
1.918905e+003;1.989161e-004
1.920834e+003;7.470858e-004
1.922762e+003;7.854564e-004
1.924691e+003;9.567050e-004
1.926619e+003;1.075104e-003
1.928548e+003;8.125768e-004
1.930477e+003;7.344070e-004
1.932405e+003;7.002226e-004
1.934334e+003;5.315964e-004
1.936262e+003;5.189239e-004
1.938191e+003;4.626318e-004
1.940119e+003;-9.329544e-005
1.942048e+003;-4.343026e-004
1.943976e+003;-2.368438e-004
1.945905e+003;-1.935259e-004
1.947833e+003;-9.495178e-005
1.949762e+003;-3.508753e-005
1.951691e+003;-4.830674e-005
1.953619e+003;-1.557297e-006
1.955548e+003;6.096706e-006
1.957476e+003;-1.264542e-004
1.959405e+003;-4.002735e-004
1.961333e+003;-6.421266e-004
1.963262e+003;-8.622190e-004
1.965190e+003;-8.876147e-004
1.967119e+003;-1.015034e-003
1.969047e+003;-1.037512e-003
1.970976e+003;-7.618120e-004
1.972905e+003;-6.824885e-004
1.974833e+003;-1.053742e-003
1.976762e+003;-1.223142e-003
1.978690e+003;-1.013480e-003
1.980619e+003;-1.291036e-003
1.982547e+003;-1.740023e-003
1.984476e+003;-1.798399e-003
1.986404e+003;-1.712499e-003
1.988333e+003;-1.604497e-003
1.990261e+003;-2.032780e-003
1.992190e+003;-2.365117e-003
1.994119e+003;-2.043630e-003
1.996047e+003;-1.926541e-003
1.997976e+003;-2.017972e-003
1.999904e+003;-2.264398e-003
2.001833e+003;-2.380935e-003
2.003761e+003;-2.469833e-003
2.005690e+003;-2.701415e-003
2.007618e+003;-2.755349e-003
2.009547e+003;-2.738557e-003
2.011476e+003;-2.877613e-003
2.013404e+003;-2.934586e-003
2.015333e+003;-3.159967e-003
2.017261e+003;-3.118552e-003
2.019190e+003;-2.887553e-003
2.021118e+003;-3.175295e-003
2.023047e+003;-3.628254e-003
2.024975e+003;-3.737199e-003
2.026904e+003;-3.455878e-003
2.028833e+003;-3.233215e-003
2.030761e+003;-3.330060e-003
2.032690e+003;-3.665744e-003
2.034618e+003;-3.800201e-003
2.036547e+003;-3.953956e-003
2.038475e+003;-4.321177e-003
2.040404e+003;-4.450610e-003
2.042332e+003;-4.383865e-003
2.044261e+003;-4.501802e-003
2.046189e+003;-4.801650e-003
2.048118e+003;-4.873442e-003
2.050047e+003;-4.869347e-003
2.051975e+003;-4.909384e-003
2.053904e+003;-4.794375e-003
2.055832e+003;-4.811546e-003
2.057761e+003;-5.034843e-003
2.059689e+003;-5.125753e-003
2.061618e+003;-5.091369e-003
2.063546e+003;-5.281331e-003
2.065475e+003;-5.477426e-003
2.067404e+003;-5.517864e-003
2.069332e+003;-5.437343e-003
2.071260e+003;-5.424745e-003
2.073189e+003;-5.553850e-003
2.075118e+003;-5.670521e-003
2.077046e+003;-5.698613e-003
2.078975e+003;-5.935704e-003
2.080903e+003;-6.226170e-003
2.082832e+003;-6.119319e-003
2.084760e+003;-6.101448e-003
2.086689e+003;-6.366955e-003
2.088617e+003;-6.404732e-003
2.090546e+003;-6.340964e-003
2.092475e+003;-6.386448e-003
2.094403e+003;-6.481907e-003
2.096332e+003;-6.608283e-003
2.098260e+003;-6.727152e-003
2.100189e+003;-6.661603e-003
2.102117e+003;-6.362776e-003
2.104046e+003;-6.236459e-003
2.105974e+003;-6.507760e-003
2.107903e+003;-6.807336e-003
2.109832e+003;-6.906159e-003
2.111760e+003;-7.080986e-003
2.113688e+003;-7.150382e-003
2.115617e+003;-7.054091e-003
2.117546e+003;-7.077596e-003
2.119474e+003;-6.950997e-003
2.121403e+003;-6.851271e-003
2.123331e+003;-6.990680e-003
2.125260e+003;-7.173229e-003
2.127188e+003;-7.341041e-003
2.129117e+003;-7.300479e-003
2.131045e+003;-7.144613e-003
2.132974e+003;-7.077368e-003
2.134903e+003;-7.136464e-003
2.136831e+003;-7.275782e-003
2.138760e+003;-7.339315e-003
2.140688e+003;-7.412187e-003
2.142617e+003;-7.318203e-003
2.144545e+003;-7.265387e-003
2.146474e+003;-7.666445e-003
2.148402e+003;-7.911867e-003
2.150331e+003;-7.878550e-003
2.152260e+003;-7.924914e-003
2.154188e+003;-7.862736e-003
2.156117e+003;-7.674584e-003
2.158045e+003;-7.416976e-003
2.159974e+003;-7.256524e-003
2.161902e+003;-7.373456e-003
2.163831e+003;-7.526603e-003
2.165759e+003;-7.581047e-003
2.167688e+003;-7.676375e-003
2.169616e+003;-7.645903e-003
2.171545e+003;-7.667520e-003
2.173474e+003;-7.736594e-003
2.175402e+003;-7.795569e-003
2.177331e+003;-7.846726e-003
2.179259e+003;-7.918180e-003
2.181188e+003;-8.113934e-003
2.183116e+003;-8.314963e-003
2.185045e+003;-8.329785e-003
2.186973e+003;-8.380880e-003
2.188902e+003;-8.415264e-003
2.190831e+003;-8.351043e-003
2.192759e+003;-8.601634e-003
2.194688e+003;-8.776266e-003
2.196616e+003;-8.493675e-003
2.198545e+003;-8.521877e-003
2.200473e+003;-8.924342e-003
2.202402e+003;-8.775097e-003
2.204330e+003;-8.373729e-003
2.206259e+003;-8.448378e-003
2.208188e+003;-8.467063e-003
2.210116e+003;-8.571032e-003
2.212044e+003;-8.795748e-003
2.213973e+003;-8.863670e-003
2.215902e+003;-8.702615e-003
2.217830e+003;-8.587763e-003
2.219759e+003;-8.647662e-003
2.221687e+003;-8.618687e-003
2.223616e+003;-8.768896e-003
2.225544e+003;-9.191569e-003
2.227473e+003;-9.096541e-003
2.229401e+003;-8.896491e-003
2.231330e+003;-9.128728e-003
2.233259e+003;-9.368558e-003
2.235187e+003;-9.383800e-003
2.237116e+003;-9.338109e-003
2.239044e+003;-9.251935e-003
2.240973e+003;-9.368656e-003
2.242901e+003;-9.537081e-003
2.244830e+003;-9.559965e-003
2.246758e+003;-9.484826e-003
2.248687e+003;-9.630132e-003
2.250615e+003;-9.987504e-003
2.252544e+003;-9.991001e-003
2.254473e+003;-9.844552e-003
2.256401e+003;-9.809957e-003
2.258330e+003;-9.940193e-003
2.260258e+003;-9.874060e-003
2.262187e+003;-9.559058e-003
2.264115e+003;-9.549496e-003
2.266044e+003;-9.540777e-003
2.267972e+003;-9.632499e-003
2.269901e+003;-9.786859e-003
2.271830e+003;-1.005780e-002
2.273758e+003;-1.010620e-002
2.275687e+003;-9.996182e-003
2.277615e+003;-9.714060e-003
2.279544e+003;-9.605827e-003
2.281472e+003;-9.751870e-003
2.283401e+003;-9.833927e-003
2.285329e+003;-9.782712e-003
2.287258e+003;-9.555005e-003
2.289187e+003;-9.420115e-003
2.291115e+003;-9.689921e-003
2.293043e+003;-9.885007e-003
2.294972e+003;-9.852812e-003
2.296901e+003;-9.959591e-003
2.298829e+003;-1.004925e-002
2.300758e+003;-1.009943e-002
2.302686e+003;-1.035322e-002
2.304615e+003;-1.050390e-002
2.306543e+003;-1.060832e-002
2.308472e+003;-1.075713e-002
2.310400e+003;-1.080946e-002
2.312329e+003;-1.105195e-002
2.314258e+003;-1.132336e-002
2.316186e+003;-1.174471e-002
2.318115e+003;-1.229246e-002
2.320043e+003;-1.263300e-002
2.321972e+003;-1.293456e-002
2.323900e+003;-1.348874e-002
2.325829e+003;-1.400753e-002
2.327757e+003;-1.454788e-002
2.329686e+003;-1.511284e-002
2.331615e+003;-1.543720e-002
2.333543e+003;-1.562784e-002
2.335472e+003;-1.561646e-002
2.337400e+003;-1.573679e-002
2.339329e+003;-1.587187e-002
2.341257e+003;-1.548382e-002
2.343186e+003;-1.487472e-002
2.345114e+003;-1.398289e-002
2.347043e+003;-1.273269e-002
2.348971e+003;-1.222835e-002
2.350900e+003;-1.301470e-002
2.352829e+003;-1.455474e-002
2.354757e+003;-1.605054e-002
2.356686e+003;-1.720388e-002
2.358614e+003;-1.778664e-002
2.360543e+003;-1.802314e-002
2.362471e+003;-1.808093e-002
2.364400e+003;-1.776991e-002
2.366328e+003;-1.730826e-002
2.368257e+003;-1.658102e-002
2.370186e+003;-1.562519e-002
2.372114e+003;-1.450629e-002
2.374042e+003;-1.346326e-002
2.375971e+003;-1.271394e-002
2.377900e+003;-1.242018e-002
2.379828e+003;-1.233613e-002
2.381757e+003;-1.204750e-002
2.383685e+003;-1.136651e-002
2.385614e+003;-1.101561e-002
2.387542e+003;-1.121620e-002
2.389471e+003;-1.134327e-002
2.391399e+003;-1.127522e-002
2.393328e+003;-1.122947e-002
2.395257e+003;-1.121091e-002
2.397185e+003;-1.114590e-002
2.399114e+003;-1.114564e-002
2.401042e+003;-1.130660e-002
2.402971e+003;-1.116802e-002
2.404899e+003;-1.119450e-002
2.406828e+003;-1.141367e-002
2.408756e+003;-1.135434e-002
2.410685e+003;-1.115443e-002
2.412614e+003;-1.109985e-002
2.414542e+003;-1.095442e-002
2.416471e+003;-1.105124e-002
2.418399e+003;-1.132716e-002
2.420328e+003;-1.146359e-002
2.422256e+003;-1.135008e-002
2.424185e+003;-1.118598e-002
2.426113e+003;-1.112568e-002
2.428042e+003;-1.105405e-002
2.429970e+003;-1.121972e-002
2.431899e+003;-1.125020e-002
2.433828e+003;-1.113989e-002
2.435756e+003;-1.102746e-002
2.437685e+003;-1.095522e-002
2.439613e+003;-1.104846e-002
2.441542e+003;-1.104933e-002
2.443470e+003;-1.107798e-002
2.445399e+003;-1.079924e-002
2.447327e+003;-1.082445e-002
2.449256e+003;-1.106293e-002
2.451185e+003;-1.093115e-002
2.453113e+003;-1.101322e-002
2.455042e+003;-1.087344e-002
2.456970e+003;-1.063202e-002
2.458899e+003;-1.070127e-002
2.460827e+003;-1.080306e-002
2.462756e+003;-1.114132e-002
2.464684e+003;-1.130957e-002
2.466613e+003;-1.113770e-002
2.468542e+003;-1.073718e-002
2.470470e+003;-1.043914e-002
2.472398e+003;-1.075092e-002
2.474327e+003;-1.129272e-002
2.476256e+003;-1.124978e-002
2.478184e+003;-1.111548e-002
2.480113e+003;-1.112400e-002
2.482041e+003;-1.113779e-002
2.483970e+003;-1.123596e-002
2.485898e+003;-1.125633e-002
2.487827e+003;-1.108247e-002
2.489755e+003;-1.126812e-002
2.491684e+003;-1.159018e-002
2.493613e+003;-1.169250e-002
2.495541e+003;-1.166237e-002
2.497470e+003;-1.131018e-002
2.499398e+003;-1.116663e-002
2.501327e+003;-1.131884e-002
2.503255e+003;-1.116108e-002
2.505184e+003;-1.099829e-002
2.507112e+003;-1.112668e-002
2.509041e+003;-1.128833e-002
2.510969e+003;-1.122534e-002
2.512898e+003;-1.101761e-002
2.514827e+003;-1.107656e-002
2.516755e+003;-1.140644e-002
2.518684e+003;-1.147276e-002
2.520612e+003;-1.146640e-002
2.522541e+003;-1.134721e-002
2.524469e+003;-1.100572e-002
2.526398e+003;-1.066587e-002
2.528326e+003;-1.075399e-002
2.530255e+003;-1.097005e-002
2.532184e+003;-1.130831e-002
2.534112e+003;-1.165685e-002
2.536041e+003;-1.165882e-002
2.537969e+003;-1.130321e-002
2.539898e+003;-1.112678e-002
2.541826e+003;-1.140337e-002
2.543755e+003;-1.147147e-002
2.545683e+003;-1.146905e-002
2.547612e+003;-1.145320e-002
2.549541e+003;-1.124277e-002
2.551469e+003;-1.117542e-002
2.553397e+003;-1.130315e-002
2.555326e+003;-1.136454e-002
2.557255e+003;-1.119108e-002
2.559183e+003;-1.095012e-002
2.561112e+003;-1.081421e-002
2.563040e+003;-1.101677e-002
2.564969e+003;-1.116776e-002
2.566897e+003;-1.090450e-002
2.568826e+003;-1.101667e-002
2.570754e+003;-1.101021e-002
2.572683e+003;-1.090692e-002
2.574612e+003;-1.104377e-002
2.576540e+003;-1.078295e-002
2.578469e+003;-1.064136e-002
2.580397e+003;-1.083153e-002
2.582326e+003;-1.094195e-002
2.584254e+003;-1.090799e-002
2.586183e+003;-1.048291e-002
2.588111e+003;-1.034711e-002
2.590040e+003;-1.049882e-002
2.591969e+003;-1.066112e-002
2.593897e+003;-1.066083e-002
2.595826e+003;-1.076708e-002
2.597754e+003;-1.072458e-002
2.599683e+003;-1.047479e-002
2.601611e+003;-1.046340e-002
2.603540e+003;-1.059367e-002
2.605468e+003;-1.067550e-002
2.607397e+003;-1.068048e-002
2.609325e+003;-1.047214e-002
2.611254e+003;-1.043458e-002
2.613183e+003;-1.075874e-002
2.615111e+003;-1.084187e-002
2.617040e+003;-1.074239e-002
2.618968e+003;-1.073599e-002
2.620897e+003;-1.071077e-002
2.622825e+003;-1.061465e-002
2.624754e+003;-1.038900e-002
2.626682e+003;-1.037648e-002
2.628611e+003;-1.053860e-002
2.630540e+003;-1.036907e-002
2.632468e+003;-1.042025e-002
2.634396e+003;-1.066361e-002
2.636325e+003;-1.057766e-002
2.638254e+003;-1.045622e-002
2.640182e+003;-1.041828e-002
2.642111e+003;-1.032737e-002
2.644039e+003;-1.026029e-002
2.645968e+003;-1.026434e-002
2.647896e+003;-1.036293e-002
2.649825e+003;-1.043465e-002
2.651753e+003;-1.041291e-002
2.653682e+003;-1.040256e-002
2.655611e+003;-1.031378e-002
2.657539e+003;-1.036894e-002
2.659468e+003;-1.044309e-002
2.661396e+003;-1.041129e-002
2.663325e+003;-1.041883e-002
2.665253e+003;-1.028395e-002
2.667182e+003;-1.016618e-002
2.669110e+003;-1.021929e-002
2.671039e+003;-1.031469e-002
2.672968e+003;-1.041569e-002
2.674896e+003;-1.053339e-002
2.676825e+003;-1.037868e-002
2.678753e+003;-9.948063e-003
2.680682e+003;-9.883388e-003
2.682610e+003;-1.009758e-002
2.684539e+003;-1.013633e-002
2.686467e+003;-9.916941e-003
2.688396e+003;-9.861103e-003
2.690324e+003;-9.830332e-003
2.692253e+003;-9.758965e-003
2.694182e+003;-9.798910e-003
2.696110e+003;-9.629970e-003
2.698039e+003;-9.717915e-003
2.699967e+003;-1.005540e-002
2.701896e+003;-1.007988e-002
2.703824e+003;-9.865768e-003
2.705753e+003;-9.735185e-003
2.707681e+003;-9.764376e-003
2.709610e+003;-9.716911e-003
2.711539e+003;-9.682921e-003
2.713467e+003;-9.539479e-003
2.715396e+003;-9.684282e-003
2.717324e+003;-9.651230e-003
2.719253e+003;-9.502688e-003
2.721181e+003;-9.440638e-003
2.723110e+003;-9.627022e-003
2.725038e+003;-9.916520e-003
2.726967e+003;-9.827773e-003
2.728896e+003;-9.727992e-003
2.730824e+003;-9.591793e-003
2.732752e+003;-9.408086e-003
2.734681e+003;-9.496658e-003
2.736610e+003;-9.585765e-003
2.738538e+003;-9.560937e-003
2.740467e+003;-9.555330e-003
2.742395e+003;-9.508329e-003
2.744324e+003;-9.570207e-003
2.746252e+003;-9.734116e-003
2.748181e+003;-9.563433e-003
2.750109e+003;-9.225176e-003
2.752038e+003;-8.924082e-003
2.753967e+003;-8.976924e-003
2.755895e+003;-9.201528e-003
2.757824e+003;-9.272532e-003
2.759752e+003;-9.371379e-003
2.761681e+003;-9.556789e-003
2.763609e+003;-9.627281e-003
2.765538e+003;-9.557956e-003
2.767466e+003;-9.365608e-003
2.769395e+003;-9.351826e-003
2.771323e+003;-9.334963e-003
2.773252e+003;-9.348778e-003
2.775181e+003;-9.310219e-003
2.777109e+003;-9.200652e-003
2.779038e+003;-9.210481e-003
2.780966e+003;-9.169541e-003
2.782895e+003;-8.968161e-003
2.784823e+003;-9.141543e-003
2.786752e+003;-9.218590e-003
2.788680e+003;-8.952387e-003
2.790609e+003;-8.974847e-003
2.792538e+003;-9.172721e-003
2.794466e+003;-9.116625e-003
2.796395e+003;-8.950341e-003
2.798323e+003;-9.014442e-003
2.800252e+003;-9.197829e-003
2.802180e+003;-9.199386e-003
2.804109e+003;-9.020641e-003
2.806037e+003;-8.964396e-003
2.807966e+003;-8.716321e-003
2.809895e+003;-8.421406e-003
2.811823e+003;-8.557518e-003
2.813751e+003;-8.831951e-003
2.815680e+003;-8.779514e-003
2.817609e+003;-8.636001e-003
2.819537e+003;-8.595104e-003
2.821466e+003;-8.732526e-003
2.823394e+003;-8.627815e-003
2.825323e+003;-8.448898e-003
2.827251e+003;-8.571747e-003
2.829180e+003;-8.400347e-003
2.831108e+003;-8.130454e-003
2.833037e+003;-8.312590e-003
2.834966e+003;-8.344998e-003
2.836894e+003;-8.405254e-003
2.838823e+003;-8.741943e-003
2.840751e+003;-9.534163e-003
2.842680e+003;-1.038373e-002
2.844608e+003;-1.146927e-002
2.846537e+003;-1.331615e-002
2.848465e+003;-1.506298e-002
2.850394e+003;-1.590976e-002
2.852323e+003;-1.579986e-002
2.854251e+003;-1.499746e-002
2.856180e+003;-1.365188e-002
2.858108e+003;-1.208530e-002
2.860037e+003;-1.073405e-002
2.861965e+003;-9.357599e-003
2.863894e+003;-8.250142e-003
2.865822e+003;-7.346678e-003
2.867751e+003;-6.969747e-003
2.869679e+003;-7.101522e-003
2.871608e+003;-7.037139e-003
2.873536e+003;-7.056960e-003
2.875465e+003;-6.775988e-003
2.877394e+003;-6.264449e-003
2.879322e+003;-6.276958e-003
2.881251e+003;-6.460330e-003
2.883179e+003;-6.520522e-003
2.885108e+003;-7.114756e-003
2.887036e+003;-7.665046e-003
2.888965e+003;-7.857399e-003
2.890893e+003;-7.880339e-003
2.892822e+003;-8.121869e-003
2.894750e+003;-8.831237e-003
2.896679e+003;-9.155948e-003
2.898608e+003;-9.324812e-003
2.900536e+003;-9.693323e-003
2.902465e+003;-1.011089e-002
2.904393e+003;-1.054461e-002
2.906322e+003;-1.103437e-002
2.908250e+003;-1.143055e-002
2.910179e+003;-1.188952e-002
2.912107e+003;-1.290616e-002
2.914036e+003;-1.450058e-002
2.915965e+003;-1.598996e-002
2.917893e+003;-1.704602e-002
2.919822e+003;-1.785836e-002
2.921750e+003;-1.854884e-002
2.923679e+003;-1.883340e-002
2.925607e+003;-1.831320e-002
2.927536e+003;-1.730225e-002
2.929464e+003;-1.607797e-002
2.931393e+003;-1.493228e-002
2.933322e+003;-1.372739e-002
2.935250e+003;-1.268166e-002
2.937178e+003;-1.159743e-002
2.939107e+003;-1.016129e-002
2.941036e+003;-9.074574e-003
2.942964e+003;-8.335246e-003
2.944893e+003;-8.086550e-003
2.946821e+003;-8.142551e-003
2.948750e+003;-8.482693e-003
2.950678e+003;-8.957807e-003
2.952607e+003;-8.943493e-003
2.954535e+003;-8.929860e-003
2.956464e+003;-9.102771e-003
2.958393e+003;-8.968388e-003
2.960321e+003;-9.120259e-003
2.962250e+003;-9.211162e-003
2.964178e+003;-8.666240e-003
2.966107e+003;-7.756221e-003
2.968035e+003;-6.949758e-003
2.969964e+003;-6.864937e-003
2.971892e+003;-6.757785e-003
2.973821e+003;-6.434017e-003
2.975750e+003;-6.331657e-003
2.977678e+003;-6.619737e-003
2.979607e+003;-6.643298e-003
2.981535e+003;-6.511383e-003
2.983464e+003;-6.709893e-003
2.985392e+003;-6.774520e-003
2.987321e+003;-6.603486e-003
2.989249e+003;-6.802149e-003
2.991178e+003;-7.332701e-003
2.993106e+003;-7.945053e-003
2.995035e+003;-8.468493e-003
2.996964e+003;-8.920285e-003
2.998892e+003;-9.110818e-003
3.000821e+003;-9.064028e-003
3.002749e+003;-8.866202e-003
3.004678e+003;-9.260401e-003
3.006606e+003;-9.761395e-003
3.008535e+003;-9.734667e-003
3.010463e+003;-9.878821e-003
3.012392e+003;-9.887112e-003
3.014321e+003;-9.637618e-003
3.016249e+003;-9.819091e-003
3.018177e+003;-9.932972e-003
3.020106e+003;-9.682889e-003
3.022035e+003;-9.678515e-003
3.023963e+003;-1.001292e-002
3.025892e+003;-1.014038e-002
3.027820e+003;-9.703076e-003
3.029749e+003;-9.523467e-003
3.031677e+003;-9.559317e-003
3.033606e+003;-9.979020e-003
3.035534e+003;-1.050086e-002
3.037463e+003;-1.038370e-002
3.039392e+003;-1.027252e-002
3.041320e+003;-1.013436e-002
3.043249e+003;-1.018094e-002
3.045177e+003;-1.021896e-002
3.047106e+003;-1.007942e-002
3.049034e+003;-1.009075e-002
3.050963e+003;-9.912439e-003
3.052891e+003;-1.023952e-002
3.054820e+003;-1.066409e-002
3.056749e+003;-1.065300e-002
3.058677e+003;-1.076724e-002
3.060606e+003;-1.114506e-002
3.062534e+003;-1.106894e-002
3.064463e+003;-1.063347e-002
3.066391e+003;-1.065462e-002
3.068320e+003;-1.080952e-002
3.070248e+003;-1.056680e-002
3.072177e+003;-1.052537e-002
3.074105e+003;-1.087832e-002
3.076034e+003;-1.102862e-002
3.077963e+003;-1.098889e-002
3.079891e+003;-1.107701e-002
3.081820e+003;-1.119728e-002
3.083748e+003;-1.093028e-002
3.085677e+003;-1.089131e-002
3.087605e+003;-1.132955e-002
3.089534e+003;-1.164121e-002
3.091462e+003;-1.135334e-002
3.093391e+003;-1.103363e-002
3.095320e+003;-1.121368e-002
3.097248e+003;-1.145572e-002
3.099177e+003;-1.130085e-002
3.101105e+003;-1.122098e-002
3.103034e+003;-1.145804e-002
3.104962e+003;-1.162769e-002
3.106891e+003;-1.148709e-002
3.108819e+003;-1.145608e-002
3.110748e+003;-1.137048e-002
3.112677e+003;-1.132113e-002
3.114605e+003;-1.144478e-002
3.116533e+003;-1.160798e-002
3.118462e+003;-1.169372e-002
3.120391e+003;-1.130960e-002
3.122319e+003;-1.116160e-002
3.124248e+003;-1.161721e-002
3.126176e+003;-1.205314e-002
3.128105e+003;-1.214166e-002
3.130033e+003;-1.204850e-002
3.131962e+003;-1.199851e-002
3.133890e+003;-1.180340e-002
3.135819e+003;-1.166702e-002
3.137748e+003;-1.191644e-002
3.139676e+003;-1.221798e-002
3.141605e+003;-1.237503e-002
3.143533e+003;-1.216099e-002
3.145462e+003;-1.191667e-002
3.147390e+003;-1.183948e-002
3.149319e+003;-1.211466e-002
3.151247e+003;-1.273601e-002
3.153176e+003;-1.276654e-002
3.155104e+003;-1.218348e-002
3.157033e+003;-1.205520e-002
3.158962e+003;-1.189239e-002
3.160890e+003;-1.176803e-002
3.162819e+003;-1.209845e-002
3.164747e+003;-1.243799e-002
3.166676e+003;-1.202423e-002
3.168604e+003;-1.156382e-002
3.170533e+003;-1.198217e-002
3.172461e+003;-1.264446e-002
3.174390e+003;-1.288657e-002
3.176319e+003;-1.307003e-002
3.178247e+003;-1.329102e-002
3.180176e+003;-1.302447e-002
3.182104e+003;-1.282101e-002
3.184033e+003;-1.297054e-002
3.185961e+003;-1.292372e-002
3.187890e+003;-1.298074e-002
3.189818e+003;-1.305949e-002
3.191747e+003;-1.282169e-002
3.193676e+003;-1.256325e-002
3.195604e+003;-1.285270e-002
3.197532e+003;-1.309489e-002
3.199461e+003;-1.307463e-002
3.201390e+003;-1.288380e-002
3.203318e+003;-1.272320e-002
3.205247e+003;-1.282555e-002
3.207175e+003;-1.278759e-002
3.209104e+003;-1.289870e-002
3.211032e+003;-1.327942e-002
3.212961e+003;-1.348379e-002
3.214889e+003;-1.342873e-002
3.216818e+003;-1.302975e-002
3.218747e+003;-1.251213e-002
3.220675e+003;-1.251957e-002
3.222604e+003;-1.319685e-002
3.224532e+003;-1.379644e-002
3.226461e+003;-1.396929e-002
3.228389e+003;-1.398966e-002
3.230318e+003;-1.362809e-002
3.232246e+003;-1.333922e-002
3.234175e+003;-1.331596e-002
3.236104e+003;-1.329311e-002
3.238032e+003;-1.334057e-002
3.239961e+003;-1.338501e-002
3.241889e+003;-1.330297e-002
3.243818e+003;-1.333774e-002
3.245746e+003;-1.391901e-002
3.247675e+003;-1.434943e-002
3.249603e+003;-1.411451e-002
3.251532e+003;-1.369140e-002
3.253460e+003;-1.381406e-002
3.255389e+003;-1.394076e-002
3.257318e+003;-1.365207e-002
3.259246e+003;-1.365769e-002
3.261175e+003;-1.433946e-002
3.263103e+003;-1.472014e-002
3.265032e+003;-1.450407e-002
3.266960e+003;-1.463214e-002
3.268889e+003;-1.463426e-002
3.270817e+003;-1.440882e-002
3.272746e+003;-1.425610e-002
3.274675e+003;-1.403586e-002
3.276603e+003;-1.411249e-002
3.278531e+003;-1.460392e-002
3.280460e+003;-1.498734e-002
3.282389e+003;-1.491173e-002
3.284317e+003;-1.491483e-002
3.286246e+003;-1.494153e-002
3.288174e+003;-1.453663e-002
3.290103e+003;-1.465252e-002
3.292031e+003;-1.517312e-002
3.293960e+003;-1.528983e-002
3.295888e+003;-1.510848e-002
3.297817e+003;-1.506832e-002
3.299746e+003;-1.516541e-002
3.301674e+003;-1.528391e-002
3.303603e+003;-1.519757e-002
3.305531e+003;-1.488256e-002
3.307460e+003;-1.494813e-002
3.309388e+003;-1.527911e-002
3.311317e+003;-1.528020e-002
3.313245e+003;-1.501590e-002
3.315174e+003;-1.527339e-002
3.317103e+003;-1.566517e-002
3.319031e+003;-1.544206e-002
3.320960e+003;-1.533308e-002
3.322888e+003;-1.501125e-002
3.324817e+003;-1.467020e-002
3.326745e+003;-1.507651e-002
3.328674e+003;-1.542502e-002
3.330602e+003;-1.536611e-002
3.332531e+003;-1.541073e-002
3.334459e+003;-1.572046e-002
3.336388e+003;-1.584619e-002
3.338317e+003;-1.580418e-002
3.340245e+003;-1.609907e-002
3.342174e+003;-1.598807e-002
3.344102e+003;-1.564031e-002
3.346031e+003;-1.544331e-002
3.347959e+003;-1.547174e-002
3.349888e+003;-1.570410e-002
3.351816e+003;-1.590452e-002
3.353745e+003;-1.577679e-002
3.355674e+003;-1.550237e-002
3.357602e+003;-1.540778e-002
3.359531e+003;-1.497480e-002
3.361459e+003;-1.465466e-002
3.363388e+003;-1.501055e-002
3.365316e+003;-1.572017e-002
3.367245e+003;-1.606759e-002
3.369173e+003;-1.567767e-002
3.371102e+003;-1.534312e-002
3.373031e+003;-1.539039e-002
3.374959e+003;-1.532981e-002
3.376887e+003;-1.508378e-002
3.378816e+003;-1.487565e-002
3.380745e+003;-1.437292e-002
3.382673e+003;-1.463003e-002
3.384602e+003;-1.510644e-002
3.386530e+003;-1.558757e-002
3.388459e+003;-1.587516e-002
3.390387e+003;-1.578811e-002
3.392316e+003;-1.534801e-002
3.394244e+003;-1.480552e-002
3.396173e+003;-1.530019e-002
3.398102e+003;-1.569230e-002
3.400030e+003;-1.538789e-002
3.401959e+003;-1.518582e-002
3.403887e+003;-1.536525e-002
3.405816e+003;-1.513517e-002
3.407744e+003;-1.510308e-002
3.409673e+003;-1.504246e-002
3.411601e+003;-1.498494e-002
3.413530e+003;-1.496365e-002
3.415458e+003;-1.495280e-002
3.417387e+003;-1.548034e-002
3.419316e+003;-1.560141e-002
3.421244e+003;-1.486594e-002
3.423173e+003;-1.450715e-002
3.425101e+003;-1.484708e-002
3.427030e+003;-1.485784e-002
3.428958e+003;-1.454596e-002
3.430887e+003;-1.449872e-002
3.432815e+003;-1.475021e-002
3.434744e+003;-1.500424e-002
3.436673e+003;-1.473074e-002
3.438601e+003;-1.468827e-002
3.440530e+003;-1.492229e-002
3.442458e+003;-1.469217e-002
3.444387e+003;-1.444559e-002
3.446315e+003;-1.429720e-002
3.448244e+003;-1.395270e-002
3.450172e+003;-1.376502e-002
3.452101e+003;-1.369002e-002
3.454030e+003;-1.331271e-002
3.455958e+003;-1.351003e-002
3.457886e+003;-1.388640e-002
3.459815e+003;-1.363281e-002
3.461744e+003;-1.369529e-002
3.463672e+003;-1.374017e-002
3.465601e+003;-1.409681e-002
3.467529e+003;-1.417619e-002
3.469458e+003;-1.401555e-002
3.471386e+003;-1.388364e-002
3.473315e+003;-1.350904e-002
3.475243e+003;-1.378357e-002
3.477172e+003;-1.422394e-002
3.479101e+003;-1.397265e-002
3.481029e+003;-1.386047e-002
3.482958e+003;-1.345106e-002
3.484886e+003;-1.309051e-002
3.486815e+003;-1.309219e-002
3.488743e+003;-1.321389e-002
3.490672e+003;-1.361238e-002
3.492600e+003;-1.411018e-002
3.494529e+003;-1.388409e-002
3.496458e+003;-1.337215e-002
3.498386e+003;-1.332958e-002
3.500315e+003;-1.355252e-002
3.502243e+003;-1.338674e-002
3.504172e+003;-1.318882e-002
3.506100e+003;-1.355680e-002
3.508029e+003;-1.393717e-002
3.509957e+003;-1.387539e-002
3.511886e+003;-1.355705e-002
3.513814e+003;-1.300888e-002
3.515743e+003;-1.281998e-002
3.517672e+003;-1.331833e-002
3.519600e+003;-1.368087e-002
3.521529e+003;-1.379715e-002
3.523457e+003;-1.390787e-002
3.525386e+003;-1.395851e-002
3.527314e+003;-1.386962e-002
3.529243e+003;-1.369709e-002
3.531171e+003;-1.333691e-002
3.533100e+003;-1.291291e-002
3.535029e+003;-1.276664e-002
3.536957e+003;-1.260368e-002
3.538885e+003;-1.274540e-002
3.540814e+003;-1.292195e-002
3.542743e+003;-1.336104e-002
3.544671e+003;-1.388175e-002
3.546600e+003;-1.373115e-002
3.548528e+003;-1.294009e-002
3.550457e+003;-1.299920e-002
3.552385e+003;-1.330365e-002
3.554314e+003;-1.301065e-002
3.556242e+003;-1.267477e-002
3.558171e+003;-1.260323e-002
3.560100e+003;-1.286119e-002
3.562028e+003;-1.343194e-002
3.563957e+003;-1.413494e-002
3.565885e+003;-1.518387e-002
3.567814e+003;-1.441940e-002
3.569742e+003;-1.274573e-002
3.571671e+003;-1.259669e-002
3.573599e+003;-1.285582e-002
3.575528e+003;-1.301727e-002
3.577457e+003;-1.314928e-002
3.579385e+003;-1.287737e-002
3.581314e+003;-1.283011e-002
3.583242e+003;-1.301354e-002
3.585171e+003;-1.402335e-002
3.587099e+003;-1.486265e-002
3.589028e+003;-1.418792e-002
3.590956e+003;-1.326586e-002
3.592885e+003;-1.392077e-002
3.594813e+003;-1.449036e-002
3.596742e+003;-1.385970e-002
3.598671e+003;-1.341280e-002
3.600599e+003;-1.352323e-002
3.602528e+003;-1.333119e-002
3.604456e+003;-1.299447e-002
3.606385e+003;-1.401587e-002
3.608313e+003;-1.551925e-002
3.610242e+003;-1.521996e-002
3.612170e+003;-1.493603e-002
3.614099e+003;-1.440344e-002
3.616028e+003;-1.422900e-002
3.617956e+003;-1.546713e-002
3.619885e+003;-1.543426e-002
3.621813e+003;-1.430650e-002
3.623742e+003;-1.403271e-002
3.625670e+003;-1.473115e-002
3.627599e+003;-1.794545e-002
3.629527e+003;-1.818011e-002
3.631456e+003;-1.510413e-002
3.633385e+003;-1.441113e-002
3.635313e+003;-1.409475e-002
3.637241e+003;-1.385084e-002
3.639170e+003;-1.420364e-002
3.641099e+003;-1.419087e-002
3.643027e+003;-1.396438e-002
3.644956e+003;-1.484929e-002
3.646884e+003;-1.754308e-002
3.648813e+003;-1.954679e-002
3.650741e+003;-1.755845e-002
3.652670e+003;-1.459940e-002
3.654598e+003;-1.551062e-002
3.656527e+003;-1.622498e-002
3.658456e+003;-1.452266e-002
3.660384e+003;-1.373783e-002
3.662313e+003;-1.359941e-002
3.664241e+003;-1.374444e-002
3.666170e+003;-1.459479e-002
3.668098e+003;-1.736354e-002
3.670027e+003;-1.966749e-002
3.671955e+003;-1.799075e-002
3.673884e+003;-1.953440e-002
3.675813e+003;-2.102426e-002
3.677741e+003;-1.745298e-002
3.679669e+003;-1.529655e-002
3.681598e+003;-1.433891e-002
3.683527e+003;-1.429133e-002
3.685455e+003;-1.568716e-002
3.687384e+003;-1.944003e-002
3.689312e+003;-1.992667e-002
3.691241e+003;-1.736182e-002
3.693169e+003;-1.520518e-002
3.695098e+003;-1.465796e-002
3.697026e+003;-1.447004e-002
3.698955e+003;-1.453634e-002
3.700884e+003;-1.551314e-002
3.702812e+003;-1.523797e-002
3.704741e+003;-1.462375e-002
3.706669e+003;-1.532127e-002
3.708598e+003;-1.690642e-002
3.710526e+003;-1.851848e-002
3.712455e+003;-1.835795e-002
3.714383e+003;-1.590564e-002
3.716312e+003;-1.512941e-002
3.718240e+003;-1.535185e-002
3.720169e+003;-1.578197e-002
3.722098e+003;-1.637621e-002
3.724026e+003;-1.647521e-002
3.725955e+003;-1.632730e-002
3.727883e+003;-1.544907e-002
3.729812e+003;-1.618083e-002
3.731740e+003;-1.820203e-002
3.733669e+003;-1.871390e-002
3.735597e+003;-1.921441e-002
3.737526e+003;-1.764684e-002
3.739455e+003;-1.592832e-002
3.741383e+003;-1.691133e-002
3.743312e+003;-2.296782e-002
3.745240e+003;-2.274985e-002
3.747169e+003;-1.987881e-002
3.749097e+003;-2.214286e-002
3.751026e+003;-2.265966e-002
3.752954e+003;-1.983231e-002
3.754883e+003;-1.611628e-002
3.756812e+003;-1.584862e-002
3.758740e+003;-1.669572e-002
3.760668e+003;-1.626621e-002
3.762597e+003;-1.520653e-002
3.764526e+003;-1.595936e-002
3.766454e+003;-1.624617e-002
3.768383e+003;-1.658746e-002
3.770311e+003;-1.606280e-002
3.772240e+003;-1.490523e-002
3.774168e+003;-1.467235e-002
3.776097e+003;-1.507546e-002
3.778025e+003;-1.589500e-002
3.779954e+003;-1.595703e-002
3.781883e+003;-1.512788e-002
3.783811e+003;-1.513357e-002
3.785740e+003;-1.506042e-002
3.787668e+003;-1.479761e-002
3.789597e+003;-1.444158e-002
3.791525e+003;-1.424234e-002
3.793454e+003;-1.470431e-002
3.795382e+003;-1.629510e-002
3.797311e+003;-1.693010e-002
3.799240e+003;-1.873608e-002
3.801168e+003;-2.028696e-002
3.803097e+003;-1.737500e-002
3.805025e+003;-1.710629e-002
3.806954e+003;-1.790624e-002
3.808882e+003;-1.547749e-002
3.810811e+003;-1.447068e-002
3.812739e+003;-1.535025e-002
3.814668e+003;-1.923565e-002
3.816596e+003;-1.960231e-002
3.818525e+003;-1.778286e-002
3.820454e+003;-1.914140e-002
3.822382e+003;-1.740829e-002
3.824311e+003;-1.514192e-002
3.826239e+003;-1.532978e-002
3.828168e+003;-1.536755e-002
3.830096e+003;-1.609837e-002
3.832025e+003;-1.673707e-002
3.833953e+003;-1.711744e-002
3.835882e+003;-1.910250e-002
3.837811e+003;-2.014201e-002
3.839739e+003;-1.822993e-002
3.841667e+003;-1.645024e-002
3.843596e+003;-1.505568e-002
3.845525e+003;-1.394737e-002
3.847453e+003;-1.432272e-002
3.849382e+003;-1.674934e-002
3.851310e+003;-2.186234e-002
3.853239e+003;-2.577184e-002
3.855167e+003;-2.107363e-002
3.857096e+003;-1.590950e-002
3.859024e+003;-1.515136e-002
3.860953e+003;-1.585232e-002
3.862882e+003;-1.657259e-002
3.864810e+003;-1.690423e-002
3.866739e+003;-1.646778e-002
3.868667e+003;-1.826415e-002
3.870596e+003;-1.798385e-002
3.872524e+003;-1.625166e-002
3.874453e+003;-1.612883e-002
3.876381e+003;-1.535697e-002
3.878310e+003;-1.583993e-002
3.880239e+003;-1.650089e-002
3.882167e+003;-1.617020e-002
3.884096e+003;-1.746050e-002
3.886024e+003;-1.728700e-002
3.887953e+003;-1.488820e-002
3.889881e+003;-1.514237e-002
3.891810e+003;-1.549306e-002
3.893738e+003;-1.474755e-002
3.895667e+003;-1.465783e-002
3.897595e+003;-1.558562e-002
3.899524e+003;-1.656619e-002
3.901453e+003;-1.690158e-002
3.903381e+003;-1.715945e-002
3.905310e+003;-1.630129e-002
3.907238e+003;-1.471418e-002
3.909167e+003;-1.413995e-002
3.911095e+003;-1.381567e-002
3.913024e+003;-1.391480e-002
3.914952e+003;-1.448103e-002
3.916881e+003;-1.479169e-002
3.918810e+003;-1.461782e-002
3.920738e+003;-1.449468e-002
3.922667e+003;-1.458178e-002
3.924595e+003;-1.511738e-002
3.926524e+003;-1.482829e-002
3.928452e+003;-1.455656e-002
3.930381e+003;-1.485186e-002
3.932309e+003;-1.492088e-002
3.934238e+003;-1.396698e-002
3.936167e+003;-1.369282e-002
3.938095e+003;-1.379965e-002
3.940023e+003;-1.364279e-002
3.941952e+003;-1.390280e-002
3.943881e+003;-1.441575e-002
3.945809e+003;-1.439908e-002
3.947738e+003;-1.433570e-002
3.949666e+003;-1.421358e-002
3.951595e+003;-1.366392e-002
3.953523e+003;-1.329292e-002
3.955452e+003;-1.328945e-002
3.957380e+003;-1.338012e-002
3.959309e+003;-1.344377e-002
3.961238e+003;-1.361148e-002
3.963166e+003;-1.355400e-002
3.965095e+003;-1.321238e-002
3.967023e+003;-1.303341e-002
3.968952e+003;-1.335895e-002
3.970880e+003;-1.368302e-002
3.972809e+003;-1.345543e-002
3.974737e+003;-1.339673e-002
3.976666e+003;-1.338973e-002
3.978594e+003;-1.309595e-002
3.980523e+003;-1.324802e-002
3.982452e+003;-1.352638e-002
3.984380e+003;-1.331271e-002
3.986309e+003;-1.301643e-002
3.988237e+003;-1.314642e-002
3.990166e+003;-1.356020e-002
3.992094e+003;-1.322800e-002
3.994023e+003;-1.306460e-002
3.995951e+003;-1.344749e-002
3.997880e+003;-1.343551e-002
3.999809e+003;-1.370530e-002
4.001737e+003;0.000000e+000
