3.992094e+002;0.000000e+000
4.011380e+002;0.000000e+000
4.030665e+002;0.000000e+000
4.049951e+002;0.000000e+000
4.069236e+002;0.000000e+000
4.088522e+002;0.000000e+000
4.107807e+002;0.000000e+000
4.127093e+002;0.000000e+000
4.146378e+002;0.000000e+000
4.165664e+002;0.000000e+000
4.184949e+002;0.000000e+000
4.204235e+002;0.000000e+000
4.223520e+002;0.000000e+000
4.242806e+002;0.000000e+000
4.262091e+002;0.000000e+000
4.281377e+002;0.000000e+000
4.300662e+002;0.000000e+000
4.319948e+002;0.000000e+000
4.339233e+002;0.000000e+000
4.358519e+002;0.000000e+000
4.377804e+002;0.000000e+000
4.397090e+002;0.000000e+000
4.416375e+002;0.000000e+000
4.435660e+002;0.000000e+000
4.454946e+002;0.000000e+000
4.474232e+002;0.000000e+000
4.493517e+002;0.000000e+000
4.512802e+002;0.000000e+000
4.532088e+002;0.000000e+000
4.551373e+002;0.000000e+000
4.570659e+002;0.000000e+000
4.589944e+002;0.000000e+000
4.609230e+002;0.000000e+000
4.628515e+002;0.000000e+000
4.647801e+002;0.000000e+000
4.667086e+002;0.000000e+000
4.686372e+002;0.000000e+000
4.705657e+002;0.000000e+000
4.724943e+002;0.000000e+000
4.744228e+002;0.000000e+000
4.763513e+002;0.000000e+000
4.782799e+002;0.000000e+000
4.802085e+002;0.000000e+000
4.821370e+002;0.000000e+000
4.840656e+002;0.000000e+000
4.859941e+002;0.000000e+000
4.879226e+002;0.000000e+000
4.898512e+002;0.000000e+000
4.917798e+002;0.000000e+000
4.937083e+002;0.000000e+000
4.956368e+002;0.000000e+000
4.975654e+002;0.000000e+000
4.994939e+002;0.000000e+000
5.014225e+002;0.000000e+000
5.033510e+002;0.000000e+000
5.052796e+002;0.000000e+000
5.072081e+002;0.000000e+000
5.091367e+002;0.000000e+000
5.110652e+002;0.000000e+000
5.129938e+002;0.000000e+000
5.149223e+002;0.000000e+000
5.168509e+002;0.000000e+000
5.187794e+002;0.000000e+000
5.207079e+002;0.000000e+000
5.226365e+002;0.000000e+000
5.245651e+002;0.000000e+000
5.264936e+002;0.000000e+000
5.284222e+002;0.000000e+000
5.303507e+002;0.000000e+000
5.322792e+002;0.000000e+000
5.342078e+002;0.000000e+000
5.361364e+002;0.000000e+000
5.380649e+002;0.000000e+000
5.399935e+002;0.000000e+000
5.419220e+002;0.000000e+000
5.438505e+002;0.000000e+000
5.457791e+002;0.000000e+000
5.477076e+002;0.000000e+000
5.496362e+002;0.000000e+000
5.515648e+002;0.000000e+000
5.534933e+002;0.000000e+000
5.554218e+002;0.000000e+000
5.573504e+002;0.000000e+000
5.592789e+002;0.000000e+000
5.612075e+002;0.000000e+000
5.631360e+002;0.000000e+000
5.650646e+002;0.000000e+000
5.669931e+002;0.000000e+000
5.689217e+002;0.000000e+000
5.708502e+002;0.000000e+000
5.727787e+002;0.000000e+000
5.747073e+002;0.000000e+000
5.766359e+002;0.000000e+000
5.785644e+002;0.000000e+000
5.804930e+002;0.000000e+000
5.824215e+002;0.000000e+000
5.843500e+002;0.000000e+000
5.862786e+002;0.000000e+000
5.882072e+002;0.000000e+000
5.901357e+002;0.000000e+000
5.920643e+002;0.000000e+000
5.939928e+002;0.000000e+000
5.959213e+002;0.000000e+000
5.978499e+002;0.000000e+000
5.997784e+002;7.662594e-002
6.017070e+002;8.355011e-002
6.036355e+002;8.789466e-002
6.055641e+002;8.802083e-002
6.074926e+002;9.166399e-002
6.094211e+002;9.646413e-002
6.113497e+002;1.015822e-001
6.132783e+002;1.004386e-001
6.152068e+002;9.793489e-002
6.171354e+002;9.699857e-002
6.190639e+002;9.884603e-002
6.209924e+002;1.009116e-001
6.229210e+002;9.930991e-002
6.248495e+002;9.487052e-002
6.267781e+002;9.450589e-002
6.287067e+002;9.801200e-002
6.306352e+002;1.049662e-001
6.325637e+002;1.037257e-001
6.344923e+002;1.007005e-001
6.364208e+002;1.003389e-001
6.383494e+002;1.001986e-001
6.402780e+002;1.004283e-001
6.422065e+002;1.057176e-001
6.441350e+002;1.074618e-001
6.460636e+002;1.059960e-001
6.479921e+002;1.046364e-001
6.499207e+002;1.033539e-001
6.518492e+002;1.025593e-001
6.537778e+002;1.010987e-001
6.557063e+002;1.025917e-001
6.576349e+002;1.051600e-001
6.595634e+002;1.065427e-001
6.614919e+002;1.086207e-001
6.634205e+002;1.084519e-001
6.653491e+002;1.067591e-001
6.672776e+002;1.062905e-001
6.692062e+002;1.083781e-001
6.711347e+002;1.098174e-001
6.730632e+002;1.105848e-001
6.749918e+002;1.119253e-001
6.769203e+002;1.123554e-001
6.788489e+002;1.126128e-001
6.807775e+002;1.140673e-001
6.827060e+002;1.147800e-001
6.846345e+002;1.138212e-001
6.865631e+002;1.134868e-001
6.884916e+002;1.143445e-001
6.904202e+002;1.143835e-001
6.923488e+002;1.145715e-001
6.942773e+002;1.159452e-001
6.962058e+002;1.163539e-001
6.981344e+002;1.163580e-001
7.000629e+002;1.160602e-001
7.019915e+002;1.153642e-001
7.039200e+002;1.167930e-001
7.058486e+002;1.175246e-001
7.077771e+002;1.164430e-001
7.097057e+002;1.164603e-001
7.116342e+002;1.171527e-001
7.135627e+002;1.169395e-001
7.154913e+002;1.165084e-001
7.174199e+002;1.163240e-001
7.193484e+002;1.168107e-001
7.212770e+002;1.162743e-001
7.232055e+002;1.157310e-001
7.251340e+002;1.162738e-001
7.270626e+002;1.156260e-001
7.289911e+002;1.148672e-001
7.309197e+002;1.150545e-001
7.328483e+002;1.161684e-001
7.347768e+002;1.174375e-001
7.367053e+002;1.188248e-001
7.386339e+002;1.196509e-001
7.405624e+002;1.196101e-001
7.424910e+002;1.187346e-001
7.444196e+002;1.177630e-001
7.463481e+002;1.181817e-001
7.482766e+002;1.197745e-001
7.502052e+002;1.199650e-001
7.521337e+002;1.195552e-001
7.540623e+002;1.192549e-001
7.559908e+002;1.178054e-001
7.579194e+002;1.172053e-001
7.598479e+002;1.171473e-001
7.617765e+002;1.169742e-001
7.637050e+002;1.175989e-001
7.656335e+002;1.175801e-001
7.675621e+002;1.177502e-001
7.694907e+002;1.179300e-001
7.714192e+002;1.177402e-001
7.733478e+002;1.174829e-001
7.752763e+002;1.164791e-001
7.772048e+002;1.156133e-001
7.791334e+002;1.151606e-001
7.810620e+002;1.158935e-001
7.829905e+002;1.154602e-001
7.849191e+002;1.150115e-001
7.868476e+002;1.154871e-001
7.887761e+002;1.149646e-001
7.907047e+002;1.143380e-001
7.926332e+002;1.126067e-001
7.945618e+002;1.102146e-001
7.964903e+002;1.103773e-001
7.984189e+002;1.107900e-001
8.003474e+002;1.096052e-001
8.022759e+002;1.082152e-001
8.042045e+002;1.072655e-001
8.061331e+002;1.074263e-001
8.080616e+002;1.079785e-001
8.099902e+002;1.075492e-001
8.119187e+002;1.088194e-001
8.138472e+002;1.100037e-001
8.157758e+002;1.098755e-001
8.177043e+002;1.097923e-001
8.196329e+002;1.107194e-001
8.215615e+002;1.125191e-001
8.234900e+002;1.141950e-001
8.254185e+002;1.155829e-001
8.273471e+002;1.173783e-001
8.292756e+002;1.189195e-001
8.312042e+002;1.208497e-001
8.331328e+002;1.235540e-001
8.350613e+002;1.260455e-001
8.369898e+002;1.275089e-001
8.389184e+002;1.296771e-001
8.408469e+002;1.334843e-001
8.427755e+002;1.368158e-001
8.447040e+002;1.393522e-001
8.466326e+002;1.423719e-001
8.485611e+002;1.462913e-001
8.504897e+002;1.507864e-001
8.524182e+002;1.547444e-001
8.543467e+002;1.584579e-001
8.562753e+002;1.629996e-001
8.582039e+002;1.671706e-001
8.601324e+002;1.711554e-001
8.620610e+002;1.759183e-001
8.639895e+002;1.804562e-001
8.659180e+002;1.835215e-001
8.678466e+002;1.867615e-001
8.697751e+002;1.904089e-001
8.717037e+002;1.936927e-001
8.736323e+002;1.966438e-001
8.755608e+002;1.997575e-001
8.774893e+002;2.035614e-001
8.794179e+002;2.070989e-001
8.813464e+002;2.107680e-001
8.832750e+002;2.140542e-001
8.852036e+002;2.165870e-001
8.871321e+002;2.189993e-001
8.890606e+002;2.213472e-001
8.909892e+002;2.235629e-001
8.929177e+002;2.248592e-001
8.948463e+002;2.262847e-001
8.967748e+002;2.284802e-001
8.987034e+002;2.302559e-001
9.006319e+002;2.319971e-001
9.025605e+002;2.333088e-001
9.044890e+002;2.340687e-001
9.064175e+002;2.349932e-001
9.083461e+002;2.362326e-001
9.102747e+002;2.371930e-001
9.122032e+002;2.379730e-001
9.141318e+002;2.388658e-001
9.160603e+002;2.398202e-001
9.179888e+002;2.408081e-001
9.199174e+002;2.415150e-001
9.218459e+002;2.421178e-001
9.237745e+002;2.427172e-001
9.257031e+002;2.433773e-001
9.276316e+002;2.437919e-001
9.295601e+002;2.440197e-001
9.314887e+002;2.445820e-001
9.334172e+002;2.449163e-001
9.353458e+002;2.443181e-001
9.372744e+002;2.437854e-001
9.392029e+002;2.434977e-001
9.411314e+002;2.431454e-001
9.430600e+002;2.431832e-001
9.449885e+002;2.427433e-001
9.469171e+002;2.417233e-001
9.488456e+002;2.409376e-001
9.507742e+002;2.398546e-001
9.527027e+002;2.384681e-001
9.546313e+002;2.374929e-001
9.565598e+002;2.372092e-001
9.584883e+002;2.363236e-001
9.604169e+002;2.349273e-001
9.623455e+002;2.340771e-001
9.642740e+002;2.332834e-001
9.662026e+002;2.322576e-001
9.681311e+002;2.310846e-001
9.700596e+002;2.299835e-001
9.719882e+002;2.293028e-001
9.739167e+002;2.290631e-001
9.758453e+002;2.282906e-001
9.777739e+002;2.269846e-001
9.797024e+002;2.258029e-001
9.816309e+002;2.249963e-001
9.835595e+002;2.238123e-001
9.854880e+002;2.223175e-001
9.874166e+002;2.209298e-001
9.893452e+002;2.198468e-001
9.912737e+002;2.186496e-001
9.932022e+002;2.176143e-001
9.951307e+002;2.166754e-001
9.970593e+002;2.154353e-001
9.989879e+002;2.142070e-001
1.000916e+003;2.128517e-001
1.002845e+003;2.111498e-001
1.004773e+003;2.098899e-001
1.006702e+003;2.086714e-001
1.008631e+003;2.075437e-001
1.010559e+003;2.070859e-001
1.012488e+003;2.055234e-001
1.014416e+003;2.029995e-001
1.016345e+003;2.015259e-001
1.018273e+003;2.001837e-001
1.020202e+003;1.978740e-001
1.022130e+003;1.952910e-001
1.024059e+003;1.933084e-001
1.025988e+003;1.915640e-001
1.027916e+003;1.894627e-001
1.029845e+003;1.877561e-001
1.031773e+003;1.859740e-001
1.033702e+003;1.835383e-001
1.035630e+003;1.815433e-001
1.037559e+003;1.796018e-001
1.039487e+003;1.777336e-001
1.041416e+003;1.759476e-001
1.043344e+003;1.737883e-001
1.045273e+003;1.721626e-001
1.047202e+003;1.705744e-001
1.049130e+003;1.684278e-001
1.051059e+003;1.667327e-001
1.052987e+003;1.647654e-001
1.054916e+003;1.621422e-001
1.056844e+003;1.600259e-001
1.058773e+003;1.576482e-001
1.060701e+003;1.557335e-001
1.062630e+003;1.545822e-001
1.064558e+003;1.535295e-001
1.066487e+003;1.518965e-001
1.068416e+003;1.494002e-001
1.070344e+003;1.473266e-001
1.072273e+003;1.460579e-001
1.074201e+003;1.449250e-001
1.076130e+003;1.433043e-001
1.078058e+003;1.413003e-001
1.079987e+003;1.398550e-001
1.081915e+003;1.382622e-001
1.083844e+003;1.364681e-001
1.085773e+003;1.351682e-001
1.087701e+003;1.332183e-001
1.089630e+003;1.309943e-001
1.091558e+003;1.293931e-001
1.093487e+003;1.282136e-001
1.095415e+003;1.266109e-001
1.097344e+003;1.249577e-001
1.099272e+003;1.242819e-001
1.101201e+003;1.236128e-001
1.103129e+003;1.222149e-001
1.105058e+003;1.202460e-001
1.106987e+003;1.178906e-001
1.108915e+003;1.162114e-001
1.110844e+003;1.150509e-001
1.112772e+003;1.141273e-001
1.114701e+003;1.131407e-001
1.116629e+003;1.119392e-001
1.118558e+003;1.107700e-001
1.120486e+003;1.095449e-001
1.122415e+003;1.081780e-001
1.124344e+003;1.071070e-001
1.126272e+003;1.066542e-001
1.128201e+003;1.059482e-001
1.130129e+003;1.043945e-001
1.132058e+003;1.028863e-001
1.133986e+003;1.019413e-001
1.135915e+003;1.003123e-001
1.137843e+003;9.876733e-002
1.139772e+003;9.785449e-002
1.141700e+003;9.693938e-002
1.143629e+003;9.570156e-002
1.145557e+003;9.389688e-002
1.147486e+003;9.197878e-002
1.149415e+003;9.058883e-002
1.151343e+003;8.934567e-002
1.153272e+003;8.745234e-002
1.155200e+003;8.588711e-002
1.157129e+003;8.458228e-002
1.159057e+003;8.341426e-002
1.160986e+003;8.276322e-002
1.162914e+003;8.157854e-002
1.164843e+003;8.013906e-002
1.166771e+003;7.918183e-002
1.168700e+003;7.826801e-002
1.170629e+003;7.719456e-002
1.172557e+003;7.649311e-002
1.174486e+003;7.630423e-002
1.176414e+003;7.596435e-002
1.178343e+003;7.537740e-002
1.180271e+003;7.473751e-002
1.182200e+003;7.391736e-002
1.184128e+003;7.294484e-002
1.186057e+003;7.169913e-002
1.187986e+003;7.035660e-002
1.189914e+003;6.908887e-002
1.191843e+003;6.759662e-002
1.193771e+003;6.617361e-002
1.195700e+003;6.515782e-002
1.197628e+003;6.433422e-002
1.199557e+003;6.306607e-002
1.201485e+003;6.177628e-002
1.203414e+003;6.099531e-002
1.205343e+003;6.038227e-002
1.207271e+003;5.948315e-002
1.209200e+003;5.875038e-002
1.211128e+003;5.885061e-002
1.213057e+003;5.929347e-002
1.214985e+003;5.948041e-002
1.216914e+003;5.984405e-002
1.218842e+003;6.067922e-002
1.220771e+003;6.194698e-002
1.222699e+003;6.333429e-002
1.224628e+003;6.476729e-002
1.226557e+003;6.569123e-002
1.228485e+003;6.640667e-002
1.230414e+003;6.722512e-002
1.232342e+003;6.812361e-002
1.234271e+003;6.867413e-002
1.236199e+003;6.854980e-002
1.238128e+003;6.774039e-002
1.240056e+003;6.639651e-002
1.241985e+003;6.518458e-002
1.243913e+003;6.407109e-002
1.245842e+003;6.278743e-002
1.247771e+003;6.101137e-002
1.249699e+003;5.887539e-002
1.251628e+003;5.671221e-002
1.253556e+003;5.442671e-002
1.255485e+003;5.177609e-002
1.257413e+003;4.886959e-002
1.259342e+003;4.594805e-002
1.261270e+003;4.324519e-002
1.263199e+003;4.103184e-002
1.265127e+003;3.939887e-002
1.267056e+003;3.782016e-002
1.268985e+003;3.622932e-002
1.270913e+003;3.455399e-002
1.272842e+003;3.300750e-002
1.274770e+003;3.142646e-002
1.276699e+003;3.012768e-002
1.278627e+003;2.940809e-002
1.280556e+003;2.869807e-002
1.282484e+003;2.771626e-002
1.284413e+003;2.678988e-002
1.286342e+003;2.566236e-002
1.288270e+003;2.475715e-002
1.290199e+003;2.415539e-002
1.292127e+003;2.356978e-002
1.294056e+003;2.317127e-002
1.295984e+003;2.272439e-002
1.297913e+003;2.200203e-002
1.299841e+003;2.145371e-002
1.301770e+003;2.129040e-002
1.303698e+003;2.079577e-002
1.305627e+003;2.000117e-002
1.307556e+003;1.944439e-002
1.309484e+003;1.894203e-002
1.311413e+003;1.836122e-002
1.313341e+003;1.794834e-002
1.315270e+003;1.745584e-002
1.317198e+003;1.704960e-002
1.319127e+003;1.685604e-002
1.321055e+003;1.644403e-002
1.322984e+003;1.604981e-002
1.324912e+003;1.577684e-002
1.326841e+003;1.540035e-002
1.328770e+003;1.513808e-002
1.330698e+003;1.501798e-002
1.332627e+003;1.497411e-002
1.334555e+003;1.488519e-002
1.336484e+003;1.453325e-002
1.338412e+003;1.391195e-002
1.340341e+003;1.384223e-002
1.342269e+003;1.464488e-002
1.344198e+003;1.519366e-002
1.346126e+003;1.542297e-002
1.348055e+003;1.580742e-002
1.349984e+003;1.635196e-002
1.351912e+003;1.685381e-002
1.353841e+003;1.727517e-002
1.355769e+003;1.790559e-002
1.357698e+003;1.903795e-002
1.359626e+003;1.987133e-002
1.361555e+003;2.008383e-002
1.363483e+003;2.102010e-002
1.365412e+003;2.311986e-002
1.367341e+003;2.470127e-002
1.369269e+003;2.570567e-002
1.371198e+003;2.624489e-002
1.373126e+003;2.568781e-002
1.375055e+003;2.472484e-002
1.376983e+003;2.373167e-002
1.378912e+003;2.221683e-002
1.380840e+003;2.062813e-002
1.382769e+003;1.916360e-002
1.384698e+003;1.731058e-002
1.386626e+003;1.493450e-002
1.388555e+003;1.458612e-002
1.390483e+003;1.503828e-002
1.392412e+003;1.371496e-002
1.394340e+003;1.189048e-002
1.396269e+003;1.191929e-002
1.398197e+003;1.180720e-002
1.400126e+003;1.194027e-002
1.402054e+003;1.239157e-002
1.403983e+003;1.168641e-002
1.405911e+003;1.125897e-002
1.407840e+003;1.111740e-002
1.409769e+003;1.086294e-002
1.411697e+003;1.088482e-002
1.413626e+003;1.074408e-002
1.415554e+003;1.006896e-002
1.417483e+003;7.737357e-003
1.419411e+003;6.599966e-003
1.421340e+003;9.483843e-003
1.423268e+003;1.103199e-002
1.425197e+003;1.146342e-002
1.427125e+003;1.158241e-002
1.429054e+003;1.105370e-002
1.430983e+003;1.124513e-002
1.432911e+003;1.152596e-002
1.434840e+003;9.265669e-003
1.436768e+003;7.283661e-003
1.438697e+003;9.774032e-003
1.440625e+003;1.126496e-002
1.442554e+003;1.083372e-002
1.444482e+003;9.881844e-003
1.446411e+003;8.434062e-003
1.448340e+003;7.785391e-003
1.450268e+003;8.251633e-003
1.452197e+003;7.522620e-003
1.454125e+003;4.221449e-003
1.456054e+003;-2.234731e-003
1.457982e+003;-2.088280e-003
1.459911e+003;2.740930e-003
1.461839e+003;3.776389e-003
1.463768e+003;1.316055e-003
1.465697e+003;4.192153e-004
1.467625e+003;1.562659e-003
1.469554e+003;1.020135e-003
1.471482e+003;-1.819285e-003
1.473411e+003;-1.931621e-003
1.475339e+003;9.253586e-004
1.477268e+003;2.934334e-003
1.479196e+003;3.952465e-003
1.481125e+003;3.758508e-003
1.483053e+003;3.929060e-003
1.484982e+003;3.209597e-003
1.486911e+003;1.590460e-003
1.488839e+003;1.149572e-004
1.490768e+003;4.301603e-004
1.492696e+003;1.768148e-003
1.494625e+003;-9.534930e-005
1.496553e+003;-1.859538e-003
1.498482e+003;-2.435663e-004
1.500410e+003;1.609483e-003
1.502339e+003;2.010615e-003
1.504267e+003;-2.891964e-003
1.506196e+003;-8.688780e-003
1.508125e+003;-5.429523e-003
1.510053e+003;-2.875414e-004
1.511982e+003;7.077230e-004
1.513910e+003;2.421448e-004
1.515839e+003;-1.928520e-003
1.517767e+003;-3.468040e-003
1.519696e+003;-6.483017e-003
1.521624e+003;-8.414776e-003
1.523553e+003;-5.529413e-003
1.525481e+003;-4.510361e-003
1.527410e+003;-3.768241e-003
1.529339e+003;-2.690055e-003
1.531267e+003;-3.515338e-003
1.533196e+003;-5.737952e-003
1.535124e+003;-4.873180e-003
1.537053e+003;-7.283308e-003
1.538981e+003;-1.451628e-002
1.540910e+003;-1.473269e-002
1.542838e+003;-9.851840e-003
1.544767e+003;-6.861968e-003
1.546695e+003;-4.977981e-003
1.548624e+003;-4.742398e-003
1.550553e+003;-4.828455e-003
1.552481e+003;-5.949955e-003
1.554410e+003;-7.819944e-003
1.556338e+003;-1.127038e-002
1.558267e+003;-1.824073e-002
1.560195e+003;-1.529715e-002
1.562124e+003;-6.813859e-003
1.564052e+003;-4.927075e-003
1.565981e+003;-5.224043e-003
1.567910e+003;-6.251451e-003
1.569838e+003;-6.987223e-003
1.571767e+003;-5.164227e-003
1.573695e+003;-6.773183e-003
1.575624e+003;-1.120348e-002
1.577552e+003;-8.826074e-003
1.579481e+003;-4.883665e-003
1.581409e+003;-4.276985e-003
1.583338e+003;-4.405054e-003
1.585266e+003;-4.634361e-003
1.587195e+003;-4.865448e-003
1.589124e+003;-5.448370e-003
1.591052e+003;-5.826820e-003
1.592981e+003;-6.188966e-003
1.594909e+003;-6.108635e-003
1.596838e+003;-5.635657e-003
1.598766e+003;-5.394901e-003
1.600695e+003;-5.504581e-003
1.602623e+003;-5.515247e-003
1.604552e+003;-5.439830e-003
1.606480e+003;-5.444346e-003
1.608409e+003;-5.694853e-003
1.610338e+003;-5.645829e-003
1.612266e+003;-5.556336e-003
1.614195e+003;-7.623862e-003
1.616123e+003;-1.169798e-002
1.618052e+003;-9.964740e-003
1.619980e+003;-6.810402e-003
1.621909e+003;-7.879363e-003
1.623837e+003;-8.530682e-003
1.625766e+003;-7.525788e-003
1.627694e+003;-7.421406e-003
1.629623e+003;-6.956508e-003
1.631552e+003;-6.991103e-003
1.633480e+003;-1.065653e-002
1.635409e+003;-1.427255e-002
1.637337e+003;-1.109978e-002
1.639266e+003;-7.704565e-003
1.641194e+003;-7.306898e-003
1.643123e+003;-8.614172e-003
1.645051e+003;-1.261163e-002
1.646980e+003;-1.359437e-002
1.648909e+003;-1.079152e-002
1.650837e+003;-1.550982e-002
1.652766e+003;-2.298545e-002
1.654694e+003;-1.638323e-002
1.656623e+003;-8.757822e-003
1.658551e+003;-7.324198e-003
1.660480e+003;-8.246143e-003
1.662408e+003;-9.655216e-003
1.664337e+003;-8.538284e-003
1.666266e+003;-8.156469e-003
1.668194e+003;-1.042802e-002
1.670123e+003;-1.044820e-002
1.672051e+003;-8.510863e-003
1.673980e+003;-9.735023e-003
1.675908e+003;-9.735120e-003
1.677837e+003;-6.792918e-003
1.679765e+003;-6.300700e-003
1.681694e+003;-8.707389e-003
1.683622e+003;-1.410162e-002
1.685551e+003;-1.162540e-002
1.687479e+003;-5.577141e-003
1.689408e+003;-3.854162e-003
1.691337e+003;-2.711656e-003
1.693265e+003;-4.519247e-003
1.695194e+003;-9.581259e-003
1.697122e+003;-8.749769e-003
1.699051e+003;-9.667692e-003
1.700979e+003;-8.671307e-003
1.702908e+003;-2.518392e-003
1.704836e+003;-1.349868e-003
1.706765e+003;1.782648e-005
1.708693e+003;2.138559e-003
1.710622e+003;3.787519e-003
1.712551e+003;4.229078e-003
1.714479e+003;3.711953e-003
1.716408e+003;2.763638e-003
1.718336e+003;7.025065e-003
1.720265e+003;1.607384e-002
1.722193e+003;2.332721e-002
1.724122e+003;2.980132e-002
1.726050e+003;3.689862e-002
1.727979e+003;4.272902e-002
1.729908e+003;4.698769e-002
1.731836e+003;4.702380e-002
1.733765e+003;4.468013e-002
1.735693e+003;4.857735e-002
1.737622e+003;5.074564e-002
1.739550e+003;4.744996e-002
1.741479e+003;4.450279e-002
1.743407e+003;4.075996e-002
1.745336e+003;3.560657e-002
1.747265e+003;2.922152e-002
1.749193e+003;2.174730e-002
1.751122e+003;1.530427e-002
1.753050e+003;1.255780e-002
1.754979e+003;9.101060e-003
1.756907e+003;5.358020e-003
1.758836e+003;3.122785e-003
1.760764e+003;2.502672e-004
1.762693e+003;-7.599597e-004
1.764621e+003;-1.345696e-004
1.766550e+003;-1.504790e-003
1.768479e+003;-2.910165e-003
1.770407e+003;-4.715326e-003
1.772336e+003;-6.385175e-003
1.774264e+003;-4.117470e-003
1.776193e+003;-2.181425e-003
1.778121e+003;-2.347651e-003
1.780050e+003;-2.836928e-003
1.781978e+003;-2.895189e-003
1.783907e+003;-3.486480e-003
1.785835e+003;-3.425569e-003
1.787764e+003;-2.903583e-003
1.789693e+003;-4.194494e-003
1.791621e+003;-6.147218e-003
1.793550e+003;-5.241983e-003
1.795478e+003;-3.516324e-003
1.797407e+003;-3.575053e-003
1.799335e+003;-4.007406e-003
1.801264e+003;-4.047456e-003
1.803192e+003;-3.473825e-003
1.805121e+003;-3.035841e-003
1.807049e+003;-3.175690e-003
1.808978e+003;-3.616458e-003
1.810907e+003;-3.440658e-003
1.812835e+003;-3.038967e-003
1.814764e+003;-2.977927e-003
1.816692e+003;-3.204536e-003
1.818621e+003;-3.142960e-003
1.820549e+003;-3.151743e-003
1.822478e+003;-3.484212e-003
1.824406e+003;-4.292208e-003
1.826335e+003;-3.834556e-003
1.828264e+003;-4.277904e-003
1.830192e+003;-5.065956e-003
1.832121e+003;-4.032684e-003
1.834049e+003;-3.506464e-003
1.835978e+003;-3.801712e-003
1.837906e+003;-3.940493e-003
1.839835e+003;-3.792548e-003
1.841763e+003;-5.020660e-003
1.843692e+003;-7.139659e-003
1.845620e+003;-6.300079e-003
1.847549e+003;-4.946271e-003
1.849478e+003;-4.701560e-003
1.851406e+003;-4.481011e-003
1.853335e+003;-4.381175e-003
1.855263e+003;-4.389736e-003
1.857192e+003;-4.714146e-003
1.859120e+003;-4.861909e-003
1.861049e+003;-4.766650e-003
1.862977e+003;-4.780972e-003
1.864906e+003;-5.033139e-003
1.866834e+003;-6.225387e-003
1.868763e+003;-7.154293e-003
1.870692e+003;-6.009859e-003
1.872620e+003;-4.920522e-003
1.874549e+003;-4.918393e-003
1.876477e+003;-5.004775e-003
1.878406e+003;-5.205578e-003
1.880334e+003;-5.402428e-003
1.882263e+003;-5.648249e-003
1.884191e+003;-5.694526e-003
1.886120e+003;-5.621757e-003
1.888048e+003;-6.207748e-003
1.889977e+003;-6.648714e-003
1.891906e+003;-6.191188e-003
1.893834e+003;-5.998552e-003
1.895763e+003;-5.770814e-003
1.897691e+003;-5.631536e-003
1.899620e+003;-5.602132e-003
1.901548e+003;-5.679155e-003
1.903477e+003;-5.873437e-003
1.905405e+003;-6.025479e-003
1.907334e+003;-6.012244e-003
1.909262e+003;-6.224211e-003
1.911191e+003;-6.356931e-003
1.913120e+003;-6.344425e-003
1.915048e+003;-6.694786e-003
1.916977e+003;-7.527807e-003
1.918905e+003;-7.394988e-003
1.920834e+003;-6.948715e-003
1.922762e+003;-6.960258e-003
1.924691e+003;-6.685063e-003
1.926619e+003;-6.583220e-003
1.928548e+003;-6.711817e-003
1.930477e+003;-6.649987e-003
1.932405e+003;-6.694851e-003
1.934334e+003;-6.901300e-003
1.936262e+003;-6.871655e-003
1.938191e+003;-6.910170e-003
1.940119e+003;-7.365735e-003
1.942048e+003;-7.804682e-003
1.943976e+003;-7.750069e-003
1.945905e+003;-7.446518e-003
1.947833e+003;-7.182615e-003
1.949762e+003;-7.008872e-003
1.951691e+003;-6.811119e-003
1.953619e+003;-7.133009e-003
1.955548e+003;-7.455573e-003
1.957476e+003;-7.391438e-003
1.959405e+003;-7.548616e-003
1.961333e+003;-7.774773e-003
1.963262e+003;-8.014182e-003
1.965190e+003;-8.333816e-003
1.967119e+003;-8.434958e-003
1.969047e+003;-8.264641e-003
1.970976e+003;-8.164468e-003
1.972905e+003;-8.151494e-003
1.974833e+003;-8.305666e-003
1.976762e+003;-8.228620e-003
1.978690e+003;-8.116958e-003
1.980619e+003;-8.648896e-003
1.982547e+003;-9.263288e-003
1.984476e+003;-9.412268e-003
1.986404e+003;-9.172428e-003
1.988333e+003;-9.034011e-003
1.990261e+003;-9.699803e-003
1.992190e+003;-1.017307e-002
1.994119e+003;-9.955122e-003
1.996047e+003;-9.749667e-003
1.997976e+003;-9.971929e-003
1.999904e+003;-1.029294e-002
2.001833e+003;-1.033400e-002
2.003761e+003;-1.028530e-002
2.005690e+003;-1.039783e-002
2.007618e+003;-1.043795e-002
2.009547e+003;-1.033724e-002
2.011476e+003;-1.046728e-002
2.013404e+003;-1.070586e-002
2.015333e+003;-1.091564e-002
2.017261e+003;-1.070977e-002
2.019190e+003;-1.058028e-002
2.021118e+003;-1.117538e-002
2.023047e+003;-1.151335e-002
2.024975e+003;-1.138904e-002
2.026904e+003;-1.121694e-002
2.028833e+003;-1.128759e-002
2.030761e+003;-1.172652e-002
2.032690e+003;-1.205858e-002
2.034618e+003;-1.194533e-002
2.036547e+003;-1.177296e-002
2.038475e+003;-1.187853e-002
2.040404e+003;-1.223563e-002
2.042332e+003;-1.232602e-002
2.044261e+003;-1.221962e-002
2.046189e+003;-1.239719e-002
2.048118e+003;-1.242984e-002
2.050047e+003;-1.251339e-002
2.051975e+003;-1.281455e-002
2.053904e+003;-1.292687e-002
2.055832e+003;-1.291195e-002
2.057761e+003;-1.300261e-002
2.059689e+003;-1.327347e-002
2.061618e+003;-1.328575e-002
2.063546e+003;-1.324998e-002
2.065475e+003;-1.337460e-002
2.067404e+003;-1.345221e-002
2.069332e+003;-1.339442e-002
2.071260e+003;-1.348157e-002
2.073189e+003;-1.369998e-002
2.075118e+003;-1.382273e-002
2.077046e+003;-1.362796e-002
2.078975e+003;-1.380546e-002
2.080903e+003;-1.402113e-002
2.082832e+003;-1.378591e-002
2.084760e+003;-1.370791e-002
2.086689e+003;-1.404112e-002
2.088617e+003;-1.424625e-002
2.090546e+003;-1.401703e-002
2.092475e+003;-1.380893e-002
2.094403e+003;-1.410098e-002
2.096332e+003;-1.454570e-002
2.098260e+003;-1.468907e-002
2.100189e+003;-1.455589e-002
2.102117e+003;-1.426687e-002
2.104046e+003;-1.417894e-002
2.105974e+003;-1.440815e-002
2.107903e+003;-1.467635e-002
2.109832e+003;-1.474374e-002
2.111760e+003;-1.487180e-002
2.113688e+003;-1.500332e-002
2.115617e+003;-1.485938e-002
2.117546e+003;-1.475857e-002
2.119474e+003;-1.497604e-002
2.121403e+003;-1.501516e-002
2.123331e+003;-1.500277e-002
2.125260e+003;-1.509834e-002
2.127188e+003;-1.522806e-002
2.129117e+003;-1.522323e-002
2.131045e+003;-1.502431e-002
2.132974e+003;-1.502527e-002
2.134903e+003;-1.511968e-002
2.136831e+003;-1.515037e-002
2.138760e+003;-1.520237e-002
2.140688e+003;-1.526699e-002
2.142617e+003;-1.521625e-002
2.144545e+003;-1.529658e-002
2.146474e+003;-1.561176e-002
2.148402e+003;-1.592943e-002
2.150331e+003;-1.597575e-002
2.152260e+003;-1.591043e-002
2.154188e+003;-1.605743e-002
2.156117e+003;-1.605801e-002
2.158045e+003;-1.567207e-002
2.159974e+003;-1.532809e-002
2.161902e+003;-1.547270e-002
2.163831e+003;-1.567831e-002
2.165759e+003;-1.587274e-002
2.167688e+003;-1.608237e-002
2.169616e+003;-1.598137e-002
2.171545e+003;-1.600573e-002
2.173474e+003;-1.589043e-002
2.175402e+003;-1.587951e-002
2.177331e+003;-1.589353e-002
2.179259e+003;-1.579536e-002
2.181188e+003;-1.574433e-002
2.183116e+003;-1.589439e-002
2.185045e+003;-1.616714e-002
2.186973e+003;-1.635464e-002
2.188902e+003;-1.637401e-002
2.190831e+003;-1.630572e-002
2.192759e+003;-1.641166e-002
2.194688e+003;-1.654970e-002
2.196616e+003;-1.643479e-002
2.198545e+003;-1.635892e-002
2.200473e+003;-1.644092e-002
2.202402e+003;-1.640627e-002
2.204330e+003;-1.641840e-002
2.206259e+003;-1.645225e-002
2.208188e+003;-1.626267e-002
2.210116e+003;-1.634255e-002
2.212044e+003;-1.673634e-002
2.213973e+003;-1.692832e-002
2.215902e+003;-1.689129e-002
2.217830e+003;-1.664186e-002
2.219759e+003;-1.649700e-002
2.221687e+003;-1.666399e-002
2.223616e+003;-1.683376e-002
2.225544e+003;-1.717372e-002
2.227473e+003;-1.719309e-002
2.229401e+003;-1.674377e-002
2.231330e+003;-1.666418e-002
2.233259e+003;-1.714467e-002
2.235187e+003;-1.731508e-002
2.237116e+003;-1.705835e-002
2.239044e+003;-1.708425e-002
2.240973e+003;-1.724229e-002
2.242901e+003;-1.726633e-002
2.244830e+003;-1.727464e-002
2.246758e+003;-1.712537e-002
2.248687e+003;-1.702709e-002
2.250615e+003;-1.730065e-002
2.252544e+003;-1.742036e-002
2.254473e+003;-1.754416e-002
2.256401e+003;-1.748888e-002
2.258330e+003;-1.723694e-002
2.260258e+003;-1.719815e-002
2.262187e+003;-1.719637e-002
2.264115e+003;-1.726732e-002
2.266044e+003;-1.729744e-002
2.267972e+003;-1.734797e-002
2.269901e+003;-1.756625e-002
2.271830e+003;-1.798503e-002
2.273758e+003;-1.807625e-002
2.275687e+003;-1.769431e-002
2.277615e+003;-1.738897e-002
2.279544e+003;-1.762995e-002
2.281472e+003;-1.785076e-002
2.283401e+003;-1.760513e-002
2.285329e+003;-1.744780e-002
2.287258e+003;-1.748784e-002
2.289187e+003;-1.757961e-002
2.291115e+003;-1.767007e-002
2.293043e+003;-1.775672e-002
2.294972e+003;-1.780325e-002
2.296901e+003;-1.779062e-002
2.298829e+003;-1.776298e-002
2.300758e+003;-1.775707e-002
2.302686e+003;-1.807934e-002
2.304615e+003;-1.826275e-002
2.306543e+003;-1.820871e-002
2.308472e+003;-1.843821e-002
2.310400e+003;-1.859382e-002
2.312329e+003;-1.875252e-002
2.314258e+003;-1.900578e-002
2.316186e+003;-1.941139e-002
2.318115e+003;-2.001084e-002
2.320043e+003;-2.036917e-002
2.321972e+003;-2.054871e-002
2.323900e+003;-2.099436e-002
2.325829e+003;-2.171909e-002
2.327757e+003;-2.234449e-002
2.329686e+003;-2.283722e-002
2.331615e+003;-2.317670e-002
2.333543e+003;-2.339719e-002
2.335472e+003;-2.346007e-002
2.337400e+003;-2.354115e-002
2.339329e+003;-2.375286e-002
2.341257e+003;-2.355835e-002
2.343186e+003;-2.282138e-002
2.345114e+003;-2.168300e-002
2.347043e+003;-2.034735e-002
2.348971e+003;-1.978344e-002
2.350900e+003;-2.066499e-002
2.352829e+003;-2.230448e-002
2.354757e+003;-2.368245e-002
2.356686e+003;-2.471098e-002
2.358614e+003;-2.547313e-002
2.360543e+003;-2.578573e-002
2.362471e+003;-2.549556e-002
2.364400e+003;-2.504246e-002
2.366328e+003;-2.450773e-002
2.368257e+003;-2.384793e-002
2.370186e+003;-2.298932e-002
2.372114e+003;-2.196306e-002
2.374042e+003;-2.090883e-002
2.375971e+003;-1.990037e-002
2.377900e+003;-1.939104e-002
2.379828e+003;-1.919305e-002
2.381757e+003;-1.883845e-002
2.383685e+003;-1.825967e-002
2.385614e+003;-1.792494e-002
2.387542e+003;-1.799860e-002
2.389471e+003;-1.810711e-002
2.391399e+003;-1.815329e-002
2.393328e+003;-1.812838e-002
2.395257e+003;-1.794980e-002
2.397185e+003;-1.767255e-002
2.399114e+003;-1.779848e-002
2.401042e+003;-1.815596e-002
2.402971e+003;-1.800734e-002
2.404899e+003;-1.775684e-002
2.406828e+003;-1.773760e-002
2.408756e+003;-1.768664e-002
2.410685e+003;-1.747141e-002
2.412614e+003;-1.737853e-002
2.414542e+003;-1.753334e-002
2.416471e+003;-1.765464e-002
2.418399e+003;-1.768355e-002
2.420328e+003;-1.789044e-002
2.422256e+003;-1.799727e-002
2.424185e+003;-1.786815e-002
2.426113e+003;-1.782242e-002
2.428042e+003;-1.796853e-002
2.429970e+003;-1.805471e-002
2.431899e+003;-1.799978e-002
2.433828e+003;-1.794729e-002
2.435756e+003;-1.797644e-002
2.437685e+003;-1.807638e-002
2.439613e+003;-1.808398e-002
2.441542e+003;-1.787508e-002
2.443470e+003;-1.781543e-002
2.445399e+003;-1.786271e-002
2.447327e+003;-1.774116e-002
2.449256e+003;-1.781791e-002
2.451185e+003;-1.798623e-002
2.453113e+003;-1.812196e-002
2.455042e+003;-1.807409e-002
2.456970e+003;-1.794322e-002
2.458899e+003;-1.763300e-002
2.460827e+003;-1.735468e-002
2.462756e+003;-1.757563e-002
2.464684e+003;-1.773210e-002
2.466613e+003;-1.755845e-002
2.468542e+003;-1.744859e-002
2.470470e+003;-1.732310e-002
2.472398e+003;-1.721089e-002
2.474327e+003;-1.748519e-002
2.476256e+003;-1.763962e-002
2.478184e+003;-1.763641e-002
2.480113e+003;-1.759568e-002
2.482041e+003;-1.767334e-002
2.483970e+003;-1.764891e-002
2.485898e+003;-1.750136e-002
2.487827e+003;-1.750693e-002
2.489755e+003;-1.778143e-002
2.491684e+003;-1.796691e-002
2.493613e+003;-1.808442e-002
2.495541e+003;-1.815269e-002
2.497470e+003;-1.812081e-002
2.499398e+003;-1.807711e-002
2.501327e+003;-1.806195e-002
2.503255e+003;-1.802193e-002
2.505184e+003;-1.769854e-002
2.507112e+003;-1.762836e-002
2.509041e+003;-1.793899e-002
2.510969e+003;-1.803430e-002
2.512898e+003;-1.788520e-002
2.514827e+003;-1.797695e-002
2.516755e+003;-1.829036e-002
2.518684e+003;-1.855877e-002
2.520612e+003;-1.843761e-002
2.522541e+003;-1.810499e-002
2.524469e+003;-1.805064e-002
2.526398e+003;-1.795737e-002
2.528326e+003;-1.769345e-002
2.530255e+003;-1.765540e-002
2.532184e+003;-1.810066e-002
2.534112e+003;-1.863277e-002
2.536041e+003;-1.836396e-002
2.537969e+003;-1.776037e-002
2.539898e+003;-1.766777e-002
2.541826e+003;-1.788074e-002
2.543755e+003;-1.787508e-002
2.545683e+003;-1.810918e-002
2.547612e+003;-1.812707e-002
2.549541e+003;-1.788787e-002
2.551469e+003;-1.782191e-002
2.553397e+003;-1.783037e-002
2.555326e+003;-1.788666e-002
2.557255e+003;-1.795241e-002
2.559183e+003;-1.794166e-002
2.561112e+003;-1.769087e-002
2.563040e+003;-1.779724e-002
2.564969e+003;-1.801653e-002
2.566897e+003;-1.761954e-002
2.568826e+003;-1.741978e-002
2.570754e+003;-1.739413e-002
2.572683e+003;-1.746654e-002
2.574612e+003;-1.776626e-002
2.576540e+003;-1.774177e-002
2.578469e+003;-1.775369e-002
2.580397e+003;-1.784236e-002
2.582326e+003;-1.773855e-002
2.584254e+003;-1.775519e-002
2.586183e+003;-1.767302e-002
2.588111e+003;-1.745196e-002
2.590040e+003;-1.745585e-002
2.591969e+003;-1.778852e-002
2.593897e+003;-1.788717e-002
2.595826e+003;-1.780484e-002
2.597754e+003;-1.742561e-002
2.599683e+003;-1.701878e-002
2.601611e+003;-1.714550e-002
2.603540e+003;-1.749827e-002
2.605468e+003;-1.755167e-002
2.607397e+003;-1.743672e-002
2.609325e+003;-1.738298e-002
2.611254e+003;-1.749827e-002
2.613183e+003;-1.763122e-002
2.615111e+003;-1.756396e-002
2.617040e+003;-1.757290e-002
2.618968e+003;-1.758244e-002
2.620897e+003;-1.749675e-002
2.622825e+003;-1.736646e-002
2.624754e+003;-1.710460e-002
2.626682e+003;-1.720095e-002
2.628611e+003;-1.748198e-002
2.630540e+003;-1.738060e-002
2.632468e+003;-1.717245e-002
2.634396e+003;-1.714149e-002
2.636325e+003;-1.712088e-002
2.638254e+003;-1.713496e-002
2.640182e+003;-1.719898e-002
2.642111e+003;-1.703885e-002
2.644039e+003;-1.699533e-002
2.645968e+003;-1.705746e-002
2.647896e+003;-1.707030e-002
2.649825e+003;-1.691962e-002
2.651753e+003;-1.683462e-002
2.653682e+003;-1.691882e-002
2.655611e+003;-1.700913e-002
2.657539e+003;-1.688937e-002
2.659468e+003;-1.696283e-002
2.661396e+003;-1.705972e-002
2.663325e+003;-1.693440e-002
2.665253e+003;-1.674306e-002
2.667182e+003;-1.677153e-002
2.669110e+003;-1.682356e-002
2.671039e+003;-1.671367e-002
2.672968e+003;-1.679350e-002
2.674896e+003;-1.720761e-002
2.676825e+003;-1.721503e-002
2.678753e+003;-1.673707e-002
2.680682e+003;-1.653094e-002
2.682610e+003;-1.665337e-002
2.684539e+003;-1.685671e-002
2.686467e+003;-1.672655e-002
2.688396e+003;-1.655167e-002
2.690324e+003;-1.652900e-002
2.692253e+003;-1.637018e-002
2.694182e+003;-1.629765e-002
2.696110e+003;-1.611858e-002
2.698039e+003;-1.606277e-002
2.699967e+003;-1.629006e-002
2.701896e+003;-1.635646e-002
2.703824e+003;-1.633090e-002
2.705753e+003;-1.623305e-002
2.707681e+003;-1.599357e-002
2.709610e+003;-1.616228e-002
2.711539e+003;-1.636524e-002
2.713467e+003;-1.602375e-002
2.715396e+003;-1.588117e-002
2.717324e+003;-1.597485e-002
2.719253e+003;-1.608307e-002
2.721181e+003;-1.618709e-002
2.723110e+003;-1.616164e-002
2.725038e+003;-1.604884e-002
2.726967e+003;-1.598232e-002
2.728896e+003;-1.592733e-002
2.730824e+003;-1.595294e-002
2.732752e+003;-1.590391e-002
2.734681e+003;-1.575018e-002
2.736610e+003;-1.577772e-002
2.738538e+003;-1.589538e-002
2.740467e+003;-1.593681e-002
2.742395e+003;-1.578596e-002
2.744324e+003;-1.575465e-002
2.746252e+003;-1.587657e-002
2.748181e+003;-1.585782e-002
2.750109e+003;-1.575433e-002
2.752038e+003;-1.570410e-002
2.753967e+003;-1.552500e-002
2.755895e+003;-1.539518e-002
2.757824e+003;-1.550924e-002
2.759752e+003;-1.577488e-002
2.761681e+003;-1.586238e-002
2.763609e+003;-1.563577e-002
2.765538e+003;-1.545700e-002
2.767466e+003;-1.530742e-002
2.769395e+003;-1.518381e-002
2.771323e+003;-1.536266e-002
2.773252e+003;-1.556819e-002
2.775181e+003;-1.535697e-002
2.777109e+003;-1.524616e-002
2.779038e+003;-1.520128e-002
2.780966e+003;-1.510778e-002
2.782895e+003;-1.504105e-002
2.784823e+003;-1.527169e-002
2.786752e+003;-1.515543e-002
2.788680e+003;-1.466392e-002
2.790609e+003;-1.459584e-002
2.792538e+003;-1.489393e-002
2.794466e+003;-1.508362e-002
2.796395e+003;-1.495165e-002
2.798323e+003;-1.493699e-002
2.800252e+003;-1.496289e-002
2.802180e+003;-1.475047e-002
2.804109e+003;-1.449177e-002
2.806037e+003;-1.448872e-002
2.807966e+003;-1.439741e-002
2.809895e+003;-1.416355e-002
2.811823e+003;-1.401375e-002
2.813751e+003;-1.410999e-002
2.815680e+003;-1.422265e-002
2.817609e+003;-1.404324e-002
2.819537e+003;-1.399216e-002
2.821466e+003;-1.407888e-002
2.823394e+003;-1.392337e-002
2.825323e+003;-1.374470e-002
2.827251e+003;-1.386358e-002
2.829180e+003;-1.381872e-002
2.831108e+003;-1.372441e-002
2.833037e+003;-1.387206e-002
2.834966e+003;-1.400528e-002
2.836894e+003;-1.418841e-002
2.838823e+003;-1.458684e-002
2.840751e+003;-1.541444e-002
2.842680e+003;-1.616803e-002
2.844608e+003;-1.731314e-002
2.846537e+003;-1.931974e-002
2.848465e+003;-2.128768e-002
2.850394e+003;-2.240481e-002
2.852323e+003;-2.227489e-002
2.854251e+003;-2.143682e-002
2.856180e+003;-2.011889e-002
2.858108e+003;-1.851940e-002
2.860037e+003;-1.711706e-002
2.861965e+003;-1.580213e-002
2.863894e+003;-1.437453e-002
2.865822e+003;-1.323096e-002
2.867751e+003;-1.269637e-002
2.869679e+003;-1.248583e-002
2.871608e+003;-1.234531e-002
2.873536e+003;-1.255549e-002
2.875465e+003;-1.278775e-002
2.877394e+003;-1.262611e-002
2.879322e+003;-1.210309e-002
2.881251e+003;-1.195529e-002
2.883179e+003;-1.222632e-002
2.885108e+003;-1.266251e-002
2.887036e+003;-1.312321e-002
2.888965e+003;-1.343438e-002
2.890893e+003;-1.350592e-002
2.892822e+003;-1.399672e-002
2.894750e+003;-1.471665e-002
2.896679e+003;-1.476542e-002
2.898608e+003;-1.515799e-002
2.900536e+003;-1.558255e-002
2.902465e+003;-1.577513e-002
2.904393e+003;-1.627142e-002
2.906322e+003;-1.687255e-002
2.908250e+003;-1.733046e-002
2.910179e+003;-1.806491e-002
2.912107e+003;-1.932459e-002
2.914036e+003;-2.086936e-002
2.915965e+003;-2.237508e-002
2.917893e+003;-2.341863e-002
2.919822e+003;-2.444891e-002
2.921750e+003;-2.519432e-002
2.923679e+003;-2.514257e-002
2.925607e+003;-2.458454e-002
2.927536e+003;-2.393216e-002
2.929464e+003;-2.264057e-002
2.931393e+003;-2.149163e-002
2.933322e+003;-2.047083e-002
2.935250e+003;-1.920401e-002
2.937178e+003;-1.801558e-002
2.939107e+003;-1.681489e-002
2.941036e+003;-1.581977e-002
2.942964e+003;-1.497956e-002
2.944893e+003;-1.454756e-002
2.946821e+003;-1.464681e-002
2.948750e+003;-1.489092e-002
2.950678e+003;-1.521222e-002
2.952607e+003;-1.545115e-002
2.954535e+003;-1.535953e-002
2.956464e+003;-1.522710e-002
2.958393e+003;-1.529204e-002
2.960321e+003;-1.525535e-002
2.962250e+003;-1.513889e-002
2.964178e+003;-1.442014e-002
2.966107e+003;-1.339805e-002
2.968035e+003;-1.302708e-002
2.969964e+003;-1.284745e-002
2.971892e+003;-1.237996e-002
2.973821e+003;-1.216782e-002
2.975750e+003;-1.230846e-002
2.977678e+003;-1.250721e-002
2.979607e+003;-1.215812e-002
2.981535e+003;-1.206548e-002
2.983464e+003;-1.249478e-002
2.985392e+003;-1.259451e-002
2.987321e+003;-1.254217e-002
2.989249e+003;-1.289586e-002
2.991178e+003;-1.323944e-002
2.993106e+003;-1.361479e-002
2.995035e+003;-1.409369e-002
2.996964e+003;-1.448449e-002
2.998892e+003;-1.474432e-002
3.000821e+003;-1.489617e-002
3.002749e+003;-1.486146e-002
3.004678e+003;-1.505622e-002
3.006606e+003;-1.540839e-002
3.008535e+003;-1.551995e-002
3.010463e+003;-1.568352e-002
3.012392e+003;-1.567259e-002
3.014321e+003;-1.537955e-002
3.016249e+003;-1.521491e-002
3.018177e+003;-1.507053e-002
3.020106e+003;-1.528465e-002
3.022035e+003;-1.552603e-002
3.023963e+003;-1.559383e-002
3.025892e+003;-1.557833e-002
3.027820e+003;-1.528350e-002
3.029749e+003;-1.532936e-002
3.031677e+003;-1.539448e-002
3.033606e+003;-1.534161e-002
3.035534e+003;-1.548693e-002
3.037463e+003;-1.570004e-002
3.039392e+003;-1.572561e-002
3.041320e+003;-1.576011e-002
3.043249e+003;-1.598466e-002
3.045177e+003;-1.602094e-002
3.047106e+003;-1.583823e-002
3.049034e+003;-1.563267e-002
3.050963e+003;-1.553997e-002
3.052891e+003;-1.584657e-002
3.054820e+003;-1.590506e-002
3.056749e+003;-1.555186e-002
3.058677e+003;-1.571407e-002
3.060606e+003;-1.614603e-002
3.062534e+003;-1.621042e-002
3.064463e+003;-1.599021e-002
3.066391e+003;-1.613314e-002
3.068320e+003;-1.631179e-002
3.070248e+003;-1.602164e-002
3.072177e+003;-1.602665e-002
3.074105e+003;-1.635876e-002
3.076034e+003;-1.652383e-002
3.077963e+003;-1.646791e-002
3.079891e+003;-1.654574e-002
3.081820e+003;-1.665771e-002
3.083748e+003;-1.664537e-002
3.085677e+003;-1.676334e-002
3.087605e+003;-1.673229e-002
3.089534e+003;-1.655949e-002
3.091462e+003;-1.644022e-002
3.093391e+003;-1.645378e-002
3.095320e+003;-1.665742e-002
3.097248e+003;-1.667187e-002
3.099177e+003;-1.679241e-002
3.101105e+003;-1.714869e-002
3.103034e+003;-1.705812e-002
3.104962e+003;-1.712690e-002
3.106891e+003;-1.722856e-002
3.108819e+003;-1.728766e-002
3.110748e+003;-1.717700e-002
3.112677e+003;-1.704025e-002
3.114605e+003;-1.740979e-002
3.116533e+003;-1.755864e-002
3.118462e+003;-1.737124e-002
3.120391e+003;-1.716292e-002
3.122319e+003;-1.704048e-002
3.124248e+003;-1.736042e-002
3.126176e+003;-1.786338e-002
3.128105e+003;-1.814687e-002
3.130033e+003;-1.813403e-002
3.131962e+003;-1.795756e-002
3.133890e+003;-1.789690e-002
3.135819e+003;-1.820874e-002
3.137748e+003;-1.830233e-002
3.139676e+003;-1.813273e-002
3.141605e+003;-1.820245e-002
3.143533e+003;-1.830818e-002
3.145462e+003;-1.800407e-002
3.147390e+003;-1.766240e-002
3.149319e+003;-1.802610e-002
3.151247e+003;-1.847606e-002
3.153176e+003;-1.829414e-002
3.155104e+003;-1.796710e-002
3.157033e+003;-1.816336e-002
3.158962e+003;-1.835652e-002
3.160890e+003;-1.836256e-002
3.162819e+003;-1.832775e-002
3.164747e+003;-1.816867e-002
3.166676e+003;-1.795864e-002
3.168604e+003;-1.788691e-002
3.170533e+003;-1.795832e-002
3.172461e+003;-1.800877e-002
3.174390e+003;-1.814369e-002
3.176319e+003;-1.826961e-002
3.178247e+003;-1.846644e-002
3.180176e+003;-1.863947e-002
3.182104e+003;-1.873040e-002
3.184033e+003;-1.888439e-002
3.185961e+003;-1.876905e-002
3.187890e+003;-1.906356e-002
3.189818e+003;-1.931746e-002
3.191747e+003;-1.905607e-002
3.193676e+003;-1.864026e-002
3.195604e+003;-1.892823e-002
3.197532e+003;-1.905649e-002
3.199461e+003;-1.905091e-002
3.201390e+003;-1.898814e-002
3.203318e+003;-1.907164e-002
3.205247e+003;-1.935254e-002
3.207175e+003;-1.922167e-002
3.209104e+003;-1.933064e-002
3.211032e+003;-1.995056e-002
3.212961e+003;-2.010579e-002
3.214889e+003;-1.971369e-002
3.216818e+003;-1.933872e-002
3.218747e+003;-1.944244e-002
3.220675e+003;-1.967610e-002
3.222604e+003;-1.969136e-002
3.224532e+003;-1.971635e-002
3.226461e+003;-1.978695e-002
3.228389e+003;-1.982836e-002
3.230318e+003;-2.014777e-002
3.232246e+003;-2.009453e-002
3.234175e+003;-1.986530e-002
3.236104e+003;-1.993692e-002
3.238032e+003;-2.003673e-002
3.239961e+003;-1.970640e-002
3.241889e+003;-1.969909e-002
3.243818e+003;-1.977866e-002
3.245746e+003;-1.996158e-002
3.247675e+003;-2.033809e-002
3.249603e+003;-2.024284e-002
3.251532e+003;-1.997176e-002
3.253460e+003;-2.013565e-002
3.255389e+003;-2.035121e-002
3.257318e+003;-2.018079e-002
3.259246e+003;-2.009991e-002
3.261175e+003;-2.065807e-002
3.263103e+003;-2.132510e-002
3.265032e+003;-2.123322e-002
3.266960e+003;-2.125585e-002
3.268889e+003;-2.134983e-002
3.270817e+003;-2.106009e-002
3.272746e+003;-2.079100e-002
3.274675e+003;-2.098366e-002
3.276603e+003;-2.129364e-002
3.278531e+003;-2.165286e-002
3.280460e+003;-2.156406e-002
3.282389e+003;-2.104020e-002
3.284317e+003;-2.107133e-002
3.286246e+003;-2.152736e-002
3.288174e+003;-2.125329e-002
3.290103e+003;-2.086061e-002
3.292031e+003;-2.097451e-002
3.293960e+003;-2.133131e-002
3.295888e+003;-2.132806e-002
3.297817e+003;-2.121000e-002
3.299746e+003;-2.122975e-002
3.301674e+003;-2.123546e-002
3.303603e+003;-2.144988e-002
3.305531e+003;-2.155381e-002
3.307460e+003;-2.180181e-002
3.309388e+003;-2.199957e-002
3.311317e+003;-2.164788e-002
3.313245e+003;-2.152991e-002
3.315174e+003;-2.196511e-002
3.317103e+003;-2.207689e-002
3.319031e+003;-2.170289e-002
3.320960e+003;-2.169876e-002
3.322888e+003;-2.182491e-002
3.324817e+003;-2.181587e-002
3.326745e+003;-2.205065e-002
3.328674e+003;-2.203834e-002
3.330602e+003;-2.159149e-002
3.332531e+003;-2.148665e-002
3.334459e+003;-2.205075e-002
3.336388e+003;-2.260720e-002
3.338317e+003;-2.296688e-002
3.340245e+003;-2.327159e-002
3.342174e+003;-2.311532e-002
3.344102e+003;-2.254193e-002
3.346031e+003;-2.208174e-002
3.347959e+003;-2.243811e-002
3.349888e+003;-2.257018e-002
3.351816e+003;-2.253224e-002
3.353745e+003;-2.258562e-002
3.355674e+003;-2.247363e-002
3.357602e+003;-2.236258e-002
3.359531e+003;-2.232381e-002
3.361459e+003;-2.209267e-002
3.363388e+003;-2.194246e-002
3.365316e+003;-2.225613e-002
3.367245e+003;-2.260487e-002
3.369173e+003;-2.257367e-002
3.371102e+003;-2.241218e-002
3.373031e+003;-2.247476e-002
3.374959e+003;-2.279066e-002
3.376887e+003;-2.257716e-002
3.378816e+003;-2.188635e-002
3.380745e+003;-2.134245e-002
3.382673e+003;-2.146668e-002
3.384602e+003;-2.156803e-002
3.386530e+003;-2.156611e-002
3.388459e+003;-2.189247e-002
3.390387e+003;-2.228031e-002
3.392316e+003;-2.245765e-002
3.394244e+003;-2.226523e-002
3.396173e+003;-2.250103e-002
3.398102e+003;-2.237678e-002
3.400030e+003;-2.176277e-002
3.401959e+003;-2.164981e-002
3.403887e+003;-2.196221e-002
3.405816e+003;-2.225525e-002
3.407744e+003;-2.216710e-002
3.409673e+003;-2.152755e-002
3.411601e+003;-2.155416e-002
3.413530e+003;-2.171761e-002
3.415458e+003;-2.144890e-002
3.417387e+003;-2.172300e-002
3.419316e+003;-2.185028e-002
3.421244e+003;-2.121912e-002
3.423173e+003;-2.106596e-002
3.425101e+003;-2.128023e-002
3.427030e+003;-2.133620e-002
3.428958e+003;-2.116437e-002
3.430887e+003;-2.117926e-002
3.432815e+003;-2.148182e-002
3.434744e+003;-2.152307e-002
3.436673e+003;-2.084814e-002
3.438601e+003;-2.088092e-002
3.440530e+003;-2.097627e-002
3.442458e+003;-2.085859e-002
3.444387e+003;-2.087770e-002
3.446315e+003;-2.039209e-002
3.448244e+003;-1.971660e-002
3.450172e+003;-1.978499e-002
3.452101e+003;-2.005068e-002
3.454030e+003;-2.001230e-002
3.455958e+003;-2.005612e-002
3.457886e+003;-1.989739e-002
3.459815e+003;-1.975694e-002
3.461744e+003;-1.997819e-002
3.463672e+003;-2.011671e-002
3.465601e+003;-2.041763e-002
3.467529e+003;-2.037574e-002
3.469458e+003;-1.981699e-002
3.471386e+003;-1.969557e-002
3.473315e+003;-1.988356e-002
3.475243e+003;-2.013610e-002
3.477172e+003;-2.036237e-002
3.479101e+003;-1.988885e-002
3.481029e+003;-1.928846e-002
3.482958e+003;-1.923017e-002
3.484886e+003;-1.929622e-002
3.486815e+003;-1.935283e-002
3.488743e+003;-1.923765e-002
3.490672e+003;-1.917526e-002
3.492600e+003;-1.936734e-002
3.494529e+003;-1.915719e-002
3.496458e+003;-1.891484e-002
3.498386e+003;-1.900980e-002
3.500315e+003;-1.919137e-002
3.502243e+003;-1.935793e-002
3.504172e+003;-1.917964e-002
3.506100e+003;-1.927597e-002
3.508029e+003;-1.989553e-002
3.509957e+003;-1.986511e-002
3.511886e+003;-1.936179e-002
3.513814e+003;-1.901038e-002
3.515743e+003;-1.919137e-002
3.517672e+003;-1.922554e-002
3.519600e+003;-1.904298e-002
3.521529e+003;-1.960374e-002
3.523457e+003;-2.010677e-002
3.525386e+003;-1.969152e-002
3.527314e+003;-1.943651e-002
3.529243e+003;-1.927537e-002
3.531171e+003;-1.921590e-002
3.533100e+003;-1.903213e-002
3.535029e+003;-1.892328e-002
3.536957e+003;-1.875991e-002
3.538885e+003;-1.880929e-002
3.540814e+003;-1.915656e-002
3.542743e+003;-1.972765e-002
3.544671e+003;-2.011351e-002
3.546600e+003;-1.964754e-002
3.548528e+003;-1.913712e-002
3.550457e+003;-1.941164e-002
3.552385e+003;-1.915580e-002
3.554314e+003;-1.858941e-002
3.556242e+003;-1.849610e-002
3.558171e+003;-1.877895e-002
3.560100e+003;-1.888454e-002
3.562028e+003;-1.916971e-002
3.563957e+003;-1.998825e-002
3.565885e+003;-2.084233e-002
3.567814e+003;-2.009162e-002
3.569742e+003;-1.841293e-002
3.571671e+003;-1.801160e-002
3.573599e+003;-1.874386e-002
3.575528e+003;-1.880504e-002
3.577457e+003;-1.822186e-002
3.579385e+003;-1.778302e-002
3.581314e+003;-1.771311e-002
3.583242e+003;-1.804428e-002
3.585171e+003;-1.946740e-002
3.587099e+003;-2.028693e-002
3.589028e+003;-1.922640e-002
3.590956e+003;-1.850880e-002
3.592885e+003;-1.924377e-002
3.594813e+003;-1.920538e-002
3.596742e+003;-1.832921e-002
3.598671e+003;-1.832832e-002
3.600599e+003;-1.875649e-002
3.602528e+003;-1.852185e-002
3.604456e+003;-1.832238e-002
3.606385e+003;-1.930681e-002
3.608313e+003;-2.066885e-002
3.610242e+003;-1.993455e-002
3.612170e+003;-1.925359e-002
3.614099e+003;-1.910697e-002
3.616028e+003;-1.928003e-002
3.617956e+003;-2.046243e-002
3.619885e+003;-2.016694e-002
3.621813e+003;-1.840985e-002
3.623742e+003;-1.782226e-002
3.625670e+003;-1.923505e-002
3.627599e+003;-2.325723e-002
3.629527e+003;-2.318367e-002
3.631456e+003;-1.937301e-002
3.633385e+003;-1.848860e-002
3.635313e+003;-1.808242e-002
3.637241e+003;-1.753468e-002
3.639170e+003;-1.772860e-002
3.641099e+003;-1.792914e-002
3.643027e+003;-1.813635e-002
3.644956e+003;-1.913100e-002
3.646884e+003;-2.228365e-002
3.648813e+003;-2.449686e-002
3.650741e+003;-2.217469e-002
3.652670e+003;-1.896496e-002
3.654598e+003;-1.992154e-002
3.656527e+003;-2.009038e-002
3.658456e+003;-1.797250e-002
3.660384e+003;-1.732062e-002
3.662313e+003;-1.739731e-002
3.664241e+003;-1.761821e-002
3.666170e+003;-1.865705e-002
3.668098e+003;-2.156065e-002
3.670027e+003;-2.365782e-002
3.671955e+003;-2.135569e-002
3.673884e+003;-2.308739e-002
3.675813e+003;-2.453052e-002
3.677741e+003;-2.036917e-002
3.679669e+003;-1.786764e-002
3.681598e+003;-1.688271e-002
3.683527e+003;-1.701215e-002
3.685455e+003;-1.886602e-002
3.687384e+003;-2.294862e-002
3.689312e+003;-2.351343e-002
3.691241e+003;-2.091549e-002
3.693169e+003;-1.864026e-002
3.695098e+003;-1.780614e-002
3.697026e+003;-1.721783e-002
3.698955e+003;-1.728903e-002
3.700884e+003;-1.843011e-002
3.702812e+003;-1.793855e-002
3.704741e+003;-1.740422e-002
3.706669e+003;-1.848365e-002
3.708598e+003;-2.022292e-002
3.710526e+003;-2.224140e-002
3.712455e+003;-2.178209e-002
3.714383e+003;-1.870968e-002
3.716312e+003;-1.761929e-002
3.718240e+003;-1.765289e-002
3.720169e+003;-1.814890e-002
3.722098e+003;-1.888337e-002
3.724026e+003;-1.920890e-002
3.725955e+003;-1.908683e-002
3.727883e+003;-1.817016e-002
3.729812e+003;-1.907992e-002
3.731740e+003;-2.178877e-002
3.733669e+003;-2.251670e-002
3.735597e+003;-2.275397e-002
3.737526e+003;-2.080165e-002
3.739455e+003;-1.896623e-002
3.741383e+003;-2.038997e-002
3.743312e+003;-2.684490e-002
3.745240e+003;-2.626500e-002
3.747169e+003;-2.300195e-002
3.749097e+003;-2.566144e-002
3.751026e+003;-2.636125e-002
3.752954e+003;-2.331565e-002
3.754883e+003;-1.960462e-002
3.756812e+003;-1.918230e-002
3.758740e+003;-1.946952e-002
3.760668e+003;-1.883102e-002
3.762597e+003;-1.774892e-002
3.764526e+003;-1.849423e-002
3.766454e+003;-1.892382e-002
3.768383e+003;-1.951074e-002
3.770311e+003;-1.894675e-002
3.772240e+003;-1.767159e-002
3.774168e+003;-1.736936e-002
3.776097e+003;-1.728381e-002
3.778025e+003;-1.784230e-002
3.779954e+003;-1.821341e-002
3.781883e+003;-1.763501e-002
3.783811e+003;-1.777822e-002
3.785740e+003;-1.785219e-002
3.787668e+003;-1.766991e-002
3.789597e+003;-1.724945e-002
3.791525e+003;-1.694839e-002
3.793454e+003;-1.739047e-002
3.795382e+003;-1.893720e-002
3.797311e+003;-1.941471e-002
3.799240e+003;-2.179750e-002
3.801168e+003;-2.396597e-002
3.803097e+003;-2.066335e-002
3.805025e+003;-2.000926e-002
3.806954e+003;-2.089206e-002
3.808882e+003;-1.834639e-002
3.810811e+003;-1.679363e-002
3.812739e+003;-1.796805e-002
3.814668e+003;-2.246992e-002
3.816596e+003;-2.290958e-002
3.818525e+003;-2.086907e-002
3.820454e+003;-2.232290e-002
3.822382e+003;-2.070799e-002
3.824311e+003;-1.861030e-002
3.826239e+003;-1.887988e-002
3.828168e+003;-1.819778e-002
3.830096e+003;-1.861684e-002
3.832025e+003;-2.005533e-002
3.833953e+003;-2.072312e-002
3.835882e+003;-2.292297e-002
3.837811e+003;-2.394925e-002
3.839739e+003;-2.122963e-002
3.841667e+003;-1.885123e-002
3.843596e+003;-1.749550e-002
3.845525e+003;-1.693683e-002
3.847453e+003;-1.694635e-002
3.849382e+003;-1.913598e-002
3.851310e+003;-2.498372e-002
3.853239e+003;-2.972830e-002
3.855167e+003;-2.501244e-002
3.857096e+003;-1.944250e-002
3.859024e+003;-1.832298e-002
3.860953e+003;-1.884974e-002
3.862882e+003;-1.944215e-002
3.864810e+003;-1.937323e-002
3.866739e+003;-1.923546e-002
3.868667e+003;-2.186134e-002
3.870596e+003;-2.188478e-002
3.872524e+003;-1.962432e-002
3.874453e+003;-1.880662e-002
3.876381e+003;-1.764003e-002
3.878310e+003;-1.843541e-002
3.880239e+003;-1.936629e-002
3.882167e+003;-1.880136e-002
3.884096e+003;-2.033657e-002
3.886024e+003;-2.031453e-002
3.887953e+003;-1.791607e-002
3.889881e+003;-1.861550e-002
3.891810e+003;-1.877042e-002
3.893738e+003;-1.730858e-002
3.895667e+003;-1.703273e-002
3.897595e+003;-1.835265e-002
3.899524e+003;-1.976925e-002
3.901453e+003;-2.025328e-002
3.903381e+003;-2.047608e-002
3.905310e+003;-1.877718e-002
3.907238e+003;-1.649056e-002
3.909167e+003;-1.617320e-002
3.911095e+003;-1.651129e-002
3.913024e+003;-1.683012e-002
3.914952e+003;-1.797212e-002
3.916881e+003;-1.855379e-002
3.918810e+003;-1.772367e-002
3.920738e+003;-1.725299e-002
3.922667e+003;-1.737554e-002
3.924595e+003;-1.754470e-002
3.926524e+003;-1.718592e-002
3.928452e+003;-1.694342e-002
3.930381e+003;-1.733609e-002
3.932309e+003;-1.747838e-002
3.934238e+003;-1.634654e-002
3.936167e+003;-1.607254e-002
3.938095e+003;-1.650294e-002
3.940023e+003;-1.694903e-002
3.941952e+003;-1.760338e-002
3.943881e+003;-1.796999e-002
3.945809e+003;-1.767325e-002
3.947738e+003;-1.735468e-002
3.949666e+003;-1.677246e-002
3.951595e+003;-1.643275e-002
3.953523e+003;-1.662270e-002
3.955452e+003;-1.680889e-002
3.957380e+003;-1.689536e-002
3.959309e+003;-1.685686e-002
3.961238e+003;-1.670688e-002
3.963166e+003;-1.673742e-002
3.965095e+003;-1.693271e-002
3.967023e+003;-1.662464e-002
3.968952e+003;-1.632535e-002
3.970880e+003;-1.659285e-002
3.972809e+003;-1.645961e-002
3.974737e+003;-1.572637e-002
3.976666e+003;-1.575970e-002
3.978594e+003;-1.607155e-002
3.980523e+003;-1.628472e-002
3.982452e+003;-1.621026e-002
3.984380e+003;-1.632851e-002
3.986309e+003;-1.648820e-002
3.988237e+003;-1.617620e-002
3.990166e+003;-1.630132e-002
3.992094e+003;-1.617046e-002
3.994023e+003;-1.573835e-002
3.995951e+003;-1.586309e-002
3.997880e+003;-1.578456e-002
3.999809e+003;-1.595847e-002
4.001737e+003;0.000000e+000
