3.992094e+002;0.000000e+000
4.011380e+002;0.000000e+000
4.030665e+002;0.000000e+000
4.049951e+002;0.000000e+000
4.069236e+002;0.000000e+000
4.088522e+002;0.000000e+000
4.107807e+002;0.000000e+000
4.127093e+002;0.000000e+000
4.146378e+002;0.000000e+000
4.165664e+002;0.000000e+000
4.184949e+002;0.000000e+000
4.204235e+002;0.000000e+000
4.223520e+002;0.000000e+000
4.242806e+002;0.000000e+000
4.262091e+002;0.000000e+000
4.281377e+002;0.000000e+000
4.300662e+002;0.000000e+000
4.319948e+002;0.000000e+000
4.339233e+002;0.000000e+000
4.358519e+002;0.000000e+000
4.377804e+002;0.000000e+000
4.397090e+002;0.000000e+000
4.416375e+002;0.000000e+000
4.435660e+002;0.000000e+000
4.454946e+002;0.000000e+000
4.474232e+002;0.000000e+000
4.493517e+002;0.000000e+000
4.512802e+002;0.000000e+000
4.532088e+002;0.000000e+000
4.551373e+002;0.000000e+000
4.570659e+002;0.000000e+000
4.589944e+002;0.000000e+000
4.609230e+002;0.000000e+000
4.628515e+002;0.000000e+000
4.647801e+002;0.000000e+000
4.667086e+002;0.000000e+000
4.686372e+002;0.000000e+000
4.705657e+002;0.000000e+000
4.724943e+002;0.000000e+000
4.744228e+002;0.000000e+000
4.763513e+002;0.000000e+000
4.782799e+002;0.000000e+000
4.802085e+002;0.000000e+000
4.821370e+002;0.000000e+000
4.840656e+002;0.000000e+000
4.859941e+002;0.000000e+000
4.879226e+002;0.000000e+000
4.898512e+002;0.000000e+000
4.917798e+002;0.000000e+000
4.937083e+002;0.000000e+000
4.956368e+002;0.000000e+000
4.975654e+002;0.000000e+000
4.994939e+002;0.000000e+000
5.014225e+002;0.000000e+000
5.033510e+002;0.000000e+000
5.052796e+002;0.000000e+000
5.072081e+002;0.000000e+000
5.091367e+002;0.000000e+000
5.110652e+002;0.000000e+000
5.129938e+002;0.000000e+000
5.149223e+002;0.000000e+000
5.168509e+002;0.000000e+000
5.187794e+002;0.000000e+000
5.207079e+002;0.000000e+000
5.226365e+002;0.000000e+000
5.245651e+002;0.000000e+000
5.264936e+002;0.000000e+000
5.284222e+002;0.000000e+000
5.303507e+002;0.000000e+000
5.322792e+002;0.000000e+000
5.342078e+002;0.000000e+000
5.361364e+002;0.000000e+000
5.380649e+002;0.000000e+000
5.399935e+002;0.000000e+000
5.419220e+002;0.000000e+000
5.438505e+002;0.000000e+000
5.457791e+002;0.000000e+000
5.477076e+002;0.000000e+000
5.496362e+002;0.000000e+000
5.515648e+002;0.000000e+000
5.534933e+002;0.000000e+000
5.554218e+002;0.000000e+000
5.573504e+002;0.000000e+000
5.592789e+002;0.000000e+000
5.612075e+002;0.000000e+000
5.631360e+002;0.000000e+000
5.650646e+002;0.000000e+000
5.669931e+002;0.000000e+000
5.689217e+002;0.000000e+000
5.708502e+002;0.000000e+000
5.727787e+002;0.000000e+000
5.747073e+002;0.000000e+000
5.766359e+002;0.000000e+000
5.785644e+002;0.000000e+000
5.804930e+002;0.000000e+000
5.824215e+002;0.000000e+000
5.843500e+002;0.000000e+000
5.862786e+002;0.000000e+000
5.882072e+002;0.000000e+000
5.901357e+002;0.000000e+000
5.920643e+002;0.000000e+000
5.939928e+002;0.000000e+000
5.959213e+002;0.000000e+000
5.978499e+002;0.000000e+000
5.997784e+002;8.078105e-002
6.017070e+002;8.379565e-002
6.036355e+002;8.133417e-002
6.055641e+002;8.071142e-002
6.074926e+002;8.247199e-002
6.094211e+002;8.458481e-002
6.113497e+002;8.677221e-002
6.132783e+002;8.789060e-002
6.152068e+002;8.987924e-002
6.171354e+002;8.432699e-002
6.190639e+002;8.003992e-002
6.209924e+002;8.103517e-002
6.229210e+002;8.268490e-002
6.248495e+002;8.371492e-002
6.267781e+002;8.619241e-002
6.287067e+002;8.812566e-002
6.306352e+002;8.560055e-002
6.325637e+002;8.331233e-002
6.344923e+002;8.889370e-002
6.364208e+002;9.465963e-002
6.383494e+002;9.223852e-002
6.402780e+002;8.935987e-002
6.422065e+002;8.968277e-002
6.441350e+002;8.439241e-002
6.460636e+002;8.424037e-002
6.479921e+002;8.954544e-002
6.499207e+002;9.112221e-002
6.518492e+002;9.163686e-002
6.537778e+002;9.231900e-002
6.557063e+002;9.328286e-002
6.576349e+002;9.644130e-002
6.595634e+002;9.675340e-002
6.614919e+002;9.612929e-002
6.634205e+002;9.385740e-002
6.653491e+002;9.112254e-002
6.672776e+002;8.971760e-002
6.692062e+002;9.361202e-002
6.711347e+002;9.675137e-002
6.730632e+002;9.516557e-002
6.749918e+002;9.343054e-002
6.769203e+002;9.536507e-002
6.788489e+002;9.850457e-002
6.807775e+002;1.008933e-001
6.827060e+002;1.020203e-001
6.846345e+002;1.014304e-001
6.865631e+002;1.010803e-001
6.884916e+002;1.017661e-001
6.904202e+002;1.028807e-001
6.923488e+002;1.030973e-001
6.942773e+002;1.032094e-001
6.962058e+002;1.031993e-001
6.981344e+002;1.034595e-001
7.000629e+002;1.034518e-001
7.019915e+002;1.029532e-001
7.039200e+002;1.032196e-001
7.058486e+002;1.040236e-001
7.077771e+002;1.043479e-001
7.097057e+002;1.049739e-001
7.116342e+002;1.049701e-001
7.135627e+002;1.042877e-001
7.154913e+002;1.053041e-001
7.174199e+002;1.061040e-001
7.193484e+002;1.055024e-001
7.212770e+002;1.048790e-001
7.232055e+002;1.048355e-001
7.251340e+002;1.056289e-001
7.270626e+002;1.059608e-001
7.289911e+002;1.064619e-001
7.309197e+002;1.065735e-001
7.328483e+002;1.067780e-001
7.347768e+002;1.070843e-001
7.367053e+002;1.073073e-001
7.386339e+002;1.089340e-001
7.405624e+002;1.091638e-001
7.424910e+002;1.085124e-001
7.444196e+002;1.090730e-001
7.463481e+002;1.093947e-001
7.482766e+002;1.096739e-001
7.502052e+002;1.094550e-001
7.521337e+002;1.094445e-001
7.540623e+002;1.102331e-001
7.559908e+002;1.097418e-001
7.579194e+002;1.090216e-001
7.598479e+002;1.089138e-001
7.617765e+002;1.097319e-001
7.637050e+002;1.103465e-001
7.656335e+002;1.094054e-001
7.675621e+002;1.089376e-001
7.694907e+002;1.096241e-001
7.714192e+002;1.098720e-001
7.733478e+002;1.097160e-001
7.752763e+002;1.086717e-001
7.772048e+002;1.080716e-001
7.791334e+002;1.077138e-001
7.810620e+002;1.072233e-001
7.829905e+002;1.066472e-001
7.849191e+002;1.072263e-001
7.868476e+002;1.080945e-001
7.887761e+002;1.079851e-001
7.907047e+002;1.072341e-001
7.926332e+002;1.055355e-001
7.945618e+002;1.045744e-001
7.964903e+002;1.039111e-001
7.984189e+002;1.025591e-001
8.003474e+002;1.019431e-001
8.022759e+002;1.021061e-001
8.042045e+002;1.023995e-001
8.061331e+002;1.015818e-001
8.080616e+002;1.005814e-001
8.099902e+002;1.003979e-001
8.119187e+002;1.013704e-001
8.138472e+002;1.027060e-001
8.157758e+002;1.036811e-001
8.177043e+002;1.043461e-001
8.196329e+002;1.055582e-001
8.215615e+002;1.075271e-001
8.234900e+002;1.091831e-001
8.254185e+002;1.112635e-001
8.273471e+002;1.137869e-001
8.292756e+002;1.151785e-001
8.312042e+002;1.166740e-001
8.331328e+002;1.188689e-001
8.350613e+002;1.207988e-001
8.369898e+002;1.237054e-001
8.389184e+002;1.270877e-001
8.408469e+002;1.300326e-001
8.427755e+002;1.330086e-001
8.447040e+002;1.369819e-001
8.466326e+002;1.407654e-001
8.485611e+002;1.442194e-001
8.504897e+002;1.479872e-001
8.524182e+002;1.515160e-001
8.543467e+002;1.559862e-001
8.562753e+002;1.601496e-001
8.582039e+002;1.632504e-001
8.601324e+002;1.675125e-001
8.620610e+002;1.732244e-001
8.639895e+002;1.777627e-001
8.659180e+002;1.812010e-001
8.678466e+002;1.851976e-001
8.697751e+002;1.888610e-001
8.717037e+002;1.916927e-001
8.736323e+002;1.947086e-001
8.755608e+002;1.976610e-001
8.774893e+002;2.013490e-001
8.794179e+002;2.052517e-001
8.813464e+002;2.085160e-001
8.832750e+002;2.119346e-001
8.852036e+002;2.143632e-001
8.871321e+002;2.163188e-001
8.890606e+002;2.187751e-001
8.909892e+002;2.203309e-001
8.929177e+002;2.225380e-001
8.948463e+002;2.250639e-001
8.967748e+002;2.270042e-001
8.987034e+002;2.286571e-001
9.006319e+002;2.307964e-001
9.025605e+002;2.325145e-001
9.044890e+002;2.335420e-001
9.064175e+002;2.351474e-001
9.083461e+002;2.361435e-001
9.102747e+002;2.368422e-001
9.122032e+002;2.381282e-001
9.141318e+002;2.393584e-001
9.160603e+002;2.410064e-001
9.179888e+002;2.417893e-001
9.199174e+002;2.428826e-001
9.218459e+002;2.441335e-001
9.237745e+002;2.447804e-001
9.257031e+002;2.450462e-001
9.276316e+002;2.451265e-001
9.295601e+002;2.455253e-001
9.314887e+002;2.465900e-001
9.334172e+002;2.473757e-001
9.353458e+002;2.473198e-001
9.372744e+002;2.469220e-001
9.392029e+002;2.465409e-001
9.411314e+002;2.460793e-001
9.430600e+002;2.456889e-001
9.449885e+002;2.451553e-001
9.469171e+002;2.448383e-001
9.488456e+002;2.444737e-001
9.507742e+002;2.437086e-001
9.527027e+002;2.431589e-001
9.546313e+002;2.420484e-001
9.565598e+002;2.411846e-001
9.584883e+002;2.410640e-001
9.604169e+002;2.407378e-001
9.623455e+002;2.401731e-001
9.642740e+002;2.397384e-001
9.662026e+002;2.389383e-001
9.681311e+002;2.379454e-001
9.700596e+002;2.373246e-001
9.719882e+002;2.368602e-001
9.739167e+002;2.361599e-001
9.758453e+002;2.354171e-001
9.777739e+002;2.343681e-001
9.797024e+002;2.328541e-001
9.816309e+002;2.322990e-001
9.835595e+002;2.317035e-001
9.854880e+002;2.308914e-001
9.874166e+002;2.297956e-001
9.893452e+002;2.285458e-001
9.912737e+002;2.271037e-001
9.932022e+002;2.257660e-001
9.951307e+002;2.248274e-001
9.970593e+002;2.239177e-001
9.989879e+002;2.229822e-001
1.000916e+003;2.216417e-001
1.002845e+003;2.203430e-001
1.004773e+003;2.191009e-001
1.006702e+003;2.177618e-001
1.008631e+003;2.169657e-001
1.010559e+003;2.158610e-001
1.012488e+003;2.138468e-001
1.014416e+003;2.114258e-001
1.016345e+003;2.099522e-001
1.018273e+003;2.089306e-001
1.020202e+003;2.068253e-001
1.022130e+003;2.045157e-001
1.024059e+003;2.024340e-001
1.025988e+003;2.009268e-001
1.027916e+003;1.993261e-001
1.029845e+003;1.972730e-001
1.031773e+003;1.951877e-001
1.033702e+003;1.934942e-001
1.035630e+003;1.918924e-001
1.037559e+003;1.899246e-001
1.039487e+003;1.881762e-001
1.041416e+003;1.866123e-001
1.043344e+003;1.845387e-001
1.045273e+003;1.825981e-001
1.047202e+003;1.815182e-001
1.049130e+003;1.800415e-001
1.051059e+003;1.778910e-001
1.052987e+003;1.753752e-001
1.054916e+003;1.727578e-001
1.056844e+003;1.705831e-001
1.058773e+003;1.691217e-001
1.060701e+003;1.680898e-001
1.062630e+003;1.668297e-001
1.064558e+003;1.648028e-001
1.066487e+003;1.625472e-001
1.068416e+003;1.608268e-001
1.070344e+003;1.597537e-001
1.072273e+003;1.583672e-001
1.074201e+003;1.564009e-001
1.076130e+003;1.542130e-001
1.078058e+003;1.524420e-001
1.079987e+003;1.508810e-001
1.081915e+003;1.492813e-001
1.083844e+003;1.475482e-001
1.085773e+003;1.462746e-001
1.087701e+003;1.448224e-001
1.089630e+003;1.424866e-001
1.091558e+003;1.402466e-001
1.093487e+003;1.388917e-001
1.095415e+003;1.374016e-001
1.097344e+003;1.357496e-001
1.099272e+003;1.347014e-001
1.101201e+003;1.338652e-001
1.103129e+003;1.323483e-001
1.105058e+003;1.299761e-001
1.106987e+003;1.280473e-001
1.108915e+003;1.263475e-001
1.110844e+003;1.247796e-001
1.112772e+003;1.235210e-001
1.114701e+003;1.221073e-001
1.116629e+003;1.208744e-001
1.118558e+003;1.197513e-001
1.120486e+003;1.183781e-001
1.122415e+003;1.170967e-001
1.124344e+003;1.160889e-001
1.126272e+003;1.147022e-001
1.128201e+003;1.135472e-001
1.130129e+003;1.124306e-001
1.132058e+003;1.112854e-001
1.133986e+003;1.104022e-001
1.135915e+003;1.090536e-001
1.137843e+003;1.077360e-001
1.139772e+003;1.065296e-001
1.141700e+003;1.054320e-001
1.143629e+003;1.041653e-001
1.145557e+003;1.024676e-001
1.147486e+003;1.005389e-001
1.149415e+003;9.891901e-002
1.151343e+003;9.761982e-002
1.153272e+003;9.601999e-002
1.155200e+003;9.455828e-002
1.157129e+003;9.307303e-002
1.159057e+003;9.186946e-002
1.160986e+003;9.071506e-002
1.162914e+003;8.893713e-002
1.164843e+003;8.787466e-002
1.166771e+003;8.739828e-002
1.168700e+003;8.656549e-002
1.170629e+003;8.517569e-002
1.172557e+003;8.421644e-002
1.174486e+003;8.358939e-002
1.176414e+003;8.299232e-002
1.178343e+003;8.235899e-002
1.180271e+003;8.140550e-002
1.182200e+003;8.019795e-002
1.184128e+003;7.937543e-002
1.186057e+003;7.835960e-002
1.187986e+003;7.664345e-002
1.189914e+003;7.500943e-002
1.191843e+003;7.368408e-002
1.193771e+003;7.252105e-002
1.195700e+003;7.142744e-002
1.197628e+003;7.037432e-002
1.199557e+003;6.910810e-002
1.201485e+003;6.770577e-002
1.203414e+003;6.650683e-002
1.205343e+003;6.579882e-002
1.207271e+003;6.504031e-002
1.209200e+003;6.439086e-002
1.211128e+003;6.386826e-002
1.213057e+003;6.374875e-002
1.214985e+003;6.387886e-002
1.216914e+003;6.398773e-002
1.218842e+003;6.401268e-002
1.220771e+003;6.437741e-002
1.222699e+003;6.500163e-002
1.224628e+003;6.550509e-002
1.226557e+003;6.565873e-002
1.228485e+003;6.592984e-002
1.230414e+003;6.613117e-002
1.232342e+003;6.597099e-002
1.234271e+003;6.579446e-002
1.236199e+003;6.537157e-002
1.238128e+003;6.438133e-002
1.240056e+003;6.327925e-002
1.241985e+003;6.215052e-002
1.243913e+003;6.103619e-002
1.245842e+003;5.961346e-002
1.247771e+003;5.785163e-002
1.249699e+003;5.601202e-002
1.251628e+003;5.391513e-002
1.253556e+003;5.165415e-002
1.255485e+003;4.962599e-002
1.257413e+003;4.718419e-002
1.259342e+003;4.437102e-002
1.261270e+003;4.190790e-002
1.263199e+003;3.998145e-002
1.265127e+003;3.851163e-002
1.267056e+003;3.755900e-002
1.268985e+003;3.676359e-002
1.270913e+003;3.542390e-002
1.272842e+003;3.397674e-002
1.274770e+003;3.312771e-002
1.276699e+003;3.254210e-002
1.278627e+003;3.193938e-002
1.280556e+003;3.135579e-002
1.282484e+003;3.085288e-002
1.284413e+003;3.032479e-002
1.286342e+003;2.946358e-002
1.288270e+003;2.876498e-002
1.290199e+003;2.812465e-002
1.292127e+003;2.729728e-002
1.294056e+003;2.673988e-002
1.295984e+003;2.649441e-002
1.297913e+003;2.617291e-002
1.299841e+003;2.575872e-002
1.301770e+003;2.532705e-002
1.303698e+003;2.491769e-002
1.305627e+003;2.444759e-002
1.307556e+003;2.406548e-002
1.309484e+003;2.362124e-002
1.311413e+003;2.312367e-002
1.313341e+003;2.269091e-002
1.315270e+003;2.227448e-002
1.317198e+003;2.187611e-002
1.319127e+003;2.173577e-002
1.321055e+003;2.168530e-002
1.322984e+003;2.119965e-002
1.324912e+003;2.069446e-002
1.326841e+003;2.059230e-002
1.328770e+003;2.045158e-002
1.330698e+003;2.021936e-002
1.332627e+003;2.009809e-002
1.334555e+003;1.991840e-002
1.336484e+003;1.953380e-002
1.338412e+003;1.908486e-002
1.340341e+003;1.914036e-002
1.342269e+003;1.980612e-002
1.344198e+003;2.003643e-002
1.346126e+003;1.988895e-002
1.348055e+003;1.984226e-002
1.349984e+003;2.032198e-002
1.351912e+003;2.091689e-002
1.353841e+003;2.130053e-002
1.355769e+003;2.183430e-002
1.357698e+003;2.257638e-002
1.359626e+003;2.292771e-002
1.361555e+003;2.303635e-002
1.363483e+003;2.370053e-002
1.365412e+003;2.511551e-002
1.367341e+003;2.615817e-002
1.369269e+003;2.677276e-002
1.371198e+003;2.706148e-002
1.373126e+003;2.628385e-002
1.375055e+003;2.543503e-002
1.376983e+003;2.459919e-002
1.378912e+003;2.330249e-002
1.380840e+003;2.218279e-002
1.382769e+003;2.128421e-002
1.384698e+003;2.019659e-002
1.386626e+003;1.811599e-002
1.388555e+003;1.801913e-002
1.390483e+003;1.894407e-002
1.392412e+003;1.783840e-002
1.394340e+003;1.598267e-002
1.396269e+003;1.609774e-002
1.398197e+003;1.608581e-002
1.400126e+003;1.628174e-002
1.402054e+003;1.682453e-002
1.403983e+003;1.623045e-002
1.405911e+003;1.603420e-002
1.407840e+003;1.613491e-002
1.409769e+003;1.594571e-002
1.411697e+003;1.578498e-002
1.413626e+003;1.555943e-002
1.415554e+003;1.511759e-002
1.417483e+003;1.262701e-002
1.419411e+003;1.103855e-002
1.421340e+003;1.375179e-002
1.423268e+003;1.518666e-002
1.425197e+003;1.553584e-002
1.427125e+003;1.544773e-002
1.429054e+003;1.488752e-002
1.430983e+003;1.522715e-002
1.432911e+003;1.537439e-002
1.434840e+003;1.274481e-002
1.436768e+003;1.056003e-002
1.438697e+003;1.330575e-002
1.440625e+003;1.490645e-002
1.442554e+003;1.445928e-002
1.444482e+003;1.346085e-002
1.446411e+003;1.198554e-002
1.448340e+003;1.138273e-002
1.450268e+003;1.203674e-002
1.452197e+003;1.129029e-002
1.454125e+003;7.868552e-003
1.456054e+003;1.409587e-003
1.457982e+003;1.710895e-003
1.459911e+003;6.574803e-003
1.461839e+003;7.705383e-003
1.463768e+003;5.488330e-003
1.465697e+003;4.950133e-003
1.467625e+003;6.208523e-003
1.469554e+003;5.486249e-003
1.471482e+003;2.603275e-003
1.473411e+003;2.585143e-003
1.475339e+003;5.652783e-003
1.477268e+003;7.832552e-003
1.479196e+003;8.928431e-003
1.481125e+003;8.758372e-003
1.483053e+003;8.946424e-003
1.484982e+003;8.356872e-003
1.486911e+003;6.819666e-003
1.488839e+003;5.324476e-003
1.490768e+003;5.830965e-003
1.492696e+003;7.317221e-003
1.494625e+003;5.219735e-003
1.496553e+003;3.112039e-003
1.498482e+003;4.778240e-003
1.500410e+003;6.975466e-003
1.502339e+003;7.665654e-003
1.504267e+003;2.574843e-003
1.506196e+003;-3.654638e-003
1.508125e+003;-2.623092e-004
1.510053e+003;5.160382e-003
1.511982e+003;6.106054e-003
1.513910e+003;5.600587e-003
1.515839e+003;3.459951e-003
1.517767e+003;1.911262e-003
1.519696e+003;-1.260741e-003
1.521624e+003;-3.150066e-003
1.523553e+003;5.934712e-005
1.525481e+003;1.426807e-003
1.527410e+003;2.560578e-003
1.529339e+003;3.732840e-003
1.531267e+003;2.622243e-003
1.533196e+003;2.057117e-004
1.535124e+003;1.247531e-003
1.537053e+003;-1.172620e-003
1.538981e+003;-8.766297e-003
1.540910e+003;-8.899185e-003
1.542838e+003;-3.966137e-003
1.544767e+003;-7.838069e-004
1.546695e+003;1.487446e-003
1.548624e+003;1.791437e-003
1.550553e+003;1.491403e-003
1.552481e+003;1.536697e-004
1.554410e+003;-1.852675e-003
1.556338e+003;-5.360080e-003
1.558267e+003;-1.264739e-002
1.560195e+003;-9.803348e-003
1.562124e+003;-9.583380e-004
1.564052e+003;1.404900e-003
1.565981e+003;1.316387e-003
1.567910e+003;6.942136e-005
1.569838e+003;-8.928722e-004
1.571767e+003;9.289115e-004
1.573695e+003;-7.243022e-004
1.575624e+003;-5.293802e-003
1.577552e+003;-2.563258e-003
1.579481e+003;1.649160e-003
1.581409e+003;2.061581e-003
1.583338e+003;1.837453e-003
1.585266e+003;1.606356e-003
1.587195e+003;1.184433e-003
1.589124e+003;6.901005e-004
1.591052e+003;8.291752e-004
1.592981e+003;7.192726e-004
1.594909e+003;6.146736e-004
1.596838e+003;7.768593e-004
1.598766e+003;1.071019e-003
1.600695e+003;1.020467e-003
1.602623e+003;1.039133e-003
1.604552e+003;1.205132e-003
1.606480e+003;9.240636e-004
1.608409e+003;5.462599e-004
1.610338e+003;7.102785e-004
1.612266e+003;8.913251e-004
1.614195e+003;-1.207811e-003
1.616123e+003;-5.421146e-003
1.618052e+003;-3.618758e-003
1.619980e+003;-3.604481e-004
1.621909e+003;-1.420946e-003
1.623837e+003;-1.949136e-003
1.625766e+003;-9.184976e-004
1.627694e+003;-7.723300e-004
1.629623e+003;-1.154899e-004
1.631552e+003;-1.192824e-006
1.633480e+003;-3.712560e-003
1.635409e+003;-7.652252e-003
1.637337e+003;-4.902209e-003
1.639266e+003;-1.697581e-003
1.641194e+003;-1.153090e-003
1.643123e+003;-2.378859e-003
1.645051e+003;-6.438686e-003
1.646980e+003;-7.328987e-003
1.648909e+003;-4.417878e-003
1.650837e+003;-9.262348e-003
1.652766e+003;-1.687503e-002
1.654694e+003;-9.996215e-003
1.656623e+003;-2.198238e-003
1.658551e+003;-7.657480e-004
1.660480e+003;-1.710386e-003
1.662408e+003;-3.206542e-003
1.664337e+003;-1.947157e-003
1.666266e+003;-1.316175e-003
1.668194e+003;-3.990761e-003
1.670123e+003;-4.197514e-003
1.672051e+003;-2.198370e-003
1.673980e+003;-3.486940e-003
1.675908e+003;-3.432242e-003
1.677837e+003;-5.225406e-004
1.679765e+003;-2.832868e-005
1.681694e+003;-2.340961e-003
1.683622e+003;-7.895892e-003
1.685551e+003;-5.431421e-003
1.687479e+003;8.715038e-004
1.689408e+003;2.682983e-003
1.691337e+003;3.748982e-003
1.693265e+003;1.822413e-003
1.695194e+003;-3.591221e-003
1.697122e+003;-2.964007e-003
1.699051e+003;-4.116649e-003
1.700979e+003;-3.222198e-003
1.702908e+003;3.243546e-003
1.704836e+003;4.675305e-003
1.706765e+003;5.933738e-003
1.708693e+003;7.537588e-003
1.710622e+003;8.852676e-003
1.712551e+003;8.982313e-003
1.714479e+003;7.686934e-003
1.716408e+003;5.473733e-003
1.718336e+003;8.791506e-003
1.720265e+003;1.690813e-002
1.722193e+003;2.259962e-002
1.724122e+003;2.704889e-002
1.726050e+003;3.172456e-002
1.727979e+003;3.529554e-002
1.729908e+003;3.777964e-002
1.731836e+003;3.643243e-002
1.733765e+003;3.318847e-002
1.735693e+003;3.669332e-002
1.737622e+003;3.897797e-002
1.739550e+003;3.642028e-002
1.741479e+003;3.470363e-002
1.743407e+003;3.226917e-002
1.745336e+003;2.869683e-002
1.747265e+003;2.410274e-002
1.749193e+003;1.857734e-002
1.751122e+003;1.378069e-002
1.753050e+003;1.273557e-002
1.754979e+003;1.094373e-002
1.756907e+003;8.245994e-003
1.758836e+003;6.856356e-003
1.760764e+003;4.897251e-003
1.762693e+003;4.432049e-003
1.764621e+003;5.259878e-003
1.766550e+003;3.954873e-003
1.768479e+003;2.661213e-003
1.770407e+003;1.086465e-003
1.772336e+003;-7.860229e-004
1.774264e+003;1.382762e-003
1.776193e+003;3.721779e-003
1.778121e+003;3.889241e-003
1.780050e+003;3.244814e-003
1.781978e+003;3.050938e-003
1.783907e+003;2.650111e-003
1.785835e+003;2.751667e-003
1.787764e+003;3.095053e-003
1.789693e+003;1.759431e-003
1.791621e+003;-2.346250e-004
1.793550e+003;6.234666e-004
1.795478e+003;2.510686e-003
1.797407e+003;2.520350e-003
1.799335e+003;1.901911e-003
1.801264e+003;1.922944e-003
1.803192e+003;2.724526e-003
1.805121e+003;3.168475e-003
1.807049e+003;2.993283e-003
1.808978e+003;2.507020e-003
1.810907e+003;2.517551e-003
1.812835e+003;3.004326e-003
1.814764e+003;3.355491e-003
1.816692e+003;3.111705e-003
1.818621e+003;2.912718e-003
1.820549e+003;2.786414e-003
1.822478e+003;2.563177e-003
1.824406e+003;1.763290e-003
1.826335e+003;2.021101e-003
1.828264e+003;1.548859e-003
1.830192e+003;7.468203e-004
1.832121e+003;1.727395e-003
1.834049e+003;2.514052e-003
1.835978e+003;2.672947e-003
1.837906e+003;2.775009e-003
1.839835e+003;2.779044e-003
1.841763e+003;1.276807e-003
1.843692e+003;-1.068252e-003
1.845620e+003;-8.607371e-005
1.847549e+003;1.478935e-003
1.849478e+003;1.752079e-003
1.851406e+003;2.027725e-003
1.853335e+003;2.212153e-003
1.855263e+003;2.139391e-003
1.857192e+003;1.764621e-003
1.859120e+003;1.542674e-003
1.861049e+003;1.655712e-003
1.862977e+003;1.709298e-003
1.864906e+003;1.342743e-003
1.866834e+003;4.207410e-004
1.868763e+003;-4.646220e-004
1.870692e+003;4.813729e-004
1.872620e+003;1.500646e-003
1.874549e+003;1.571338e-003
1.876477e+003;1.513380e-003
1.878406e+003;1.350953e-003
1.880334e+003;1.117291e-003
1.882263e+003;8.978659e-004
1.884191e+003;9.047057e-004
1.886120e+003;1.008511e-003
1.888048e+003;6.267516e-004
1.889977e+003;5.692181e-004
1.891906e+003;1.068926e-003
1.893834e+003;8.771148e-004
1.895763e+003;7.840291e-004
1.897691e+003;9.898469e-004
1.899620e+003;1.090185e-003
1.901548e+003;1.062150e-003
1.903477e+003;8.943797e-004
1.905405e+003;7.127677e-004
1.907334e+003;8.793061e-004
1.909262e+003;6.995920e-004
1.911191e+003;4.436926e-004
1.913120e+003;4.206083e-004
1.915048e+003;-4.313838e-005
1.916977e+003;-1.036950e-003
1.918905e+003;-8.955175e-004
1.920834e+003;-4.465497e-004
1.922762e+003;-5.344213e-004
1.924691e+003;-1.689507e-004
1.926619e+003;1.203264e-004
1.928548e+003;-1.295017e-004
1.930477e+003;-3.588259e-004
1.932405e+003;-3.134674e-004
1.934334e+003;-1.246986e-004
1.936262e+003;-1.387432e-004
1.938191e+003;-4.532359e-004
1.940119e+003;-8.471396e-004
1.942048e+003;-1.116275e-003
1.943976e+003;-9.893150e-004
1.945905e+003;-8.268345e-004
1.947833e+003;-7.633665e-004
1.949762e+003;-8.300424e-004
1.951691e+003;-9.678264e-004
1.953619e+003;-1.060187e-003
1.955548e+003;-1.012422e-003
1.957476e+003;-9.281192e-004
1.959405e+003;-1.004720e-003
1.961333e+003;-1.300682e-003
1.963262e+003;-1.775927e-003
1.965190e+003;-2.095469e-003
1.967119e+003;-2.263771e-003
1.969047e+003;-2.219337e-003
1.970976e+003;-1.954084e-003
1.972905e+003;-1.739561e-003
1.974833e+003;-1.917073e-003
1.976762e+003;-2.077860e-003
1.978690e+003;-2.060185e-003
1.980619e+003;-2.338489e-003
1.982547e+003;-2.783334e-003
1.984476e+003;-2.827974e-003
1.986404e+003;-2.726078e-003
1.988333e+003;-2.747776e-003
1.990261e+003;-3.325325e-003
1.992190e+003;-3.660750e-003
1.994119e+003;-3.437009e-003
1.996047e+003;-3.268700e-003
1.997976e+003;-3.307240e-003
1.999904e+003;-3.539889e-003
2.001833e+003;-3.563814e-003
2.003761e+003;-3.576203e-003
2.005690e+003;-3.857446e-003
2.007618e+003;-3.875509e-003
2.009547e+003;-3.751488e-003
2.011476e+003;-3.981141e-003
2.013404e+003;-4.199876e-003
2.015333e+003;-4.265600e-003
2.017261e+003;-4.078903e-003
2.019190e+003;-3.932482e-003
2.021118e+003;-4.378945e-003
2.023047e+003;-4.764127e-003
2.024975e+003;-4.891495e-003
2.026904e+003;-4.720537e-003
2.028833e+003;-4.620560e-003
2.030761e+003;-4.786150e-003
2.032690e+003;-5.118123e-003
2.034618e+003;-5.406911e-003
2.036547e+003;-5.447421e-003
2.038475e+003;-5.522804e-003
2.040404e+003;-5.651880e-003
2.042332e+003;-5.536413e-003
2.044261e+003;-5.473499e-003
2.046189e+003;-5.697763e-003
2.048118e+003;-5.800567e-003
2.050047e+003;-5.970283e-003
2.051975e+003;-6.139149e-003
2.053904e+003;-6.041850e-003
2.055832e+003;-6.100892e-003
2.057761e+003;-6.306349e-003
2.059689e+003;-6.311705e-003
2.061618e+003;-6.194291e-003
2.063546e+003;-6.446716e-003
2.065475e+003;-6.763265e-003
2.067404e+003;-6.834669e-003
2.069332e+003;-6.717168e-003
2.071260e+003;-6.666204e-003
2.073189e+003;-6.578194e-003
2.075118e+003;-6.574506e-003
2.077046e+003;-6.585733e-003
2.078975e+003;-6.867513e-003
2.080903e+003;-7.237853e-003
2.082832e+003;-7.011709e-003
2.084760e+003;-6.928823e-003
2.086689e+003;-7.286176e-003
2.088617e+003;-7.166776e-003
2.090546e+003;-7.089494e-003
2.092475e+003;-7.303867e-003
2.094403e+003;-7.519568e-003
2.096332e+003;-7.593615e-003
2.098260e+003;-7.778353e-003
2.100189e+003;-7.775716e-003
2.102117e+003;-7.426487e-003
2.104046e+003;-7.227164e-003
2.105974e+003;-7.475570e-003
2.107903e+003;-7.815779e-003
2.109832e+003;-8.074322e-003
2.111760e+003;-8.291818e-003
2.113688e+003;-8.334824e-003
2.115617e+003;-8.256904e-003
2.117546e+003;-8.204072e-003
2.119474e+003;-8.271435e-003
2.121403e+003;-8.288340e-003
2.123331e+003;-8.339861e-003
2.125260e+003;-8.605856e-003
2.127188e+003;-8.856106e-003
2.129117e+003;-8.813801e-003
2.131045e+003;-8.512001e-003
2.132974e+003;-8.317206e-003
2.134903e+003;-8.445129e-003
2.136831e+003;-8.758049e-003
2.138760e+003;-8.895614e-003
2.140688e+003;-8.809126e-003
2.142617e+003;-8.826789e-003
2.144545e+003;-9.071589e-003
2.146474e+003;-9.387203e-003
2.148402e+003;-9.320402e-003
2.150331e+003;-9.053482e-003
2.152260e+003;-9.199030e-003
2.154188e+003;-9.240194e-003
2.156117e+003;-9.006620e-003
2.158045e+003;-8.788378e-003
2.159974e+003;-8.736780e-003
2.161902e+003;-9.010126e-003
2.163831e+003;-9.143944e-003
2.165759e+003;-9.170807e-003
2.167688e+003;-9.213433e-003
2.169616e+003;-9.162177e-003
2.171545e+003;-9.443847e-003
2.173474e+003;-9.430165e-003
2.175402e+003;-9.369013e-003
2.177331e+003;-9.464564e-003
2.179259e+003;-9.402541e-003
2.181188e+003;-9.351339e-003
2.183116e+003;-9.576041e-003
2.185045e+003;-9.800627e-003
2.186973e+003;-1.001124e-002
2.188902e+003;-1.004585e-002
2.190831e+003;-9.841831e-003
2.192759e+003;-9.937181e-003
2.194688e+003;-1.013828e-002
2.196616e+003;-1.000790e-002
2.198545e+003;-1.014575e-002
2.200473e+003;-1.037186e-002
2.202402e+003;-1.027809e-002
2.204330e+003;-9.969921e-003
2.206259e+003;-9.935659e-003
2.208188e+003;-1.002833e-002
2.210116e+003;-1.009810e-002
2.212044e+003;-1.025453e-002
2.213973e+003;-1.043562e-002
2.215902e+003;-1.043355e-002
2.217830e+003;-1.036716e-002
2.219759e+003;-1.037855e-002
2.221687e+003;-1.038845e-002
2.223616e+003;-1.061307e-002
2.225544e+003;-1.105744e-002
2.227473e+003;-1.095102e-002
2.229401e+003;-1.047320e-002
2.231330e+003;-1.061727e-002
2.233259e+003;-1.107701e-002
2.235187e+003;-1.115297e-002
2.237116e+003;-1.098714e-002
2.239044e+003;-1.105314e-002
2.240973e+003;-1.110921e-002
2.242901e+003;-1.107817e-002
2.244830e+003;-1.123829e-002
2.246758e+003;-1.115359e-002
2.248687e+003;-1.105285e-002
2.250615e+003;-1.122069e-002
2.252544e+003;-1.116802e-002
2.254473e+003;-1.122976e-002
2.256401e+003;-1.147089e-002
2.258330e+003;-1.153713e-002
2.260258e+003;-1.142077e-002
2.262187e+003;-1.116437e-002
2.264115e+003;-1.109119e-002
2.266044e+003;-1.094094e-002
2.267972e+003;-1.118769e-002
2.269901e+003;-1.158495e-002
2.271830e+003;-1.181192e-002
2.273758e+003;-1.182317e-002
2.275687e+003;-1.156201e-002
2.277615e+003;-1.132959e-002
2.279544e+003;-1.115443e-002
2.281472e+003;-1.113502e-002
2.283401e+003;-1.132026e-002
2.285329e+003;-1.134376e-002
2.287258e+003;-1.115917e-002
2.289187e+003;-1.119263e-002
2.291115e+003;-1.149006e-002
2.293043e+003;-1.162805e-002
2.294972e+003;-1.148576e-002
2.296901e+003;-1.159124e-002
2.298829e+003;-1.177841e-002
2.300758e+003;-1.171820e-002
2.302686e+003;-1.198127e-002
2.304615e+003;-1.244120e-002
2.306543e+003;-1.267558e-002
2.308472e+003;-1.271928e-002
2.310400e+003;-1.276281e-002
2.312329e+003;-1.295733e-002
2.314258e+003;-1.324018e-002
2.316186e+003;-1.375378e-002
2.318115e+003;-1.415598e-002
2.320043e+003;-1.453977e-002
2.321972e+003;-1.497166e-002
2.323900e+003;-1.535111e-002
2.325829e+003;-1.577194e-002
2.327757e+003;-1.624049e-002
2.329686e+003;-1.693839e-002
2.331615e+003;-1.740727e-002
2.333543e+003;-1.751170e-002
2.335472e+003;-1.750772e-002
2.337400e+003;-1.767175e-002
2.339329e+003;-1.775334e-002
2.341257e+003;-1.739836e-002
2.343186e+003;-1.683758e-002
2.345114e+003;-1.595757e-002
2.347043e+003;-1.470508e-002
2.348971e+003;-1.415810e-002
2.350900e+003;-1.505818e-002
2.352829e+003;-1.649126e-002
2.354757e+003;-1.764146e-002
2.356686e+003;-1.882169e-002
2.358614e+003;-1.973503e-002
2.360543e+003;-2.008953e-002
2.362471e+003;-2.001572e-002
2.364400e+003;-1.950710e-002
2.366328e+003;-1.893187e-002
2.368257e+003;-1.817369e-002
2.370186e+003;-1.714983e-002
2.372114e+003;-1.609620e-002
2.374042e+003;-1.508852e-002
2.375971e+003;-1.431631e-002
2.377900e+003;-1.404657e-002
2.379828e+003;-1.386910e-002
2.381757e+003;-1.353062e-002
2.383685e+003;-1.304290e-002
2.385614e+003;-1.251455e-002
2.387542e+003;-1.255192e-002
2.389471e+003;-1.277275e-002
2.391399e+003;-1.251873e-002
2.393328e+003;-1.238637e-002
2.395257e+003;-1.259843e-002
2.397185e+003;-1.252189e-002
2.399114e+003;-1.240050e-002
2.401042e+003;-1.255508e-002
2.402971e+003;-1.249552e-002
2.404899e+003;-1.243242e-002
2.406828e+003;-1.262605e-002
2.408756e+003;-1.258475e-002
2.410685e+003;-1.216975e-002
2.412614e+003;-1.200666e-002
2.414542e+003;-1.226266e-002
2.416471e+003;-1.247852e-002
2.418399e+003;-1.247759e-002
2.420328e+003;-1.246893e-002
2.422256e+003;-1.240975e-002
2.424185e+003;-1.240608e-002
2.426113e+003;-1.260609e-002
2.428042e+003;-1.265331e-002
2.429970e+003;-1.257526e-002
2.431899e+003;-1.259753e-002
2.433828e+003;-1.255772e-002
2.435756e+003;-1.234869e-002
2.437685e+003;-1.226469e-002
2.439613e+003;-1.245650e-002
2.441542e+003;-1.254394e-002
2.443470e+003;-1.246973e-002
2.445399e+003;-1.236408e-002
2.447327e+003;-1.229951e-002
2.449256e+003;-1.239023e-002
2.451185e+003;-1.239577e-002
2.453113e+003;-1.263767e-002
2.455042e+003;-1.274402e-002
2.456970e+003;-1.276345e-002
2.458899e+003;-1.263400e-002
2.460827e+003;-1.237671e-002
2.462756e+003;-1.245982e-002
2.464684e+003;-1.255414e-002
2.466613e+003;-1.229291e-002
2.468542e+003;-1.176110e-002
2.470470e+003;-1.156411e-002
2.472398e+003;-1.185928e-002
2.474327e+003;-1.222864e-002
2.476256e+003;-1.207131e-002
2.478184e+003;-1.202868e-002
2.480113e+003;-1.216817e-002
2.482041e+003;-1.221579e-002
2.483970e+003;-1.230875e-002
2.485898e+003;-1.242420e-002
2.487827e+003;-1.225747e-002
2.489755e+003;-1.236312e-002
2.491684e+003;-1.265865e-002
2.493613e+003;-1.287496e-002
2.495541e+003;-1.280721e-002
2.497470e+003;-1.249066e-002
2.499398e+003;-1.231829e-002
2.501327e+003;-1.240292e-002
2.503255e+003;-1.239558e-002
2.505184e+003;-1.223502e-002
2.507112e+003;-1.219169e-002
2.509041e+003;-1.209825e-002
2.510969e+003;-1.197633e-002
2.512898e+003;-1.205088e-002
2.514827e+003;-1.234753e-002
2.516755e+003;-1.269685e-002
2.518684e+003;-1.274428e-002
2.520612e+003;-1.258939e-002
2.522541e+003;-1.229870e-002
2.524469e+003;-1.209796e-002
2.526398e+003;-1.208565e-002
2.528326e+003;-1.206020e-002
2.530255e+003;-1.202842e-002
2.532184e+003;-1.229600e-002
2.534112e+003;-1.252887e-002
2.536041e+003;-1.245505e-002
2.537969e+003;-1.224581e-002
2.539898e+003;-1.216817e-002
2.541826e+003;-1.229951e-002
2.543755e+003;-1.231465e-002
2.545683e+003;-1.226250e-002
2.547612e+003;-1.222652e-002
2.549541e+003;-1.214034e-002
2.551469e+003;-1.221002e-002
2.553397e+003;-1.233629e-002
2.555326e+003;-1.243850e-002
2.557255e+003;-1.232544e-002
2.559183e+003;-1.207012e-002
2.561112e+003;-1.192840e-002
2.563040e+003;-1.205717e-002
2.564969e+003;-1.217977e-002
2.566897e+003;-1.210425e-002
2.568826e+003;-1.214765e-002
2.570754e+003;-1.219607e-002
2.572683e+003;-1.221234e-002
2.574612e+003;-1.241042e-002
2.576540e+003;-1.222133e-002
2.578469e+003;-1.197469e-002
2.580397e+003;-1.201762e-002
2.582326e+003;-1.206477e-002
2.584254e+003;-1.204034e-002
2.586183e+003;-1.182088e-002
2.588111e+003;-1.168201e-002
2.590040e+003;-1.168863e-002
2.591969e+003;-1.170075e-002
2.593897e+003;-1.167830e-002
2.595826e+003;-1.187244e-002
2.597754e+003;-1.172127e-002
2.599683e+003;-1.147873e-002
2.601611e+003;-1.171765e-002
2.603540e+003;-1.182598e-002
2.605468e+003;-1.183994e-002
2.607397e+003;-1.184632e-002
2.609325e+003;-1.164037e-002
2.611254e+003;-1.168785e-002
2.613183e+003;-1.189365e-002
2.615111e+003;-1.188904e-002
2.617040e+003;-1.199799e-002
2.618968e+003;-1.195171e-002
2.620897e+003;-1.194568e-002
2.622825e+003;-1.217030e-002
2.624754e+003;-1.196605e-002
2.626682e+003;-1.189207e-002
2.628611e+003;-1.224723e-002
2.630540e+003;-1.222955e-002
2.632468e+003;-1.199487e-002
2.634396e+003;-1.185793e-002
2.636325e+003;-1.179525e-002
2.638254e+003;-1.187369e-002
2.640182e+003;-1.199745e-002
2.642111e+003;-1.193569e-002
2.644039e+003;-1.179495e-002
2.645968e+003;-1.180869e-002
2.647896e+003;-1.187476e-002
2.649825e+003;-1.157859e-002
2.651753e+003;-1.154517e-002
2.653682e+003;-1.176874e-002
2.655611e+003;-1.182607e-002
2.657539e+003;-1.190861e-002
2.659468e+003;-1.205636e-002
2.661396e+003;-1.194749e-002
2.663325e+003;-1.157314e-002
2.665253e+003;-1.142238e-002
2.667182e+003;-1.164892e-002
2.669110e+003;-1.184529e-002
2.671039e+003;-1.176648e-002
2.672968e+003;-1.170295e-002
2.674896e+003;-1.185580e-002
2.676825e+003;-1.176190e-002
2.678753e+003;-1.163566e-002
2.680682e+003;-1.171846e-002
2.682610e+003;-1.171559e-002
2.684539e+003;-1.168101e-002
2.686467e+003;-1.163863e-002
2.688396e+003;-1.179776e-002
2.690324e+003;-1.181350e-002
2.692253e+003;-1.168324e-002
2.694182e+003;-1.183410e-002
2.696110e+003;-1.178738e-002
2.698039e+003;-1.164453e-002
2.699967e+003;-1.166282e-002
2.701896e+003;-1.164866e-002
2.703824e+003;-1.167163e-002
2.705753e+003;-1.164708e-002
2.707681e+003;-1.142542e-002
2.709610e+003;-1.130951e-002
2.711539e+003;-1.148150e-002
2.713467e+003;-1.164569e-002
2.715396e+003;-1.184406e-002
2.717324e+003;-1.171814e-002
2.719253e+003;-1.150968e-002
2.721181e+003;-1.143216e-002
2.723110e+003;-1.169856e-002
2.725038e+003;-1.194371e-002
2.726967e+003;-1.172259e-002
2.728896e+003;-1.138824e-002
2.730824e+003;-1.129695e-002
2.732752e+003;-1.105311e-002
2.734681e+003;-1.094014e-002
2.736610e+003;-1.115559e-002
2.738538e+003;-1.124374e-002
2.740467e+003;-1.154668e-002
2.742395e+003;-1.177364e-002
2.744324e+003;-1.156237e-002
2.746252e+003;-1.143716e-002
2.748181e+003;-1.147286e-002
2.750109e+003;-1.131296e-002
2.752038e+003;-1.123809e-002
2.753967e+003;-1.118946e-002
2.755895e+003;-1.106648e-002
2.757824e+003;-1.124135e-002
2.759752e+003;-1.141948e-002
2.761681e+003;-1.162634e-002
2.763609e+003;-1.139585e-002
2.765538e+003;-1.100734e-002
2.767466e+003;-1.101596e-002
2.769395e+003;-1.109090e-002
2.771323e+003;-1.122824e-002
2.773252e+003;-1.133059e-002
2.775181e+003;-1.138104e-002
2.777109e+003;-1.140131e-002
2.779038e+003;-1.124264e-002
2.780966e+003;-1.104507e-002
2.782895e+003;-1.099041e-002
2.784823e+003;-1.102620e-002
2.786752e+003;-1.107995e-002
2.788680e+003;-1.096417e-002
2.790609e+003;-1.093926e-002
2.792538e+003;-1.106813e-002
2.794466e+003;-1.092424e-002
2.796395e+003;-1.055244e-002
2.798323e+003;-1.062358e-002
2.800252e+003;-1.093636e-002
2.802180e+003;-1.084724e-002
2.804109e+003;-1.057947e-002
2.806037e+003;-1.036762e-002
2.807966e+003;-1.029427e-002
2.809895e+003;-1.021097e-002
2.811823e+003;-1.016890e-002
2.813751e+003;-1.023547e-002
2.815680e+003;-1.031281e-002
2.817609e+003;-1.034562e-002
2.819537e+003;-1.021418e-002
2.821466e+003;-1.030058e-002
2.823394e+003;-1.040236e-002
2.825323e+003;-1.040709e-002
2.827251e+003;-1.032727e-002
2.829180e+003;-1.013391e-002
2.831108e+003;-1.001917e-002
2.833037e+003;-1.044338e-002
2.834966e+003;-1.068220e-002
2.836894e+003;-1.072364e-002
2.838823e+003;-1.102730e-002
2.840751e+003;-1.187550e-002
2.842680e+003;-1.298572e-002
2.844608e+003;-1.442472e-002
2.846537e+003;-1.630247e-002
2.848465e+003;-1.832073e-002
2.850394e+003;-1.971419e-002
2.852323e+003;-1.980082e-002
2.854251e+003;-1.890003e-002
2.856180e+003;-1.741730e-002
2.858108e+003;-1.570039e-002
2.860037e+003;-1.412426e-002
2.861965e+003;-1.269826e-002
2.863894e+003;-1.145824e-002
2.865822e+003;-1.051974e-002
2.867751e+003;-9.985982e-003
2.869679e+003;-1.014064e-002
2.871608e+003;-9.962117e-003
2.873536e+003;-9.519253e-003
2.875465e+003;-9.669701e-003
2.877394e+003;-9.559835e-003
2.879322e+003;-8.983221e-003
2.881251e+003;-9.044720e-003
2.883179e+003;-9.343524e-003
2.885108e+003;-9.712990e-003
2.887036e+003;-1.017812e-002
2.888965e+003;-1.059115e-002
2.890893e+003;-1.079523e-002
2.892822e+003;-1.100071e-002
2.894750e+003;-1.164811e-002
2.896679e+003;-1.208498e-002
2.898608e+003;-1.237307e-002
2.900536e+003;-1.293301e-002
2.902465e+003;-1.321974e-002
2.904393e+003;-1.378046e-002
2.906322e+003;-1.456201e-002
2.908250e+003;-1.491999e-002
2.910179e+003;-1.565875e-002
2.912107e+003;-1.694661e-002
2.914036e+003;-1.838660e-002
2.915965e+003;-2.021799e-002
2.917893e+003;-2.199321e-002
2.919822e+003;-2.333361e-002
2.921750e+003;-2.380706e-002
2.923679e+003;-2.362265e-002
2.925607e+003;-2.279544e-002
2.927536e+003;-2.190305e-002
2.929464e+003;-2.075367e-002
2.931393e+003;-1.965739e-002
2.933322e+003;-1.853376e-002
2.935250e+003;-1.711929e-002
2.937178e+003;-1.579031e-002
2.939107e+003;-1.450760e-002
2.941036e+003;-1.342057e-002
2.942964e+003;-1.265740e-002
2.944893e+003;-1.216904e-002
2.946821e+003;-1.210898e-002
2.948750e+003;-1.258437e-002
2.950678e+003;-1.307228e-002
2.952607e+003;-1.311006e-002
2.954535e+003;-1.308103e-002
2.956464e+003;-1.328128e-002
2.958393e+003;-1.325570e-002
2.960321e+003;-1.329642e-002
2.962250e+003;-1.286984e-002
2.964178e+003;-1.202475e-002
2.966107e+003;-1.141612e-002
2.968035e+003;-1.079924e-002
2.969964e+003;-1.020482e-002
2.971892e+003;-9.697406e-003
2.973821e+003;-9.377670e-003
2.975750e+003;-9.568327e-003
2.977678e+003;-9.897185e-003
2.979607e+003;-9.694359e-003
2.981535e+003;-9.521781e-003
2.983464e+003;-9.473382e-003
2.985392e+003;-9.489462e-003
2.987321e+003;-9.688203e-003
2.989249e+003;-1.001215e-002
2.991178e+003;-1.023414e-002
2.993106e+003;-1.048517e-002
2.995035e+003;-1.092631e-002
2.996964e+003;-1.108848e-002
2.998892e+003;-1.105143e-002
3.000821e+003;-1.138985e-002
3.002749e+003;-1.164569e-002
3.004678e+003;-1.180705e-002
3.006606e+003;-1.207183e-002
3.008535e+003;-1.213914e-002
3.010463e+003;-1.212519e-002
3.012392e+003;-1.206758e-002
3.014321e+003;-1.198778e-002
3.016249e+003;-1.204618e-002
3.018177e+003;-1.222111e-002
3.020106e+003;-1.244372e-002
3.022035e+003;-1.239860e-002
3.023963e+003;-1.231561e-002
3.025892e+003;-1.235320e-002
3.027820e+003;-1.222919e-002
3.029749e+003;-1.211034e-002
3.031677e+003;-1.208646e-002
3.033606e+003;-1.232267e-002
3.035534e+003;-1.259734e-002
3.037463e+003;-1.260110e-002
3.039392e+003;-1.245856e-002
3.041320e+003;-1.232492e-002
3.043249e+003;-1.256441e-002
3.045177e+003;-1.272552e-002
3.047106e+003;-1.242160e-002
3.049034e+003;-1.225918e-002
3.050963e+003;-1.247994e-002
3.052891e+003;-1.296762e-002
3.054820e+003;-1.302309e-002
3.056749e+003;-1.258372e-002
3.058677e+003;-1.267271e-002
3.060606e+003;-1.295244e-002
3.062534e+003;-1.293832e-002
3.064463e+003;-1.305621e-002
3.066391e+003;-1.335789e-002
3.068320e+003;-1.330352e-002
3.070248e+003;-1.302923e-002
3.072177e+003;-1.310839e-002
3.074105e+003;-1.335005e-002
3.076034e+003;-1.355686e-002
3.077963e+003;-1.362683e-002
3.079891e+003;-1.364366e-002
3.081820e+003;-1.357812e-002
3.083748e+003;-1.350239e-002
3.085677e+003;-1.360763e-002
3.087605e+003;-1.335979e-002
3.089534e+003;-1.321257e-002
3.091462e+003;-1.341180e-002
3.093391e+003;-1.372457e-002
3.095320e+003;-1.383406e-002
3.097248e+003;-1.341093e-002
3.099177e+003;-1.315455e-002
3.101105e+003;-1.348103e-002
3.103034e+003;-1.370174e-002
3.104962e+003;-1.379240e-002
3.106891e+003;-1.368485e-002
3.108819e+003;-1.363338e-002
3.110748e+003;-1.372633e-002
3.112677e+003;-1.390883e-002
3.114605e+003;-1.417555e-002
3.116533e+003;-1.424417e-002
3.118462e+003;-1.395276e-002
3.120391e+003;-1.363932e-002
3.122319e+003;-1.356559e-002
3.124248e+003;-1.392943e-002
3.126176e+003;-1.436840e-002
3.128105e+003;-1.466578e-002
3.130033e+003;-1.475396e-002
3.131962e+003;-1.455855e-002
3.133890e+003;-1.443398e-002
3.135819e+003;-1.482832e-002
3.137748e+003;-1.510138e-002
3.139676e+003;-1.492393e-002
3.141605e+003;-1.485538e-002
3.143533e+003;-1.474371e-002
3.145462e+003;-1.435004e-002
3.147390e+003;-1.417991e-002
3.149319e+003;-1.430765e-002
3.151247e+003;-1.481967e-002
3.153176e+003;-1.521420e-002
3.155104e+003;-1.499061e-002
3.157033e+003;-1.482656e-002
3.158962e+003;-1.461497e-002
3.160890e+003;-1.480321e-002
3.162819e+003;-1.519146e-002
3.164747e+003;-1.509047e-002
3.166676e+003;-1.459104e-002
3.168604e+003;-1.439450e-002
3.170533e+003;-1.472821e-002
3.172461e+003;-1.528529e-002
3.174390e+003;-1.571004e-002
3.176319e+003;-1.561531e-002
3.178247e+003;-1.548702e-002
3.180176e+003;-1.550445e-002
3.182104e+003;-1.535645e-002
3.184033e+003;-1.531724e-002
3.185961e+003;-1.533554e-002
3.187890e+003;-1.537360e-002
3.189818e+003;-1.540359e-002
3.191747e+003;-1.537875e-002
3.193676e+003;-1.529773e-002
3.195604e+003;-1.538361e-002
3.197532e+003;-1.533314e-002
3.199461e+003;-1.541009e-002
3.201390e+003;-1.560946e-002
3.203318e+003;-1.573640e-002
3.205247e+003;-1.581443e-002
3.207175e+003;-1.564568e-002
3.209104e+003;-1.567259e-002
3.211032e+003;-1.607164e-002
3.212961e+003;-1.605561e-002
3.214889e+003;-1.600733e-002
3.216818e+003;-1.570384e-002
3.218747e+003;-1.529076e-002
3.220675e+003;-1.525531e-002
3.222604e+003;-1.576545e-002
3.224532e+003;-1.615944e-002
3.226461e+003;-1.621537e-002
3.228389e+003;-1.634963e-002
3.230318e+003;-1.639989e-002
3.232246e+003;-1.611360e-002
3.234175e+003;-1.599472e-002
3.236104e+003;-1.607509e-002
3.238032e+003;-1.626992e-002
3.239961e+003;-1.626357e-002
3.241889e+003;-1.616714e-002
3.243818e+003;-1.611360e-002
3.245746e+003;-1.630901e-002
3.247675e+003;-1.676984e-002
3.249603e+003;-1.684332e-002
3.251532e+003;-1.633978e-002
3.253460e+003;-1.605734e-002
3.255389e+003;-1.626309e-002
3.257318e+003;-1.619890e-002
3.259246e+003;-1.625137e-002
3.261175e+003;-1.697860e-002
3.263103e+003;-1.744751e-002
3.265032e+003;-1.713232e-002
3.266960e+003;-1.702502e-002
3.268889e+003;-1.737095e-002
3.270817e+003;-1.741199e-002
3.272746e+003;-1.735971e-002
3.274675e+003;-1.744786e-002
3.276603e+003;-1.747097e-002
3.278531e+003;-1.770280e-002
3.280460e+003;-1.777898e-002
3.282389e+003;-1.766994e-002
3.284317e+003;-1.782614e-002
3.286246e+003;-1.789273e-002
3.288174e+003;-1.751479e-002
3.290103e+003;-1.742707e-002
3.292031e+003;-1.759765e-002
3.293960e+003;-1.786440e-002
3.295888e+003;-1.782567e-002
3.297817e+003;-1.786418e-002
3.299746e+003;-1.806888e-002
3.301674e+003;-1.798681e-002
3.303603e+003;-1.781648e-002
3.305531e+003;-1.805855e-002
3.307460e+003;-1.853302e-002
3.309388e+003;-1.839121e-002
3.311317e+003;-1.802794e-002
3.313245e+003;-1.792955e-002
3.315174e+003;-1.837085e-002
3.317103e+003;-1.836993e-002
3.319031e+003;-1.789213e-002
3.320960e+003;-1.795622e-002
3.322888e+003;-1.787524e-002
3.324817e+003;-1.769265e-002
3.326745e+003;-1.784395e-002
3.328674e+003;-1.786818e-002
3.330602e+003;-1.785864e-002
3.332531e+003;-1.816540e-002
3.334459e+003;-1.833715e-002
3.336388e+003;-1.842941e-002
3.338317e+003;-1.865156e-002
3.340245e+003;-1.869962e-002
3.342174e+003;-1.855484e-002
3.344102e+003;-1.845012e-002
3.346031e+003;-1.838501e-002
3.347959e+003;-1.837126e-002
3.349888e+003;-1.821109e-002
3.351816e+003;-1.851391e-002
3.353745e+003;-1.873843e-002
3.355674e+003;-1.845888e-002
3.357602e+003;-1.833969e-002
3.359531e+003;-1.819117e-002
3.361459e+003;-1.813070e-002
3.363388e+003;-1.804860e-002
3.365316e+003;-1.780449e-002
3.367245e+003;-1.812463e-002
3.369173e+003;-1.829360e-002
3.371102e+003;-1.800505e-002
3.373031e+003;-1.791712e-002
3.374959e+003;-1.788046e-002
3.376887e+003;-1.772144e-002
3.378816e+003;-1.789725e-002
3.380745e+003;-1.782974e-002
3.382673e+003;-1.790615e-002
3.384602e+003;-1.805099e-002
3.386530e+003;-1.790615e-002
3.388459e+003;-1.792751e-002
3.390387e+003;-1.808471e-002
3.392316e+003;-1.776076e-002
3.394244e+003;-1.763475e-002
3.396173e+003;-1.821684e-002
3.398102e+003;-1.820934e-002
3.400030e+003;-1.783966e-002
3.401959e+003;-1.749789e-002
3.403887e+003;-1.741711e-002
3.405816e+003;-1.764255e-002
3.407744e+003;-1.771845e-002
3.409673e+003;-1.763688e-002
3.411601e+003;-1.778604e-002
3.413530e+003;-1.779733e-002
3.415458e+003;-1.766100e-002
3.417387e+003;-1.787241e-002
3.419316e+003;-1.802273e-002
3.421244e+003;-1.753990e-002
3.423173e+003;-1.737910e-002
3.425101e+003;-1.754289e-002
3.427030e+003;-1.759259e-002
3.428958e+003;-1.764748e-002
3.430887e+003;-1.749464e-002
3.432815e+003;-1.752765e-002
3.434744e+003;-1.764446e-002
3.436673e+003;-1.743681e-002
3.438601e+003;-1.748675e-002
3.440530e+003;-1.735831e-002
3.442458e+003;-1.699635e-002
3.444387e+003;-1.711196e-002
3.446315e+003;-1.702815e-002
3.448244e+003;-1.660943e-002
3.450172e+003;-1.640787e-002
3.452101e+003;-1.628970e-002
3.454030e+003;-1.627416e-002
3.455958e+003;-1.654115e-002
3.457886e+003;-1.674271e-002
3.459815e+003;-1.627659e-002
3.461744e+003;-1.626130e-002
3.463672e+003;-1.621294e-002
3.465601e+003;-1.623541e-002
3.467529e+003;-1.630004e-002
3.469458e+003;-1.616985e-002
3.471386e+003;-1.619519e-002
3.473315e+003;-1.621725e-002
3.475243e+003;-1.641527e-002
3.477172e+003;-1.660175e-002
3.479101e+003;-1.622494e-002
3.481029e+003;-1.574567e-002
3.482958e+003;-1.524850e-002
3.484886e+003;-1.492261e-002
3.486815e+003;-1.534801e-002
3.488743e+003;-1.563129e-002
3.490672e+003;-1.558328e-002
3.492600e+003;-1.583022e-002
3.494529e+003;-1.547839e-002
3.496458e+003;-1.540168e-002
3.498386e+003;-1.559767e-002
3.500315e+003;-1.586421e-002
3.502243e+003;-1.618383e-002
3.504172e+003;-1.612870e-002
3.506100e+003;-1.580699e-002
3.508029e+003;-1.569470e-002
3.509957e+003;-1.555298e-002
3.511886e+003;-1.514666e-002
3.513814e+003;-1.453022e-002
3.515743e+003;-1.467661e-002
3.517672e+003;-1.509668e-002
3.519600e+003;-1.503065e-002
3.521529e+003;-1.536432e-002
3.523457e+003;-1.586555e-002
3.525386e+003;-1.546135e-002
3.527314e+003;-1.507232e-002
3.529243e+003;-1.535287e-002
3.531171e+003;-1.548904e-002
3.533100e+003;-1.480606e-002
3.535029e+003;-1.437808e-002
3.536957e+003;-1.416923e-002
3.538885e+003;-1.452923e-002
3.540814e+003;-1.482681e-002
3.542743e+003;-1.493049e-002
3.544671e+003;-1.544449e-002
3.546600e+003;-1.519434e-002
3.548528e+003;-1.468525e-002
3.550457e+003;-1.493734e-002
3.552385e+003;-1.466610e-002
3.554314e+003;-1.404991e-002
3.556242e+003;-1.351218e-002
3.558171e+003;-1.362921e-002
3.560100e+003;-1.436642e-002
3.562028e+003;-1.490952e-002
3.563957e+003;-1.545965e-002
3.565885e+003;-1.660493e-002
3.567814e+003;-1.602046e-002
3.569742e+003;-1.442543e-002
3.571671e+003;-1.419754e-002
3.573599e+003;-1.409504e-002
3.575528e+003;-1.371593e-002
3.577457e+003;-1.352657e-002
3.579385e+003;-1.326865e-002
3.581314e+003;-1.335233e-002
3.583242e+003;-1.367782e-002
3.585171e+003;-1.492008e-002
3.587099e+003;-1.611274e-002
3.589028e+003;-1.522166e-002
3.590956e+003;-1.421938e-002
3.592885e+003;-1.475450e-002
3.594813e+003;-1.472219e-002
3.596742e+003;-1.396528e-002
3.598671e+003;-1.379872e-002
3.600599e+003;-1.373667e-002
3.602528e+003;-1.348665e-002
3.604456e+003;-1.342690e-002
3.606385e+003;-1.454044e-002
3.608313e+003;-1.621626e-002
3.610242e+003;-1.589909e-002
3.612170e+003;-1.532943e-002
3.614099e+003;-1.464541e-002
3.616028e+003;-1.459366e-002
3.617956e+003;-1.618817e-002
3.619885e+003;-1.616672e-002
3.621813e+003;-1.442161e-002
3.623742e+003;-1.387629e-002
3.625670e+003;-1.489953e-002
3.627599e+003;-1.860573e-002
3.629527e+003;-1.849899e-002
3.631456e+003;-1.469390e-002
3.633385e+003;-1.368209e-002
3.635313e+003;-1.324224e-002
3.637241e+003;-1.262669e-002
3.639170e+003;-1.260236e-002
3.641099e+003;-1.314356e-002
3.643027e+003;-1.354430e-002
3.644956e+003;-1.463701e-002
3.646884e+003;-1.798897e-002
3.648813e+003;-1.996812e-002
3.650741e+003;-1.732991e-002
3.652670e+003;-1.380231e-002
3.654598e+003;-1.442770e-002
3.656527e+003;-1.487369e-002
3.658456e+003;-1.297984e-002
3.660384e+003;-1.217484e-002
3.662313e+003;-1.196415e-002
3.664241e+003;-1.191383e-002
3.666170e+003;-1.277674e-002
3.668098e+003;-1.594579e-002
3.670027e+003;-1.828337e-002
3.671955e+003;-1.607739e-002
3.673884e+003;-1.803303e-002
3.675813e+003;-1.960779e-002
3.677741e+003;-1.515408e-002
3.679669e+003;-1.240295e-002
3.681598e+003;-1.145356e-002
3.683527e+003;-1.158953e-002
3.685455e+003;-1.321434e-002
3.687384e+003;-1.748927e-002
3.689312e+003;-1.791337e-002
3.691241e+003;-1.523366e-002
3.693169e+003;-1.318258e-002
3.695098e+003;-1.277176e-002
3.697026e+003;-1.248699e-002
3.698955e+003;-1.235078e-002
3.700884e+003;-1.368200e-002
3.702812e+003;-1.357295e-002
3.704741e+003;-1.279508e-002
3.706669e+003;-1.311790e-002
3.708598e+003;-1.482803e-002
3.710526e+003;-1.712671e-002
3.712455e+003;-1.659049e-002
3.714383e+003;-1.335770e-002
3.716312e+003;-1.239693e-002
3.718240e+003;-1.294472e-002
3.720169e+003;-1.379981e-002
3.722098e+003;-1.433025e-002
3.724026e+003;-1.437533e-002
3.725955e+003;-1.438780e-002
3.727883e+003;-1.343689e-002
3.729812e+003;-1.422092e-002
3.731740e+003;-1.685846e-002
3.733669e+003;-1.749331e-002
3.735597e+003;-1.789830e-002
3.737526e+003;-1.614706e-002
3.739455e+003;-1.458745e-002
3.741383e+003;-1.604255e-002
3.743312e+003;-2.263799e-002
3.745240e+003;-2.193077e-002
3.747169e+003;-1.880792e-002
3.749097e+003;-2.156100e-002
3.751026e+003;-2.213071e-002
3.752954e+003;-1.895839e-002
3.754883e+003;-1.491496e-002
3.756812e+003;-1.450343e-002
3.758740e+003;-1.511092e-002
3.760668e+003;-1.451664e-002
3.762597e+003;-1.323828e-002
3.764526e+003;-1.384760e-002
3.766454e+003;-1.425215e-002
3.768383e+003;-1.470617e-002
3.770311e+003;-1.404083e-002
3.772240e+003;-1.288808e-002
3.774168e+003;-1.278945e-002
3.776097e+003;-1.295562e-002
3.778025e+003;-1.374023e-002
3.779954e+003;-1.381772e-002
3.781883e+003;-1.256415e-002
3.783811e+003;-1.250505e-002
3.785740e+003;-1.278668e-002
3.787668e+003;-1.276117e-002
3.789597e+003;-1.250901e-002
3.791525e+003;-1.247492e-002
3.793454e+003;-1.299431e-002
3.795382e+003;-1.438924e-002
3.797311e+003;-1.457774e-002
3.799240e+003;-1.684995e-002
3.801168e+003;-1.916784e-002
3.803097e+003;-1.583513e-002
3.805025e+003;-1.487757e-002
3.806954e+003;-1.562353e-002
3.808882e+003;-1.353833e-002
3.810811e+003;-1.266946e-002
3.812739e+003;-1.368855e-002
3.814668e+003;-1.812876e-002
3.816596e+003;-1.865413e-002
3.818525e+003;-1.690971e-002
3.820454e+003;-1.850553e-002
3.822382e+003;-1.618977e-002
3.824311e+003;-1.374344e-002
3.826239e+003;-1.440453e-002
3.828168e+003;-1.415380e-002
3.830096e+003;-1.417182e-002
3.832025e+003;-1.462679e-002
3.833953e+003;-1.530972e-002
3.835882e+003;-1.821675e-002
3.837811e+003;-1.992524e-002
3.839739e+003;-1.734259e-002
3.841667e+003;-1.514298e-002
3.843596e+003;-1.371905e-002
3.845525e+003;-1.266763e-002
3.847453e+003;-1.269836e-002
3.849382e+003;-1.519705e-002
3.851310e+003;-2.161980e-002
3.853239e+003;-2.643969e-002
3.855167e+003;-2.095196e-002
3.857096e+003;-1.489636e-002
3.859024e+003;-1.380443e-002
3.860953e+003;-1.471767e-002
3.862882e+003;-1.557708e-002
3.864810e+003;-1.572685e-002
3.866739e+003;-1.547682e-002
3.868667e+003;-1.841001e-002
3.870596e+003;-1.796373e-002
3.872524e+003;-1.568956e-002
3.874453e+003;-1.534331e-002
3.876381e+003;-1.411329e-002
3.878310e+003;-1.437203e-002
3.880239e+003;-1.468881e-002
3.882167e+003;-1.412282e-002
3.884096e+003;-1.567581e-002
3.886024e+003;-1.595642e-002
3.887953e+003;-1.397105e-002
3.889881e+003;-1.482358e-002
3.891810e+003;-1.487712e-002
3.893738e+003;-1.300788e-002
3.895667e+003;-1.282169e-002
3.897595e+003;-1.459770e-002
3.899524e+003;-1.568901e-002
3.901453e+003;-1.582986e-002
3.903381e+003;-1.615105e-002
3.905310e+003;-1.483988e-002
3.907238e+003;-1.263866e-002
3.909167e+003;-1.208659e-002
3.911095e+003;-1.232376e-002
3.913024e+003;-1.260027e-002
3.914952e+003;-1.360182e-002
3.916881e+003;-1.474044e-002
3.918810e+003;-1.421393e-002
3.920738e+003;-1.316150e-002
3.922667e+003;-1.278183e-002
3.924595e+003;-1.291626e-002
3.926524e+003;-1.247379e-002
3.928452e+003;-1.261066e-002
3.930381e+003;-1.348032e-002
3.932309e+003;-1.366549e-002
3.934238e+003;-1.290487e-002
3.936167e+003;-1.281480e-002
3.938095e+003;-1.275628e-002
3.940023e+003;-1.267825e-002
3.941952e+003;-1.328289e-002
3.943881e+003;-1.351064e-002
3.945809e+003;-1.307752e-002
3.947738e+003;-1.286502e-002
3.949666e+003;-1.274949e-002
3.951595e+003;-1.264098e-002
3.953523e+003;-1.241822e-002
3.955452e+003;-1.238762e-002
3.957380e+003;-1.244191e-002
3.959309e+003;-1.215828e-002
3.961238e+003;-1.228344e-002
3.963166e+003;-1.254120e-002
3.965095e+003;-1.266280e-002
3.967023e+003;-1.280399e-002
3.968952e+003;-1.272632e-002
3.970880e+003;-1.256348e-002
3.972809e+003;-1.258945e-002
3.974737e+003;-1.227042e-002
3.976666e+003;-1.227178e-002
3.978594e+003;-1.254754e-002
3.980523e+003;-1.260915e-002
3.982452e+003;-1.253254e-002
3.984380e+003;-1.237684e-002
3.986309e+003;-1.214987e-002
3.988237e+003;-1.183065e-002
3.990166e+003;-1.234119e-002
3.992094e+003;-1.271381e-002
3.994023e+003;-1.241999e-002
3.995951e+003;-1.212896e-002
3.997880e+003;-1.191125e-002
3.999809e+003;-1.219936e-002
4.001737e+003;0.000000e+000
