3.992094e+002;0.000000e+000
4.011380e+002;0.000000e+000
4.030665e+002;0.000000e+000
4.049951e+002;0.000000e+000
4.069236e+002;0.000000e+000
4.088522e+002;0.000000e+000
4.107807e+002;0.000000e+000
4.127093e+002;0.000000e+000
4.146378e+002;0.000000e+000
4.165664e+002;0.000000e+000
4.184949e+002;0.000000e+000
4.204235e+002;0.000000e+000
4.223520e+002;0.000000e+000
4.242806e+002;0.000000e+000
4.262091e+002;0.000000e+000
4.281377e+002;0.000000e+000
4.300662e+002;0.000000e+000
4.319948e+002;0.000000e+000
4.339233e+002;0.000000e+000
4.358519e+002;0.000000e+000
4.377804e+002;0.000000e+000
4.397090e+002;0.000000e+000
4.416375e+002;0.000000e+000
4.435660e+002;0.000000e+000
4.454946e+002;0.000000e+000
4.474232e+002;0.000000e+000
4.493517e+002;0.000000e+000
4.512802e+002;0.000000e+000
4.532088e+002;0.000000e+000
4.551373e+002;0.000000e+000
4.570659e+002;0.000000e+000
4.589944e+002;0.000000e+000
4.609230e+002;0.000000e+000
4.628515e+002;0.000000e+000
4.647801e+002;0.000000e+000
4.667086e+002;0.000000e+000
4.686372e+002;0.000000e+000
4.705657e+002;0.000000e+000
4.724943e+002;0.000000e+000
4.744228e+002;0.000000e+000
4.763513e+002;0.000000e+000
4.782799e+002;0.000000e+000
4.802085e+002;0.000000e+000
4.821370e+002;0.000000e+000
4.840656e+002;0.000000e+000
4.859941e+002;0.000000e+000
4.879226e+002;0.000000e+000
4.898512e+002;0.000000e+000
4.917798e+002;0.000000e+000
4.937083e+002;0.000000e+000
4.956368e+002;0.000000e+000
4.975654e+002;0.000000e+000
4.994939e+002;0.000000e+000
5.014225e+002;0.000000e+000
5.033510e+002;0.000000e+000
5.052796e+002;0.000000e+000
5.072081e+002;0.000000e+000
5.091367e+002;0.000000e+000
5.110652e+002;0.000000e+000
5.129938e+002;0.000000e+000
5.149223e+002;0.000000e+000
5.168509e+002;0.000000e+000
5.187794e+002;0.000000e+000
5.207079e+002;0.000000e+000
5.226365e+002;0.000000e+000
5.245651e+002;0.000000e+000
5.264936e+002;0.000000e+000
5.284222e+002;0.000000e+000
5.303507e+002;0.000000e+000
5.322792e+002;0.000000e+000
5.342078e+002;0.000000e+000
5.361364e+002;0.000000e+000
5.380649e+002;0.000000e+000
5.399935e+002;0.000000e+000
5.419220e+002;0.000000e+000
5.438505e+002;0.000000e+000
5.457791e+002;0.000000e+000
5.477076e+002;0.000000e+000
5.496362e+002;0.000000e+000
5.515648e+002;0.000000e+000
5.534933e+002;0.000000e+000
5.554218e+002;0.000000e+000
5.573504e+002;0.000000e+000
5.592789e+002;0.000000e+000
5.612075e+002;0.000000e+000
5.631360e+002;0.000000e+000
5.650646e+002;0.000000e+000
5.669931e+002;0.000000e+000
5.689217e+002;0.000000e+000
5.708502e+002;0.000000e+000
5.727787e+002;0.000000e+000
5.747073e+002;0.000000e+000
5.766359e+002;0.000000e+000
5.785644e+002;0.000000e+000
5.804930e+002;0.000000e+000
5.824215e+002;0.000000e+000
5.843500e+002;0.000000e+000
5.862786e+002;0.000000e+000
5.882072e+002;0.000000e+000
5.901357e+002;0.000000e+000
5.920643e+002;0.000000e+000
5.939928e+002;0.000000e+000
5.959213e+002;0.000000e+000
5.978499e+002;0.000000e+000
5.997784e+002;7.084225e-002
6.017070e+002;7.654504e-002
6.036355e+002;7.957524e-002
6.055641e+002;7.900767e-002
6.074926e+002;7.633792e-002
6.094211e+002;7.947966e-002
6.113497e+002;8.533318e-002
6.132783e+002;8.376294e-002
6.152068e+002;7.985300e-002
6.171354e+002;7.618006e-002
6.190639e+002;8.019636e-002
6.209924e+002;8.471797e-002
6.229210e+002;7.906912e-002
6.248495e+002;7.325067e-002
6.267781e+002;7.715506e-002
6.287067e+002;8.186653e-002
6.306352e+002;8.314863e-002
6.325637e+002;8.085468e-002
6.344923e+002;8.395152e-002
6.364208e+002;8.965316e-002
6.383494e+002;8.837547e-002
6.402780e+002;8.270150e-002
6.422065e+002;8.148775e-002
6.441350e+002;8.356766e-002
6.460636e+002;8.901720e-002
6.479921e+002;9.211643e-002
6.499207e+002;9.083806e-002
6.518492e+002;8.844468e-002
6.537778e+002;8.809287e-002
6.557063e+002;8.868655e-002
6.576349e+002;8.807810e-002
6.595634e+002;8.710720e-002
6.614919e+002;8.922952e-002
6.634205e+002;9.016513e-002
6.653491e+002;8.836873e-002
6.672776e+002;8.719763e-002
6.692062e+002;8.828455e-002
6.711347e+002;9.289423e-002
6.730632e+002;9.426887e-002
6.749918e+002;9.194344e-002
6.769203e+002;9.081364e-002
6.788489e+002;9.219058e-002
6.807775e+002;9.530767e-002
6.827060e+002;9.581842e-002
6.846345e+002;9.653229e-002
6.865631e+002;9.664419e-002
6.884916e+002;9.667735e-002
6.904202e+002;9.717625e-002
6.923488e+002;9.800781e-002
6.942773e+002;9.933119e-002
6.962058e+002;9.952682e-002
6.981344e+002;9.779543e-002
7.000629e+002;9.661580e-002
7.019915e+002;9.630342e-002
7.039200e+002;9.700301e-002
7.058486e+002;9.819660e-002
7.077771e+002;9.843677e-002
7.097057e+002;9.864622e-002
7.116342e+002;9.929278e-002
7.135627e+002;9.865063e-002
7.154913e+002;9.808687e-002
7.174199e+002;9.774272e-002
7.193484e+002;9.845099e-002
7.212770e+002;9.882228e-002
7.232055e+002;9.790721e-002
7.251340e+002;9.815465e-002
7.270626e+002;9.927871e-002
7.289911e+002;1.002427e-001
7.309197e+002;1.009888e-001
7.328483e+002;1.015714e-001
7.347768e+002;1.015056e-001
7.367053e+002;1.019436e-001
7.386339e+002;1.035831e-001
7.405624e+002;1.047316e-001
7.424910e+002;1.041057e-001
7.444196e+002;1.032079e-001
7.463481e+002;1.027634e-001
7.482766e+002;1.033214e-001
7.502052e+002;1.043053e-001
7.521337e+002;1.043844e-001
7.540623e+002;1.045249e-001
7.559908e+002;1.041956e-001
7.579194e+002;1.042637e-001
7.598479e+002;1.040499e-001
7.617765e+002;1.033696e-001
7.637050e+002;1.039386e-001
7.656335e+002;1.032204e-001
7.675621e+002;1.028735e-001
7.694907e+002;1.035339e-001
7.714192e+002;1.037731e-001
7.733478e+002;1.037838e-001
7.752763e+002;1.035401e-001
7.772048e+002;1.027971e-001
7.791334e+002;1.017860e-001
7.810620e+002;1.022300e-001
7.829905e+002;1.023460e-001
7.849191e+002;1.020368e-001
7.868476e+002;1.019373e-001
7.887761e+002;1.025702e-001
7.907047e+002;1.024101e-001
7.926332e+002;1.011787e-001
7.945618e+002;1.000985e-001
7.964903e+002;9.913989e-002
7.984189e+002;9.823786e-002
8.003474e+002;9.754259e-002
8.022759e+002;9.700955e-002
8.042045e+002;9.722950e-002
8.061331e+002;9.812446e-002
8.080616e+002;9.893087e-002
8.099902e+002;9.914560e-002
8.119187e+002;9.931561e-002
8.138472e+002;1.001320e-001
8.157758e+002;1.012800e-001
8.177043e+002;1.025742e-001
8.196329e+002;1.044538e-001
8.215615e+002;1.070064e-001
8.234900e+002;1.090195e-001
8.254185e+002;1.112281e-001
8.273471e+002;1.137228e-001
8.292756e+002;1.164312e-001
8.312042e+002;1.192645e-001
8.331328e+002;1.212586e-001
8.350613e+002;1.236705e-001
8.369898e+002;1.271114e-001
8.389184e+002;1.305380e-001
8.408469e+002;1.341338e-001
8.427755e+002;1.381809e-001
8.447040e+002;1.421062e-001
8.466326e+002;1.451805e-001
8.485611e+002;1.492659e-001
8.504897e+002;1.547005e-001
8.524182e+002;1.595757e-001
8.543467e+002;1.641098e-001
8.562753e+002;1.686701e-001
8.582039e+002;1.725578e-001
8.601324e+002;1.767253e-001
8.620610e+002;1.814666e-001
8.639895e+002;1.867927e-001
8.659180e+002;1.903289e-001
8.678466e+002;1.932531e-001
8.697751e+002;1.973170e-001
8.717037e+002;2.011534e-001
8.736323e+002;2.049611e-001
8.755608e+002;2.080083e-001
8.774893e+002;2.106040e-001
8.794179e+002;2.141591e-001
8.813464e+002;2.185367e-001
8.832750e+002;2.218917e-001
8.852036e+002;2.240175e-001
8.871321e+002;2.256350e-001
8.890606e+002;2.278349e-001
8.909892e+002;2.296336e-001
8.929177e+002;2.306139e-001
8.948463e+002;2.320383e-001
8.967748e+002;2.333491e-001
8.987034e+002;2.346364e-001
9.006319e+002;2.364813e-001
9.025605e+002;2.379795e-001
9.044890e+002;2.392022e-001
9.064175e+002;2.402942e-001
9.083461e+002;2.409845e-001
9.102747e+002;2.419607e-001
9.122032e+002;2.428499e-001
9.141318e+002;2.430562e-001
9.160603e+002;2.433206e-001
9.179888e+002;2.437016e-001
9.199174e+002;2.443261e-001
9.218459e+002;2.446137e-001
9.237745e+002;2.447442e-001
9.257031e+002;2.452572e-001
9.276316e+002;2.454020e-001
9.295601e+002;2.452783e-001
9.314887e+002;2.452298e-001
9.334172e+002;2.450124e-001
9.353458e+002;2.445654e-001
9.372744e+002;2.443963e-001
9.392029e+002;2.443294e-001
9.411314e+002;2.434407e-001
9.430600e+002;2.423896e-001
9.449885e+002;2.416852e-001
9.469171e+002;2.406665e-001
9.488456e+002;2.394197e-001
9.507742e+002;2.383338e-001
9.527027e+002;2.371878e-001
9.546313e+002;2.357835e-001
9.565598e+002;2.351624e-001
9.584883e+002;2.341285e-001
9.604169e+002;2.324207e-001
9.623455e+002;2.314110e-001
9.642740e+002;2.308488e-001
9.662026e+002;2.294846e-001
9.681311e+002;2.278807e-001
9.700596e+002;2.268110e-001
9.719882e+002;2.260048e-001
9.739167e+002;2.254262e-001
9.758453e+002;2.241991e-001
9.777739e+002;2.226560e-001
9.797024e+002;2.213102e-001
9.816309e+002;2.196333e-001
9.835595e+002;2.183308e-001
9.854880e+002;2.170123e-001
9.874166e+002;2.150380e-001
9.893452e+002;2.139232e-001
9.912737e+002;2.131213e-001
9.932022e+002;2.115271e-001
9.951307e+002;2.101012e-001
9.970593e+002;2.089880e-001
9.989879e+002;2.078120e-001
1.000916e+003;2.066218e-001
1.002845e+003;2.050960e-001
1.004773e+003;2.031901e-001
1.006702e+003;2.015005e-001
1.008631e+003;2.007041e-001
1.010559e+003;1.994825e-001
1.012488e+003;1.974489e-001
1.014416e+003;1.955218e-001
1.016345e+003;1.939732e-001
1.018273e+003;1.926635e-001
1.020202e+003;1.903593e-001
1.022130e+003;1.878173e-001
1.024059e+003;1.858838e-001
1.025988e+003;1.837526e-001
1.027916e+003;1.812423e-001
1.029845e+003;1.787999e-001
1.031773e+003;1.768571e-001
1.033702e+003;1.750873e-001
1.035630e+003;1.726691e-001
1.037559e+003;1.705881e-001
1.039487e+003;1.690153e-001
1.041416e+003;1.673587e-001
1.043344e+003;1.654824e-001
1.045273e+003;1.634888e-001
1.047202e+003;1.614807e-001
1.049130e+003;1.594979e-001
1.051059e+003;1.577389e-001
1.052987e+003;1.558381e-001
1.054916e+003;1.531449e-001
1.056844e+003;1.509885e-001
1.058773e+003;1.495796e-001
1.060701e+003;1.484872e-001
1.062630e+003;1.466797e-001
1.064558e+003;1.442448e-001
1.066487e+003;1.423167e-001
1.068416e+003;1.403187e-001
1.070344e+003;1.388295e-001
1.072273e+003;1.375507e-001
1.074201e+003;1.354452e-001
1.076130e+003;1.330009e-001
1.078058e+003;1.311460e-001
1.079987e+003;1.299493e-001
1.081915e+003;1.286487e-001
1.083844e+003;1.269779e-001
1.085773e+003;1.253969e-001
1.087701e+003;1.240909e-001
1.089630e+003;1.223344e-001
1.091558e+003;1.203098e-001
1.093487e+003;1.190447e-001
1.095415e+003;1.174590e-001
1.097344e+003;1.155156e-001
1.099272e+003;1.144278e-001
1.101201e+003;1.136592e-001
1.103129e+003;1.129353e-001
1.105058e+003;1.116136e-001
1.106987e+003;1.095792e-001
1.108915e+003;1.079536e-001
1.110844e+003;1.065496e-001
1.112772e+003;1.054635e-001
1.114701e+003;1.042521e-001
1.116629e+003;1.026340e-001
1.118558e+003;1.009785e-001
1.120486e+003;9.996130e-002
1.122415e+003;9.966605e-002
1.124344e+003;9.874433e-002
1.126272e+003;9.746528e-002
1.128201e+003;9.697500e-002
1.130129e+003;9.599474e-002
1.132058e+003;9.441084e-002
1.133986e+003;9.332985e-002
1.135915e+003;9.198807e-002
1.137843e+003;9.018283e-002
1.139772e+003;8.873902e-002
1.141700e+003;8.785206e-002
1.143629e+003;8.671771e-002
1.145557e+003;8.511901e-002
1.147486e+003;8.321243e-002
1.149415e+003;8.127319e-002
1.151343e+003;7.956016e-002
1.153272e+003;7.776385e-002
1.155200e+003;7.602767e-002
1.157129e+003;7.449955e-002
1.159057e+003;7.303476e-002
1.160986e+003;7.174091e-002
1.162914e+003;7.037675e-002
1.164843e+003;6.902621e-002
1.166771e+003;6.822304e-002
1.168700e+003;6.750429e-002
1.170629e+003;6.687798e-002
1.172557e+003;6.663969e-002
1.174486e+003;6.642944e-002
1.176414e+003;6.581015e-002
1.178343e+003;6.503838e-002
1.180271e+003;6.448729e-002
1.182200e+003;6.369231e-002
1.184128e+003;6.253381e-002
1.186057e+003;6.092375e-002
1.187986e+003;5.901759e-002
1.189914e+003;5.757417e-002
1.191843e+003;5.645596e-002
1.193771e+003;5.519763e-002
1.195700e+003;5.398165e-002
1.197628e+003;5.300099e-002
1.199557e+003;5.168371e-002
1.201485e+003;4.999607e-002
1.203414e+003;4.876141e-002
1.205343e+003;4.814365e-002
1.207271e+003;4.757364e-002
1.209200e+003;4.687957e-002
1.211128e+003;4.647404e-002
1.213057e+003;4.624443e-002
1.214985e+003;4.625228e-002
1.216914e+003;4.650534e-002
1.218842e+003;4.708388e-002
1.220771e+003;4.800981e-002
1.222699e+003;4.904346e-002
1.224628e+003;5.005344e-002
1.226557e+003;5.097596e-002
1.228485e+003;5.213213e-002
1.230414e+003;5.295457e-002
1.232342e+003;5.321026e-002
1.234271e+003;5.339831e-002
1.236199e+003;5.350290e-002
1.238128e+003;5.309616e-002
1.240056e+003;5.229412e-002
1.241985e+003;5.170562e-002
1.243913e+003;5.091899e-002
1.245842e+003;4.946677e-002
1.247771e+003;4.745787e-002
1.249699e+003;4.553886e-002
1.251628e+003;4.377695e-002
1.253556e+003;4.166479e-002
1.255485e+003;3.908657e-002
1.257413e+003;3.606270e-002
1.259342e+003;3.289555e-002
1.261270e+003;2.997017e-002
1.263199e+003;2.761191e-002
1.265127e+003;2.625780e-002
1.267056e+003;2.498051e-002
1.268985e+003;2.338665e-002
1.270913e+003;2.178664e-002
1.272842e+003;2.025640e-002
1.274770e+003;1.910425e-002
1.276699e+003;1.820930e-002
1.278627e+003;1.744839e-002
1.280556e+003;1.694978e-002
1.282484e+003;1.622811e-002
1.284413e+003;1.543262e-002
1.286342e+003;1.444565e-002
1.288270e+003;1.371482e-002
1.290199e+003;1.318717e-002
1.292127e+003;1.263056e-002
1.294056e+003;1.230989e-002
1.295984e+003;1.196653e-002
1.297913e+003;1.131107e-002
1.299841e+003;1.061728e-002
1.301770e+003;1.004505e-002
1.303698e+003;9.373658e-003
1.305627e+003;8.656754e-003
1.307556e+003;8.152328e-003
1.309484e+003;7.684708e-003
1.311413e+003;6.941595e-003
1.313341e+003;6.325875e-003
1.315270e+003;5.905322e-003
1.317198e+003;5.453467e-003
1.319127e+003;5.366239e-003
1.321055e+003;5.302506e-003
1.322984e+003;4.897955e-003
1.324912e+003;4.412903e-003
1.326841e+003;4.087271e-003
1.328770e+003;3.855710e-003
1.330698e+003;3.680341e-003
1.332627e+003;3.590728e-003
1.334555e+003;3.483097e-003
1.336484e+003;3.230126e-003
1.338412e+003;2.807290e-003
1.340341e+003;2.811091e-003
1.342269e+003;3.447126e-003
1.344198e+003;4.055497e-003
1.346126e+003;4.380436e-003
1.348055e+003;4.645699e-003
1.349984e+003;5.250051e-003
1.351912e+003;5.766661e-003
1.353841e+003;6.079341e-003
1.355769e+003;6.816234e-003
1.357698e+003;7.962898e-003
1.359626e+003;8.671423e-003
1.361555e+003;8.815005e-003
1.363483e+003;9.636468e-003
1.365412e+003;1.140522e-002
1.367341e+003;1.270923e-002
1.369269e+003;1.360120e-002
1.371198e+003;1.391530e-002
1.373126e+003;1.308646e-002
1.375055e+003;1.227270e-002
1.376983e+003;1.158703e-002
1.378912e+003;1.024852e-002
1.380840e+003;8.867995e-003
1.382769e+003;7.466424e-003
1.384698e+003;5.727243e-003
1.386626e+003;3.287012e-003
1.388555e+003;3.029350e-003
1.390483e+003;3.734979e-003
1.392412e+003;2.606509e-003
1.394340e+003;9.391719e-004
1.396269e+003;9.273841e-004
1.398197e+003;5.181941e-004
1.400126e+003;4.716208e-004
1.402054e+003;9.881533e-004
1.403983e+003;3.612118e-004
1.405911e+003;-2.697027e-005
1.407840e+003;1.247344e-004
1.409769e+003;3.870228e-005
1.411697e+003;6.925070e-006
1.413626e+003;-1.530192e-004
1.415554e+003;-7.996492e-004
1.417483e+003;-3.306155e-003
1.419411e+003;-4.754000e-003
1.421340e+003;-1.805196e-003
1.423268e+003;-9.127468e-005
1.425197e+003;2.345529e-004
1.427125e+003;2.140324e-004
1.429054e+003;-4.003728e-004
1.430983e+003;-2.571103e-004
1.432911e+003;-6.699186e-005
1.434840e+003;-2.612960e-003
1.436768e+003;-4.959604e-003
1.438697e+003;-2.152445e-003
1.440625e+003;-2.530372e-004
1.442554e+003;-3.997438e-004
1.444482e+003;-1.406579e-003
1.446411e+003;-2.914740e-003
1.448340e+003;-3.465476e-003
1.450268e+003;-2.921750e-003
1.452197e+003;-3.721595e-003
1.454125e+003;-7.060481e-003
1.456054e+003;-1.388470e-002
1.457982e+003;-1.361386e-002
1.459911e+003;-8.150063e-003
1.461839e+003;-6.902115e-003
1.463768e+003;-9.506708e-003
1.465697e+003;-1.023495e-002
1.467625e+003;-8.918889e-003
1.469554e+003;-9.619471e-003
1.471482e+003;-1.267027e-002
1.473411e+003;-1.276072e-002
1.475339e+003;-9.761201e-003
1.477268e+003;-7.767352e-003
1.479196e+003;-6.807336e-003
1.481125e+003;-7.135845e-003
1.483053e+003;-6.889755e-003
1.484982e+003;-7.394793e-003
1.486911e+003;-9.059258e-003
1.488839e+003;-1.064961e-002
1.490768e+003;-1.021473e-002
1.492696e+003;-8.643503e-003
1.494625e+003;-1.084879e-002
1.496553e+003;-1.294823e-002
1.498482e+003;-1.103444e-002
1.500410e+003;-8.692385e-003
1.502339e+003;-7.846531e-003
1.504267e+003;-1.310042e-002
1.506196e+003;-1.959044e-002
1.508125e+003;-1.598446e-002
1.510053e+003;-1.017119e-002
1.511982e+003;-9.288651e-003
1.513910e+003;-9.903111e-003
1.515839e+003;-1.205510e-002
1.517767e+003;-1.369532e-002
1.519696e+003;-1.699715e-002
1.521624e+003;-1.911166e-002
1.523553e+003;-1.585724e-002
1.525481e+003;-1.451644e-002
1.527410e+003;-1.353939e-002
1.529339e+003;-1.237564e-002
1.531267e+003;-1.319496e-002
1.533196e+003;-1.536781e-002
1.535124e+003;-1.420210e-002
1.537053e+003;-1.677408e-002
1.538981e+003;-2.458645e-002
1.540910e+003;-2.465101e-002
1.542838e+003;-1.931188e-002
1.544767e+003;-1.572382e-002
1.546695e+003;-1.352281e-002
1.548624e+003;-1.340933e-002
1.550553e+003;-1.350399e-002
1.552481e+003;-1.485916e-002
1.554410e+003;-1.715745e-002
1.556338e+003;-2.080421e-002
1.558267e+003;-2.815158e-002
1.560195e+003;-2.499633e-002
1.562124e+003;-1.565904e-002
1.564052e+003;-1.326595e-002
1.565981e+003;-1.348138e-002
1.567910e+003;-1.474855e-002
1.569838e+003;-1.571998e-002
1.571767e+003;-1.365837e-002
1.573695e+003;-1.503055e-002
1.575624e+003;-1.949012e-002
1.577552e+003;-1.679009e-002
1.579481e+003;-1.246822e-002
1.581409e+003;-1.211014e-002
1.583338e+003;-1.248541e-002
1.585266e+003;-1.272600e-002
1.587195e+003;-1.284893e-002
1.589124e+003;-1.327071e-002
1.591052e+003;-1.336309e-002
1.592981e+003;-1.357533e-002
1.594909e+003;-1.365471e-002
1.596838e+003;-1.354954e-002
1.598766e+003;-1.351912e-002
1.600695e+003;-1.364404e-002
1.602623e+003;-1.348408e-002
1.604552e+003;-1.320000e-002
1.606480e+003;-1.322160e-002
1.608409e+003;-1.348369e-002
1.610338e+003;-1.343605e-002
1.612266e+003;-1.326255e-002
1.614195e+003;-1.559418e-002
1.616123e+003;-2.019487e-002
1.618052e+003;-1.819091e-002
1.619980e+003;-1.466469e-002
1.621909e+003;-1.580814e-002
1.623837e+003;-1.649869e-002
1.625766e+003;-1.538111e-002
1.627694e+003;-1.519731e-002
1.629623e+003;-1.442847e-002
1.631552e+003;-1.428059e-002
1.633480e+003;-1.829245e-002
1.635409e+003;-2.238112e-002
1.637337e+003;-1.929606e-002
1.639266e+003;-1.578906e-002
1.641194e+003;-1.523081e-002
1.643123e+003;-1.654832e-002
1.645051e+003;-2.081242e-002
1.646980e+003;-2.185910e-002
1.648909e+003;-1.868038e-002
1.650837e+003;-2.382510e-002
1.652766e+003;-3.209892e-002
1.654694e+003;-2.483367e-002
1.656623e+003;-1.630273e-002
1.658551e+003;-1.481202e-002
1.660480e+003;-1.599689e-002
1.662408e+003;-1.745442e-002
1.664337e+003;-1.605105e-002
1.666266e+003;-1.557433e-002
1.668194e+003;-1.848190e-002
1.670123e+003;-1.870949e-002
1.672051e+003;-1.658306e-002
1.673980e+003;-1.774247e-002
1.675908e+003;-1.731374e-002
1.677837e+003;-1.408327e-002
1.679765e+003;-1.362430e-002
1.681694e+003;-1.622303e-002
1.683622e+003;-2.232047e-002
1.685551e+003;-1.987619e-002
1.687479e+003;-1.319152e-002
1.689408e+003;-1.114626e-002
1.691337e+003;-9.917297e-003
1.693265e+003;-1.183142e-002
1.695194e+003;-1.742045e-002
1.697122e+003;-1.666708e-002
1.699051e+003;-1.794335e-002
1.700979e+003;-1.697086e-002
1.702908e+003;-1.019880e-002
1.704836e+003;-8.751912e-003
1.706765e+003;-7.245804e-003
1.708693e+003;-5.098573e-003
1.710622e+003;-3.397658e-003
1.712551e+003;-3.073053e-003
1.714479e+003;-3.946305e-003
1.716408e+003;-5.421440e-003
1.718336e+003;-1.176882e-003
1.720265e+003;8.222221e-003
1.722193e+003;1.514233e-002
1.724122e+003;2.099725e-002
1.726050e+003;2.757611e-002
1.727979e+003;3.305559e-002
1.729908e+003;3.687778e-002
1.731836e+003;3.620364e-002
1.733765e+003;3.356632e-002
1.735693e+003;3.773703e-002
1.737622e+003;3.991716e-002
1.739550e+003;3.653640e-002
1.741479e+003;3.394664e-002
1.743407e+003;3.026259e-002
1.745336e+003;2.507019e-002
1.747265e+003;1.887516e-002
1.749193e+003;1.169965e-002
1.751122e+003;5.523061e-003
1.753050e+003;3.525852e-003
1.754979e+003;7.110086e-004
1.756907e+003;-2.806050e-003
1.758836e+003;-4.597971e-003
1.760764e+003;-6.960453e-003
1.762693e+003;-7.608918e-003
1.764621e+003;-6.723954e-003
1.766550e+003;-8.135234e-003
1.768479e+003;-9.594580e-003
1.770407e+003;-1.153775e-002
1.772336e+003;-1.353200e-002
1.774264e+003;-1.110676e-002
1.776193e+003;-8.906066e-003
1.778121e+003;-8.940605e-003
1.780050e+003;-9.547357e-003
1.781978e+003;-9.711921e-003
1.783907e+003;-1.001027e-002
1.785835e+003;-9.908034e-003
1.787764e+003;-9.424492e-003
1.789693e+003;-1.068727e-002
1.791621e+003;-1.287531e-002
1.793550e+003;-1.212922e-002
1.795478e+003;-1.019612e-002
1.797407e+003;-9.981352e-003
1.799335e+003;-1.041595e-002
1.801264e+003;-1.048760e-002
1.803192e+003;-9.749440e-003
1.805121e+003;-9.427475e-003
1.807049e+003;-9.624429e-003
1.808978e+003;-1.003649e-002
1.810907e+003;-9.903727e-003
1.812835e+003;-9.373779e-003
1.814764e+003;-9.092420e-003
1.816692e+003;-9.389085e-003
1.818621e+003;-9.378741e-003
1.820549e+003;-9.600447e-003
1.822478e+003;-1.022508e-002
1.824406e+003;-1.110401e-002
1.826335e+003;-1.065678e-002
1.828264e+003;-1.109671e-002
1.830192e+003;-1.163969e-002
1.832121e+003;-1.049339e-002
1.834049e+003;-9.980995e-003
1.835978e+003;-1.016890e-002
1.837906e+003;-1.009457e-002
1.839835e+003;-9.774775e-003
1.841763e+003;-1.107401e-002
1.843692e+003;-1.352985e-002
1.845620e+003;-1.247153e-002
1.847549e+003;-1.092598e-002
1.849478e+003;-1.069202e-002
1.851406e+003;-1.058093e-002
1.853335e+003;-1.058604e-002
1.855263e+003;-1.064168e-002
1.857192e+003;-1.090191e-002
1.859120e+003;-1.104229e-002
1.861049e+003;-1.099858e-002
1.862977e+003;-1.112094e-002
1.864906e+003;-1.151284e-002
1.866834e+003;-1.262444e-002
1.868763e+003;-1.334989e-002
1.870692e+003;-1.219482e-002
1.872620e+003;-1.109171e-002
1.874549e+003;-1.108050e-002
1.876477e+003;-1.125508e-002
1.878406e+003;-1.147308e-002
1.880334e+003;-1.171720e-002
1.882263e+003;-1.179924e-002
1.884191e+003;-1.192708e-002
1.886120e+003;-1.205233e-002
1.888048e+003;-1.247727e-002
1.889977e+003;-1.261913e-002
1.891906e+003;-1.208688e-002
1.893834e+003;-1.198858e-002
1.895763e+003;-1.178022e-002
1.897691e+003;-1.154507e-002
1.899620e+003;-1.149186e-002
1.901548e+003;-1.155630e-002
1.903477e+003;-1.190932e-002
1.905405e+003;-1.221289e-002
1.907334e+003;-1.208520e-002
1.909262e+003;-1.229754e-002
1.911191e+003;-1.241751e-002
1.913120e+003;-1.232431e-002
1.915048e+003;-1.270657e-002
1.916977e+003;-1.379262e-002
1.918905e+003;-1.360041e-002
1.920834e+003;-1.293079e-002
1.922762e+003;-1.306872e-002
1.924691e+003;-1.283179e-002
1.926619e+003;-1.261636e-002
1.928548e+003;-1.277050e-002
1.930477e+003;-1.293732e-002
1.932405e+003;-1.308199e-002
1.934334e+003;-1.308785e-002
1.936262e+003;-1.301743e-002
1.938191e+003;-1.323883e-002
1.940119e+003;-1.382825e-002
1.942048e+003;-1.420364e-002
1.943976e+003;-1.401372e-002
1.945905e+003;-1.386586e-002
1.947833e+003;-1.359825e-002
1.949762e+003;-1.339056e-002
1.951691e+003;-1.352050e-002
1.953619e+003;-1.387803e-002
1.955548e+003;-1.405767e-002
1.957476e+003;-1.386866e-002
1.959405e+003;-1.380241e-002
1.961333e+003;-1.402347e-002
1.963262e+003;-1.432227e-002
1.965190e+003;-1.450673e-002
1.967119e+003;-1.468045e-002
1.969047e+003;-1.457204e-002
1.970976e+003;-1.447744e-002
1.972905e+003;-1.447905e-002
1.974833e+003;-1.463349e-002
1.976762e+003;-1.485714e-002
1.978690e+003;-1.482432e-002
1.980619e+003;-1.502367e-002
1.982547e+003;-1.536624e-002
1.984476e+003;-1.545035e-002
1.986404e+003;-1.553277e-002
1.988333e+003;-1.558552e-002
1.990261e+003;-1.590388e-002
1.992190e+003;-1.628910e-002
1.994119e+003;-1.617885e-002
1.996047e+003;-1.613726e-002
1.997976e+003;-1.619360e-002
1.999904e+003;-1.636584e-002
2.001833e+003;-1.640902e-002
2.003761e+003;-1.644341e-002
2.005690e+003;-1.670838e-002
2.007618e+003;-1.675789e-002
2.009547e+003;-1.659932e-002
2.011476e+003;-1.663045e-002
2.013404e+003;-1.682837e-002
2.015333e+003;-1.710639e-002
2.017261e+003;-1.708007e-002
2.019190e+003;-1.683621e-002
2.021118e+003;-1.689839e-002
2.023047e+003;-1.722681e-002
2.024975e+003;-1.757143e-002
2.026904e+003;-1.751969e-002
2.028833e+003;-1.737901e-002
2.030761e+003;-1.759578e-002
2.032690e+003;-1.795374e-002
2.034618e+003;-1.797183e-002
2.036547e+003;-1.792233e-002
2.038475e+003;-1.799472e-002
2.040404e+003;-1.801338e-002
2.042332e+003;-1.805811e-002
2.044261e+003;-1.840883e-002
2.046189e+003;-1.875699e-002
2.048118e+003;-1.883175e-002
2.050047e+003;-1.880304e-002
2.051975e+003;-1.876651e-002
2.053904e+003;-1.873345e-002
2.055832e+003;-1.864953e-002
2.057761e+003;-1.865547e-002
2.059689e+003;-1.899918e-002
2.061618e+003;-1.920015e-002
2.063546e+003;-1.940359e-002
2.065475e+003;-1.981069e-002
2.067404e+003;-1.992157e-002
2.069332e+003;-1.973655e-002
2.071260e+003;-1.968193e-002
2.073189e+003;-1.964453e-002
2.075118e+003;-1.972600e-002
2.077046e+003;-1.977752e-002
2.078975e+003;-1.997657e-002
2.080903e+003;-2.026685e-002
2.082832e+003;-2.028588e-002
2.084760e+003;-2.022801e-002
2.086689e+003;-2.036967e-002
2.088617e+003;-2.046748e-002
2.090546e+003;-2.056198e-002
2.092475e+003;-2.053563e-002
2.094403e+003;-2.054817e-002
2.096332e+003;-2.078592e-002
2.098260e+003;-2.090368e-002
2.100189e+003;-2.081997e-002
2.102117e+003;-2.067065e-002
2.104046e+003;-2.051824e-002
2.105974e+003;-2.069494e-002
2.107903e+003;-2.090855e-002
2.109832e+003;-2.114761e-002
2.111760e+003;-2.139276e-002
2.113688e+003;-2.141168e-002
2.115617e+003;-2.127516e-002
2.117546e+003;-2.132595e-002
2.119474e+003;-2.138080e-002
2.121403e+003;-2.143865e-002
2.123331e+003;-2.157266e-002
2.125260e+003;-2.157399e-002
2.127188e+003;-2.181262e-002
2.129117e+003;-2.177692e-002
2.131045e+003;-2.143467e-002
2.132974e+003;-2.125159e-002
2.134903e+003;-2.126487e-002
2.136831e+003;-2.153379e-002
2.138760e+003;-2.152783e-002
2.140688e+003;-2.132554e-002
2.142617e+003;-2.128330e-002
2.144545e+003;-2.168394e-002
2.146474e+003;-2.209512e-002
2.148402e+003;-2.209799e-002
2.150331e+003;-2.187602e-002
2.152260e+003;-2.192573e-002
2.154188e+003;-2.215023e-002
2.156117e+003;-2.216899e-002
2.158045e+003;-2.184662e-002
2.159974e+003;-2.166828e-002
2.161902e+003;-2.180415e-002
2.163831e+003;-2.173185e-002
2.165759e+003;-2.174846e-002
2.167688e+003;-2.190122e-002
2.169616e+003;-2.175889e-002
2.171545e+003;-2.187665e-002
2.173474e+003;-2.216912e-002
2.175402e+003;-2.215835e-002
2.177331e+003;-2.204168e-002
2.179259e+003;-2.222645e-002
2.181188e+003;-2.236759e-002
2.183116e+003;-2.259560e-002
2.185045e+003;-2.273636e-002
2.186973e+003;-2.277893e-002
2.188902e+003;-2.282707e-002
2.190831e+003;-2.271328e-002
2.192759e+003;-2.286133e-002
2.194688e+003;-2.315653e-002
2.196616e+003;-2.306225e-002
2.198545e+003;-2.317573e-002
2.200473e+003;-2.334105e-002
2.202402e+003;-2.316655e-002
2.204330e+003;-2.309964e-002
2.206259e+003;-2.323861e-002
2.208188e+003;-2.313454e-002
2.210116e+003;-2.315301e-002
2.212044e+003;-2.331976e-002
2.213973e+003;-2.345213e-002
2.215902e+003;-2.344576e-002
2.217830e+003;-2.343351e-002
2.219759e+003;-2.348371e-002
2.221687e+003;-2.361019e-002
2.223616e+003;-2.363206e-002
2.225544e+003;-2.385492e-002
2.227473e+003;-2.373965e-002
2.229401e+003;-2.353089e-002
2.231330e+003;-2.365484e-002
2.233259e+003;-2.381446e-002
2.235187e+003;-2.384046e-002
2.237116e+003;-2.377303e-002
2.239044e+003;-2.378903e-002
2.240973e+003;-2.395694e-002
2.242901e+003;-2.417574e-002
2.244830e+003;-2.417766e-002
2.246758e+003;-2.391765e-002
2.248687e+003;-2.405403e-002
2.250615e+003;-2.430171e-002
2.252544e+003;-2.401710e-002
2.254473e+003;-2.385803e-002
2.256401e+003;-2.388560e-002
2.258330e+003;-2.399368e-002
2.260258e+003;-2.402626e-002
2.262187e+003;-2.384072e-002
2.264115e+003;-2.381155e-002
2.266044e+003;-2.385668e-002
2.267972e+003;-2.415729e-002
2.269901e+003;-2.434147e-002
2.271830e+003;-2.448361e-002
2.273758e+003;-2.448878e-002
2.275687e+003;-2.425572e-002
2.277615e+003;-2.421507e-002
2.279544e+003;-2.423215e-002
2.281472e+003;-2.411817e-002
2.283401e+003;-2.414832e-002
2.285329e+003;-2.428392e-002
2.287258e+003;-2.418317e-002
2.289187e+003;-2.433458e-002
2.291115e+003;-2.455235e-002
2.293043e+003;-2.446999e-002
2.294972e+003;-2.429585e-002
2.296901e+003;-2.433483e-002
2.298829e+003;-2.441449e-002
2.300758e+003;-2.429839e-002
2.302686e+003;-2.471167e-002
2.304615e+003;-2.530211e-002
2.306543e+003;-2.550815e-002
2.308472e+003;-2.563243e-002
2.310400e+003;-2.571051e-002
2.312329e+003;-2.583316e-002
2.314258e+003;-2.614238e-002
2.316186e+003;-2.663351e-002
2.318115e+003;-2.713905e-002
2.320043e+003;-2.756917e-002
2.321972e+003;-2.798463e-002
2.323900e+003;-2.839169e-002
2.325829e+003;-2.890756e-002
2.327757e+003;-2.953957e-002
2.329686e+003;-3.010680e-002
2.331615e+003;-3.053674e-002
2.333543e+003;-3.102570e-002
2.335472e+003;-3.124137e-002
2.337400e+003;-3.098871e-002
2.339329e+003;-3.082482e-002
2.341257e+003;-3.045180e-002
2.343186e+003;-2.978331e-002
2.345114e+003;-2.889721e-002
2.347043e+003;-2.780631e-002
2.348971e+003;-2.708850e-002
2.350900e+003;-2.761516e-002
2.352829e+003;-2.936058e-002
2.354757e+003;-3.094869e-002
2.356686e+003;-3.208517e-002
2.358614e+003;-3.281944e-002
2.360543e+003;-3.297591e-002
2.362471e+003;-3.275602e-002
2.364400e+003;-3.232871e-002
2.366328e+003;-3.183407e-002
2.368257e+003;-3.112724e-002
2.370186e+003;-3.014219e-002
2.372114e+003;-2.902113e-002
2.374042e+003;-2.786218e-002
2.375971e+003;-2.700687e-002
2.377900e+003;-2.677051e-002
2.379828e+003;-2.669530e-002
2.381757e+003;-2.642376e-002
2.383685e+003;-2.574757e-002
2.385614e+003;-2.512959e-002
2.387542e+003;-2.513491e-002
2.389471e+003;-2.538241e-002
2.391399e+003;-2.528308e-002
2.393328e+003;-2.509391e-002
2.395257e+003;-2.493845e-002
2.397185e+003;-2.489324e-002
2.399114e+003;-2.503959e-002
2.401042e+003;-2.518769e-002
2.402971e+003;-2.506151e-002
2.404899e+003;-2.496989e-002
2.406828e+003;-2.516537e-002
2.408756e+003;-2.519685e-002
2.410685e+003;-2.485470e-002
2.412614e+003;-2.478253e-002
2.414542e+003;-2.480932e-002
2.416471e+003;-2.471195e-002
2.418399e+003;-2.473803e-002
2.420328e+003;-2.486634e-002
2.422256e+003;-2.481142e-002
2.424185e+003;-2.478992e-002
2.426113e+003;-2.472889e-002
2.428042e+003;-2.472601e-002
2.429970e+003;-2.491180e-002
2.431899e+003;-2.493073e-002
2.433828e+003;-2.493805e-002
2.435756e+003;-2.491449e-002
2.437685e+003;-2.471462e-002
2.439613e+003;-2.437721e-002
2.441542e+003;-2.427978e-002
2.443470e+003;-2.448233e-002
2.445399e+003;-2.449201e-002
2.447327e+003;-2.441064e-002
2.449256e+003;-2.436334e-002
2.451185e+003;-2.411786e-002
2.453113e+003;-2.422103e-002
2.455042e+003;-2.441637e-002
2.456970e+003;-2.436732e-002
2.458899e+003;-2.428811e-002
2.460827e+003;-2.440810e-002
2.462756e+003;-2.453278e-002
2.464684e+003;-2.449702e-002
2.466613e+003;-2.450644e-002
2.468542e+003;-2.443360e-002
2.470470e+003;-2.418800e-002
2.472398e+003;-2.421197e-002
2.474327e+003;-2.434485e-002
2.476256e+003;-2.409852e-002
2.478184e+003;-2.421150e-002
2.480113e+003;-2.466412e-002
2.482041e+003;-2.477305e-002
2.483970e+003;-2.457436e-002
2.485898e+003;-2.450860e-002
2.487827e+003;-2.469812e-002
2.489755e+003;-2.494818e-002
2.491684e+003;-2.503508e-002
2.493613e+003;-2.505926e-002
2.495541e+003;-2.489024e-002
2.497470e+003;-2.453572e-002
2.499398e+003;-2.432875e-002
2.501327e+003;-2.467229e-002
2.503255e+003;-2.471587e-002
2.505184e+003;-2.439839e-002
2.507112e+003;-2.438968e-002
2.509041e+003;-2.449232e-002
2.510969e+003;-2.447685e-002
2.512898e+003;-2.446861e-002
2.514827e+003;-2.448975e-002
2.516755e+003;-2.473749e-002
2.518684e+003;-2.489293e-002
2.520612e+003;-2.471427e-002
2.522541e+003;-2.442038e-002
2.524469e+003;-2.415757e-002
2.526398e+003;-2.421780e-002
2.528326e+003;-2.429648e-002
2.530255e+003;-2.444039e-002
2.532184e+003;-2.478942e-002
2.534112e+003;-2.512762e-002
2.536041e+003;-2.529608e-002
2.537969e+003;-2.498435e-002
2.539898e+003;-2.472933e-002
2.541826e+003;-2.490013e-002
2.543755e+003;-2.504362e-002
2.545683e+003;-2.515592e-002
2.547612e+003;-2.515252e-002
2.549541e+003;-2.506170e-002
2.551469e+003;-2.491440e-002
2.553397e+003;-2.458983e-002
2.555326e+003;-2.451258e-002
2.557255e+003;-2.456212e-002
2.559183e+003;-2.456099e-002
2.561112e+003;-2.471418e-002
2.563040e+003;-2.496592e-002
2.564969e+003;-2.497818e-002
2.566897e+003;-2.481445e-002
2.568826e+003;-2.492594e-002
2.570754e+003;-2.489885e-002
2.572683e+003;-2.470948e-002
2.574612e+003;-2.490639e-002
2.576540e+003;-2.485035e-002
2.578469e+003;-2.477386e-002
2.580397e+003;-2.470619e-002
2.582326e+003;-2.473765e-002
2.584254e+003;-2.484640e-002
2.586183e+003;-2.458332e-002
2.588111e+003;-2.453920e-002
2.590040e+003;-2.467351e-002
2.591969e+003;-2.474663e-002
2.593897e+003;-2.461942e-002
2.595826e+003;-2.479477e-002
2.597754e+003;-2.481276e-002
2.599683e+003;-2.468359e-002
2.601611e+003;-2.454280e-002
2.603540e+003;-2.451026e-002
2.605468e+003;-2.455407e-002
2.607397e+003;-2.457809e-002
2.609325e+003;-2.471255e-002
2.611254e+003;-2.479489e-002
2.613183e+003;-2.484493e-002
2.615111e+003;-2.479227e-002
2.617040e+003;-2.495603e-002
2.618968e+003;-2.504525e-002
2.620897e+003;-2.488329e-002
2.622825e+003;-2.478801e-002
2.624754e+003;-2.467489e-002
2.626682e+003;-2.482741e-002
2.628611e+003;-2.501244e-002
2.630540e+003;-2.488580e-002
2.632468e+003;-2.473687e-002
2.634396e+003;-2.484180e-002
2.636325e+003;-2.500756e-002
2.638254e+003;-2.509801e-002
2.640182e+003;-2.505829e-002
2.642111e+003;-2.483373e-002
2.644039e+003;-2.456957e-002
2.645968e+003;-2.456819e-002
2.647896e+003;-2.468722e-002
2.649825e+003;-2.451991e-002
2.651753e+003;-2.452968e-002
2.653682e+003;-2.490623e-002
2.655611e+003;-2.511512e-002
2.657539e+003;-2.502995e-002
2.659468e+003;-2.495090e-002
2.661396e+003;-2.470228e-002
2.663325e+003;-2.437558e-002
2.665253e+003;-2.420831e-002
2.667182e+003;-2.447146e-002
2.669110e+003;-2.482982e-002
2.671039e+003;-2.475793e-002
2.672968e+003;-2.473317e-002
2.674896e+003;-2.495688e-002
2.676825e+003;-2.492544e-002
2.678753e+003;-2.470419e-002
2.680682e+003;-2.462411e-002
2.682610e+003;-2.453522e-002
2.684539e+003;-2.455044e-002
2.686467e+003;-2.441289e-002
2.688396e+003;-2.440575e-002
2.690324e+003;-2.445527e-002
2.692253e+003;-2.442320e-002
2.694182e+003;-2.452799e-002
2.696110e+003;-2.433893e-002
2.698039e+003;-2.406638e-002
2.699967e+003;-2.409591e-002
2.701896e+003;-2.397741e-002
2.703824e+003;-2.390413e-002
2.705753e+003;-2.398541e-002
2.707681e+003;-2.403827e-002
2.709610e+003;-2.393358e-002
2.711539e+003;-2.389535e-002
2.713467e+003;-2.400569e-002
2.715396e+003;-2.422203e-002
2.717324e+003;-2.432330e-002
2.719253e+003;-2.426819e-002
2.721181e+003;-2.416478e-002
2.723110e+003;-2.408921e-002
2.725038e+003;-2.444553e-002
2.726967e+003;-2.486468e-002
2.728896e+003;-2.461497e-002
2.730824e+003;-2.436243e-002
2.732752e+003;-2.412444e-002
2.734681e+003;-2.396493e-002
2.736610e+003;-2.400422e-002
2.738538e+003;-2.396387e-002
2.740467e+003;-2.404645e-002
2.742395e+003;-2.413535e-002
2.744324e+003;-2.405654e-002
2.746252e+003;-2.422413e-002
2.748181e+003;-2.408432e-002
2.750109e+003;-2.352254e-002
2.752038e+003;-2.352501e-002
2.753967e+003;-2.385709e-002
2.755895e+003;-2.401021e-002
2.757824e+003;-2.400779e-002
2.759752e+003;-2.397214e-002
2.761681e+003;-2.420925e-002
2.763609e+003;-2.426358e-002
2.765538e+003;-2.388895e-002
2.767466e+003;-2.367508e-002
2.769395e+003;-2.373353e-002
2.771323e+003;-2.381327e-002
2.773252e+003;-2.398067e-002
2.775181e+003;-2.407413e-002
2.777109e+003;-2.403983e-002
2.779038e+003;-2.398224e-002
2.780966e+003;-2.380593e-002
2.782895e+003;-2.356418e-002
2.784823e+003;-2.369579e-002
2.786752e+003;-2.376057e-002
2.788680e+003;-2.353879e-002
2.790609e+003;-2.352053e-002
2.792538e+003;-2.353635e-002
2.794466e+003;-2.343750e-002
2.796395e+003;-2.315826e-002
2.798323e+003;-2.334271e-002
2.800252e+003;-2.359271e-002
2.802180e+003;-2.351617e-002
2.804109e+003;-2.329976e-002
2.806037e+003;-2.322143e-002
2.807966e+003;-2.296946e-002
2.809895e+003;-2.282238e-002
2.811823e+003;-2.291119e-002
2.813751e+003;-2.288497e-002
2.815680e+003;-2.270360e-002
2.817609e+003;-2.246520e-002
2.819537e+003;-2.221083e-002
2.821466e+003;-2.245865e-002
2.823394e+003;-2.266102e-002
2.825323e+003;-2.264916e-002
2.827251e+003;-2.246328e-002
2.829180e+003;-2.205478e-002
2.831108e+003;-2.209178e-002
2.833037e+003;-2.262705e-002
2.834966e+003;-2.272164e-002
2.836894e+003;-2.268627e-002
2.838823e+003;-2.308522e-002
2.840751e+003;-2.415189e-002
2.842680e+003;-2.511899e-002
2.844608e+003;-2.619657e-002
2.846537e+003;-2.826128e-002
2.848465e+003;-3.038015e-002
2.850394e+003;-3.160464e-002
2.852323e+003;-3.168094e-002
2.854251e+003;-3.070400e-002
2.856180e+003;-2.892340e-002
2.858108e+003;-2.691566e-002
2.860037e+003;-2.523600e-002
2.861965e+003;-2.385116e-002
2.863894e+003;-2.243845e-002
2.865822e+003;-2.117665e-002
2.867751e+003;-2.054122e-002
2.869679e+003;-2.050655e-002
2.871608e+003;-2.042731e-002
2.873536e+003;-2.038744e-002
2.875465e+003;-2.024031e-002
2.877394e+003;-1.982773e-002
2.879322e+003;-1.946566e-002
2.881251e+003;-1.943537e-002
2.883179e+003;-1.962597e-002
2.885108e+003;-2.050146e-002
2.887036e+003;-2.122265e-002
2.888965e+003;-2.116052e-002
2.890893e+003;-2.121877e-002
2.892822e+003;-2.181729e-002
2.894750e+003;-2.269765e-002
2.896679e+003;-2.288717e-002
2.898608e+003;-2.315173e-002
2.900536e+003;-2.382566e-002
2.902465e+003;-2.418026e-002
2.904393e+003;-2.436869e-002
2.906322e+003;-2.490188e-002
2.908250e+003;-2.561631e-002
2.910179e+003;-2.640696e-002
2.912107e+003;-2.745898e-002
2.914036e+003;-2.908894e-002
2.915965e+003;-3.098482e-002
2.917893e+003;-3.253919e-002
2.919822e+003;-3.391365e-002
2.921750e+003;-3.453273e-002
2.923679e+003;-3.443632e-002
2.925607e+003;-3.388033e-002
2.927536e+003;-3.307546e-002
2.929464e+003;-3.183733e-002
2.931393e+003;-3.037295e-002
2.933322e+003;-2.880531e-002
2.935250e+003;-2.717367e-002
2.937178e+003;-2.585473e-002
2.939107e+003;-2.493370e-002
2.941036e+003;-2.422560e-002
2.942964e+003;-2.330020e-002
2.944893e+003;-2.276227e-002
2.946821e+003;-2.281616e-002
2.948750e+003;-2.323358e-002
2.950678e+003;-2.378109e-002
2.952607e+003;-2.402456e-002
2.954535e+003;-2.367417e-002
2.956464e+003;-2.346582e-002
2.958393e+003;-2.356149e-002
2.960321e+003;-2.366043e-002
2.962250e+003;-2.369984e-002
2.964178e+003;-2.315660e-002
2.966107e+003;-2.221984e-002
2.968035e+003;-2.148501e-002
2.969964e+003;-2.130415e-002
2.971892e+003;-2.131229e-002
2.973821e+003;-2.107877e-002
2.975750e+003;-2.100576e-002
2.977678e+003;-2.131144e-002
2.979607e+003;-2.132248e-002
2.981535e+003;-2.131390e-002
2.983464e+003;-2.151146e-002
2.985392e+003;-2.166478e-002
2.987321e+003;-2.184571e-002
2.989249e+003;-2.204741e-002
2.991178e+003;-2.230492e-002
2.993106e+003;-2.278412e-002
2.995035e+003;-2.329360e-002
2.996964e+003;-2.379596e-002
2.998892e+003;-2.409576e-002
3.000821e+003;-2.439566e-002
3.002749e+003;-2.474469e-002
3.004678e+003;-2.502207e-002
3.006606e+003;-2.522177e-002
3.008535e+003;-2.523459e-002
3.010463e+003;-2.536963e-002
3.012392e+003;-2.535766e-002
3.014321e+003;-2.509835e-002
3.016249e+003;-2.495610e-002
3.018177e+003;-2.490964e-002
3.020106e+003;-2.482059e-002
3.022035e+003;-2.492941e-002
3.023963e+003;-2.542807e-002
3.025892e+003;-2.555524e-002
3.027820e+003;-2.518522e-002
3.029749e+003;-2.516524e-002
3.031677e+003;-2.530024e-002
3.033606e+003;-2.553549e-002
3.035534e+003;-2.580778e-002
3.037463e+003;-2.583213e-002
3.039392e+003;-2.560612e-002
3.041320e+003;-2.563817e-002
3.043249e+003;-2.609415e-002
3.045177e+003;-2.620271e-002
3.047106e+003;-2.588657e-002
3.049034e+003;-2.575426e-002
3.050963e+003;-2.573905e-002
3.052891e+003;-2.627352e-002
3.054820e+003;-2.660942e-002
3.056749e+003;-2.646604e-002
3.058677e+003;-2.650161e-002
3.060606e+003;-2.662802e-002
3.062534e+003;-2.661559e-002
3.064463e+003;-2.657006e-002
3.066391e+003;-2.686854e-002
3.068320e+003;-2.705528e-002
3.070248e+003;-2.675789e-002
3.072177e+003;-2.681241e-002
3.074105e+003;-2.700332e-002
3.076034e+003;-2.710357e-002
3.077963e+003;-2.717893e-002
3.079891e+003;-2.723740e-002
3.081820e+003;-2.731906e-002
3.083748e+003;-2.738865e-002
3.085677e+003;-2.743743e-002
3.087605e+003;-2.744660e-002
3.089534e+003;-2.739882e-002
3.091462e+003;-2.737680e-002
3.093391e+003;-2.772251e-002
3.095320e+003;-2.776298e-002
3.097248e+003;-2.756591e-002
3.099177e+003;-2.774626e-002
3.101105e+003;-2.757066e-002
3.103034e+003;-2.728719e-002
3.104962e+003;-2.758994e-002
3.106891e+003;-2.779474e-002
3.108819e+003;-2.806300e-002
3.110748e+003;-2.799318e-002
3.112677e+003;-2.784854e-002
3.114605e+003;-2.810823e-002
3.116533e+003;-2.848309e-002
3.118462e+003;-2.865397e-002
3.120391e+003;-2.848755e-002
3.122319e+003;-2.830652e-002
3.124248e+003;-2.860796e-002
3.126176e+003;-2.910815e-002
3.128105e+003;-2.926383e-002
3.130033e+003;-2.914722e-002
3.131962e+003;-2.888065e-002
3.133890e+003;-2.888602e-002
3.135819e+003;-2.899287e-002
3.137748e+003;-2.906778e-002
3.139676e+003;-2.917966e-002
3.141605e+003;-2.924180e-002
3.143533e+003;-2.910753e-002
3.145462e+003;-2.883201e-002
3.147390e+003;-2.897064e-002
3.149319e+003;-2.947252e-002
3.151247e+003;-2.983568e-002
3.153176e+003;-2.964249e-002
3.155104e+003;-2.935482e-002
3.157033e+003;-2.946038e-002
3.158962e+003;-2.952437e-002
3.160890e+003;-2.958009e-002
3.162819e+003;-2.957731e-002
3.164747e+003;-2.950698e-002
3.166676e+003;-2.930976e-002
3.168604e+003;-2.922269e-002
3.170533e+003;-2.950725e-002
3.172461e+003;-2.980459e-002
3.174390e+003;-2.987865e-002
3.176319e+003;-2.994394e-002
3.178247e+003;-2.992730e-002
3.180176e+003;-2.989541e-002
3.182104e+003;-2.992582e-002
3.184033e+003;-2.989585e-002
3.185961e+003;-2.995832e-002
3.187890e+003;-3.007038e-002
3.189818e+003;-3.015147e-002
3.191747e+003;-3.024639e-002
3.193676e+003;-3.032506e-002
3.195604e+003;-3.039755e-002
3.197532e+003;-3.040033e-002
3.199461e+003;-3.040975e-002
3.201390e+003;-3.032040e-002
3.203318e+003;-3.029583e-002
3.205247e+003;-3.037493e-002
3.207175e+003;-3.034218e-002
3.209104e+003;-3.050749e-002
3.211032e+003;-3.098791e-002
3.212961e+003;-3.126074e-002
3.214889e+003;-3.124865e-002
3.216818e+003;-3.086723e-002
3.218747e+003;-3.070339e-002
3.220675e+003;-3.058735e-002
3.222604e+003;-3.058056e-002
3.224532e+003;-3.089478e-002
3.226461e+003;-3.124418e-002
3.228389e+003;-3.162577e-002
3.230318e+003;-3.165719e-002
3.232246e+003;-3.124350e-002
3.234175e+003;-3.131611e-002
3.236104e+003;-3.179653e-002
3.238032e+003;-3.174316e-002
3.239961e+003;-3.120823e-002
3.241889e+003;-3.097917e-002
3.243818e+003;-3.084797e-002
3.245746e+003;-3.114488e-002
3.247675e+003;-3.172699e-002
3.249603e+003;-3.162337e-002
3.251532e+003;-3.139321e-002
3.253460e+003;-3.162096e-002
3.255389e+003;-3.168575e-002
3.257318e+003;-3.143275e-002
3.259246e+003;-3.140100e-002
3.261175e+003;-3.225513e-002
3.263103e+003;-3.298626e-002
3.265032e+003;-3.262388e-002
3.266960e+003;-3.239286e-002
3.268889e+003;-3.248834e-002
3.270817e+003;-3.231068e-002
3.272746e+003;-3.215188e-002
3.274675e+003;-3.233178e-002
3.276603e+003;-3.245387e-002
3.278531e+003;-3.278598e-002
3.280460e+003;-3.293052e-002
3.282389e+003;-3.275814e-002
3.284317e+003;-3.305096e-002
3.286246e+003;-3.323451e-002
3.288174e+003;-3.267065e-002
3.290103e+003;-3.243078e-002
3.292031e+003;-3.274253e-002
3.293960e+003;-3.292047e-002
3.295888e+003;-3.283741e-002
3.297817e+003;-3.301445e-002
3.299746e+003;-3.328700e-002
3.301674e+003;-3.345787e-002
3.303603e+003;-3.360442e-002
3.305531e+003;-3.375236e-002
3.307460e+003;-3.371153e-002
3.309388e+003;-3.354897e-002
3.311317e+003;-3.349146e-002
3.313245e+003;-3.334907e-002
3.315174e+003;-3.342271e-002
3.317103e+003;-3.359951e-002
3.319031e+003;-3.342526e-002
3.320960e+003;-3.342731e-002
3.322888e+003;-3.337019e-002
3.324817e+003;-3.308713e-002
3.326745e+003;-3.313125e-002
3.328674e+003;-3.341323e-002
3.330602e+003;-3.342618e-002
3.332531e+003;-3.326665e-002
3.334459e+003;-3.367326e-002
3.336388e+003;-3.390911e-002
3.338317e+003;-3.392303e-002
3.340245e+003;-3.426565e-002
3.342174e+003;-3.426228e-002
3.344102e+003;-3.382998e-002
3.346031e+003;-3.342738e-002
3.347959e+003;-3.361083e-002
3.349888e+003;-3.393136e-002
3.351816e+003;-3.391466e-002
3.353745e+003;-3.386599e-002
3.355674e+003;-3.393593e-002
3.357602e+003;-3.392367e-002
3.359531e+003;-3.381870e-002
3.361459e+003;-3.380962e-002
3.363388e+003;-3.409950e-002
3.365316e+003;-3.408333e-002
3.367245e+003;-3.395961e-002
3.369173e+003;-3.365204e-002
3.371102e+003;-3.341078e-002
3.373031e+003;-3.366422e-002
3.374959e+003;-3.369104e-002
3.376887e+003;-3.352309e-002
3.378816e+003;-3.351591e-002
3.380745e+003;-3.352118e-002
3.382673e+003;-3.388095e-002
3.384602e+003;-3.408504e-002
3.386530e+003;-3.398486e-002
3.388459e+003;-3.379001e-002
3.390387e+003;-3.388631e-002
3.392316e+003;-3.398814e-002
3.394244e+003;-3.362598e-002
3.396173e+003;-3.409350e-002
3.398102e+003;-3.414502e-002
3.400030e+003;-3.370966e-002
3.401959e+003;-3.374669e-002
3.403887e+003;-3.403682e-002
3.405816e+003;-3.377020e-002
3.407744e+003;-3.324403e-002
3.409673e+003;-3.307844e-002
3.411601e+003;-3.332793e-002
3.413530e+003;-3.356842e-002
3.415458e+003;-3.374822e-002
3.417387e+003;-3.404341e-002
3.419316e+003;-3.356602e-002
3.421244e+003;-3.276635e-002
3.423173e+003;-3.290521e-002
3.425101e+003;-3.307479e-002
3.427030e+003;-3.274518e-002
3.428958e+003;-3.252508e-002
3.430887e+003;-3.269837e-002
3.432815e+003;-3.318334e-002
3.434744e+003;-3.355060e-002
3.436673e+003;-3.319317e-002
3.438601e+003;-3.280773e-002
3.440530e+003;-3.268823e-002
3.442458e+003;-3.275338e-002
3.444387e+003;-3.297609e-002
3.446315e+003;-3.270815e-002
3.448244e+003;-3.250405e-002
3.450172e+003;-3.257433e-002
3.452101e+003;-3.236441e-002
3.454030e+003;-3.218948e-002
3.455958e+003;-3.199055e-002
3.457886e+003;-3.192249e-002
3.459815e+003;-3.160220e-002
3.461744e+003;-3.151020e-002
3.463672e+003;-3.150215e-002
3.465601e+003;-3.193859e-002
3.467529e+003;-3.212089e-002
3.469458e+003;-3.197083e-002
3.471386e+003;-3.182277e-002
3.473315e+003;-3.175708e-002
3.475243e+003;-3.229573e-002
3.477172e+003;-3.273869e-002
3.479101e+003;-3.255314e-002
3.481029e+003;-3.199613e-002
3.482958e+003;-3.143805e-002
3.484886e+003;-3.104294e-002
3.486815e+003;-3.128016e-002
3.488743e+003;-3.151356e-002
3.490672e+003;-3.128383e-002
3.492600e+003;-3.164330e-002
3.494529e+003;-3.168738e-002
3.496458e+003;-3.130301e-002
3.498386e+003;-3.117480e-002
3.500315e+003;-3.150517e-002
3.502243e+003;-3.207864e-002
3.504172e+003;-3.195713e-002
3.506100e+003;-3.153257e-002
3.508029e+003;-3.185925e-002
3.509957e+003;-3.196273e-002
3.511886e+003;-3.129197e-002
3.513814e+003;-3.078855e-002
3.515743e+003;-3.105476e-002
3.517672e+003;-3.126724e-002
3.519600e+003;-3.118269e-002
3.521529e+003;-3.146638e-002
3.523457e+003;-3.186735e-002
3.525386e+003;-3.177762e-002
3.527314e+003;-3.168051e-002
3.529243e+003;-3.148548e-002
3.531171e+003;-3.115562e-002
3.533100e+003;-3.090950e-002
3.535029e+003;-3.090370e-002
3.536957e+003;-3.063923e-002
3.538885e+003;-3.047391e-002
3.540814e+003;-3.053689e-002
3.542743e+003;-3.104066e-002
3.544671e+003;-3.154437e-002
3.546600e+003;-3.142511e-002
3.548528e+003;-3.066970e-002
3.550457e+003;-3.082371e-002
3.552385e+003;-3.079945e-002
3.554314e+003;-3.002085e-002
3.556242e+003;-2.954765e-002
3.558171e+003;-3.013929e-002
3.560100e+003;-3.108650e-002
3.562028e+003;-3.155090e-002
3.563957e+003;-3.221163e-002
3.565885e+003;-3.334039e-002
3.567814e+003;-3.230921e-002
3.569742e+003;-3.038544e-002
3.571671e+003;-3.010896e-002
3.573599e+003;-3.055159e-002
3.575528e+003;-3.063787e-002
3.577457e+003;-3.036786e-002
3.579385e+003;-3.007811e-002
3.581314e+003;-3.030108e-002
3.583242e+003;-3.064960e-002
3.585171e+003;-3.184383e-002
3.587099e+003;-3.283729e-002
3.589028e+003;-3.171954e-002
3.590956e+003;-3.046125e-002
3.592885e+003;-3.070194e-002
3.594813e+003;-3.078973e-002
3.596742e+003;-3.058204e-002
3.598671e+003;-3.084127e-002
3.600599e+003;-3.094999e-002
3.602528e+003;-3.041507e-002
3.604456e+003;-3.038633e-002
3.606385e+003;-3.160821e-002
3.608313e+003;-3.326653e-002
3.610242e+003;-3.291506e-002
3.612170e+003;-3.227762e-002
3.614099e+003;-3.148684e-002
3.616028e+003;-3.159906e-002
3.617956e+003;-3.299231e-002
3.619885e+003;-3.254358e-002
3.621813e+003;-3.034546e-002
3.623742e+003;-2.975723e-002
3.625670e+003;-3.161009e-002
3.627599e+003;-3.604852e-002
3.629527e+003;-3.590017e-002
3.631456e+003;-3.155867e-002
3.633385e+003;-3.024682e-002
3.635313e+003;-2.971626e-002
3.637241e+003;-2.955171e-002
3.639170e+003;-2.981001e-002
3.641099e+003;-3.004255e-002
3.643027e+003;-3.052336e-002
3.644956e+003;-3.163335e-002
3.646884e+003;-3.466867e-002
3.648813e+003;-3.695690e-002
3.650741e+003;-3.460148e-002
3.652670e+003;-3.101468e-002
3.654598e+003;-3.173521e-002
3.656527e+003;-3.203820e-002
3.658456e+003;-2.969776e-002
3.660384e+003;-2.886738e-002
3.662313e+003;-2.881514e-002
3.664241e+003;-2.893621e-002
3.666170e+003;-3.021851e-002
3.668098e+003;-3.356354e-002
3.670027e+003;-3.602574e-002
3.671955e+003;-3.355860e-002
3.673884e+003;-3.543511e-002
3.675813e+003;-3.699335e-002
3.677741e+003;-3.237210e-002
3.679669e+003;-2.984444e-002
3.681598e+003;-2.905578e-002
3.683527e+003;-2.943441e-002
3.685455e+003;-3.103252e-002
3.687384e+003;-3.504466e-002
3.689312e+003;-3.540442e-002
3.691241e+003;-3.263196e-002
3.693169e+003;-3.055038e-002
3.695098e+003;-2.998776e-002
3.697026e+003;-2.945902e-002
3.698955e+003;-2.939904e-002
3.700884e+003;-3.082757e-002
3.702812e+003;-3.038151e-002
3.704741e+003;-2.908126e-002
3.706669e+003;-2.982755e-002
3.708598e+003;-3.205913e-002
3.710526e+003;-3.429770e-002
3.712455e+003;-3.389434e-002
3.714383e+003;-3.083747e-002
3.716312e+003;-2.972294e-002
3.718240e+003;-3.001448e-002
3.720169e+003;-3.074679e-002
3.722098e+003;-3.116009e-002
3.724026e+003;-3.130073e-002
3.725955e+003;-3.166181e-002
3.727883e+003;-3.093897e-002
3.729812e+003;-3.183838e-002
3.731740e+003;-3.430769e-002
3.733669e+003;-3.497283e-002
3.735597e+003;-3.563198e-002
3.737526e+003;-3.344821e-002
3.739455e+003;-3.131808e-002
3.741383e+003;-3.314282e-002
3.743312e+003;-4.067544e-002
3.745240e+003;-4.013158e-002
3.747169e+003;-3.634462e-002
3.749097e+003;-3.886596e-002
3.751026e+003;-3.932666e-002
3.752954e+003;-3.617655e-002
3.754883e+003;-3.203940e-002
3.756812e+003;-3.179416e-002
3.758740e+003;-3.257700e-002
3.760668e+003;-3.160889e-002
3.762597e+003;-3.021310e-002
3.764526e+003;-3.120283e-002
3.766454e+003;-3.133374e-002
3.768383e+003;-3.168239e-002
3.770311e+003;-3.126558e-002
3.772240e+003;-2.971249e-002
3.774168e+003;-2.938316e-002
3.776097e+003;-2.991082e-002
3.778025e+003;-3.086389e-002
3.779954e+003;-3.091231e-002
3.781883e+003;-3.000984e-002
3.783811e+003;-3.024694e-002
3.785740e+003;-3.039625e-002
3.787668e+003;-3.040339e-002
3.789597e+003;-3.002162e-002
3.791525e+003;-2.955678e-002
3.793454e+003;-3.011283e-002
3.795382e+003;-3.187764e-002
3.797311e+003;-3.213222e-002
3.799240e+003;-3.463428e-002
3.801168e+003;-3.715922e-002
3.803097e+003;-3.356219e-002
3.805025e+003;-3.263414e-002
3.806954e+003;-3.362393e-002
3.808882e+003;-3.119272e-002
3.810811e+003;-2.990082e-002
3.812739e+003;-3.054680e-002
3.814668e+003;-3.512513e-002
3.816596e+003;-3.581347e-002
3.818525e+003;-3.391031e-002
3.820454e+003;-3.551167e-002
3.822382e+003;-3.364824e-002
3.824311e+003;-3.141484e-002
3.826239e+003;-3.186917e-002
3.828168e+003;-3.126182e-002
3.830096e+003;-3.168017e-002
3.832025e+003;-3.252735e-002
3.833953e+003;-3.326186e-002
3.835882e+003;-3.608222e-002
3.837811e+003;-3.738144e-002
3.839739e+003;-3.438168e-002
3.841667e+003;-3.189334e-002
3.843596e+003;-3.065751e-002
3.845525e+003;-2.994808e-002
3.847453e+003;-3.031827e-002
3.849382e+003;-3.282684e-002
3.851310e+003;-3.913873e-002
3.853239e+003;-4.414650e-002
3.855167e+003;-3.857055e-002
3.857096e+003;-3.215277e-002
3.859024e+003;-3.106358e-002
3.860953e+003;-3.218803e-002
3.862882e+003;-3.317856e-002
3.864810e+003;-3.324565e-002
3.866739e+003;-3.269278e-002
3.868667e+003;-3.532544e-002
3.870596e+003;-3.514433e-002
3.872524e+003;-3.281185e-002
3.874453e+003;-3.246101e-002
3.876381e+003;-3.148875e-002
3.878310e+003;-3.216191e-002
3.880239e+003;-3.280592e-002
3.882167e+003;-3.195789e-002
3.884096e+003;-3.352155e-002
3.886024e+003;-3.376141e-002
3.887953e+003;-3.126339e-002
3.889881e+003;-3.192065e-002
3.891810e+003;-3.237152e-002
3.893738e+003;-3.067903e-002
3.895667e+003;-2.989569e-002
3.897595e+003;-3.150234e-002
3.899524e+003;-3.299295e-002
3.901453e+003;-3.331771e-002
3.903381e+003;-3.381674e-002
3.905310e+003;-3.251481e-002
3.907238e+003;-3.021140e-002
3.909167e+003;-2.922759e-002
3.911095e+003;-2.927077e-002
3.913024e+003;-2.986009e-002
3.914952e+003;-3.110445e-002
3.916881e+003;-3.207858e-002
3.918810e+003;-3.204054e-002
3.920738e+003;-3.184460e-002
3.922667e+003;-3.182597e-002
3.924595e+003;-3.163279e-002
3.926524e+003;-3.104886e-002
3.928452e+003;-3.086911e-002
3.930381e+003;-3.098803e-002
3.932309e+003;-3.122189e-002
3.934238e+003;-3.030161e-002
3.936167e+003;-2.976521e-002
3.938095e+003;-2.992238e-002
3.940023e+003;-3.027046e-002
3.941952e+003;-3.082491e-002
3.943881e+003;-3.080139e-002
3.945809e+003;-3.051033e-002
3.947738e+003;-3.060752e-002
3.949666e+003;-3.064732e-002
3.951595e+003;-3.025356e-002
3.953523e+003;-2.978018e-002
3.955452e+003;-3.000038e-002
3.957380e+003;-3.034537e-002
3.959309e+003;-3.043033e-002
3.961238e+003;-3.031867e-002
3.963166e+003;-2.998065e-002
3.965095e+003;-2.978903e-002
3.967023e+003;-2.943468e-002
3.968952e+003;-2.945017e-002
3.970880e+003;-2.977134e-002
3.972809e+003;-2.970695e-002
3.974737e+003;-2.964385e-002
3.976666e+003;-2.995124e-002
3.978594e+003;-3.004438e-002
3.980523e+003;-3.024274e-002
3.982452e+003;-3.019242e-002
3.984380e+003;-3.016046e-002
3.986309e+003;-3.032747e-002
3.988237e+003;-2.987531e-002
3.990166e+003;-3.003776e-002
3.992094e+003;-3.007193e-002
3.994023e+003;-2.949462e-002
3.995951e+003;-2.938211e-002
3.997880e+003;-2.988459e-002
3.999809e+003;-3.021094e-002
4.001737e+003;0.000000e+000
