3.992094e+002;0.000000e+000
4.011380e+002;0.000000e+000
4.030665e+002;0.000000e+000
4.049951e+002;0.000000e+000
4.069236e+002;0.000000e+000
4.088522e+002;0.000000e+000
4.107807e+002;0.000000e+000
4.127093e+002;0.000000e+000
4.146378e+002;0.000000e+000
4.165664e+002;0.000000e+000
4.184949e+002;0.000000e+000
4.204235e+002;0.000000e+000
4.223520e+002;0.000000e+000
4.242806e+002;0.000000e+000
4.262091e+002;0.000000e+000
4.281377e+002;0.000000e+000
4.300662e+002;0.000000e+000
4.319948e+002;0.000000e+000
4.339233e+002;0.000000e+000
4.358519e+002;0.000000e+000
4.377804e+002;0.000000e+000
4.397090e+002;0.000000e+000
4.416375e+002;0.000000e+000
4.435660e+002;0.000000e+000
4.454946e+002;0.000000e+000
4.474232e+002;0.000000e+000
4.493517e+002;0.000000e+000
4.512802e+002;0.000000e+000
4.532088e+002;0.000000e+000
4.551373e+002;0.000000e+000
4.570659e+002;0.000000e+000
4.589944e+002;0.000000e+000
4.609230e+002;0.000000e+000
4.628515e+002;0.000000e+000
4.647801e+002;0.000000e+000
4.667086e+002;0.000000e+000
4.686372e+002;0.000000e+000
4.705657e+002;0.000000e+000
4.724943e+002;0.000000e+000
4.744228e+002;0.000000e+000
4.763513e+002;0.000000e+000
4.782799e+002;0.000000e+000
4.802085e+002;0.000000e+000
4.821370e+002;0.000000e+000
4.840656e+002;0.000000e+000
4.859941e+002;0.000000e+000
4.879226e+002;0.000000e+000
4.898512e+002;0.000000e+000
4.917798e+002;0.000000e+000
4.937083e+002;0.000000e+000
4.956368e+002;0.000000e+000
4.975654e+002;0.000000e+000
4.994939e+002;0.000000e+000
5.014225e+002;0.000000e+000
5.033510e+002;0.000000e+000
5.052796e+002;0.000000e+000
5.072081e+002;0.000000e+000
5.091367e+002;0.000000e+000
5.110652e+002;0.000000e+000
5.129938e+002;0.000000e+000
5.149223e+002;0.000000e+000
5.168509e+002;0.000000e+000
5.187794e+002;0.000000e+000
5.207079e+002;0.000000e+000
5.226365e+002;0.000000e+000
5.245651e+002;0.000000e+000
5.264936e+002;0.000000e+000
5.284222e+002;0.000000e+000
5.303507e+002;0.000000e+000
5.322792e+002;0.000000e+000
5.342078e+002;0.000000e+000
5.361364e+002;0.000000e+000
5.380649e+002;0.000000e+000
5.399935e+002;0.000000e+000
5.419220e+002;0.000000e+000
5.438505e+002;0.000000e+000
5.457791e+002;0.000000e+000
5.477076e+002;0.000000e+000
5.496362e+002;0.000000e+000
5.515648e+002;0.000000e+000
5.534933e+002;0.000000e+000
5.554218e+002;0.000000e+000
5.573504e+002;0.000000e+000
5.592789e+002;0.000000e+000
5.612075e+002;0.000000e+000
5.631360e+002;0.000000e+000
5.650646e+002;0.000000e+000
5.669931e+002;0.000000e+000
5.689217e+002;0.000000e+000
5.708502e+002;0.000000e+000
5.727787e+002;0.000000e+000
5.747073e+002;0.000000e+000
5.766359e+002;0.000000e+000
5.785644e+002;0.000000e+000
5.804930e+002;0.000000e+000
5.824215e+002;0.000000e+000
5.843500e+002;0.000000e+000
5.862786e+002;0.000000e+000
5.882072e+002;0.000000e+000
5.901357e+002;0.000000e+000
5.920643e+002;0.000000e+000
5.939928e+002;0.000000e+000
5.959213e+002;0.000000e+000
5.978499e+002;0.000000e+000
5.997784e+002;1.481367e-001
6.017070e+002;1.533461e-001
6.036355e+002;1.471856e-001
6.055641e+002;1.439375e-001
6.074926e+002;1.449794e-001
6.094211e+002;1.461232e-001
6.113497e+002;1.532987e-001
6.132783e+002;1.511028e-001
6.152068e+002;1.494263e-001
6.171354e+002;1.455154e-001
6.190639e+002;1.414042e-001
6.209924e+002;1.429071e-001
6.229210e+002;1.406925e-001
6.248495e+002;1.378200e-001
6.267781e+002;1.419678e-001
6.287067e+002;1.433376e-001
6.306352e+002;1.446153e-001
6.325637e+002;1.454560e-001
6.344923e+002;1.466219e-001
6.364208e+002;1.467094e-001
6.383494e+002;1.419758e-001
6.402780e+002;1.413293e-001
6.422065e+002;1.456394e-001
6.441350e+002;1.468585e-001
6.460636e+002;1.500366e-001
6.479921e+002;1.523248e-001
6.499207e+002;1.499537e-001
6.518492e+002;1.450583e-001
6.537778e+002;1.452885e-001
6.557063e+002;1.484985e-001
6.576349e+002;1.505165e-001
6.595634e+002;1.526763e-001
6.614919e+002;1.552464e-001
6.634205e+002;1.561057e-001
6.653491e+002;1.547555e-001
6.672776e+002;1.530643e-001
6.692062e+002;1.561150e-001
6.711347e+002;1.587640e-001
6.730632e+002;1.593877e-001
6.749918e+002;1.591422e-001
6.769203e+002;1.588865e-001
6.788489e+002;1.604018e-001
6.807775e+002;1.631102e-001
6.827060e+002;1.650750e-001
6.846345e+002;1.661887e-001
6.865631e+002;1.655109e-001
6.884916e+002;1.660872e-001
6.904202e+002;1.676026e-001
6.923488e+002;1.687295e-001
6.942773e+002;1.706221e-001
6.962058e+002;1.710273e-001
6.981344e+002;1.699056e-001
7.000629e+002;1.681156e-001
7.019915e+002;1.668877e-001
7.039200e+002;1.674458e-001
7.058486e+002;1.690431e-001
7.077771e+002;1.690957e-001
7.097057e+002;1.685203e-001
7.116342e+002;1.682585e-001
7.135627e+002;1.688070e-001
7.154913e+002;1.702600e-001
7.174199e+002;1.702465e-001
7.193484e+002;1.690074e-001
7.212770e+002;1.679706e-001
7.232055e+002;1.684536e-001
7.251340e+002;1.688742e-001
7.270626e+002;1.682982e-001
7.289911e+002;1.684615e-001
7.309197e+002;1.687689e-001
7.328483e+002;1.691696e-001
7.347768e+002;1.692670e-001
7.367053e+002;1.695449e-001
7.386339e+002;1.702263e-001
7.405624e+002;1.716677e-001
7.424910e+002;1.718317e-001
7.444196e+002;1.708089e-001
7.463481e+002;1.699501e-001
7.482766e+002;1.697669e-001
7.502052e+002;1.696872e-001
7.521337e+002;1.700362e-001
7.540623e+002;1.702860e-001
7.559908e+002;1.692841e-001
7.579194e+002;1.687020e-001
7.598479e+002;1.687894e-001
7.617765e+002;1.694911e-001
7.637050e+002;1.691220e-001
7.656335e+002;1.684128e-001
7.675621e+002;1.684954e-001
7.694907e+002;1.685676e-001
7.714192e+002;1.686676e-001
7.733478e+002;1.684573e-001
7.752763e+002;1.674501e-001
7.772048e+002;1.662617e-001
7.791334e+002;1.656797e-001
7.810620e+002;1.666100e-001
7.829905e+002;1.662229e-001
7.849191e+002;1.651521e-001
7.868476e+002;1.651789e-001
7.887761e+002;1.654449e-001
7.907047e+002;1.645721e-001
7.926332e+002;1.628238e-001
7.945618e+002;1.615802e-001
7.964903e+002;1.611665e-001
7.984189e+002;1.603433e-001
8.003474e+002;1.584200e-001
8.022759e+002;1.573607e-001
8.042045e+002;1.575486e-001
8.061331e+002;1.577115e-001
8.080616e+002;1.565703e-001
8.099902e+002;1.552293e-001
8.119187e+002;1.555976e-001
8.138472e+002;1.562646e-001
8.157758e+002;1.563399e-001
8.177043e+002;1.571313e-001
8.196329e+002;1.580043e-001
8.215615e+002;1.591595e-001
8.234900e+002;1.599280e-001
8.254185e+002;1.608487e-001
8.273471e+002;1.627148e-001
8.292756e+002;1.650031e-001
8.312042e+002;1.671504e-001
8.331328e+002;1.687198e-001
8.350613e+002;1.704166e-001
8.369898e+002;1.719662e-001
8.389184e+002;1.754831e-001
8.408469e+002;1.798570e-001
8.427755e+002;1.837397e-001
8.447040e+002;1.873074e-001
8.466326e+002;1.896647e-001
8.485611e+002;1.932377e-001
8.504897e+002;1.975826e-001
8.524182e+002;2.015848e-001
8.543467e+002;2.069817e-001
8.562753e+002;2.125977e-001
8.582039e+002;2.172534e-001
8.601324e+002;2.222819e-001
8.620610e+002;2.277838e-001
8.639895e+002;2.336255e-001
8.659180e+002;2.382680e-001
8.678466e+002;2.426902e-001
8.697751e+002;2.475393e-001
8.717037e+002;2.523811e-001
8.736323e+002;2.573398e-001
8.755608e+002;2.613521e-001
8.774893e+002;2.660231e-001
8.794179e+002;2.715841e-001
8.813464e+002;2.770049e-001
8.832750e+002;2.818339e-001
8.852036e+002;2.854349e-001
8.871321e+002;2.886973e-001
8.890606e+002;2.923086e-001
8.909892e+002;2.958306e-001
8.929177e+002;2.989694e-001
8.948463e+002;3.022648e-001
8.967748e+002;3.058233e-001
8.987034e+002;3.082784e-001
9.006319e+002;3.104356e-001
9.025605e+002;3.132350e-001
9.044890e+002;3.156386e-001
9.064175e+002;3.177250e-001
9.083461e+002;3.193472e-001
9.102747e+002;3.211293e-001
9.122032e+002;3.230779e-001
9.141318e+002;3.240447e-001
9.160603e+002;3.251776e-001
9.179888e+002;3.267366e-001
9.199174e+002;3.281036e-001
9.218459e+002;3.289746e-001
9.237745e+002;3.296062e-001
9.257031e+002;3.307530e-001
9.276316e+002;3.316759e-001
9.295601e+002;3.323245e-001
9.314887e+002;3.334392e-001
9.334172e+002;3.339758e-001
9.353458e+002;3.336898e-001
9.372744e+002;3.334838e-001
9.392029e+002;3.331354e-001
9.411314e+002;3.325635e-001
9.430600e+002;3.314850e-001
9.449885e+002;3.308735e-001
9.469171e+002;3.300532e-001
9.488456e+002;3.284273e-001
9.507742e+002;3.268904e-001
9.527027e+002;3.259396e-001
9.546313e+002;3.249793e-001
9.565598e+002;3.240873e-001
9.584883e+002;3.224379e-001
9.604169e+002;3.207261e-001
9.623455e+002;3.192070e-001
9.642740e+002;3.181665e-001
9.662026e+002;3.173720e-001
9.681311e+002;3.165432e-001
9.700596e+002;3.154886e-001
9.719882e+002;3.143275e-001
9.739167e+002;3.126203e-001
9.758453e+002;3.110344e-001
9.777739e+002;3.098061e-001
9.797024e+002;3.080890e-001
9.816309e+002;3.063328e-001
9.835595e+002;3.049985e-001
9.854880e+002;3.034755e-001
9.874166e+002;3.013180e-001
9.893452e+002;2.995068e-001
9.912737e+002;2.980995e-001
9.932022e+002;2.966505e-001
9.951307e+002;2.950596e-001
9.970593e+002;2.935859e-001
9.989879e+002;2.918587e-001
1.000916e+003;2.902297e-001
1.002845e+003;2.885263e-001
1.004773e+003;2.866044e-001
1.006702e+003;2.847581e-001
1.008631e+003;2.835658e-001
1.010559e+003;2.819877e-001
1.012488e+003;2.796149e-001
1.014416e+003;2.767403e-001
1.016345e+003;2.740821e-001
1.018273e+003;2.722655e-001
1.020202e+003;2.701021e-001
1.022130e+003;2.677059e-001
1.024059e+003;2.651356e-001
1.025988e+003;2.619427e-001
1.027916e+003;2.585773e-001
1.029845e+003;2.558249e-001
1.031773e+003;2.533890e-001
1.033702e+003;2.504798e-001
1.035630e+003;2.480808e-001
1.037559e+003;2.465047e-001
1.039487e+003;2.446553e-001
1.041416e+003;2.422586e-001
1.043344e+003;2.387976e-001
1.045273e+003;2.353188e-001
1.047202e+003;2.330250e-001
1.049130e+003;2.310804e-001
1.051059e+003;2.285256e-001
1.052987e+003;2.258486e-001
1.054916e+003;2.233368e-001
1.056844e+003;2.201917e-001
1.058773e+003;2.167999e-001
1.060701e+003;2.144890e-001
1.062630e+003;2.126412e-001
1.064558e+003;2.106393e-001
1.066487e+003;2.085308e-001
1.068416e+003;2.056374e-001
1.070344e+003;2.029738e-001
1.072273e+003;2.009038e-001
1.074201e+003;1.990083e-001
1.076130e+003;1.966650e-001
1.078058e+003;1.936077e-001
1.079987e+003;1.911438e-001
1.081915e+003;1.899634e-001
1.083844e+003;1.878049e-001
1.085773e+003;1.855114e-001
1.087701e+003;1.833848e-001
1.089630e+003;1.807837e-001
1.091558e+003;1.783655e-001
1.093487e+003;1.768728e-001
1.095415e+003;1.748209e-001
1.097344e+003;1.718173e-001
1.099272e+003;1.700874e-001
1.101201e+003;1.689992e-001
1.103129e+003;1.671504e-001
1.105058e+003;1.645305e-001
1.106987e+003;1.623140e-001
1.108915e+003;1.607994e-001
1.110844e+003;1.588318e-001
1.112772e+003;1.570322e-001
1.114701e+003;1.555129e-001
1.116629e+003;1.532107e-001
1.118558e+003;1.508709e-001
1.120486e+003;1.494057e-001
1.122415e+003;1.481320e-001
1.124344e+003;1.467092e-001
1.126272e+003;1.451607e-001
1.128201e+003;1.436887e-001
1.130129e+003;1.423008e-001
1.132058e+003;1.407758e-001
1.133986e+003;1.394068e-001
1.135915e+003;1.381295e-001
1.137843e+003;1.364809e-001
1.139772e+003;1.349304e-001
1.141700e+003;1.335528e-001
1.143629e+003;1.323638e-001
1.145557e+003;1.305211e-001
1.147486e+003;1.282690e-001
1.149415e+003;1.264372e-001
1.151343e+003;1.245546e-001
1.153272e+003;1.222730e-001
1.155200e+003;1.202362e-001
1.157129e+003;1.188024e-001
1.159057e+003;1.174510e-001
1.160986e+003;1.162468e-001
1.162914e+003;1.149728e-001
1.164843e+003;1.134395e-001
1.166771e+003;1.121389e-001
1.168700e+003;1.110366e-001
1.170629e+003;1.099764e-001
1.172557e+003;1.087960e-001
1.174486e+003;1.079334e-001
1.176414e+003;1.072612e-001
1.178343e+003;1.059841e-001
1.180271e+003;1.045890e-001
1.182200e+003;1.035996e-001
1.184128e+003;1.024250e-001
1.186057e+003;1.008188e-001
1.187986e+003;9.898468e-002
1.189914e+003;9.755088e-002
1.191843e+003;9.617816e-002
1.193771e+003;9.436674e-002
1.195700e+003;9.250075e-002
1.197628e+003;9.114020e-002
1.199557e+003;8.969141e-002
1.201485e+003;8.820510e-002
1.203414e+003;8.671512e-002
1.205343e+003;8.571646e-002
1.207271e+003;8.498376e-002
1.209200e+003;8.415100e-002
1.211128e+003;8.348320e-002
1.213057e+003;8.288103e-002
1.214985e+003;8.257432e-002
1.216914e+003;8.273681e-002
1.218842e+003;8.330896e-002
1.220771e+003;8.406357e-002
1.222699e+003;8.484528e-002
1.224628e+003;8.565520e-002
1.226557e+003;8.593028e-002
1.228485e+003;8.631183e-002
1.230414e+003;8.674538e-002
1.232342e+003;8.729728e-002
1.234271e+003;8.774852e-002
1.236199e+003;8.745100e-002
1.238128e+003;8.660663e-002
1.240056e+003;8.555666e-002
1.241985e+003;8.456702e-002
1.243913e+003;8.359100e-002
1.245842e+003;8.193527e-002
1.247771e+003;7.999841e-002
1.249699e+003;7.839234e-002
1.251628e+003;7.663353e-002
1.253556e+003;7.478076e-002
1.255485e+003;7.281854e-002
1.257413e+003;7.030116e-002
1.259342e+003;6.760646e-002
1.261270e+003;6.542754e-002
1.263199e+003;6.387279e-002
1.265127e+003;6.255367e-002
1.267056e+003;6.080913e-002
1.268985e+003;5.920916e-002
1.270913e+003;5.782581e-002
1.272842e+003;5.641958e-002
1.274770e+003;5.537423e-002
1.276699e+003;5.431195e-002
1.278627e+003;5.330645e-002
1.280556e+003;5.277632e-002
1.282484e+003;5.214626e-002
1.284413e+003;5.133866e-002
1.286342e+003;5.030661e-002
1.288270e+003;4.957581e-002
1.290199e+003;4.910003e-002
1.292127e+003;4.848620e-002
1.294056e+003;4.824938e-002
1.295984e+003;4.800914e-002
1.297913e+003;4.739304e-002
1.299841e+003;4.678885e-002
1.301770e+003;4.651984e-002
1.303698e+003;4.611099e-002
1.305627e+003;4.546314e-002
1.307556e+003;4.510112e-002
1.309484e+003;4.481772e-002
1.311413e+003;4.424429e-002
1.313341e+003;4.380034e-002
1.315270e+003;4.351415e-002
1.317198e+003;4.331759e-002
1.319127e+003;4.328362e-002
1.321055e+003;4.309338e-002
1.322984e+003;4.273432e-002
1.324912e+003;4.246985e-002
1.326841e+003;4.241658e-002
1.328770e+003;4.234089e-002
1.330698e+003;4.243200e-002
1.332627e+003;4.246211e-002
1.334555e+003;4.223403e-002
1.336484e+003;4.211408e-002
1.338412e+003;4.191439e-002
1.340341e+003;4.203720e-002
1.342269e+003;4.291804e-002
1.344198e+003;4.359745e-002
1.346126e+003;4.392152e-002
1.348055e+003;4.427136e-002
1.349984e+003;4.494569e-002
1.351912e+003;4.593317e-002
1.353841e+003;4.672313e-002
1.355769e+003;4.718164e-002
1.357698e+003;4.803979e-002
1.359626e+003;4.908838e-002
1.361555e+003;4.962640e-002
1.363483e+003;5.041202e-002
1.365412e+003;5.213352e-002
1.367341e+003;5.357588e-002
1.369269e+003;5.468315e-002
1.371198e+003;5.526167e-002
1.373126e+003;5.451734e-002
1.375055e+003;5.355537e-002
1.376983e+003;5.287275e-002
1.378912e+003;5.187129e-002
1.380840e+003;5.069120e-002
1.382769e+003;4.962465e-002
1.384698e+003;4.841045e-002
1.386626e+003;4.645151e-002
1.388555e+003;4.617289e-002
1.390483e+003;4.657494e-002
1.392412e+003;4.556002e-002
1.394340e+003;4.414260e-002
1.396269e+003;4.424186e-002
1.398197e+003;4.426102e-002
1.400126e+003;4.438603e-002
1.402054e+003;4.463944e-002
1.403983e+003;4.402942e-002
1.405911e+003;4.366933e-002
1.407840e+003;4.361210e-002
1.409769e+003;4.342326e-002
1.411697e+003;4.317535e-002
1.413626e+003;4.294639e-002
1.415554e+003;4.261534e-002
1.417483e+003;4.071938e-002
1.419411e+003;3.955922e-002
1.421340e+003;4.191640e-002
1.423268e+003;4.303239e-002
1.425197e+003;4.299076e-002
1.427125e+003;4.281579e-002
1.429054e+003;4.236018e-002
1.430983e+003;4.254531e-002
1.432911e+003;4.264523e-002
1.434840e+003;4.040035e-002
1.436768e+003;3.840997e-002
1.438697e+003;4.046781e-002
1.440625e+003;4.158325e-002
1.442554e+003;4.122358e-002
1.444482e+003;4.036529e-002
1.446411e+003;3.888493e-002
1.448340e+003;3.812939e-002
1.450268e+003;3.836050e-002
1.452197e+003;3.759852e-002
1.454125e+003;3.480963e-002
1.456054e+003;2.931747e-002
1.457982e+003;2.946418e-002
1.459911e+003;3.347176e-002
1.461839e+003;3.412338e-002
1.463768e+003;3.193210e-002
1.465697e+003;3.109400e-002
1.467625e+003;3.190247e-002
1.469554e+003;3.115209e-002
1.471482e+003;2.850849e-002
1.473411e+003;2.834332e-002
1.475339e+003;3.062229e-002
1.477268e+003;3.213757e-002
1.479196e+003;3.286503e-002
1.481125e+003;3.254271e-002
1.483053e+003;3.253739e-002
1.484982e+003;3.180577e-002
1.486911e+003;3.030380e-002
1.488839e+003;2.900114e-002
1.490768e+003;2.935264e-002
1.492696e+003;3.052598e-002
1.494625e+003;2.865241e-002
1.496553e+003;2.678065e-002
1.498482e+003;2.802201e-002
1.500410e+003;2.962296e-002
1.502339e+003;2.996346e-002
1.504267e+003;2.554308e-002
1.506196e+003;2.027865e-002
1.508125e+003;2.291471e-002
1.510053e+003;2.723617e-002
1.511982e+003;2.796896e-002
1.513910e+003;2.745732e-002
1.515839e+003;2.580422e-002
1.517767e+003;2.480854e-002
1.519696e+003;2.224009e-002
1.521624e+003;2.047076e-002
1.523553e+003;2.290772e-002
1.525481e+003;2.373132e-002
1.527410e+003;2.428028e-002
1.529339e+003;2.500213e-002
1.531267e+003;2.407630e-002
1.533196e+003;2.214953e-002
1.535124e+003;2.301113e-002
1.537053e+003;2.101655e-002
1.538981e+003;1.478857e-002
1.540910e+003;1.447442e-002
1.542838e+003;1.846414e-002
1.544767e+003;2.102976e-002
1.546695e+003;2.264182e-002
1.548624e+003;2.262140e-002
1.550553e+003;2.242448e-002
1.552481e+003;2.145889e-002
1.554410e+003;1.983813e-002
1.556338e+003;1.708244e-002
1.558267e+003;1.125051e-002
1.560195e+003;1.344116e-002
1.562124e+003;2.042307e-002
1.564052e+003;2.219479e-002
1.565981e+003;2.199464e-002
1.567910e+003;2.102344e-002
1.569838e+003;2.030615e-002
1.571767e+003;2.168990e-002
1.573695e+003;2.028292e-002
1.575624e+003;1.675493e-002
1.577552e+003;1.879464e-002
1.579481e+003;2.190807e-002
1.581409e+003;2.226060e-002
1.583338e+003;2.224023e-002
1.585266e+003;2.210159e-002
1.587195e+003;2.175877e-002
1.589124e+003;2.129186e-002
1.591052e+003;2.119464e-002
1.592981e+003;2.093831e-002
1.594909e+003;2.088327e-002
1.596838e+003;2.103143e-002
1.598766e+003;2.113804e-002
1.600695e+003;2.128730e-002
1.602623e+003;2.139356e-002
1.604552e+003;2.144786e-002
1.606480e+003;2.143386e-002
1.608409e+003;2.120626e-002
1.610338e+003;2.131706e-002
1.612266e+003;2.151606e-002
1.614195e+003;1.986349e-002
1.616123e+003;1.655448e-002
1.618052e+003;1.799951e-002
1.619980e+003;2.053658e-002
1.621909e+003;1.948566e-002
1.623837e+003;1.886291e-002
1.625766e+003;1.998067e-002
1.627694e+003;2.038140e-002
1.629623e+003;2.078166e-002
1.631552e+003;2.082285e-002
1.633480e+003;1.800583e-002
1.635409e+003;1.501290e-002
1.637337e+003;1.740424e-002
1.639266e+003;2.026508e-002
1.641194e+003;2.057215e-002
1.643123e+003;1.934990e-002
1.645051e+003;1.625990e-002
1.646980e+003;1.569273e-002
1.648909e+003;1.798791e-002
1.650837e+003;1.416964e-002
1.652766e+003;7.856742e-003
1.654694e+003;1.339721e-002
1.656623e+003;2.001960e-002
1.658551e+003;2.135085e-002
1.660480e+003;2.049649e-002
1.662408e+003;1.923694e-002
1.664337e+003;2.036688e-002
1.666266e+003;2.098629e-002
1.668194e+003;1.881793e-002
1.670123e+003;1.867367e-002
1.672051e+003;2.051035e-002
1.673980e+003;1.952596e-002
1.675908e+003;1.940866e-002
1.677837e+003;2.185290e-002
1.679765e+003;2.245602e-002
1.681694e+003;2.067597e-002
1.683622e+003;1.609004e-002
1.685551e+003;1.786626e-002
1.687479e+003;2.316362e-002
1.689408e+003;2.484159e-002
1.691337e+003;2.567589e-002
1.693265e+003;2.436845e-002
1.695194e+003;2.029657e-002
1.697122e+003;2.077335e-002
1.699051e+003;1.989408e-002
1.700979e+003;2.061002e-002
1.702908e+003;2.572912e-002
1.704836e+003;2.713479e-002
1.706765e+003;2.846391e-002
1.708693e+003;3.008777e-002
1.710622e+003;3.155261e-002
1.712551e+003;3.192269e-002
1.714479e+003;3.134155e-002
1.716408e+003;3.024397e-002
1.718336e+003;3.353625e-002
1.720265e+003;4.099320e-002
1.722193e+003;4.669129e-002
1.724122e+003;5.151098e-002
1.726050e+003;5.659246e-002
1.727979e+003;6.067483e-002
1.729908e+003;6.365564e-002
1.731836e+003;6.331145e-002
1.733765e+003;6.118257e-002
1.735693e+003;6.419084e-002
1.737622e+003;6.580097e-002
1.739550e+003;6.297776e-002
1.741479e+003;6.075280e-002
1.743407e+003;5.786287e-002
1.745336e+003;5.363154e-002
1.747265e+003;4.852407e-002
1.749193e+003;4.283337e-002
1.751122e+003;3.770855e-002
1.753050e+003;3.582029e-002
1.754979e+003;3.343761e-002
1.756907e+003;3.050046e-002
1.758836e+003;2.884071e-002
1.760764e+003;2.680095e-002
1.762693e+003;2.634694e-002
1.764621e+003;2.719582e-002
1.766550e+003;2.600388e-002
1.768479e+003;2.472411e-002
1.770407e+003;2.331547e-002
1.772336e+003;2.192012e-002
1.774264e+003;2.396575e-002
1.776193e+003;2.580295e-002
1.778121e+003;2.582117e-002
1.780050e+003;2.553671e-002
1.781978e+003;2.532388e-002
1.783907e+003;2.476185e-002
1.785835e+003;2.488576e-002
1.787764e+003;2.534738e-002
1.789693e+003;2.428873e-002
1.791621e+003;2.249981e-002
1.793550e+003;2.306277e-002
1.795478e+003;2.462984e-002
1.797407e+003;2.484440e-002
1.799335e+003;2.445092e-002
1.801264e+003;2.460035e-002
1.803192e+003;2.534928e-002
1.805121e+003;2.548875e-002
1.807049e+003;2.528321e-002
1.808978e+003;2.500624e-002
1.810907e+003;2.518931e-002
1.812835e+003;2.559108e-002
1.814764e+003;2.573369e-002
1.816692e+003;2.538458e-002
1.818621e+003;2.531956e-002
1.820549e+003;2.538286e-002
1.822478e+003;2.502698e-002
1.824406e+003;2.416649e-002
1.826335e+003;2.455048e-002
1.828264e+003;2.445906e-002
1.830192e+003;2.405154e-002
1.832121e+003;2.482661e-002
1.834049e+003;2.522460e-002
1.835978e+003;2.520406e-002
1.837906e+003;2.523988e-002
1.839835e+003;2.538121e-002
1.841763e+003;2.412705e-002
1.843692e+003;2.188503e-002
1.845620e+003;2.248690e-002
1.847549e+003;2.378613e-002
1.849478e+003;2.406667e-002
1.851406e+003;2.415875e-002
1.853335e+003;2.414355e-002
1.855263e+003;2.425621e-002
1.857192e+003;2.414947e-002
1.859120e+003;2.404867e-002
1.861049e+003;2.419164e-002
1.862977e+003;2.419224e-002
1.864906e+003;2.388172e-002
1.866834e+003;2.290500e-002
1.868763e+003;2.201869e-002
1.870692e+003;2.281978e-002
1.872620e+003;2.376527e-002
1.874549e+003;2.363719e-002
1.876477e+003;2.358514e-002
1.878406e+003;2.364447e-002
1.880334e+003;2.345467e-002
1.882263e+003;2.325838e-002
1.884191e+003;2.317372e-002
1.886120e+003;2.317302e-002
1.888048e+003;2.280920e-002
1.889977e+003;2.270026e-002
1.891906e+003;2.305466e-002
1.893834e+003;2.283019e-002
1.895763e+003;2.274199e-002
1.897691e+003;2.307859e-002
1.899620e+003;2.322332e-002
1.901548e+003;2.325792e-002
1.903477e+003;2.313231e-002
1.905405e+003;2.282789e-002
1.907334e+003;2.278738e-002
1.909262e+003;2.253069e-002
1.911191e+003;2.247088e-002
1.913120e+003;2.257393e-002
1.915048e+003;2.217948e-002
1.916977e+003;2.144194e-002
1.918905e+003;2.149506e-002
1.920834e+003;2.180374e-002
1.922762e+003;2.183026e-002
1.924691e+003;2.205756e-002
1.926619e+003;2.217366e-002
1.928548e+003;2.209824e-002
1.930477e+003;2.211989e-002
1.932405e+003;2.209339e-002
1.934334e+003;2.185541e-002
1.936262e+003;2.182695e-002
1.938191e+003;2.155112e-002
1.940119e+003;2.084040e-002
1.942048e+003;2.059821e-002
1.943976e+003;2.097680e-002
1.945905e+003;2.113926e-002
1.947833e+003;2.115958e-002
1.949762e+003;2.124885e-002
1.951691e+003;2.143950e-002
1.953619e+003;2.140174e-002
1.955548e+003;2.116584e-002
1.957476e+003;2.106708e-002
1.959405e+003;2.095375e-002
1.961333e+003;2.079355e-002
1.963262e+003;2.052220e-002
1.965190e+003;2.011555e-002
1.967119e+003;2.001273e-002
1.969047e+003;2.021884e-002
1.970976e+003;2.015164e-002
1.972905e+003;2.012113e-002
1.974833e+003;2.008102e-002
1.976762e+003;2.007786e-002
1.978690e+003;2.007640e-002
1.980619e+003;1.965924e-002
1.982547e+003;1.909743e-002
1.984476e+003;1.904348e-002
1.986404e+003;1.922406e-002
1.988333e+003;1.938697e-002
1.990261e+003;1.887693e-002
1.992190e+003;1.848533e-002
1.994119e+003;1.887679e-002
1.996047e+003;1.905564e-002
1.997976e+003;1.888184e-002
1.999904e+003;1.867802e-002
2.001833e+003;1.868771e-002
2.003761e+003;1.868276e-002
2.005690e+003;1.864402e-002
2.007618e+003;1.862365e-002
2.009547e+003;1.867968e-002
2.011476e+003;1.863832e-002
2.013404e+003;1.840253e-002
2.015333e+003;1.802773e-002
2.017261e+003;1.819555e-002
2.019190e+003;1.836033e-002
2.021118e+003;1.797375e-002
2.023047e+003;1.779276e-002
2.024975e+003;1.781147e-002
2.026904e+003;1.776511e-002
2.028833e+003;1.772714e-002
2.030761e+003;1.755036e-002
2.032690e+003;1.739717e-002
2.034618e+003;1.749948e-002
2.036547e+003;1.743704e-002
2.038475e+003;1.732234e-002
2.040404e+003;1.719953e-002
2.042332e+003;1.710319e-002
2.044261e+003;1.709144e-002
2.046189e+003;1.707962e-002
2.048118e+003;1.710278e-002
2.050047e+003;1.689042e-002
2.051975e+003;1.677882e-002
2.053904e+003;1.689848e-002
2.055832e+003;1.676150e-002
2.057761e+003;1.652512e-002
2.059689e+003;1.630867e-002
2.061618e+003;1.613807e-002
2.063546e+003;1.606490e-002
2.065475e+003;1.601436e-002
2.067404e+003;1.587336e-002
2.069332e+003;1.576495e-002
2.071260e+003;1.564468e-002
2.073189e+003;1.570314e-002
2.075118e+003;1.574148e-002
2.077046e+003;1.574622e-002
2.078975e+003;1.564155e-002
2.080903e+003;1.535771e-002
2.082832e+003;1.542033e-002
2.084760e+003;1.562317e-002
2.086689e+003;1.546802e-002
2.088617e+003;1.530767e-002
2.090546e+003;1.534415e-002
2.092475e+003;1.543667e-002
2.094403e+003;1.529624e-002
2.096332e+003;1.524541e-002
2.098260e+003;1.517448e-002
2.100189e+003;1.492479e-002
2.102117e+003;1.504000e-002
2.104046e+003;1.506514e-002
2.105974e+003;1.470952e-002
2.107903e+003;1.472868e-002
2.109832e+003;1.460739e-002
2.111760e+003;1.401134e-002
2.113688e+003;1.387130e-002
2.115617e+003;1.413966e-002
2.117546e+003;1.426749e-002
2.119474e+003;1.435588e-002
2.121403e+003;1.415362e-002
2.123331e+003;1.387780e-002
2.125260e+003;1.371216e-002
2.127188e+003;1.356684e-002
2.129117e+003;1.362353e-002
2.131045e+003;1.382895e-002
2.132974e+003;1.397630e-002
2.134903e+003;1.394250e-002
2.136831e+003;1.365673e-002
2.138760e+003;1.351560e-002
2.140688e+003;1.370939e-002
2.142617e+003;1.376024e-002
2.144545e+003;1.356390e-002
2.146474e+003;1.315326e-002
2.148402e+003;1.316067e-002
2.150331e+003;1.321877e-002
2.152260e+003;1.312362e-002
2.154188e+003;1.336762e-002
2.156117e+003;1.356230e-002
2.158045e+003;1.356551e-002
2.159974e+003;1.360917e-002
2.161902e+003;1.338177e-002
2.163831e+003;1.329051e-002
2.165759e+003;1.328822e-002
2.167688e+003;1.317081e-002
2.169616e+003;1.332119e-002
2.171545e+003;1.320080e-002
2.173474e+003;1.289476e-002
2.175402e+003;1.276627e-002
2.177331e+003;1.283500e-002
2.179259e+003;1.263178e-002
2.181188e+003;1.252629e-002
2.183116e+003;1.245110e-002
2.185045e+003;1.239999e-002
2.186973e+003;1.238495e-002
2.188902e+003;1.232591e-002
2.190831e+003;1.242239e-002
2.192759e+003;1.225450e-002
2.194688e+003;1.197893e-002
2.196616e+003;1.196674e-002
2.198545e+003;1.185963e-002
2.200473e+003;1.169486e-002
2.202402e+003;1.177615e-002
2.204330e+003;1.197890e-002
2.206259e+003;1.183689e-002
2.208188e+003;1.165377e-002
2.210116e+003;1.156934e-002
2.212044e+003;1.136484e-002
2.213973e+003;1.121661e-002
2.215902e+003;1.118369e-002
2.217830e+003;1.132522e-002
2.219759e+003;1.151139e-002
2.221687e+003;1.149309e-002
2.223616e+003;1.131668e-002
2.225544e+003;1.091332e-002
2.227473e+003;1.107474e-002
2.229401e+003;1.148795e-002
2.231330e+003;1.140209e-002
2.233259e+003;1.104969e-002
2.235187e+003;1.099905e-002
2.237116e+003;1.123031e-002
2.239044e+003;1.119825e-002
2.240973e+003;1.103253e-002
2.242901e+003;1.078389e-002
2.244830e+003;1.049061e-002
2.246758e+003;1.060675e-002
2.248687e+003;1.067317e-002
2.250615e+003;1.045548e-002
2.252544e+003;1.062838e-002
2.254473e+003;1.079207e-002
2.256401e+003;1.072034e-002
2.258330e+003;1.070686e-002
2.260258e+003;1.073386e-002
2.262187e+003;1.083256e-002
2.264115e+003;1.092260e-002
2.266044e+003;1.087014e-002
2.267972e+003;1.065096e-002
2.269901e+003;1.055233e-002
2.271830e+003;1.015303e-002
2.273758e+003;9.865100e-003
2.275687e+003;1.004597e-002
2.277615e+003;1.023095e-002
2.279544e+003;1.020954e-002
2.281472e+003;1.037376e-002
2.283401e+003;1.060376e-002
2.285329e+003;1.066532e-002
2.287258e+003;1.066665e-002
2.289187e+003;1.057012e-002
2.291115e+003;1.037149e-002
2.293043e+003;1.023282e-002
2.294972e+003;1.021012e-002
2.296901e+003;1.003447e-002
2.298829e+003;1.001732e-002
2.300758e+003;1.004512e-002
2.302686e+003;9.669771e-003
2.304615e+003;9.182070e-003
2.306543e+003;8.876923e-003
2.308472e+003;8.965400e-003
2.310400e+003;9.267056e-003
2.312329e+003;8.986981e-003
2.314258e+003;8.453149e-003
2.316186e+003;8.097300e-003
2.318115e+003;7.729869e-003
2.320043e+003;7.343472e-003
2.321972e+003;6.897997e-003
2.323900e+003;6.245497e-003
2.325829e+003;5.485109e-003
2.327757e+003;4.990787e-003
2.329686e+003;4.582842e-003
2.331615e+003;4.140222e-003
2.333543e+003;3.975905e-003
2.335472e+003;4.164976e-003
2.337400e+003;4.201643e-003
2.339329e+003;4.047437e-003
2.341257e+003;4.487854e-003
2.343186e+003;5.248609e-003
2.345114e+003;5.989367e-003
2.347043e+003;7.085683e-003
2.348971e+003;7.662517e-003
2.350900e+003;6.919307e-003
2.352829e+003;5.399719e-003
2.354757e+003;4.051082e-003
2.356686e+003;3.014069e-003
2.358614e+003;2.317704e-003
2.360543e+003;2.080691e-003
2.362471e+003;2.164898e-003
2.364400e+003;2.464231e-003
2.366328e+003;2.890070e-003
2.368257e+003;3.598112e-003
2.370186e+003;4.540418e-003
2.372114e+003;5.769750e-003
2.374042e+003;7.148264e-003
2.375971e+003;7.984632e-003
2.377900e+003;8.189772e-003
2.379828e+003;8.325325e-003
2.381757e+003;8.594767e-003
2.383685e+003;8.999024e-003
2.385614e+003;9.421332e-003
2.387542e+003;9.398205e-003
2.389471e+003;9.253449e-003
2.391399e+003;9.312754e-003
2.393328e+003;9.482590e-003
2.395257e+003;9.549480e-003
2.397185e+003;9.637484e-003
2.399114e+003;9.651138e-003
2.401042e+003;9.526177e-003
2.402971e+003;9.551715e-003
2.404899e+003;9.646767e-003
2.406828e+003;9.665740e-003
2.408756e+003;9.600492e-003
2.410685e+003;9.752954e-003
2.412614e+003;9.880115e-003
2.414542e+003;9.825274e-003
2.416471e+003;9.701348e-003
2.418399e+003;9.659641e-003
2.420328e+003;9.563332e-003
2.422256e+003;9.435520e-003
2.424185e+003;9.511275e-003
2.426113e+003;9.559607e-003
2.428042e+003;9.429289e-003
2.429970e+003;9.470873e-003
2.431899e+003;9.701823e-003
2.433828e+003;9.654830e-003
2.435756e+003;9.552698e-003
2.437685e+003;9.558455e-003
2.439613e+003;9.413205e-003
2.441542e+003;9.334623e-003
2.443470e+003;9.383444e-003
2.445399e+003;9.597037e-003
2.447327e+003;9.714597e-003
2.449256e+003;9.828257e-003
2.451185e+003;9.915980e-003
2.453113e+003;9.499083e-003
2.455042e+003;9.360251e-003
2.456970e+003;9.484046e-003
2.458899e+003;9.606725e-003
2.460827e+003;9.677767e-003
2.462756e+003;9.529564e-003
2.464684e+003;9.393669e-003
2.466613e+003;9.488957e-003
2.468542e+003;9.836120e-003
2.470470e+003;1.020191e-002
2.472398e+003;1.009294e-002
2.474327e+003;9.832426e-003
2.476256e+003;9.719984e-003
2.478184e+003;9.617497e-003
2.480113e+003;9.708091e-003
2.482041e+003;9.828663e-003
2.483970e+003;9.726388e-003
2.485898e+003;9.566991e-003
2.487827e+003;9.407144e-003
2.489755e+003;9.201936e-003
2.491684e+003;9.318746e-003
2.493613e+003;9.461527e-003
2.495541e+003;9.440531e-003
2.497470e+003;9.431626e-003
2.499398e+003;9.467114e-003
2.501327e+003;9.386186e-003
2.503255e+003;9.423499e-003
2.505184e+003;9.669466e-003
2.507112e+003;9.691692e-003
2.509041e+003;9.621122e-003
2.510969e+003;9.700230e-003
2.512898e+003;9.669635e-003
2.514827e+003;9.278734e-003
2.516755e+003;8.940709e-003
2.518684e+003;9.060426e-003
2.520612e+003;9.223292e-003
2.522541e+003;9.576848e-003
2.524469e+003;9.779116e-003
2.526398e+003;9.725812e-003
2.528326e+003;9.713207e-003
2.530255e+003;9.712970e-003
2.532184e+003;9.635994e-003
2.534112e+003;9.316681e-003
2.536041e+003;9.310622e-003
2.537969e+003;9.724219e-003
2.539898e+003;9.790740e-003
2.541826e+003;9.567872e-003
2.543755e+003;9.549445e-003
2.545683e+003;9.347251e-003
2.547612e+003;9.188805e-003
2.549541e+003;9.352871e-003
2.551469e+003;9.396615e-003
2.553397e+003;9.363501e-003
2.555326e+003;9.407822e-003
2.557255e+003;9.502571e-003
2.559183e+003;9.682239e-003
2.561112e+003;9.823546e-003
2.563040e+003;9.475580e-003
2.564969e+003;9.017427e-003
2.566897e+003;9.260693e-003
2.568826e+003;9.432404e-003
2.570754e+003;9.353683e-003
2.572683e+003;9.457564e-003
2.574612e+003;9.572173e-003
2.576540e+003;9.831883e-003
2.578469e+003;9.989547e-003
2.580397e+003;9.856693e-003
2.582326e+003;9.671330e-003
2.584254e+003;9.563028e-003
2.586183e+003;9.809650e-003
2.588111e+003;9.899097e-003
2.590040e+003;9.931302e-003
2.591969e+003;9.892285e-003
2.593897e+003;9.764984e-003
2.595826e+003;9.637552e-003
2.597754e+003;9.710564e-003
2.599683e+003;9.925369e-003
2.601611e+003;9.867032e-003
2.603540e+003;9.767187e-003
2.605468e+003;9.964424e-003
2.607397e+003;1.005146e-002
2.609325e+003;1.007968e-002
2.611254e+003;9.989683e-003
2.613183e+003;9.509006e-003
2.615111e+003;9.331949e-003
2.617040e+003;9.418521e-003
2.618968e+003;9.460680e-003
2.620897e+003;9.516965e-003
2.622825e+003;9.587484e-003
2.624754e+003;9.578609e-003
2.626682e+003;9.519572e-003
2.628611e+003;9.548802e-003
2.630540e+003;9.835273e-003
2.632468e+003;9.774575e-003
2.634396e+003;9.558219e-003
2.636325e+003;9.629828e-003
2.638254e+003;9.814022e-003
2.640182e+003;9.780505e-003
2.642111e+003;9.723779e-003
2.644039e+003;9.727168e-003
2.645968e+003;9.709582e-003
2.647896e+003;9.712022e-003
2.649825e+003;9.836018e-003
2.651753e+003;9.969069e-003
2.653682e+003;9.791079e-003
2.655611e+003;9.383883e-003
2.657539e+003;9.338753e-003
2.659468e+003;9.551647e-003
2.661396e+003;9.721340e-003
2.663325e+003;9.714529e-003
2.665253e+003;9.730590e-003
2.667182e+003;9.694402e-003
2.669110e+003;9.647478e-003
2.671039e+003;9.853338e-003
2.672968e+003;1.009402e-002
2.674896e+003;9.925268e-003
2.676825e+003;9.844865e-003
2.678753e+003;1.004258e-002
2.680682e+003;1.010080e-002
2.682610e+003;9.930319e-003
2.684539e+003;9.833375e-003
2.686467e+003;9.735199e-003
2.688396e+003;9.643447e-003
2.690324e+003;9.905268e-003
2.692253e+003;1.002237e-002
2.694182e+003;9.950762e-003
2.696110e+003;1.030372e-002
2.698039e+003;1.045905e-002
2.699967e+003;1.019187e-002
2.701896e+003;1.007639e-002
2.703824e+003;1.005512e-002
2.705753e+003;1.013265e-002
2.707681e+003;1.042375e-002
2.709610e+003;1.045331e-002
2.711539e+003;1.044642e-002
2.713467e+003;1.056985e-002
2.715396e+003;1.040719e-002
2.717324e+003;1.025212e-002
2.719253e+003;1.023024e-002
2.721181e+003;1.023563e-002
2.723110e+003;1.013296e-002
2.725038e+003;9.905742e-003
2.726967e+003;9.980868e-003
2.728896e+003;1.017230e-002
2.730824e+003;1.044401e-002
2.732752e+003;1.069341e-002
2.734681e+003;1.060325e-002
2.736610e+003;1.042307e-002
2.738538e+003;1.048535e-002
2.740467e+003;1.048345e-002
2.742395e+003;1.035397e-002
2.744324e+003;1.057942e-002
2.746252e+003;1.060943e-002
2.748181e+003;1.049061e-002
2.750109e+003;1.065466e-002
2.752038e+003;1.074384e-002
2.753967e+003;1.065561e-002
2.755895e+003;1.086555e-002
2.757824e+003;1.088546e-002
2.759752e+003;1.041917e-002
2.761681e+003;1.012214e-002
2.763609e+003;1.036341e-002
2.765538e+003;1.080230e-002
2.767466e+003;1.097928e-002
2.769395e+003;1.092236e-002
2.771323e+003;1.076803e-002
2.773252e+003;1.044113e-002
2.775181e+003;1.043454e-002
2.777109e+003;1.072550e-002
2.779038e+003;1.108290e-002
2.780966e+003;1.123806e-002
2.782895e+003;1.104674e-002
2.784823e+003;1.059422e-002
2.786752e+003;1.065483e-002
2.788680e+003;1.105792e-002
2.790609e+003;1.102855e-002
2.792538e+003;1.096891e-002
2.794466e+003;1.117846e-002
2.796395e+003;1.148540e-002
2.798323e+003;1.146121e-002
2.800252e+003;1.113848e-002
2.802180e+003;1.121307e-002
2.804109e+003;1.152551e-002
2.806037e+003;1.165946e-002
2.807966e+003;1.190281e-002
2.809895e+003;1.194347e-002
2.811823e+003;1.163185e-002
2.813751e+003;1.173196e-002
2.815680e+003;1.199882e-002
2.817609e+003;1.195553e-002
2.819537e+003;1.209032e-002
2.821466e+003;1.222461e-002
2.823394e+003;1.228811e-002
2.825323e+003;1.217015e-002
2.827251e+003;1.210364e-002
2.829180e+003;1.248134e-002
2.831108e+003;1.248376e-002
2.833037e+003;1.202461e-002
2.834966e+003;1.192324e-002
2.836894e+003;1.207097e-002
2.838823e+003;1.206160e-002
2.840751e+003;1.159432e-002
2.842680e+003;1.106761e-002
2.844608e+003;1.023668e-002
2.846537e+003;8.753436e-003
2.848465e+003;7.189090e-003
2.850394e+003;6.400787e-003
2.852323e+003;6.673849e-003
2.854251e+003;7.333127e-003
2.856180e+003;8.381700e-003
2.858108e+003;9.933404e-003
2.860037e+003;1.122232e-002
2.861965e+003;1.218975e-002
2.863894e+003;1.346344e-002
2.865822e+003;1.460966e-002
2.867751e+003;1.506106e-002
2.869679e+003;1.500974e-002
2.871608e+003;1.496015e-002
2.873536e+003;1.484013e-002
2.875465e+003;1.494791e-002
2.877394e+003;1.522067e-002
2.879322e+003;1.549442e-002
2.881251e+003;1.561531e-002
2.883179e+003;1.528217e-002
2.885108e+003;1.449755e-002
2.887036e+003;1.408393e-002
2.888965e+003;1.422048e-002
2.890893e+003;1.443249e-002
2.892822e+003;1.414866e-002
2.894750e+003;1.349017e-002
2.896679e+003;1.325508e-002
2.898608e+003;1.297881e-002
2.900536e+003;1.259832e-002
2.902465e+003;1.265092e-002
2.904393e+003;1.276604e-002
2.906322e+003;1.217380e-002
2.908250e+003;1.153140e-002
2.910179e+003;1.105262e-002
2.912107e+003;1.034447e-002
2.914036e+003;9.327582e-003
2.915965e+003;7.856337e-003
2.917893e+003;6.768071e-003
2.919822e+003;6.379066e-003
2.921750e+003;6.059147e-003
2.923679e+003;5.898974e-003
2.925607e+003;5.994036e-003
2.927536e+003;6.670148e-003
2.929464e+003;7.964113e-003
2.931393e+003;8.959278e-003
2.933322e+003;9.861337e-003
2.935250e+003;1.074619e-002
2.937178e+003;1.164717e-002
2.939107e+003;1.287746e-002
2.941036e+003;1.379694e-002
2.942964e+003;1.413921e-002
2.944893e+003;1.403965e-002
2.946821e+003;1.383549e-002
2.948750e+003;1.354138e-002
2.950678e+003;1.342476e-002
2.952607e+003;1.333277e-002
2.954535e+003;1.339537e-002
2.956464e+003;1.341662e-002
2.958393e+003;1.305156e-002
2.960321e+003;1.320412e-002
2.962250e+003;1.372149e-002
2.964178e+003;1.383118e-002
2.966107e+003;1.393076e-002
2.968035e+003;1.436783e-002
2.969964e+003;1.480959e-002
2.971892e+003;1.495922e-002
2.973821e+003;1.474987e-002
2.975750e+003;1.472224e-002
2.977678e+003;1.479659e-002
2.979607e+003;1.493494e-002
2.981535e+003;1.469568e-002
2.983464e+003;1.418056e-002
2.985392e+003;1.404762e-002
2.987321e+003;1.389036e-002
2.989249e+003;1.339492e-002
2.991178e+003;1.308885e-002
2.993106e+003;1.274137e-002
2.995035e+003;1.237343e-002
2.996964e+003;1.193803e-002
2.998892e+003;1.170078e-002
3.000821e+003;1.137474e-002
3.002749e+003;1.120127e-002
3.004678e+003;1.106424e-002
3.006606e+003;1.095899e-002
3.008535e+003;1.083060e-002
3.010463e+003;1.066356e-002
3.012392e+003;1.051679e-002
3.014321e+003;1.063313e-002
3.016249e+003;1.083168e-002
3.018177e+003;1.090095e-002
3.020106e+003;1.086824e-002
3.022035e+003;1.063636e-002
3.023963e+003;1.026030e-002
3.025892e+003;1.017437e-002
3.027820e+003;1.073576e-002
3.029749e+003;1.086905e-002
3.031677e+003;1.051940e-002
3.033606e+003;1.011623e-002
3.035534e+003;9.948321e-003
3.037463e+003;1.014472e-002
3.039392e+003;1.016623e-002
3.041320e+003;1.008439e-002
3.043249e+003;1.010531e-002
3.045177e+003;1.037715e-002
3.047106e+003;1.039127e-002
3.049034e+003;1.048780e-002
3.050963e+003;1.075631e-002
3.052891e+003;1.046964e-002
3.054820e+003;1.028856e-002
3.056749e+003;1.050521e-002
3.058677e+003;1.009066e-002
3.060606e+003;9.475512e-003
3.062534e+003;9.325144e-003
3.064463e+003;9.359981e-003
3.066391e+003;9.318273e-003
3.068320e+003;9.292139e-003
3.070248e+003;9.586976e-003
3.072177e+003;9.793247e-003
3.074105e+003;9.825952e-003
3.076034e+003;1.001159e-002
3.077963e+003;9.856524e-003
3.079891e+003;9.540470e-003
3.081820e+003;9.372981e-003
3.083748e+003;9.102380e-003
3.085677e+003;8.919874e-003
3.087605e+003;8.865594e-003
3.089534e+003;9.256834e-003
3.091462e+003;9.722492e-003
3.093391e+003;9.639246e-003
3.095320e+003;9.453670e-003
3.097248e+003;9.433014e-003
3.099177e+003;9.166334e-003
3.101105e+003;8.965874e-003
3.103034e+003;9.170395e-003
3.104962e+003;9.222141e-003
3.106891e+003;9.323350e-003
3.108819e+003;9.241738e-003
3.110748e+003;9.314379e-003
3.112677e+003;9.499286e-003
3.114605e+003;9.403860e-003
3.116533e+003;9.019422e-003
3.118462e+003;8.862414e-003
3.120391e+003;9.161393e-003
3.122319e+003;9.269053e-003
3.124248e+003;8.934959e-003
3.126176e+003;8.766148e-003
3.128105e+003;8.748263e-003
3.130033e+003;8.769461e-003
3.131962e+003;8.797863e-003
3.133890e+003;8.834923e-003
3.135819e+003;8.869821e-003
3.137748e+003;8.873913e-003
3.139676e+003;8.717600e-003
3.141605e+003;8.298373e-003
3.143533e+003;8.425954e-003
3.145462e+003;9.042089e-003
3.147390e+003;9.305611e-003
3.149319e+003;8.720981e-003
3.151247e+003;8.156988e-003
3.153176e+003;8.181904e-003
3.155104e+003;8.757154e-003
3.157033e+003;8.920855e-003
3.158962e+003;8.636406e-003
3.160890e+003;8.582567e-003
3.162819e+003;8.611598e-003
3.164747e+003;8.562121e-003
3.166676e+003;8.900021e-003
3.168604e+003;9.380904e-003
3.170533e+003;8.972943e-003
3.172461e+003;8.501094e-003
3.174390e+003;8.481834e-003
3.176319e+003;8.574286e-003
3.178247e+003;8.539649e-003
3.180176e+003;8.651312e-003
3.182104e+003;8.731596e-003
3.184033e+003;8.560769e-003
3.185961e+003;8.728554e-003
3.187890e+003;8.612916e-003
3.189818e+003;8.316644e-003
3.191747e+003;8.257206e-003
3.193676e+003;8.422812e-003
3.195604e+003;8.248763e-003
3.197532e+003;8.149729e-003
3.199461e+003;8.101655e-003
3.201390e+003;8.282095e-003
3.203318e+003;8.295874e-003
3.205247e+003;8.091832e-003
3.207175e+003;8.260177e-003
3.209104e+003;8.460549e-003
3.211032e+003;8.085654e-003
3.212961e+003;8.022736e-003
3.214889e+003;8.334208e-003
3.216818e+003;8.679233e-003
3.218747e+003;8.920314e-003
3.220675e+003;8.931847e-003
3.222604e+003;8.690725e-003
3.224532e+003;8.422778e-003
3.226461e+003;8.000392e-003
3.228389e+003;7.382700e-003
3.230318e+003;7.598615e-003
3.232246e+003;8.641780e-003
3.234175e+003;8.706242e-003
3.236104e+003;8.114990e-003
3.238032e+003;8.026955e-003
3.239961e+003;8.266121e-003
3.241889e+003;8.402002e-003
3.243818e+003;8.318976e-003
3.245746e+003;8.134063e-003
3.247675e+003;7.762824e-003
3.249603e+003;7.567831e-003
3.251532e+003;7.855764e-003
3.253460e+003;7.776957e-003
3.255389e+003;7.536408e-003
3.257318e+003;7.927229e-003
3.259246e+003;8.171438e-003
3.261175e+003;7.320995e-003
3.263103e+003;6.652080e-003
3.265032e+003;6.979338e-003
3.266960e+003;7.056754e-003
3.268889e+003;7.208697e-003
3.270817e+003;7.371308e-003
3.272746e+003;7.129570e-003
3.274675e+003;6.944759e-003
3.276603e+003;7.160491e-003
3.278531e+003;7.108720e-003
3.280460e+003;6.902003e-003
3.282389e+003;7.082888e-003
3.284317e+003;7.064837e-003
3.286246e+003;6.625568e-003
3.288174e+003;6.758143e-003
3.290103e+003;7.177132e-003
3.292031e+003;6.977419e-003
3.293960e+003;6.389960e-003
3.295888e+003;6.234807e-003
3.297817e+003;6.421233e-003
3.299746e+003;6.367768e-003
3.301674e+003;6.211312e-003
3.303603e+003;6.243648e-003
3.305531e+003;6.362018e-003
3.307460e+003;6.351931e-003
3.309388e+003;6.262775e-003
3.311317e+003;6.355932e-003
3.313245e+003;6.708844e-003
3.315174e+003;6.635762e-003
3.317103e+003;6.255110e-003
3.319031e+003;6.294072e-003
3.320960e+003;6.315487e-003
3.322888e+003;6.280120e-003
3.324817e+003;6.273229e-003
3.326745e+003;6.172258e-003
3.328674e+003;6.060692e-003
3.330602e+003;6.238471e-003
3.332531e+003;6.318815e-003
3.334459e+003;6.075477e-003
3.336388e+003;5.880871e-003
3.338317e+003;5.989871e-003
3.340245e+003;6.123764e-003
3.342174e+003;6.060256e-003
3.344102e+003;5.997362e-003
3.346031e+003;6.304728e-003
3.347959e+003;6.371635e-003
3.349888e+003;6.222976e-003
3.351816e+003;6.130485e-003
3.353745e+003;5.838521e-003
3.355674e+003;5.659698e-003
3.357602e+003;5.947577e-003
3.359531e+003;6.436466e-003
3.361459e+003;6.366154e-003
3.363388e+003;6.161772e-003
3.365316e+003;6.173064e-003
3.367245e+003;6.125478e-003
3.369173e+003;6.028707e-003
3.371102e+003;6.127158e-003
3.373031e+003;5.909722e-003
3.374959e+003;5.721905e-003
3.376887e+003;6.057601e-003
3.378816e+003;6.417870e-003
3.380745e+003;6.739197e-003
3.382673e+003;6.521320e-003
3.384602e+003;6.341879e-003
3.386530e+003;6.370122e-003
3.388459e+003;6.519537e-003
3.390387e+003;6.428832e-003
3.392316e+003;6.201733e-003
3.394244e+003;6.361413e-003
3.396173e+003;6.281263e-003
3.398102e+003;6.429841e-003
3.400030e+003;6.810007e-003
3.401959e+003;6.517250e-003
3.403887e+003;6.173266e-003
3.405816e+003;6.614533e-003
3.407744e+003;7.166352e-003
3.409673e+003;7.572450e-003
3.411601e+003;7.237839e-003
3.413530e+003;6.779077e-003
3.415458e+003;6.570094e-003
3.417387e+003;6.416693e-003
3.419316e+003;6.826230e-003
3.421244e+003;7.356110e-003
3.423173e+003;7.271598e-003
3.425101e+003;7.016243e-003
3.427030e+003;7.131995e-003
3.428958e+003;7.462413e-003
3.430887e+003;7.556941e-003
3.432815e+003;7.247441e-003
3.434744e+003;6.631321e-003
3.436673e+003;6.757201e-003
3.438601e+003;7.290568e-003
3.440530e+003;7.877931e-003
3.442458e+003;8.252984e-003
3.444387e+003;7.729565e-003
3.446315e+003;7.513315e-003
3.448244e+003;7.911909e-003
3.450172e+003;7.893958e-003
3.452101e+003;7.913596e-003
3.454030e+003;8.496026e-003
3.455958e+003;8.833468e-003
3.457886e+003;8.617005e-003
3.459815e+003;8.439669e-003
3.461744e+003;8.352852e-003
3.463672e+003;8.629984e-003
3.465601e+003;8.535189e-003
3.467529e+003;8.359743e-003
3.469458e+003;8.249371e-003
3.471386e+003;7.966476e-003
3.473315e+003;8.085384e-003
3.475243e+003;8.189603e-003
3.477172e+003;7.927532e-003
3.479101e+003;7.939208e-003
3.481029e+003;8.264905e-003
3.482958e+003;8.567731e-003
3.484886e+003;8.540967e-003
3.486815e+003;8.314821e-003
3.488743e+003;8.349475e-003
3.490672e+003;8.552185e-003
3.492600e+003;8.335525e-003
3.494529e+003;8.461495e-003
3.496458e+003;8.439332e-003
3.498386e+003;8.147939e-003
3.500315e+003;8.098481e-003
3.502243e+003;8.051932e-003
3.504172e+003;8.346874e-003
3.506100e+003;8.578004e-003
3.508029e+003;7.917240e-003
3.509957e+003;7.794060e-003
3.511886e+003;8.389436e-003
3.513814e+003;8.814194e-003
3.515743e+003;8.671931e-003
3.517672e+003;8.601729e-003
3.519600e+003;8.673587e-003
3.521529e+003;8.065603e-003
3.523457e+003;7.535802e-003
3.525386e+003;7.967960e-003
3.527314e+003;8.240422e-003
3.529243e+003;8.351502e-003
3.531171e+003;8.774533e-003
3.533100e+003;8.813585e-003
3.535029e+003;8.557153e-003
3.536957e+003;8.850275e-003
3.538885e+003;8.843545e-003
3.540814e+003;8.499742e-003
3.542743e+003;8.167117e-003
3.544671e+003;7.768997e-003
3.546600e+003;8.008695e-003
3.548528e+003;8.443994e-003
3.550457e+003;8.162761e-003
3.552385e+003;8.117656e-003
3.554314e+003;8.514441e-003
3.556242e+003;8.736971e-003
3.558171e+003;8.610246e-003
3.560100e+003;8.267303e-003
3.562028e+003;7.746734e-003
3.563957e+003;6.844777e-003
3.565885e+003;5.730466e-003
3.567814e+003;6.535447e-003
3.569742e+003;8.438251e-003
3.571671e+003;8.832251e-003
3.573599e+003;8.314483e-003
3.575528e+003;8.257949e-003
3.577457e+003;8.560938e-003
3.579385e+003;8.622346e-003
3.581314e+003;8.106584e-003
3.583242e+003;8.248054e-003
3.585171e+003;7.682651e-003
3.587099e+003;6.415281e-003
3.589028e+003;6.827846e-003
3.590956e+003;7.789000e-003
3.592885e+003;7.564324e-003
3.594813e+003;7.022372e-003
3.596742e+003;7.401506e-003
3.598671e+003;7.917105e-003
3.600599e+003;7.681571e-003
3.602528e+003;7.402382e-003
3.604456e+003;7.553536e-003
3.606385e+003;6.952503e-003
3.608313e+003;5.381302e-003
3.610242e+003;5.459641e-003
3.612170e+003;6.300325e-003
3.614099e+003;7.047223e-003
3.616028e+003;7.127245e-003
3.617956e+003;5.729291e-003
3.619885e+003;5.338430e-003
3.621813e+003;6.846796e-003
3.623742e+003;7.701065e-003
3.625670e+003;6.624121e-003
3.627599e+003;2.844309e-003
3.629527e+003;2.853180e-003
3.631456e+003;6.187046e-003
3.633385e+003;7.018600e-003
3.635313e+003;7.589680e-003
3.637241e+003;7.898513e-003
3.639170e+003;7.693612e-003
3.641099e+003;7.425975e-003
3.643027e+003;7.315098e-003
3.644956e+003;6.435928e-003
3.646884e+003;3.673925e-003
3.648813e+003;1.637852e-003
3.650741e+003;3.491982e-003
3.652670e+003;6.404923e-003
3.654598e+003;5.481854e-003
3.656527e+003;5.058832e-003
3.658456e+003;7.103770e-003
3.660384e+003;7.785492e-003
3.662313e+003;7.857114e-003
3.664241e+003;7.827323e-003
3.666170e+003;6.629538e-003
3.668098e+003;3.996504e-003
3.670027e+003;2.290456e-003
3.671955e+003;4.008577e-003
3.673884e+003;2.599942e-003
3.675813e+003;1.216030e-003
3.677741e+003;4.061417e-003
3.679669e+003;6.015571e-003
3.681598e+003;7.117478e-003
3.683527e+003;6.924963e-003
3.685455e+003;5.554070e-003
3.687384e+003;2.337924e-003
3.689312e+003;2.035315e-003
3.691241e+003;4.248751e-003
3.693169e+003;6.025079e-003
3.695098e+003;6.355966e-003
3.697026e+003;6.812329e-003
3.698955e+003;7.019509e-003
3.700884e+003;6.118118e-003
3.702812e+003;6.065195e-003
3.704741e+003;6.240992e-003
3.706669e+003;5.809071e-003
3.708598e+003;4.498199e-003
3.710526e+003;2.563444e-003
3.712455e+003;2.463965e-003
3.714383e+003;4.614520e-003
3.716312e+003;5.467157e-003
3.718240e+003;5.637275e-003
3.720169e+003;5.240024e-003
3.722098e+003;4.621921e-003
3.724026e+003;4.575174e-003
3.725955e+003;4.329765e-003
3.727883e+003;4.718613e-003
3.729812e+003;4.184346e-003
3.731740e+003;2.703920e-003
3.733669e+003;2.136461e-003
3.735597e+003;1.674073e-003
3.737526e+003;3.407918e-003
3.739455e+003;4.989882e-003
3.741383e+003;3.587855e-003
3.743312e+003;-2.303983e-003
3.745240e+003;-2.063417e-003
3.747169e+003;8.081617e-004
3.749097e+003;-9.820421e-004
3.751026e+003;-1.340586e-003
3.752954e+003;1.330412e-003
3.754883e+003;4.632236e-003
3.756812e+003;5.109788e-003
3.758740e+003;4.719719e-003
3.760668e+003;4.896380e-003
3.762597e+003;5.535881e-003
3.764526e+003;4.981938e-003
3.766454e+003;4.805879e-003
3.768383e+003;4.406911e-003
3.770311e+003;4.916352e-003
3.772240e+003;5.978616e-003
3.774168e+003;6.199078e-003
3.776097e+003;6.346989e-003
3.778025e+003;5.526820e-003
3.779954e+003;4.974766e-003
3.781883e+003;5.681182e-003
3.783811e+003;5.583269e-003
3.785740e+003;5.444878e-003
3.787668e+003;5.603742e-003
3.789597e+003;5.862869e-003
3.791525e+003;6.076485e-003
3.793454e+003;6.166377e-003
3.795382e+003;5.001982e-003
3.797311e+003;4.551199e-003
3.799240e+003;2.672547e-003
3.801168e+003;7.365976e-004
3.803097e+003;3.176052e-003
3.805025e+003;3.573890e-003
3.806954e+003;2.766673e-003
3.808882e+003;4.639537e-003
3.810811e+003;5.685748e-003
3.812739e+003;5.203336e-003
3.814668e+003;1.810468e-003
3.816596e+003;1.329781e-003
3.818525e+003;2.867822e-003
3.820454e+003;1.874289e-003
3.822382e+003;3.576496e-003
3.824311e+003;5.357048e-003
3.826239e+003;4.810201e-003
3.828168e+003;5.376236e-003
3.830096e+003;5.140265e-003
3.832025e+003;3.902915e-003
3.833953e+003;2.966693e-003
3.835882e+003;1.091646e-003
3.837811e+003;1.666962e-004
3.839739e+003;2.397458e-003
3.841667e+003;4.499102e-003
3.843596e+003;5.571253e-003
3.845525e+003;6.086498e-003
3.847453e+003;5.989568e-003
3.849382e+003;4.218873e-003
3.851310e+003;-7.585044e-004
3.853239e+003;-4.664323e-003
3.855167e+003;-4.203006e-004
3.857096e+003;4.594394e-003
3.859024e+003;5.657247e-003
3.860953e+003;5.041702e-003
3.862882e+003;3.830137e-003
3.864810e+003;3.431229e-003
3.866739e+003;3.945845e-003
3.868667e+003;2.009317e-003
3.870596e+003;2.322334e-003
3.872524e+003;4.151863e-003
3.874453e+003;4.152230e-003
3.876381e+003;5.265847e-003
3.878310e+003;5.082332e-003
3.880239e+003;4.504627e-003
3.882167e+003;5.092121e-003
3.884096e+003;4.073859e-003
3.886024e+003;4.269631e-003
3.887953e+003;6.057467e-003
3.889881e+003;4.822731e-003
3.891810e+003;4.303830e-003
3.893738e+003;5.740572e-003
3.895667e+003;6.165099e-003
3.897595e+003;4.960053e-003
3.899524e+003;4.003059e-003
3.901453e+003;4.050246e-003
3.903381e+003;3.885263e-003
3.905310e+003;4.759648e-003
3.907238e+003;6.333977e-003
3.909167e+003;6.973681e-003
3.911095e+003;6.700499e-003
3.913024e+003;6.240757e-003
3.914952e+003;5.498967e-003
3.916881e+003;4.673832e-003
3.918810e+003;4.929388e-003
3.920738e+003;5.761120e-003
3.922667e+003;6.148666e-003
3.924595e+003;5.704548e-003
3.926524e+003;5.740975e-003
3.928452e+003;5.892391e-003
3.930381e+003;5.570683e-003
3.932309e+003;5.764747e-003
3.934238e+003;6.532655e-003
3.936167e+003;6.445949e-003
3.938095e+003;6.329943e-003
3.940023e+003;6.022424e-003
3.941952e+003;5.681216e-003
3.943881e+003;5.574911e-003
3.945809e+003;5.833854e-003
3.947738e+003;6.152967e-003
3.949666e+003;6.643063e-003
3.951595e+003;6.651037e-003
3.953523e+003;6.697234e-003
3.955452e+003;6.897997e-003
3.957380e+003;6.950584e-003
3.959309e+003;6.840434e-003
3.961238e+003;6.610765e-003
3.963166e+003;6.537801e-003
3.965095e+003;6.883185e-003
3.967023e+003;7.159447e-003
3.968952e+003;6.875880e-003
3.970880e+003;6.448404e-003
3.972809e+003;6.698749e-003
3.974737e+003;7.510483e-003
3.976666e+003;7.721707e-003
3.978594e+003;7.471412e-003
3.980523e+003;7.156685e-003
3.982452e+003;6.987015e-003
3.984380e+003;7.022607e-003
3.986309e+003;7.425335e-003
3.988237e+003;7.738031e-003
3.990166e+003;7.143245e-003
3.992094e+003;6.593473e-003
3.994023e+003;6.617393e-003
3.995951e+003;7.006478e-003
3.997880e+003;7.623905e-003
3.999809e+003;7.443401e-003
4.001737e+003;0.000000e+000
