3.992094e+002;0.000000e+000
4.011380e+002;0.000000e+000
4.030665e+002;0.000000e+000
4.049951e+002;0.000000e+000
4.069236e+002;0.000000e+000
4.088522e+002;0.000000e+000
4.107807e+002;0.000000e+000
4.127093e+002;0.000000e+000
4.146378e+002;0.000000e+000
4.165664e+002;0.000000e+000
4.184949e+002;0.000000e+000
4.204235e+002;0.000000e+000
4.223520e+002;0.000000e+000
4.242806e+002;0.000000e+000
4.262091e+002;0.000000e+000
4.281377e+002;0.000000e+000
4.300662e+002;0.000000e+000
4.319948e+002;0.000000e+000
4.339233e+002;0.000000e+000
4.358519e+002;0.000000e+000
4.377804e+002;0.000000e+000
4.397090e+002;0.000000e+000
4.416375e+002;0.000000e+000
4.435660e+002;0.000000e+000
4.454946e+002;0.000000e+000
4.474232e+002;0.000000e+000
4.493517e+002;0.000000e+000
4.512802e+002;0.000000e+000
4.532088e+002;0.000000e+000
4.551373e+002;0.000000e+000
4.570659e+002;0.000000e+000
4.589944e+002;0.000000e+000
4.609230e+002;0.000000e+000
4.628515e+002;0.000000e+000
4.647801e+002;0.000000e+000
4.667086e+002;0.000000e+000
4.686372e+002;0.000000e+000
4.705657e+002;0.000000e+000
4.724943e+002;0.000000e+000
4.744228e+002;0.000000e+000
4.763513e+002;0.000000e+000
4.782799e+002;0.000000e+000
4.802085e+002;0.000000e+000
4.821370e+002;0.000000e+000
4.840656e+002;0.000000e+000
4.859941e+002;0.000000e+000
4.879226e+002;0.000000e+000
4.898512e+002;0.000000e+000
4.917798e+002;0.000000e+000
4.937083e+002;0.000000e+000
4.956368e+002;0.000000e+000
4.975654e+002;0.000000e+000
4.994939e+002;0.000000e+000
5.014225e+002;0.000000e+000
5.033510e+002;0.000000e+000
5.052796e+002;0.000000e+000
5.072081e+002;0.000000e+000
5.091367e+002;0.000000e+000
5.110652e+002;0.000000e+000
5.129938e+002;0.000000e+000
5.149223e+002;0.000000e+000
5.168509e+002;0.000000e+000
5.187794e+002;0.000000e+000
5.207079e+002;0.000000e+000
5.226365e+002;0.000000e+000
5.245651e+002;0.000000e+000
5.264936e+002;0.000000e+000
5.284222e+002;0.000000e+000
5.303507e+002;0.000000e+000
5.322792e+002;0.000000e+000
5.342078e+002;0.000000e+000
5.361364e+002;0.000000e+000
5.380649e+002;0.000000e+000
5.399935e+002;0.000000e+000
5.419220e+002;0.000000e+000
5.438505e+002;0.000000e+000
5.457791e+002;0.000000e+000
5.477076e+002;0.000000e+000
5.496362e+002;0.000000e+000
5.515648e+002;0.000000e+000
5.534933e+002;0.000000e+000
5.554218e+002;0.000000e+000
5.573504e+002;0.000000e+000
5.592789e+002;0.000000e+000
5.612075e+002;0.000000e+000
5.631360e+002;0.000000e+000
5.650646e+002;0.000000e+000
5.669931e+002;0.000000e+000
5.689217e+002;0.000000e+000
5.708502e+002;0.000000e+000
5.727787e+002;0.000000e+000
5.747073e+002;0.000000e+000
5.766359e+002;0.000000e+000
5.785644e+002;0.000000e+000
5.804930e+002;0.000000e+000
5.824215e+002;0.000000e+000
5.843500e+002;0.000000e+000
5.862786e+002;0.000000e+000
5.882072e+002;0.000000e+000
5.901357e+002;0.000000e+000
5.920643e+002;0.000000e+000
5.939928e+002;0.000000e+000
5.959213e+002;0.000000e+000
5.978499e+002;0.000000e+000
5.997784e+002;8.166051e-002
6.017070e+002;9.403791e-002
6.036355e+002;9.153069e-002
6.055641e+002;8.574371e-002
6.074926e+002;8.174645e-002
6.094211e+002;8.202723e-002
6.113497e+002;9.231506e-002
6.132783e+002;9.508065e-002
6.152068e+002;9.126814e-002
6.171354e+002;8.767237e-002
6.190639e+002;8.824509e-002
6.209924e+002;8.721699e-002
6.229210e+002;8.395457e-002
6.248495e+002;8.633968e-002
6.267781e+002;9.294561e-002
6.287067e+002;9.167413e-002
6.306352e+002;8.931303e-002
6.325637e+002;8.751726e-002
6.344923e+002;8.879849e-002
6.364208e+002;9.056377e-002
6.383494e+002;8.825658e-002
6.402780e+002;8.872292e-002
6.422065e+002;9.365576e-002
6.441350e+002;9.519684e-002
6.460636e+002;9.686023e-002
6.479921e+002;9.802686e-002
6.499207e+002;9.567066e-002
6.518492e+002;9.211107e-002
6.537778e+002;9.134996e-002
6.557063e+002;9.273151e-002
6.576349e+002;9.621736e-002
6.595634e+002;9.891552e-002
6.614919e+002;1.011226e-001
6.634205e+002;9.943391e-002
6.653491e+002;9.757204e-002
6.672776e+002;9.914280e-002
6.692062e+002;1.025343e-001
6.711347e+002;1.038670e-001
6.730632e+002;1.024606e-001
6.749918e+002;1.031340e-001
6.769203e+002;1.049129e-001
6.788489e+002;1.056219e-001
6.807775e+002;1.063921e-001
6.827060e+002;1.065241e-001
6.846345e+002;1.061068e-001
6.865631e+002;1.063588e-001
6.884916e+002;1.079230e-001
6.904202e+002;1.095264e-001
6.923488e+002;1.091120e-001
6.942773e+002;1.092125e-001
6.962058e+002;1.100103e-001
6.981344e+002;1.094940e-001
7.000629e+002;1.086212e-001
7.019915e+002;1.074129e-001
7.039200e+002;1.077404e-001
7.058486e+002;1.081603e-001
7.077771e+002;1.072925e-001
7.097057e+002;1.074254e-001
7.116342e+002;1.083538e-001
7.135627e+002;1.085160e-001
7.154913e+002;1.077965e-001
7.174199e+002;1.070290e-001
7.193484e+002;1.079280e-001
7.212770e+002;1.081569e-001
7.232055e+002;1.076162e-001
7.251340e+002;1.075788e-001
7.270626e+002;1.069104e-001
7.289911e+002;1.067516e-001
7.309197e+002;1.078335e-001
7.328483e+002;1.092601e-001
7.347768e+002;1.103598e-001
7.367053e+002;1.103878e-001
7.386339e+002;1.110933e-001
7.405624e+002;1.117983e-001
7.424910e+002;1.112522e-001
7.444196e+002;1.096123e-001
7.463481e+002;1.098596e-001
7.482766e+002;1.115502e-001
7.502052e+002;1.118109e-001
7.521337e+002;1.112073e-001
7.540623e+002;1.109536e-001
7.559908e+002;1.096608e-001
7.579194e+002;1.085010e-001
7.598479e+002;1.075036e-001
7.617765e+002;1.077895e-001
7.637050e+002;1.094228e-001
7.656335e+002;1.095373e-001
7.675621e+002;1.089313e-001
7.694907e+002;1.088413e-001
7.714192e+002;1.089950e-001
7.733478e+002;1.087680e-001
7.752763e+002;1.077942e-001
7.772048e+002;1.060104e-001
7.791334e+002;1.049682e-001
7.810620e+002;1.057734e-001
7.829905e+002;1.055120e-001
7.849191e+002;1.042190e-001
7.868476e+002;1.035123e-001
7.887761e+002;1.034491e-001
7.907047e+002;1.038215e-001
7.926332e+002;1.033759e-001
7.945618e+002;1.020145e-001
7.964903e+002;1.010158e-001
7.984189e+002;1.002582e-001
8.003474e+002;9.885406e-002
8.022759e+002;9.743547e-002
8.042045e+002;9.699671e-002
8.061331e+002;9.670045e-002
8.080616e+002;9.562358e-002
8.099902e+002;9.510680e-002
8.119187e+002;9.620930e-002
8.138472e+002;9.686301e-002
8.157758e+002;9.671109e-002
8.177043e+002;9.737074e-002
8.196329e+002;9.861562e-002
8.215615e+002;9.969698e-002
8.234900e+002;1.005128e-001
8.254185e+002;1.014485e-001
8.273471e+002;1.032219e-001
8.292756e+002;1.051020e-001
8.312042e+002;1.070971e-001
8.331328e+002;1.090936e-001
8.350613e+002;1.110195e-001
8.369898e+002;1.136156e-001
8.389184e+002;1.165917e-001
8.408469e+002;1.193651e-001
8.427755e+002;1.229593e-001
8.447040e+002;1.267607e-001
8.466326e+002;1.294269e-001
8.485611e+002;1.329011e-001
8.504897e+002;1.378918e-001
8.524182e+002;1.425015e-001
8.543467e+002;1.471048e-001
8.562753e+002;1.512210e-001
8.582039e+002;1.556145e-001
8.601324e+002;1.608990e-001
8.620610e+002;1.663615e-001
8.639895e+002;1.716478e-001
8.659180e+002;1.759887e-001
8.678466e+002;1.803212e-001
8.697751e+002;1.848294e-001
8.717037e+002;1.896483e-001
8.736323e+002;1.947525e-001
8.755608e+002;1.991874e-001
8.774893e+002;2.038570e-001
8.794179e+002;2.080237e-001
8.813464e+002;2.120853e-001
8.832750e+002;2.168604e-001
8.852036e+002;2.210958e-001
8.871321e+002;2.253384e-001
8.890606e+002;2.290463e-001
8.909892e+002;2.314887e-001
8.929177e+002;2.336435e-001
8.948463e+002;2.365877e-001
8.967748e+002;2.400183e-001
8.987034e+002;2.428526e-001
9.006319e+002;2.454948e-001
9.025605e+002;2.479304e-001
9.044890e+002;2.496601e-001
9.064175e+002;2.508449e-001
9.083461e+002;2.524553e-001
9.102747e+002;2.546190e-001
9.122032e+002;2.567913e-001
9.141318e+002;2.584392e-001
9.160603e+002;2.599724e-001
9.179888e+002;2.605937e-001
9.199174e+002;2.610747e-001
9.218459e+002;2.617189e-001
9.237745e+002;2.623478e-001
9.257031e+002;2.632771e-001
9.276316e+002;2.642061e-001
9.295601e+002;2.653016e-001
9.314887e+002;2.660364e-001
9.334172e+002;2.653846e-001
9.353458e+002;2.652656e-001
9.372744e+002;2.657501e-001
9.392029e+002;2.655951e-001
9.411314e+002;2.648729e-001
9.430600e+002;2.643949e-001
9.449885e+002;2.642802e-001
9.469171e+002;2.640243e-001
9.488456e+002;2.639979e-001
9.507742e+002;2.634402e-001
9.527027e+002;2.621838e-001
9.546313e+002;2.608896e-001
9.565598e+002;2.600259e-001
9.584883e+002;2.590402e-001
9.604169e+002;2.579292e-001
9.623455e+002;2.575929e-001
9.642740e+002;2.572998e-001
9.662026e+002;2.562827e-001
9.681311e+002;2.551803e-001
9.700596e+002;2.540782e-001
9.719882e+002;2.530314e-001
9.739167e+002;2.520551e-001
9.758453e+002;2.507562e-001
9.777739e+002;2.495252e-001
9.797024e+002;2.483472e-001
9.816309e+002;2.471321e-001
9.835595e+002;2.460671e-001
9.854880e+002;2.445792e-001
9.874166e+002;2.429830e-001
9.893452e+002;2.412548e-001
9.912737e+002;2.393107e-001
9.932022e+002;2.379015e-001
9.951307e+002;2.368689e-001
9.970593e+002;2.354732e-001
9.989879e+002;2.335610e-001
1.000916e+003;2.314969e-001
1.002845e+003;2.299078e-001
1.004773e+003;2.281177e-001
1.006702e+003;2.263967e-001
1.008631e+003;2.248625e-001
1.010559e+003;2.222089e-001
1.012488e+003;2.196676e-001
1.014416e+003;2.178187e-001
1.016345e+003;2.158152e-001
1.018273e+003;2.136512e-001
1.020202e+003;2.110700e-001
1.022130e+003;2.080824e-001
1.024059e+003;2.051116e-001
1.025988e+003;2.033830e-001
1.027916e+003;2.018010e-001
1.029845e+003;1.994248e-001
1.031773e+003;1.968499e-001
1.033702e+003;1.946623e-001
1.035630e+003;1.918786e-001
1.037559e+003;1.890541e-001
1.039487e+003;1.872496e-001
1.041416e+003;1.857450e-001
1.043344e+003;1.836120e-001
1.045273e+003;1.811674e-001
1.047202e+003;1.788943e-001
1.049130e+003;1.767520e-001
1.051059e+003;1.745387e-001
1.052987e+003;1.718819e-001
1.054916e+003;1.688576e-001
1.056844e+003;1.662464e-001
1.058773e+003;1.641225e-001
1.060701e+003;1.621907e-001
1.062630e+003;1.603584e-001
1.064558e+003;1.585847e-001
1.066487e+003;1.569392e-001
1.068416e+003;1.546645e-001
1.070344e+003;1.520239e-001
1.072273e+003;1.497416e-001
1.074201e+003;1.478966e-001
1.076130e+003;1.455422e-001
1.078058e+003;1.429595e-001
1.079987e+003;1.417312e-001
1.081915e+003;1.403448e-001
1.083844e+003;1.377374e-001
1.085773e+003;1.352277e-001
1.087701e+003;1.334270e-001
1.089630e+003;1.315699e-001
1.091558e+003;1.294424e-001
1.093487e+003;1.282925e-001
1.095415e+003;1.269149e-001
1.097344e+003;1.245429e-001
1.099272e+003;1.233096e-001
1.101201e+003;1.224011e-001
1.103129e+003;1.201408e-001
1.105058e+003;1.181165e-001
1.106987e+003;1.167787e-001
1.108915e+003;1.151354e-001
1.110844e+003;1.134761e-001
1.112772e+003;1.126065e-001
1.114701e+003;1.115920e-001
1.116629e+003;1.096907e-001
1.118558e+003;1.076880e-001
1.120486e+003;1.063017e-001
1.122415e+003;1.052111e-001
1.124344e+003;1.042585e-001
1.126272e+003;1.033157e-001
1.128201e+003;1.019856e-001
1.130129e+003;1.006226e-001
1.132058e+003;9.926284e-002
1.133986e+003;9.783760e-002
1.135915e+003;9.647245e-002
1.137843e+003;9.534935e-002
1.139772e+003;9.442932e-002
1.141700e+003;9.337578e-002
1.143629e+003;9.210070e-002
1.145557e+003;9.052552e-002
1.147486e+003;8.871488e-002
1.149415e+003;8.712590e-002
1.151343e+003;8.525079e-002
1.153272e+003;8.326597e-002
1.155200e+003;8.215100e-002
1.157129e+003;8.080068e-002
1.159057e+003;7.927755e-002
1.160986e+003;7.788565e-002
1.162914e+003;7.656140e-002
1.164843e+003;7.521492e-002
1.166771e+003;7.415739e-002
1.168700e+003;7.316105e-002
1.170629e+003;7.204115e-002
1.172557e+003;7.154591e-002
1.174486e+003;7.124782e-002
1.176414e+003;7.048114e-002
1.178343e+003;6.914046e-002
1.180271e+003;6.786627e-002
1.182200e+003;6.682592e-002
1.184128e+003;6.584763e-002
1.186057e+003;6.448326e-002
1.187986e+003;6.284253e-002
1.189914e+003;6.175447e-002
1.191843e+003;6.043543e-002
1.193771e+003;5.890733e-002
1.195700e+003;5.761616e-002
1.197628e+003;5.625704e-002
1.199557e+003;5.492516e-002
1.201485e+003;5.388685e-002
1.203414e+003;5.272275e-002
1.205343e+003;5.166135e-002
1.207271e+003;5.088152e-002
1.209200e+003;5.005095e-002
1.211128e+003;4.924230e-002
1.213057e+003;4.874057e-002
1.214985e+003;4.837896e-002
1.216914e+003;4.804256e-002
1.218842e+003;4.797458e-002
1.220771e+003;4.814972e-002
1.222699e+003;4.851247e-002
1.224628e+003;4.903181e-002
1.226557e+003;4.906828e-002
1.228485e+003;4.939174e-002
1.230414e+003;4.982859e-002
1.232342e+003;4.986322e-002
1.234271e+003;4.985129e-002
1.236199e+003;4.972023e-002
1.238128e+003;4.927254e-002
1.240056e+003;4.858943e-002
1.241985e+003;4.789999e-002
1.243913e+003;4.753649e-002
1.245842e+003;4.663521e-002
1.247771e+003;4.487764e-002
1.249699e+003;4.336639e-002
1.251628e+003;4.202965e-002
1.253556e+003;4.046053e-002
1.255485e+003;3.873349e-002
1.257413e+003;3.614886e-002
1.259342e+003;3.346281e-002
1.261270e+003;3.188432e-002
1.263199e+003;3.067982e-002
1.265127e+003;2.961016e-002
1.267056e+003;2.865262e-002
1.268985e+003;2.776702e-002
1.270913e+003;2.696588e-002
1.272842e+003;2.589590e-002
1.274770e+003;2.507504e-002
1.276699e+003;2.437770e-002
1.278627e+003;2.364489e-002
1.280556e+003;2.313196e-002
1.282484e+003;2.254273e-002
1.284413e+003;2.188653e-002
1.286342e+003;2.092788e-002
1.288270e+003;2.011922e-002
1.290199e+003;1.964725e-002
1.292127e+003;1.909171e-002
1.294056e+003;1.855704e-002
1.295984e+003;1.820153e-002
1.297913e+003;1.792005e-002
1.299841e+003;1.757344e-002
1.301770e+003;1.712184e-002
1.303698e+003;1.644410e-002
1.305627e+003;1.573499e-002
1.307556e+003;1.534710e-002
1.309484e+003;1.480095e-002
1.311413e+003;1.404642e-002
1.313341e+003;1.369321e-002
1.315270e+003;1.344718e-002
1.317198e+003;1.310620e-002
1.319127e+003;1.302520e-002
1.321055e+003;1.279033e-002
1.322984e+003;1.220546e-002
1.324912e+003;1.179092e-002
1.326841e+003;1.178547e-002
1.328770e+003;1.185933e-002
1.330698e+003;1.168577e-002
1.332627e+003;1.149972e-002
1.334555e+003;1.134964e-002
1.336484e+003;1.088533e-002
1.338412e+003;1.023930e-002
1.340341e+003;1.019594e-002
1.342269e+003;1.078131e-002
1.344198e+003;1.103562e-002
1.346126e+003;1.112250e-002
1.348055e+003;1.123983e-002
1.349984e+003;1.158428e-002
1.351912e+003;1.193067e-002
1.353841e+003;1.217697e-002
1.355769e+003;1.259351e-002
1.357698e+003;1.329078e-002
1.359626e+003;1.386326e-002
1.361555e+003;1.400628e-002
1.363483e+003;1.446856e-002
1.365412e+003;1.565615e-002
1.367341e+003;1.646723e-002
1.369269e+003;1.692094e-002
1.371198e+003;1.730241e-002
1.373126e+003;1.694947e-002
1.375055e+003;1.624658e-002
1.376983e+003;1.567628e-002
1.378912e+003;1.487788e-002
1.380840e+003;1.401292e-002
1.382769e+003;1.308684e-002
1.384698e+003;1.198227e-002
1.386626e+003;9.995311e-003
1.388555e+003;1.005845e-002
1.390483e+003;1.099892e-002
1.392412e+003;1.007269e-002
1.394340e+003;8.354305e-003
1.396269e+003;8.311916e-003
1.398197e+003;8.281182e-003
1.400126e+003;8.591894e-003
1.402054e+003;9.254532e-003
1.403983e+003;8.774431e-003
1.405911e+003;8.474671e-003
1.407840e+003;8.470246e-003
1.409769e+003;8.177887e-003
1.411697e+003;7.938668e-003
1.413626e+003;7.764949e-003
1.415554e+003;7.039781e-003
1.417483e+003;4.528666e-003
1.419411e+003;3.098490e-003
1.421340e+003;5.682290e-003
1.423268e+003;7.103803e-003
1.425197e+003;7.498684e-003
1.427125e+003;7.603538e-003
1.429054e+003;6.906312e-003
1.430983e+003;6.847301e-003
1.432911e+003;6.932908e-003
1.434840e+003;4.284622e-003
1.436768e+003;2.048798e-003
1.438697e+003;4.725648e-003
1.440625e+003;6.264993e-003
1.442554e+003;5.925005e-003
1.444482e+003;5.146669e-003
1.446411e+003;3.763153e-003
1.448340e+003;2.998454e-003
1.450268e+003;3.558523e-003
1.452197e+003;3.053174e-003
1.454125e+003;-1.401344e-004
1.456054e+003;-6.721442e-003
1.457982e+003;-6.554108e-003
1.459911e+003;-1.433528e-003
1.461839e+003;-1.534829e-004
1.463768e+003;-2.668123e-003
1.465697e+003;-3.453544e-003
1.467625e+003;-2.131739e-003
1.469554e+003;-2.939884e-003
1.471482e+003;-5.901417e-003
1.473411e+003;-5.901221e-003
1.475339e+003;-3.149342e-003
1.477268e+003;-1.023199e-003
1.479196e+003;1.799551e-004
1.481125e+003;-1.868027e-004
1.483053e+003;-3.135667e-004
1.484982e+003;-1.239464e-003
1.486911e+003;-2.978256e-003
1.488839e+003;-4.566628e-003
1.490768e+003;-4.224224e-003
1.492696e+003;-2.800815e-003
1.494625e+003;-4.914855e-003
1.496553e+003;-7.093471e-003
1.498482e+003;-5.616000e-003
1.500410e+003;-3.723172e-003
1.502339e+003;-3.327528e-003
1.504267e+003;-8.499849e-003
1.506196e+003;-1.469365e-002
1.508125e+003;-1.139798e-002
1.510053e+003;-6.061553e-003
1.511982e+003;-5.195855e-003
1.513910e+003;-5.646909e-003
1.515839e+003;-7.376877e-003
1.517767e+003;-8.746976e-003
1.519696e+003;-1.182388e-002
1.521624e+003;-1.356543e-002
1.523553e+003;-1.048245e-002
1.525481e+003;-9.457983e-003
1.527410e+003;-8.343307e-003
1.529339e+003;-7.131477e-003
1.531267e+003;-8.195001e-003
1.533196e+003;-1.024032e-002
1.535124e+003;-8.967998e-003
1.537053e+003;-1.108893e-002
1.538981e+003;-1.815269e-002
1.540910e+003;-1.826717e-002
1.542838e+003;-1.318114e-002
1.544767e+003;-9.983683e-003
1.546695e+003;-8.345940e-003
1.548624e+003;-8.697647e-003
1.550553e+003;-9.142776e-003
1.552481e+003;-1.060680e-002
1.554410e+003;-1.291015e-002
1.556338e+003;-1.642407e-002
1.558267e+003;-2.351877e-002
1.560195e+003;-2.054852e-002
1.562124e+003;-1.165711e-002
1.564052e+003;-9.313916e-003
1.565981e+003;-9.298381e-003
1.567910e+003;-1.042475e-002
1.569838e+003;-1.131522e-002
1.571767e+003;-9.278921e-003
1.573695e+003;-1.070557e-002
1.575624e+003;-1.524770e-002
1.577552e+003;-1.260896e-002
1.579481e+003;-8.465698e-003
1.581409e+003;-8.106877e-003
1.583338e+003;-8.466803e-003
1.585266e+003;-8.931321e-003
1.587195e+003;-9.388501e-003
1.589124e+003;-9.942330e-003
1.591052e+003;-9.958069e-003
1.592981e+003;-1.015682e-002
1.594909e+003;-1.032921e-002
1.596838e+003;-1.033060e-002
1.598766e+003;-1.023793e-002
1.600695e+003;-1.019272e-002
1.602623e+003;-1.011238e-002
1.604552e+003;-9.861622e-003
1.606480e+003;-9.963995e-003
1.608409e+003;-1.024126e-002
1.610338e+003;-1.018764e-002
1.612266e+003;-1.019699e-002
1.614195e+003;-1.236534e-002
1.616123e+003;-1.659278e-002
1.618052e+003;-1.450702e-002
1.619980e+003;-1.110363e-002
1.621909e+003;-1.239648e-002
1.623837e+003;-1.323934e-002
1.625766e+003;-1.238685e-002
1.627694e+003;-1.221157e-002
1.629623e+003;-1.158459e-002
1.631552e+003;-1.147705e-002
1.633480e+003;-1.517331e-002
1.635409e+003;-1.896937e-002
1.637337e+003;-1.597156e-002
1.639266e+003;-1.279666e-002
1.641194e+003;-1.247034e-002
1.643123e+003;-1.369718e-002
1.645051e+003;-1.769650e-002
1.646980e+003;-1.864832e-002
1.648909e+003;-1.558517e-002
1.650837e+003;-2.015998e-002
1.652766e+003;-2.790311e-002
1.654694e+003;-2.125787e-002
1.656623e+003;-1.330927e-002
1.658551e+003;-1.194881e-002
1.660480e+003;-1.309383e-002
1.662408e+003;-1.444059e-002
1.664337e+003;-1.303280e-002
1.666266e+003;-1.245012e-002
1.668194e+003;-1.498891e-002
1.670123e+003;-1.525435e-002
1.672051e+003;-1.331952e-002
1.673980e+003;-1.465361e-002
1.675908e+003;-1.466658e-002
1.677837e+003;-1.167482e-002
1.679765e+003;-1.108670e-002
1.681694e+003;-1.340232e-002
1.683622e+003;-1.912466e-002
1.685551e+003;-1.674558e-002
1.687479e+003;-1.040291e-002
1.689408e+003;-8.617161e-003
1.691337e+003;-7.663809e-003
1.693265e+003;-9.676051e-003
1.695194e+003;-1.506493e-002
1.697122e+003;-1.437408e-002
1.699051e+003;-1.548427e-002
1.700979e+003;-1.472888e-002
1.702908e+003;-8.619337e-003
1.704836e+003;-7.406943e-003
1.706765e+003;-6.149211e-003
1.708693e+003;-4.601610e-003
1.710622e+003;-3.494072e-003
1.712551e+003;-3.475370e-003
1.714479e+003;-4.766323e-003
1.716408e+003;-7.042095e-003
1.718336e+003;-4.207063e-003
1.720265e+003;3.370718e-003
1.722193e+003;8.387983e-003
1.724122e+003;1.208767e-002
1.726050e+003;1.631053e-002
1.727979e+003;1.951557e-002
1.729908e+003;2.160395e-002
1.731836e+003;2.035497e-002
1.733765e+003;1.763869e-002
1.735693e+003;2.168366e-002
1.737622e+003;2.428480e-002
1.739550e+003;2.202437e-002
1.741479e+003;2.098035e-002
1.743407e+003;1.924924e-002
1.745336e+003;1.605785e-002
1.747265e+003;1.196486e-002
1.749193e+003;7.205362e-003
1.751122e+003;3.064152e-003
1.753050e+003;2.290089e-003
1.754979e+003;3.747419e-004
1.756907e+003;-2.256289e-003
1.758836e+003;-3.485757e-003
1.760764e+003;-5.481450e-003
1.762693e+003;-5.876673e-003
1.764621e+003;-5.047714e-003
1.766550e+003;-6.429969e-003
1.768479e+003;-7.550211e-003
1.770407e+003;-9.000649e-003
1.772336e+003;-1.061983e-002
1.774264e+003;-8.383675e-003
1.776193e+003;-6.226301e-003
1.778121e+003;-6.080471e-003
1.780050e+003;-6.534884e-003
1.781978e+003;-6.548396e-003
1.783907e+003;-7.031401e-003
1.785835e+003;-7.147611e-003
1.787764e+003;-6.700464e-003
1.789693e+003;-7.699812e-003
1.791621e+003;-9.738813e-003
1.793550e+003;-8.986401e-003
1.795478e+003;-7.077628e-003
1.797407e+003;-6.980865e-003
1.799335e+003;-7.392284e-003
1.801264e+003;-7.481368e-003
1.803192e+003;-6.940693e-003
1.805121e+003;-6.598526e-003
1.807049e+003;-6.530249e-003
1.808978e+003;-6.795560e-003
1.810907e+003;-6.848433e-003
1.812835e+003;-6.536222e-003
1.814764e+003;-6.300602e-003
1.816692e+003;-6.515365e-003
1.818621e+003;-6.517813e-003
1.820549e+003;-6.609752e-003
1.822478e+003;-7.063056e-003
1.824406e+003;-7.908907e-003
1.826335e+003;-7.507063e-003
1.828264e+003;-7.761526e-003
1.830192e+003;-8.495332e-003
1.832121e+003;-7.500289e-003
1.834049e+003;-6.816469e-003
1.835978e+003;-7.035248e-003
1.837906e+003;-7.140017e-003
1.839835e+003;-7.090472e-003
1.841763e+003;-8.524769e-003
1.843692e+003;-1.073136e-002
1.845620e+003;-9.758901e-003
1.847549e+003;-8.363687e-003
1.849478e+003;-8.000779e-003
1.851406e+003;-7.746066e-003
1.853335e+003;-7.776042e-003
1.855263e+003;-7.924622e-003
1.857192e+003;-8.253295e-003
1.859120e+003;-8.259244e-003
1.861049e+003;-8.130649e-003
1.862977e+003;-8.225628e-003
1.864906e+003;-8.566420e-003
1.866834e+003;-9.631429e-003
1.868763e+003;-1.058717e-002
1.870692e+003;-9.601095e-003
1.872620e+003;-8.470702e-003
1.874549e+003;-8.571227e-003
1.876477e+003;-8.616447e-003
1.878406e+003;-8.480353e-003
1.880334e+003;-8.573729e-003
1.882263e+003;-8.967025e-003
1.884191e+003;-9.057505e-003
1.886120e+003;-9.062730e-003
1.888048e+003;-9.536983e-003
1.889977e+003;-9.649804e-003
1.891906e+003;-9.208146e-003
1.893834e+003;-9.273537e-003
1.895763e+003;-9.223067e-003
1.897691e+003;-8.891524e-003
1.899620e+003;-8.818022e-003
1.901548e+003;-8.904508e-003
1.903477e+003;-8.959365e-003
1.905405e+003;-9.120454e-003
1.907334e+003;-9.243243e-003
1.909262e+003;-9.721155e-003
1.911191e+003;-9.886464e-003
1.913120e+003;-9.614609e-003
1.915048e+003;-9.972382e-003
1.916977e+003;-1.098026e-002
1.918905e+003;-1.072723e-002
1.920834e+003;-1.004566e-002
1.922762e+003;-1.008399e-002
1.924691e+003;-9.817732e-003
1.926619e+003;-9.544277e-003
1.928548e+003;-9.669506e-003
1.930477e+003;-9.955835e-003
1.932405e+003;-1.011341e-002
1.934334e+003;-1.007356e-002
1.936262e+003;-1.001150e-002
1.938191e+003;-1.008939e-002
1.940119e+003;-1.063166e-002
1.942048e+003;-1.110640e-002
1.943976e+003;-1.091429e-002
1.945905e+003;-1.060641e-002
1.947833e+003;-1.042478e-002
1.949762e+003;-1.034238e-002
1.951691e+003;-1.021317e-002
1.953619e+003;-1.036179e-002
1.955548e+003;-1.059609e-002
1.957476e+003;-1.049054e-002
1.959405e+003;-1.050949e-002
1.961333e+003;-1.084278e-002
1.963262e+003;-1.133504e-002
1.965190e+003;-1.149954e-002
1.967119e+003;-1.143858e-002
1.969047e+003;-1.138201e-002
1.970976e+003;-1.139976e-002
1.972905e+003;-1.136025e-002
1.974833e+003;-1.148276e-002
1.976762e+003;-1.168363e-002
1.978690e+003;-1.154094e-002
1.980619e+003;-1.180563e-002
1.982547e+003;-1.239487e-002
1.984476e+003;-1.264616e-002
1.986404e+003;-1.246687e-002
1.988333e+003;-1.229632e-002
1.990261e+003;-1.270419e-002
1.992190e+003;-1.310505e-002
1.994119e+003;-1.295170e-002
1.996047e+003;-1.309620e-002
1.997976e+003;-1.337000e-002
1.999904e+003;-1.348141e-002
2.001833e+003;-1.351970e-002
2.003761e+003;-1.350878e-002
2.005690e+003;-1.363316e-002
2.007618e+003;-1.366684e-002
2.009547e+003;-1.367602e-002
2.011476e+003;-1.387677e-002
2.013404e+003;-1.398719e-002
2.015333e+003;-1.404413e-002
2.017261e+003;-1.397346e-002
2.019190e+003;-1.413780e-002
2.021118e+003;-1.458024e-002
2.023047e+003;-1.471248e-002
2.024975e+003;-1.480677e-002
2.026904e+003;-1.476526e-002
2.028833e+003;-1.478954e-002
2.030761e+003;-1.504921e-002
2.032690e+003;-1.533154e-002
2.034618e+003;-1.535210e-002
2.036547e+003;-1.540075e-002
2.038475e+003;-1.558178e-002
2.040404e+003;-1.585085e-002
2.042332e+003;-1.585117e-002
2.044261e+003;-1.595652e-002
2.046189e+003;-1.624458e-002
2.048118e+003;-1.626893e-002
2.050047e+003;-1.643495e-002
2.051975e+003;-1.655824e-002
2.053904e+003;-1.638116e-002
2.055832e+003;-1.632561e-002
2.057761e+003;-1.654804e-002
2.059689e+003;-1.696353e-002
2.061618e+003;-1.705038e-002
2.063546e+003;-1.710645e-002
2.065475e+003;-1.728773e-002
2.067404e+003;-1.736627e-002
2.069332e+003;-1.730425e-002
2.071260e+003;-1.747113e-002
2.073189e+003;-1.762686e-002
2.075118e+003;-1.756774e-002
2.077046e+003;-1.746247e-002
2.078975e+003;-1.770092e-002
2.080903e+003;-1.808252e-002
2.082832e+003;-1.793387e-002
2.084760e+003;-1.766911e-002
2.086689e+003;-1.775226e-002
2.088617e+003;-1.792488e-002
2.090546e+003;-1.809885e-002
2.092475e+003;-1.807851e-002
2.094403e+003;-1.817525e-002
2.096332e+003;-1.827873e-002
2.098260e+003;-1.824401e-002
2.100189e+003;-1.834874e-002
2.102117e+003;-1.828410e-002
2.104046e+003;-1.800470e-002
2.105974e+003;-1.799603e-002
2.107903e+003;-1.838921e-002
2.109832e+003;-1.886215e-002
2.111760e+003;-1.909869e-002
2.113688e+003;-1.901367e-002
2.115617e+003;-1.867422e-002
2.117546e+003;-1.855296e-002
2.119474e+003;-1.858719e-002
2.121403e+003;-1.854433e-002
2.123331e+003;-1.845571e-002
2.125260e+003;-1.850251e-002
2.127188e+003;-1.879047e-002
2.129117e+003;-1.891512e-002
2.131045e+003;-1.880954e-002
2.132974e+003;-1.868791e-002
2.134903e+003;-1.890085e-002
2.136831e+003;-1.924611e-002
2.138760e+003;-1.940663e-002
2.140688e+003;-1.913268e-002
2.142617e+003;-1.874195e-002
2.144545e+003;-1.879749e-002
2.146474e+003;-1.919736e-002
2.148402e+003;-1.936848e-002
2.150331e+003;-1.934132e-002
2.152260e+003;-1.954216e-002
2.154188e+003;-1.946956e-002
2.156117e+003;-1.924155e-002
2.158045e+003;-1.915966e-002
2.159974e+003;-1.908208e-002
2.161902e+003;-1.921689e-002
2.163831e+003;-1.923977e-002
2.165759e+003;-1.920896e-002
2.167688e+003;-1.932370e-002
2.169616e+003;-1.926098e-002
2.171545e+003;-1.941069e-002
2.173474e+003;-1.947580e-002
2.175402e+003;-1.938318e-002
2.177331e+003;-1.934272e-002
2.179259e+003;-1.937967e-002
2.181188e+003;-1.943838e-002
2.183116e+003;-1.963126e-002
2.185045e+003;-1.965096e-002
2.186973e+003;-1.961948e-002
2.188902e+003;-1.964738e-002
2.190831e+003;-1.966777e-002
2.192759e+003;-1.994986e-002
2.194688e+003;-2.031478e-002
2.196616e+003;-2.023035e-002
2.198545e+003;-2.027779e-002
2.200473e+003;-2.038953e-002
2.202402e+003;-2.022362e-002
2.204330e+003;-2.007412e-002
2.206259e+003;-2.024888e-002
2.208188e+003;-2.026618e-002
2.210116e+003;-2.023364e-002
2.212044e+003;-2.047137e-002
2.213973e+003;-2.062474e-002
2.215902e+003;-2.053139e-002
2.217830e+003;-2.045348e-002
2.219759e+003;-2.038697e-002
2.221687e+003;-2.055522e-002
2.223616e+003;-2.092127e-002
2.225544e+003;-2.127279e-002
2.227473e+003;-2.110923e-002
2.229401e+003;-2.075942e-002
2.231330e+003;-2.079094e-002
2.233259e+003;-2.103913e-002
2.235187e+003;-2.105002e-002
2.237116e+003;-2.085420e-002
2.239044e+003;-2.075136e-002
2.240973e+003;-2.092547e-002
2.242901e+003;-2.109727e-002
2.244830e+003;-2.111204e-002
2.246758e+003;-2.102663e-002
2.248687e+003;-2.112410e-002
2.250615e+003;-2.123669e-002
2.252544e+003;-2.114903e-002
2.254473e+003;-2.114603e-002
2.256401e+003;-2.126313e-002
2.258330e+003;-2.148236e-002
2.260258e+003;-2.160920e-002
2.262187e+003;-2.151058e-002
2.264115e+003;-2.142997e-002
2.266044e+003;-2.127926e-002
2.267972e+003;-2.140105e-002
2.269901e+003;-2.160662e-002
2.271830e+003;-2.182305e-002
2.273758e+003;-2.178035e-002
2.275687e+003;-2.162834e-002
2.277615e+003;-2.175023e-002
2.279544e+003;-2.153625e-002
2.281472e+003;-2.134658e-002
2.283401e+003;-2.143284e-002
2.285329e+003;-2.145363e-002
2.287258e+003;-2.141701e-002
2.289187e+003;-2.166986e-002
2.291115e+003;-2.193695e-002
2.293043e+003;-2.205248e-002
2.294972e+003;-2.210063e-002
2.296901e+003;-2.221789e-002
2.298829e+003;-2.202448e-002
2.300758e+003;-2.181722e-002
2.302686e+003;-2.221172e-002
2.304615e+003;-2.272935e-002
2.306543e+003;-2.290147e-002
2.308472e+003;-2.302492e-002
2.310400e+003;-2.324467e-002
2.312329e+003;-2.352693e-002
2.314258e+003;-2.381196e-002
2.316186e+003;-2.436102e-002
2.318115e+003;-2.482093e-002
2.320043e+003;-2.507186e-002
2.321972e+003;-2.540123e-002
2.323900e+003;-2.588773e-002
2.325829e+003;-2.642566e-002
2.327757e+003;-2.696932e-002
2.329686e+003;-2.757362e-002
2.331615e+003;-2.791734e-002
2.333543e+003;-2.808646e-002
2.335472e+003;-2.808916e-002
2.337400e+003;-2.803570e-002
2.339329e+003;-2.808757e-002
2.341257e+003;-2.787884e-002
2.343186e+003;-2.712838e-002
2.345114e+003;-2.599591e-002
2.347043e+003;-2.479242e-002
2.348971e+003;-2.435626e-002
2.350900e+003;-2.500033e-002
2.352829e+003;-2.655098e-002
2.354757e+003;-2.805888e-002
2.356686e+003;-2.911466e-002
2.358614e+003;-2.991313e-002
2.360543e+003;-3.013317e-002
2.362471e+003;-2.994638e-002
2.364400e+003;-2.970930e-002
2.366328e+003;-2.933064e-002
2.368257e+003;-2.855389e-002
2.370186e+003;-2.758506e-002
2.372114e+003;-2.639904e-002
2.374042e+003;-2.524981e-002
2.375971e+003;-2.430177e-002
2.377900e+003;-2.388365e-002
2.379828e+003;-2.394421e-002
2.381757e+003;-2.366460e-002
2.383685e+003;-2.290968e-002
2.385614e+003;-2.251267e-002
2.387542e+003;-2.273007e-002
2.389471e+003;-2.278079e-002
2.391399e+003;-2.274230e-002
2.393328e+003;-2.282801e-002
2.395257e+003;-2.277353e-002
2.397185e+003;-2.253507e-002
2.399114e+003;-2.244217e-002
2.401042e+003;-2.257295e-002
2.402971e+003;-2.241429e-002
2.404899e+003;-2.240422e-002
2.406828e+003;-2.258034e-002
2.408756e+003;-2.270715e-002
2.410685e+003;-2.279519e-002
2.412614e+003;-2.286036e-002
2.414542e+003;-2.285024e-002
2.416471e+003;-2.270020e-002
2.418399e+003;-2.258383e-002
2.420328e+003;-2.267363e-002
2.422256e+003;-2.263491e-002
2.424185e+003;-2.258295e-002
2.426113e+003;-2.276903e-002
2.428042e+003;-2.285674e-002
2.429970e+003;-2.290952e-002
2.431899e+003;-2.274935e-002
2.433828e+003;-2.270463e-002
2.435756e+003;-2.252038e-002
2.437685e+003;-2.229835e-002
2.439613e+003;-2.236853e-002
2.441542e+003;-2.240258e-002
2.443470e+003;-2.240589e-002
2.445399e+003;-2.240214e-002
2.447327e+003;-2.224937e-002
2.449256e+003;-2.233224e-002
2.451185e+003;-2.247542e-002
2.453113e+003;-2.272973e-002
2.455042e+003;-2.264740e-002
2.456970e+003;-2.248470e-002
2.458899e+003;-2.246778e-002
2.460827e+003;-2.236390e-002
2.462756e+003;-2.248662e-002
2.464684e+003;-2.268897e-002
2.466613e+003;-2.268341e-002
2.468542e+003;-2.250475e-002
2.470470e+003;-2.232438e-002
2.472398e+003;-2.235201e-002
2.474327e+003;-2.247124e-002
2.476256e+003;-2.245746e-002
2.478184e+003;-2.257584e-002
2.480113e+003;-2.241312e-002
2.482041e+003;-2.213936e-002
2.483970e+003;-2.225925e-002
2.485898e+003;-2.248386e-002
2.487827e+003;-2.247171e-002
2.489755e+003;-2.266573e-002
2.491684e+003;-2.275356e-002
2.493613e+003;-2.259563e-002
2.495541e+003;-2.249012e-002
2.497470e+003;-2.233473e-002
2.499398e+003;-2.236110e-002
2.501327e+003;-2.262620e-002
2.503255e+003;-2.260267e-002
2.505184e+003;-2.249949e-002
2.507112e+003;-2.261176e-002
2.509041e+003;-2.263416e-002
2.510969e+003;-2.243147e-002
2.512898e+003;-2.228217e-002
2.514827e+003;-2.244843e-002
2.516755e+003;-2.284675e-002
2.518684e+003;-2.303897e-002
2.520612e+003;-2.275425e-002
2.522541e+003;-2.218080e-002
2.524469e+003;-2.200483e-002
2.526398e+003;-2.218036e-002
2.528326e+003;-2.219103e-002
2.530255e+003;-2.216235e-002
2.532184e+003;-2.249823e-002
2.534112e+003;-2.277824e-002
2.536041e+003;-2.260469e-002
2.537969e+003;-2.215536e-002
2.539898e+003;-2.214355e-002
2.541826e+003;-2.242923e-002
2.543755e+003;-2.236715e-002
2.545683e+003;-2.252746e-002
2.547612e+003;-2.263988e-002
2.549541e+003;-2.232170e-002
2.551469e+003;-2.212406e-002
2.553397e+003;-2.222623e-002
2.555326e+003;-2.249968e-002
2.557255e+003;-2.261840e-002
2.559183e+003;-2.250805e-002
2.561112e+003;-2.230030e-002
2.563040e+003;-2.226819e-002
2.564969e+003;-2.223215e-002
2.566897e+003;-2.197103e-002
2.568826e+003;-2.215158e-002
2.570754e+003;-2.234776e-002
2.572683e+003;-2.220863e-002
2.574612e+003;-2.226397e-002
2.576540e+003;-2.205497e-002
2.578469e+003;-2.195947e-002
2.580397e+003;-2.210973e-002
2.582326e+003;-2.207610e-002
2.584254e+003;-2.204061e-002
2.586183e+003;-2.196520e-002
2.588111e+003;-2.176006e-002
2.590040e+003;-2.168161e-002
2.591969e+003;-2.181388e-002
2.593897e+003;-2.202042e-002
2.595826e+003;-2.219874e-002
2.597754e+003;-2.196911e-002
2.599683e+003;-2.181344e-002
2.601611e+003;-2.189861e-002
2.603540e+003;-2.186972e-002
2.605468e+003;-2.177941e-002
2.607397e+003;-2.166752e-002
2.609325e+003;-2.164341e-002
2.611254e+003;-2.189880e-002
2.613183e+003;-2.218562e-002
2.615111e+003;-2.210007e-002
2.617040e+003;-2.199151e-002
2.618968e+003;-2.196678e-002
2.620897e+003;-2.195232e-002
2.622825e+003;-2.202089e-002
2.624754e+003;-2.185422e-002
2.626682e+003;-2.180711e-002
2.628611e+003;-2.208697e-002
2.630540e+003;-2.209352e-002
2.632468e+003;-2.210813e-002
2.634396e+003;-2.214717e-002
2.636325e+003;-2.195021e-002
2.638254e+003;-2.184479e-002
2.640182e+003;-2.184353e-002
2.642111e+003;-2.181521e-002
2.644039e+003;-2.174796e-002
2.645968e+003;-2.187756e-002
2.647896e+003;-2.216430e-002
2.649825e+003;-2.195390e-002
2.651753e+003;-2.167748e-002
2.653682e+003;-2.181363e-002
2.655611e+003;-2.210321e-002
2.657539e+003;-2.227571e-002
2.659468e+003;-2.218451e-002
2.661396e+003;-2.188982e-002
2.663325e+003;-2.179725e-002
2.665253e+003;-2.199091e-002
2.667182e+003;-2.220901e-002
2.669110e+003;-2.214336e-002
2.671039e+003;-2.190343e-002
2.672968e+003;-2.191250e-002
2.674896e+003;-2.230492e-002
2.676825e+003;-2.216203e-002
2.678753e+003;-2.152685e-002
2.680682e+003;-2.138326e-002
2.682610e+003;-2.172974e-002
2.684539e+003;-2.184492e-002
2.686467e+003;-2.165772e-002
2.688396e+003;-2.164316e-002
2.690324e+003;-2.172221e-002
2.692253e+003;-2.167345e-002
2.694182e+003;-2.175407e-002
2.696110e+003;-2.167925e-002
2.698039e+003;-2.148315e-002
2.699967e+003;-2.159297e-002
2.701896e+003;-2.155504e-002
2.703824e+003;-2.148841e-002
2.705753e+003;-2.148636e-002
2.707681e+003;-2.147690e-002
2.709610e+003;-2.157478e-002
2.711539e+003;-2.168650e-002
2.713467e+003;-2.155819e-002
2.715396e+003;-2.152449e-002
2.717324e+003;-2.162755e-002
2.719253e+003;-2.170437e-002
2.721181e+003;-2.141518e-002
2.723110e+003;-2.131424e-002
2.725038e+003;-2.185481e-002
2.726967e+003;-2.205944e-002
2.728896e+003;-2.169794e-002
2.730824e+003;-2.130932e-002
2.732752e+003;-2.111132e-002
2.734681e+003;-2.116289e-002
2.736610e+003;-2.129276e-002
2.738538e+003;-2.138739e-002
2.740467e+003;-2.150733e-002
2.742395e+003;-2.149122e-002
2.744324e+003;-2.140130e-002
2.746252e+003;-2.138774e-002
2.748181e+003;-2.132099e-002
2.750109e+003;-2.132396e-002
2.752038e+003;-2.129418e-002
2.753967e+003;-2.107925e-002
2.755895e+003;-2.089478e-002
2.757824e+003;-2.085373e-002
2.759752e+003;-2.106763e-002
2.761681e+003;-2.151742e-002
2.763609e+003;-2.131396e-002
2.765538e+003;-2.069810e-002
2.767466e+003;-2.043135e-002
2.769395e+003;-2.067368e-002
2.771323e+003;-2.099619e-002
2.773252e+003;-2.113934e-002
2.775181e+003;-2.099493e-002
2.777109e+003;-2.088509e-002
2.779038e+003;-2.085357e-002
2.780966e+003;-2.092487e-002
2.782895e+003;-2.095373e-002
2.784823e+003;-2.092601e-002
2.786752e+003;-2.066692e-002
2.788680e+003;-2.028035e-002
2.790609e+003;-2.037005e-002
2.792538e+003;-2.049270e-002
2.794466e+003;-2.032007e-002
2.796395e+003;-2.007836e-002
2.798323e+003;-2.023731e-002
2.800252e+003;-2.049034e-002
2.802180e+003;-2.043691e-002
2.804109e+003;-2.032127e-002
2.806037e+003;-2.015147e-002
2.807966e+003;-1.998091e-002
2.809895e+003;-1.999629e-002
2.811823e+003;-1.997097e-002
2.813751e+003;-1.989132e-002
2.815680e+003;-1.969703e-002
2.817609e+003;-1.958771e-002
2.819537e+003;-1.968991e-002
2.821466e+003;-1.989907e-002
2.823394e+003;-1.969690e-002
2.825323e+003;-1.949145e-002
2.827251e+003;-1.938524e-002
2.829180e+003;-1.922912e-002
2.831108e+003;-1.912216e-002
2.833037e+003;-1.933530e-002
2.834966e+003;-1.956396e-002
2.836894e+003;-1.963804e-002
2.838823e+003;-2.006023e-002
2.840751e+003;-2.081425e-002
2.842680e+003;-2.154615e-002
2.844608e+003;-2.289990e-002
2.846537e+003;-2.506664e-002
2.848465e+003;-2.700064e-002
2.850394e+003;-2.810587e-002
2.852323e+003;-2.809723e-002
2.854251e+003;-2.740987e-002
2.856180e+003;-2.595203e-002
2.858108e+003;-2.410228e-002
2.860037e+003;-2.267432e-002
2.861965e+003;-2.130106e-002
2.863894e+003;-1.984988e-002
2.865822e+003;-1.871133e-002
2.867751e+003;-1.824826e-002
2.869679e+003;-1.826917e-002
2.871608e+003;-1.812110e-002
2.873536e+003;-1.814042e-002
2.875465e+003;-1.815424e-002
2.877394e+003;-1.777895e-002
2.879322e+003;-1.729623e-002
2.881251e+003;-1.728448e-002
2.883179e+003;-1.763281e-002
2.885108e+003;-1.816152e-002
2.887036e+003;-1.844196e-002
2.888965e+003;-1.869571e-002
2.890893e+003;-1.908531e-002
2.892822e+003;-1.947893e-002
2.894750e+003;-1.991189e-002
2.896679e+003;-2.028737e-002
2.898608e+003;-2.057958e-002
2.900536e+003;-2.113376e-002
2.902465e+003;-2.146763e-002
2.904393e+003;-2.186436e-002
2.906322e+003;-2.257430e-002
2.908250e+003;-2.315625e-002
2.910179e+003;-2.367800e-002
2.912107e+003;-2.472917e-002
2.914036e+003;-2.630302e-002
2.915965e+003;-2.801262e-002
2.917893e+003;-2.932680e-002
2.919822e+003;-3.032735e-002
2.921750e+003;-3.094397e-002
2.923679e+003;-3.119457e-002
2.925607e+003;-3.058485e-002
2.927536e+003;-2.941533e-002
2.929464e+003;-2.825830e-002
2.931393e+003;-2.723012e-002
2.933322e+003;-2.600512e-002
2.935250e+003;-2.472184e-002
2.937178e+003;-2.343759e-002
2.939107e+003;-2.223268e-002
2.941036e+003;-2.123568e-002
2.942964e+003;-2.064411e-002
2.944893e+003;-2.037502e-002
2.946821e+003;-2.039645e-002
2.948750e+003;-2.048600e-002
2.950678e+003;-2.058534e-002
2.952607e+003;-2.083487e-002
2.954535e+003;-2.070748e-002
2.956464e+003;-2.046679e-002
2.958393e+003;-2.079865e-002
2.960321e+003;-2.120135e-002
2.962250e+003;-2.098783e-002
2.964178e+003;-2.026549e-002
2.966107e+003;-1.935748e-002
2.968035e+003;-1.844307e-002
2.969964e+003;-1.790570e-002
2.971892e+003;-1.770993e-002
2.973821e+003;-1.761875e-002
2.975750e+003;-1.768168e-002
2.977678e+003;-1.794049e-002
2.979607e+003;-1.801707e-002
2.981535e+003;-1.785565e-002
2.983464e+003;-1.805960e-002
2.985392e+003;-1.841811e-002
2.987321e+003;-1.846762e-002
2.989249e+003;-1.865791e-002
2.991178e+003;-1.888743e-002
2.993106e+003;-1.911147e-002
2.995035e+003;-1.937818e-002
2.996964e+003;-1.961989e-002
2.998892e+003;-1.989806e-002
3.000821e+003;-2.028073e-002
3.002749e+003;-2.038064e-002
3.004678e+003;-2.033764e-002
3.006606e+003;-2.046954e-002
3.008535e+003;-2.040009e-002
3.010463e+003;-2.043565e-002
3.012392e+003;-2.043183e-002
3.014321e+003;-2.003549e-002
3.016249e+003;-1.986634e-002
3.018177e+003;-1.994898e-002
3.020106e+003;-2.017997e-002
3.022035e+003;-2.059311e-002
3.023963e+003;-2.088856e-002
3.025892e+003;-2.105763e-002
3.027820e+003;-2.086636e-002
3.029749e+003;-2.099266e-002
3.031677e+003;-2.113701e-002
3.033606e+003;-2.097163e-002
3.035534e+003;-2.102268e-002
3.037463e+003;-2.105179e-002
3.039392e+003;-2.109797e-002
3.041320e+003;-2.120615e-002
3.043249e+003;-2.140515e-002
3.045177e+003;-2.144231e-002
3.047106e+003;-2.129049e-002
3.049034e+003;-2.118633e-002
3.050963e+003;-2.130336e-002
3.052891e+003;-2.177887e-002
3.054820e+003;-2.183348e-002
3.056749e+003;-2.140944e-002
3.058677e+003;-2.138847e-002
3.060606e+003;-2.177090e-002
3.062534e+003;-2.183106e-002
3.064463e+003;-2.166399e-002
3.066391e+003;-2.184650e-002
3.068320e+003;-2.194549e-002
3.070248e+003;-2.176693e-002
3.072177e+003;-2.175385e-002
3.074105e+003;-2.192844e-002
3.076034e+003;-2.205418e-002
3.077963e+003;-2.213011e-002
3.079891e+003;-2.213483e-002
3.081820e+003;-2.208618e-002
3.083748e+003;-2.200209e-002
3.085677e+003;-2.209364e-002
3.087605e+003;-2.224930e-002
3.089534e+003;-2.224666e-002
3.091462e+003;-2.210517e-002
3.093391e+003;-2.215067e-002
3.095320e+003;-2.217677e-002
3.097248e+003;-2.207938e-002
3.099177e+003;-2.217425e-002
3.101105e+003;-2.240717e-002
3.103034e+003;-2.206788e-002
3.104962e+003;-2.198700e-002
3.106891e+003;-2.224911e-002
3.108819e+003;-2.235113e-002
3.110748e+003;-2.229441e-002
3.112677e+003;-2.252604e-002
3.114605e+003;-2.280943e-002
3.116533e+003;-2.276978e-002
3.118462e+003;-2.262897e-002
3.120391e+003;-2.259654e-002
3.122319e+003;-2.251085e-002
3.124248e+003;-2.256615e-002
3.126176e+003;-2.287372e-002
3.128105e+003;-2.320946e-002
3.130033e+003;-2.334438e-002
3.131962e+003;-2.305439e-002
3.133890e+003;-2.278252e-002
3.135819e+003;-2.303337e-002
3.137748e+003;-2.333153e-002
3.139676e+003;-2.317808e-002
3.141605e+003;-2.299639e-002
3.143533e+003;-2.278576e-002
3.145462e+003;-2.238968e-002
3.147390e+003;-2.229907e-002
3.149319e+003;-2.295377e-002
3.151247e+003;-2.359842e-002
3.153176e+003;-2.335665e-002
3.155104e+003;-2.280981e-002
3.157033e+003;-2.295909e-002
3.158962e+003;-2.309169e-002
3.160890e+003;-2.299802e-002
3.162819e+003;-2.303312e-002
3.164747e+003;-2.292156e-002
3.166676e+003;-2.239912e-002
3.168604e+003;-2.214261e-002
3.170533e+003;-2.272089e-002
3.172461e+003;-2.318892e-002
3.174390e+003;-2.331624e-002
3.176319e+003;-2.346682e-002
3.178247e+003;-2.350160e-002
3.180176e+003;-2.336278e-002
3.182104e+003;-2.312669e-002
3.184033e+003;-2.299953e-002
3.185961e+003;-2.316929e-002
3.187890e+003;-2.343216e-002
3.189818e+003;-2.352354e-002
3.191747e+003;-2.338369e-002
3.193676e+003;-2.313944e-002
3.195604e+003;-2.303476e-002
3.197532e+003;-2.283565e-002
3.199461e+003;-2.323066e-002
3.201390e+003;-2.372770e-002
3.203318e+003;-2.396782e-002
3.205247e+003;-2.418765e-002
3.207175e+003;-2.414312e-002
3.209104e+003;-2.395126e-002
3.211032e+003;-2.402074e-002
3.212961e+003;-2.375819e-002
3.214889e+003;-2.349912e-002
3.216818e+003;-2.337421e-002
3.218747e+003;-2.329514e-002
3.220675e+003;-2.359271e-002
3.222604e+003;-2.373824e-002
3.224532e+003;-2.386066e-002
3.226461e+003;-2.400876e-002
3.228389e+003;-2.425468e-002
3.230318e+003;-2.432765e-002
3.232246e+003;-2.409156e-002
3.234175e+003;-2.382544e-002
3.236104e+003;-2.376613e-002
3.238032e+003;-2.377604e-002
3.239961e+003;-2.361126e-002
3.241889e+003;-2.365911e-002
3.243818e+003;-2.394853e-002
3.245746e+003;-2.430265e-002
3.247675e+003;-2.444882e-002
3.249603e+003;-2.426869e-002
3.251532e+003;-2.405055e-002
3.253460e+003;-2.403410e-002
3.255389e+003;-2.400481e-002
3.257318e+003;-2.412901e-002
3.259246e+003;-2.424563e-002
3.261175e+003;-2.450453e-002
3.263103e+003;-2.476663e-002
3.265032e+003;-2.463056e-002
3.266960e+003;-2.490933e-002
3.268889e+003;-2.508672e-002
3.270817e+003;-2.469083e-002
3.272746e+003;-2.484597e-002
3.274675e+003;-2.516011e-002
3.276603e+003;-2.491859e-002
3.278531e+003;-2.502560e-002
3.280460e+003;-2.516608e-002
3.282389e+003;-2.487366e-002
3.284317e+003;-2.495178e-002
3.286246e+003;-2.499770e-002
3.288174e+003;-2.487675e-002
3.290103e+003;-2.490564e-002
3.292031e+003;-2.504675e-002
3.293960e+003;-2.515574e-002
3.295888e+003;-2.515889e-002
3.297817e+003;-2.510780e-002
3.299746e+003;-2.517540e-002
3.301674e+003;-2.535984e-002
3.303603e+003;-2.534187e-002
3.305531e+003;-2.513428e-002
3.307460e+003;-2.525754e-002
3.309388e+003;-2.544229e-002
3.311317e+003;-2.547597e-002
3.313245e+003;-2.527679e-002
3.315174e+003;-2.546176e-002
3.317103e+003;-2.537466e-002
3.319031e+003;-2.485779e-002
3.320960e+003;-2.478494e-002
3.322888e+003;-2.474504e-002
3.324817e+003;-2.478313e-002
3.326745e+003;-2.496339e-002
3.328674e+003;-2.498347e-002
3.330602e+003;-2.497477e-002
3.332531e+003;-2.516921e-002
3.334459e+003;-2.539482e-002
3.336388e+003;-2.549825e-002
3.338317e+003;-2.540438e-002
3.340245e+003;-2.551184e-002
3.342174e+003;-2.569349e-002
3.344102e+003;-2.558854e-002
3.346031e+003;-2.548716e-002
3.347959e+003;-2.554661e-002
3.349888e+003;-2.545772e-002
3.351816e+003;-2.547978e-002
3.353745e+003;-2.564101e-002
3.355674e+003;-2.572543e-002
3.357602e+003;-2.529861e-002
3.359531e+003;-2.496977e-002
3.361459e+003;-2.494768e-002
3.363388e+003;-2.498216e-002
3.365316e+003;-2.522862e-002
3.367245e+003;-2.524581e-002
3.369173e+003;-2.516530e-002
3.371102e+003;-2.514201e-002
3.373031e+003;-2.545829e-002
3.374959e+003;-2.544907e-002
3.376887e+003;-2.496958e-002
3.378816e+003;-2.478375e-002
3.380745e+003;-2.469489e-002
3.382673e+003;-2.486271e-002
3.384602e+003;-2.500405e-002
3.386530e+003;-2.480003e-002
3.388459e+003;-2.466647e-002
3.390387e+003;-2.504884e-002
3.392316e+003;-2.531790e-002
3.394244e+003;-2.491446e-002
3.396173e+003;-2.508322e-002
3.398102e+003;-2.514048e-002
3.400030e+003;-2.481589e-002
3.401959e+003;-2.503536e-002
3.403887e+003;-2.533962e-002
3.405816e+003;-2.510164e-002
3.407744e+003;-2.454393e-002
3.409673e+003;-2.404008e-002
3.411601e+003;-2.439479e-002
3.413530e+003;-2.454267e-002
3.415458e+003;-2.454233e-002
3.417387e+003;-2.484337e-002
3.419316e+003;-2.470926e-002
3.421244e+003;-2.443125e-002
3.423173e+003;-2.459002e-002
3.425101e+003;-2.482209e-002
3.427030e+003;-2.454242e-002
3.428958e+003;-2.420683e-002
3.430887e+003;-2.418019e-002
3.432815e+003;-2.462655e-002
3.434744e+003;-2.475778e-002
3.436673e+003;-2.431152e-002
3.438601e+003;-2.405322e-002
3.440530e+003;-2.371374e-002
3.442458e+003;-2.358129e-002
3.444387e+003;-2.367103e-002
3.446315e+003;-2.317858e-002
3.448244e+003;-2.285816e-002
3.450172e+003;-2.328236e-002
3.452101e+003;-2.318339e-002
3.454030e+003;-2.271064e-002
3.455958e+003;-2.283757e-002
3.457886e+003;-2.315477e-002
3.459815e+003;-2.292706e-002
3.461744e+003;-2.287344e-002
3.463672e+003;-2.286111e-002
3.465601e+003;-2.319115e-002
3.467529e+003;-2.323368e-002
3.469458e+003;-2.293520e-002
3.471386e+003;-2.291175e-002
3.473315e+003;-2.281836e-002
3.475243e+003;-2.260453e-002
3.477172e+003;-2.286419e-002
3.479101e+003;-2.294975e-002
3.481029e+003;-2.241297e-002
3.482958e+003;-2.188011e-002
3.484886e+003;-2.200867e-002
3.486815e+003;-2.226712e-002
3.488743e+003;-2.210158e-002
3.490672e+003;-2.195084e-002
3.492600e+003;-2.207535e-002
3.494529e+003;-2.198039e-002
3.496458e+003;-2.192703e-002
3.498386e+003;-2.197339e-002
3.500315e+003;-2.203614e-002
3.502243e+003;-2.256250e-002
3.504172e+003;-2.262227e-002
3.506100e+003;-2.252891e-002
3.508029e+003;-2.280088e-002
3.509957e+003;-2.259103e-002
3.511886e+003;-2.213833e-002
3.513814e+003;-2.180226e-002
3.515743e+003;-2.193786e-002
3.517672e+003;-2.199377e-002
3.519600e+003;-2.175949e-002
3.521529e+003;-2.222805e-002
3.523457e+003;-2.304544e-002
3.525386e+003;-2.286303e-002
3.527314e+003;-2.199727e-002
3.529243e+003;-2.170141e-002
3.531171e+003;-2.201302e-002
3.533100e+003;-2.213099e-002
3.535029e+003;-2.181073e-002
3.536957e+003;-2.148176e-002
3.538885e+003;-2.162632e-002
3.540814e+003;-2.179375e-002
3.542743e+003;-2.217642e-002
3.544671e+003;-2.253951e-002
3.546600e+003;-2.252406e-002
3.548528e+003;-2.162985e-002
3.550457e+003;-2.132819e-002
3.552385e+003;-2.152483e-002
3.554314e+003;-2.177002e-002
3.556242e+003;-2.165428e-002
3.558171e+003;-2.148482e-002
3.560100e+003;-2.175480e-002
3.562028e+003;-2.209626e-002
3.563957e+003;-2.251654e-002
3.565885e+003;-2.341392e-002
3.567814e+003;-2.280544e-002
3.569742e+003;-2.128749e-002
3.571671e+003;-2.125272e-002
3.573599e+003;-2.178877e-002
3.575528e+003;-2.197280e-002
3.577457e+003;-2.180099e-002
3.579385e+003;-2.112735e-002
3.581314e+003;-2.105545e-002
3.583242e+003;-2.149305e-002
3.585171e+003;-2.260126e-002
3.587099e+003;-2.330205e-002
3.589028e+003;-2.201699e-002
3.590956e+003;-2.062448e-002
3.592885e+003;-2.116339e-002
3.594813e+003;-2.165930e-002
3.596742e+003;-2.111630e-002
3.598671e+003;-2.111299e-002
3.600599e+003;-2.156585e-002
3.602528e+003;-2.114654e-002
3.604456e+003;-2.090482e-002
3.606385e+003;-2.215092e-002
3.608313e+003;-2.379800e-002
3.610242e+003;-2.323471e-002
3.612170e+003;-2.265853e-002
3.614099e+003;-2.204404e-002
3.616028e+003;-2.193584e-002
3.617956e+003;-2.341816e-002
3.619885e+003;-2.321823e-002
3.621813e+003;-2.137304e-002
3.623742e+003;-2.114332e-002
3.625670e+003;-2.224474e-002
3.627599e+003;-2.603910e-002
3.629527e+003;-2.617383e-002
3.631456e+003;-2.232652e-002
3.633385e+003;-2.125733e-002
3.635313e+003;-2.091603e-002
3.637241e+003;-2.079495e-002
3.639170e+003;-2.104036e-002
3.641099e+003;-2.094356e-002
3.643027e+003;-2.090451e-002
3.644956e+003;-2.187822e-002
3.646884e+003;-2.517634e-002
3.648813e+003;-2.767249e-002
3.650741e+003;-2.528426e-002
3.652670e+003;-2.156469e-002
3.654598e+003;-2.234247e-002
3.656527e+003;-2.292329e-002
3.658456e+003;-2.103247e-002
3.660384e+003;-2.037119e-002
3.662313e+003;-2.004578e-002
3.664241e+003;-1.980636e-002
3.666170e+003;-2.078494e-002
3.668098e+003;-2.412980e-002
3.670027e+003;-2.676827e-002
3.671955e+003;-2.450200e-002
3.673884e+003;-2.614354e-002
3.675813e+003;-2.773413e-002
3.677741e+003;-2.353656e-002
3.679669e+003;-2.077565e-002
3.681598e+003;-1.963303e-002
3.683527e+003;-1.973715e-002
3.685455e+003;-2.136639e-002
3.687384e+003;-2.560484e-002
3.689312e+003;-2.607081e-002
3.691241e+003;-2.308330e-002
3.693169e+003;-2.094767e-002
3.695098e+003;-2.043685e-002
3.697026e+003;-1.987704e-002
3.698955e+003;-1.989027e-002
3.700884e+003;-2.141376e-002
3.702812e+003;-2.140291e-002
3.704741e+003;-2.039838e-002
3.706669e+003;-2.075117e-002
3.708598e+003;-2.289560e-002
3.710526e+003;-2.517059e-002
3.712455e+003;-2.467148e-002
3.714383e+003;-2.154858e-002
3.716312e+003;-2.039718e-002
3.718240e+003;-2.079331e-002
3.720169e+003;-2.166156e-002
3.722098e+003;-2.222831e-002
3.724026e+003;-2.235887e-002
3.725955e+003;-2.256423e-002
3.727883e+003;-2.168981e-002
3.729812e+003;-2.228157e-002
3.731740e+003;-2.452940e-002
3.733669e+003;-2.536528e-002
3.735597e+003;-2.605823e-002
3.737526e+003;-2.417446e-002
3.739455e+003;-2.228075e-002
3.741383e+003;-2.357768e-002
3.743312e+003;-3.043363e-002
3.745240e+003;-2.994660e-002
3.747169e+003;-2.645600e-002
3.749097e+003;-2.921278e-002
3.751026e+003;-2.998578e-002
3.752954e+003;-2.667411e-002
3.754883e+003;-2.265535e-002
3.756812e+003;-2.254001e-002
3.758740e+003;-2.307548e-002
3.760668e+003;-2.213987e-002
3.762597e+003;-2.108218e-002
3.764526e+003;-2.195301e-002
3.766454e+003;-2.235594e-002
3.768383e+003;-2.276073e-002
3.770311e+003;-2.213754e-002
3.772240e+003;-2.088929e-002
3.774168e+003;-2.062534e-002
3.776097e+003;-2.095594e-002
3.778025e+003;-2.184836e-002
3.779954e+003;-2.203239e-002
3.781883e+003;-2.117340e-002
3.783811e+003;-2.114348e-002
3.785740e+003;-2.116506e-002
3.787668e+003;-2.100443e-002
3.789597e+003;-2.078235e-002
3.791525e+003;-2.041122e-002
3.793454e+003;-2.046985e-002
3.795382e+003;-2.210684e-002
3.797311e+003;-2.305757e-002
3.799240e+003;-2.532703e-002
3.801168e+003;-2.731700e-002
3.803097e+003;-2.389707e-002
3.805025e+003;-2.300902e-002
3.806954e+003;-2.361920e-002
3.808882e+003;-2.112419e-002
3.810811e+003;-2.009250e-002
3.812739e+003;-2.120142e-002
3.814668e+003;-2.597001e-002
3.816596e+003;-2.674870e-002
3.818525e+003;-2.488570e-002
3.820454e+003;-2.617230e-002
3.822382e+003;-2.377626e-002
3.824311e+003;-2.160741e-002
3.826239e+003;-2.225280e-002
3.828168e+003;-2.187709e-002
3.830096e+003;-2.230322e-002
3.832025e+003;-2.300883e-002
3.833953e+003;-2.353635e-002
3.835882e+003;-2.632654e-002
3.837811e+003;-2.788689e-002
3.839739e+003;-2.510286e-002
3.841667e+003;-2.276098e-002
3.843596e+003;-2.159622e-002
3.845525e+003;-2.076870e-002
3.847453e+003;-2.087697e-002
3.849382e+003;-2.320434e-002
3.851310e+003;-2.948512e-002
3.853239e+003;-3.423429e-002
3.855167e+003;-2.871771e-002
3.857096e+003;-2.252045e-002
3.859024e+003;-2.149961e-002
3.860953e+003;-2.248883e-002
3.862882e+003;-2.325780e-002
3.864810e+003;-2.308079e-002
3.866739e+003;-2.269938e-002
3.868667e+003;-2.552709e-002
3.870596e+003;-2.547579e-002
3.872524e+003;-2.353986e-002
3.874453e+003;-2.315606e-002
3.876381e+003;-2.199081e-002
3.878310e+003;-2.251233e-002
3.880239e+003;-2.308984e-002
3.882167e+003;-2.273004e-002
3.884096e+003;-2.420307e-002
3.886024e+003;-2.359190e-002
3.887953e+003;-2.122060e-002
3.889881e+003;-2.233350e-002
3.891810e+003;-2.270435e-002
3.893738e+003;-2.111602e-002
3.895667e+003;-2.072988e-002
3.897595e+003;-2.207172e-002
3.899524e+003;-2.350480e-002
3.901453e+003;-2.390981e-002
3.903381e+003;-2.434156e-002
3.905310e+003;-2.323402e-002
3.907238e+003;-2.107972e-002
3.909167e+003;-2.034210e-002
3.911095e+003;-2.015093e-002
3.913024e+003;-2.043609e-002
3.914952e+003;-2.160479e-002
3.916881e+003;-2.218291e-002
3.918810e+003;-2.178218e-002
3.920738e+003;-2.143609e-002
3.922667e+003;-2.094417e-002
3.924595e+003;-2.100563e-002
3.926524e+003;-2.098287e-002
3.928452e+003;-2.098619e-002
3.930381e+003;-2.175559e-002
3.932309e+003;-2.221203e-002
3.934238e+003;-2.116008e-002
3.936167e+003;-2.044352e-002
3.938095e+003;-2.065507e-002
3.940023e+003;-2.079356e-002
3.941952e+003;-2.094618e-002
3.943881e+003;-2.094372e-002
3.945809e+003;-2.093390e-002
3.947738e+003;-2.122332e-002
3.949666e+003;-2.116995e-002
3.951595e+003;-2.081157e-002
3.953523e+003;-2.076662e-002
3.955452e+003;-2.069074e-002
3.957380e+003;-2.059014e-002
3.959309e+003;-2.045316e-002
3.961238e+003;-2.047102e-002
3.963166e+003;-2.033875e-002
3.965095e+003;-1.995648e-002
3.967023e+003;-1.982671e-002
3.968952e+003;-2.006150e-002
3.970880e+003;-2.028256e-002
3.972809e+003;-2.007336e-002
3.974737e+003;-1.996366e-002
3.976666e+003;-2.022703e-002
3.978594e+003;-2.021058e-002
3.980523e+003;-2.009130e-002
3.982452e+003;-1.999635e-002
3.984380e+003;-2.012686e-002
3.986309e+003;-2.015833e-002
3.988237e+003;-2.018715e-002
3.990166e+003;-2.033078e-002
3.992094e+003;-1.997784e-002
3.994023e+003;-1.998695e-002
3.995951e+003;-2.040622e-002
3.997880e+003;-2.018664e-002
3.999809e+003;-2.011626e-002
4.001737e+003;0.000000e+000
