3.992094e+002;0.000000e+000
4.011380e+002;0.000000e+000
4.030665e+002;0.000000e+000
4.049951e+002;0.000000e+000
4.069236e+002;0.000000e+000
4.088522e+002;0.000000e+000
4.107807e+002;0.000000e+000
4.127093e+002;0.000000e+000
4.146378e+002;0.000000e+000
4.165664e+002;0.000000e+000
4.184949e+002;0.000000e+000
4.204235e+002;0.000000e+000
4.223520e+002;0.000000e+000
4.242806e+002;0.000000e+000
4.262091e+002;0.000000e+000
4.281377e+002;0.000000e+000
4.300662e+002;0.000000e+000
4.319948e+002;0.000000e+000
4.339233e+002;0.000000e+000
4.358519e+002;0.000000e+000
4.377804e+002;0.000000e+000
4.397090e+002;0.000000e+000
4.416375e+002;0.000000e+000
4.435660e+002;0.000000e+000
4.454946e+002;0.000000e+000
4.474232e+002;0.000000e+000
4.493517e+002;0.000000e+000
4.512802e+002;0.000000e+000
4.532088e+002;0.000000e+000
4.551373e+002;0.000000e+000
4.570659e+002;0.000000e+000
4.589944e+002;0.000000e+000
4.609230e+002;0.000000e+000
4.628515e+002;0.000000e+000
4.647801e+002;0.000000e+000
4.667086e+002;0.000000e+000
4.686372e+002;0.000000e+000
4.705657e+002;0.000000e+000
4.724943e+002;0.000000e+000
4.744228e+002;0.000000e+000
4.763513e+002;0.000000e+000
4.782799e+002;0.000000e+000
4.802085e+002;0.000000e+000
4.821370e+002;0.000000e+000
4.840656e+002;0.000000e+000
4.859941e+002;0.000000e+000
4.879226e+002;0.000000e+000
4.898512e+002;0.000000e+000
4.917798e+002;0.000000e+000
4.937083e+002;0.000000e+000
4.956368e+002;0.000000e+000
4.975654e+002;0.000000e+000
4.994939e+002;0.000000e+000
5.014225e+002;0.000000e+000
5.033510e+002;0.000000e+000
5.052796e+002;0.000000e+000
5.072081e+002;0.000000e+000
5.091367e+002;0.000000e+000
5.110652e+002;0.000000e+000
5.129938e+002;0.000000e+000
5.149223e+002;0.000000e+000
5.168509e+002;0.000000e+000
5.187794e+002;0.000000e+000
5.207079e+002;0.000000e+000
5.226365e+002;0.000000e+000
5.245651e+002;0.000000e+000
5.264936e+002;0.000000e+000
5.284222e+002;0.000000e+000
5.303507e+002;0.000000e+000
5.322792e+002;0.000000e+000
5.342078e+002;0.000000e+000
5.361364e+002;0.000000e+000
5.380649e+002;0.000000e+000
5.399935e+002;0.000000e+000
5.419220e+002;0.000000e+000
5.438505e+002;0.000000e+000
5.457791e+002;0.000000e+000
5.477076e+002;0.000000e+000
5.496362e+002;0.000000e+000
5.515648e+002;0.000000e+000
5.534933e+002;0.000000e+000
5.554218e+002;0.000000e+000
5.573504e+002;0.000000e+000
5.592789e+002;0.000000e+000
5.612075e+002;0.000000e+000
5.631360e+002;0.000000e+000
5.650646e+002;0.000000e+000
5.669931e+002;0.000000e+000
5.689217e+002;0.000000e+000
5.708502e+002;0.000000e+000
5.727787e+002;0.000000e+000
5.747073e+002;0.000000e+000
5.766359e+002;0.000000e+000
5.785644e+002;0.000000e+000
5.804930e+002;0.000000e+000
5.824215e+002;0.000000e+000
5.843500e+002;0.000000e+000
5.862786e+002;0.000000e+000
5.882072e+002;0.000000e+000
5.901357e+002;0.000000e+000
5.920643e+002;0.000000e+000
5.939928e+002;0.000000e+000
5.959213e+002;0.000000e+000
5.978499e+002;0.000000e+000
5.997784e+002;6.470621e-002
6.017070e+002;6.978884e-002
6.036355e+002;6.224202e-002
6.055641e+002;5.782646e-002
6.074926e+002;5.764128e-002
6.094211e+002;6.012708e-002
6.113497e+002;6.321612e-002
6.132783e+002;6.387237e-002
6.152068e+002;6.626766e-002
6.171354e+002;6.642929e-002
6.190639e+002;6.837028e-002
6.209924e+002;7.128959e-002
6.229210e+002;6.758892e-002
6.248495e+002;6.424604e-002
6.267781e+002;6.845367e-002
6.287067e+002;7.214481e-002
6.306352e+002;7.451792e-002
6.325637e+002;7.074799e-002
6.344923e+002;6.695633e-002
6.364208e+002;6.880887e-002
6.383494e+002;7.213448e-002
6.402780e+002;7.123899e-002
6.422065e+002;7.221633e-002
6.441350e+002;7.176151e-002
6.460636e+002;7.048067e-002
6.479921e+002;7.123771e-002
6.499207e+002;7.322678e-002
6.518492e+002;7.343285e-002
6.537778e+002;7.339365e-002
6.557063e+002;7.469324e-002
6.576349e+002;7.623357e-002
6.595634e+002;7.787586e-002
6.614919e+002;8.078679e-002
6.634205e+002;7.918242e-002
6.653491e+002;7.481296e-002
6.672776e+002;7.354069e-002
6.692062e+002;7.617224e-002
6.711347e+002;7.902528e-002
6.730632e+002;8.015148e-002
6.749918e+002;8.002339e-002
6.769203e+002;8.018935e-002
6.788489e+002;8.080671e-002
6.807775e+002;8.196833e-002
6.827060e+002;8.132725e-002
6.846345e+002;8.065823e-002
6.865631e+002;8.086132e-002
6.884916e+002;8.315312e-002
6.904202e+002;8.469211e-002
6.923488e+002;8.453360e-002
6.942773e+002;8.452640e-002
6.962058e+002;8.401697e-002
6.981344e+002;8.412249e-002
7.000629e+002;8.418921e-002
7.019915e+002;8.270679e-002
7.039200e+002;8.211986e-002
7.058486e+002;8.346084e-002
7.077771e+002;8.433628e-002
7.097057e+002;8.517133e-002
7.116342e+002;8.590577e-002
7.135627e+002;8.583414e-002
7.154913e+002;8.682611e-002
7.174199e+002;8.734087e-002
7.193484e+002;8.695275e-002
7.212770e+002;8.627259e-002
7.232055e+002;8.568805e-002
7.251340e+002;8.625767e-002
7.270626e+002;8.621407e-002
7.289911e+002;8.551481e-002
7.309197e+002;8.581371e-002
7.328483e+002;8.754114e-002
7.347768e+002;8.850402e-002
7.367053e+002;8.947838e-002
7.386339e+002;9.063512e-002
7.405624e+002;9.175742e-002
7.424910e+002;9.166718e-002
7.444196e+002;9.053450e-002
7.463481e+002;9.019046e-002
7.482766e+002;9.083153e-002
7.502052e+002;9.093139e-002
7.521337e+002;9.151331e-002
7.540623e+002;9.197399e-002
7.559908e+002;9.154665e-002
7.579194e+002;9.162491e-002
7.598479e+002;9.171040e-002
7.617765e+002;9.165834e-002
7.637050e+002;9.239146e-002
7.656335e+002;9.262734e-002
7.675621e+002;9.196822e-002
7.694907e+002;9.202067e-002
7.714192e+002;9.215621e-002
7.733478e+002;9.139936e-002
7.752763e+002;9.107881e-002
7.772048e+002;9.099995e-002
7.791334e+002;9.019090e-002
7.810620e+002;9.047488e-002
7.829905e+002;9.017015e-002
7.849191e+002;8.921231e-002
7.868476e+002;8.933032e-002
7.887761e+002;9.030401e-002
7.907047e+002;9.090207e-002
7.926332e+002;9.045093e-002
7.945618e+002;8.906239e-002
7.964903e+002;8.728257e-002
7.984189e+002;8.548613e-002
8.003474e+002;8.460583e-002
8.022759e+002;8.396820e-002
8.042045e+002;8.353437e-002
8.061331e+002;8.435480e-002
8.080616e+002;8.544930e-002
8.099902e+002;8.539605e-002
8.119187e+002;8.559971e-002
8.138472e+002;8.639353e-002
8.157758e+002;8.769374e-002
8.177043e+002;8.878759e-002
8.196329e+002;8.962950e-002
8.215615e+002;9.134043e-002
8.234900e+002;9.365432e-002
8.254185e+002;9.621612e-002
8.273471e+002;9.844580e-002
8.292756e+002;1.010065e-001
8.312042e+002;1.035364e-001
8.331328e+002;1.062665e-001
8.350613e+002;1.091693e-001
8.369898e+002;1.118298e-001
8.389184e+002;1.155551e-001
8.408469e+002;1.196904e-001
8.427755e+002;1.228867e-001
8.447040e+002;1.262176e-001
8.466326e+002;1.297503e-001
8.485611e+002;1.335704e-001
8.504897e+002;1.378271e-001
8.524182e+002;1.425548e-001
8.543467e+002;1.479595e-001
8.562753e+002;1.529438e-001
8.582039e+002;1.568932e-001
8.601324e+002;1.609707e-001
8.620610e+002;1.653466e-001
8.639895e+002;1.697381e-001
8.659180e+002;1.738414e-001
8.678466e+002;1.774977e-001
8.697751e+002;1.816246e-001
8.717037e+002;1.852029e-001
8.736323e+002;1.881413e-001
8.755608e+002;1.907346e-001
8.774893e+002;1.934225e-001
8.794179e+002;1.965558e-001
8.813464e+002;2.000401e-001
8.832750e+002;2.038902e-001
8.852036e+002;2.068242e-001
8.871321e+002;2.086062e-001
8.890606e+002;2.103341e-001
8.909892e+002;2.123708e-001
8.929177e+002;2.136506e-001
8.948463e+002;2.148731e-001
8.967748e+002;2.163239e-001
8.987034e+002;2.181688e-001
9.006319e+002;2.201109e-001
9.025605e+002;2.211179e-001
9.044890e+002;2.217765e-001
9.064175e+002;2.225726e-001
9.083461e+002;2.231789e-001
9.102747e+002;2.235651e-001
9.122032e+002;2.239244e-001
9.141318e+002;2.247529e-001
9.160603e+002;2.255646e-001
9.179888e+002;2.259055e-001
9.199174e+002;2.261674e-001
9.218459e+002;2.260038e-001
9.237745e+002;2.261938e-001
9.257031e+002;2.263843e-001
9.276316e+002;2.262859e-001
9.295601e+002;2.266484e-001
9.314887e+002;2.268504e-001
9.334172e+002;2.263035e-001
9.353458e+002;2.258160e-001
9.372744e+002;2.252665e-001
9.392029e+002;2.247923e-001
9.411314e+002;2.243966e-001
9.430600e+002;2.238545e-001
9.449885e+002;2.230246e-001
9.469171e+002;2.222899e-001
9.488456e+002;2.212971e-001
9.507742e+002;2.201284e-001
9.527027e+002;2.195923e-001
9.546313e+002;2.188764e-001
9.565598e+002;2.179159e-001
9.584883e+002;2.168111e-001
9.604169e+002;2.156965e-001
9.623455e+002;2.146666e-001
9.642740e+002;2.135970e-001
9.662026e+002;2.124626e-001
9.681311e+002;2.114590e-001
9.700596e+002;2.107046e-001
9.719882e+002;2.099073e-001
9.739167e+002;2.091000e-001
9.758453e+002;2.078842e-001
9.777739e+002;2.067966e-001
9.797024e+002;2.058270e-001
9.816309e+002;2.045442e-001
9.835595e+002;2.028632e-001
9.854880e+002;2.013931e-001
9.874166e+002;1.993798e-001
9.893452e+002;1.977815e-001
9.912737e+002;1.966429e-001
9.932022e+002;1.956493e-001
9.951307e+002;1.946899e-001
9.970593e+002;1.933088e-001
9.989879e+002;1.918239e-001
1.000916e+003;1.901065e-001
1.002845e+003;1.883547e-001
1.004773e+003;1.870166e-001
1.006702e+003;1.855121e-001
1.008631e+003;1.838637e-001
1.010559e+003;1.823638e-001
1.012488e+003;1.803340e-001
1.014416e+003;1.782863e-001
1.016345e+003;1.769804e-001
1.018273e+003;1.753375e-001
1.020202e+003;1.731444e-001
1.022130e+003;1.712067e-001
1.024059e+003;1.690416e-001
1.025988e+003;1.671145e-001
1.027916e+003;1.650424e-001
1.029845e+003;1.630685e-001
1.031773e+003;1.615577e-001
1.033702e+003;1.594884e-001
1.035630e+003;1.565367e-001
1.037559e+003;1.542997e-001
1.039487e+003;1.526997e-001
1.041416e+003;1.510113e-001
1.043344e+003;1.490800e-001
1.045273e+003;1.473200e-001
1.047202e+003;1.455921e-001
1.049130e+003;1.437767e-001
1.051059e+003;1.419292e-001
1.052987e+003;1.399982e-001
1.054916e+003;1.374246e-001
1.056844e+003;1.349986e-001
1.058773e+003;1.331027e-001
1.060701e+003;1.314746e-001
1.062630e+003;1.300098e-001
1.064558e+003;1.280499e-001
1.066487e+003;1.265141e-001
1.068416e+003;1.251004e-001
1.070344e+003;1.232535e-001
1.072273e+003;1.210610e-001
1.074201e+003;1.190094e-001
1.076130e+003;1.172266e-001
1.078058e+003;1.152750e-001
1.079987e+003;1.139479e-001
1.081915e+003;1.126949e-001
1.083844e+003;1.113660e-001
1.085773e+003;1.101959e-001
1.087701e+003;1.084729e-001
1.089630e+003;1.062799e-001
1.091558e+003;1.041889e-001
1.093487e+003;1.029361e-001
1.095415e+003;1.017331e-001
1.097344e+003;1.005151e-001
1.099272e+003;9.987330e-002
1.101201e+003;9.850798e-002
1.103129e+003;9.679261e-002
1.105058e+003;9.518212e-002
1.106987e+003;9.319842e-002
1.108915e+003;9.154513e-002
1.110844e+003;9.060920e-002
1.112772e+003;8.981294e-002
1.114701e+003;8.868602e-002
1.116629e+003;8.730011e-002
1.118558e+003;8.587528e-002
1.120486e+003;8.475631e-002
1.122415e+003;8.388737e-002
1.124344e+003;8.318486e-002
1.126272e+003;8.229323e-002
1.128201e+003;8.134559e-002
1.130129e+003;8.031706e-002
1.132058e+003;7.915419e-002
1.133986e+003;7.787376e-002
1.135915e+003;7.666744e-002
1.137843e+003;7.568561e-002
1.139772e+003;7.464433e-002
1.141700e+003;7.352573e-002
1.143629e+003;7.254979e-002
1.145557e+003;7.092444e-002
1.147486e+003;6.879388e-002
1.149415e+003;6.712692e-002
1.151343e+003;6.545042e-002
1.153272e+003;6.406249e-002
1.155200e+003;6.292333e-002
1.157129e+003;6.141083e-002
1.159057e+003;6.010284e-002
1.160986e+003;5.898445e-002
1.162914e+003;5.765646e-002
1.164843e+003;5.665924e-002
1.166771e+003;5.582076e-002
1.168700e+003;5.492685e-002
1.170629e+003;5.380429e-002
1.172557e+003;5.276764e-002
1.174486e+003;5.252725e-002
1.176414e+003;5.243425e-002
1.178343e+003;5.146237e-002
1.180271e+003;5.036774e-002
1.182200e+003;4.968096e-002
1.184128e+003;4.880712e-002
1.186057e+003;4.754599e-002
1.187986e+003;4.623190e-002
1.189914e+003;4.501059e-002
1.191843e+003;4.366600e-002
1.193771e+003;4.267312e-002
1.195700e+003;4.168310e-002
1.197628e+003;3.997862e-002
1.199557e+003;3.811745e-002
1.201485e+003;3.693531e-002
1.203414e+003;3.599390e-002
1.205343e+003;3.518008e-002
1.207271e+003;3.442324e-002
1.209200e+003;3.357670e-002
1.211128e+003;3.298327e-002
1.213057e+003;3.252324e-002
1.214985e+003;3.219091e-002
1.216914e+003;3.232692e-002
1.218842e+003;3.246661e-002
1.220771e+003;3.269480e-002
1.222699e+003;3.308934e-002
1.224628e+003;3.387840e-002
1.226557e+003;3.417242e-002
1.228485e+003;3.456175e-002
1.230414e+003;3.516708e-002
1.232342e+003;3.559844e-002
1.234271e+003;3.575142e-002
1.236199e+003;3.543825e-002
1.238128e+003;3.474706e-002
1.240056e+003;3.428531e-002
1.241985e+003;3.360495e-002
1.243913e+003;3.282432e-002
1.245842e+003;3.203318e-002
1.247771e+003;3.049861e-002
1.249699e+003;2.877500e-002
1.251628e+003;2.728592e-002
1.253556e+003;2.531977e-002
1.255485e+003;2.298395e-002
1.257413e+003;2.026546e-002
1.259342e+003;1.763089e-002
1.261270e+003;1.549775e-002
1.263199e+003;1.386005e-002
1.265127e+003;1.290401e-002
1.267056e+003;1.210674e-002
1.268985e+003;1.102641e-002
1.270913e+003;9.860659e-003
1.272842e+003;8.785995e-003
1.274770e+003;7.950951e-003
1.276699e+003;7.221465e-003
1.278627e+003;6.557782e-003
1.280556e+003;5.904684e-003
1.282484e+003;5.060474e-003
1.284413e+003;4.362730e-003
1.286342e+003;3.619294e-003
1.288270e+003;2.920524e-003
1.290199e+003;2.340822e-003
1.292127e+003;2.066808e-003
1.294056e+003;1.912127e-003
1.295984e+003;1.543073e-003
1.297913e+003;8.814973e-004
1.299841e+003;3.312347e-004
1.301770e+003;2.587846e-005
1.303698e+003;-4.626360e-004
1.305627e+003;-1.024091e-003
1.307556e+003;-1.384649e-003
1.309484e+003;-1.685831e-003
1.311413e+003;-2.120727e-003
1.313341e+003;-2.448582e-003
1.315270e+003;-2.719986e-003
1.317198e+003;-3.100589e-003
1.319127e+003;-3.217527e-003
1.321055e+003;-3.216310e-003
1.322984e+003;-3.635811e-003
1.324912e+003;-4.197317e-003
1.326841e+003;-4.392557e-003
1.328770e+003;-4.370678e-003
1.330698e+003;-4.444740e-003
1.332627e+003;-4.391442e-003
1.334555e+003;-4.755115e-003
1.336484e+003;-5.557579e-003
1.338412e+003;-6.159697e-003
1.340341e+003;-5.883406e-003
1.342269e+003;-5.052004e-003
1.344198e+003;-4.805550e-003
1.346126e+003;-4.658816e-003
1.348055e+003;-4.467073e-003
1.349984e+003;-4.067611e-003
1.351912e+003;-3.771263e-003
1.353841e+003;-3.557635e-003
1.355769e+003;-3.123683e-003
1.357698e+003;-2.523564e-003
1.359626e+003;-2.273660e-003
1.361555e+003;-2.329295e-003
1.363483e+003;-1.540383e-003
1.365412e+003;-7.024360e-006
1.367341e+003;7.393524e-004
1.369269e+003;1.228823e-003
1.371198e+003;1.589861e-003
1.373126e+003;9.772275e-004
1.375055e+003;1.788612e-004
1.376983e+003;-2.476726e-004
1.378912e+003;-1.061113e-003
1.380840e+003;-2.146478e-003
1.382769e+003;-3.119407e-003
1.384698e+003;-4.258710e-003
1.386626e+003;-6.143657e-003
1.388555e+003;-6.051294e-003
1.390483e+003;-5.161837e-003
1.392412e+003;-6.262457e-003
1.394340e+003;-8.092697e-003
1.396269e+003;-8.019613e-003
1.398197e+003;-8.010668e-003
1.400126e+003;-7.587136e-003
1.402054e+003;-7.002841e-003
1.403983e+003;-7.795016e-003
1.405911e+003;-8.072890e-003
1.407840e+003;-7.942873e-003
1.409769e+003;-8.158094e-003
1.411697e+003;-8.260317e-003
1.413626e+003;-8.361704e-003
1.415554e+003;-8.963292e-003
1.417483e+003;-1.153897e-002
1.419411e+003;-1.304216e-002
1.421340e+003;-1.022126e-002
1.423268e+003;-8.573826e-003
1.425197e+003;-8.022866e-003
1.427125e+003;-7.891728e-003
1.429054e+003;-8.548778e-003
1.430983e+003;-8.353773e-003
1.432911e+003;-8.235415e-003
1.434840e+003;-1.103993e-002
1.436768e+003;-1.330738e-002
1.438697e+003;-1.034380e-002
1.440625e+003;-8.562845e-003
1.442554e+003;-8.843834e-003
1.444482e+003;-9.768750e-003
1.446411e+003;-1.125611e-002
1.448340e+003;-1.172194e-002
1.450268e+003;-1.092527e-002
1.452197e+003;-1.147524e-002
1.454125e+003;-1.482217e-002
1.456054e+003;-2.137550e-002
1.457982e+003;-2.091780e-002
1.459911e+003;-1.559198e-002
1.461839e+003;-1.433154e-002
1.463768e+003;-1.693227e-002
1.465697e+003;-1.753369e-002
1.467625e+003;-1.592627e-002
1.469554e+003;-1.643588e-002
1.471482e+003;-1.907123e-002
1.473411e+003;-1.886059e-002
1.475339e+003;-1.592739e-002
1.477268e+003;-1.391901e-002
1.479196e+003;-1.278138e-002
1.481125e+003;-1.293678e-002
1.483053e+003;-1.277835e-002
1.484982e+003;-1.343981e-002
1.486911e+003;-1.507287e-002
1.488839e+003;-1.651260e-002
1.490768e+003;-1.606455e-002
1.492696e+003;-1.439001e-002
1.494625e+003;-1.638528e-002
1.496553e+003;-1.854868e-002
1.498482e+003;-1.677609e-002
1.500410e+003;-1.459325e-002
1.502339e+003;-1.420530e-002
1.504267e+003;-1.960497e-002
1.506196e+003;-2.564461e-002
1.508125e+003;-2.181237e-002
1.510053e+003;-1.620085e-002
1.511982e+003;-1.532447e-002
1.513910e+003;-1.580146e-002
1.515839e+003;-1.772080e-002
1.517767e+003;-1.924516e-002
1.519696e+003;-2.262079e-002
1.521624e+003;-2.460019e-002
1.523553e+003;-2.133973e-002
1.525481e+003;-2.005444e-002
1.527410e+003;-1.890780e-002
1.529339e+003;-1.755008e-002
1.531267e+003;-1.842131e-002
1.533196e+003;-2.048313e-002
1.535124e+003;-1.923179e-002
1.537053e+003;-2.163468e-002
1.538981e+003;-2.932035e-002
1.540910e+003;-2.930496e-002
1.542838e+003;-2.387550e-002
1.544767e+003;-2.047488e-002
1.546695e+003;-1.807896e-002
1.548624e+003;-1.795330e-002
1.550553e+003;-1.836520e-002
1.552481e+003;-1.962746e-002
1.554410e+003;-2.163266e-002
1.556338e+003;-2.518378e-002
1.558267e+003;-3.259191e-002
1.560195e+003;-2.962407e-002
1.562124e+003;-2.066711e-002
1.564052e+003;-1.825779e-002
1.565981e+003;-1.814906e-002
1.567910e+003;-1.917108e-002
1.569838e+003;-2.006473e-002
1.571767e+003;-1.827209e-002
1.573695e+003;-1.991110e-002
1.575624e+003;-2.422137e-002
1.577552e+003;-2.120782e-002
1.579481e+003;-1.694486e-002
1.581409e+003;-1.655860e-002
1.583338e+003;-1.665258e-002
1.585266e+003;-1.699887e-002
1.587195e+003;-1.751921e-002
1.589124e+003;-1.812202e-002
1.591052e+003;-1.830649e-002
1.592981e+003;-1.854322e-002
1.594909e+003;-1.858138e-002
1.596838e+003;-1.830694e-002
1.598766e+003;-1.808480e-002
1.600695e+003;-1.826469e-002
1.602623e+003;-1.835443e-002
1.604552e+003;-1.823282e-002
1.606480e+003;-1.832768e-002
1.608409e+003;-1.860896e-002
1.610338e+003;-1.846635e-002
1.612266e+003;-1.835716e-002
1.614195e+003;-2.087495e-002
1.616123e+003;-2.543841e-002
1.618052e+003;-2.343565e-002
1.619980e+003;-2.005606e-002
1.621909e+003;-2.129443e-002
1.623837e+003;-2.198146e-002
1.625766e+003;-2.085032e-002
1.627694e+003;-2.068799e-002
1.629623e+003;-2.022861e-002
1.631552e+003;-2.014033e-002
1.633480e+003;-2.386160e-002
1.635409e+003;-2.768396e-002
1.637337e+003;-2.448302e-002
1.639266e+003;-2.109061e-002
1.641194e+003;-2.076971e-002
1.643123e+003;-2.228289e-002
1.645051e+003;-2.638073e-002
1.646980e+003;-2.731380e-002
1.648909e+003;-2.428655e-002
1.650837e+003;-2.924202e-002
1.652766e+003;-3.730918e-002
1.654694e+003;-3.028665e-002
1.656623e+003;-2.208703e-002
1.658551e+003;-2.072830e-002
1.660480e+003;-2.195349e-002
1.662408e+003;-2.348292e-002
1.664337e+003;-2.201925e-002
1.666266e+003;-2.141140e-002
1.668194e+003;-2.421473e-002
1.670123e+003;-2.442097e-002
1.672051e+003;-2.226750e-002
1.673980e+003;-2.360213e-002
1.675908e+003;-2.350069e-002
1.677837e+003;-2.030065e-002
1.679765e+003;-1.972372e-002
1.681694e+003;-2.225094e-002
1.683622e+003;-2.825172e-002
1.685551e+003;-2.579213e-002
1.687479e+003;-1.920792e-002
1.689408e+003;-1.722286e-002
1.691337e+003;-1.633110e-002
1.693265e+003;-1.841299e-002
1.695194e+003;-2.385038e-002
1.697122e+003;-2.307246e-002
1.699051e+003;-2.417001e-002
1.700979e+003;-2.341527e-002
1.702908e+003;-1.725226e-002
1.704836e+003;-1.609249e-002
1.706765e+003;-1.481170e-002
1.708693e+003;-1.316927e-002
1.710622e+003;-1.201085e-002
1.712551e+003;-1.195242e-002
1.714479e+003;-1.343740e-002
1.716408e+003;-1.588440e-002
1.718336e+003;-1.269791e-002
1.720265e+003;-4.618724e-003
1.722193e+003;8.529119e-004
1.724122e+003;4.789866e-003
1.726050e+003;9.385407e-003
1.727979e+003;1.308807e-002
1.729908e+003;1.569885e-002
1.731836e+003;1.456552e-002
1.733765e+003;1.175695e-002
1.735693e+003;1.600209e-002
1.737622e+003;1.845214e-002
1.739550e+003;1.587312e-002
1.741479e+003;1.430530e-002
1.743407e+003;1.195359e-002
1.745336e+003;8.396158e-003
1.747265e+003;4.042989e-003
1.749193e+003;-1.318091e-003
1.751122e+003;-6.062730e-003
1.753050e+003;-6.948258e-003
1.754979e+003;-8.622910e-003
1.756907e+003;-1.115278e-002
1.758836e+003;-1.229690e-002
1.760764e+003;-1.421848e-002
1.762693e+003;-1.462128e-002
1.764621e+003;-1.359854e-002
1.766550e+003;-1.499106e-002
1.768479e+003;-1.628431e-002
1.770407e+003;-1.794227e-002
1.772336e+003;-1.973218e-002
1.774264e+003;-1.726971e-002
1.776193e+003;-1.496609e-002
1.778121e+003;-1.492598e-002
1.780050e+003;-1.554965e-002
1.781978e+003;-1.561496e-002
1.783907e+003;-1.579366e-002
1.785835e+003;-1.566364e-002
1.787764e+003;-1.515738e-002
1.789693e+003;-1.630212e-002
1.791621e+003;-1.860827e-002
1.793550e+003;-1.795753e-002
1.795478e+003;-1.579616e-002
1.797407e+003;-1.544360e-002
1.799335e+003;-1.593167e-002
1.801264e+003;-1.612895e-002
1.803192e+003;-1.541738e-002
1.805121e+003;-1.496244e-002
1.807049e+003;-1.519808e-002
1.808978e+003;-1.583769e-002
1.810907e+003;-1.578009e-002
1.812835e+003;-1.503167e-002
1.814764e+003;-1.462679e-002
1.816692e+003;-1.490417e-002
1.818621e+003;-1.498181e-002
1.820549e+003;-1.525202e-002
1.822478e+003;-1.584462e-002
1.824406e+003;-1.665382e-002
1.826335e+003;-1.618128e-002
1.828264e+003;-1.651120e-002
1.830192e+003;-1.703219e-002
1.832121e+003;-1.584092e-002
1.834049e+003;-1.515933e-002
1.835978e+003;-1.536122e-002
1.837906e+003;-1.527361e-002
1.839835e+003;-1.502841e-002
1.841763e+003;-1.653713e-002
1.843692e+003;-1.902921e-002
1.845620e+003;-1.798601e-002
1.847549e+003;-1.647110e-002
1.849478e+003;-1.615280e-002
1.851406e+003;-1.579085e-002
1.853335e+003;-1.569320e-002
1.855263e+003;-1.580450e-002
1.857192e+003;-1.608317e-002
1.859120e+003;-1.610954e-002
1.861049e+003;-1.604680e-002
1.862977e+003;-1.617339e-002
1.864906e+003;-1.642203e-002
1.866834e+003;-1.744869e-002
1.868763e+003;-1.854699e-002
1.870692e+003;-1.764003e-002
1.872620e+003;-1.644287e-002
1.874549e+003;-1.633081e-002
1.876477e+003;-1.641766e-002
1.878406e+003;-1.660117e-002
1.880334e+003;-1.679158e-002
1.882263e+003;-1.686477e-002
1.884191e+003;-1.696885e-002
1.886120e+003;-1.711770e-002
1.888048e+003;-1.778117e-002
1.889977e+003;-1.789486e-002
1.891906e+003;-1.718965e-002
1.893834e+003;-1.724359e-002
1.895763e+003;-1.725719e-002
1.897691e+003;-1.702330e-002
1.899620e+003;-1.709594e-002
1.901548e+003;-1.714926e-002
1.903477e+003;-1.722315e-002
1.905405e+003;-1.749773e-002
1.907334e+003;-1.740145e-002
1.909262e+003;-1.760007e-002
1.911191e+003;-1.779962e-002
1.913120e+003;-1.784351e-002
1.915048e+003;-1.825929e-002
1.916977e+003;-1.918959e-002
1.918905e+003;-1.908100e-002
1.920834e+003;-1.849972e-002
1.922762e+003;-1.840223e-002
1.924691e+003;-1.805839e-002
1.926619e+003;-1.787499e-002
1.928548e+003;-1.796815e-002
1.930477e+003;-1.793833e-002
1.932405e+003;-1.807718e-002
1.934334e+003;-1.821878e-002
1.936262e+003;-1.813724e-002
1.938191e+003;-1.821605e-002
1.940119e+003;-1.872739e-002
1.942048e+003;-1.913579e-002
1.943976e+003;-1.884996e-002
1.945905e+003;-1.865604e-002
1.947833e+003;-1.842395e-002
1.949762e+003;-1.819053e-002
1.951691e+003;-1.813521e-002
1.953619e+003;-1.827975e-002
1.955548e+003;-1.830316e-002
1.957476e+003;-1.825357e-002
1.959405e+003;-1.853823e-002
1.961333e+003;-1.870171e-002
1.963262e+003;-1.896994e-002
1.965190e+003;-1.931904e-002
1.967119e+003;-1.955262e-002
1.969047e+003;-1.941268e-002
1.970976e+003;-1.912555e-002
1.972905e+003;-1.901440e-002
1.974833e+003;-1.917929e-002
1.976762e+003;-1.923194e-002
1.978690e+003;-1.927255e-002
1.980619e+003;-1.965279e-002
1.982547e+003;-2.015384e-002
1.984476e+003;-2.025066e-002
1.986404e+003;-2.012097e-002
1.988333e+003;-2.015808e-002
1.990261e+003;-2.069504e-002
1.992190e+003;-2.092680e-002
1.994119e+003;-2.064727e-002
1.996047e+003;-2.059854e-002
1.997976e+003;-2.067504e-002
1.999904e+003;-2.076349e-002
2.001833e+003;-2.084517e-002
2.003761e+003;-2.083487e-002
2.005690e+003;-2.085717e-002
2.007618e+003;-2.080945e-002
2.009547e+003;-2.093482e-002
2.011476e+003;-2.121196e-002
2.013404e+003;-2.117459e-002
2.015333e+003;-2.122212e-002
2.017261e+003;-2.128923e-002
2.019190e+003;-2.118914e-002
2.021118e+003;-2.145615e-002
2.023047e+003;-2.181262e-002
2.024975e+003;-2.202496e-002
2.026904e+003;-2.198574e-002
2.028833e+003;-2.201740e-002
2.030761e+003;-2.222550e-002
2.032690e+003;-2.227930e-002
2.034618e+003;-2.216103e-002
2.036547e+003;-2.217576e-002
2.038475e+003;-2.238760e-002
2.040404e+003;-2.264214e-002
2.042332e+003;-2.282691e-002
2.044261e+003;-2.299664e-002
2.046189e+003;-2.315939e-002
2.048118e+003;-2.325971e-002
2.050047e+003;-2.332230e-002
2.051975e+003;-2.347778e-002
2.053904e+003;-2.345966e-002
2.055832e+003;-2.325924e-002
2.057761e+003;-2.320224e-002
2.059689e+003;-2.345897e-002
2.061618e+003;-2.350314e-002
2.063546e+003;-2.363777e-002
2.065475e+003;-2.388472e-002
2.067404e+003;-2.391357e-002
2.069332e+003;-2.377626e-002
2.071260e+003;-2.393025e-002
2.073189e+003;-2.409842e-002
2.075118e+003;-2.412829e-002
2.077046e+003;-2.415136e-002
2.078975e+003;-2.444841e-002
2.080903e+003;-2.463761e-002
2.082832e+003;-2.449172e-002
2.084760e+003;-2.443344e-002
2.086689e+003;-2.469261e-002
2.088617e+003;-2.487256e-002
2.090546e+003;-2.484415e-002
2.092475e+003;-2.474235e-002
2.094403e+003;-2.483842e-002
2.096332e+003;-2.491468e-002
2.098260e+003;-2.505701e-002
2.100189e+003;-2.530224e-002
2.102117e+003;-2.522149e-002
2.104046e+003;-2.516959e-002
2.105974e+003;-2.545147e-002
2.107903e+003;-2.562768e-002
2.109832e+003;-2.569168e-002
2.111760e+003;-2.593277e-002
2.113688e+003;-2.596954e-002
2.115617e+003;-2.573446e-002
2.117546e+003;-2.560200e-002
2.119474e+003;-2.557108e-002
2.121403e+003;-2.575260e-002
2.123331e+003;-2.592793e-002
2.125260e+003;-2.589403e-002
2.127188e+003;-2.604878e-002
2.129117e+003;-2.611093e-002
2.131045e+003;-2.601361e-002
2.132974e+003;-2.582058e-002
2.134903e+003;-2.586975e-002
2.136831e+003;-2.602035e-002
2.138760e+003;-2.607617e-002
2.140688e+003;-2.611527e-002
2.142617e+003;-2.598733e-002
2.144545e+003;-2.598015e-002
2.146474e+003;-2.632295e-002
2.148402e+003;-2.657819e-002
2.150331e+003;-2.664925e-002
2.152260e+003;-2.673297e-002
2.154188e+003;-2.678593e-002
2.156117e+003;-2.665831e-002
2.158045e+003;-2.631188e-002
2.159974e+003;-2.619301e-002
2.161902e+003;-2.649403e-002
2.163831e+003;-2.664641e-002
2.165759e+003;-2.676303e-002
2.167688e+003;-2.686726e-002
2.169616e+003;-2.684094e-002
2.171545e+003;-2.707266e-002
2.173474e+003;-2.711347e-002
2.175402e+003;-2.694372e-002
2.177331e+003;-2.687969e-002
2.179259e+003;-2.699812e-002
2.181188e+003;-2.730004e-002
2.183116e+003;-2.756696e-002
2.185045e+003;-2.752361e-002
2.186973e+003;-2.761790e-002
2.188902e+003;-2.759215e-002
2.190831e+003;-2.732839e-002
2.192759e+003;-2.761992e-002
2.194688e+003;-2.804934e-002
2.196616e+003;-2.801539e-002
2.198545e+003;-2.783906e-002
2.200473e+003;-2.778489e-002
2.202402e+003;-2.764756e-002
2.204330e+003;-2.755141e-002
2.206259e+003;-2.778645e-002
2.208188e+003;-2.781600e-002
2.210116e+003;-2.783664e-002
2.212044e+003;-2.810354e-002
2.213973e+003;-2.828208e-002
2.215902e+003;-2.844479e-002
2.217830e+003;-2.842598e-002
2.219759e+003;-2.832253e-002
2.221687e+003;-2.839964e-002
2.223616e+003;-2.854710e-002
2.225544e+003;-2.880885e-002
2.227473e+003;-2.862645e-002
2.229401e+003;-2.819447e-002
2.231330e+003;-2.822906e-002
2.233259e+003;-2.860958e-002
2.235187e+003;-2.885762e-002
2.237116e+003;-2.886050e-002
2.239044e+003;-2.878999e-002
2.240973e+003;-2.872890e-002
2.242901e+003;-2.870769e-002
2.244830e+003;-2.879083e-002
2.246758e+003;-2.866327e-002
2.248687e+003;-2.853894e-002
2.250615e+003;-2.859217e-002
2.252544e+003;-2.856078e-002
2.254473e+003;-2.860607e-002
2.256401e+003;-2.901001e-002
2.258330e+003;-2.935715e-002
2.260258e+003;-2.922796e-002
2.262187e+003;-2.897142e-002
2.264115e+003;-2.891944e-002
2.266044e+003;-2.896860e-002
2.267972e+003;-2.919109e-002
2.269901e+003;-2.919732e-002
2.271830e+003;-2.934151e-002
2.273758e+003;-2.957319e-002
2.275687e+003;-2.957554e-002
2.277615e+003;-2.957628e-002
2.279544e+003;-2.946382e-002
2.281472e+003;-2.922511e-002
2.283401e+003;-2.909263e-002
2.285329e+003;-2.916408e-002
2.287258e+003;-2.924187e-002
2.289187e+003;-2.927442e-002
2.291115e+003;-2.933482e-002
2.293043e+003;-2.938477e-002
2.294972e+003;-2.947258e-002
2.296901e+003;-2.951143e-002
2.298829e+003;-2.932785e-002
2.300758e+003;-2.928006e-002
2.302686e+003;-2.966449e-002
2.304615e+003;-3.003825e-002
2.306543e+003;-3.013212e-002
2.308472e+003;-3.024317e-002
2.310400e+003;-3.027553e-002
2.312329e+003;-3.031700e-002
2.314258e+003;-3.062147e-002
2.316186e+003;-3.118337e-002
2.318115e+003;-3.157268e-002
2.320043e+003;-3.197212e-002
2.321972e+003;-3.239772e-002
2.323900e+003;-3.275046e-002
2.325829e+003;-3.337820e-002
2.327757e+003;-3.386256e-002
2.329686e+003;-3.437284e-002
2.331615e+003;-3.494165e-002
2.333543e+003;-3.535504e-002
2.335472e+003;-3.553285e-002
2.337400e+003;-3.547570e-002
2.339329e+003;-3.524959e-002
2.341257e+003;-3.486735e-002
2.343186e+003;-3.435171e-002
2.345114e+003;-3.342891e-002
2.347043e+003;-3.231760e-002
2.348971e+003;-3.176918e-002
2.350900e+003;-3.227153e-002
2.352829e+003;-3.375350e-002
2.354757e+003;-3.520403e-002
2.356686e+003;-3.618149e-002
2.358614e+003;-3.685865e-002
2.360543e+003;-3.729869e-002
2.362471e+003;-3.719021e-002
2.364400e+003;-3.667745e-002
2.366328e+003;-3.634379e-002
2.368257e+003;-3.566827e-002
2.370186e+003;-3.457523e-002
2.372114e+003;-3.336899e-002
2.374042e+003;-3.232120e-002
2.375971e+003;-3.144301e-002
2.377900e+003;-3.105809e-002
2.379828e+003;-3.083414e-002
2.381757e+003;-3.054094e-002
2.383685e+003;-3.009313e-002
2.385614e+003;-2.967736e-002
2.387542e+003;-2.977195e-002
2.389471e+003;-2.994103e-002
2.391399e+003;-2.975701e-002
2.393328e+003;-2.972613e-002
2.395257e+003;-2.977149e-002
2.397185e+003;-2.945840e-002
2.399114e+003;-2.932231e-002
2.401042e+003;-2.950880e-002
2.402971e+003;-2.948332e-002
2.404899e+003;-2.930431e-002
2.406828e+003;-2.927520e-002
2.408756e+003;-2.946732e-002
2.410685e+003;-2.942348e-002
2.412614e+003;-2.914592e-002
2.414542e+003;-2.909873e-002
2.416471e+003;-2.920562e-002
2.418399e+003;-2.921312e-002
2.420328e+003;-2.931171e-002
2.422256e+003;-2.937780e-002
2.424185e+003;-2.930397e-002
2.426113e+003;-2.934092e-002
2.428042e+003;-2.952744e-002
2.429970e+003;-2.969513e-002
2.431899e+003;-2.952660e-002
2.433828e+003;-2.937077e-002
2.435756e+003;-2.918561e-002
2.437685e+003;-2.898450e-002
2.439613e+003;-2.888214e-002
2.441542e+003;-2.892216e-002
2.443470e+003;-2.899857e-002
2.445399e+003;-2.901227e-002
2.447327e+003;-2.890834e-002
2.449256e+003;-2.887923e-002
2.451185e+003;-2.890391e-002
2.453113e+003;-2.899098e-002
2.455042e+003;-2.912820e-002
2.456970e+003;-2.905504e-002
2.458899e+003;-2.878987e-002
2.460827e+003;-2.872394e-002
2.462756e+003;-2.888955e-002
2.464684e+003;-2.900331e-002
2.466613e+003;-2.899553e-002
2.468542e+003;-2.876271e-002
2.470470e+003;-2.848488e-002
2.472398e+003;-2.842502e-002
2.474327e+003;-2.861529e-002
2.476256e+003;-2.875123e-002
2.478184e+003;-2.890744e-002
2.480113e+003;-2.890496e-002
2.482041e+003;-2.878410e-002
2.483970e+003;-2.874698e-002
2.485898e+003;-2.873312e-002
2.487827e+003;-2.858582e-002
2.489755e+003;-2.881179e-002
2.491684e+003;-2.910459e-002
2.493613e+003;-2.904097e-002
2.495541e+003;-2.888220e-002
2.497470e+003;-2.862050e-002
2.499398e+003;-2.850304e-002
2.501327e+003;-2.882150e-002
2.503255e+003;-2.898028e-002
2.505184e+003;-2.871011e-002
2.507112e+003;-2.858073e-002
2.509041e+003;-2.859028e-002
2.510969e+003;-2.862227e-002
2.512898e+003;-2.873216e-002
2.514827e+003;-2.891962e-002
2.516755e+003;-2.902888e-002
2.518684e+003;-2.905175e-002
2.520612e+003;-2.892182e-002
2.522541e+003;-2.856891e-002
2.524469e+003;-2.828047e-002
2.526398e+003;-2.817478e-002
2.528326e+003;-2.836670e-002
2.530255e+003;-2.850977e-002
2.532184e+003;-2.875439e-002
2.534112e+003;-2.914862e-002
2.536041e+003;-2.906697e-002
2.537969e+003;-2.859751e-002
2.539898e+003;-2.853425e-002
2.541826e+003;-2.870325e-002
2.543755e+003;-2.858237e-002
2.545683e+003;-2.857871e-002
2.547612e+003;-2.871107e-002
2.549541e+003;-2.868098e-002
2.551469e+003;-2.853332e-002
2.553397e+003;-2.870049e-002
2.555326e+003;-2.871730e-002
2.557255e+003;-2.839852e-002
2.559183e+003;-2.814472e-002
2.561112e+003;-2.815978e-002
2.563040e+003;-2.843281e-002
2.564969e+003;-2.851461e-002
2.566897e+003;-2.837623e-002
2.568826e+003;-2.833020e-002
2.570754e+003;-2.817568e-002
2.572683e+003;-2.832511e-002
2.574612e+003;-2.855932e-002
2.576540e+003;-2.833256e-002
2.578469e+003;-2.820794e-002
2.580397e+003;-2.843160e-002
2.582326e+003;-2.866973e-002
2.584254e+003;-2.866988e-002
2.586183e+003;-2.839920e-002
2.588111e+003;-2.814944e-002
2.590040e+003;-2.808214e-002
2.591969e+003;-2.831884e-002
2.593897e+003;-2.842865e-002
2.595826e+003;-2.837443e-002
2.597754e+003;-2.815211e-002
2.599683e+003;-2.800448e-002
2.601611e+003;-2.807142e-002
2.603540e+003;-2.807518e-002
2.605468e+003;-2.800563e-002
2.607397e+003;-2.804608e-002
2.609325e+003;-2.808329e-002
2.611254e+003;-2.807683e-002
2.613183e+003;-2.825439e-002
2.615111e+003;-2.826780e-002
2.617040e+003;-2.831201e-002
2.618968e+003;-2.836608e-002
2.620897e+003;-2.848746e-002
2.622825e+003;-2.857555e-002
2.624754e+003;-2.841506e-002
2.626682e+003;-2.846471e-002
2.628611e+003;-2.850760e-002
2.630540e+003;-2.820496e-002
2.632468e+003;-2.798473e-002
2.634396e+003;-2.807965e-002
2.636325e+003;-2.823244e-002
2.638254e+003;-2.844783e-002
2.640182e+003;-2.868678e-002
2.642111e+003;-2.855563e-002
2.644039e+003;-2.826485e-002
2.645968e+003;-2.808785e-002
2.647896e+003;-2.810344e-002
2.649825e+003;-2.805782e-002
2.651753e+003;-2.803191e-002
2.653682e+003;-2.814919e-002
2.655611e+003;-2.854018e-002
2.657539e+003;-2.867118e-002
2.659468e+003;-2.862009e-002
2.661396e+003;-2.846806e-002
2.663325e+003;-2.826728e-002
2.665253e+003;-2.814627e-002
2.667182e+003;-2.830487e-002
2.669110e+003;-2.863790e-002
2.671039e+003;-2.874165e-002
2.672968e+003;-2.877988e-002
2.674896e+003;-2.878550e-002
2.676825e+003;-2.841556e-002
2.678753e+003;-2.820791e-002
2.680682e+003;-2.830487e-002
2.682610e+003;-2.835460e-002
2.684539e+003;-2.860930e-002
2.686467e+003;-2.872416e-002
2.688396e+003;-2.852963e-002
2.690324e+003;-2.829531e-002
2.692253e+003;-2.817798e-002
2.694182e+003;-2.817403e-002
2.696110e+003;-2.801579e-002
2.698039e+003;-2.794322e-002
2.699967e+003;-2.803011e-002
2.701896e+003;-2.820626e-002
2.703824e+003;-2.832123e-002
2.705753e+003;-2.821344e-002
2.707681e+003;-2.801206e-002
2.709610e+003;-2.806947e-002
2.711539e+003;-2.818885e-002
2.713467e+003;-2.813143e-002
2.715396e+003;-2.821058e-002
2.717324e+003;-2.826346e-002
2.719253e+003;-2.830673e-002
2.721181e+003;-2.826917e-002
2.723110e+003;-2.807406e-002
2.725038e+003;-2.818645e-002
2.726967e+003;-2.837316e-002
2.728896e+003;-2.841236e-002
2.730824e+003;-2.824830e-002
2.732752e+003;-2.800225e-002
2.734681e+003;-2.815584e-002
2.736610e+003;-2.821515e-002
2.738538e+003;-2.793694e-002
2.740467e+003;-2.797453e-002
2.742395e+003;-2.807093e-002
2.744324e+003;-2.798830e-002
2.746252e+003;-2.813997e-002
2.748181e+003;-2.807180e-002
2.750109e+003;-2.785249e-002
2.752038e+003;-2.778042e-002
2.753967e+003;-2.773140e-002
2.755895e+003;-2.755692e-002
2.757824e+003;-2.752479e-002
2.759752e+003;-2.759684e-002
2.761681e+003;-2.792439e-002
2.763609e+003;-2.809701e-002
2.765538e+003;-2.775403e-002
2.767466e+003;-2.759044e-002
2.769395e+003;-2.764613e-002
2.771323e+003;-2.776143e-002
2.773252e+003;-2.801986e-002
2.775181e+003;-2.796049e-002
2.777109e+003;-2.776307e-002
2.779038e+003;-2.776226e-002
2.780966e+003;-2.757048e-002
2.782895e+003;-2.733704e-002
2.784823e+003;-2.745898e-002
2.786752e+003;-2.749376e-002
2.788680e+003;-2.728595e-002
2.790609e+003;-2.719595e-002
2.792538e+003;-2.747824e-002
2.794466e+003;-2.757903e-002
2.796395e+003;-2.729712e-002
2.798323e+003;-2.712047e-002
2.800252e+003;-2.740175e-002
2.802180e+003;-2.743932e-002
2.804109e+003;-2.714372e-002
2.806037e+003;-2.712732e-002
2.807966e+003;-2.704398e-002
2.809895e+003;-2.697838e-002
2.811823e+003;-2.705513e-002
2.813751e+003;-2.707144e-002
2.815680e+003;-2.686060e-002
2.817609e+003;-2.693214e-002
2.819537e+003;-2.682923e-002
2.821466e+003;-2.682718e-002
2.823394e+003;-2.688246e-002
2.825323e+003;-2.678201e-002
2.827251e+003;-2.674325e-002
2.829180e+003;-2.649603e-002
2.831108e+003;-2.634213e-002
2.833037e+003;-2.656354e-002
2.834966e+003;-2.677329e-002
2.836894e+003;-2.710951e-002
2.838823e+003;-2.749543e-002
2.840751e+003;-2.802536e-002
2.842680e+003;-2.888568e-002
2.844608e+003;-3.028418e-002
2.846537e+003;-3.242466e-002
2.848465e+003;-3.466390e-002
2.850394e+003;-3.621051e-002
2.852323e+003;-3.647673e-002
2.854251e+003;-3.582762e-002
2.856180e+003;-3.418085e-002
2.858108e+003;-3.198735e-002
2.860037e+003;-3.054251e-002
2.861965e+003;-2.945719e-002
2.863894e+003;-2.815462e-002
2.865822e+003;-2.692469e-002
2.867751e+003;-2.612853e-002
2.869679e+003;-2.593046e-002
2.871608e+003;-2.619311e-002
2.873536e+003;-2.624379e-002
2.875465e+003;-2.587774e-002
2.877394e+003;-2.539688e-002
2.879322e+003;-2.501309e-002
2.881251e+003;-2.513150e-002
2.883179e+003;-2.539419e-002
2.885108e+003;-2.584003e-002
2.887036e+003;-2.623693e-002
2.888965e+003;-2.656382e-002
2.890893e+003;-2.682484e-002
2.892822e+003;-2.715742e-002
2.894750e+003;-2.784394e-002
2.896679e+003;-2.785889e-002
2.898608e+003;-2.800803e-002
2.900536e+003;-2.870859e-002
2.902465e+003;-2.906251e-002
2.904393e+003;-2.932875e-002
2.906322e+003;-3.008748e-002
2.908250e+003;-3.088343e-002
2.910179e+003;-3.160171e-002
2.912107e+003;-3.297290e-002
2.914036e+003;-3.466797e-002
2.915965e+003;-3.655901e-002
2.917893e+003;-3.823331e-002
2.919822e+003;-3.935166e-002
2.921750e+003;-3.990169e-002
2.923679e+003;-3.982125e-002
2.925607e+003;-3.929606e-002
2.927536e+003;-3.840376e-002
2.929464e+003;-3.714215e-002
2.931393e+003;-3.597932e-002
2.933322e+003;-3.509112e-002
2.935250e+003;-3.373572e-002
2.937178e+003;-3.201546e-002
2.939107e+003;-3.086707e-002
2.941036e+003;-2.983046e-002
2.942964e+003;-2.886872e-002
2.944893e+003;-2.845987e-002
2.946821e+003;-2.848873e-002
2.948750e+003;-2.858467e-002
2.950678e+003;-2.860629e-002
2.952607e+003;-2.886528e-002
2.954535e+003;-2.921424e-002
2.956464e+003;-2.928836e-002
2.958393e+003;-2.933952e-002
2.960321e+003;-2.941781e-002
2.962250e+003;-2.915357e-002
2.964178e+003;-2.833796e-002
2.966107e+003;-2.725561e-002
2.968035e+003;-2.653075e-002
2.969964e+003;-2.622773e-002
2.971892e+003;-2.604478e-002
2.973821e+003;-2.589534e-002
2.975750e+003;-2.565588e-002
2.977678e+003;-2.530687e-002
2.979607e+003;-2.511815e-002
2.981535e+003;-2.536407e-002
2.983464e+003;-2.569829e-002
2.985392e+003;-2.583600e-002
2.987321e+003;-2.588623e-002
2.989249e+003;-2.608903e-002
2.991178e+003;-2.636863e-002
2.993106e+003;-2.658897e-002
2.995035e+003;-2.694201e-002
2.996964e+003;-2.723585e-002
2.998892e+003;-2.724820e-002
3.000821e+003;-2.739528e-002
3.002749e+003;-2.748894e-002
3.004678e+003;-2.764037e-002
3.006606e+003;-2.780279e-002
3.008535e+003;-2.774029e-002
3.010463e+003;-2.775891e-002
3.012392e+003;-2.798681e-002
3.014321e+003;-2.800986e-002
3.016249e+003;-2.798768e-002
3.018177e+003;-2.801986e-002
3.020106e+003;-2.820689e-002
3.022035e+003;-2.851176e-002
3.023963e+003;-2.849239e-002
3.025892e+003;-2.837089e-002
3.027820e+003;-2.803955e-002
3.029749e+003;-2.799967e-002
3.031677e+003;-2.816714e-002
3.033606e+003;-2.829509e-002
3.035534e+003;-2.849097e-002
3.037463e+003;-2.845581e-002
3.039392e+003;-2.818428e-002
3.041320e+003;-2.817729e-002
3.043249e+003;-2.861795e-002
3.045177e+003;-2.878491e-002
3.047106e+003;-2.860809e-002
3.049034e+003;-2.837893e-002
3.050963e+003;-2.847533e-002
3.052891e+003;-2.880255e-002
3.054820e+003;-2.888806e-002
3.056749e+003;-2.886559e-002
3.058677e+003;-2.875486e-002
3.060606e+003;-2.886345e-002
3.062534e+003;-2.904515e-002
3.064463e+003;-2.891975e-002
3.066391e+003;-2.914756e-002
3.068320e+003;-2.948738e-002
3.070248e+003;-2.949806e-002
3.072177e+003;-2.955852e-002
3.074105e+003;-2.954731e-002
3.076034e+003;-2.956372e-002
3.077963e+003;-2.983760e-002
3.079891e+003;-3.002177e-002
3.081820e+003;-2.994153e-002
3.083748e+003;-2.966056e-002
3.085677e+003;-2.973319e-002
3.087605e+003;-2.978167e-002
3.089534e+003;-2.982247e-002
3.091462e+003;-3.006293e-002
3.093391e+003;-3.019079e-002
3.095320e+003;-3.019567e-002
3.097248e+003;-3.011626e-002
3.099177e+003;-3.015644e-002
3.101105e+003;-3.019582e-002
3.103034e+003;-3.007675e-002
3.104962e+003;-3.008949e-002
3.106891e+003;-3.002592e-002
3.108819e+003;-3.012949e-002
3.110748e+003;-3.014692e-002
3.112677e+003;-3.025940e-002
3.114605e+003;-3.066204e-002
3.116533e+003;-3.066427e-002
3.118462e+003;-3.037089e-002
3.120391e+003;-3.024651e-002
3.122319e+003;-3.034265e-002
3.124248e+003;-3.065615e-002
3.126176e+003;-3.100892e-002
3.128105e+003;-3.123829e-002
3.130033e+003;-3.128084e-002
3.131962e+003;-3.127116e-002
3.133890e+003;-3.115253e-002
3.135819e+003;-3.099883e-002
3.137748e+003;-3.128805e-002
3.139676e+003;-3.162833e-002
3.141605e+003;-3.177910e-002
3.143533e+003;-3.158030e-002
3.145462e+003;-3.126262e-002
3.147390e+003;-3.149633e-002
3.149319e+003;-3.195294e-002
3.151247e+003;-3.209332e-002
3.153176e+003;-3.185177e-002
3.155104e+003;-3.139182e-002
3.157033e+003;-3.140575e-002
3.158962e+003;-3.145226e-002
3.160890e+003;-3.127502e-002
3.162819e+003;-3.149531e-002
3.164747e+003;-3.170219e-002
3.166676e+003;-3.146101e-002
3.168604e+003;-3.113850e-002
3.170533e+003;-3.181765e-002
3.172461e+003;-3.249568e-002
3.174390e+003;-3.231290e-002
3.176319e+003;-3.231435e-002
3.178247e+003;-3.241061e-002
3.180176e+003;-3.236943e-002
3.182104e+003;-3.268175e-002
3.184033e+003;-3.291132e-002
3.185961e+003;-3.260550e-002
3.187890e+003;-3.234033e-002
3.189818e+003;-3.240215e-002
3.191747e+003;-3.276960e-002
3.193676e+003;-3.286856e-002
3.195604e+003;-3.309079e-002
3.197532e+003;-3.318221e-002
3.199461e+003;-3.322135e-002
3.201390e+003;-3.313107e-002
3.203318e+003;-3.293036e-002
3.205247e+003;-3.280082e-002
3.207175e+003;-3.285510e-002
3.209104e+003;-3.309361e-002
3.211032e+003;-3.347493e-002
3.212961e+003;-3.341777e-002
3.214889e+003;-3.314829e-002
3.216818e+003;-3.280533e-002
3.218747e+003;-3.265529e-002
3.220675e+003;-3.282309e-002
3.222604e+003;-3.293402e-002
3.224532e+003;-3.310033e-002
3.226461e+003;-3.347824e-002
3.228389e+003;-3.383353e-002
3.230318e+003;-3.374286e-002
3.232246e+003;-3.327107e-002
3.234175e+003;-3.343857e-002
3.236104e+003;-3.384895e-002
3.238032e+003;-3.382593e-002
3.239961e+003;-3.363211e-002
3.241889e+003;-3.368443e-002
3.243818e+003;-3.381312e-002
3.245746e+003;-3.392545e-002
3.247675e+003;-3.404669e-002
3.249603e+003;-3.385643e-002
3.251532e+003;-3.373765e-002
3.253460e+003;-3.394521e-002
3.255389e+003;-3.408060e-002
3.257318e+003;-3.420416e-002
3.259246e+003;-3.438658e-002
3.261175e+003;-3.475031e-002
3.263103e+003;-3.498576e-002
3.265032e+003;-3.490499e-002
3.266960e+003;-3.511147e-002
3.268889e+003;-3.506872e-002
3.270817e+003;-3.459591e-002
3.272746e+003;-3.453487e-002
3.274675e+003;-3.484903e-002
3.276603e+003;-3.505994e-002
3.278531e+003;-3.538399e-002
3.280460e+003;-3.543783e-002
3.282389e+003;-3.547365e-002
3.284317e+003;-3.561775e-002
3.286246e+003;-3.565172e-002
3.288174e+003;-3.534471e-002
3.290103e+003;-3.518509e-002
3.292031e+003;-3.545484e-002
3.293960e+003;-3.576294e-002
3.295888e+003;-3.603605e-002
3.297817e+003;-3.606283e-002
3.299746e+003;-3.579049e-002
3.301674e+003;-3.562624e-002
3.303603e+003;-3.567013e-002
3.305531e+003;-3.577340e-002
3.307460e+003;-3.610426e-002
3.309388e+003;-3.651457e-002
3.311317e+003;-3.648609e-002
3.313245e+003;-3.616353e-002
3.315174e+003;-3.627056e-002
3.317103e+003;-3.659489e-002
3.319031e+003;-3.612414e-002
3.320960e+003;-3.577627e-002
3.322888e+003;-3.575082e-002
3.324817e+003;-3.594849e-002
3.326745e+003;-3.621572e-002
3.328674e+003;-3.615643e-002
3.330602e+003;-3.603834e-002
3.332531e+003;-3.595727e-002
3.334459e+003;-3.607453e-002
3.336388e+003;-3.624145e-002
3.338317e+003;-3.621469e-002
3.340245e+003;-3.626778e-002
3.342174e+003;-3.633938e-002
3.344102e+003;-3.623977e-002
3.346031e+003;-3.616749e-002
3.347959e+003;-3.624380e-002
3.349888e+003;-3.645400e-002
3.351816e+003;-3.660467e-002
3.353745e+003;-3.652294e-002
3.355674e+003;-3.664767e-002
3.357602e+003;-3.671457e-002
3.359531e+003;-3.645254e-002
3.361459e+003;-3.624544e-002
3.363388e+003;-3.639904e-002
3.365316e+003;-3.656815e-002
3.367245e+003;-3.665038e-002
3.369173e+003;-3.656428e-002
3.371102e+003;-3.619292e-002
3.373031e+003;-3.653263e-002
3.374959e+003;-3.680624e-002
3.376887e+003;-3.638374e-002
3.378816e+003;-3.630022e-002
3.380745e+003;-3.637823e-002
3.382673e+003;-3.658709e-002
3.384602e+003;-3.637552e-002
3.386530e+003;-3.640839e-002
3.388459e+003;-3.675823e-002
3.390387e+003;-3.678882e-002
3.392316e+003;-3.682730e-002
3.394244e+003;-3.687058e-002
3.396173e+003;-3.714647e-002
3.398102e+003;-3.704651e-002
3.400030e+003;-3.650263e-002
3.401959e+003;-3.633624e-002
3.403887e+003;-3.665933e-002
3.405816e+003;-3.674696e-002
3.407744e+003;-3.653927e-002
3.409673e+003;-3.635964e-002
3.411601e+003;-3.623697e-002
3.413530e+003;-3.608960e-002
3.415458e+003;-3.617960e-002
3.417387e+003;-3.653964e-002
3.419316e+003;-3.626831e-002
3.421244e+003;-3.565435e-002
3.423173e+003;-3.583998e-002
3.425101e+003;-3.616878e-002
3.427030e+003;-3.605395e-002
3.428958e+003;-3.592396e-002
3.430887e+003;-3.582939e-002
3.432815e+003;-3.616609e-002
3.434744e+003;-3.675561e-002
3.436673e+003;-3.624755e-002
3.438601e+003;-3.568667e-002
3.440530e+003;-3.573642e-002
3.442458e+003;-3.581414e-002
3.444387e+003;-3.559287e-002
3.446315e+003;-3.510035e-002
3.448244e+003;-3.495390e-002
3.450172e+003;-3.540909e-002
3.452101e+003;-3.537636e-002
3.454030e+003;-3.455892e-002
3.455958e+003;-3.442442e-002
3.457886e+003;-3.494030e-002
3.459815e+003;-3.481044e-002
3.461744e+003;-3.457798e-002
3.463672e+003;-3.443684e-002
3.465601e+003;-3.475759e-002
3.467529e+003;-3.486979e-002
3.469458e+003;-3.466136e-002
3.471386e+003;-3.469693e-002
3.473315e+003;-3.451923e-002
3.475243e+003;-3.485765e-002
3.477172e+003;-3.555160e-002
3.479101e+003;-3.547050e-002
3.481029e+003;-3.502354e-002
3.482958e+003;-3.469066e-002
3.484886e+003;-3.448541e-002
3.486815e+003;-3.433096e-002
3.488743e+003;-3.428013e-002
3.490672e+003;-3.452042e-002
3.492600e+003;-3.453349e-002
3.494529e+003;-3.390427e-002
3.496458e+003;-3.366324e-002
3.498386e+003;-3.375230e-002
3.500315e+003;-3.391074e-002
3.502243e+003;-3.433267e-002
3.504172e+003;-3.447026e-002
3.506100e+003;-3.451234e-002
3.508029e+003;-3.475074e-002
3.509957e+003;-3.471043e-002
3.511886e+003;-3.411408e-002
3.513814e+003;-3.357924e-002
3.515743e+003;-3.400064e-002
3.517672e+003;-3.418244e-002
3.519600e+003;-3.411767e-002
3.521529e+003;-3.455491e-002
3.523457e+003;-3.474869e-002
3.525386e+003;-3.435955e-002
3.527314e+003;-3.400104e-002
3.529243e+003;-3.382936e-002
3.531171e+003;-3.382979e-002
3.533100e+003;-3.365726e-002
3.535029e+003;-3.329850e-002
3.536957e+003;-3.286217e-002
3.538885e+003;-3.309653e-002
3.540814e+003;-3.357648e-002
3.542743e+003;-3.371279e-002
3.544671e+003;-3.403943e-002
3.546600e+003;-3.426412e-002
3.548528e+003;-3.381266e-002
3.550457e+003;-3.382134e-002
3.552385e+003;-3.389082e-002
3.554314e+003;-3.346597e-002
3.556242e+003;-3.291414e-002
3.558171e+003;-3.294753e-002
3.560100e+003;-3.324114e-002
3.562028e+003;-3.339381e-002
3.563957e+003;-3.430046e-002
3.565885e+003;-3.566265e-002
3.567814e+003;-3.498667e-002
3.569742e+003;-3.324096e-002
3.571671e+003;-3.282736e-002
3.573599e+003;-3.333588e-002
3.575528e+003;-3.360583e-002
3.577457e+003;-3.322048e-002
3.579385e+003;-3.230207e-002
3.581314e+003;-3.224320e-002
3.583242e+003;-3.283938e-002
3.585171e+003;-3.402659e-002
3.587099e+003;-3.478683e-002
3.589028e+003;-3.385055e-002
3.590956e+003;-3.305075e-002
3.592885e+003;-3.369249e-002
3.594813e+003;-3.395161e-002
3.596742e+003;-3.313036e-002
3.598671e+003;-3.281474e-002
3.600599e+003;-3.334039e-002
3.602528e+003;-3.326653e-002
3.604456e+003;-3.312170e-002
3.606385e+003;-3.436849e-002
3.608313e+003;-3.578747e-002
3.610242e+003;-3.530781e-002
3.612170e+003;-3.471471e-002
3.614099e+003;-3.355587e-002
3.616028e+003;-3.322954e-002
3.617956e+003;-3.497546e-002
3.619885e+003;-3.513213e-002
3.621813e+003;-3.315590e-002
3.623742e+003;-3.258963e-002
3.625670e+003;-3.425306e-002
3.627599e+003;-3.847512e-002
3.629527e+003;-3.837571e-002
3.631456e+003;-3.409917e-002
3.633385e+003;-3.286023e-002
3.635313e+003;-3.236245e-002
3.637241e+003;-3.195057e-002
3.639170e+003;-3.203075e-002
3.641099e+003;-3.200752e-002
3.643027e+003;-3.207307e-002
3.644956e+003;-3.327984e-002
3.646884e+003;-3.704842e-002
3.648813e+003;-3.936776e-002
3.650741e+003;-3.637646e-002
3.652670e+003;-3.281074e-002
3.654598e+003;-3.389063e-002
3.656527e+003;-3.418655e-002
3.658456e+003;-3.192055e-002
3.660384e+003;-3.128599e-002
3.662313e+003;-3.138837e-002
3.664241e+003;-3.142418e-002
3.666170e+003;-3.248376e-002
3.668098e+003;-3.557501e-002
3.670027e+003;-3.761912e-002
3.671955e+003;-3.535913e-002
3.673884e+003;-3.733301e-002
3.675813e+003;-3.919526e-002
3.677741e+003;-3.498499e-002
3.679669e+003;-3.226906e-002
3.681598e+003;-3.081538e-002
3.683527e+003;-3.057225e-002
3.685455e+003;-3.236359e-002
3.687384e+003;-3.684827e-002
3.689312e+003;-3.747078e-002
3.691241e+003;-3.468188e-002
3.693169e+003;-3.225812e-002
3.695098e+003;-3.141928e-002
3.697026e+003;-3.093317e-002
3.698955e+003;-3.110550e-002
3.700884e+003;-3.240984e-002
3.702812e+003;-3.240421e-002
3.704741e+003;-3.178834e-002
3.706669e+003;-3.218025e-002
3.708598e+003;-3.398155e-002
3.710526e+003;-3.623773e-002
3.712455e+003;-3.586246e-002
3.714383e+003;-3.296934e-002
3.716312e+003;-3.208277e-002
3.718240e+003;-3.211037e-002
3.720169e+003;-3.252582e-002
3.722098e+003;-3.292505e-002
3.724026e+003;-3.316554e-002
3.725955e+003;-3.357857e-002
3.727883e+003;-3.276438e-002
3.729812e+003;-3.336773e-002
3.731740e+003;-3.560890e-002
3.733669e+003;-3.661703e-002
3.735597e+003;-3.746787e-002
3.737526e+003;-3.529565e-002
3.739455e+003;-3.353281e-002
3.741383e+003;-3.507923e-002
3.743312e+003;-4.176411e-002
3.745240e+003;-4.102242e-002
3.747169e+003;-3.782778e-002
3.749097e+003;-4.091288e-002
3.751026e+003;-4.131240e-002
3.752954e+003;-3.778958e-002
3.754883e+003;-3.382238e-002
3.756812e+003;-3.363248e-002
3.758740e+003;-3.419589e-002
3.760668e+003;-3.345787e-002
3.762597e+003;-3.230718e-002
3.764526e+003;-3.353664e-002
3.766454e+003;-3.389857e-002
3.768383e+003;-3.389226e-002
3.770311e+003;-3.330882e-002
3.772240e+003;-3.204353e-002
3.774168e+003;-3.170297e-002
3.776097e+003;-3.202463e-002
3.778025e+003;-3.290554e-002
3.779954e+003;-3.298681e-002
3.781883e+003;-3.213797e-002
3.783811e+003;-3.249901e-002
3.785740e+003;-3.263737e-002
3.787668e+003;-3.253080e-002
3.789597e+003;-3.218240e-002
3.791525e+003;-3.182717e-002
3.793454e+003;-3.200022e-002
3.795382e+003;-3.328371e-002
3.797311e+003;-3.381180e-002
3.799240e+003;-3.649044e-002
3.801168e+003;-3.877618e-002
3.803097e+003;-3.511642e-002
3.805025e+003;-3.448049e-002
3.806954e+003;-3.561586e-002
3.808882e+003;-3.302805e-002
3.810811e+003;-3.169532e-002
3.812739e+003;-3.255284e-002
3.814668e+003;-3.701179e-002
3.816596e+003;-3.734676e-002
3.818525e+003;-3.555795e-002
3.820454e+003;-3.755360e-002
3.822382e+003;-3.546382e-002
3.824311e+003;-3.300791e-002
3.826239e+003;-3.345729e-002
3.828168e+003;-3.310598e-002
3.830096e+003;-3.353219e-002
3.832025e+003;-3.431702e-002
3.833953e+003;-3.496436e-002
3.835882e+003;-3.772117e-002
3.837811e+003;-3.938340e-002
3.839739e+003;-3.676666e-002
3.841667e+003;-3.441315e-002
3.843596e+003;-3.314973e-002
3.845525e+003;-3.216274e-002
3.847453e+003;-3.243311e-002
3.849382e+003;-3.499261e-002
3.851310e+003;-4.131243e-002
3.853239e+003;-4.611222e-002
3.855167e+003;-4.017185e-002
3.857096e+003;-3.354955e-002
3.859024e+003;-3.272170e-002
3.860953e+003;-3.408853e-002
3.862882e+003;-3.524680e-002
3.864810e+003;-3.546339e-002
3.866739e+003;-3.498903e-002
3.868667e+003;-3.736734e-002
3.870596e+003;-3.677126e-002
3.872524e+003;-3.459980e-002
3.874453e+003;-3.446411e-002
3.876381e+003;-3.330670e-002
3.878310e+003;-3.396746e-002
3.880239e+003;-3.459105e-002
3.882167e+003;-3.386556e-002
3.884096e+003;-3.521564e-002
3.886024e+003;-3.538274e-002
3.887953e+003;-3.333886e-002
3.889881e+003;-3.410051e-002
3.891810e+003;-3.420042e-002
3.893738e+003;-3.276880e-002
3.895667e+003;-3.254039e-002
3.897595e+003;-3.385432e-002
3.899524e+003;-3.508837e-002
3.901453e+003;-3.543737e-002
3.903381e+003;-3.569558e-002
3.905310e+003;-3.404580e-002
3.907238e+003;-3.192234e-002
3.909167e+003;-3.169918e-002
3.911095e+003;-3.182227e-002
3.913024e+003;-3.262901e-002
3.914952e+003;-3.374133e-002
3.916881e+003;-3.428984e-002
3.918810e+003;-3.387540e-002
3.920738e+003;-3.309527e-002
3.922667e+003;-3.253685e-002
3.924595e+003;-3.266263e-002
3.926524e+003;-3.237143e-002
3.928452e+003;-3.228958e-002
3.930381e+003;-3.313226e-002
3.932309e+003;-3.341265e-002
3.934238e+003;-3.226085e-002
3.936167e+003;-3.163763e-002
3.938095e+003;-3.177701e-002
3.940023e+003;-3.207538e-002
3.941952e+003;-3.274090e-002
3.943881e+003;-3.274407e-002
3.945809e+003;-3.226497e-002
3.947738e+003;-3.236125e-002
3.949666e+003;-3.245925e-002
3.951595e+003;-3.229367e-002
3.953523e+003;-3.196347e-002
3.955452e+003;-3.169560e-002
3.957380e+003;-3.153485e-002
3.959309e+003;-3.156834e-002
3.961238e+003;-3.162860e-002
3.963166e+003;-3.131562e-002
3.965095e+003;-3.115414e-002
3.967023e+003;-3.099108e-002
3.968952e+003;-3.107311e-002
3.970880e+003;-3.156098e-002
3.972809e+003;-3.158701e-002
3.974737e+003;-3.156834e-002
3.976666e+003;-3.175446e-002
3.978594e+003;-3.180604e-002
3.980523e+003;-3.215148e-002
3.982452e+003;-3.190944e-002
3.984380e+003;-3.141654e-002
3.986309e+003;-3.135421e-002
3.988237e+003;-3.153651e-002
3.990166e+003;-3.193468e-002
3.992094e+003;-3.161403e-002
3.994023e+003;-3.099145e-002
3.995951e+003;-3.088037e-002
3.997880e+003;-3.124455e-002
3.999809e+003;-3.156381e-002
4.001737e+003;0.000000e+000
