3.992094e+002;0.000000e+000
4.011380e+002;0.000000e+000
4.030665e+002;0.000000e+000
4.049951e+002;0.000000e+000
4.069236e+002;0.000000e+000
4.088522e+002;0.000000e+000
4.107807e+002;0.000000e+000
4.127093e+002;0.000000e+000
4.146378e+002;0.000000e+000
4.165664e+002;0.000000e+000
4.184949e+002;0.000000e+000
4.204235e+002;0.000000e+000
4.223520e+002;0.000000e+000
4.242806e+002;0.000000e+000
4.262091e+002;0.000000e+000
4.281377e+002;0.000000e+000
4.300662e+002;0.000000e+000
4.319948e+002;0.000000e+000
4.339233e+002;0.000000e+000
4.358519e+002;0.000000e+000
4.377804e+002;0.000000e+000
4.397090e+002;0.000000e+000
4.416375e+002;0.000000e+000
4.435660e+002;0.000000e+000
4.454946e+002;0.000000e+000
4.474232e+002;0.000000e+000
4.493517e+002;0.000000e+000
4.512802e+002;0.000000e+000
4.532088e+002;0.000000e+000
4.551373e+002;0.000000e+000
4.570659e+002;0.000000e+000
4.589944e+002;0.000000e+000
4.609230e+002;0.000000e+000
4.628515e+002;0.000000e+000
4.647801e+002;0.000000e+000
4.667086e+002;0.000000e+000
4.686372e+002;0.000000e+000
4.705657e+002;0.000000e+000
4.724943e+002;0.000000e+000
4.744228e+002;0.000000e+000
4.763513e+002;0.000000e+000
4.782799e+002;0.000000e+000
4.802085e+002;0.000000e+000
4.821370e+002;0.000000e+000
4.840656e+002;0.000000e+000
4.859941e+002;0.000000e+000
4.879226e+002;0.000000e+000
4.898512e+002;0.000000e+000
4.917798e+002;0.000000e+000
4.937083e+002;0.000000e+000
4.956368e+002;0.000000e+000
4.975654e+002;0.000000e+000
4.994939e+002;0.000000e+000
5.014225e+002;0.000000e+000
5.033510e+002;0.000000e+000
5.052796e+002;0.000000e+000
5.072081e+002;0.000000e+000
5.091367e+002;0.000000e+000
5.110652e+002;0.000000e+000
5.129938e+002;0.000000e+000
5.149223e+002;0.000000e+000
5.168509e+002;0.000000e+000
5.187794e+002;0.000000e+000
5.207079e+002;0.000000e+000
5.226365e+002;0.000000e+000
5.245651e+002;0.000000e+000
5.264936e+002;0.000000e+000
5.284222e+002;0.000000e+000
5.303507e+002;0.000000e+000
5.322792e+002;0.000000e+000
5.342078e+002;0.000000e+000
5.361364e+002;0.000000e+000
5.380649e+002;0.000000e+000
5.399935e+002;0.000000e+000
5.419220e+002;0.000000e+000
5.438505e+002;0.000000e+000
5.457791e+002;0.000000e+000
5.477076e+002;0.000000e+000
5.496362e+002;0.000000e+000
5.515648e+002;0.000000e+000
5.534933e+002;0.000000e+000
5.554218e+002;0.000000e+000
5.573504e+002;0.000000e+000
5.592789e+002;0.000000e+000
5.612075e+002;0.000000e+000
5.631360e+002;0.000000e+000
5.650646e+002;0.000000e+000
5.669931e+002;0.000000e+000
5.689217e+002;0.000000e+000
5.708502e+002;0.000000e+000
5.727787e+002;0.000000e+000
5.747073e+002;0.000000e+000
5.766359e+002;0.000000e+000
5.785644e+002;0.000000e+000
5.804930e+002;0.000000e+000
5.824215e+002;0.000000e+000
5.843500e+002;0.000000e+000
5.862786e+002;0.000000e+000
5.882072e+002;0.000000e+000
5.901357e+002;0.000000e+000
5.920643e+002;0.000000e+000
5.939928e+002;0.000000e+000
5.959213e+002;0.000000e+000
5.978499e+002;0.000000e+000
5.997784e+002;7.976854e-002
6.017070e+002;8.038726e-002
6.036355e+002;8.223596e-002
6.055641e+002;7.968068e-002
6.074926e+002;7.803057e-002
6.094211e+002;8.052775e-002
6.113497e+002;8.104400e-002
6.132783e+002;7.805301e-002
6.152068e+002;7.694113e-002
6.171354e+002;7.625651e-002
6.190639e+002;7.686163e-002
6.209924e+002;8.127475e-002
6.229210e+002;8.481942e-002
6.248495e+002;8.537028e-002
6.267781e+002;8.635488e-002
6.287067e+002;9.188984e-002
6.306352e+002;1.004191e-001
6.325637e+002;1.024857e-001
6.344923e+002;9.701556e-002
6.364208e+002;9.189242e-002
6.383494e+002;8.731166e-002
6.402780e+002;8.451911e-002
6.422065e+002;8.297307e-002
6.441350e+002;8.285517e-002
6.460636e+002;8.496103e-002
6.479921e+002;8.629376e-002
6.499207e+002;8.951918e-002
6.518492e+002;9.220897e-002
6.537778e+002;9.150132e-002
6.557063e+002;9.296716e-002
6.576349e+002;9.652355e-002
6.595634e+002;9.723945e-002
6.614919e+002;9.703768e-002
6.634205e+002;9.954506e-002
6.653491e+002;1.026485e-001
6.672776e+002;1.055476e-001
6.692062e+002;1.073919e-001
6.711347e+002;1.087753e-001
6.730632e+002;1.122159e-001
6.749918e+002;1.163810e-001
6.769203e+002;1.205423e-001
6.788489e+002;1.260993e-001
6.807775e+002;1.297636e-001
6.827060e+002;1.305239e-001
6.846345e+002;1.311262e-001
6.865631e+002;1.322089e-001
6.884916e+002;1.325946e-001
6.904202e+002;1.338886e-001
6.923488e+002;1.385925e-001
6.942773e+002;1.462270e-001
6.962058e+002;1.567687e-001
6.981344e+002;1.702899e-001
7.000629e+002;1.866463e-001
7.019915e+002;2.021230e-001
7.039200e+002;2.162262e-001
7.058486e+002;2.298733e-001
7.077771e+002;2.443257e-001
7.097057e+002;2.618147e-001
7.116342e+002;2.830984e-001
7.135627e+002;3.085876e-001
7.154913e+002;3.432489e-001
7.174199e+002;3.891000e-001
7.193484e+002;4.409025e-001
7.212770e+002;4.886518e-001
7.232055e+002;5.215292e-001
7.251340e+002;5.167107e-001
7.270626e+002;4.713871e-001
7.289911e+002;4.095828e-001
7.309197e+002;3.477374e-001
7.328483e+002;2.927921e-001
7.347768e+002;2.456020e-001
7.367053e+002;2.026653e-001
7.386339e+002;1.647810e-001
7.405624e+002;1.350051e-001
7.424910e+002;1.139918e-001
7.444196e+002;1.005107e-001
7.463481e+002;9.257078e-002
7.482766e+002;8.836061e-002
7.502052e+002;8.641253e-002
7.521337e+002;8.554886e-002
7.540623e+002;8.459761e-002
7.559908e+002;8.311412e-002
7.579194e+002;8.300837e-002
7.598479e+002;8.366872e-002
7.617765e+002;8.412980e-002
7.637050e+002;8.492831e-002
7.656335e+002;8.688932e-002
7.675621e+002;8.931454e-002
7.694907e+002;9.165412e-002
7.714192e+002;9.337627e-002
7.733478e+002;9.539211e-002
7.752763e+002;9.808940e-002
7.772048e+002;1.003624e-001
7.791334e+002;1.024237e-001
7.810620e+002;1.048688e-001
7.829905e+002;1.078588e-001
7.849191e+002;1.114633e-001
7.868476e+002;1.169595e-001
7.887761e+002;1.235161e-001
7.907047e+002;1.289350e-001
7.926332e+002;1.301749e-001
7.945618e+002;1.248092e-001
7.964903e+002;1.148239e-001
7.984189e+002;1.069875e-001
8.003474e+002;1.043460e-001
8.022759e+002;1.051548e-001
8.042045e+002;1.064126e-001
8.061331e+002;1.067995e-001
8.080616e+002;1.071969e-001
8.099902e+002;1.077232e-001
8.119187e+002;1.086185e-001
8.138472e+002;1.091438e-001
8.157758e+002;1.088997e-001
8.177043e+002;1.095454e-001
8.196329e+002;1.106470e-001
8.215615e+002;1.114611e-001
8.234900e+002;1.128183e-001
8.254185e+002;1.144521e-001
8.273471e+002;1.170987e-001
8.292756e+002;1.196041e-001
8.312042e+002;1.220452e-001
8.331328e+002;1.261314e-001
8.350613e+002;1.316922e-001
8.369898e+002;1.366402e-001
8.389184e+002;1.414917e-001
8.408469e+002;1.468664e-001
8.427755e+002;1.520980e-001
8.447040e+002;1.568370e-001
8.466326e+002;1.602584e-001
8.485611e+002;1.601941e-001
8.504897e+002;1.571107e-001
8.524182e+002;1.537004e-001
8.543467e+002;1.515507e-001
8.562753e+002;1.504619e-001
8.582039e+002;1.503149e-001
8.601324e+002;1.513536e-001
8.620610e+002;1.539141e-001
8.639895e+002;1.594441e-001
8.659180e+002;1.688915e-001
8.678466e+002;1.856274e-001
8.697751e+002;2.113430e-001
8.717037e+002;2.331185e-001
8.736323e+002;2.316283e-001
8.755608e+002;2.126886e-001
8.774893e+002;1.924834e-001
8.794179e+002;1.748540e-001
8.813464e+002;1.588823e-001
8.832750e+002;1.448484e-001
8.852036e+002;1.339744e-001
8.871321e+002;1.267243e-001
8.890606e+002;1.221174e-001
8.909892e+002;1.193875e-001
8.929177e+002;1.183256e-001
8.948463e+002;1.183495e-001
8.967748e+002;1.181847e-001
8.987034e+002;1.174786e-001
9.006319e+002;1.164980e-001
9.025605e+002;1.155598e-001
9.044890e+002;1.145369e-001
9.064175e+002;1.122596e-001
9.083461e+002;1.089975e-001
9.102747e+002;1.062071e-001
9.122032e+002;1.045219e-001
9.141318e+002;1.031426e-001
9.160603e+002;1.018939e-001
9.179888e+002;1.011384e-001
9.199174e+002;1.006746e-001
9.218459e+002;1.005293e-001
9.237745e+002;1.011604e-001
9.257031e+002;1.022881e-001
9.276316e+002;1.032608e-001
9.295601e+002;1.040476e-001
9.314887e+002;1.050300e-001
9.334172e+002;1.063738e-001
9.353458e+002;1.076662e-001
9.372744e+002;1.092829e-001
9.392029e+002;1.111123e-001
9.411314e+002;1.128969e-001
9.430600e+002;1.153234e-001
9.449885e+002;1.177736e-001
9.469171e+002;1.200268e-001
9.488456e+002;1.223363e-001
9.507742e+002;1.253635e-001
9.527027e+002;1.289016e-001
9.546313e+002;1.321656e-001
9.565598e+002;1.359252e-001
9.584883e+002;1.399970e-001
9.604169e+002;1.440987e-001
9.623455e+002;1.485018e-001
9.642740e+002;1.527589e-001
9.662026e+002;1.561854e-001
9.681311e+002;1.584211e-001
9.700596e+002;1.590588e-001
9.719882e+002;1.579927e-001
9.739167e+002;1.552764e-001
9.758453e+002;1.515468e-001
9.777739e+002;1.479195e-001
9.797024e+002;1.444141e-001
9.816309e+002;1.414288e-001
9.835595e+002;1.395071e-001
9.854880e+002;1.381422e-001
9.874166e+002;1.373197e-001
9.893452e+002;1.364018e-001
9.912737e+002;1.359730e-001
9.932022e+002;1.364269e-001
9.951307e+002;1.369094e-001
9.970593e+002;1.379919e-001
9.989879e+002;1.402013e-001
1.000916e+003;1.431585e-001
1.002845e+003;1.470471e-001
1.004773e+003;1.526749e-001
1.006702e+003;1.608301e-001
1.008631e+003;1.727716e-001
1.010559e+003;1.914771e-001
1.012488e+003;2.203129e-001
1.014416e+003;2.588498e-001
1.016345e+003;2.938463e-001
1.018273e+003;3.029549e-001
1.020202e+003;2.817615e-001
1.022130e+003;2.470665e-001
1.024059e+003;2.137204e-001
1.025988e+003;1.862759e-001
1.027916e+003;1.663480e-001
1.029845e+003;1.559591e-001
1.031773e+003;1.534040e-001
1.033702e+003;1.543850e-001
1.035630e+003;1.569208e-001
1.037559e+003;1.598920e-001
1.039487e+003;1.625487e-001
1.041416e+003;1.649891e-001
1.043344e+003;1.673100e-001
1.045273e+003;1.688306e-001
1.047202e+003;1.697615e-001
1.049130e+003;1.701449e-001
1.051059e+003;1.703130e-001
1.052987e+003;1.713450e-001
1.054916e+003;1.728409e-001
1.056844e+003;1.749470e-001
1.058773e+003;1.782396e-001
1.060701e+003;1.835738e-001
1.062630e+003;1.902332e-001
1.064558e+003;1.978213e-001
1.066487e+003;2.063873e-001
1.068416e+003;2.168922e-001
1.070344e+003;2.292991e-001
1.072273e+003;2.445052e-001
1.074201e+003;2.639081e-001
1.076130e+003;2.871269e-001
1.078058e+003;3.138277e-001
1.079987e+003;3.430669e-001
1.081915e+003;3.722677e-001
1.083844e+003;3.987293e-001
1.085773e+003;4.205442e-001
1.087701e+003;4.385707e-001
1.089630e+003;4.555370e-001
1.091558e+003;4.715494e-001
1.093487e+003;4.862827e-001
1.095415e+003;4.967441e-001
1.097344e+003;4.994183e-001
1.099272e+003;4.940971e-001
1.101201e+003;4.801926e-001
1.103129e+003;4.580006e-001
1.105058e+003;4.306703e-001
1.106987e+003;4.026485e-001
1.108915e+003;3.780005e-001
1.110844e+003;3.620876e-001
1.112772e+003;3.562283e-001
1.114701e+003;3.557339e-001
1.116629e+003;3.538002e-001
1.118558e+003;3.480088e-001
1.120486e+003;3.386529e-001
1.122415e+003;3.248857e-001
1.124344e+003;3.078363e-001
1.126272e+003;2.896955e-001
1.128201e+003;2.714558e-001
1.130129e+003;2.526423e-001
1.132058e+003;2.338593e-001
1.133986e+003;2.156002e-001
1.135915e+003;1.986823e-001
1.137843e+003;1.840950e-001
1.139772e+003;1.718331e-001
1.141700e+003;1.612604e-001
1.143629e+003;1.522442e-001
1.145557e+003;1.444901e-001
1.147486e+003;1.377750e-001
1.149415e+003;1.317466e-001
1.151343e+003;1.266538e-001
1.153272e+003;1.223546e-001
1.155200e+003;1.186455e-001
1.157129e+003;1.159620e-001
1.159057e+003;1.145244e-001
1.160986e+003;1.137204e-001
1.162914e+003;1.133250e-001
1.164843e+003;1.143598e-001
1.166771e+003;1.175642e-001
1.168700e+003;1.224092e-001
1.170629e+003;1.278551e-001
1.172557e+003;1.316483e-001
1.174486e+003;1.335366e-001
1.176414e+003;1.339022e-001
1.178343e+003;1.320406e-001
1.180271e+003;1.290353e-001
1.182200e+003;1.263985e-001
1.184128e+003;1.248469e-001
1.186057e+003;1.245808e-001
1.187986e+003;1.252369e-001
1.189914e+003;1.269415e-001
1.191843e+003;1.297259e-001
1.193771e+003;1.332062e-001
1.195700e+003;1.378530e-001
1.197628e+003;1.432278e-001
1.199557e+003;1.486923e-001
1.201485e+003;1.544852e-001
1.203414e+003;1.609099e-001
1.205343e+003;1.678021e-001
1.207271e+003;1.751475e-001
1.209200e+003;1.830846e-001
1.211128e+003;1.918193e-001
1.213057e+003;2.011494e-001
1.214985e+003;2.114754e-001
1.216914e+003;2.234476e-001
1.218842e+003;2.362406e-001
1.220771e+003;2.495662e-001
1.222699e+003;2.635115e-001
1.224628e+003;2.782682e-001
1.226557e+003;2.960295e-001
1.228485e+003;3.179756e-001
1.230414e+003;3.448312e-001
1.232342e+003;3.777359e-001
1.234271e+003;4.161791e-001
1.236199e+003;4.577402e-001
1.238128e+003;4.982568e-001
1.240056e+003;5.329960e-001
1.241985e+003;5.569899e-001
1.243913e+003;5.674658e-001
1.245842e+003;5.658340e-001
1.247771e+003;5.555139e-001
1.249699e+003;5.402275e-001
1.251628e+003;5.232531e-001
1.253556e+003;5.074412e-001
1.255485e+003;4.945146e-001
1.257413e+003;4.828248e-001
1.259342e+003;4.708923e-001
1.261270e+003;4.571649e-001
1.263199e+003;4.388608e-001
1.265127e+003;4.162028e-001
1.267056e+003;3.913018e-001
1.268985e+003;3.658823e-001
1.270913e+003;3.417115e-001
1.272842e+003;3.202813e-001
1.274770e+003;3.020215e-001
1.276699e+003;2.865260e-001
1.278627e+003;2.732227e-001
1.280556e+003;2.613436e-001
1.282484e+003;2.502563e-001
1.284413e+003;2.396426e-001
1.286342e+003;2.294317e-001
1.288270e+003;2.188170e-001
1.290199e+003;2.071490e-001
1.292127e+003;1.954135e-001
1.294056e+003;1.841390e-001
1.295984e+003;1.728708e-001
1.297913e+003;1.618952e-001
1.299841e+003;1.517965e-001
1.301770e+003;1.427543e-001
1.303698e+003;1.355174e-001
1.305627e+003;1.297631e-001
1.307556e+003;1.242818e-001
1.309484e+003;1.188625e-001
1.311413e+003;1.138580e-001
1.313341e+003;1.094647e-001
1.315270e+003;1.058376e-001
1.317198e+003;1.030817e-001
1.319127e+003;1.007646e-001
1.321055e+003;9.864864e-002
1.322984e+003;9.744339e-002
1.324912e+003;9.783407e-002
1.326841e+003;1.008988e-001
1.328770e+003;1.082423e-001
1.330698e+003;1.214318e-001
1.332627e+003;1.406819e-001
1.334555e+003;1.626036e-001
1.336484e+003;1.804752e-001
1.338412e+003;1.876445e-001
1.340341e+003;1.820367e-001
1.342269e+003;1.668648e-001
1.344198e+003;1.472346e-001
1.346126e+003;1.283635e-001
1.348055e+003;1.132579e-001
1.349984e+003;1.023596e-001
1.351912e+003;9.490725e-002
1.353841e+003;9.022785e-002
1.355769e+003;8.721436e-002
1.357698e+003;8.562142e-002
1.359626e+003;8.539791e-002
1.361555e+003;8.646683e-002
1.363483e+003;8.866607e-002
1.365412e+003;9.146070e-002
1.367341e+003;9.400042e-002
1.369269e+003;9.550896e-002
1.371198e+003;9.618602e-002
1.373126e+003;9.623593e-002
1.375055e+003;9.562837e-002
1.376983e+003;9.493896e-002
1.378912e+003;9.439210e-002
1.380840e+003;9.417066e-002
1.382769e+003;9.434808e-002
1.384698e+003;9.479897e-002
1.386626e+003;9.549423e-002
1.388555e+003;9.637320e-002
1.390483e+003;9.744106e-002
1.392412e+003;9.911329e-002
1.394340e+003;1.018983e-001
1.396269e+003;1.062548e-001
1.398197e+003;1.122334e-001
1.400126e+003;1.206357e-001
1.402054e+003;1.323927e-001
1.403983e+003;1.474311e-001
1.405911e+003;1.632175e-001
1.407840e+003;1.738088e-001
1.409769e+003;1.725341e-001
1.411697e+003;1.580353e-001
1.413626e+003;1.360672e-001
1.415554e+003;1.145692e-001
1.417483e+003;9.807113e-002
1.419411e+003;8.727629e-002
1.421340e+003;8.106653e-002
1.423268e+003;7.784950e-002
1.425197e+003;7.662906e-002
1.427125e+003;7.674078e-002
1.429054e+003;7.772774e-002
1.430983e+003;7.968406e-002
1.432911e+003;8.224425e-002
1.434840e+003;8.474338e-002
1.436768e+003;8.702590e-002
1.438697e+003;8.913183e-002
1.440625e+003;9.094459e-002
1.442554e+003;9.269767e-002
1.444482e+003;9.429353e-002
1.446411e+003;9.579908e-002
1.448340e+003;9.761427e-002
1.450268e+003;9.955969e-002
1.452197e+003;1.010085e-001
1.454125e+003;1.018652e-001
1.456054e+003;1.020434e-001
1.457982e+003;1.017180e-001
1.459911e+003;1.011573e-001
1.461839e+003;1.003328e-001
1.463768e+003;9.933585e-002
1.465697e+003;9.887370e-002
1.467625e+003;9.993635e-002
1.469554e+003;1.020844e-001
1.471482e+003;1.027604e-001
1.473411e+003;1.010925e-001
1.475339e+003;9.835009e-002
1.477268e+003;9.523658e-002
1.479196e+003;9.182721e-002
1.481125e+003;8.819130e-002
1.483053e+003;8.432840e-002
1.484982e+003;8.058997e-002
1.486911e+003;7.729364e-002
1.488839e+003;7.465743e-002
1.490768e+003;7.265976e-002
1.492696e+003;7.171804e-002
1.494625e+003;7.235667e-002
1.496553e+003;7.464940e-002
1.498482e+003;7.898395e-002
1.500410e+003;8.619504e-002
1.502339e+003;9.548692e-002
1.504267e+003;1.023672e-001
1.506196e+003;1.010481e-001
1.508125e+003;9.244840e-002
1.510053e+003;8.305378e-002
1.511982e+003;7.655440e-002
1.513910e+003;7.286717e-002
1.515839e+003;7.120132e-002
1.517767e+003;7.068361e-002
1.519696e+003;7.068419e-002
1.521624e+003;7.092135e-002
1.523553e+003;7.142022e-002
1.525481e+003;7.167213e-002
1.527410e+003;7.144283e-002
1.529339e+003;7.084213e-002
1.531267e+003;7.018435e-002
1.533196e+003;6.958395e-002
1.535124e+003;6.890760e-002
1.537053e+003;6.839793e-002
1.538981e+003;6.791462e-002
1.540910e+003;6.771006e-002
1.542838e+003;6.761552e-002
1.544767e+003;6.764110e-002
1.546695e+003;6.806733e-002
1.548624e+003;6.845604e-002
1.550553e+003;6.878456e-002
1.552481e+003;6.913728e-002
1.554410e+003;6.945069e-002
1.556338e+003;6.985138e-002
1.558267e+003;7.018131e-002
1.560195e+003;7.077462e-002
1.562124e+003;7.170366e-002
1.564052e+003;7.268060e-002
1.565981e+003;7.384983e-002
1.567910e+003;7.547445e-002
1.569838e+003;7.760075e-002
1.571767e+003;8.041470e-002
1.573695e+003;8.392925e-002
1.575624e+003;8.696849e-002
1.577552e+003;8.871943e-002
1.579481e+003;8.876373e-002
1.581409e+003;8.660857e-002
1.583338e+003;8.305699e-002
1.585266e+003;7.971220e-002
1.587195e+003;7.715648e-002
1.589124e+003;7.529704e-002
1.591052e+003;7.421950e-002
1.592981e+003;7.397703e-002
1.594909e+003;7.415201e-002
1.596838e+003;7.465880e-002
1.598766e+003;7.528266e-002
1.600695e+003;7.614725e-002
1.602623e+003;7.763859e-002
1.604552e+003;7.932623e-002
1.606480e+003;8.107439e-002
1.608409e+003;8.313017e-002
1.610338e+003;8.501176e-002
1.612266e+003;8.664680e-002
1.614195e+003;8.734743e-002
1.616123e+003;8.659454e-002
1.618052e+003;8.520754e-002
1.619980e+003;8.385035e-002
1.621909e+003;8.284518e-002
1.623837e+003;8.246987e-002
1.625766e+003;8.268722e-002
1.627694e+003;8.328030e-002
1.629623e+003;8.401585e-002
1.631552e+003;8.492521e-002
1.633480e+003;8.558837e-002
1.635409e+003;8.612166e-002
1.637337e+003;8.699622e-002
1.639266e+003;8.804632e-002
1.641194e+003;8.912471e-002
1.643123e+003;9.029499e-002
1.645051e+003;9.126090e-002
1.646980e+003;9.235609e-002
1.648909e+003;9.382422e-002
1.650837e+003;9.551945e-002
1.652766e+003;9.718984e-002
1.654694e+003;9.918410e-002
1.656623e+003;1.014504e-001
1.658551e+003;1.039392e-001
1.660480e+003;1.067173e-001
1.662408e+003;1.098817e-001
1.664337e+003;1.134855e-001
1.666266e+003;1.173239e-001
1.668194e+003;1.211390e-001
1.670123e+003;1.248690e-001
1.672051e+003;1.287088e-001
1.673980e+003;1.327872e-001
1.675908e+003;1.372915e-001
1.677837e+003;1.420484e-001
1.679765e+003;1.469681e-001
1.681694e+003;1.517680e-001
1.683622e+003;1.559381e-001
1.685551e+003;1.602087e-001
1.687479e+003;1.653415e-001
1.689408e+003;1.717992e-001
1.691337e+003;1.798464e-001
1.693265e+003;1.897689e-001
1.695194e+003;2.021667e-001
1.697122e+003;2.181300e-001
1.699051e+003;2.379983e-001
1.700979e+003;2.634583e-001
1.702908e+003;2.950862e-001
1.704836e+003;3.343413e-001
1.706765e+003;3.823575e-001
1.708693e+003;4.360391e-001
1.710622e+003;4.874644e-001
1.712551e+003;5.260308e-001
1.714479e+003;5.424779e-001
1.716408e+003;5.355619e-001
1.718336e+003;5.095637e-001
1.720265e+003;4.750490e-001
1.722193e+003;4.378547e-001
1.724122e+003;4.007391e-001
1.726050e+003;3.649949e-001
1.727979e+003;3.306993e-001
1.729908e+003;2.980731e-001
1.731836e+003;2.679464e-001
1.733765e+003;2.394151e-001
1.735693e+003;2.126000e-001
1.737622e+003;1.881854e-001
1.739550e+003;1.652887e-001
1.741479e+003;1.436014e-001
1.743407e+003;1.241697e-001
1.745336e+003;1.080598e-001
1.747265e+003;9.525378e-002
1.749193e+003;8.540170e-002
1.751122e+003;7.803918e-002
1.753050e+003;7.293693e-002
1.754979e+003;6.946791e-002
1.756907e+003;6.688069e-002
1.758836e+003;6.499662e-002
1.760764e+003;6.367125e-002
1.762693e+003;6.275623e-002
1.764621e+003;6.203236e-002
1.766550e+003;6.124026e-002
1.768479e+003;6.053654e-002
1.770407e+003;6.015635e-002
1.772336e+003;5.973431e-002
1.774264e+003;5.942863e-002
1.776193e+003;5.941844e-002
1.778121e+003;5.933499e-002
1.780050e+003;5.913561e-002
1.781978e+003;5.896240e-002
1.783907e+003;5.879135e-002
1.785835e+003;5.875918e-002
1.787764e+003;5.877367e-002
1.789693e+003;5.859681e-002
1.791621e+003;5.838943e-002
1.793550e+003;5.829594e-002
1.795478e+003;5.825710e-002
1.797407e+003;5.832997e-002
1.799335e+003;5.844929e-002
1.801264e+003;5.848962e-002
1.803192e+003;5.860970e-002
1.805121e+003;5.867046e-002
1.807049e+003;5.874765e-002
1.808978e+003;5.879248e-002
1.810907e+003;5.866492e-002
1.812835e+003;5.868779e-002
1.814764e+003;5.883384e-002
1.816692e+003;5.876278e-002
1.818621e+003;5.867869e-002
1.820549e+003;5.857721e-002
1.822478e+003;5.843780e-002
1.824406e+003;5.849918e-002
1.826335e+003;5.844804e-002
1.828264e+003;5.803838e-002
1.830192e+003;5.755741e-002
1.832121e+003;5.708684e-002
1.834049e+003;5.675982e-002
1.835978e+003;5.634670e-002
1.837906e+003;5.582547e-002
1.839835e+003;5.528312e-002
1.841763e+003;5.458181e-002
1.843692e+003;5.365944e-002
1.845620e+003;5.285932e-002
1.847549e+003;5.227495e-002
1.849478e+003;5.156833e-002
1.851406e+003;5.070040e-002
1.853335e+003;4.999912e-002
1.855263e+003;4.940510e-002
1.857192e+003;4.884709e-002
1.859120e+003;4.824346e-002
1.861049e+003;4.760119e-002
1.862977e+003;4.705135e-002
1.864906e+003;4.665329e-002
1.866834e+003;4.607282e-002
1.868763e+003;4.557080e-002
1.870692e+003;4.556429e-002
1.872620e+003;4.551049e-002
1.874549e+003;4.508495e-002
1.876477e+003;4.489116e-002
1.878406e+003;4.465945e-002
1.880334e+003;4.449904e-002
1.882263e+003;4.453800e-002
1.884191e+003;4.440427e-002
1.886120e+003;4.431473e-002
1.888048e+003;4.433440e-002
1.889977e+003;4.431069e-002
1.891906e+003;4.427004e-002
1.893834e+003;4.433781e-002
1.895763e+003;4.451868e-002
1.897691e+003;4.479017e-002
1.899620e+003;4.491560e-002
1.901548e+003;4.510778e-002
1.903477e+003;4.541506e-002
1.905405e+003;4.557437e-002
1.907334e+003;4.577615e-002
1.909262e+003;4.585573e-002
1.911191e+003;4.591977e-002
1.913120e+003;4.611722e-002
1.915048e+003;4.665329e-002
1.916977e+003;4.716591e-002
1.918905e+003;4.746493e-002
1.920834e+003;4.780865e-002
1.922762e+003;4.818366e-002
1.924691e+003;4.881587e-002
1.926619e+003;4.962238e-002
1.928548e+003;5.006132e-002
1.930477e+003;5.067712e-002
1.932405e+003;5.168935e-002
1.934334e+003;5.249561e-002
1.936262e+003;5.310743e-002
1.938191e+003;5.389375e-002
1.940119e+003;5.497096e-002
1.942048e+003;5.581379e-002
1.943976e+003;5.630588e-002
1.945905e+003;5.680117e-002
1.947833e+003;5.728410e-002
1.949762e+003;5.775806e-002
1.951691e+003;5.806924e-002
1.953619e+003;5.834824e-002
1.955548e+003;5.856272e-002
1.957476e+003;5.870910e-002
1.959405e+003;5.849789e-002
1.961333e+003;5.816682e-002
1.963262e+003;5.761393e-002
1.965190e+003;5.685858e-002
1.967119e+003;5.611577e-002
1.969047e+003;5.518175e-002
1.970976e+003;5.405046e-002
1.972905e+003;5.323992e-002
1.974833e+003;5.261745e-002
1.976762e+003;5.217005e-002
1.978690e+003;5.150804e-002
1.980619e+003;5.089396e-002
1.982547e+003;5.054023e-002
1.984476e+003;5.012465e-002
1.986404e+003;4.960403e-002
1.988333e+003;4.925388e-002
1.990261e+003;4.894862e-002
1.992190e+003;4.842452e-002
1.994119e+003;4.779215e-002
1.996047e+003;4.734730e-002
1.997976e+003;4.690685e-002
1.999904e+003;4.644505e-002
2.001833e+003;4.593829e-002
2.003761e+003;4.536562e-002
2.005690e+003;4.488139e-002
2.007618e+003;4.450000e-002
2.009547e+003;4.415103e-002
2.011476e+003;4.378080e-002
2.013404e+003;4.339957e-002
2.015333e+003;4.315109e-002
2.017261e+003;4.307552e-002
2.019190e+003;4.283118e-002
2.021118e+003;4.237994e-002
2.023047e+003;4.212284e-002
2.024975e+003;4.196216e-002
2.026904e+003;4.178279e-002
2.028833e+003;4.146411e-002
2.030761e+003;4.115097e-002
2.032690e+003;4.109601e-002
2.034618e+003;4.108570e-002
2.036547e+003;4.110049e-002
2.038475e+003;4.133515e-002
2.040404e+003;4.166155e-002
2.042332e+003;4.184324e-002
2.044261e+003;4.214333e-002
2.046189e+003;4.242006e-002
2.048118e+003;4.257648e-002
2.050047e+003;4.295531e-002
2.051975e+003;4.315453e-002
2.053904e+003;4.328970e-002
2.055832e+003;4.358317e-002
2.057761e+003;4.409910e-002
2.059689e+003;4.452478e-002
2.061618e+003;4.483249e-002
2.063546e+003;4.524263e-002
2.065475e+003;4.573606e-002
2.067404e+003;4.628398e-002
2.069332e+003;4.671184e-002
2.071260e+003;4.711870e-002
2.073189e+003;4.753235e-002
2.075118e+003;4.779274e-002
2.077046e+003;4.816090e-002
2.078975e+003;4.870228e-002
2.080903e+003;4.906078e-002
2.082832e+003;4.920144e-002
2.084760e+003;4.954060e-002
2.086689e+003;4.994644e-002
2.088617e+003;5.011286e-002
2.090546e+003;5.008493e-002
2.092475e+003;5.009333e-002
2.094403e+003;5.024076e-002
2.096332e+003;5.015023e-002
2.098260e+003;5.002804e-002
2.100189e+003;5.009125e-002
2.102117e+003;5.006471e-002
2.104046e+003;5.023890e-002
2.105974e+003;5.034031e-002
2.107903e+003;5.004299e-002
2.109832e+003;4.983828e-002
2.111760e+003;4.977325e-002
2.113688e+003;4.980751e-002
2.115617e+003;4.985791e-002
2.117546e+003;4.954279e-002
2.119474e+003;4.912300e-002
2.121403e+003;4.880293e-002
2.123331e+003;4.860418e-002
2.125260e+003;4.827234e-002
2.127188e+003;4.785940e-002
2.129117e+003;4.759135e-002
2.131045e+003;4.728249e-002
2.132974e+003;4.696281e-002
2.134903e+003;4.665244e-002
2.136831e+003;4.636430e-002
2.138760e+003;4.605263e-002
2.140688e+003;4.586125e-002
2.142617e+003;4.567636e-002
2.144545e+003;4.536073e-002
2.146474e+003;4.510395e-002
2.148402e+003;4.473742e-002
2.150331e+003;4.428112e-002
2.152260e+003;4.381533e-002
2.154188e+003;4.334194e-002
2.156117e+003;4.303956e-002
2.158045e+003;4.284541e-002
2.159974e+003;4.244172e-002
2.161902e+003;4.193034e-002
2.163831e+003;4.154573e-002
2.165759e+003;4.130531e-002
2.167688e+003;4.096629e-002
2.169616e+003;4.065534e-002
2.171545e+003;4.040115e-002
2.173474e+003;4.028371e-002
2.175402e+003;4.012334e-002
2.177331e+003;3.993913e-002
2.179259e+003;3.966968e-002
2.181188e+003;3.944967e-002
2.183116e+003;3.938407e-002
2.185045e+003;3.924322e-002
2.186973e+003;3.925479e-002
2.188902e+003;3.952471e-002
2.190831e+003;3.958517e-002
2.192759e+003;3.961450e-002
2.194688e+003;3.963486e-002
2.196616e+003;3.949397e-002
2.198545e+003;3.957610e-002
2.200473e+003;3.997339e-002
2.202402e+003;4.008718e-002
2.204330e+003;4.003225e-002
2.206259e+003;4.026626e-002
2.208188e+003;4.080596e-002
2.210116e+003;4.146075e-002
2.212044e+003;4.180650e-002
2.213973e+003;4.172213e-002
2.215902e+003;4.146884e-002
2.217830e+003;4.149720e-002
2.219759e+003;4.188075e-002
2.221687e+003;4.222954e-002
2.223616e+003;4.226839e-002
2.225544e+003;4.238188e-002
2.227473e+003;4.263525e-002
2.229401e+003;4.255697e-002
2.231330e+003;4.232201e-002
2.233259e+003;4.228147e-002
2.235187e+003;4.229513e-002
2.237116e+003;4.231788e-002
2.239044e+003;4.260229e-002
2.240973e+003;4.284124e-002
2.242901e+003;4.295977e-002
2.244830e+003;4.299723e-002
2.246758e+003;4.327765e-002
2.248687e+003;4.342385e-002
2.250615e+003;4.359807e-002
2.252544e+003;4.403397e-002
2.254473e+003;4.419523e-002
2.256401e+003;4.419630e-002
2.258330e+003;4.425867e-002
2.260258e+003;4.425544e-002
2.262187e+003;4.424476e-002
2.264115e+003;4.405355e-002
2.266044e+003;4.380909e-002
2.267972e+003;4.384520e-002
2.269901e+003;4.402113e-002
2.271830e+003;4.410566e-002
2.273758e+003;4.422642e-002
2.275687e+003;4.451446e-002
2.277615e+003;4.468513e-002
2.279544e+003;4.496498e-002
2.281472e+003;4.527117e-002
2.283401e+003;4.526613e-002
2.285329e+003;4.524028e-002
2.287258e+003;4.527875e-002
2.289187e+003;4.499843e-002
2.291115e+003;4.450415e-002
2.293043e+003;4.401842e-002
2.294972e+003;4.324603e-002
2.296901e+003;4.253380e-002
2.298829e+003;4.214657e-002
2.300758e+003;4.168667e-002
2.302686e+003;4.104451e-002
2.304615e+003;4.053826e-002
2.306543e+003;4.003511e-002
2.308472e+003;3.969019e-002
2.310400e+003;3.970268e-002
2.312329e+003;3.958282e-002
2.314258e+003;3.945115e-002
2.316186e+003;3.957497e-002
2.318115e+003;3.991316e-002
2.320043e+003;4.039762e-002
2.321972e+003;4.064311e-002
2.323900e+003;4.077251e-002
2.325829e+003;4.087822e-002
2.327757e+003;4.081554e-002
2.329686e+003;4.066669e-002
2.331615e+003;4.075661e-002
2.333543e+003;4.070992e-002
2.335472e+003;4.073590e-002
2.337400e+003;4.112792e-002
2.339329e+003;4.139576e-002
2.341257e+003;4.155423e-002
2.343186e+003;4.161673e-002
2.345114e+003;4.155339e-002
2.347043e+003;4.166822e-002
2.348971e+003;4.216848e-002
2.350900e+003;4.275480e-002
2.352829e+003;4.297733e-002
2.354757e+003;4.320654e-002
2.356686e+003;4.346468e-002
2.358614e+003;4.379627e-002
2.360543e+003;4.430189e-002
2.362471e+003;4.479520e-002
2.364400e+003;4.515112e-002
2.366328e+003;4.535521e-002
2.368257e+003;4.566447e-002
2.370186e+003;4.596702e-002
2.372114e+003;4.608325e-002
2.374042e+003;4.611567e-002
2.375971e+003;4.617905e-002
2.377900e+003;4.628059e-002
2.379828e+003;4.642304e-002
2.381757e+003;4.641670e-002
2.383685e+003;4.615690e-002
2.385614e+003;4.613225e-002
2.387542e+003;4.614330e-002
2.389471e+003;4.601645e-002
2.391399e+003;4.587892e-002
2.393328e+003;4.573323e-002
2.395257e+003;4.593553e-002
2.397185e+003;4.615093e-002
2.399114e+003;4.589554e-002
2.401042e+003;4.557566e-002
2.402971e+003;4.530203e-002
2.404899e+003;4.505213e-002
2.406828e+003;4.482073e-002
2.408756e+003;4.445488e-002
2.410685e+003;4.401978e-002
2.412614e+003;4.376666e-002
2.414542e+003;4.347244e-002
2.416471e+003;4.312335e-002
2.418399e+003;4.299676e-002
2.420328e+003;4.274251e-002
2.422256e+003;4.237333e-002
2.424185e+003;4.220314e-002
2.426113e+003;4.193435e-002
2.428042e+003;4.130633e-002
2.429970e+003;4.089904e-002
2.431899e+003;4.073408e-002
2.433828e+003;4.048774e-002
2.435756e+003;4.033577e-002
2.437685e+003;4.005859e-002
2.439613e+003;3.961512e-002
2.441542e+003;3.946792e-002
2.443470e+003;3.928083e-002
2.445399e+003;3.900834e-002
2.447327e+003;3.891751e-002
2.449256e+003;3.881431e-002
2.451185e+003;3.874787e-002
2.453113e+003;3.864152e-002
2.455042e+003;3.876131e-002
2.456970e+003;3.887700e-002
2.458899e+003;3.866416e-002
2.460827e+003;3.854038e-002
2.462756e+003;3.832937e-002
2.464684e+003;3.816578e-002
2.466613e+003;3.839969e-002
2.468542e+003;3.845088e-002
2.470470e+003;3.849240e-002
2.472398e+003;3.877439e-002
2.474327e+003;3.912729e-002
2.476256e+003;3.925515e-002
2.478184e+003;3.913802e-002
2.480113e+003;3.918719e-002
2.482041e+003;3.947303e-002
2.483970e+003;3.987059e-002
2.485898e+003;4.009322e-002
2.487827e+003;4.042180e-002
2.489755e+003;4.060597e-002
2.491684e+003;4.063853e-002
2.493613e+003;4.075443e-002
2.495541e+003;4.097823e-002
2.497470e+003;4.122653e-002
2.499398e+003;4.150016e-002
2.501327e+003;4.171024e-002
2.503255e+003;4.177943e-002
2.505184e+003;4.185525e-002
2.507112e+003;4.194063e-002
2.509041e+003;4.201910e-002
2.510969e+003;4.214829e-002
2.512898e+003;4.230550e-002
2.514827e+003;4.239229e-002
2.516755e+003;4.253566e-002
2.518684e+003;4.272174e-002
2.520612e+003;4.305979e-002
2.522541e+003;4.360756e-002
2.524469e+003;4.386873e-002
2.526398e+003;4.379059e-002
2.528326e+003;4.375866e-002
2.530255e+003;4.399616e-002
2.532184e+003;4.407882e-002
2.534112e+003;4.404772e-002
2.536041e+003;4.420096e-002
2.537969e+003;4.424660e-002
2.539898e+003;4.405601e-002
2.541826e+003;4.391184e-002
2.543755e+003;4.407101e-002
2.545683e+003;4.450015e-002
2.547612e+003;4.450007e-002
2.549541e+003;4.409947e-002
2.551469e+003;4.388446e-002
2.553397e+003;4.377934e-002
2.555326e+003;4.393288e-002
2.557255e+003;4.406254e-002
2.559183e+003;4.402282e-002
2.561112e+003;4.423838e-002
2.563040e+003;4.428361e-002
2.564969e+003;4.418343e-002
2.566897e+003;4.425305e-002
2.568826e+003;4.412081e-002
2.570754e+003;4.397794e-002
2.572683e+003;4.391488e-002
2.574612e+003;4.385315e-002
2.576540e+003;4.393904e-002
2.578469e+003;4.410060e-002
2.580397e+003;4.426285e-002
2.582326e+003;4.435825e-002
2.584254e+003;4.426773e-002
2.586183e+003;4.402561e-002
2.588111e+003;4.363075e-002
2.590040e+003;4.330720e-002
2.591969e+003;4.297697e-002
2.593897e+003;4.261841e-002
2.595826e+003;4.232639e-002
2.597754e+003;4.225075e-002
2.599683e+003;4.218480e-002
2.601611e+003;4.190337e-002
2.603540e+003;4.146841e-002
2.605468e+003;4.121910e-002
2.607397e+003;4.117414e-002
2.609325e+003;4.110927e-002
2.611254e+003;4.098392e-002
2.613183e+003;4.078063e-002
2.615111e+003;4.056326e-002
2.617040e+003;4.042642e-002
2.618968e+003;4.031759e-002
2.620897e+003;4.033766e-002
2.622825e+003;4.039551e-002
2.624754e+003;4.043668e-002
2.626682e+003;4.052033e-002
2.628611e+003;4.070901e-002
2.630540e+003;4.085914e-002
2.632468e+003;4.068299e-002
2.634396e+003;4.017429e-002
2.636325e+003;3.960612e-002
2.638254e+003;3.908447e-002
2.640182e+003;3.883410e-002
2.642111e+003;3.862070e-002
2.644039e+003;3.828091e-002
2.645968e+003;3.779541e-002
2.647896e+003;3.746309e-002
2.649825e+003;3.733445e-002
2.651753e+003;3.725145e-002
2.653682e+003;3.714215e-002
2.655611e+003;3.690837e-002
2.657539e+003;3.670958e-002
2.659468e+003;3.669714e-002
2.661396e+003;3.674470e-002
2.663325e+003;3.667406e-002
2.665253e+003;3.657089e-002
2.667182e+003;3.678685e-002
2.669110e+003;3.717611e-002
2.671039e+003;3.718993e-002
2.672968e+003;3.703482e-002
2.674896e+003;3.711089e-002
2.676825e+003;3.717643e-002
2.678753e+003;3.733673e-002
2.680682e+003;3.738259e-002
2.682610e+003;3.716355e-002
2.684539e+003;3.687929e-002
2.686467e+003;3.682306e-002
2.688396e+003;3.697150e-002
2.690324e+003;3.705521e-002
2.692253e+003;3.711313e-002
2.694182e+003;3.709047e-002
2.696110e+003;3.715200e-002
2.698039e+003;3.737519e-002
2.699967e+003;3.759570e-002
2.701896e+003;3.760398e-002
2.703824e+003;3.756369e-002
2.705753e+003;3.765380e-002
2.707681e+003;3.774892e-002
2.709610e+003;3.785155e-002
2.711539e+003;3.796175e-002
2.713467e+003;3.813593e-002
2.715396e+003;3.826430e-002
2.717324e+003;3.842000e-002
2.719253e+003;3.875367e-002
2.721181e+003;3.885580e-002
2.723110e+003;3.887696e-002
2.725038e+003;3.902371e-002
2.726967e+003;3.921504e-002
2.728896e+003;3.948003e-002
2.730824e+003;3.981030e-002
2.732752e+003;4.019141e-002
2.734681e+003;4.037279e-002
2.736610e+003;4.020337e-002
2.738538e+003;4.036231e-002
2.740467e+003;4.078729e-002
2.742395e+003;4.080960e-002
2.744324e+003;4.057937e-002
2.746252e+003;4.076451e-002
2.748181e+003;4.102936e-002
2.750109e+003;4.088037e-002
2.752038e+003;4.077335e-002
2.753967e+003;4.086581e-002
2.755895e+003;4.098308e-002
2.757824e+003;4.089362e-002
2.759752e+003;4.075013e-002
2.761681e+003;4.072444e-002
2.763609e+003;4.084531e-002
2.765538e+003;4.104225e-002
2.767466e+003;4.099739e-002
2.769395e+003;4.105518e-002
2.771323e+003;4.141646e-002
2.773252e+003;4.183780e-002
2.775181e+003;4.206060e-002
2.777109e+003;4.215125e-002
2.779038e+003;4.214114e-002
2.780966e+003;4.248535e-002
2.782895e+003;4.296925e-002
2.784823e+003;4.298637e-002
2.786752e+003;4.316759e-002
2.788680e+003;4.366336e-002
2.790609e+003;4.394484e-002
2.792538e+003;4.412851e-002
2.794466e+003;4.456626e-002
2.796395e+003;4.516803e-002
2.798323e+003;4.555108e-002
2.800252e+003;4.576537e-002
2.802180e+003;4.606258e-002
2.804109e+003;4.642739e-002
2.806037e+003;4.673863e-002
2.807966e+003;4.675195e-002
2.809895e+003;4.655974e-002
2.811823e+003;4.599207e-002
2.813751e+003;4.559752e-002
2.815680e+003;4.562494e-002
2.817609e+003;4.555476e-002
2.819537e+003;4.543006e-002
2.821466e+003;4.523646e-002
2.823394e+003;4.507219e-002
2.825323e+003;4.507877e-002
2.827251e+003;4.541458e-002
2.829180e+003;4.598640e-002
2.831108e+003;4.653854e-002
2.833037e+003;4.714641e-002
2.834966e+003;4.765391e-002
2.836894e+003;4.792910e-002
2.838823e+003;4.851036e-002
2.840751e+003;4.913406e-002
2.842680e+003;4.985438e-002
2.844608e+003;5.073328e-002
2.846537e+003;5.140717e-002
2.848465e+003;5.198399e-002
2.850394e+003;5.258020e-002
2.852323e+003;5.312993e-002
2.854251e+003;5.379649e-002
2.856180e+003;5.418254e-002
2.858108e+003;5.437616e-002
2.860037e+003;5.500150e-002
2.861965e+003;5.570363e-002
2.863894e+003;5.600162e-002
2.865822e+003;5.632116e-002
2.867751e+003;5.656125e-002
2.869679e+003;5.680159e-002
2.871608e+003;5.712988e-002
2.873536e+003;5.724493e-002
2.875465e+003;5.737790e-002
2.877394e+003;5.783062e-002
2.879322e+003;5.819110e-002
2.881251e+003;5.835297e-002
2.883179e+003;5.885971e-002
2.885108e+003;5.940177e-002
2.887036e+003;5.960499e-002
2.888965e+003;5.992259e-002
2.890893e+003;6.041026e-002
2.892822e+003;6.084877e-002
2.894750e+003;6.125487e-002
2.896679e+003;6.185402e-002
2.898608e+003;6.270455e-002
2.900536e+003;6.358697e-002
2.902465e+003;6.440650e-002
2.904393e+003;6.520621e-002
2.906322e+003;6.573960e-002
2.908250e+003;6.614799e-002
2.910179e+003;6.627160e-002
2.912107e+003;6.582507e-002
2.914036e+003;6.485430e-002
2.915965e+003;6.377834e-002
2.917893e+003;6.306645e-002
2.919822e+003;6.239894e-002
2.921750e+003;6.133362e-002
2.923679e+003;6.050451e-002
2.925607e+003;5.975484e-002
2.927536e+003;5.921900e-002
2.929464e+003;5.925131e-002
2.931393e+003;5.943250e-002
2.933322e+003;5.979028e-002
2.935250e+003;6.012229e-002
2.937178e+003;6.068867e-002
2.939107e+003;6.178521e-002
2.941036e+003;6.263825e-002
2.942964e+003;6.332199e-002
2.944893e+003;6.442110e-002
2.946821e+003;6.571038e-002
2.948750e+003;6.648914e-002
2.950678e+003;6.727324e-002
2.952607e+003;6.846531e-002
2.954535e+003;6.974663e-002
2.956464e+003;7.072755e-002
2.958393e+003;7.177445e-002
2.960321e+003;7.277592e-002
2.962250e+003;7.349662e-002
2.964178e+003;7.378829e-002
2.966107e+003;7.436395e-002
2.968035e+003;7.486182e-002
2.969964e+003;7.480383e-002
2.971892e+003;7.466722e-002
2.973821e+003;7.397726e-002
2.975750e+003;7.304135e-002
2.977678e+003;7.228481e-002
2.979607e+003;7.141525e-002
2.981535e+003;7.061842e-002
2.983464e+003;6.986472e-002
2.985392e+003;6.880339e-002
2.987321e+003;6.780104e-002
2.989249e+003;6.704077e-002
2.991178e+003;6.642339e-002
2.993106e+003;6.594566e-002
2.995035e+003;6.565153e-002
2.996964e+003;6.525280e-002
2.998892e+003;6.470560e-002
3.000821e+003;6.438014e-002
3.002749e+003;6.397741e-002
3.004678e+003;6.358355e-002
3.006606e+003;6.313936e-002
3.008535e+003;6.259171e-002
3.010463e+003;6.206042e-002
3.012392e+003;6.152011e-002
3.014321e+003;6.075684e-002
3.016249e+003;6.013675e-002
3.018177e+003;5.950838e-002
3.020106e+003;5.890950e-002
3.022035e+003;5.795185e-002
3.023963e+003;5.686787e-002
3.025892e+003;5.570864e-002
3.027820e+003;5.474355e-002
3.029749e+003;5.402165e-002
3.031677e+003;5.333541e-002
3.033606e+003;5.276323e-002
3.035534e+003;5.245994e-002
3.037463e+003;5.205353e-002
3.039392e+003;5.190676e-002
3.041320e+003;5.247052e-002
3.043249e+003;5.330143e-002
3.045177e+003;5.452937e-002
3.047106e+003;5.582491e-002
3.049034e+003;5.677791e-002
3.050963e+003;5.783210e-002
3.052891e+003;5.883903e-002
3.054820e+003;5.913777e-002
3.056749e+003;5.881305e-002
3.058677e+003;5.858539e-002
3.060606e+003;5.866192e-002
3.062534e+003;5.856393e-002
3.064463e+003;5.843287e-002
3.066391e+003;5.823387e-002
3.068320e+003;5.835874e-002
3.070248e+003;5.884256e-002
3.072177e+003;5.885140e-002
3.074105e+003;5.858509e-002
3.076034e+003;5.846930e-002
3.077963e+003;5.846164e-002
3.079891e+003;5.803800e-002
3.081820e+003;5.754878e-002
3.083748e+003;5.752703e-002
3.085677e+003;5.754973e-002
3.087605e+003;5.712909e-002
3.089534e+003;5.650396e-002
3.091462e+003;5.580663e-002
3.093391e+003;5.499243e-002
3.095320e+003;5.498104e-002
3.097248e+003;5.565154e-002
3.099177e+003;5.596543e-002
3.101105e+003;5.606306e-002
3.103034e+003;5.627959e-002
3.104962e+003;5.628977e-002
3.106891e+003;5.621008e-002
3.108819e+003;5.611064e-002
3.110748e+003;5.570480e-002
3.112677e+003;5.501789e-002
3.114605e+003;5.424909e-002
3.116533e+003;5.336073e-002
3.118462e+003;5.262942e-002
3.120391e+003;5.227087e-002
3.122319e+003;5.177075e-002
3.124248e+003;5.139595e-002
3.126176e+003;5.141888e-002
3.128105e+003;5.123981e-002
3.130033e+003;5.096784e-002
3.131962e+003;5.070557e-002
3.133890e+003;5.021052e-002
3.135819e+003;4.960024e-002
3.137748e+003;4.906179e-002
3.139676e+003;4.870406e-002
3.141605e+003;4.818078e-002
3.143533e+003;4.770376e-002
3.145462e+003;4.728485e-002
3.147390e+003;4.687950e-002
3.149319e+003;4.629920e-002
3.151247e+003;4.588054e-002
3.153176e+003;4.575182e-002
3.155104e+003;4.549224e-002
3.157033e+003;4.523579e-002
3.158962e+003;4.517983e-002
3.160890e+003;4.508182e-002
3.162819e+003;4.495602e-002
3.164747e+003;4.494481e-002
3.166676e+003;4.439668e-002
3.168604e+003;4.431767e-002
3.170533e+003;4.479278e-002
3.172461e+003;4.498538e-002
3.174390e+003;4.465608e-002
3.176319e+003;4.442776e-002
3.178247e+003;4.447151e-002
3.180176e+003;4.454486e-002
3.182104e+003;4.434500e-002
3.184033e+003;4.412620e-002
3.185961e+003;4.401476e-002
3.187890e+003;4.411278e-002
3.189818e+003;4.419370e-002
3.191747e+003;4.396020e-002
3.193676e+003;4.400728e-002
3.195604e+003;4.403694e-002
3.197532e+003;4.380294e-002
3.199461e+003;4.367549e-002
3.201390e+003;4.369978e-002
3.203318e+003;4.359298e-002
3.205247e+003;4.332631e-002
3.207175e+003;4.320408e-002
3.209104e+003;4.326946e-002
3.211032e+003;4.353111e-002
3.212961e+003;4.346607e-002
3.214889e+003;4.325287e-002
3.216818e+003;4.315018e-002
3.218747e+003;4.314750e-002
3.220675e+003;4.327725e-002
3.222604e+003;4.333077e-002
3.224532e+003;4.308632e-002
3.226461e+003;4.317586e-002
3.228389e+003;4.338141e-002
3.230318e+003;4.330368e-002
3.232246e+003;4.324625e-002
3.234175e+003;4.300502e-002
3.236104e+003;4.273611e-002
3.238032e+003;4.275728e-002
3.239961e+003;4.298004e-002
3.241889e+003;4.297280e-002
3.243818e+003;4.278196e-002
3.245746e+003;4.240069e-002
3.247675e+003;4.230064e-002
3.249603e+003;4.229520e-002
3.251532e+003;4.231080e-002
3.253460e+003;4.215625e-002
3.255389e+003;4.181672e-002
3.257318e+003;4.183459e-002
3.259246e+003;4.198257e-002
3.261175e+003;4.207995e-002
3.263103e+003;4.189016e-002
3.265032e+003;4.176543e-002
3.266960e+003;4.176484e-002
3.268889e+003;4.145991e-002
3.270817e+003;4.153428e-002
3.272746e+003;4.184116e-002
3.274675e+003;4.170009e-002
3.276603e+003;4.151529e-002
3.278531e+003;4.178111e-002
3.280460e+003;4.206195e-002
3.282389e+003;4.220492e-002
3.284317e+003;4.216344e-002
3.286246e+003;4.201333e-002
3.288174e+003;4.199837e-002
3.290103e+003;4.228987e-002
3.292031e+003;4.251315e-002
3.293960e+003;4.259001e-002
3.295888e+003;4.259677e-002
3.297817e+003;4.244990e-002
3.299746e+003;4.266069e-002
3.301674e+003;4.279787e-002
3.303603e+003;4.217582e-002
3.305531e+003;4.199468e-002
3.307460e+003;4.218645e-002
3.309388e+003;4.187276e-002
3.311317e+003;4.164539e-002
3.313245e+003;4.182481e-002
3.315174e+003;4.191830e-002
3.317103e+003;4.182580e-002
3.319031e+003;4.177524e-002
3.320960e+003;4.190505e-002
3.322888e+003;4.202757e-002
3.324817e+003;4.201381e-002
3.326745e+003;4.221551e-002
3.328674e+003;4.236427e-002
3.330602e+003;4.226748e-002
3.332531e+003;4.215304e-002
3.334459e+003;4.222618e-002
3.336388e+003;4.252155e-002
3.338317e+003;4.248257e-002
3.340245e+003;4.241837e-002
3.342174e+003;4.247274e-002
3.344102e+003;4.210766e-002
3.346031e+003;4.176641e-002
3.347959e+003;4.155156e-002
3.349888e+003;4.108140e-002
3.351816e+003;4.070861e-002
3.353745e+003;4.028222e-002
3.355674e+003;4.015409e-002
3.357602e+003;3.996118e-002
3.359531e+003;3.949223e-002
3.361459e+003;3.917304e-002
3.363388e+003;3.899609e-002
3.365316e+003;3.887834e-002
3.367245e+003;3.897271e-002
3.369173e+003;3.866658e-002
3.371102e+003;3.878402e-002
3.373031e+003;3.910727e-002
3.374959e+003;3.876801e-002
3.376887e+003;3.887062e-002
3.378816e+003;3.903027e-002
3.380745e+003;3.884428e-002
3.382673e+003;3.891505e-002
3.384602e+003;3.909904e-002
3.386530e+003;3.925167e-002
3.388459e+003;3.947358e-002
3.390387e+003;3.942452e-002
3.392316e+003;3.938954e-002
3.394244e+003;3.982759e-002
3.396173e+003;4.002476e-002
3.398102e+003;4.010731e-002
3.400030e+003;4.071229e-002
3.401959e+003;4.154387e-002
3.403887e+003;4.233234e-002
3.405816e+003;4.318970e-002
3.407744e+003;4.399990e-002
3.409673e+003;4.458135e-002
3.411601e+003;4.537467e-002
3.413530e+003;4.640722e-002
3.415458e+003;4.711339e-002
3.417387e+003;4.778157e-002
3.419316e+003;4.926980e-002
3.421244e+003;5.054064e-002
3.423173e+003;5.111005e-002
3.425101e+003;5.166692e-002
3.427030e+003;5.254381e-002
3.428958e+003;5.309806e-002
3.430887e+003;5.304449e-002
3.432815e+003;5.302030e-002
3.434744e+003;5.266308e-002
3.436673e+003;5.227311e-002
3.438601e+003;5.189971e-002
3.440530e+003;5.112011e-002
3.442458e+003;5.021175e-002
3.444387e+003;4.927303e-002
3.446315e+003;4.875262e-002
3.448244e+003;4.831926e-002
3.450172e+003;4.743584e-002
3.452101e+003;4.629835e-002
3.454030e+003;4.544228e-002
3.455958e+003;4.508495e-002
3.457886e+003;4.442361e-002
3.459815e+003;4.356001e-002
3.461744e+003;4.281026e-002
3.463672e+003;4.229224e-002
3.465601e+003;4.169586e-002
3.467529e+003;4.112387e-002
3.469458e+003;4.076476e-002
3.471386e+003;4.044344e-002
3.473315e+003;3.983678e-002
3.475243e+003;3.965705e-002
3.477172e+003;3.919230e-002
3.479101e+003;3.849280e-002
3.481029e+003;3.853006e-002
3.482958e+003;3.849291e-002
3.484886e+003;3.804775e-002
3.486815e+003;3.798359e-002
3.488743e+003;3.765095e-002
3.490672e+003;3.732275e-002
3.492600e+003;3.771426e-002
3.494529e+003;3.787139e-002
3.496458e+003;3.765937e-002
3.498386e+003;3.807921e-002
3.500315e+003;3.839720e-002
3.502243e+003;3.800442e-002
3.504172e+003;3.801129e-002
3.506100e+003;3.847626e-002
3.508029e+003;3.845555e-002
3.509957e+003;3.824679e-002
3.511886e+003;3.877250e-002
3.513814e+003;3.932207e-002
3.515743e+003;3.940399e-002
3.517672e+003;3.926618e-002
3.519600e+003;3.944861e-002
3.521529e+003;3.979523e-002
3.523457e+003;3.978020e-002
3.525386e+003;4.009809e-002
3.527314e+003;4.020690e-002
3.529243e+003;4.013650e-002
3.531171e+003;4.058243e-002
3.533100e+003;4.097030e-002
3.535029e+003;4.090815e-002
3.536957e+003;4.097503e-002
3.538885e+003;4.079970e-002
3.540814e+003;4.059872e-002
3.542743e+003;4.065821e-002
3.544671e+003;4.094397e-002
3.546600e+003;4.102324e-002
3.548528e+003;4.083730e-002
3.550457e+003;4.095216e-002
3.552385e+003;4.129634e-002
3.554314e+003;4.096564e-002
3.556242e+003;4.049036e-002
3.558171e+003;4.025405e-002
3.560100e+003;3.979578e-002
3.562028e+003;3.974033e-002
3.563957e+003;3.975373e-002
3.565885e+003;3.937670e-002
3.567814e+003;3.880761e-002
3.569742e+003;3.834185e-002
3.571671e+003;3.788213e-002
3.573599e+003;3.808609e-002
3.575528e+003;3.804605e-002
3.577457e+003;3.749458e-002
3.579385e+003;3.716889e-002
3.581314e+003;3.653297e-002
3.583242e+003;3.582727e-002
3.585171e+003;3.566228e-002
3.587099e+003;3.557190e-002
3.589028e+003;3.554359e-002
3.590956e+003;3.533479e-002
3.592885e+003;3.474746e-002
3.594813e+003;3.453742e-002
3.596742e+003;3.459260e-002
3.598671e+003;3.455302e-002
3.600599e+003;3.458973e-002
3.602528e+003;3.448766e-002
3.604456e+003;3.414392e-002
3.606385e+003;3.407891e-002
3.608313e+003;3.398703e-002
3.610242e+003;3.421741e-002
3.612170e+003;3.491472e-002
3.614099e+003;3.517434e-002
3.616028e+003;3.511279e-002
3.617956e+003;3.486858e-002
3.619885e+003;3.448913e-002
3.621813e+003;3.438070e-002
3.623742e+003;3.475478e-002
3.625670e+003;3.520003e-002
3.627599e+003;3.547222e-002
3.629527e+003;3.535226e-002
3.631456e+003;3.519859e-002
3.633385e+003;3.548542e-002
3.635313e+003;3.555773e-002
3.637241e+003;3.534827e-002
3.639170e+003;3.537757e-002
3.641099e+003;3.548427e-002
3.643027e+003;3.541434e-002
3.644956e+003;3.515885e-002
3.646884e+003;3.462669e-002
3.648813e+003;3.421640e-002
3.650741e+003;3.425699e-002
3.652670e+003;3.409414e-002
3.654598e+003;3.343217e-002
3.656527e+003;3.283818e-002
3.658456e+003;3.277965e-002
3.660384e+003;3.271724e-002
3.662313e+003;3.222238e-002
3.664241e+003;3.175116e-002
3.666170e+003;3.144897e-002
3.668098e+003;3.113336e-002
3.670027e+003;3.105712e-002
3.671955e+003;3.137054e-002
3.673884e+003;3.120168e-002
3.675813e+003;3.073337e-002
3.677741e+003;3.117338e-002
3.679669e+003;3.158785e-002
3.681598e+003;3.197312e-002
3.683527e+003;3.234191e-002
3.685455e+003;3.234919e-002
3.687384e+003;3.209490e-002
3.689312e+003;3.192183e-002
3.691241e+003;3.119022e-002
3.693169e+003;3.069127e-002
3.695098e+003;3.055392e-002
3.697026e+003;3.047067e-002
3.698955e+003;3.034427e-002
3.700884e+003;2.988302e-002
3.702812e+003;2.910930e-002
3.704741e+003;2.872073e-002
3.706669e+003;2.884899e-002
3.708598e+003;2.858814e-002
3.710526e+003;2.800752e-002
3.712455e+003;2.781160e-002
3.714383e+003;2.814668e-002
3.716312e+003;2.843730e-002
3.718240e+003;2.853524e-002
3.720169e+003;2.843989e-002
3.722098e+003;2.796002e-002
3.724026e+003;2.806128e-002
3.725955e+003;2.843239e-002
3.727883e+003;2.845121e-002
3.729812e+003;2.860336e-002
3.731740e+003;2.876760e-002
3.733669e+003;2.869322e-002
3.735597e+003;2.870596e-002
3.737526e+003;2.848878e-002
3.739455e+003;2.833794e-002
3.741383e+003;2.828153e-002
3.743312e+003;2.820820e-002
3.745240e+003;2.829554e-002
3.747169e+003;2.860120e-002
3.749097e+003;2.882679e-002
3.751026e+003;2.877266e-002
3.752954e+003;2.892775e-002
3.754883e+003;2.943404e-002
3.756812e+003;2.983032e-002
3.758740e+003;2.981740e-002
3.760668e+003;2.993978e-002
3.762597e+003;3.018302e-002
3.764526e+003;2.994298e-002
3.766454e+003;2.957990e-002
3.768383e+003;2.930021e-002
3.770311e+003;2.921327e-002
3.772240e+003;2.915012e-002
3.774168e+003;2.869917e-002
3.776097e+003;2.862604e-002
3.778025e+003;2.865630e-002
3.779954e+003;2.833798e-002
3.781883e+003;2.825148e-002
3.783811e+003;2.842644e-002
3.785740e+003;2.862243e-002
3.787668e+003;2.874653e-002
3.789597e+003;2.890707e-002
3.791525e+003;2.891270e-002
3.793454e+003;2.866455e-002
3.795382e+003;2.865014e-002
3.797311e+003;2.903076e-002
3.799240e+003;2.914105e-002
3.801168e+003;2.935937e-002
3.803097e+003;2.935483e-002
3.805025e+003;2.927281e-002
3.806954e+003;2.942695e-002
3.808882e+003;2.944131e-002
3.810811e+003;2.939610e-002
3.812739e+003;2.925998e-002
3.814668e+003;2.900383e-002
3.816596e+003;2.902853e-002
3.818525e+003;2.917464e-002
3.820454e+003;2.931496e-002
3.822382e+003;2.939674e-002
3.824311e+003;2.899285e-002
3.826239e+003;2.884443e-002
3.828168e+003;2.923662e-002
3.830096e+003;2.887495e-002
3.832025e+003;2.843122e-002
3.833953e+003;2.890406e-002
3.835882e+003;2.900323e-002
3.837811e+003;2.869665e-002
3.839739e+003;2.882283e-002
3.841667e+003;2.913517e-002
3.843596e+003;2.877719e-002
3.845525e+003;2.843946e-002
3.847453e+003;2.856733e-002
3.849382e+003;2.840380e-002
3.851310e+003;2.822036e-002
3.853239e+003;2.823861e-002
3.855167e+003;2.851808e-002
3.857096e+003;2.882148e-002
3.859024e+003;2.874140e-002
3.860953e+003;2.864484e-002
3.862882e+003;2.901946e-002
3.864810e+003;2.928284e-002
3.866739e+003;2.923446e-002
3.868667e+003;2.916869e-002
3.870596e+003;2.902364e-002
3.872524e+003;2.918605e-002
3.874453e+003;2.921405e-002
3.876381e+003;2.929720e-002
3.878310e+003;2.947298e-002
3.880239e+003;2.946031e-002
3.882167e+003;2.974558e-002
3.884096e+003;2.989910e-002
3.886024e+003;2.975803e-002
3.887953e+003;2.982056e-002
3.889881e+003;2.948666e-002
3.891810e+003;2.936997e-002
3.893738e+003;2.965216e-002
3.895667e+003;2.948851e-002
3.897595e+003;2.951212e-002
3.899524e+003;2.987280e-002
3.901453e+003;3.029168e-002
3.903381e+003;3.078925e-002
3.905310e+003;3.070378e-002
3.907238e+003;3.033286e-002
3.909167e+003;3.055534e-002
3.911095e+003;3.070802e-002
3.913024e+003;3.056242e-002
3.914952e+003;3.062229e-002
3.916881e+003;3.089290e-002
3.918810e+003;3.125843e-002
3.920738e+003;3.114746e-002
3.922667e+003;3.063736e-002
3.924595e+003;3.100709e-002
3.926524e+003;3.163382e-002
3.928452e+003;3.189024e-002
3.930381e+003;3.154178e-002
3.932309e+003;3.111432e-002
3.934238e+003;3.118124e-002
3.936167e+003;3.111560e-002
3.938095e+003;3.124127e-002
3.940023e+003;3.162541e-002
3.941952e+003;3.180730e-002
3.943881e+003;3.142062e-002
3.945809e+003;3.133660e-002
3.947738e+003;3.165335e-002
3.949666e+003;3.156957e-002
3.951595e+003;3.142101e-002
3.953523e+003;3.161319e-002
3.955452e+003;3.183383e-002
3.957380e+003;3.180202e-002
3.959309e+003;3.173946e-002
3.961238e+003;3.184959e-002
3.963166e+003;3.204880e-002
3.965095e+003;3.190036e-002
3.967023e+003;3.169744e-002
3.968952e+003;3.176039e-002
3.970880e+003;3.198892e-002
3.972809e+003;3.198728e-002
3.974737e+003;3.167071e-002
3.976666e+003;3.150825e-002
3.978594e+003;3.219776e-002
3.980523e+003;3.259424e-002
3.982452e+003;3.255828e-002
3.984380e+003;3.258967e-002
3.986309e+003;3.240745e-002
3.988237e+003;3.230358e-002
3.990166e+003;3.213467e-002
3.992094e+003;3.218002e-002
3.994023e+003;3.232852e-002
3.995951e+003;3.217706e-002
3.997880e+003;3.214217e-002
3.999809e+003;3.215469e-002
4.001737e+003;0.000000e+000
