3.992094e+002;0.000000e+000
4.011380e+002;0.000000e+000
4.030665e+002;0.000000e+000
4.049951e+002;0.000000e+000
4.069236e+002;0.000000e+000
4.088522e+002;0.000000e+000
4.107807e+002;0.000000e+000
4.127093e+002;0.000000e+000
4.146378e+002;0.000000e+000
4.165664e+002;0.000000e+000
4.184949e+002;0.000000e+000
4.204235e+002;0.000000e+000
4.223520e+002;0.000000e+000
4.242806e+002;0.000000e+000
4.262091e+002;0.000000e+000
4.281377e+002;0.000000e+000
4.300662e+002;0.000000e+000
4.319948e+002;0.000000e+000
4.339233e+002;0.000000e+000
4.358519e+002;0.000000e+000
4.377804e+002;0.000000e+000
4.397090e+002;0.000000e+000
4.416375e+002;0.000000e+000
4.435660e+002;0.000000e+000
4.454946e+002;0.000000e+000
4.474232e+002;0.000000e+000
4.493517e+002;0.000000e+000
4.512802e+002;0.000000e+000
4.532088e+002;0.000000e+000
4.551373e+002;0.000000e+000
4.570659e+002;0.000000e+000
4.589944e+002;0.000000e+000
4.609230e+002;0.000000e+000
4.628515e+002;0.000000e+000
4.647801e+002;0.000000e+000
4.667086e+002;0.000000e+000
4.686372e+002;0.000000e+000
4.705657e+002;0.000000e+000
4.724943e+002;0.000000e+000
4.744228e+002;0.000000e+000
4.763513e+002;0.000000e+000
4.782799e+002;0.000000e+000
4.802085e+002;0.000000e+000
4.821370e+002;0.000000e+000
4.840656e+002;0.000000e+000
4.859941e+002;0.000000e+000
4.879226e+002;0.000000e+000
4.898512e+002;0.000000e+000
4.917798e+002;0.000000e+000
4.937083e+002;0.000000e+000
4.956368e+002;0.000000e+000
4.975654e+002;0.000000e+000
4.994939e+002;0.000000e+000
5.014225e+002;0.000000e+000
5.033510e+002;0.000000e+000
5.052796e+002;0.000000e+000
5.072081e+002;0.000000e+000
5.091367e+002;0.000000e+000
5.110652e+002;0.000000e+000
5.129938e+002;0.000000e+000
5.149223e+002;0.000000e+000
5.168509e+002;0.000000e+000
5.187794e+002;0.000000e+000
5.207079e+002;0.000000e+000
5.226365e+002;0.000000e+000
5.245651e+002;0.000000e+000
5.264936e+002;0.000000e+000
5.284222e+002;0.000000e+000
5.303507e+002;0.000000e+000
5.322792e+002;0.000000e+000
5.342078e+002;0.000000e+000
5.361364e+002;0.000000e+000
5.380649e+002;0.000000e+000
5.399935e+002;0.000000e+000
5.419220e+002;0.000000e+000
5.438505e+002;0.000000e+000
5.457791e+002;0.000000e+000
5.477076e+002;0.000000e+000
5.496362e+002;0.000000e+000
5.515648e+002;0.000000e+000
5.534933e+002;0.000000e+000
5.554218e+002;0.000000e+000
5.573504e+002;0.000000e+000
5.592789e+002;0.000000e+000
5.612075e+002;0.000000e+000
5.631360e+002;0.000000e+000
5.650646e+002;0.000000e+000
5.669931e+002;0.000000e+000
5.689217e+002;0.000000e+000
5.708502e+002;0.000000e+000
5.727787e+002;0.000000e+000
5.747073e+002;0.000000e+000
5.766359e+002;0.000000e+000
5.785644e+002;0.000000e+000
5.804930e+002;0.000000e+000
5.824215e+002;0.000000e+000
5.843500e+002;0.000000e+000
5.862786e+002;0.000000e+000
5.882072e+002;0.000000e+000
5.901357e+002;0.000000e+000
5.920643e+002;0.000000e+000
5.939928e+002;0.000000e+000
5.959213e+002;0.000000e+000
5.978499e+002;0.000000e+000
5.997784e+002;6.604139e-002
6.017070e+002;6.335519e-002
6.036355e+002;6.668311e-002
6.055641e+002;6.617264e-002
6.074926e+002;6.232871e-002
6.094211e+002;6.522666e-002
6.113497e+002;6.638172e-002
6.132783e+002;6.390741e-002
6.152068e+002;6.287187e-002
6.171354e+002;6.275669e-002
6.190639e+002;6.453611e-002
6.209924e+002;6.904404e-002
6.229210e+002;7.169037e-002
6.248495e+002;6.869331e-002
6.267781e+002;6.691235e-002
6.287067e+002;7.353127e-002
6.306352e+002;7.945734e-002
6.325637e+002;7.957906e-002
6.344923e+002;7.795935e-002
6.364208e+002;7.409900e-002
6.383494e+002;6.738943e-002
6.402780e+002;6.601709e-002
6.422065e+002;6.593116e-002
6.441350e+002;6.571065e-002
6.460636e+002;6.592368e-002
6.479921e+002;6.626415e-002
6.499207e+002;6.981409e-002
6.518492e+002;7.289746e-002
6.537778e+002;7.261186e-002
6.557063e+002;7.126222e-002
6.576349e+002;7.244071e-002
6.595634e+002;7.417579e-002
6.614919e+002;7.603078e-002
6.634205e+002;7.685376e-002
6.653491e+002;7.927448e-002
6.672776e+002;8.365109e-002
6.692062e+002;8.343221e-002
6.711347e+002;8.516468e-002
6.730632e+002;9.027403e-002
6.749918e+002;9.333055e-002
6.769203e+002;9.560893e-002
6.788489e+002;9.820504e-002
6.807775e+002;9.991358e-002
6.827060e+002;1.004672e-001
6.846345e+002;1.007219e-001
6.865631e+002;1.008514e-001
6.884916e+002;1.022881e-001
6.904202e+002;1.046540e-001
6.923488e+002;1.083419e-001
6.942773e+002;1.135511e-001
6.962058e+002;1.196746e-001
6.981344e+002;1.292573e-001
7.000629e+002;1.420245e-001
7.019915e+002;1.535633e-001
7.039200e+002;1.636659e-001
7.058486e+002;1.740585e-001
7.077771e+002;1.853194e-001
7.097057e+002;1.972276e-001
7.116342e+002;2.119384e-001
7.135627e+002;2.326240e-001
7.154913e+002;2.601875e-001
7.174199e+002;2.948346e-001
7.193484e+002;3.332726e-001
7.212770e+002;3.681010e-001
7.232055e+002;3.896267e-001
7.251340e+002;3.850261e-001
7.270626e+002;3.531894e-001
7.289911e+002;3.091517e-001
7.309197e+002;2.645030e-001
7.328483e+002;2.238017e-001
7.347768e+002;1.875557e-001
7.367053e+002;1.545429e-001
7.386339e+002;1.257319e-001
7.405624e+002;1.048446e-001
7.424910e+002;9.039152e-002
7.444196e+002;8.012036e-002
7.463481e+002;7.416639e-002
7.482766e+002;7.195214e-002
7.502052e+002;7.075103e-002
7.521337e+002;7.002240e-002
7.540623e+002;6.932326e-002
7.559908e+002;6.834996e-002
7.579194e+002;6.778493e-002
7.598479e+002;6.801195e-002
7.617765e+002;6.873593e-002
7.637050e+002;6.963758e-002
7.656335e+002;7.093864e-002
7.675621e+002;7.253174e-002
7.694907e+002;7.353574e-002
7.714192e+002;7.472389e-002
7.733478e+002;7.657582e-002
7.752763e+002;7.852174e-002
7.772048e+002;8.047336e-002
7.791334e+002;8.204977e-002
7.810620e+002;8.312836e-002
7.829905e+002;8.472614e-002
7.849191e+002;8.744529e-002
7.868476e+002;9.179937e-002
7.887761e+002;9.598788e-002
7.907047e+002;9.942740e-002
7.926332e+002;1.005422e-001
7.945618e+002;9.728269e-002
7.964903e+002;9.061487e-002
7.984189e+002;8.513489e-002
8.003474e+002;8.281595e-002
8.022759e+002;8.256883e-002
8.042045e+002;8.308631e-002
8.061331e+002;8.349296e-002
8.080616e+002;8.417079e-002
8.099902e+002;8.464810e-002
8.119187e+002;8.529603e-002
8.138472e+002;8.610372e-002
8.157758e+002;8.616037e-002
8.177043e+002;8.671419e-002
8.196329e+002;8.770546e-002
8.215615e+002;8.810334e-002
8.234900e+002;8.853738e-002
8.254185e+002;8.923217e-002
8.273471e+002;9.093095e-002
8.292756e+002;9.321144e-002
8.312042e+002;9.545328e-002
8.331328e+002;9.918248e-002
8.350613e+002;1.033766e-001
8.369898e+002;1.068881e-001
8.389184e+002;1.107723e-001
8.408469e+002;1.142528e-001
8.427755e+002;1.177513e-001
8.447040e+002;1.213528e-001
8.466326e+002;1.229872e-001
8.485611e+002;1.218617e-001
8.504897e+002;1.192798e-001
8.524182e+002;1.169924e-001
8.543467e+002;1.152568e-001
8.562753e+002;1.141289e-001
8.582039e+002;1.138923e-001
8.601324e+002;1.144037e-001
8.620610e+002;1.160933e-001
8.639895e+002;1.197204e-001
8.659180e+002;1.264348e-001
8.678466e+002;1.391878e-001
8.697751e+002;1.582596e-001
8.717037e+002;1.740994e-001
8.736323e+002;1.739828e-001
8.755608e+002;1.618877e-001
8.774893e+002;1.472890e-001
8.794179e+002;1.329766e-001
8.813464e+002;1.201550e-001
8.832750e+002;1.095564e-001
8.852036e+002;1.011995e-001
8.871321e+002;9.600764e-002
8.890606e+002;9.295513e-002
8.909892e+002;9.158441e-002
8.929177e+002;9.119047e-002
8.948463e+002;9.068763e-002
8.967748e+002;9.017149e-002
8.987034e+002;8.997869e-002
9.006319e+002;8.918489e-002
9.025605e+002;8.807724e-002
9.044890e+002;8.690421e-002
9.064175e+002;8.537407e-002
9.083461e+002;8.376969e-002
9.102747e+002;8.237950e-002
9.122032e+002;8.104895e-002
9.141318e+002;7.955264e-002
9.160603e+002;7.845708e-002
9.179888e+002;7.773278e-002
9.199174e+002;7.725350e-002
9.218459e+002;7.705352e-002
9.237745e+002;7.752854e-002
9.257031e+002;7.835829e-002
9.276316e+002;7.874555e-002
9.295601e+002;7.894591e-002
9.314887e+002;7.958786e-002
9.334172e+002;8.044010e-002
9.353458e+002;8.159165e-002
9.372744e+002;8.333199e-002
9.392029e+002;8.511280e-002
9.411314e+002;8.644107e-002
9.430600e+002;8.783393e-002
9.449885e+002;8.948905e-002
9.469171e+002;9.131815e-002
9.488456e+002;9.321341e-002
9.507742e+002;9.518810e-002
9.527027e+002;9.751978e-002
9.546313e+002;1.002317e-001
9.565598e+002;1.029774e-001
9.584883e+002;1.057930e-001
9.604169e+002;1.091462e-001
9.623455e+002;1.128242e-001
9.642740e+002;1.161608e-001
9.662026e+002;1.189487e-001
9.681311e+002;1.207052e-001
9.700596e+002;1.210342e-001
9.719882e+002;1.201827e-001
9.739167e+002;1.186371e-001
9.758453e+002;1.165036e-001
9.777739e+002;1.140614e-001
9.797024e+002;1.113540e-001
9.816309e+002;1.089332e-001
9.835595e+002;1.069700e-001
9.854880e+002;1.055849e-001
9.874166e+002;1.047735e-001
9.893452e+002;1.041229e-001
9.912737e+002;1.034827e-001
9.932022e+002;1.036055e-001
9.951307e+002;1.041551e-001
9.970593e+002;1.051548e-001
9.989879e+002;1.066187e-001
1.000916e+003;1.083267e-001
1.002845e+003;1.109870e-001
1.004773e+003;1.150832e-001
1.006702e+003;1.208972e-001
1.008631e+003;1.295612e-001
1.010559e+003;1.428250e-001
1.012488e+003;1.633330e-001
1.014416e+003;1.905812e-001
1.016345e+003;2.146168e-001
1.018273e+003;2.199612e-001
1.020202e+003;2.037421e-001
1.022130e+003;1.778159e-001
1.024059e+003;1.532645e-001
1.025988e+003;1.343748e-001
1.027916e+003;1.228611e-001
1.029845e+003;1.178707e-001
1.031773e+003;1.168461e-001
1.033702e+003;1.179704e-001
1.035630e+003;1.201440e-001
1.037559e+003;1.219039e-001
1.039487e+003;1.234706e-001
1.041416e+003;1.252040e-001
1.043344e+003;1.260839e-001
1.045273e+003;1.266359e-001
1.047202e+003;1.273932e-001
1.049130e+003;1.277098e-001
1.051059e+003;1.275856e-001
1.052987e+003;1.281939e-001
1.054916e+003;1.294584e-001
1.056844e+003;1.309808e-001
1.058773e+003;1.330600e-001
1.060701e+003;1.364177e-001
1.062630e+003;1.412326e-001
1.064558e+003;1.472787e-001
1.066487e+003;1.533484e-001
1.068416e+003;1.606589e-001
1.070344e+003;1.695369e-001
1.072273e+003;1.803304e-001
1.074201e+003;1.939181e-001
1.076130e+003;2.096690e-001
1.078058e+003;2.270301e-001
1.079987e+003;2.453787e-001
1.081915e+003;2.626466e-001
1.083844e+003;2.773360e-001
1.085773e+003;2.905223e-001
1.087701e+003;3.027879e-001
1.089630e+003;3.143384e-001
1.091558e+003;3.250045e-001
1.093487e+003;3.345395e-001
1.095415e+003;3.420285e-001
1.097344e+003;3.449699e-001
1.099272e+003;3.416902e-001
1.101201e+003;3.328981e-001
1.103129e+003;3.200077e-001
1.105058e+003;3.028626e-001
1.106987e+003;2.836662e-001
1.108915e+003;2.673211e-001
1.110844e+003;2.574718e-001
1.112772e+003;2.544953e-001
1.114701e+003;2.555290e-001
1.116629e+003;2.552435e-001
1.118558e+003;2.515860e-001
1.120486e+003;2.445332e-001
1.122415e+003;2.347440e-001
1.124344e+003;2.228839e-001
1.126272e+003;2.100147e-001
1.128201e+003;1.967942e-001
1.130129e+003;1.833287e-001
1.132058e+003;1.703405e-001
1.133986e+003;1.581740e-001
1.135915e+003;1.470692e-001
1.137843e+003;1.376371e-001
1.139772e+003;1.293286e-001
1.141700e+003;1.220158e-001
1.143629e+003;1.161471e-001
1.145557e+003;1.111395e-001
1.147486e+003;1.065853e-001
1.149415e+003;1.023828e-001
1.151343e+003;9.877919e-002
1.153272e+003;9.548836e-002
1.155200e+003;9.285111e-002
1.157129e+003;9.074389e-002
1.159057e+003;8.945550e-002
1.160986e+003;8.911568e-002
1.162914e+003;8.893696e-002
1.164843e+003;8.946893e-002
1.166771e+003;9.187519e-002
1.168700e+003;9.563387e-002
1.170629e+003;9.942961e-002
1.172557e+003;1.023235e-001
1.174486e+003;1.037121e-001
1.176414e+003;1.031813e-001
1.178343e+003;1.011961e-001
1.180271e+003;9.885819e-002
1.182200e+003;9.705239e-002
1.184128e+003;9.560566e-002
1.186057e+003;9.515391e-002
1.187986e+003;9.592415e-002
1.189914e+003;9.722850e-002
1.191843e+003;9.933560e-002
1.193771e+003;1.021922e-001
1.195700e+003;1.057292e-001
1.197628e+003;1.096211e-001
1.199557e+003;1.135467e-001
1.201485e+003;1.177424e-001
1.203414e+003;1.222140e-001
1.205343e+003;1.268184e-001
1.207271e+003;1.322013e-001
1.209200e+003;1.379817e-001
1.211128e+003;1.440421e-001
1.213057e+003;1.509262e-001
1.214985e+003;1.589230e-001
1.216914e+003;1.671780e-001
1.218842e+003;1.754551e-001
1.220771e+003;1.844528e-001
1.222699e+003;1.937887e-001
1.224628e+003;2.038467e-001
1.226557e+003;2.164305e-001
1.228485e+003;2.321496e-001
1.230414e+003;2.512316e-001
1.232342e+003;2.739156e-001
1.234271e+003;2.996674e-001
1.236199e+003;3.263016e-001
1.238128e+003;3.507998e-001
1.240056e+003;3.706748e-001
1.241985e+003;3.835942e-001
1.243913e+003;3.885400e-001
1.245842e+003;3.864859e-001
1.247771e+003;3.798242e-001
1.249699e+003;3.719036e-001
1.251628e+003;3.636109e-001
1.253556e+003;3.555952e-001
1.255485e+003;3.495431e-001
1.257413e+003;3.453348e-001
1.259342e+003;3.407312e-001
1.261270e+003;3.336011e-001
1.263199e+003;3.224767e-001
1.265127e+003;3.070480e-001
1.267056e+003;2.895465e-001
1.268985e+003;2.715853e-001
1.270913e+003;2.545194e-001
1.272842e+003;2.394072e-001
1.274770e+003;2.268883e-001
1.276699e+003;2.164184e-001
1.278627e+003;2.072328e-001
1.280556e+003;1.993097e-001
1.282484e+003;1.917250e-001
1.284413e+003;1.835522e-001
1.286342e+003;1.754220e-001
1.288270e+003;1.675166e-001
1.290199e+003;1.591714e-001
1.292127e+003;1.501716e-001
1.294056e+003;1.411019e-001
1.295984e+003;1.323060e-001
1.297913e+003;1.237750e-001
1.299841e+003;1.159669e-001
1.301770e+003;1.092657e-001
1.303698e+003;1.041161e-001
1.305627e+003;9.998891e-002
1.307556e+003;9.565080e-002
1.309484e+003;9.130576e-002
1.311413e+003;8.760117e-002
1.313341e+003;8.441326e-002
1.315270e+003;8.169570e-002
1.317198e+003;7.933732e-002
1.319127e+003;7.749677e-002
1.321055e+003;7.600986e-002
1.322984e+003;7.516603e-002
1.324912e+003;7.537306e-002
1.326841e+003;7.753650e-002
1.328770e+003;8.304635e-002
1.330698e+003;9.298067e-002
1.332627e+003;1.073864e-001
1.334555e+003;1.232207e-001
1.336484e+003;1.355166e-001
1.338412e+003;1.399229e-001
1.340341e+003;1.352740e-001
1.342269e+003;1.240385e-001
1.344198e+003;1.101260e-001
1.346126e+003;9.680358e-002
1.348055e+003;8.597681e-002
1.349984e+003;7.816824e-002
1.351912e+003;7.302175e-002
1.353841e+003;6.975756e-002
1.355769e+003;6.753027e-002
1.357698e+003;6.631131e-002
1.359626e+003;6.617484e-002
1.361555e+003;6.691451e-002
1.363483e+003;6.836190e-002
1.365412e+003;7.033938e-002
1.367341e+003;7.234587e-002
1.369269e+003;7.355015e-002
1.371198e+003;7.398607e-002
1.373126e+003;7.386429e-002
1.375055e+003;7.330284e-002
1.376983e+003;7.291573e-002
1.378912e+003;7.254784e-002
1.380840e+003;7.219388e-002
1.382769e+003;7.227616e-002
1.384698e+003;7.243542e-002
1.386626e+003;7.248722e-002
1.388555e+003;7.273666e-002
1.390483e+003;7.353916e-002
1.392412e+003;7.502321e-002
1.394340e+003;7.727836e-002
1.396269e+003;8.079861e-002
1.398197e+003;8.580818e-002
1.400126e+003;9.279260e-002
1.402054e+003;1.022707e-001
1.403983e+003;1.138957e-001
1.405911e+003;1.254813e-001
1.407840e+003;1.322326e-001
1.409769e+003;1.290804e-001
1.411697e+003;1.162927e-001
1.413626e+003;9.964033e-002
1.415554e+003;8.464576e-002
1.417483e+003;7.370242e-002
1.419411e+003;6.677252e-002
1.421340e+003;6.273322e-002
1.423268e+003;6.053434e-002
1.425197e+003;5.951951e-002
1.427125e+003;5.939402e-002
1.429054e+003;6.021180e-002
1.430983e+003;6.181429e-002
1.432911e+003;6.369930e-002
1.434840e+003;6.554609e-002
1.436768e+003;6.720883e-002
1.438697e+003;6.868306e-002
1.440625e+003;6.989302e-002
1.442554e+003;7.117454e-002
1.444482e+003;7.230034e-002
1.446411e+003;7.343497e-002
1.448340e+003;7.485154e-002
1.450268e+003;7.626683e-002
1.452197e+003;7.736471e-002
1.454125e+003;7.805345e-002
1.456054e+003;7.811274e-002
1.457982e+003;7.791007e-002
1.459911e+003;7.750113e-002
1.461839e+003;7.667800e-002
1.463768e+003;7.594825e-002
1.465697e+003;7.583623e-002
1.467625e+003;7.641839e-002
1.469554e+003;7.748925e-002
1.471482e+003;7.789778e-002
1.473411e+003;7.700150e-002
1.475339e+003;7.557014e-002
1.477268e+003;7.357448e-002
1.479196e+003;7.084630e-002
1.481125e+003;6.773334e-002
1.483053e+003;6.446400e-002
1.484982e+003;6.116354e-002
1.486911e+003;5.819371e-002
1.488839e+003;5.602280e-002
1.490768e+003;5.460154e-002
1.492696e+003;5.384742e-002
1.494625e+003;5.428615e-002
1.496553e+003;5.613681e-002
1.498482e+003;5.971028e-002
1.500410e+003;6.535274e-002
1.502339e+003;7.240192e-002
1.504267e+003;7.670864e-002
1.506196e+003;7.420433e-002
1.508125e+003;6.722516e-002
1.510053e+003;6.064470e-002
1.511982e+003;5.620752e-002
1.513910e+003;5.357539e-002
1.515839e+003;5.227457e-002
1.517767e+003;5.188708e-002
1.519696e+003;5.184280e-002
1.521624e+003;5.215511e-002
1.523553e+003;5.276117e-002
1.525481e+003;5.274112e-002
1.527410e+003;5.221175e-002
1.529339e+003;5.176146e-002
1.531267e+003;5.120111e-002
1.533196e+003;5.042556e-002
1.535124e+003;4.976051e-002
1.537053e+003;4.923001e-002
1.538981e+003;4.891761e-002
1.540910e+003;4.886926e-002
1.542838e+003;4.872719e-002
1.544767e+003;4.879214e-002
1.546695e+003;4.914660e-002
1.548624e+003;4.927351e-002
1.550553e+003;4.955813e-002
1.552481e+003;4.980116e-002
1.554410e+003;4.995908e-002
1.556338e+003;5.034169e-002
1.558267e+003;5.059294e-002
1.560195e+003;5.102068e-002
1.562124e+003;5.175492e-002
1.564052e+003;5.253742e-002
1.565981e+003;5.353937e-002
1.567910e+003;5.481696e-002
1.569838e+003;5.660484e-002
1.571767e+003;5.907855e-002
1.573695e+003;6.179190e-002
1.575624e+003;6.413411e-002
1.577552e+003;6.551310e-002
1.579481e+003;6.533803e-002
1.581409e+003;6.317389e-002
1.583338e+003;6.019178e-002
1.585266e+003;5.777782e-002
1.587195e+003;5.593717e-002
1.589124e+003;5.446092e-002
1.591052e+003;5.351864e-002
1.592981e+003;5.331562e-002
1.594909e+003;5.350189e-002
1.596838e+003;5.364849e-002
1.598766e+003;5.393460e-002
1.600695e+003;5.478756e-002
1.602623e+003;5.593916e-002
1.604552e+003;5.707376e-002
1.606480e+003;5.851381e-002
1.608409e+003;6.030631e-002
1.610338e+003;6.191381e-002
1.612266e+003;6.306764e-002
1.614195e+003;6.350834e-002
1.616123e+003;6.304131e-002
1.618052e+003;6.182785e-002
1.619980e+003;6.069903e-002
1.621909e+003;5.998901e-002
1.623837e+003;5.964376e-002
1.625766e+003;5.970135e-002
1.627694e+003;6.013427e-002
1.629623e+003;6.076572e-002
1.631552e+003;6.142125e-002
1.633480e+003;6.196628e-002
1.635409e+003;6.255616e-002
1.637337e+003;6.329378e-002
1.639266e+003;6.414579e-002
1.641194e+003;6.513099e-002
1.643123e+003;6.602955e-002
1.645051e+003;6.687825e-002
1.646980e+003;6.775139e-002
1.648909e+003;6.881702e-002
1.650837e+003;7.032360e-002
1.652766e+003;7.171652e-002
1.654694e+003;7.323407e-002
1.656623e+003;7.511451e-002
1.658551e+003;7.717287e-002
1.660480e+003;7.935785e-002
1.662408e+003;8.181881e-002
1.664337e+003;8.473685e-002
1.666266e+003;8.789031e-002
1.668194e+003;9.077986e-002
1.670123e+003;9.339566e-002
1.672051e+003;9.604079e-002
1.673980e+003;9.902426e-002
1.675908e+003;1.022882e-001
1.677837e+003;1.057150e-001
1.679765e+003;1.093574e-001
1.681694e+003;1.129085e-001
1.683622e+003;1.160998e-001
1.685551e+003;1.194139e-001
1.687479e+003;1.231508e-001
1.689408e+003;1.277262e-001
1.691337e+003;1.336155e-001
1.693265e+003;1.409826e-001
1.695194e+003;1.502183e-001
1.697122e+003;1.614104e-001
1.699051e+003;1.750332e-001
1.700979e+003;1.925225e-001
1.702908e+003;2.138430e-001
1.704836e+003;2.396672e-001
1.706765e+003;2.699094e-001
1.708693e+003;3.026947e-001
1.710622e+003;3.331751e-001
1.712551e+003;3.552623e-001
1.714479e+003;3.651572e-001
1.716408e+003;3.619523e-001
1.718336e+003;3.479616e-001
1.720265e+003;3.283935e-001
1.722193e+003;3.060964e-001
1.724122e+003;2.833703e-001
1.726050e+003;2.606221e-001
1.727979e+003;2.380595e-001
1.729908e+003;2.162416e-001
1.731836e+003;1.957239e-001
1.733765e+003;1.758916e-001
1.735693e+003;1.570328e-001
1.737622e+003;1.396103e-001
1.739550e+003;1.229812e-001
1.741479e+003;1.069782e-001
1.743407e+003;9.277820e-002
1.745336e+003;8.118758e-002
1.747265e+003;7.226963e-002
1.749193e+003;6.551473e-002
1.751122e+003;6.040390e-002
1.753050e+003;5.683765e-002
1.754979e+003;5.428889e-002
1.756907e+003;5.241766e-002
1.758836e+003;5.099921e-002
1.760764e+003;4.984650e-002
1.762693e+003;4.899209e-002
1.764621e+003;4.833696e-002
1.766550e+003;4.767111e-002
1.768479e+003;4.711520e-002
1.770407e+003;4.673343e-002
1.772336e+003;4.630462e-002
1.774264e+003;4.593796e-002
1.776193e+003;4.578142e-002
1.778121e+003;4.564489e-002
1.780050e+003;4.527948e-002
1.781978e+003;4.489061e-002
1.783907e+003;4.463761e-002
1.785835e+003;4.460445e-002
1.787764e+003;4.465582e-002
1.789693e+003;4.437759e-002
1.791621e+003;4.389072e-002
1.793550e+003;4.362046e-002
1.795478e+003;4.360485e-002
1.797407e+003;4.353848e-002
1.799335e+003;4.356870e-002
1.801264e+003;4.368395e-002
1.803192e+003;4.360980e-002
1.805121e+003;4.364885e-002
1.807049e+003;4.381349e-002
1.808978e+003;4.371612e-002
1.810907e+003;4.344637e-002
1.812835e+003;4.345179e-002
1.814764e+003;4.353240e-002
1.816692e+003;4.346929e-002
1.818621e+003;4.339327e-002
1.820549e+003;4.330134e-002
1.822478e+003;4.329222e-002
1.824406e+003;4.320847e-002
1.826335e+003;4.300151e-002
1.828264e+003;4.260715e-002
1.830192e+003;4.214318e-002
1.832121e+003;4.169207e-002
1.834049e+003;4.128133e-002
1.835978e+003;4.080218e-002
1.837906e+003;4.036388e-002
1.839835e+003;3.977286e-002
1.841763e+003;3.916826e-002
1.843692e+003;3.857749e-002
1.845620e+003;3.808931e-002
1.847549e+003;3.756622e-002
1.849478e+003;3.685260e-002
1.851406e+003;3.607725e-002
1.853335e+003;3.551447e-002
1.855263e+003;3.505668e-002
1.857192e+003;3.459612e-002
1.859120e+003;3.412120e-002
1.861049e+003;3.363216e-002
1.862977e+003;3.319033e-002
1.864906e+003;3.286406e-002
1.866834e+003;3.250296e-002
1.868763e+003;3.219162e-002
1.870692e+003;3.195632e-002
1.872620e+003;3.152739e-002
1.874549e+003;3.131626e-002
1.876477e+003;3.135790e-002
1.878406e+003;3.099837e-002
1.880334e+003;3.080543e-002
1.882263e+003;3.094617e-002
1.884191e+003;3.082845e-002
1.886120e+003;3.071346e-002
1.888048e+003;3.056544e-002
1.889977e+003;3.034832e-002
1.891906e+003;3.046474e-002
1.893834e+003;3.060295e-002
1.895763e+003;3.078213e-002
1.897691e+003;3.106396e-002
1.899620e+003;3.111596e-002
1.901548e+003;3.124615e-002
1.903477e+003;3.142543e-002
1.905405e+003;3.150807e-002
1.907334e+003;3.165111e-002
1.909262e+003;3.172570e-002
1.911191e+003;3.188831e-002
1.913120e+003;3.222056e-002
1.915048e+003;3.261607e-002
1.916977e+003;3.292964e-002
1.918905e+003;3.311280e-002
1.920834e+003;3.333156e-002
1.922762e+003;3.362711e-002
1.924691e+003;3.408141e-002
1.926619e+003;3.464198e-002
1.928548e+003;3.506764e-002
1.930477e+003;3.568775e-002
1.932405e+003;3.662528e-002
1.934334e+003;3.721268e-002
1.936262e+003;3.743138e-002
1.938191e+003;3.800174e-002
1.940119e+003;3.898344e-002
1.942048e+003;3.985185e-002
1.943976e+003;4.032163e-002
1.945905e+003;4.064078e-002
1.947833e+003;4.105318e-002
1.949762e+003;4.142375e-002
1.951691e+003;4.161217e-002
1.953619e+003;4.183481e-002
1.955548e+003;4.198661e-002
1.957476e+003;4.196848e-002
1.959405e+003;4.169360e-002
1.961333e+003;4.147584e-002
1.963262e+003;4.116492e-002
1.965190e+003;4.032675e-002
1.967119e+003;3.942129e-002
1.969047e+003;3.886743e-002
1.970976e+003;3.828927e-002
1.972905e+003;3.751276e-002
1.974833e+003;3.686569e-002
1.976762e+003;3.658841e-002
1.978690e+003;3.616564e-002
1.980619e+003;3.553914e-002
1.982547e+003;3.514653e-002
1.984476e+003;3.488786e-002
1.986404e+003;3.468328e-002
1.988333e+003;3.438870e-002
1.990261e+003;3.402071e-002
1.992190e+003;3.360821e-002
1.994119e+003;3.301891e-002
1.996047e+003;3.263843e-002
1.997976e+003;3.235197e-002
1.999904e+003;3.190382e-002
2.001833e+003;3.158899e-002
2.003761e+003;3.126442e-002
2.005690e+003;3.077605e-002
2.007618e+003;3.048510e-002
2.009547e+003;3.030302e-002
2.011476e+003;3.004043e-002
2.013404e+003;2.977698e-002
2.015333e+003;2.962321e-002
2.017261e+003;2.963669e-002
2.019190e+003;2.961945e-002
2.021118e+003;2.937168e-002
2.023047e+003;2.910561e-002
2.024975e+003;2.898839e-002
2.026904e+003;2.887849e-002
2.028833e+003;2.873934e-002
2.030761e+003;2.855084e-002
2.032690e+003;2.845535e-002
2.034618e+003;2.849416e-002
2.036547e+003;2.844845e-002
2.038475e+003;2.846543e-002
2.040404e+003;2.863071e-002
2.042332e+003;2.877022e-002
2.044261e+003;2.922659e-002
2.046189e+003;2.953032e-002
2.048118e+003;2.947634e-002
2.050047e+003;2.974987e-002
2.051975e+003;2.991699e-002
2.053904e+003;3.009327e-002
2.055832e+003;3.038801e-002
2.057761e+003;3.073451e-002
2.059689e+003;3.097577e-002
2.061618e+003;3.126271e-002
2.063546e+003;3.164312e-002
2.065475e+003;3.192183e-002
2.067404e+003;3.229251e-002
2.069332e+003;3.281296e-002
2.071260e+003;3.314970e-002
2.073189e+003;3.316794e-002
2.075118e+003;3.325783e-002
2.077046e+003;3.373116e-002
2.078975e+003;3.414052e-002
2.080903e+003;3.441187e-002
2.082832e+003;3.474437e-002
2.084760e+003;3.501987e-002
2.086689e+003;3.538580e-002
2.088617e+003;3.539306e-002
2.090546e+003;3.519852e-002
2.092475e+003;3.516970e-002
2.094403e+003;3.516535e-002
2.096332e+003;3.512267e-002
2.098260e+003;3.523431e-002
2.100189e+003;3.534579e-002
2.102117e+003;3.527201e-002
2.104046e+003;3.541279e-002
2.105974e+003;3.571214e-002
2.107903e+003;3.562548e-002
2.109832e+003;3.527915e-002
2.111760e+003;3.515386e-002
2.113688e+003;3.520592e-002
2.115617e+003;3.525181e-002
2.117546e+003;3.506897e-002
2.119474e+003;3.463336e-002
2.121403e+003;3.425405e-002
2.123331e+003;3.417747e-002
2.125260e+003;3.397517e-002
2.127188e+003;3.362707e-002
2.129117e+003;3.346088e-002
2.131045e+003;3.320754e-002
2.132974e+003;3.284269e-002
2.134903e+003;3.259992e-002
2.136831e+003;3.250218e-002
2.138760e+003;3.248779e-002
2.140688e+003;3.228451e-002
2.142617e+003;3.203421e-002
2.144545e+003;3.168404e-002
2.146474e+003;3.141795e-002
2.148402e+003;3.117320e-002
2.150331e+003;3.078875e-002
2.152260e+003;3.047110e-002
2.154188e+003;3.023790e-002
2.156117e+003;2.985555e-002
2.158045e+003;2.977772e-002
2.159974e+003;2.970917e-002
2.161902e+003;2.926934e-002
2.163831e+003;2.885045e-002
2.165759e+003;2.856684e-002
2.167688e+003;2.833547e-002
2.169616e+003;2.825332e-002
2.171545e+003;2.822665e-002
2.173474e+003;2.804226e-002
2.175402e+003;2.786826e-002
2.177331e+003;2.769380e-002
2.179259e+003;2.734135e-002
2.181188e+003;2.721642e-002
2.183116e+003;2.743275e-002
2.185045e+003;2.745986e-002
2.186973e+003;2.741292e-002
2.188902e+003;2.738638e-002
2.190831e+003;2.742499e-002
2.192759e+003;2.760570e-002
2.194688e+003;2.766972e-002
2.196616e+003;2.760008e-002
2.198545e+003;2.754236e-002
2.200473e+003;2.768257e-002
2.202402e+003;2.783495e-002
2.204330e+003;2.797041e-002
2.206259e+003;2.811893e-002
2.208188e+003;2.834622e-002
2.210116e+003;2.875821e-002
2.212044e+003;2.924453e-002
2.213973e+003;2.945798e-002
2.215902e+003;2.929046e-002
2.217830e+003;2.914491e-002
2.219759e+003;2.948382e-002
2.221687e+003;2.969051e-002
2.223616e+003;2.949113e-002
2.225544e+003;2.950344e-002
2.227473e+003;2.964609e-002
2.229401e+003;2.947422e-002
2.231330e+003;2.940933e-002
2.233259e+003;2.959845e-002
2.235187e+003;2.961200e-002
2.237116e+003;2.955734e-002
2.239044e+003;2.984050e-002
2.240973e+003;3.011760e-002
2.242901e+003;3.021761e-002
2.244830e+003;3.022216e-002
2.246758e+003;3.028795e-002
2.248687e+003;3.037962e-002
2.250615e+003;3.058535e-002
2.252544e+003;3.088906e-002
2.254473e+003;3.102289e-002
2.256401e+003;3.105940e-002
2.258330e+003;3.107392e-002
2.260258e+003;3.103638e-002
2.262187e+003;3.100844e-002
2.264115e+003;3.096353e-002
2.266044e+003;3.082187e-002
2.267972e+003;3.072462e-002
2.269901e+003;3.072452e-002
2.271830e+003;3.090817e-002
2.273758e+003;3.116608e-002
2.275687e+003;3.130277e-002
2.277615e+003;3.136060e-002
2.279544e+003;3.155197e-002
2.281472e+003;3.174281e-002
2.283401e+003;3.172927e-002
2.285329e+003;3.175575e-002
2.287258e+003;3.180937e-002
2.289187e+003;3.161532e-002
2.291115e+003;3.104929e-002
2.293043e+003;3.054777e-002
2.294972e+003;3.015176e-002
2.296901e+003;2.978585e-002
2.298829e+003;2.957902e-002
2.300758e+003;2.928819e-002
2.302686e+003;2.873998e-002
2.304615e+003;2.835152e-002
2.306543e+003;2.807283e-002
2.308472e+003;2.784289e-002
2.310400e+003;2.776458e-002
2.312329e+003;2.780050e-002
2.314258e+003;2.786664e-002
2.316186e+003;2.787420e-002
2.318115e+003;2.796370e-002
2.320043e+003;2.820830e-002
2.321972e+003;2.831895e-002
2.323900e+003;2.848984e-002
2.325829e+003;2.871372e-002
2.327757e+003;2.872016e-002
2.329686e+003;2.881259e-002
2.331615e+003;2.881674e-002
2.333543e+003;2.868058e-002
2.335472e+003;2.855027e-002
2.337400e+003;2.878898e-002
2.339329e+003;2.902417e-002
2.341257e+003;2.898244e-002
2.343186e+003;2.903582e-002
2.345114e+003;2.925215e-002
2.347043e+003;2.943184e-002
2.348971e+003;2.979092e-002
2.350900e+003;3.017204e-002
2.352829e+003;3.013745e-002
2.354757e+003;3.028426e-002
2.356686e+003;3.070300e-002
2.358614e+003;3.118983e-002
2.360543e+003;3.148428e-002
2.362471e+003;3.158899e-002
2.364400e+003;3.201816e-002
2.366328e+003;3.236286e-002
2.368257e+003;3.233745e-002
2.370186e+003;3.236469e-002
2.372114e+003;3.237318e-002
2.374042e+003;3.236119e-002
2.375971e+003;3.238593e-002
2.377900e+003;3.268476e-002
2.379828e+003;3.291545e-002
2.381757e+003;3.278051e-002
2.383685e+003;3.276586e-002
2.385614e+003;3.288969e-002
2.387542e+003;3.275353e-002
2.389471e+003;3.252878e-002
2.391399e+003;3.241980e-002
2.393328e+003;3.237097e-002
2.395257e+003;3.236318e-002
2.397185e+003;3.239771e-002
2.399114e+003;3.241252e-002
2.401042e+003;3.231603e-002
2.402971e+003;3.207263e-002
2.404899e+003;3.176606e-002
2.406828e+003;3.160007e-002
2.408756e+003;3.152813e-002
2.410685e+003;3.136085e-002
2.412614e+003;3.103467e-002
2.414542e+003;3.070176e-002
2.416471e+003;3.046438e-002
2.418399e+003;3.035805e-002
2.420328e+003;3.022916e-002
2.422256e+003;3.006500e-002
2.424185e+003;2.996037e-002
2.426113e+003;2.979728e-002
2.428042e+003;2.945507e-002
2.429970e+003;2.910600e-002
2.431899e+003;2.884492e-002
2.433828e+003;2.869163e-002
2.435756e+003;2.852246e-002
2.437685e+003;2.820894e-002
2.439613e+003;2.790115e-002
2.441542e+003;2.794974e-002
2.443470e+003;2.793819e-002
2.445399e+003;2.767501e-002
2.447327e+003;2.743636e-002
2.449256e+003;2.745333e-002
2.451185e+003;2.738684e-002
2.453113e+003;2.719102e-002
2.455042e+003;2.726260e-002
2.456970e+003;2.729989e-002
2.458899e+003;2.723617e-002
2.460827e+003;2.715592e-002
2.462756e+003;2.696359e-002
2.464684e+003;2.681117e-002
2.466613e+003;2.690546e-002
2.468542e+003;2.708161e-002
2.470470e+003;2.722323e-002
2.472398e+003;2.731048e-002
2.474327e+003;2.766400e-002
2.476256e+003;2.780616e-002
2.478184e+003;2.780132e-002
2.480113e+003;2.780502e-002
2.482041e+003;2.786826e-002
2.483970e+003;2.791985e-002
2.485898e+003;2.803325e-002
2.487827e+003;2.828401e-002
2.489755e+003;2.838721e-002
2.491684e+003;2.838513e-002
2.493613e+003;2.838431e-002
2.495541e+003;2.861631e-002
2.497470e+003;2.898421e-002
2.499398e+003;2.926668e-002
2.501327e+003;2.946482e-002
2.503255e+003;2.965900e-002
2.505184e+003;2.979586e-002
2.507112e+003;2.991891e-002
2.509041e+003;2.979447e-002
2.510969e+003;2.966191e-002
2.512898e+003;2.970697e-002
2.514827e+003;2.988206e-002
2.516755e+003;3.002509e-002
2.518684e+003;3.012722e-002
2.520612e+003;3.037834e-002
2.522541e+003;3.077758e-002
2.524469e+003;3.101655e-002
2.526398e+003;3.101363e-002
2.528326e+003;3.104332e-002
2.530255e+003;3.125014e-002
2.532184e+003;3.124964e-002
2.534112e+003;3.106378e-002
2.536041e+003;3.117242e-002
2.537969e+003;3.109930e-002
2.539898e+003;3.100620e-002
2.541826e+003;3.117598e-002
2.543755e+003;3.133286e-002
2.545683e+003;3.122550e-002
2.547612e+003;3.101314e-002
2.549541e+003;3.092767e-002
2.551469e+003;3.092976e-002
2.553397e+003;3.099157e-002
2.555326e+003;3.120339e-002
2.557255e+003;3.141214e-002
2.559183e+003;3.141723e-002
2.561112e+003;3.157563e-002
2.563040e+003;3.139718e-002
2.564969e+003;3.105872e-002
2.566897e+003;3.121197e-002
2.568826e+003;3.144049e-002
2.570754e+003;3.156045e-002
2.572683e+003;3.139982e-002
2.574612e+003;3.108346e-002
2.576540e+003;3.117356e-002
2.578469e+003;3.136854e-002
2.580397e+003;3.149892e-002
2.582326e+003;3.136698e-002
2.584254e+003;3.123191e-002
2.586183e+003;3.109937e-002
2.588111e+003;3.080017e-002
2.590040e+003;3.041072e-002
2.591969e+003;3.024933e-002
2.593897e+003;3.018760e-002
2.595826e+003;2.997276e-002
2.597754e+003;2.998267e-002
2.599683e+003;2.995192e-002
2.601611e+003;2.968497e-002
2.603540e+003;2.936941e-002
2.605468e+003;2.901439e-002
2.607397e+003;2.885742e-002
2.609325e+003;2.897613e-002
2.611254e+003;2.887484e-002
2.613183e+003;2.866621e-002
2.615111e+003;2.867680e-002
2.617040e+003;2.877570e-002
2.618968e+003;2.869156e-002
2.620897e+003;2.871170e-002
2.622825e+003;2.878080e-002
2.624754e+003;2.876820e-002
2.626682e+003;2.868554e-002
2.628611e+003;2.870933e-002
2.630540e+003;2.879709e-002
2.632468e+003;2.857823e-002
2.634396e+003;2.823825e-002
2.636325e+003;2.796052e-002
2.638254e+003;2.751108e-002
2.640182e+003;2.715666e-002
2.642111e+003;2.697974e-002
2.644039e+003;2.669375e-002
2.645968e+003;2.656742e-002
2.647896e+003;2.646669e-002
2.649825e+003;2.622609e-002
2.651753e+003;2.617787e-002
2.653682e+003;2.620004e-002
2.655611e+003;2.595713e-002
2.657539e+003;2.589393e-002
2.659468e+003;2.615715e-002
2.661396e+003;2.619698e-002
2.663325e+003;2.606020e-002
2.665253e+003;2.592818e-002
2.667182e+003;2.591936e-002
2.669110e+003;2.601211e-002
2.671039e+003;2.600068e-002
2.672968e+003;2.598696e-002
2.674896e+003;2.602091e-002
2.676825e+003;2.611488e-002
2.678753e+003;2.632434e-002
2.680682e+003;2.613258e-002
2.682610e+003;2.599941e-002
2.684539e+003;2.597152e-002
2.686467e+003;2.597444e-002
2.688396e+003;2.599706e-002
2.690324e+003;2.594250e-002
2.692253e+003;2.606390e-002
2.694182e+003;2.629526e-002
2.696110e+003;2.628681e-002
2.698039e+003;2.618301e-002
2.699967e+003;2.633775e-002
2.701896e+003;2.637095e-002
2.703824e+003;2.632912e-002
2.705753e+003;2.641162e-002
2.707681e+003;2.646810e-002
2.709610e+003;2.656312e-002
2.711539e+003;2.652801e-002
2.713467e+003;2.653576e-002
2.715396e+003;2.663044e-002
2.717324e+003;2.670711e-002
2.719253e+003;2.691875e-002
2.721181e+003;2.702470e-002
2.723110e+003;2.706793e-002
2.725038e+003;2.707706e-002
2.726967e+003;2.711512e-002
2.728896e+003;2.745266e-002
2.730824e+003;2.807184e-002
2.732752e+003;2.847102e-002
2.734681e+003;2.843419e-002
2.736610e+003;2.822535e-002
2.738538e+003;2.837239e-002
2.740467e+003;2.867485e-002
2.742395e+003;2.856754e-002
2.744324e+003;2.850116e-002
2.746252e+003;2.860820e-002
2.748181e+003;2.856379e-002
2.750109e+003;2.838474e-002
2.752038e+003;2.849182e-002
2.753967e+003;2.860463e-002
2.755895e+003;2.856011e-002
2.757824e+003;2.832267e-002
2.759752e+003;2.824989e-002
2.761681e+003;2.853428e-002
2.763609e+003;2.885873e-002
2.765538e+003;2.882446e-002
2.767466e+003;2.850972e-002
2.769395e+003;2.876384e-002
2.771323e+003;2.907639e-002
2.773252e+003;2.905570e-002
2.775181e+003;2.913205e-002
2.777109e+003;2.938401e-002
2.779038e+003;2.932793e-002
2.780966e+003;2.967277e-002
2.782895e+003;3.003866e-002
2.784823e+003;2.996268e-002
2.786752e+003;3.016444e-002
2.788680e+003;3.069166e-002
2.790609e+003;3.111329e-002
2.792538e+003;3.108278e-002
2.794466e+003;3.126837e-002
2.796395e+003;3.182556e-002
2.798323e+003;3.237550e-002
2.800252e+003;3.278051e-002
2.802180e+003;3.280302e-002
2.804109e+003;3.263829e-002
2.806037e+003;3.267486e-002
2.807966e+003;3.289808e-002
2.809895e+003;3.298226e-002
2.811823e+003;3.257846e-002
2.813751e+003;3.216015e-002
2.815680e+003;3.184784e-002
2.817609e+003;3.183508e-002
2.819537e+003;3.183582e-002
2.821466e+003;3.144519e-002
2.823394e+003;3.148071e-002
2.825323e+003;3.196067e-002
2.827251e+003;3.222363e-002
2.829180e+003;3.230022e-002
2.831108e+003;3.257328e-002
2.833037e+003;3.329181e-002
2.834966e+003;3.370212e-002
2.836894e+003;3.378731e-002
2.838823e+003;3.422795e-002
2.840751e+003;3.472962e-002
2.842680e+003;3.525307e-002
2.844608e+003;3.597493e-002
2.846537e+003;3.663080e-002
2.848465e+003;3.700602e-002
2.850394e+003;3.761478e-002
2.852323e+003;3.819197e-002
2.854251e+003;3.883439e-002
2.856180e+003;3.931307e-002
2.858108e+003;3.966264e-002
2.860037e+003;4.008395e-002
2.861965e+003;4.037166e-002
2.863894e+003;4.046057e-002
2.865822e+003;4.074074e-002
2.867751e+003;4.108694e-002
2.869679e+003;4.130910e-002
2.871608e+003;4.142765e-002
2.873536e+003;4.158015e-002
2.875465e+003;4.184222e-002
2.877394e+003;4.228979e-002
2.879322e+003;4.262239e-002
2.881251e+003;4.280014e-002
2.883179e+003;4.299954e-002
2.885108e+003;4.327257e-002
2.887036e+003;4.353430e-002
2.888965e+003;4.379220e-002
2.890893e+003;4.397875e-002
2.892822e+003;4.429125e-002
2.894750e+003;4.481614e-002
2.896679e+003;4.540917e-002
2.898608e+003;4.603672e-002
2.900536e+003;4.662769e-002
2.902465e+003;4.735354e-002
2.904393e+003;4.830904e-002
2.906322e+003;4.898411e-002
2.908250e+003;4.915105e-002
2.910179e+003;4.911606e-002
2.912107e+003;4.901616e-002
2.914036e+003;4.852306e-002
2.915965e+003;4.755246e-002
2.917893e+003;4.669335e-002
2.919822e+003;4.592798e-002
2.921750e+003;4.526102e-002
2.923679e+003;4.471763e-002
2.925607e+003;4.394645e-002
2.927536e+003;4.352342e-002
2.929464e+003;4.342608e-002
2.931393e+003;4.358628e-002
2.933322e+003;4.395565e-002
2.935250e+003;4.411817e-002
2.937178e+003;4.469052e-002
2.939107e+003;4.556109e-002
2.941036e+003;4.606044e-002
2.942964e+003;4.653861e-002
2.944893e+003;4.781165e-002
2.946821e+003;4.899023e-002
2.948750e+003;4.959943e-002
2.950678e+003;5.029366e-002
2.952607e+003;5.118847e-002
2.954535e+003;5.223159e-002
2.956464e+003;5.309773e-002
2.958393e+003;5.392552e-002
2.960321e+003;5.468447e-002
2.962250e+003;5.518340e-002
2.964178e+003;5.558014e-002
2.966107e+003;5.618229e-002
2.968035e+003;5.668959e-002
2.969964e+003;5.627461e-002
2.971892e+003;5.576097e-002
2.973821e+003;5.529177e-002
2.975750e+003;5.460744e-002
2.977678e+003;5.376716e-002
2.979607e+003;5.307582e-002
2.981535e+003;5.260346e-002
2.983464e+003;5.209634e-002
2.985392e+003;5.147662e-002
2.987321e+003;5.077011e-002
2.989249e+003;5.006675e-002
2.991178e+003;4.986735e-002
2.993106e+003;4.977671e-002
2.995035e+003;4.925993e-002
2.996964e+003;4.856227e-002
2.998892e+003;4.814031e-002
3.000821e+003;4.800296e-002
3.002749e+003;4.773845e-002
3.004678e+003;4.712402e-002
3.006606e+003;4.660637e-002
3.008535e+003;4.621808e-002
3.010463e+003;4.565630e-002
3.012392e+003;4.520836e-002
3.014321e+003;4.462307e-002
3.016249e+003;4.382647e-002
3.018177e+003;4.295418e-002
3.020106e+003;4.227796e-002
3.022035e+003;4.149728e-002
3.023963e+003;4.087694e-002
3.025892e+003;4.035875e-002
3.027820e+003;3.966982e-002
3.029749e+003;3.905641e-002
3.031677e+003;3.863460e-002
3.033606e+003;3.829966e-002
3.035534e+003;3.794229e-002
3.037463e+003;3.748863e-002
3.039392e+003;3.722491e-002
3.041320e+003;3.757442e-002
3.043249e+003;3.809104e-002
3.045177e+003;3.901215e-002
3.047106e+003;4.017168e-002
3.049034e+003;4.115086e-002
3.050963e+003;4.216016e-002
3.052891e+003;4.283392e-002
3.054820e+003;4.296914e-002
3.056749e+003;4.308841e-002
3.058677e+003;4.306953e-002
3.060606e+003;4.291039e-002
3.062534e+003;4.270661e-002
3.064463e+003;4.261570e-002
3.066391e+003;4.252686e-002
3.068320e+003;4.271681e-002
3.070248e+003;4.283198e-002
3.072177e+003;4.252620e-002
3.074105e+003;4.217502e-002
3.076034e+003;4.201340e-002
3.077963e+003;4.221686e-002
3.079891e+003;4.203888e-002
3.081820e+003;4.156590e-002
3.083748e+003;4.134572e-002
3.085677e+003;4.126526e-002
3.087605e+003;4.110424e-002
3.089534e+003;4.085732e-002
3.091462e+003;4.035526e-002
3.093391e+003;3.974472e-002
3.095320e+003;3.980536e-002
3.097248e+003;4.000928e-002
3.099177e+003;4.014646e-002
3.101105e+003;4.043599e-002
3.103034e+003;4.073088e-002
3.104962e+003;4.094565e-002
3.106891e+003;4.078038e-002
3.108819e+003;4.039213e-002
3.110748e+003;3.978038e-002
3.112677e+003;3.935689e-002
3.114605e+003;3.898681e-002
3.116533e+003;3.826531e-002
3.118462e+003;3.766081e-002
3.120391e+003;3.761073e-002
3.122319e+003;3.731033e-002
3.124248e+003;3.675980e-002
3.126176e+003;3.665506e-002
3.128105e+003;3.667691e-002
3.130033e+003;3.649106e-002
3.131962e+003;3.630384e-002
3.133890e+003;3.583144e-002
3.135819e+003;3.536847e-002
3.137748e+003;3.509451e-002
3.139676e+003;3.487949e-002
3.141605e+003;3.444827e-002
3.143533e+003;3.420490e-002
3.145462e+003;3.400942e-002
3.147390e+003;3.365797e-002
3.149319e+003;3.300636e-002
3.151247e+003;3.252893e-002
3.153176e+003;3.239363e-002
3.155104e+003;3.240870e-002
3.157033e+003;3.223134e-002
3.158962e+003;3.187573e-002
3.160890e+003;3.162170e-002
3.162819e+003;3.189519e-002
3.164747e+003;3.198817e-002
3.166676e+003;3.157281e-002
3.168604e+003;3.153455e-002
3.170533e+003;3.167602e-002
3.172461e+003;3.163746e-002
3.174390e+003;3.134205e-002
3.176319e+003;3.118000e-002
3.178247e+003;3.119584e-002
3.180176e+003;3.123419e-002
3.182104e+003;3.100488e-002
3.184033e+003;3.078957e-002
3.185961e+003;3.072121e-002
3.187890e+003;3.075923e-002
3.189818e+003;3.092941e-002
3.191747e+003;3.094293e-002
3.193676e+003;3.105090e-002
3.195604e+003;3.105026e-002
3.197532e+003;3.078487e-002
3.199461e+003;3.056953e-002
3.201390e+003;3.044508e-002
3.203318e+003;3.032789e-002
3.205247e+003;3.031019e-002
3.207175e+003;3.041789e-002
3.209104e+003;3.061919e-002
3.211032e+003;3.083471e-002
3.212961e+003;3.085150e-002
3.214889e+003;3.078057e-002
3.216818e+003;3.052022e-002
3.218747e+003;3.052360e-002
3.220675e+003;3.059960e-002
3.222604e+003;3.056942e-002
3.224532e+003;3.045503e-002
3.226461e+003;3.032117e-002
3.228389e+003;3.034910e-002
3.230318e+003;3.020646e-002
3.232246e+003;3.033787e-002
3.234175e+003;3.050913e-002
3.236104e+003;3.045411e-002
3.238032e+003;3.052129e-002
3.239961e+003;3.053380e-002
3.241889e+003;3.036853e-002
3.243818e+003;3.031048e-002
3.245746e+003;3.027577e-002
3.247675e+003;3.020582e-002
3.249603e+003;3.015712e-002
3.251532e+003;3.016242e-002
3.253460e+003;3.001441e-002
3.255389e+003;2.972060e-002
3.257318e+003;2.951908e-002
3.259246e+003;2.936295e-002
3.261175e+003;2.956869e-002
3.263103e+003;2.959175e-002
3.265032e+003;2.944797e-002
3.266960e+003;2.948198e-002
3.268889e+003;2.940092e-002
3.270817e+003;2.948287e-002
3.272746e+003;2.962757e-002
3.274675e+003;2.922826e-002
3.276603e+003;2.924403e-002
3.278531e+003;2.971215e-002
3.280460e+003;2.999385e-002
3.282389e+003;2.993630e-002
3.284317e+003;2.961250e-002
3.286246e+003;2.977013e-002
3.288174e+003;2.994685e-002
3.290103e+003;2.991987e-002
3.292031e+003;2.989733e-002
3.293960e+003;2.976530e-002
3.295888e+003;2.973468e-002
3.297817e+003;2.984934e-002
3.299746e+003;3.020461e-002
3.301674e+003;3.026479e-002
3.303603e+003;2.953702e-002
3.305531e+003;2.938515e-002
3.307460e+003;2.982890e-002
3.309388e+003;2.972840e-002
3.311317e+003;2.932141e-002
3.313245e+003;2.908833e-002
3.315174e+003;2.896990e-002
3.317103e+003;2.908071e-002
3.319031e+003;2.892336e-002
3.320960e+003;2.879387e-002
3.322888e+003;2.918488e-002
3.324817e+003;2.967980e-002
3.326745e+003;3.021140e-002
3.328674e+003;3.009718e-002
3.330602e+003;3.009412e-002
3.332531e+003;3.020799e-002
3.334459e+003;3.001544e-002
3.336388e+003;2.985229e-002
3.338317e+003;2.960881e-002
3.340245e+003;2.980590e-002
3.342174e+003;3.030501e-002
3.344102e+003;3.030564e-002
3.346031e+003;2.994688e-002
3.347959e+003;2.920572e-002
3.349888e+003;2.866827e-002
3.351816e+003;2.867248e-002
3.353745e+003;2.821212e-002
3.355674e+003;2.808825e-002
3.357602e+003;2.832125e-002
3.359531e+003;2.806046e-002
3.361459e+003;2.758059e-002
3.363388e+003;2.755143e-002
3.365316e+003;2.755920e-002
3.367245e+003;2.732872e-002
3.369173e+003;2.700114e-002
3.371102e+003;2.718442e-002
3.373031e+003;2.745309e-002
3.374959e+003;2.716795e-002
3.376887e+003;2.711737e-002
3.378816e+003;2.715014e-002
3.380745e+003;2.726422e-002
3.382673e+003;2.764800e-002
3.384602e+003;2.788094e-002
3.386530e+003;2.772008e-002
3.388459e+003;2.755404e-002
3.390387e+003;2.762643e-002
3.392316e+003;2.799557e-002
3.394244e+003;2.830346e-002
3.396173e+003;2.816881e-002
3.398102e+003;2.823472e-002
3.400030e+003;2.889198e-002
3.401959e+003;2.956437e-002
3.403887e+003;2.973557e-002
3.405816e+003;3.008233e-002
3.407744e+003;3.093880e-002
3.409673e+003;3.181928e-002
3.411601e+003;3.258982e-002
3.413530e+003;3.343525e-002
3.415458e+003;3.397860e-002
3.417387e+003;3.447672e-002
3.419316e+003;3.554101e-002
3.421244e+003;3.640655e-002
3.423173e+003;3.679169e-002
3.425101e+003;3.746461e-002
3.427030e+003;3.819045e-002
3.428958e+003;3.857648e-002
3.430887e+003;3.881218e-002
3.432815e+003;3.878192e-002
3.434744e+003;3.855588e-002
3.436673e+003;3.809375e-002
3.438601e+003;3.756564e-002
3.440530e+003;3.692911e-002
3.442458e+003;3.606598e-002
3.444387e+003;3.540478e-002
3.446315e+003;3.520549e-002
3.448244e+003;3.477686e-002
3.450172e+003;3.399573e-002
3.452101e+003;3.287503e-002
3.454030e+003;3.217303e-002
3.455958e+003;3.183497e-002
3.457886e+003;3.135327e-002
3.459815e+003;3.108300e-002
3.461744e+003;3.085573e-002
3.463672e+003;3.036871e-002
3.465601e+003;2.973011e-002
3.467529e+003;2.915604e-002
3.469458e+003;2.868451e-002
3.471386e+003;2.817333e-002
3.473315e+003;2.782452e-002
3.475243e+003;2.785448e-002
3.477172e+003;2.742813e-002
3.479101e+003;2.689724e-002
3.481029e+003;2.699726e-002
3.482958e+003;2.701211e-002
3.484886e+003;2.701154e-002
3.486815e+003;2.707128e-002
3.488743e+003;2.688970e-002
3.490672e+003;2.625678e-002
3.492600e+003;2.570345e-002
3.494529e+003;2.615926e-002
3.496458e+003;2.674559e-002
3.498386e+003;2.697011e-002
3.500315e+003;2.686386e-002
3.502243e+003;2.665648e-002
3.504172e+003;2.685487e-002
3.506100e+003;2.745164e-002
3.508029e+003;2.743028e-002
3.509957e+003;2.709487e-002
3.511886e+003;2.724453e-002
3.513814e+003;2.731954e-002
3.515743e+003;2.741574e-002
3.517672e+003;2.736912e-002
3.519600e+003;2.737661e-002
3.521529e+003;2.779725e-002
3.523457e+003;2.816347e-002
3.525386e+003;2.846366e-002
3.527314e+003;2.842022e-002
3.529243e+003;2.832956e-002
3.531171e+003;2.856563e-002
3.533100e+003;2.871163e-002
3.535029e+003;2.878693e-002
3.536957e+003;2.868377e-002
3.538885e+003;2.869127e-002
3.540814e+003;2.900093e-002
3.542743e+003;2.941376e-002
3.544671e+003;2.952596e-002
3.546600e+003;2.920253e-002
3.548528e+003;2.889960e-002
3.550457e+003;2.875138e-002
3.552385e+003;2.862027e-002
3.554314e+003;2.849479e-002
3.556242e+003;2.879447e-002
3.558171e+003;2.892779e-002
3.560100e+003;2.864356e-002
3.562028e+003;2.852374e-002
3.563957e+003;2.843999e-002
3.565885e+003;2.809001e-002
3.567814e+003;2.751221e-002
3.569742e+003;2.693990e-002
3.571671e+003;2.692259e-002
3.573599e+003;2.689199e-002
3.575528e+003;2.669763e-002
3.577457e+003;2.664626e-002
3.579385e+003;2.632141e-002
3.581314e+003;2.582767e-002
3.583242e+003;2.543991e-002
3.585171e+003;2.543492e-002
3.587099e+003;2.509066e-002
3.589028e+003;2.477627e-002
3.590956e+003;2.466585e-002
3.592885e+003;2.438181e-002
3.594813e+003;2.446684e-002
3.596742e+003;2.479872e-002
3.598671e+003;2.469801e-002
3.600599e+003;2.454382e-002
3.602528e+003;2.441885e-002
3.604456e+003;2.403816e-002
3.606385e+003;2.381724e-002
3.608313e+003;2.374504e-002
3.610242e+003;2.404362e-002
3.612170e+003;2.460869e-002
3.614099e+003;2.489527e-002
3.616028e+003;2.468135e-002
3.617956e+003;2.444956e-002
3.619885e+003;2.444994e-002
3.621813e+003;2.438895e-002
3.623742e+003;2.441426e-002
3.625670e+003;2.465112e-002
3.627599e+003;2.490383e-002
3.629527e+003;2.478721e-002
3.631456e+003;2.435720e-002
3.633385e+003;2.458341e-002
3.635313e+003;2.501171e-002
3.637241e+003;2.505804e-002
3.639170e+003;2.517102e-002
3.641099e+003;2.507767e-002
3.643027e+003;2.459778e-002
3.644956e+003;2.441296e-002
3.646884e+003;2.415546e-002
3.648813e+003;2.381003e-002
3.650741e+003;2.382676e-002
3.652670e+003;2.380804e-002
3.654598e+003;2.350507e-002
3.656527e+003;2.290794e-002
3.658456e+003;2.285348e-002
3.660384e+003;2.307831e-002
3.662313e+003;2.289732e-002
3.664241e+003;2.254406e-002
3.666170e+003;2.201318e-002
3.668098e+003;2.151481e-002
3.670027e+003;2.157212e-002
3.671955e+003;2.194546e-002
3.673884e+003;2.189866e-002
3.675813e+003;2.185388e-002
3.677741e+003;2.208255e-002
3.679669e+003;2.217937e-002
3.681598e+003;2.225404e-002
3.683527e+003;2.229143e-002
3.685455e+003;2.266930e-002
3.687384e+003;2.269230e-002
3.689312e+003;2.220651e-002
3.691241e+003;2.165100e-002
3.693169e+003;2.155742e-002
3.695098e+003;2.161502e-002
3.697026e+003;2.145813e-002
3.698955e+003;2.148267e-002
3.700884e+003;2.102851e-002
3.702812e+003;2.032553e-002
3.704741e+003;2.013314e-002
3.706669e+003;2.015292e-002
3.708598e+003;1.988288e-002
3.710526e+003;1.956093e-002
3.712455e+003;1.933417e-002
3.714383e+003;1.958891e-002
3.716312e+003;1.990282e-002
3.718240e+003;2.017451e-002
3.720169e+003;1.996936e-002
3.722098e+003;1.949432e-002
3.724026e+003;1.967703e-002
3.725955e+003;1.998861e-002
3.727883e+003;1.993862e-002
3.729812e+003;1.965831e-002
3.731740e+003;1.975081e-002
3.733669e+003;2.008757e-002
3.735597e+003;2.024737e-002
3.737526e+003;1.984580e-002
3.739455e+003;1.975660e-002
3.741383e+003;1.972252e-002
3.743312e+003;1.959470e-002
3.745240e+003;1.970792e-002
3.747169e+003;1.988766e-002
3.749097e+003;2.005929e-002
3.751026e+003;2.007404e-002
3.752954e+003;2.025810e-002
3.754883e+003;2.053186e-002
3.756812e+003;2.088490e-002
3.758740e+003;2.103175e-002
3.760668e+003;2.135840e-002
3.762597e+003;2.161537e-002
3.764526e+003;2.133345e-002
3.766454e+003;2.077426e-002
3.768383e+003;2.045457e-002
3.770311e+003;2.066332e-002
3.772240e+003;2.069960e-002
3.774168e+003;2.027741e-002
3.776097e+003;1.984375e-002
3.778025e+003;1.963699e-002
3.779954e+003;1.974776e-002
3.781883e+003;1.980495e-002
3.783811e+003;1.969717e-002
3.785740e+003;1.960884e-002
3.787668e+003;1.969908e-002
3.789597e+003;1.989776e-002
3.791525e+003;2.015709e-002
3.793454e+003;2.035695e-002
3.795382e+003;2.005260e-002
3.797311e+003;1.983005e-002
3.799240e+003;1.999732e-002
3.801168e+003;2.051932e-002
3.803097e+003;2.072543e-002
3.805025e+003;2.071340e-002
3.806954e+003;2.069815e-002
3.808882e+003;2.063483e-002
3.810811e+003;2.074027e-002
3.812739e+003;2.083005e-002
3.814668e+003;2.020669e-002
3.816596e+003;1.997925e-002
3.818525e+003;2.029410e-002
3.820454e+003;2.049319e-002
3.822382e+003;2.083345e-002
3.824311e+003;2.076866e-002
3.826239e+003;2.034247e-002
3.828168e+003;2.035462e-002
3.830096e+003;2.029272e-002
3.832025e+003;1.996697e-002
3.833953e+003;2.001595e-002
3.835882e+003;2.005659e-002
3.837811e+003;1.996079e-002
3.839739e+003;2.026078e-002
3.841667e+003;2.030188e-002
3.843596e+003;1.991628e-002
3.845525e+003;1.999746e-002
3.847453e+003;2.007619e-002
3.849382e+003;1.992124e-002
3.851310e+003;1.998091e-002
3.853239e+003;1.991573e-002
3.855167e+003;2.006030e-002
3.857096e+003;2.057768e-002
3.859024e+003;2.066294e-002
3.860953e+003;2.038424e-002
3.862882e+003;2.038286e-002
3.864810e+003;2.034375e-002
3.866739e+003;2.005496e-002
3.868667e+003;2.003976e-002
3.870596e+003;2.026998e-002
3.872524e+003;2.058817e-002
3.874453e+003;2.049038e-002
3.876381e+003;2.045075e-002
3.878310e+003;2.030073e-002
3.880239e+003;1.989578e-002
3.882167e+003;2.013974e-002
3.884096e+003;2.070336e-002
3.886024e+003;2.088153e-002
3.887953e+003;2.076289e-002
3.889881e+003;2.040539e-002
3.891810e+003;2.055510e-002
3.893738e+003;2.090608e-002
3.895667e+003;2.064619e-002
3.897595e+003;2.025560e-002
3.899524e+003;2.054811e-002
3.901453e+003;2.087652e-002
3.903381e+003;2.106590e-002
3.905310e+003;2.121893e-002
3.907238e+003;2.135099e-002
3.909167e+003;2.183938e-002
3.911095e+003;2.182618e-002
3.913024e+003;2.169042e-002
3.914952e+003;2.186984e-002
3.916881e+003;2.190343e-002
3.918810e+003;2.208851e-002
3.920738e+003;2.157647e-002
3.922667e+003;2.115641e-002
3.924595e+003;2.154370e-002
3.926524e+003;2.201266e-002
3.928452e+003;2.222589e-002
3.930381e+003;2.242796e-002
3.932309e+003;2.236356e-002
3.934238e+003;2.215364e-002
3.936167e+003;2.178169e-002
3.938095e+003;2.174772e-002
3.940023e+003;2.180918e-002
3.941952e+003;2.175567e-002
3.943881e+003;2.190496e-002
3.945809e+003;2.200813e-002
3.947738e+003;2.183433e-002
3.949666e+003;2.172808e-002
3.951595e+003;2.197627e-002
3.953523e+003;2.224839e-002
3.955452e+003;2.230207e-002
3.957380e+003;2.253628e-002
3.959309e+003;2.258357e-002
3.961238e+003;2.232331e-002
3.963166e+003;2.284622e-002
3.965095e+003;2.310721e-002
3.967023e+003;2.272596e-002
3.968952e+003;2.256741e-002
3.970880e+003;2.292271e-002
3.972809e+003;2.307632e-002
3.974737e+003;2.280596e-002
3.976666e+003;2.224173e-002
3.978594e+003;2.225606e-002
3.980523e+003;2.268337e-002
3.982452e+003;2.266891e-002
3.984380e+003;2.257303e-002
3.986309e+003;2.263973e-002
3.988237e+003;2.294926e-002
3.990166e+003;2.299467e-002
3.992094e+003;2.263327e-002
3.994023e+003;2.247800e-002
3.995951e+003;2.241422e-002
3.997880e+003;2.235634e-002
3.999809e+003;2.234863e-002
4.001737e+003;0.000000e+000
