3.992094e+002;0.000000e+000
4.011380e+002;0.000000e+000
4.030665e+002;0.000000e+000
4.049951e+002;0.000000e+000
4.069236e+002;0.000000e+000
4.088522e+002;0.000000e+000
4.107807e+002;0.000000e+000
4.127093e+002;0.000000e+000
4.146378e+002;0.000000e+000
4.165664e+002;0.000000e+000
4.184949e+002;0.000000e+000
4.204235e+002;0.000000e+000
4.223520e+002;0.000000e+000
4.242806e+002;0.000000e+000
4.262091e+002;0.000000e+000
4.281377e+002;0.000000e+000
4.300662e+002;0.000000e+000
4.319948e+002;0.000000e+000
4.339233e+002;0.000000e+000
4.358519e+002;0.000000e+000
4.377804e+002;0.000000e+000
4.397090e+002;0.000000e+000
4.416375e+002;0.000000e+000
4.435660e+002;0.000000e+000
4.454946e+002;0.000000e+000
4.474232e+002;0.000000e+000
4.493517e+002;0.000000e+000
4.512802e+002;0.000000e+000
4.532088e+002;0.000000e+000
4.551373e+002;0.000000e+000
4.570659e+002;0.000000e+000
4.589944e+002;0.000000e+000
4.609230e+002;0.000000e+000
4.628515e+002;0.000000e+000
4.647801e+002;0.000000e+000
4.667086e+002;0.000000e+000
4.686372e+002;0.000000e+000
4.705657e+002;0.000000e+000
4.724943e+002;0.000000e+000
4.744228e+002;0.000000e+000
4.763513e+002;0.000000e+000
4.782799e+002;0.000000e+000
4.802085e+002;0.000000e+000
4.821370e+002;0.000000e+000
4.840656e+002;0.000000e+000
4.859941e+002;0.000000e+000
4.879226e+002;0.000000e+000
4.898512e+002;0.000000e+000
4.917798e+002;0.000000e+000
4.937083e+002;0.000000e+000
4.956368e+002;0.000000e+000
4.975654e+002;0.000000e+000
4.994939e+002;0.000000e+000
5.014225e+002;0.000000e+000
5.033510e+002;0.000000e+000
5.052796e+002;0.000000e+000
5.072081e+002;0.000000e+000
5.091367e+002;0.000000e+000
5.110652e+002;0.000000e+000
5.129938e+002;0.000000e+000
5.149223e+002;0.000000e+000
5.168509e+002;0.000000e+000
5.187794e+002;0.000000e+000
5.207079e+002;0.000000e+000
5.226365e+002;0.000000e+000
5.245651e+002;0.000000e+000
5.264936e+002;0.000000e+000
5.284222e+002;0.000000e+000
5.303507e+002;0.000000e+000
5.322792e+002;0.000000e+000
5.342078e+002;0.000000e+000
5.361364e+002;0.000000e+000
5.380649e+002;0.000000e+000
5.399935e+002;0.000000e+000
5.419220e+002;0.000000e+000
5.438505e+002;0.000000e+000
5.457791e+002;0.000000e+000
5.477076e+002;0.000000e+000
5.496362e+002;0.000000e+000
5.515648e+002;0.000000e+000
5.534933e+002;0.000000e+000
5.554218e+002;0.000000e+000
5.573504e+002;0.000000e+000
5.592789e+002;0.000000e+000
5.612075e+002;0.000000e+000
5.631360e+002;0.000000e+000
5.650646e+002;0.000000e+000
5.669931e+002;0.000000e+000
5.689217e+002;0.000000e+000
5.708502e+002;0.000000e+000
5.727787e+002;0.000000e+000
5.747073e+002;0.000000e+000
5.766359e+002;0.000000e+000
5.785644e+002;0.000000e+000
5.804930e+002;0.000000e+000
5.824215e+002;0.000000e+000
5.843500e+002;0.000000e+000
5.862786e+002;0.000000e+000
5.882072e+002;0.000000e+000
5.901357e+002;0.000000e+000
5.920643e+002;0.000000e+000
5.939928e+002;0.000000e+000
5.959213e+002;0.000000e+000
5.978499e+002;0.000000e+000
5.997784e+002;5.012703e-002
6.017070e+002;4.310414e-002
6.036355e+002;4.169769e-002
6.055641e+002;4.464477e-002
6.074926e+002;4.987474e-002
6.094211e+002;5.325812e-002
6.113497e+002;5.278601e-002
6.132783e+002;5.332072e-002
6.152068e+002;5.523762e-002
6.171354e+002;5.573230e-002
6.190639e+002;5.529177e-002
6.209924e+002;5.321277e-002
6.229210e+002;5.665811e-002
6.248495e+002;5.809246e-002
6.267781e+002;5.417488e-002
6.287067e+002;5.379435e-002
6.306352e+002;5.615110e-002
6.325637e+002;5.479606e-002
6.344923e+002;5.253502e-002
6.364208e+002;5.223597e-002
6.383494e+002;5.123817e-002
6.402780e+002;5.308279e-002
6.422065e+002;5.375066e-002
6.441350e+002;5.022674e-002
6.460636e+002;5.001332e-002
6.479921e+002;5.362937e-002
6.499207e+002;5.482090e-002
6.518492e+002;5.420937e-002
6.537778e+002;5.457430e-002
6.557063e+002;5.507281e-002
6.576349e+002;5.672761e-002
6.595634e+002;5.699725e-002
6.614919e+002;5.880819e-002
6.634205e+002;5.979009e-002
6.653491e+002;5.929092e-002
6.672776e+002;5.845664e-002
6.692062e+002;5.886453e-002
6.711347e+002;5.987580e-002
6.730632e+002;5.965980e-002
6.749918e+002;5.964782e-002
6.769203e+002;6.081427e-002
6.788489e+002;6.278027e-002
6.807775e+002;6.448153e-002
6.827060e+002;6.547982e-002
6.846345e+002;6.479971e-002
6.865631e+002;6.399802e-002
6.884916e+002;6.444067e-002
6.904202e+002;6.505658e-002
6.923488e+002;6.644110e-002
6.942773e+002;6.867088e-002
6.962058e+002;7.135992e-002
6.981344e+002;7.443111e-002
7.000629e+002;7.908633e-002
7.019915e+002;8.432662e-002
7.039200e+002;8.776267e-002
7.058486e+002;9.181407e-002
7.077771e+002;9.605839e-002
7.097057e+002;9.959936e-002
7.116342e+002;1.052214e-001
7.135627e+002;1.121742e-001
7.154913e+002;1.209999e-001
7.174199e+002;1.342556e-001
7.193484e+002;1.487163e-001
7.212770e+002;1.600034e-001
7.232055e+002;1.666366e-001
7.251340e+002;1.645441e-001
7.270626e+002;1.543532e-001
7.289911e+002;1.406076e-001
7.309197e+002;1.263419e-001
7.328483e+002;1.126255e-001
7.347768e+002;9.947678e-002
7.367053e+002;8.767752e-002
7.386339e+002;7.728735e-002
7.405624e+002;6.876962e-002
7.424910e+002;6.245510e-002
7.444196e+002;5.874798e-002
7.463481e+002;5.561060e-002
7.482766e+002;5.391615e-002
7.502052e+002;5.396180e-002
7.521337e+002;5.308679e-002
7.540623e+002;5.273629e-002
7.559908e+002;5.240046e-002
7.579194e+002;5.176328e-002
7.598479e+002;5.155340e-002
7.617765e+002;5.165057e-002
7.637050e+002;5.237287e-002
7.656335e+002;5.277209e-002
7.675621e+002;5.264457e-002
7.694907e+002;5.339464e-002
7.714192e+002;5.441724e-002
7.733478e+002;5.501534e-002
7.752763e+002;5.633821e-002
7.772048e+002;5.727094e-002
7.791334e+002;5.723099e-002
7.810620e+002;5.787639e-002
7.829905e+002;5.959461e-002
7.849191e+002;6.147965e-002
7.868476e+002;6.281251e-002
7.887761e+002;6.384446e-002
7.907047e+002;6.541290e-002
7.926332e+002;6.590146e-002
7.945618e+002;6.495172e-002
7.964903e+002;6.261938e-002
7.984189e+002;5.996873e-002
8.003474e+002;5.953251e-002
8.022759e+002;6.036476e-002
8.042045e+002;6.031218e-002
8.061331e+002;6.017088e-002
8.080616e+002;5.993678e-002
8.099902e+002;5.955794e-002
8.119187e+002;5.989227e-002
8.138472e+002;6.029984e-002
8.157758e+002;6.061830e-002
8.177043e+002;6.087842e-002
8.196329e+002;6.118723e-002
8.215615e+002;6.143724e-002
8.234900e+002;6.204799e-002
8.254185e+002;6.280699e-002
8.273471e+002;6.329324e-002
8.292756e+002;6.465341e-002
8.312042e+002;6.555434e-002
8.331328e+002;6.585345e-002
8.350613e+002;6.680042e-002
8.369898e+002;6.741942e-002
8.389184e+002;6.873997e-002
8.408469e+002;7.094660e-002
8.427755e+002;7.277387e-002
8.447040e+002;7.454978e-002
8.466326e+002;7.630458e-002
8.485611e+002;7.684553e-002
8.504897e+002;7.613114e-002
8.524182e+002;7.491977e-002
8.543467e+002;7.439257e-002
8.562753e+002;7.439910e-002
8.582039e+002;7.385950e-002
8.601324e+002;7.327086e-002
8.620610e+002;7.363760e-002
8.639895e+002;7.477085e-002
8.659180e+002;7.781842e-002
8.678466e+002;8.305927e-002
8.697751e+002;9.014066e-002
8.717037e+002;9.613962e-002
8.736323e+002;9.545918e-002
8.755608e+002;9.013577e-002
8.774893e+002;8.448011e-002
8.794179e+002;7.959208e-002
8.813464e+002;7.508304e-002
8.832750e+002;7.108910e-002
8.852036e+002;6.826864e-002
8.871321e+002;6.644570e-002
8.890606e+002;6.483687e-002
8.909892e+002;6.353316e-002
8.929177e+002;6.343237e-002
8.948463e+002;6.336156e-002
8.967748e+002;6.261682e-002
8.987034e+002;6.227965e-002
9.006319e+002;6.249091e-002
9.025605e+002;6.237309e-002
9.044890e+002;6.205912e-002
9.064175e+002;6.107227e-002
9.083461e+002;6.007879e-002
9.102747e+002;5.953692e-002
9.122032e+002;5.867899e-002
9.141318e+002;5.809803e-002
9.160603e+002;5.800062e-002
9.179888e+002;5.787798e-002
9.199174e+002;5.767065e-002
9.218459e+002;5.754542e-002
9.237745e+002;5.783551e-002
9.257031e+002;5.822577e-002
9.276316e+002;5.818830e-002
9.295601e+002;5.806678e-002
9.314887e+002;5.823406e-002
9.334172e+002;5.874571e-002
9.353458e+002;5.930357e-002
9.372744e+002;5.930661e-002
9.392029e+002;5.933943e-002
9.411314e+002;5.984371e-002
9.430600e+002;6.011818e-002
9.449885e+002;6.042477e-002
9.469171e+002;6.104321e-002
9.488456e+002;6.175316e-002
9.507742e+002;6.289388e-002
9.527027e+002;6.416630e-002
9.546313e+002;6.510735e-002
9.565598e+002;6.615644e-002
9.584883e+002;6.759000e-002
9.604169e+002;6.901196e-002
9.623455e+002;7.016636e-002
9.642740e+002;7.124145e-002
9.662026e+002;7.234751e-002
9.681311e+002;7.340048e-002
9.700596e+002;7.416612e-002
9.719882e+002;7.423483e-002
9.739167e+002;7.351204e-002
9.758453e+002;7.236034e-002
9.777739e+002;7.118449e-002
9.797024e+002;7.027436e-002
9.816309e+002;6.970605e-002
9.835595e+002;6.880972e-002
9.854880e+002;6.790935e-002
9.874166e+002;6.743935e-002
9.893452e+002;6.732752e-002
9.912737e+002;6.738177e-002
9.932022e+002;6.714668e-002
9.951307e+002;6.695119e-002
9.970593e+002;6.732752e-002
9.989879e+002;6.781638e-002
1.000916e+003;6.821509e-002
1.002845e+003;6.919676e-002
1.004773e+003;7.049700e-002
1.006702e+003;7.187057e-002
1.008631e+003;7.428263e-002
1.010559e+003;7.825626e-002
1.012488e+003;8.501386e-002
1.014416e+003;9.506436e-002
1.016345e+003;1.050722e-001
1.018273e+003;1.093272e-001
1.020202e+003;1.059816e-001
1.022130e+003;9.872765e-002
1.024059e+003;9.104048e-002
1.025988e+003;8.375178e-002
1.027916e+003;7.772941e-002
1.029845e+003;7.421482e-002
1.031773e+003;7.310565e-002
1.033702e+003;7.249878e-002
1.035630e+003;7.228411e-002
1.037559e+003;7.259953e-002
1.039487e+003;7.291808e-002
1.041416e+003;7.344223e-002
1.043344e+003;7.385451e-002
1.045273e+003;7.400598e-002
1.047202e+003;7.387411e-002
1.049130e+003;7.388750e-002
1.051059e+003;7.388692e-002
1.052987e+003;7.380790e-002
1.054916e+003;7.399400e-002
1.056844e+003;7.465353e-002
1.058773e+003;7.528124e-002
1.060701e+003;7.593523e-002
1.062630e+003;7.797942e-002
1.064558e+003;8.062899e-002
1.066487e+003;8.262406e-002
1.068416e+003;8.488001e-002
1.070344e+003;8.779901e-002
1.072273e+003;9.112675e-002
1.074201e+003;9.463475e-002
1.076130e+003;9.905098e-002
1.078058e+003;1.047673e-001
1.079987e+003;1.114236e-001
1.081915e+003;1.181332e-001
1.083844e+003;1.238251e-001
1.085773e+003;1.290099e-001
1.087701e+003;1.332593e-001
1.089630e+003;1.370798e-001
1.091558e+003;1.411395e-001
1.093487e+003;1.447522e-001
1.095415e+003;1.478921e-001
1.097344e+003;1.502537e-001
1.099272e+003;1.506763e-001
1.101201e+003;1.496513e-001
1.103129e+003;1.470358e-001
1.105058e+003;1.430021e-001
1.106987e+003;1.383703e-001
1.108915e+003;1.338646e-001
1.110844e+003;1.302253e-001
1.112772e+003;1.284039e-001
1.114701e+003;1.289818e-001
1.116629e+003;1.299535e-001
1.118558e+003;1.300319e-001
1.120486e+003;1.293795e-001
1.122415e+003;1.274653e-001
1.124344e+003;1.244905e-001
1.126272e+003;1.208769e-001
1.128201e+003;1.170095e-001
1.130129e+003;1.127385e-001
1.132058e+003;1.080457e-001
1.133986e+003;1.025201e-001
1.135915e+003;9.738915e-002
1.137843e+003;9.340639e-002
1.139772e+003;8.945985e-002
1.141700e+003;8.567998e-002
1.143629e+003;8.304010e-002
1.145557e+003;8.125022e-002
1.147486e+003;7.962853e-002
1.149415e+003;7.847454e-002
1.151343e+003;7.754771e-002
1.153272e+003;7.677672e-002
1.155200e+003;7.588231e-002
1.157129e+003;7.497399e-002
1.159057e+003;7.421313e-002
1.160986e+003;7.407263e-002
1.162914e+003;7.461592e-002
1.164843e+003;7.524491e-002
1.166771e+003;7.597616e-002
1.168700e+003;7.701253e-002
1.170629e+003;7.767659e-002
1.172557e+003;7.769834e-002
1.174486e+003;7.784902e-002
1.176414e+003;7.763594e-002
1.178343e+003;7.699790e-002
1.180271e+003;7.601863e-002
1.182200e+003;7.464086e-002
1.184128e+003;7.349563e-002
1.186057e+003;7.313945e-002
1.187986e+003;7.322659e-002
1.189914e+003;7.308910e-002
1.191843e+003;7.347550e-002
1.193771e+003;7.467659e-002
1.195700e+003;7.562136e-002
1.197628e+003;7.667930e-002
1.199557e+003;7.798980e-002
1.201485e+003;7.941752e-002
1.203414e+003;8.126157e-002
1.205343e+003;8.313751e-002
1.207271e+003;8.490019e-002
1.209200e+003;8.668959e-002
1.211128e+003;8.841795e-002
1.213057e+003;9.049798e-002
1.214985e+003;9.322466e-002
1.216914e+003;9.624829e-002
1.218842e+003;9.957661e-002
1.220771e+003;1.029907e-001
1.222699e+003;1.063428e-001
1.224628e+003;1.098305e-001
1.226557e+003;1.139185e-001
1.228485e+003;1.191971e-001
1.230414e+003;1.262621e-001
1.232342e+003;1.347882e-001
1.234271e+003;1.445693e-001
1.236199e+003;1.553381e-001
1.238128e+003;1.661925e-001
1.240056e+003;1.756168e-001
1.241985e+003;1.828604e-001
1.243913e+003;1.876877e-001
1.245842e+003;1.901397e-001
1.247771e+003;1.903549e-001
1.249699e+003;1.885356e-001
1.251628e+003;1.857798e-001
1.253556e+003;1.831735e-001
1.255485e+003;1.809422e-001
1.257413e+003;1.791103e-001
1.259342e+003;1.767146e-001
1.261270e+003;1.735353e-001
1.263199e+003;1.699985e-001
1.265127e+003;1.655004e-001
1.267056e+003;1.599977e-001
1.268985e+003;1.540566e-001
1.270913e+003;1.478321e-001
1.272842e+003;1.420351e-001
1.274770e+003;1.370336e-001
1.276699e+003;1.323936e-001
1.278627e+003;1.275201e-001
1.280556e+003;1.227488e-001
1.282484e+003;1.183419e-001
1.284413e+003;1.141089e-001
1.286342e+003;1.100385e-001
1.288270e+003;1.058510e-001
1.290199e+003;1.015330e-001
1.292127e+003;9.711380e-002
1.294056e+003;9.293195e-002
1.295984e+003;8.915832e-002
1.297913e+003;8.538230e-002
1.299841e+003;8.152433e-002
1.301770e+003;7.829714e-002
1.303698e+003;7.578395e-002
1.305627e+003;7.378464e-002
1.307556e+003;7.183144e-002
1.309484e+003;6.989718e-002
1.311413e+003;6.831300e-002
1.313341e+003;6.673098e-002
1.315270e+003;6.525754e-002
1.317198e+003;6.422238e-002
1.319127e+003;6.348180e-002
1.321055e+003;6.265543e-002
1.322984e+003;6.194557e-002
1.324912e+003;6.181242e-002
1.326841e+003;6.256764e-002
1.328770e+003;6.431654e-002
1.330698e+003;6.754354e-002
1.332627e+003;7.279268e-002
1.334555e+003;7.894651e-002
1.336484e+003;8.454439e-002
1.338412e+003;8.814526e-002
1.340341e+003;8.823206e-002
1.342269e+003;8.454157e-002
1.344198e+003;7.826262e-002
1.346126e+003;7.154607e-002
1.348055e+003;6.596509e-002
1.349984e+003;6.189238e-002
1.351912e+003;5.902912e-002
1.353841e+003;5.672146e-002
1.355769e+003;5.529934e-002
1.357698e+003;5.485839e-002
1.359626e+003;5.481782e-002
1.361555e+003;5.518671e-002
1.363483e+003;5.580154e-002
1.365412e+003;5.649079e-002
1.367341e+003;5.708994e-002
1.369269e+003;5.734240e-002
1.371198e+003;5.736263e-002
1.373126e+003;5.709432e-002
1.375055e+003;5.655978e-002
1.376983e+003;5.614518e-002
1.378912e+003;5.578327e-002
1.380840e+003;5.567862e-002
1.382769e+003;5.583048e-002
1.384698e+003;5.603211e-002
1.386626e+003;5.621559e-002
1.388555e+003;5.636865e-002
1.390483e+003;5.663414e-002
1.392412e+003;5.717391e-002
1.394340e+003;5.798634e-002
1.396269e+003;5.931500e-002
1.398197e+003;6.114821e-002
1.400126e+003;6.364482e-002
1.402054e+003;6.704313e-002
1.403983e+003;7.129876e-002
1.405911e+003;7.575551e-002
1.407840e+003;7.878043e-002
1.409769e+003;7.833106e-002
1.411697e+003;7.402744e-002
1.413626e+003;6.771045e-002
1.415554e+003;6.136316e-002
1.417483e+003;5.626982e-002
1.419411e+003;5.273528e-002
1.421340e+003;5.071395e-002
1.423268e+003;4.961941e-002
1.425197e+003;4.913817e-002
1.427125e+003;4.917565e-002
1.429054e+003;4.937730e-002
1.430983e+003;4.990849e-002
1.432911e+003;5.080534e-002
1.434840e+003;5.139169e-002
1.436768e+003;5.186016e-002
1.438697e+003;5.262126e-002
1.440625e+003;5.305579e-002
1.442554e+003;5.323389e-002
1.444482e+003;5.378445e-002
1.446411e+003;5.452587e-002
1.448340e+003;5.501819e-002
1.450268e+003;5.564759e-002
1.452197e+003;5.618153e-002
1.454125e+003;5.612376e-002
1.456054e+003;5.583542e-002
1.457982e+003;5.551405e-002
1.459911e+003;5.531755e-002
1.461839e+003;5.525595e-002
1.463768e+003;5.529911e-002
1.465697e+003;5.542419e-002
1.467625e+003;5.604998e-002
1.469554e+003;5.717852e-002
1.471482e+003;5.779342e-002
1.473411e+003;5.729722e-002
1.475339e+003;5.620480e-002
1.477268e+003;5.511836e-002
1.479196e+003;5.407129e-002
1.481125e+003;5.295768e-002
1.483053e+003;5.167927e-002
1.484982e+003;5.025434e-002
1.486911e+003;4.883355e-002
1.488839e+003;4.785777e-002
1.490768e+003;4.737564e-002
1.492696e+003;4.720122e-002
1.494625e+003;4.726657e-002
1.496553e+003;4.812273e-002
1.498482e+003;4.984862e-002
1.500410e+003;5.223806e-002
1.502339e+003;5.528643e-002
1.504267e+003;5.763440e-002
1.506196e+003;5.739696e-002
1.508125e+003;5.499732e-002
1.510053e+003;5.232873e-002
1.511982e+003;5.054924e-002
1.513910e+003;4.986642e-002
1.515839e+003;4.978823e-002
1.517767e+003;5.008248e-002
1.519696e+003;5.012413e-002
1.521624e+003;4.996525e-002
1.523553e+003;5.008296e-002
1.525481e+003;5.045113e-002
1.527410e+003;5.078903e-002
1.529339e+003;5.072534e-002
1.531267e+003;5.040033e-002
1.533196e+003;5.009824e-002
1.535124e+003;4.978076e-002
1.537053e+003;4.940106e-002
1.538981e+003;4.866829e-002
1.540910e+003;4.799504e-002
1.542838e+003;4.777961e-002
1.544767e+003;4.757338e-002
1.546695e+003;4.732073e-002
1.548624e+003;4.722309e-002
1.550553e+003;4.730263e-002
1.552481e+003;4.717772e-002
1.554410e+003;4.683292e-002
1.556338e+003;4.653440e-002
1.558267e+003;4.642429e-002
1.560195e+003;4.668443e-002
1.562124e+003;4.711583e-002
1.564052e+003;4.717082e-002
1.565981e+003;4.706368e-002
1.567910e+003;4.750048e-002
1.569838e+003;4.844160e-002
1.571767e+003;4.942263e-002
1.573695e+003;5.020859e-002
1.575624e+003;5.110393e-002
1.577552e+003;5.198548e-002
1.579481e+003;5.229804e-002
1.581409e+003;5.163818e-002
1.583338e+003;5.051980e-002
1.585266e+003;4.939875e-002
1.587195e+003;4.859621e-002
1.589124e+003;4.798605e-002
1.591052e+003;4.767451e-002
1.592981e+003;4.785078e-002
1.594909e+003;4.847283e-002
1.596838e+003;4.938160e-002
1.598766e+003;5.013792e-002
1.600695e+003;5.053651e-002
1.602623e+003;5.079190e-002
1.604552e+003;5.099385e-002
1.606480e+003;5.117740e-002
1.608409e+003;5.137383e-002
1.610338e+003;5.143306e-002
1.612266e+003;5.155557e-002
1.614195e+003;5.177654e-002
1.616123e+003;5.146245e-002
1.618052e+003;5.077946e-002
1.619980e+003;5.008917e-002
1.621909e+003;4.968249e-002
1.623837e+003;4.966209e-002
1.625766e+003;4.945738e-002
1.627694e+003;4.930038e-002
1.629623e+003;4.937002e-002
1.631552e+003;4.940681e-002
1.633480e+003;4.914548e-002
1.635409e+003;4.908627e-002
1.637337e+003;4.939352e-002
1.639266e+003;4.972179e-002
1.641194e+003;4.998507e-002
1.643123e+003;5.020829e-002
1.645051e+003;5.056595e-002
1.646980e+003;5.101889e-002
1.648909e+003;5.141340e-002
1.650837e+003;5.184433e-002
1.652766e+003;5.219692e-002
1.654694e+003;5.278186e-002
1.656623e+003;5.348233e-002
1.658551e+003;5.431840e-002
1.660480e+003;5.538910e-002
1.662408e+003;5.653694e-002
1.664337e+003;5.779856e-002
1.666266e+003;5.923996e-002
1.668194e+003;6.052828e-002
1.670123e+003;6.172517e-002
1.672051e+003;6.282557e-002
1.673980e+003;6.405082e-002
1.675908e+003;6.535301e-002
1.677837e+003;6.697392e-002
1.679765e+003;6.871376e-002
1.681694e+003;7.010203e-002
1.683622e+003;7.104856e-002
1.685551e+003;7.226028e-002
1.687479e+003;7.397231e-002
1.689408e+003;7.617398e-002
1.691337e+003;7.875504e-002
1.693265e+003;8.167818e-002
1.695194e+003;8.548976e-002
1.697122e+003;9.060222e-002
1.699051e+003;9.677108e-002
1.700979e+003;1.042787e-001
1.702908e+003;1.133263e-001
1.704836e+003;1.240145e-001
1.706765e+003;1.357434e-001
1.708693e+003;1.473928e-001
1.710622e+003;1.576043e-001
1.712551e+003;1.640662e-001
1.714479e+003;1.655462e-001
1.716408e+003;1.624834e-001
1.718336e+003;1.563789e-001
1.720265e+003;1.490648e-001
1.722193e+003;1.411135e-001
1.724122e+003;1.329518e-001
1.726050e+003;1.246179e-001
1.727979e+003;1.164478e-001
1.729908e+003;1.085405e-001
1.731836e+003;1.006738e-001
1.733765e+003;9.285939e-002
1.735693e+003;8.547326e-002
1.737622e+003;7.821350e-002
1.739550e+003;7.109164e-002
1.741479e+003;6.464942e-002
1.743407e+003;5.876532e-002
1.745336e+003;5.360905e-002
1.747265e+003;4.947494e-002
1.749193e+003;4.643351e-002
1.751122e+003;4.428706e-002
1.753050e+003;4.282087e-002
1.754979e+003;4.180533e-002
1.756907e+003;4.110733e-002
1.758836e+003;4.077517e-002
1.760764e+003;4.056820e-002
1.762693e+003;4.025008e-002
1.764621e+003;3.986721e-002
1.766550e+003;3.943628e-002
1.768479e+003;3.923498e-002
1.770407e+003;3.910314e-002
1.772336e+003;3.890591e-002
1.774264e+003;3.892451e-002
1.776193e+003;3.897623e-002
1.778121e+003;3.883909e-002
1.780050e+003;3.862638e-002
1.781978e+003;3.854085e-002
1.783907e+003;3.845707e-002
1.785835e+003;3.839582e-002
1.787764e+003;3.852698e-002
1.789693e+003;3.859325e-002
1.791621e+003;3.832090e-002
1.793550e+003;3.810359e-002
1.795478e+003;3.801671e-002
1.797407e+003;3.790860e-002
1.799335e+003;3.796490e-002
1.801264e+003;3.808127e-002
1.803192e+003;3.800276e-002
1.805121e+003;3.776671e-002
1.807049e+003;3.789789e-002
1.808978e+003;3.801050e-002
1.810907e+003;3.779931e-002
1.812835e+003;3.766663e-002
1.814764e+003;3.777917e-002
1.816692e+003;3.796453e-002
1.818621e+003;3.810894e-002
1.820549e+003;3.800044e-002
1.822478e+003;3.787783e-002
1.824406e+003;3.778416e-002
1.826335e+003;3.764950e-002
1.828264e+003;3.763707e-002
1.830192e+003;3.739454e-002
1.832121e+003;3.703045e-002
1.834049e+003;3.679670e-002
1.835978e+003;3.646179e-002
1.837906e+003;3.625222e-002
1.839835e+003;3.614263e-002
1.841763e+003;3.584526e-002
1.843692e+003;3.532279e-002
1.845620e+003;3.489989e-002
1.847549e+003;3.466114e-002
1.849478e+003;3.427631e-002
1.851406e+003;3.376471e-002
1.853335e+003;3.340530e-002
1.855263e+003;3.309961e-002
1.857192e+003;3.267819e-002
1.859120e+003;3.241863e-002
1.861049e+003;3.206443e-002
1.862977e+003;3.162954e-002
1.864906e+003;3.135351e-002
1.866834e+003;3.119876e-002
1.868763e+003;3.104926e-002
1.870692e+003;3.083791e-002
1.872620e+003;3.048002e-002
1.874549e+003;3.024337e-002
1.876477e+003;3.014839e-002
1.878406e+003;3.006653e-002
1.880334e+003;3.012033e-002
1.882263e+003;3.010151e-002
1.884191e+003;2.987614e-002
1.886120e+003;2.990464e-002
1.888048e+003;2.976318e-002
1.889977e+003;2.959342e-002
1.891906e+003;2.975179e-002
1.893834e+003;2.978422e-002
1.895763e+003;2.995153e-002
1.897691e+003;3.009316e-002
1.899620e+003;3.009593e-002
1.901548e+003;3.008787e-002
1.903477e+003;3.015180e-002
1.905405e+003;3.019826e-002
1.907334e+003;3.027829e-002
1.909262e+003;3.041853e-002
1.911191e+003;3.045066e-002
1.913120e+003;3.048805e-002
1.915048e+003;3.061539e-002
1.916977e+003;3.071822e-002
1.918905e+003;3.094030e-002
1.920834e+003;3.126837e-002
1.922762e+003;3.148242e-002
1.924691e+003;3.153839e-002
1.926619e+003;3.160745e-002
1.928548e+003;3.182299e-002
1.930477e+003;3.221460e-002
1.932405e+003;3.268894e-002
1.934334e+003;3.293394e-002
1.936262e+003;3.310547e-002
1.938191e+003;3.330941e-002
1.940119e+003;3.367451e-002
1.942048e+003;3.398179e-002
1.943976e+003;3.423433e-002
1.945905e+003;3.464668e-002
1.947833e+003;3.503212e-002
1.949762e+003;3.520326e-002
1.951691e+003;3.528487e-002
1.953619e+003;3.554428e-002
1.955548e+003;3.574347e-002
1.957476e+003;3.580550e-002
1.959405e+003;3.574088e-002
1.961333e+003;3.557305e-002
1.963262e+003;3.522094e-002
1.965190e+003;3.487971e-002
1.967119e+003;3.437905e-002
1.969047e+003;3.385712e-002
1.970976e+003;3.354796e-002
1.972905e+003;3.321043e-002
1.974833e+003;3.290752e-002
1.976762e+003;3.258628e-002
1.978690e+003;3.229290e-002
1.980619e+003;3.212194e-002
1.982547e+003;3.190026e-002
1.984476e+003;3.173565e-002
1.986404e+003;3.159744e-002
1.988333e+003;3.137125e-002
1.990261e+003;3.108862e-002
1.992190e+003;3.082450e-002
1.994119e+003;3.054980e-002
1.996047e+003;3.024926e-002
1.997976e+003;3.006259e-002
1.999904e+003;2.988359e-002
2.001833e+003;2.966997e-002
2.003761e+003;2.932070e-002
2.005690e+003;2.909835e-002
2.007618e+003;2.896675e-002
2.009547e+003;2.875981e-002
2.011476e+003;2.863344e-002
2.013404e+003;2.860488e-002
2.015333e+003;2.839535e-002
2.017261e+003;2.820562e-002
2.019190e+003;2.802766e-002
2.021118e+003;2.780167e-002
2.023047e+003;2.767890e-002
2.024975e+003;2.755080e-002
2.026904e+003;2.759510e-002
2.028833e+003;2.748189e-002
2.030761e+003;2.712940e-002
2.032690e+003;2.699307e-002
2.034618e+003;2.699448e-002
2.036547e+003;2.696994e-002
2.038475e+003;2.711261e-002
2.040404e+003;2.726009e-002
2.042332e+003;2.734456e-002
2.044261e+003;2.742548e-002
2.046189e+003;2.752944e-002
2.048118e+003;2.758405e-002
2.050047e+003;2.771238e-002
2.051975e+003;2.785381e-002
2.053904e+003;2.786385e-002
2.055832e+003;2.799345e-002
2.057761e+003;2.822411e-002
2.059689e+003;2.848142e-002
2.061618e+003;2.890141e-002
2.063546e+003;2.922691e-002
2.065475e+003;2.937589e-002
2.067404e+003;2.954234e-002
2.069332e+003;2.954599e-002
2.071260e+003;2.976878e-002
2.073189e+003;2.998284e-002
2.075118e+003;2.999594e-002
2.077046e+003;3.013098e-002
2.078975e+003;3.029570e-002
2.080903e+003;3.041544e-002
2.082832e+003;3.071317e-002
2.084760e+003;3.086459e-002
2.086689e+003;3.076147e-002
2.088617e+003;3.080106e-002
2.090546e+003;3.093350e-002
2.092475e+003;3.101036e-002
2.094403e+003;3.098029e-002
2.096332e+003;3.101684e-002
2.098260e+003;3.103264e-002
2.100189e+003;3.109072e-002
2.102117e+003;3.107770e-002
2.104046e+003;3.096036e-002
2.105974e+003;3.094503e-002
2.107903e+003;3.113938e-002
2.109832e+003;3.128386e-002
2.111760e+003;3.119039e-002
2.113688e+003;3.090422e-002
2.115617e+003;3.064177e-002
2.117546e+003;3.062200e-002
2.119474e+003;3.055986e-002
2.121403e+003;3.039060e-002
2.123331e+003;3.012321e-002
2.125260e+003;2.983521e-002
2.127188e+003;2.978276e-002
2.129117e+003;2.996665e-002
2.131045e+003;2.986574e-002
2.132974e+003;2.950493e-002
2.134903e+003;2.931240e-002
2.136831e+003;2.917946e-002
2.138760e+003;2.901471e-002
2.140688e+003;2.885958e-002
2.142617e+003;2.876253e-002
2.144545e+003;2.855548e-002
2.146474e+003;2.831025e-002
2.148402e+003;2.818150e-002
2.150331e+003;2.813586e-002
2.152260e+003;2.817719e-002
2.154188e+003;2.791836e-002
2.156117e+003;2.750893e-002
2.158045e+003;2.723857e-002
2.159974e+003;2.698630e-002
2.161902e+003;2.682185e-002
2.163831e+003;2.680172e-002
2.165759e+003;2.666095e-002
2.167688e+003;2.645310e-002
2.169616e+003;2.623306e-002
2.171545e+003;2.611147e-002
2.173474e+003;2.607516e-002
2.175402e+003;2.596610e-002
2.177331e+003;2.581178e-002
2.179259e+003;2.571143e-002
2.181188e+003;2.568725e-002
2.183116e+003;2.558113e-002
2.185045e+003;2.542477e-002
2.186973e+003;2.542632e-002
2.188902e+003;2.560184e-002
2.190831e+003;2.569312e-002
2.192759e+003;2.564120e-002
2.194688e+003;2.543696e-002
2.196616e+003;2.540657e-002
2.198545e+003;2.552403e-002
2.200473e+003;2.559716e-002
2.202402e+003;2.559547e-002
2.204330e+003;2.555513e-002
2.206259e+003;2.546106e-002
2.208188e+003;2.566211e-002
2.210116e+003;2.611516e-002
2.212044e+003;2.623517e-002
2.213973e+003;2.613202e-002
2.215902e+003;2.611228e-002
2.217830e+003;2.614606e-002
2.219759e+003;2.612326e-002
2.221687e+003;2.607065e-002
2.223616e+003;2.592692e-002
2.225544e+003;2.583748e-002
2.227473e+003;2.617291e-002
2.229401e+003;2.635739e-002
2.231330e+003;2.621775e-002
2.233259e+003;2.610123e-002
2.235187e+003;2.610426e-002
2.237116e+003;2.624960e-002
2.239044e+003;2.655178e-002
2.240973e+003;2.668590e-002
2.242901e+003;2.667321e-002
2.244830e+003;2.663389e-002
2.246758e+003;2.698284e-002
2.248687e+003;2.712379e-002
2.250615e+003;2.708482e-002
2.252544e+003;2.720160e-002
2.254473e+003;2.722887e-002
2.256401e+003;2.720495e-002
2.258330e+003;2.716009e-002
2.260258e+003;2.716890e-002
2.262187e+003;2.728797e-002
2.264115e+003;2.722033e-002
2.266044e+003;2.700812e-002
2.267972e+003;2.684779e-002
2.269901e+003;2.696613e-002
2.271830e+003;2.721310e-002
2.273758e+003;2.733602e-002
2.275687e+003;2.724524e-002
2.277615e+003;2.721547e-002
2.279544e+003;2.732614e-002
2.281472e+003;2.735656e-002
2.283401e+003;2.730321e-002
2.285329e+003;2.735931e-002
2.287258e+003;2.733733e-002
2.289187e+003;2.699857e-002
2.291115e+003;2.684324e-002
2.293043e+003;2.672198e-002
2.294972e+003;2.635662e-002
2.296901e+003;2.599364e-002
2.298829e+003;2.578794e-002
2.300758e+003;2.566559e-002
2.302686e+003;2.554726e-002
2.304615e+003;2.527900e-002
2.306543e+003;2.516010e-002
2.308472e+003;2.536993e-002
2.310400e+003;2.540316e-002
2.312329e+003;2.514669e-002
2.314258e+003;2.491664e-002
2.316186e+003;2.494261e-002
2.318115e+003;2.507377e-002
2.320043e+003;2.501880e-002
2.321972e+003;2.500589e-002
2.323900e+003;2.509662e-002
2.325829e+003;2.505885e-002
2.327757e+003;2.527580e-002
2.329686e+003;2.543714e-002
2.331615e+003;2.556602e-002
2.333543e+003;2.542674e-002
2.335472e+003;2.515294e-002
2.337400e+003;2.532564e-002
2.339329e+003;2.538163e-002
2.341257e+003;2.546482e-002
2.343186e+003;2.552298e-002
2.345114e+003;2.567537e-002
2.347043e+003;2.594598e-002
2.348971e+003;2.604406e-002
2.350900e+003;2.601088e-002
2.352829e+003;2.606425e-002
2.354757e+003;2.630015e-002
2.356686e+003;2.659750e-002
2.358614e+003;2.664682e-002
2.360543e+003;2.656841e-002
2.362471e+003;2.665884e-002
2.364400e+003;2.711811e-002
2.366328e+003;2.741218e-002
2.368257e+003;2.726567e-002
2.370186e+003;2.734622e-002
2.372114e+003;2.755344e-002
2.374042e+003;2.766661e-002
2.375971e+003;2.784745e-002
2.377900e+003;2.791663e-002
2.379828e+003;2.801953e-002
2.381757e+003;2.806325e-002
2.383685e+003;2.797225e-002
2.385614e+003;2.768497e-002
2.387542e+003;2.759429e-002
2.389471e+003;2.774724e-002
2.391399e+003;2.767876e-002
2.393328e+003;2.754151e-002
2.395257e+003;2.761011e-002
2.397185e+003;2.773028e-002
2.399114e+003;2.760739e-002
2.401042e+003;2.742788e-002
2.402971e+003;2.736118e-002
2.404899e+003;2.723649e-002
2.406828e+003;2.706299e-002
2.408756e+003;2.697544e-002
2.410685e+003;2.691600e-002
2.412614e+003;2.681625e-002
2.414542e+003;2.665309e-002
2.416471e+003;2.659359e-002
2.418399e+003;2.668466e-002
2.420328e+003;2.640464e-002
2.422256e+003;2.602545e-002
2.424185e+003;2.595766e-002
2.426113e+003;2.601201e-002
2.428042e+003;2.585109e-002
2.429970e+003;2.533895e-002
2.431899e+003;2.516417e-002
2.433828e+003;2.523756e-002
2.435756e+003;2.508128e-002
2.437685e+003;2.498500e-002
2.439613e+003;2.500652e-002
2.441542e+003;2.489271e-002
2.443470e+003;2.479033e-002
2.445399e+003;2.472555e-002
2.447327e+003;2.453871e-002
2.449256e+003;2.424332e-002
2.451185e+003;2.420348e-002
2.453113e+003;2.439474e-002
2.455042e+003;2.440487e-002
2.456970e+003;2.444794e-002
2.458899e+003;2.437381e-002
2.460827e+003;2.404107e-002
2.462756e+003;2.378189e-002
2.464684e+003;2.387535e-002
2.466613e+003;2.418380e-002
2.468542e+003;2.427930e-002
2.470470e+003;2.423904e-002
2.472398e+003;2.398574e-002
2.474327e+003;2.401053e-002
2.476256e+003;2.421420e-002
2.478184e+003;2.439341e-002
2.480113e+003;2.451245e-002
2.482041e+003;2.432748e-002
2.483970e+003;2.435450e-002
2.485898e+003;2.475631e-002
2.487827e+003;2.487861e-002
2.489755e+003;2.472670e-002
2.491684e+003;2.483559e-002
2.493613e+003;2.504818e-002
2.495541e+003;2.529624e-002
2.497470e+003;2.552649e-002
2.499398e+003;2.532346e-002
2.501327e+003;2.517913e-002
2.503255e+003;2.550168e-002
2.505184e+003;2.557397e-002
2.507112e+003;2.541458e-002
2.509041e+003;2.540057e-002
2.510969e+003;2.548836e-002
2.512898e+003;2.560293e-002
2.514827e+003;2.560560e-002
2.516755e+003;2.549413e-002
2.518684e+003;2.554659e-002
2.520612e+003;2.602991e-002
2.522541e+003;2.613688e-002
2.524469e+003;2.593902e-002
2.526398e+003;2.605426e-002
2.528326e+003;2.629174e-002
2.530255e+003;2.625052e-002
2.532184e+003;2.600933e-002
2.534112e+003;2.615743e-002
2.536041e+003;2.626322e-002
2.537969e+003;2.605711e-002
2.539898e+003;2.610485e-002
2.541826e+003;2.614008e-002
2.543755e+003;2.605500e-002
2.545683e+003;2.604888e-002
2.547612e+003;2.608272e-002
2.549541e+003;2.623845e-002
2.551469e+003;2.646641e-002
2.553397e+003;2.646641e-002
2.555326e+003;2.639831e-002
2.557255e+003;2.644834e-002
2.559183e+003;2.635739e-002
2.561112e+003;2.607924e-002
2.563040e+003;2.580190e-002
2.564969e+003;2.573042e-002
2.566897e+003;2.598541e-002
2.568826e+003;2.600888e-002
2.570754e+003;2.583386e-002
2.572683e+003;2.589259e-002
2.574612e+003;2.605546e-002
2.576540e+003;2.605817e-002
2.578469e+003;2.585598e-002
2.580397e+003;2.588404e-002
2.582326e+003;2.603248e-002
2.584254e+003;2.609880e-002
2.586183e+003;2.604740e-002
2.588111e+003;2.605845e-002
2.590040e+003;2.599540e-002
2.591969e+003;2.569396e-002
2.593897e+003;2.542277e-002
2.595826e+003;2.530773e-002
2.597754e+003;2.515933e-002
2.599683e+003;2.485825e-002
2.601611e+003;2.466119e-002
2.603540e+003;2.471253e-002
2.605468e+003;2.469552e-002
2.607397e+003;2.443669e-002
2.609325e+003;2.421827e-002
2.611254e+003;2.442053e-002
2.613183e+003;2.452815e-002
2.615111e+003;2.439025e-002
2.617040e+003;2.434918e-002
2.618968e+003;2.440006e-002
2.620897e+003;2.439596e-002
2.622825e+003;2.432037e-002
2.624754e+003;2.424206e-002
2.626682e+003;2.435163e-002
2.628611e+003;2.460371e-002
2.630540e+003;2.461826e-002
2.632468e+003;2.460382e-002
2.634396e+003;2.434897e-002
2.636325e+003;2.395738e-002
2.638254e+003;2.389023e-002
2.640182e+003;2.371477e-002
2.642111e+003;2.349258e-002
2.644039e+003;2.354753e-002
2.645968e+003;2.346110e-002
2.647896e+003;2.319175e-002
2.649825e+003;2.291426e-002
2.651753e+003;2.292774e-002
2.653682e+003;2.303548e-002
2.655611e+003;2.298339e-002
2.657539e+003;2.286358e-002
2.659468e+003;2.275368e-002
2.661396e+003;2.265760e-002
2.663325e+003;2.282764e-002
2.665253e+003;2.283532e-002
2.667182e+003;2.264514e-002
2.669110e+003;2.253349e-002
2.671039e+003;2.229505e-002
2.672968e+003;2.237420e-002
2.674896e+003;2.260598e-002
2.676825e+003;2.281689e-002
2.678753e+003;2.319210e-002
2.680682e+003;2.316253e-002
2.682610e+003;2.303419e-002
2.684539e+003;2.297769e-002
2.686467e+003;2.270742e-002
2.688396e+003;2.259348e-002
2.690324e+003;2.281430e-002
2.692253e+003;2.300980e-002
2.694182e+003;2.289239e-002
2.696110e+003;2.272875e-002
2.698039e+003;2.266713e-002
2.699967e+003;2.273563e-002
2.701896e+003;2.295998e-002
2.703824e+003;2.301375e-002
2.705753e+003;2.324929e-002
2.707681e+003;2.340011e-002
2.709610e+003;2.328365e-002
2.711539e+003;2.312720e-002
2.713467e+003;2.322485e-002
2.715396e+003;2.350216e-002
2.717324e+003;2.347107e-002
2.719253e+003;2.326072e-002
2.721181e+003;2.320088e-002
2.723110e+003;2.321664e-002
2.725038e+003;2.335050e-002
2.726967e+003;2.363768e-002
2.728896e+003;2.380097e-002
2.730824e+003;2.377153e-002
2.732752e+003;2.384825e-002
2.734681e+003;2.399971e-002
2.736610e+003;2.408498e-002
2.738538e+003;2.408264e-002
2.740467e+003;2.414102e-002
2.742395e+003;2.414968e-002
2.744324e+003;2.406541e-002
2.746252e+003;2.397804e-002
2.748181e+003;2.390563e-002
2.750109e+003;2.383240e-002
2.752038e+003;2.381108e-002
2.753967e+003;2.406117e-002
2.755895e+003;2.411658e-002
2.757824e+003;2.407710e-002
2.759752e+003;2.397429e-002
2.761681e+003;2.376527e-002
2.763609e+003;2.401992e-002
2.765538e+003;2.430201e-002
2.767466e+003;2.425369e-002
2.769395e+003;2.421140e-002
2.771323e+003;2.422829e-002
2.773252e+003;2.425495e-002
2.775181e+003;2.438867e-002
2.777109e+003;2.456083e-002
2.779038e+003;2.459575e-002
2.780966e+003;2.464081e-002
2.782895e+003;2.490731e-002
2.784823e+003;2.521951e-002
2.786752e+003;2.525364e-002
2.788680e+003;2.534752e-002
2.790609e+003;2.553661e-002
2.792538e+003;2.565737e-002
2.794466e+003;2.589600e-002
2.796395e+003;2.602481e-002
2.798323e+003;2.601876e-002
2.800252e+003;2.602253e-002
2.802180e+003;2.601757e-002
2.804109e+003;2.623148e-002
2.806037e+003;2.651938e-002
2.807966e+003;2.664830e-002
2.809895e+003;2.657397e-002
2.811823e+003;2.628276e-002
2.813751e+003;2.622789e-002
2.815680e+003;2.631927e-002
2.817609e+003;2.625298e-002
2.819537e+003;2.595178e-002
2.821466e+003;2.584402e-002
2.823394e+003;2.590940e-002
2.825323e+003;2.602580e-002
2.827251e+003;2.628220e-002
2.829180e+003;2.639803e-002
2.831108e+003;2.637126e-002
2.833037e+003;2.640901e-002
2.834966e+003;2.670859e-002
2.836894e+003;2.707833e-002
2.838823e+003;2.760097e-002
2.840751e+003;2.805067e-002
2.842680e+003;2.815053e-002
2.844608e+003;2.793331e-002
2.846537e+003;2.763448e-002
2.848465e+003;2.737784e-002
2.850394e+003;2.727110e-002
2.852323e+003;2.725046e-002
2.854251e+003;2.754398e-002
2.856180e+003;2.803258e-002
2.858108e+003;2.842803e-002
2.860037e+003;2.880059e-002
2.861965e+003;2.930014e-002
2.863894e+003;2.989019e-002
2.865822e+003;3.013809e-002
2.867751e+003;3.033272e-002
2.869679e+003;3.063672e-002
2.871608e+003;3.060600e-002
2.873536e+003;3.060007e-002
2.875465e+003;3.121749e-002
2.877394e+003;3.118819e-002
2.879322e+003;3.086445e-002
2.881251e+003;3.117690e-002
2.883179e+003;3.141666e-002
2.885108e+003;3.158225e-002
2.887036e+003;3.180492e-002
2.888965e+003;3.207495e-002
2.890893e+003;3.200036e-002
2.892822e+003;3.201798e-002
2.894750e+003;3.237218e-002
2.896679e+003;3.254621e-002
2.898608e+003;3.290673e-002
2.900536e+003;3.337131e-002
2.902465e+003;3.352505e-002
2.904393e+003;3.392762e-002
2.906322e+003;3.396560e-002
2.908250e+003;3.366144e-002
2.910179e+003;3.362127e-002
2.912107e+003;3.362965e-002
2.914036e+003;3.330151e-002
2.915965e+003;3.234519e-002
2.917893e+003;3.139750e-002
2.919822e+003;3.104887e-002
2.921750e+003;3.073878e-002
2.923679e+003;3.002392e-002
2.925607e+003;2.952716e-002
2.927536e+003;2.951457e-002
2.929464e+003;2.955348e-002
2.931393e+003;2.973965e-002
2.933322e+003;3.037831e-002
2.935250e+003;3.042255e-002
2.937178e+003;3.031428e-002
2.939107e+003;3.110532e-002
2.941036e+003;3.211858e-002
2.942964e+003;3.268358e-002
2.944893e+003;3.293794e-002
2.946821e+003;3.343461e-002
2.948750e+003;3.379480e-002
2.950678e+003;3.425832e-002
2.952607e+003;3.466516e-002
2.954535e+003;3.501879e-002
2.956464e+003;3.562541e-002
2.958393e+003;3.608660e-002
2.960321e+003;3.637226e-002
2.962250e+003;3.675883e-002
2.964178e+003;3.707033e-002
2.966107e+003;3.734088e-002
2.968035e+003;3.756890e-002
2.969964e+003;3.772915e-002
2.971892e+003;3.796009e-002
2.973821e+003;3.793264e-002
2.975750e+003;3.799118e-002
2.977678e+003;3.805415e-002
2.979607e+003;3.760979e-002
2.981535e+003;3.696634e-002
2.983464e+003;3.651664e-002
2.985392e+003;3.633648e-002
2.987321e+003;3.615560e-002
2.989249e+003;3.597943e-002
2.991178e+003;3.565613e-002
2.993106e+003;3.546046e-002
2.995035e+003;3.536035e-002
2.996964e+003;3.530237e-002
2.998892e+003;3.517031e-002
3.000821e+003;3.486345e-002
3.002749e+003;3.472642e-002
3.004678e+003;3.495102e-002
3.006606e+003;3.509106e-002
3.008535e+003;3.476117e-002
3.010463e+003;3.410399e-002
3.012392e+003;3.372239e-002
3.014321e+003;3.343339e-002
3.016249e+003;3.299653e-002
3.018177e+003;3.270498e-002
3.020106e+003;3.260517e-002
3.022035e+003;3.225978e-002
3.023963e+003;3.169893e-002
3.025892e+003;3.121400e-002
3.027820e+003;3.094168e-002
3.029749e+003;3.061013e-002
3.031677e+003;2.995476e-002
3.033606e+003;2.948634e-002
3.035534e+003;2.952940e-002
3.037463e+003;2.964368e-002
3.039392e+003;2.978319e-002
3.041320e+003;2.975289e-002
3.043249e+003;3.015173e-002
3.045177e+003;3.057507e-002
3.047106e+003;3.087978e-002
3.049034e+003;3.144177e-002
3.050963e+003;3.224872e-002
3.052891e+003;3.264689e-002
3.054820e+003;3.255435e-002
3.056749e+003;3.253118e-002
3.058677e+003;3.247850e-002
3.060606e+003;3.225607e-002
3.062534e+003;3.209810e-002
3.064463e+003;3.222513e-002
3.066391e+003;3.240078e-002
3.068320e+003;3.240303e-002
3.070248e+003;3.275418e-002
3.072177e+003;3.303056e-002
3.074105e+003;3.282489e-002
3.076034e+003;3.255189e-002
3.077963e+003;3.266515e-002
3.079891e+003;3.284698e-002
3.081820e+003;3.286324e-002
3.083748e+003;3.270723e-002
3.085677e+003;3.243469e-002
3.087605e+003;3.214984e-002
3.089534e+003;3.195428e-002
3.091462e+003;3.194384e-002
3.093391e+003;3.156533e-002
3.095320e+003;3.130732e-002
3.097248e+003;3.138161e-002
3.099177e+003;3.146864e-002
3.101105e+003;3.143440e-002
3.103034e+003;3.126605e-002
3.104962e+003;3.136466e-002
3.106891e+003;3.142350e-002
3.108819e+003;3.128158e-002
3.110748e+003;3.089856e-002
3.112677e+003;3.042152e-002
3.114605e+003;2.996715e-002
3.116533e+003;2.955997e-002
3.118462e+003;2.944234e-002
3.120391e+003;2.943617e-002
3.122319e+003;2.952549e-002
3.124248e+003;2.959515e-002
3.126176e+003;2.949017e-002
3.128105e+003;2.946904e-002
3.130033e+003;2.926902e-002
3.131962e+003;2.885257e-002
3.133890e+003;2.868540e-002
3.135819e+003;2.888529e-002
3.137748e+003;2.873064e-002
3.139676e+003;2.797787e-002
3.141605e+003;2.725173e-002
3.143533e+003;2.727431e-002
3.145462e+003;2.764178e-002
3.147390e+003;2.768794e-002
3.149319e+003;2.739369e-002
3.151247e+003;2.684673e-002
3.153176e+003;2.651029e-002
3.155104e+003;2.641278e-002
3.157033e+003;2.635686e-002
3.158962e+003;2.662258e-002
3.160890e+003;2.666891e-002
3.162819e+003;2.636567e-002
3.164747e+003;2.628822e-002
3.166676e+003;2.651748e-002
3.168604e+003;2.678643e-002
3.170533e+003;2.674523e-002
3.172461e+003;2.665246e-002
3.174390e+003;2.644708e-002
3.176319e+003;2.609655e-002
3.178247e+003;2.587036e-002
3.180176e+003;2.577507e-002
3.182104e+003;2.579402e-002
3.184033e+003;2.576329e-002
3.185961e+003;2.573316e-002
3.187890e+003;2.533108e-002
3.189818e+003;2.527447e-002
3.191747e+003;2.568795e-002
3.193676e+003;2.579884e-002
3.195604e+003;2.568960e-002
3.197532e+003;2.559558e-002
3.199461e+003;2.536466e-002
3.201390e+003;2.507707e-002
3.203318e+003;2.511074e-002
3.205247e+003;2.516568e-002
3.207175e+003;2.508104e-002
3.209104e+003;2.490906e-002
3.211032e+003;2.501305e-002
3.212961e+003;2.532427e-002
3.214889e+003;2.522169e-002
3.216818e+003;2.522007e-002
3.218747e+003;2.523313e-002
3.220675e+003;2.526871e-002
3.222604e+003;2.549219e-002
3.224532e+003;2.553296e-002
3.226461e+003;2.557488e-002
3.228389e+003;2.552139e-002
3.230318e+003;2.541536e-002
3.232246e+003;2.532996e-002
3.234175e+003;2.517175e-002
3.236104e+003;2.499006e-002
3.238032e+003;2.471695e-002
3.239961e+003;2.427317e-002
3.241889e+003;2.426073e-002
3.243818e+003;2.450088e-002
3.245746e+003;2.432629e-002
3.247675e+003;2.413269e-002
3.249603e+003;2.458250e-002
3.251532e+003;2.479953e-002
3.253460e+003;2.470780e-002
3.255389e+003;2.465775e-002
3.257318e+003;2.474631e-002
3.259246e+003;2.443501e-002
3.261175e+003;2.411514e-002
3.263103e+003;2.403560e-002
3.265032e+003;2.388179e-002
3.266960e+003;2.405241e-002
3.268889e+003;2.416513e-002
3.270817e+003;2.392377e-002
3.272746e+003;2.410551e-002
3.274675e+003;2.413248e-002
3.276603e+003;2.381721e-002
3.278531e+003;2.365448e-002
3.280460e+003;2.369388e-002
3.282389e+003;2.419851e-002
3.284317e+003;2.442313e-002
3.286246e+003;2.412495e-002
3.288174e+003;2.413672e-002
3.290103e+003;2.434988e-002
3.292031e+003;2.420170e-002
3.293960e+003;2.396056e-002
3.295888e+003;2.420940e-002
3.297817e+003;2.448472e-002
3.299746e+003;2.469531e-002
3.301674e+003;2.458793e-002
3.303603e+003;2.436835e-002
3.305531e+003;2.413822e-002
3.307460e+003;2.355680e-002
3.309388e+003;2.366798e-002
3.311317e+003;2.399877e-002
3.313245e+003;2.397968e-002
3.315174e+003;2.387255e-002
3.317103e+003;2.400174e-002
3.319031e+003;2.405392e-002
3.320960e+003;2.375925e-002
3.322888e+003;2.388683e-002
3.324817e+003;2.415108e-002
3.326745e+003;2.422317e-002
3.328674e+003;2.373325e-002
3.330602e+003;2.349863e-002
3.332531e+003;2.413770e-002
3.334459e+003;2.430271e-002
3.336388e+003;2.406064e-002
3.338317e+003;2.408516e-002
3.340245e+003;2.396179e-002
3.342174e+003;2.364979e-002
3.344102e+003;2.377930e-002
3.346031e+003;2.411609e-002
3.347959e+003;2.409553e-002
3.349888e+003;2.378389e-002
3.351816e+003;2.380954e-002
3.353745e+003;2.370571e-002
3.355674e+003;2.331421e-002
3.357602e+003;2.298671e-002
3.359531e+003;2.285621e-002
3.361459e+003;2.292931e-002
3.363388e+003;2.302957e-002
3.365316e+003;2.296791e-002
3.367245e+003;2.272327e-002
3.369173e+003;2.259596e-002
3.371102e+003;2.300592e-002
3.373031e+003;2.307300e-002
3.374959e+003;2.260423e-002
3.376887e+003;2.268193e-002
3.378816e+003;2.284800e-002
3.380745e+003;2.269087e-002
3.382673e+003;2.265673e-002
3.384602e+003;2.287168e-002
3.386530e+003;2.274485e-002
3.388459e+003;2.265844e-002
3.390387e+003;2.288614e-002
3.392316e+003;2.328921e-002
3.394244e+003;2.385116e-002
3.396173e+003;2.409279e-002
3.398102e+003;2.390129e-002
3.400030e+003;2.374038e-002
3.401959e+003;2.376607e-002
3.403887e+003;2.392601e-002
3.405816e+003;2.451231e-002
3.407744e+003;2.491805e-002
3.409673e+003;2.468844e-002
3.411601e+003;2.488482e-002
3.413530e+003;2.566127e-002
3.415458e+003;2.622789e-002
3.417387e+003;2.682897e-002
3.419316e+003;2.750190e-002
3.421244e+003;2.795306e-002
3.423173e+003;2.827966e-002
3.425101e+003;2.837869e-002
3.427030e+003;2.870051e-002
3.428958e+003;2.937026e-002
3.430887e+003;2.939582e-002
3.432815e+003;2.908354e-002
3.434744e+003;2.894568e-002
3.436673e+003;2.871350e-002
3.438601e+003;2.842039e-002
3.440530e+003;2.812183e-002
3.442458e+003;2.743233e-002
3.444387e+003;2.704688e-002
3.446315e+003;2.737643e-002
3.448244e+003;2.732826e-002
3.450172e+003;2.690045e-002
3.452101e+003;2.637126e-002
3.454030e+003;2.574736e-002
3.455958e+003;2.540130e-002
3.457886e+003;2.515009e-002
3.459815e+003;2.460795e-002
3.461744e+003;2.417651e-002
3.463672e+003;2.390892e-002
3.465601e+003;2.368432e-002
3.467529e+003;2.348125e-002
3.469458e+003;2.306371e-002
3.471386e+003;2.305728e-002
3.473315e+003;2.302678e-002
3.475243e+003;2.280732e-002
3.477172e+003;2.272537e-002
3.479101e+003;2.254273e-002
3.481029e+003;2.260996e-002
3.482958e+003;2.285974e-002
3.484886e+003;2.305697e-002
3.486815e+003;2.289501e-002
3.488743e+003;2.231002e-002
3.490672e+003;2.188106e-002
3.492600e+003;2.203981e-002
3.494529e+003;2.215054e-002
3.496458e+003;2.216539e-002
3.498386e+003;2.192992e-002
3.500315e+003;2.200635e-002
3.502243e+003;2.235516e-002
3.504172e+003;2.229017e-002
3.506100e+003;2.234378e-002
3.508029e+003;2.270564e-002
3.509957e+003;2.263624e-002
3.511886e+003;2.241582e-002
3.513814e+003;2.260179e-002
3.515743e+003;2.259264e-002
3.517672e+003;2.267457e-002
3.519600e+003;2.265321e-002
3.521529e+003;2.243868e-002
3.523457e+003;2.277582e-002
3.525386e+003;2.320996e-002
3.527314e+003;2.308702e-002
3.529243e+003;2.293522e-002
3.531171e+003;2.291751e-002
3.533100e+003;2.274754e-002
3.535029e+003;2.283965e-002
3.536957e+003;2.288820e-002
3.538885e+003;2.286120e-002
3.540814e+003;2.307874e-002
3.542743e+003;2.339878e-002
3.544671e+003;2.357202e-002
3.546600e+003;2.366319e-002
3.548528e+003;2.364524e-002
3.550457e+003;2.366764e-002
3.552385e+003;2.333176e-002
3.554314e+003;2.296704e-002
3.556242e+003;2.291248e-002
3.558171e+003;2.269356e-002
3.560100e+003;2.244803e-002
3.562028e+003;2.261505e-002
3.563957e+003;2.276604e-002
3.565885e+003;2.257966e-002
3.567814e+003;2.208956e-002
3.569742e+003;2.194779e-002
3.571671e+003;2.209559e-002
3.573599e+003;2.170975e-002
3.575528e+003;2.153782e-002
3.577457e+003;2.156992e-002
3.579385e+003;2.154482e-002
3.581314e+003;2.174117e-002
3.583242e+003;2.157417e-002
3.585171e+003;2.124520e-002
3.587099e+003;2.107519e-002
3.589028e+003;2.084903e-002
3.590956e+003;2.063063e-002
3.592885e+003;2.066402e-002
3.594813e+003;2.064063e-002
3.596742e+003;2.055364e-002
3.598671e+003;2.075636e-002
3.600599e+003;2.061635e-002
3.602528e+003;2.030674e-002
3.604456e+003;2.030216e-002
3.606385e+003;2.021356e-002
3.608313e+003;2.044349e-002
3.610242e+003;2.053005e-002
3.612170e+003;2.015435e-002
3.614099e+003;2.011291e-002
3.616028e+003;2.030098e-002
3.617956e+003;2.010180e-002
3.619885e+003;2.011634e-002
3.621813e+003;2.019572e-002
3.623742e+003;2.017035e-002
3.625670e+003;2.046228e-002
3.627599e+003;2.072084e-002
3.629527e+003;2.057323e-002
3.631456e+003;2.046610e-002
3.633385e+003;2.038327e-002
3.635313e+003;2.046648e-002
3.637241e+003;2.050987e-002
3.639170e+003;2.060603e-002
3.641099e+003;2.044005e-002
3.643027e+003;2.021301e-002
3.644956e+003;2.006599e-002
3.646884e+003;1.998695e-002
3.648813e+003;1.959452e-002
3.650741e+003;1.928682e-002
3.652670e+003;1.947793e-002
3.654598e+003;1.955452e-002
3.656527e+003;1.932493e-002
3.658456e+003;1.933369e-002
3.660384e+003;1.959834e-002
3.662313e+003;1.945153e-002
3.664241e+003;1.890621e-002
3.666170e+003;1.888195e-002
3.668098e+003;1.881160e-002
3.670027e+003;1.866865e-002
3.671955e+003;1.892105e-002
3.673884e+003;1.883122e-002
3.675813e+003;1.841546e-002
3.677741e+003;1.826749e-002
3.679669e+003;1.862535e-002
3.681598e+003;1.884942e-002
3.683527e+003;1.893881e-002
3.685455e+003;1.934859e-002
3.687384e+003;1.954482e-002
3.689312e+003;1.887323e-002
3.691241e+003;1.852219e-002
3.693169e+003;1.867671e-002
3.695098e+003;1.855801e-002
3.697026e+003;1.823847e-002
3.698955e+003;1.791498e-002
3.700884e+003;1.753832e-002
3.702812e+003;1.751845e-002
3.704741e+003;1.741325e-002
3.706669e+003;1.722387e-002
3.708598e+003;1.755785e-002
3.710526e+003;1.787120e-002
3.712455e+003;1.777405e-002
3.714383e+003;1.750803e-002
3.716312e+003;1.721156e-002
3.718240e+003;1.706387e-002
3.720169e+003;1.735151e-002
3.722098e+003;1.773008e-002
3.724026e+003;1.781406e-002
3.725955e+003;1.753184e-002
3.727883e+003;1.765774e-002
3.729812e+003;1.771434e-002
3.731740e+003;1.775403e-002
3.733669e+003;1.776031e-002
3.735597e+003;1.754446e-002
3.737526e+003;1.718498e-002
3.739455e+003;1.693238e-002
3.741383e+003;1.703802e-002
3.743312e+003;1.706042e-002
3.745240e+003;1.689029e-002
3.747169e+003;1.709709e-002
3.749097e+003;1.733027e-002
3.751026e+003;1.750431e-002
3.752954e+003;1.769736e-002
3.754883e+003;1.812611e-002
3.756812e+003;1.854757e-002
3.758740e+003;1.849933e-002
3.760668e+003;1.799402e-002
3.762597e+003;1.772428e-002
3.764526e+003;1.758307e-002
3.766454e+003;1.761833e-002
3.768383e+003;1.741821e-002
3.770311e+003;1.702338e-002
3.772240e+003;1.683559e-002
3.774168e+003;1.696050e-002
3.776097e+003;1.710250e-002
3.778025e+003;1.739586e-002
3.779954e+003;1.785732e-002
3.781883e+003;1.805408e-002
3.783811e+003;1.772832e-002
3.785740e+003;1.739028e-002
3.787668e+003;1.769129e-002
3.789597e+003;1.806856e-002
3.791525e+003;1.791785e-002
3.793454e+003;1.791888e-002
3.795382e+003;1.806334e-002
3.797311e+003;1.805540e-002
3.799240e+003;1.826514e-002
3.801168e+003;1.825775e-002
3.803097e+003;1.813343e-002
3.805025e+003;1.798501e-002
3.806954e+003;1.800950e-002
3.808882e+003;1.816452e-002
3.810811e+003;1.814480e-002
3.812739e+003;1.822789e-002
3.814668e+003;1.823525e-002
3.816596e+003;1.810828e-002
3.818525e+003;1.793141e-002
3.820454e+003;1.762582e-002
3.822382e+003;1.730972e-002
3.824311e+003;1.757465e-002
3.826239e+003;1.808908e-002
3.828168e+003;1.849225e-002
3.830096e+003;1.822865e-002
3.832025e+003;1.780174e-002
3.833953e+003;1.793507e-002
3.835882e+003;1.804687e-002
3.837811e+003;1.784503e-002
3.839739e+003;1.751862e-002
3.841667e+003;1.743004e-002
3.843596e+003;1.777844e-002
3.845525e+003;1.814622e-002
3.847453e+003;1.840360e-002
3.849382e+003;1.810258e-002
3.851310e+003;1.757669e-002
3.853239e+003;1.759497e-002
3.855167e+003;1.776190e-002
3.857096e+003;1.778455e-002
3.859024e+003;1.787551e-002
3.860953e+003;1.773719e-002
3.862882e+003;1.770140e-002
3.864810e+003;1.768083e-002
3.866739e+003;1.808023e-002
3.868667e+003;1.833579e-002
3.870596e+003;1.818919e-002
3.872524e+003;1.836147e-002
3.874453e+003;1.817624e-002
3.876381e+003;1.804611e-002
3.878310e+003;1.804061e-002
3.880239e+003;1.837280e-002
3.882167e+003;1.848357e-002
3.884096e+003;1.818764e-002
3.886024e+003;1.773795e-002
3.887953e+003;1.753491e-002
3.889881e+003;1.776042e-002
3.891810e+003;1.818968e-002
3.893738e+003;1.892490e-002
3.895667e+003;1.948548e-002
3.897595e+003;1.926465e-002
3.899524e+003;1.919088e-002
3.901453e+003;1.904155e-002
3.903381e+003;1.843243e-002
3.905310e+003;1.826487e-002
3.907238e+003;1.858592e-002
3.909167e+003;1.857838e-002
3.911095e+003;1.889994e-002
3.913024e+003;1.931519e-002
3.914952e+003;1.890956e-002
3.916881e+003;1.901669e-002
3.918810e+003;1.917811e-002
3.920738e+003;1.874562e-002
3.922667e+003;1.898931e-002
3.924595e+003;1.917807e-002
3.926524e+003;1.899024e-002
3.928452e+003;1.922371e-002
3.930381e+003;1.962544e-002
3.932309e+003;1.955088e-002
3.934238e+003;1.935039e-002
3.936167e+003;1.953466e-002
3.938095e+003;1.944172e-002
3.940023e+003;1.903230e-002
3.941952e+003;1.888430e-002
3.943881e+003;1.906398e-002
3.945809e+003;1.937727e-002
3.947738e+003;1.949838e-002
3.949666e+003;1.949578e-002
3.951595e+003;1.975473e-002
3.953523e+003;2.001703e-002
3.955452e+003;1.983373e-002
3.957380e+003;1.939539e-002
3.959309e+003;1.896847e-002
3.961238e+003;1.886630e-002
3.963166e+003;1.907862e-002
3.965095e+003;1.908551e-002
3.967023e+003;1.889579e-002
3.968952e+003;1.888136e-002
3.970880e+003;1.909607e-002
3.972809e+003;1.968875e-002
3.974737e+003;1.979971e-002
3.976666e+003;1.924200e-002
3.978594e+003;1.925738e-002
3.980523e+003;1.947145e-002
3.982452e+003;1.971603e-002
3.984380e+003;1.942391e-002
3.986309e+003;1.919019e-002
3.988237e+003;1.951283e-002
3.990166e+003;1.986682e-002
3.992094e+003;2.004888e-002
3.994023e+003;1.991434e-002
3.995951e+003;1.967162e-002
3.997880e+003;1.956263e-002
3.999809e+003;1.982222e-002
4.001737e+003;0.000000e+000
