3.992094e+002;0.000000e+000
4.011380e+002;0.000000e+000
4.030665e+002;0.000000e+000
4.049951e+002;0.000000e+000
4.069236e+002;0.000000e+000
4.088522e+002;0.000000e+000
4.107807e+002;0.000000e+000
4.127093e+002;0.000000e+000
4.146378e+002;0.000000e+000
4.165664e+002;0.000000e+000
4.184949e+002;0.000000e+000
4.204235e+002;0.000000e+000
4.223520e+002;0.000000e+000
4.242806e+002;0.000000e+000
4.262091e+002;0.000000e+000
4.281377e+002;0.000000e+000
4.300662e+002;0.000000e+000
4.319948e+002;0.000000e+000
4.339233e+002;0.000000e+000
4.358519e+002;0.000000e+000
4.377804e+002;0.000000e+000
4.397090e+002;0.000000e+000
4.416375e+002;0.000000e+000
4.435660e+002;0.000000e+000
4.454946e+002;0.000000e+000
4.474232e+002;0.000000e+000
4.493517e+002;0.000000e+000
4.512802e+002;0.000000e+000
4.532088e+002;0.000000e+000
4.551373e+002;0.000000e+000
4.570659e+002;0.000000e+000
4.589944e+002;0.000000e+000
4.609230e+002;0.000000e+000
4.628515e+002;0.000000e+000
4.647801e+002;0.000000e+000
4.667086e+002;0.000000e+000
4.686372e+002;0.000000e+000
4.705657e+002;0.000000e+000
4.724943e+002;0.000000e+000
4.744228e+002;0.000000e+000
4.763513e+002;0.000000e+000
4.782799e+002;0.000000e+000
4.802085e+002;0.000000e+000
4.821370e+002;0.000000e+000
4.840656e+002;0.000000e+000
4.859941e+002;0.000000e+000
4.879226e+002;0.000000e+000
4.898512e+002;0.000000e+000
4.917798e+002;0.000000e+000
4.937083e+002;0.000000e+000
4.956368e+002;0.000000e+000
4.975654e+002;0.000000e+000
4.994939e+002;0.000000e+000
5.014225e+002;0.000000e+000
5.033510e+002;0.000000e+000
5.052796e+002;0.000000e+000
5.072081e+002;0.000000e+000
5.091367e+002;0.000000e+000
5.110652e+002;0.000000e+000
5.129938e+002;0.000000e+000
5.149223e+002;0.000000e+000
5.168509e+002;0.000000e+000
5.187794e+002;0.000000e+000
5.207079e+002;0.000000e+000
5.226365e+002;0.000000e+000
5.245651e+002;0.000000e+000
5.264936e+002;0.000000e+000
5.284222e+002;0.000000e+000
5.303507e+002;0.000000e+000
5.322792e+002;0.000000e+000
5.342078e+002;0.000000e+000
5.361364e+002;0.000000e+000
5.380649e+002;0.000000e+000
5.399935e+002;0.000000e+000
5.419220e+002;0.000000e+000
5.438505e+002;0.000000e+000
5.457791e+002;0.000000e+000
5.477076e+002;0.000000e+000
5.496362e+002;0.000000e+000
5.515648e+002;0.000000e+000
5.534933e+002;0.000000e+000
5.554218e+002;0.000000e+000
5.573504e+002;0.000000e+000
5.592789e+002;0.000000e+000
5.612075e+002;0.000000e+000
5.631360e+002;0.000000e+000
5.650646e+002;0.000000e+000
5.669931e+002;0.000000e+000
5.689217e+002;0.000000e+000
5.708502e+002;0.000000e+000
5.727787e+002;0.000000e+000
5.747073e+002;0.000000e+000
5.766359e+002;0.000000e+000
5.785644e+002;0.000000e+000
5.804930e+002;0.000000e+000
5.824215e+002;0.000000e+000
5.843500e+002;0.000000e+000
5.862786e+002;0.000000e+000
5.882072e+002;0.000000e+000
5.901357e+002;0.000000e+000
5.920643e+002;0.000000e+000
5.939928e+002;0.000000e+000
5.959213e+002;0.000000e+000
5.978499e+002;0.000000e+000
5.997784e+002;7.305911e-002
6.017070e+002;8.077446e-002
6.036355e+002;8.709068e-002
6.055641e+002;8.533302e-002
6.074926e+002;8.357810e-002
6.094211e+002;8.412357e-002
6.113497e+002;7.970731e-002
6.132783e+002;7.702892e-002
6.152068e+002;7.865496e-002
6.171354e+002;7.782342e-002
6.190639e+002;7.831634e-002
6.209924e+002;8.200722e-002
6.229210e+002;8.500434e-002
6.248495e+002;8.739727e-002
6.267781e+002;8.953152e-002
6.287067e+002;9.389911e-002
6.306352e+002;1.036247e-001
6.325637e+002;1.076969e-001
6.344923e+002;9.910900e-002
6.364208e+002;9.163588e-002
6.383494e+002;9.022981e-002
6.402780e+002;8.811174e-002
6.422065e+002;8.645841e-002
6.441350e+002;8.800505e-002
6.460636e+002;8.963626e-002
6.479921e+002;8.983506e-002
6.499207e+002;9.260486e-002
6.518492e+002;9.308723e-002
6.537778e+002;9.116129e-002
6.557063e+002;9.134333e-002
6.576349e+002;9.313576e-002
6.595634e+002;9.578896e-002
6.614919e+002;9.781078e-002
6.634205e+002;1.002071e-001
6.653491e+002;1.032988e-001
6.672776e+002;1.070656e-001
6.692062e+002;1.094564e-001
6.711347e+002;1.115258e-001
6.730632e+002;1.156881e-001
6.749918e+002;1.203052e-001
6.769203e+002;1.250308e-001
6.788489e+002;1.301647e-001
6.807775e+002;1.356540e-001
6.827060e+002;1.383626e-001
6.846345e+002;1.373418e-001
6.865631e+002;1.360223e-001
6.884916e+002;1.367195e-001
6.904202e+002;1.402995e-001
6.923488e+002;1.456815e-001
6.942773e+002;1.530312e-001
6.962058e+002;1.643180e-001
6.981344e+002;1.800540e-001
7.000629e+002;1.989044e-001
7.019915e+002;2.164600e-001
7.039200e+002;2.325329e-001
7.058486e+002;2.482824e-001
7.077771e+002;2.646102e-001
7.097057e+002;2.846540e-001
7.116342e+002;3.091497e-001
7.135627e+002;3.379805e-001
7.154913e+002;3.756283e-001
7.174199e+002;4.247014e-001
7.193484e+002;4.783116e-001
7.212770e+002;5.249633e-001
7.232055e+002;5.535858e-001
7.251340e+002;5.466549e-001
7.270626e+002;4.989364e-001
7.289911e+002;4.353516e-001
7.309197e+002;3.724422e-001
7.328483e+002;3.157390e-001
7.347768e+002;2.657783e-001
7.367053e+002;2.200411e-001
7.386339e+002;1.797432e-001
7.405624e+002;1.477946e-001
7.424910e+002;1.247953e-001
7.444196e+002;1.092296e-001
7.463481e+002;9.928579e-002
7.482766e+002;9.351618e-002
7.502052e+002;9.097768e-002
7.521337e+002;8.926403e-002
7.540623e+002;8.757965e-002
7.559908e+002;8.593974e-002
7.579194e+002;8.534786e-002
7.598479e+002;8.570117e-002
7.617765e+002;8.677953e-002
7.637050e+002;8.816110e-002
7.656335e+002;9.029450e-002
7.675621e+002;9.303050e-002
7.694907e+002;9.481100e-002
7.714192e+002;9.630971e-002
7.733478e+002;9.871984e-002
7.752763e+002;1.007618e-001
7.772048e+002;1.033922e-001
7.791334e+002;1.070805e-001
7.810620e+002;1.097435e-001
7.829905e+002;1.126261e-001
7.849191e+002;1.173588e-001
7.868476e+002;1.241420e-001
7.887761e+002;1.311042e-001
7.907047e+002;1.361934e-001
7.926332e+002;1.373495e-001
7.945618e+002;1.314123e-001
7.964903e+002;1.204969e-001
7.984189e+002;1.118400e-001
8.003474e+002;1.078657e-001
8.022759e+002;1.070683e-001
8.042045e+002;1.079300e-001
8.061331e+002;1.088045e-001
8.080616e+002;1.097285e-001
8.099902e+002;1.110776e-001
8.119187e+002;1.120382e-001
8.138472e+002;1.122093e-001
8.157758e+002;1.116813e-001
8.177043e+002;1.125407e-001
8.196329e+002;1.138766e-001
8.215615e+002;1.145369e-001
8.234900e+002;1.159535e-001
8.254185e+002;1.181386e-001
8.273471e+002;1.207060e-001
8.292756e+002;1.230683e-001
8.312042e+002;1.261274e-001
8.331328e+002;1.308236e-001
8.350613e+002;1.366888e-001
8.369898e+002;1.419704e-001
8.389184e+002;1.468914e-001
8.408469e+002;1.528375e-001
8.427755e+002;1.594932e-001
8.447040e+002;1.658200e-001
8.466326e+002;1.699052e-001
8.485611e+002;1.703169e-001
8.504897e+002;1.675024e-001
8.524182e+002;1.634480e-001
8.543467e+002;1.609660e-001
8.562753e+002;1.605394e-001
8.582039e+002;1.606697e-001
8.601324e+002;1.608240e-001
8.620610e+002;1.630236e-001
8.639895e+002;1.685823e-001
8.659180e+002;1.784779e-001
8.678466e+002;1.962334e-001
8.697751e+002;2.232571e-001
8.717037e+002;2.464890e-001
8.736323e+002;2.456166e-001
8.755608e+002;2.258971e-001
8.774893e+002;2.042808e-001
8.794179e+002;1.852053e-001
8.813464e+002;1.683756e-001
8.832750e+002;1.533285e-001
8.852036e+002;1.411052e-001
8.871321e+002;1.322083e-001
8.890606e+002;1.258662e-001
8.909892e+002;1.220259e-001
8.929177e+002;1.203148e-001
8.948463e+002;1.197772e-001
8.967748e+002;1.197279e-001
8.987034e+002;1.194500e-001
9.006319e+002;1.188100e-001
9.025605e+002;1.176982e-001
9.044890e+002;1.158125e-001
9.064175e+002;1.134682e-001
9.083461e+002;1.111705e-001
9.102747e+002;1.090802e-001
9.122032e+002;1.070641e-001
9.141318e+002;1.046088e-001
9.160603e+002;1.028968e-001
9.179888e+002;1.025092e-001
9.199174e+002;1.022542e-001
9.218459e+002;1.019335e-001
9.237745e+002;1.024250e-001
9.257031e+002;1.033558e-001
9.276316e+002;1.042326e-001
9.295601e+002;1.050383e-001
9.314887e+002;1.062023e-001
9.334172e+002;1.077315e-001
9.353458e+002;1.095636e-001
9.372744e+002;1.112280e-001
9.392029e+002;1.131988e-001
9.411314e+002;1.155067e-001
9.430600e+002;1.179106e-001
9.449885e+002;1.204299e-001
9.469171e+002;1.230521e-001
9.488456e+002;1.258466e-001
9.507742e+002;1.290198e-001
9.527027e+002;1.327827e-001
9.546313e+002;1.368515e-001
9.565598e+002;1.410337e-001
9.584883e+002;1.450443e-001
9.604169e+002;1.491505e-001
9.623455e+002;1.537212e-001
9.642740e+002;1.581031e-001
9.662026e+002;1.618975e-001
9.681311e+002;1.644416e-001
9.700596e+002;1.651682e-001
9.719882e+002;1.644735e-001
9.739167e+002;1.625591e-001
9.758453e+002;1.593536e-001
9.777739e+002;1.550594e-001
9.797024e+002;1.506151e-001
9.816309e+002;1.474213e-001
9.835595e+002;1.450508e-001
9.854880e+002;1.435032e-001
9.874166e+002;1.426248e-001
9.893452e+002;1.415829e-001
9.912737e+002;1.405544e-001
9.932022e+002;1.398298e-001
9.951307e+002;1.398351e-001
9.970593e+002;1.409889e-001
9.989879e+002;1.429987e-001
1.000916e+003;1.454779e-001
1.002845e+003;1.488628e-001
1.004773e+003;1.544309e-001
1.006702e+003;1.629435e-001
1.008631e+003;1.751453e-001
1.010559e+003;1.935141e-001
1.012488e+003;2.216822e-001
1.014416e+003;2.602291e-001
1.016345e+003;2.973038e-001
1.018273e+003;3.125371e-001
1.020202e+003;2.991744e-001
1.022130e+003;2.694575e-001
1.024059e+003;2.372858e-001
1.025988e+003;2.084674e-001
1.027916e+003;1.850951e-001
1.029845e+003;1.694712e-001
1.031773e+003;1.620941e-001
1.033702e+003;1.605287e-001
1.035630e+003;1.619234e-001
1.037559e+003;1.645585e-001
1.039487e+003;1.672916e-001
1.041416e+003;1.700032e-001
1.043344e+003;1.724260e-001
1.045273e+003;1.746892e-001
1.047202e+003;1.762174e-001
1.049130e+003;1.767833e-001
1.051059e+003;1.774147e-001
1.052987e+003;1.786298e-001
1.054916e+003;1.803424e-001
1.056844e+003;1.826945e-001
1.058773e+003;1.858373e-001
1.060701e+003;1.909010e-001
1.062630e+003;1.981197e-001
1.064558e+003;2.067661e-001
1.066487e+003;2.165196e-001
1.068416e+003;2.276242e-001
1.070344e+003;2.407560e-001
1.072273e+003;2.570224e-001
1.074201e+003;2.774559e-001
1.076130e+003;3.016540e-001
1.078058e+003;3.298375e-001
1.079987e+003;3.609439e-001
1.081915e+003;3.919884e-001
1.083844e+003;4.200671e-001
1.085773e+003;4.437202e-001
1.087701e+003;4.632420e-001
1.089630e+003;4.806391e-001
1.091558e+003;4.960092e-001
1.093487e+003;5.090693e-001
1.095415e+003;5.175952e-001
1.097344e+003;5.208212e-001
1.099272e+003;5.178492e-001
1.101201e+003;5.060251e-001
1.103129e+003;4.859493e-001
1.105058e+003;4.609954e-001
1.106987e+003;4.344102e-001
1.108915e+003;4.097670e-001
1.110844e+003;3.920201e-001
1.112772e+003;3.834345e-001
1.114701e+003;3.806622e-001
1.116629e+003;3.780389e-001
1.118558e+003;3.727792e-001
1.120486e+003;3.637693e-001
1.122415e+003;3.504973e-001
1.124344e+003;3.352027e-001
1.126272e+003;3.188987e-001
1.128201e+003;3.011658e-001
1.130129e+003;2.824232e-001
1.132058e+003;2.630139e-001
1.133986e+003;2.432214e-001
1.135915e+003;2.240445e-001
1.137843e+003;2.062314e-001
1.139772e+003;1.907890e-001
1.141700e+003;1.784059e-001
1.143629e+003;1.681539e-001
1.145557e+003;1.589793e-001
1.147486e+003;1.510604e-001
1.149415e+003;1.442410e-001
1.151343e+003;1.383774e-001
1.153272e+003;1.335770e-001
1.155200e+003;1.297120e-001
1.157129e+003;1.267253e-001
1.159057e+003;1.249736e-001
1.160986e+003;1.238907e-001
1.162914e+003;1.233159e-001
1.164843e+003;1.243572e-001
1.166771e+003;1.273616e-001
1.168700e+003;1.316508e-001
1.170629e+003;1.373951e-001
1.172557e+003;1.422256e-001
1.174486e+003;1.440241e-001
1.176414e+003;1.437144e-001
1.178343e+003;1.418252e-001
1.180271e+003;1.390883e-001
1.182200e+003;1.366659e-001
1.184128e+003;1.347035e-001
1.186057e+003;1.335285e-001
1.187986e+003;1.337438e-001
1.189914e+003;1.353552e-001
1.191843e+003;1.382285e-001
1.193771e+003;1.419630e-001
1.195700e+003;1.464125e-001
1.197628e+003;1.513924e-001
1.199557e+003;1.568980e-001
1.201485e+003;1.629908e-001
1.203414e+003;1.698797e-001
1.205343e+003;1.770387e-001
1.207271e+003;1.848358e-001
1.209200e+003;1.932140e-001
1.211128e+003;2.023151e-001
1.213057e+003;2.129267e-001
1.214985e+003;2.245144e-001
1.216914e+003;2.366847e-001
1.218842e+003;2.496856e-001
1.220771e+003;2.633436e-001
1.222699e+003;2.772029e-001
1.224628e+003;2.916525e-001
1.226557e+003;3.088323e-001
1.228485e+003;3.299176e-001
1.230414e+003;3.557434e-001
1.232342e+003;3.883570e-001
1.234271e+003;4.273348e-001
1.236199e+003;4.701227e-001
1.238128e+003;5.130947e-001
1.240056e+003;5.517129e-001
1.241985e+003;5.812336e-001
1.243913e+003;5.984524e-001
1.245842e+003;6.033856e-001
1.247771e+003;5.979469e-001
1.249699e+003;5.854261e-001
1.251628e+003;5.697271e-001
1.253556e+003;5.534227e-001
1.255485e+003;5.380515e-001
1.257413e+003;5.237945e-001
1.259342e+003;5.099817e-001
1.261270e+003;4.947040e-001
1.263199e+003;4.760199e-001
1.265127e+003;4.540763e-001
1.267056e+003;4.291125e-001
1.268985e+003;4.032732e-001
1.270913e+003;3.783403e-001
1.272842e+003;3.555138e-001
1.274770e+003;3.359986e-001
1.276699e+003;3.185190e-001
1.278627e+003;3.029854e-001
1.280556e+003;2.891636e-001
1.282484e+003;2.763808e-001
1.284413e+003;2.641062e-001
1.286342e+003;2.521223e-001
1.288270e+003;2.405930e-001
1.290199e+003;2.286222e-001
1.292127e+003;2.164312e-001
1.294056e+003;2.047035e-001
1.295984e+003;1.930298e-001
1.297913e+003;1.813949e-001
1.299841e+003;1.703606e-001
1.301770e+003;1.607078e-001
1.303698e+003;1.527616e-001
1.305627e+003;1.462517e-001
1.307556e+003;1.397929e-001
1.309484e+003;1.336635e-001
1.311413e+003;1.283734e-001
1.313341e+003;1.235460e-001
1.315270e+003;1.193337e-001
1.317198e+003;1.157706e-001
1.319127e+003;1.129781e-001
1.321055e+003;1.107731e-001
1.322984e+003;1.095569e-001
1.324912e+003;1.100639e-001
1.326841e+003;1.133445e-001
1.328770e+003;1.210257e-001
1.330698e+003;1.345761e-001
1.332627e+003;1.540696e-001
1.334555e+003;1.769811e-001
1.336484e+003;1.973144e-001
1.338412e+003;2.080067e-001
1.340341e+003;2.056420e-001
1.342269e+003;1.921759e-001
1.344198e+003;1.724769e-001
1.346126e+003;1.520038e-001
1.348055e+003;1.343361e-001
1.349984e+003;1.208730e-001
1.351912e+003;1.111799e-001
1.353841e+003;1.047474e-001
1.355769e+003;1.006090e-001
1.357698e+003;9.829864e-002
1.359626e+003;9.766302e-002
1.361555e+003;9.851172e-002
1.363483e+003;1.004342e-001
1.365412e+003;1.027730e-001
1.367341e+003;1.050691e-001
1.369269e+003;1.067043e-001
1.371198e+003;1.074901e-001
1.373126e+003;1.074376e-001
1.375055e+003;1.068061e-001
1.376983e+003;1.063819e-001
1.378912e+003;1.061410e-001
1.380840e+003;1.061605e-001
1.382769e+003;1.067661e-001
1.384698e+003;1.078710e-001
1.386626e+003;1.090872e-001
1.388555e+003;1.103099e-001
1.390483e+003;1.118092e-001
1.392412e+003;1.139700e-001
1.394340e+003;1.167617e-001
1.396269e+003;1.208902e-001
1.398197e+003;1.269291e-001
1.400126e+003;1.353507e-001
1.402054e+003;1.469426e-001
1.403983e+003;1.614528e-001
1.405911e+003;1.769221e-001
1.407840e+003;1.888131e-001
1.409769e+003;1.904128e-001
1.411697e+003;1.787014e-001
1.413626e+003;1.576256e-001
1.415554e+003;1.350101e-001
1.417483e+003;1.160945e-001
1.419411e+003;1.025119e-001
1.421340e+003;9.420272e-002
1.423268e+003;8.967532e-002
1.425197e+003;8.755581e-002
1.427125e+003;8.714644e-002
1.429054e+003;8.812359e-002
1.430983e+003;9.005606e-002
1.432911e+003;9.255692e-002
1.434840e+003;9.542698e-002
1.436768e+003;9.798912e-002
1.438697e+003;1.002280e-001
1.440625e+003;1.020585e-001
1.442554e+003;1.038033e-001
1.444482e+003;1.056396e-001
1.446411e+003;1.073855e-001
1.448340e+003;1.094131e-001
1.450268e+003;1.116116e-001
1.452197e+003;1.132035e-001
1.454125e+003;1.141194e-001
1.456054e+003;1.144997e-001
1.457982e+003;1.145074e-001
1.459911e+003;1.142035e-001
1.461839e+003;1.136272e-001
1.463768e+003;1.131550e-001
1.465697e+003;1.134198e-001
1.467625e+003;1.151051e-001
1.469554e+003;1.179157e-001
1.471482e+003;1.188623e-001
1.473411e+003;1.162780e-001
1.475339e+003;1.124713e-001
1.477268e+003;1.086210e-001
1.479196e+003;1.046990e-001
1.481125e+003;1.005237e-001
1.483053e+003;9.617655e-002
1.484982e+003;9.183937e-002
1.486911e+003;8.772618e-002
1.488839e+003;8.434027e-002
1.490768e+003;8.177265e-002
1.492696e+003;8.025001e-002
1.494625e+003;8.048711e-002
1.496553e+003;8.295193e-002
1.498482e+003;8.776689e-002
1.500410e+003;9.561607e-002
1.502339e+003;1.057089e-001
1.504267e+003;1.139020e-001
1.506196e+003;1.145837e-001
1.508125e+003;1.066800e-001
1.510053e+003;9.590564e-002
1.511982e+003;8.715802e-002
1.513910e+003;8.184909e-002
1.515839e+003;7.911241e-002
1.517767e+003;7.798751e-002
1.519696e+003;7.801316e-002
1.521624e+003;7.854005e-002
1.523553e+003;7.908960e-002
1.525481e+003;7.896491e-002
1.527410e+003;7.853381e-002
1.529339e+003;7.800146e-002
1.531267e+003;7.710262e-002
1.533196e+003;7.598974e-002
1.535124e+003;7.480210e-002
1.537053e+003;7.395145e-002
1.538981e+003;7.356875e-002
1.540910e+003;7.346287e-002
1.542838e+003;7.320376e-002
1.544767e+003;7.292427e-002
1.546695e+003;7.323662e-002
1.548624e+003;7.370721e-002
1.550553e+003;7.412906e-002
1.552481e+003;7.450411e-002
1.554410e+003;7.498419e-002
1.556338e+003;7.571803e-002
1.558267e+003;7.634748e-002
1.560195e+003;7.671303e-002
1.562124e+003;7.740316e-002
1.564052e+003;7.850432e-002
1.565981e+003;8.007932e-002
1.567910e+003;8.199634e-002
1.569838e+003;8.454785e-002
1.571767e+003;8.809928e-002
1.573695e+003;9.214417e-002
1.575624e+003;9.587527e-002
1.577552e+003;9.845540e-002
1.579481e+003;9.918194e-002
1.581409e+003;9.746466e-002
1.583338e+003;9.351540e-002
1.585266e+003;8.907777e-002
1.587195e+003;8.539727e-002
1.589124e+003;8.275485e-002
1.591052e+003;8.115303e-002
1.592981e+003;8.056684e-002
1.594909e+003;8.038966e-002
1.596838e+003;8.056109e-002
1.598766e+003;8.131606e-002
1.600695e+003;8.258034e-002
1.602623e+003;8.420614e-002
1.604552e+003;8.621391e-002
1.606480e+003;8.847665e-002
1.608409e+003;9.103873e-002
1.610338e+003;9.357897e-002
1.612266e+003;9.575216e-002
1.614195e+003;9.701154e-002
1.616123e+003;9.655831e-002
1.618052e+003;9.488586e-002
1.619980e+003;9.295510e-002
1.621909e+003;9.148324e-002
1.623837e+003;9.068578e-002
1.625766e+003;9.041330e-002
1.627694e+003;9.058630e-002
1.629623e+003;9.129484e-002
1.631552e+003;9.236966e-002
1.633480e+003;9.331515e-002
1.635409e+003;9.427484e-002
1.637337e+003;9.539954e-002
1.639266e+003;9.654565e-002
1.641194e+003;9.773700e-002
1.643123e+003;9.908544e-002
1.645051e+003;1.004914e-001
1.646980e+003;1.019645e-001
1.648909e+003;1.037829e-001
1.650837e+003;1.059254e-001
1.652766e+003;1.079602e-001
1.654694e+003;1.103621e-001
1.656623e+003;1.130791e-001
1.658551e+003;1.159878e-001
1.660480e+003;1.194633e-001
1.662408e+003;1.234859e-001
1.664337e+003;1.279222e-001
1.666266e+003;1.327392e-001
1.668194e+003;1.375511e-001
1.670123e+003;1.420935e-001
1.672051e+003;1.465786e-001
1.673980e+003;1.513150e-001
1.675908e+003;1.565439e-001
1.677837e+003;1.620196e-001
1.679765e+003;1.678073e-001
1.681694e+003;1.735203e-001
1.683622e+003;1.785627e-001
1.685551e+003;1.834496e-001
1.687479e+003;1.892900e-001
1.689408e+003;1.966651e-001
1.691337e+003;2.059753e-001
1.693265e+003;2.177399e-001
1.695194e+003;2.324270e-001
1.697122e+003;2.508114e-001
1.699051e+003;2.735057e-001
1.700979e+003;3.022783e-001
1.702908e+003;3.376949e-001
1.704836e+003;3.816898e-001
1.706765e+003;4.340091e-001
1.708693e+003;4.905589e-001
1.710622e+003;5.434229e-001
1.712551e+003;5.814577e-001
1.714479e+003;5.943311e-001
1.716408e+003;5.812762e-001
1.718336e+003;5.489290e-001
1.720265e+003;5.091293e-001
1.722193e+003;4.675702e-001
1.724122e+003;4.281293e-001
1.726050e+003;3.908098e-001
1.727979e+003;3.545494e-001
1.729908e+003;3.201519e-001
1.731836e+003;2.887718e-001
1.733765e+003;2.590769e-001
1.735693e+003;2.314793e-001
1.737622e+003;2.064004e-001
1.739550e+003;1.824469e-001
1.741479e+003;1.596233e-001
1.743407e+003;1.392048e-001
1.745336e+003;1.216184e-001
1.747265e+003;1.071679e-001
1.749193e+003;9.598035e-002
1.751122e+003;8.753721e-002
1.753050e+003;8.133432e-002
1.754979e+003;7.692867e-002
1.756907e+003;7.406060e-002
1.758836e+003;7.201960e-002
1.760764e+003;7.027607e-002
1.762693e+003;6.899265e-002
1.764621e+003;6.796623e-002
1.766550e+003;6.702789e-002
1.768479e+003;6.655274e-002
1.770407e+003;6.620005e-002
1.772336e+003;6.577434e-002
1.774264e+003;6.541476e-002
1.776193e+003;6.530664e-002
1.778121e+003;6.517118e-002
1.780050e+003;6.479037e-002
1.781978e+003;6.442783e-002
1.783907e+003;6.433987e-002
1.785835e+003;6.428128e-002
1.787764e+003;6.430671e-002
1.789693e+003;6.402966e-002
1.791621e+003;6.348821e-002
1.793550e+003;6.320278e-002
1.795478e+003;6.330720e-002
1.797407e+003;6.343701e-002
1.799335e+003;6.352334e-002
1.801264e+003;6.374580e-002
1.803192e+003;6.388074e-002
1.805121e+003;6.382509e-002
1.807049e+003;6.397019e-002
1.808978e+003;6.420460e-002
1.810907e+003;6.408734e-002
1.812835e+003;6.392919e-002
1.814764e+003;6.395744e-002
1.816692e+003;6.380816e-002
1.818621e+003;6.383380e-002
1.820549e+003;6.385445e-002
1.822478e+003;6.369764e-002
1.824406e+003;6.364355e-002
1.826335e+003;6.345899e-002
1.828264e+003;6.290105e-002
1.830192e+003;6.230535e-002
1.832121e+003;6.177586e-002
1.834049e+003;6.142812e-002
1.835978e+003;6.078191e-002
1.837906e+003;6.007141e-002
1.839835e+003;5.942304e-002
1.841763e+003;5.859946e-002
1.843692e+003;5.768752e-002
1.845620e+003;5.669182e-002
1.847549e+003;5.611981e-002
1.849478e+003;5.553085e-002
1.851406e+003;5.436410e-002
1.853335e+003;5.339479e-002
1.855263e+003;5.256931e-002
1.857192e+003;5.177527e-002
1.859120e+003;5.107453e-002
1.861049e+003;5.028749e-002
1.862977e+003;4.957688e-002
1.864906e+003;4.910259e-002
1.866834e+003;4.860700e-002
1.868763e+003;4.810967e-002
1.870692e+003;4.775013e-002
1.872620e+003;4.731238e-002
1.874549e+003;4.684506e-002
1.876477e+003;4.680601e-002
1.878406e+003;4.668255e-002
1.880334e+003;4.646777e-002
1.882263e+003;4.640811e-002
1.884191e+003;4.635653e-002
1.886120e+003;4.622843e-002
1.888048e+003;4.610926e-002
1.889977e+003;4.601657e-002
1.891906e+003;4.617105e-002
1.893834e+003;4.632427e-002
1.895763e+003;4.635708e-002
1.897691e+003;4.642632e-002
1.899620e+003;4.645943e-002
1.901548e+003;4.652548e-002
1.903477e+003;4.668280e-002
1.905405e+003;4.697481e-002
1.907334e+003;4.730359e-002
1.909262e+003;4.754791e-002
1.911191e+003;4.774348e-002
1.913120e+003;4.806373e-002
1.915048e+003;4.849683e-002
1.916977e+003;4.888687e-002
1.918905e+003;4.919224e-002
1.920834e+003;4.970556e-002
1.922762e+003;5.035523e-002
1.924691e+003;5.107475e-002
1.926619e+003;5.188805e-002
1.928548e+003;5.252967e-002
1.930477e+003;5.318445e-002
1.932405e+003;5.407958e-002
1.934334e+003;5.506603e-002
1.936262e+003;5.592642e-002
1.938191e+003;5.672289e-002
1.940119e+003;5.781696e-002
1.942048e+003;5.872003e-002
1.943976e+003;5.940830e-002
1.945905e+003;6.010619e-002
1.947833e+003;6.071210e-002
1.949762e+003;6.128627e-002
1.951691e+003;6.168862e-002
1.953619e+003;6.198860e-002
1.955548e+003;6.215920e-002
1.957476e+003;6.225471e-002
1.959405e+003;6.200706e-002
1.961333e+003;6.163573e-002
1.963262e+003;6.111201e-002
1.965190e+003;6.029901e-002
1.967119e+003;5.934057e-002
1.969047e+003;5.836461e-002
1.970976e+003;5.731113e-002
1.972905e+003;5.620503e-002
1.974833e+003;5.530069e-002
1.976762e+003;5.459737e-002
1.978690e+003;5.372944e-002
1.980619e+003;5.292395e-002
1.982547e+003;5.248836e-002
1.984476e+003;5.202810e-002
1.986404e+003;5.143045e-002
1.988333e+003;5.075372e-002
1.990261e+003;5.017504e-002
1.992190e+003;4.963137e-002
1.994119e+003;4.912871e-002
1.996047e+003;4.862097e-002
1.997976e+003;4.788430e-002
1.999904e+003;4.715464e-002
2.001833e+003;4.663569e-002
2.003761e+003;4.616401e-002
2.005690e+003;4.551086e-002
2.007618e+003;4.499512e-002
2.009547e+003;4.472380e-002
2.011476e+003;4.447673e-002
2.013404e+003;4.413831e-002
2.015333e+003;4.383823e-002
2.017261e+003;4.360932e-002
2.019190e+003;4.342696e-002
2.021118e+003;4.326188e-002
2.023047e+003;4.290670e-002
2.024975e+003;4.257802e-002
2.026904e+003;4.228406e-002
2.028833e+003;4.201216e-002
2.030761e+003;4.183966e-002
2.032690e+003;4.176353e-002
2.034618e+003;4.174660e-002
2.036547e+003;4.177042e-002
2.038475e+003;4.193384e-002
2.040404e+003;4.217422e-002
2.042332e+003;4.228183e-002
2.044261e+003;4.256954e-002
2.046189e+003;4.301673e-002
2.048118e+003;4.310213e-002
2.050047e+003;4.322304e-002
2.051975e+003;4.341422e-002
2.053904e+003;4.389926e-002
2.055832e+003;4.431616e-002
2.057761e+003;4.468814e-002
2.059689e+003;4.518506e-002
2.061618e+003;4.567621e-002
2.063546e+003;4.611957e-002
2.065475e+003;4.649848e-002
2.067404e+003;4.704263e-002
2.069332e+003;4.752477e-002
2.071260e+003;4.798368e-002
2.073189e+003;4.838552e-002
2.075118e+003;4.852292e-002
2.077046e+003;4.880300e-002
2.078975e+003;4.939545e-002
2.080903e+003;4.999956e-002
2.082832e+003;5.047130e-002
2.084760e+003;5.070714e-002
2.086689e+003;5.080594e-002
2.088617e+003;5.099087e-002
2.090546e+003;5.115906e-002
2.092475e+003;5.131416e-002
2.094403e+003;5.127284e-002
2.096332e+003;5.101207e-002
2.098260e+003;5.092321e-002
2.100189e+003;5.097358e-002
2.102117e+003;5.098319e-002
2.104046e+003;5.098781e-002
2.105974e+003;5.098479e-002
2.107903e+003;5.086326e-002
2.109832e+003;5.059011e-002
2.111760e+003;5.035739e-002
2.113688e+003;5.022343e-002
2.115617e+003;5.019944e-002
2.117546e+003;5.015715e-002
2.119474e+003;4.984888e-002
2.121403e+003;4.934533e-002
2.123331e+003;4.894450e-002
2.125260e+003;4.844582e-002
2.127188e+003;4.815990e-002
2.129117e+003;4.805033e-002
2.131045e+003;4.753653e-002
2.132974e+003;4.699966e-002
2.134903e+003;4.668302e-002
2.136831e+003;4.636445e-002
2.138760e+003;4.599841e-002
2.140688e+003;4.570131e-002
2.142617e+003;4.548933e-002
2.144545e+003;4.505698e-002
2.146474e+003;4.483543e-002
2.148402e+003;4.470349e-002
2.150331e+003;4.418577e-002
2.152260e+003;4.354009e-002
2.154188e+003;4.319318e-002
2.156117e+003;4.292751e-002
2.158045e+003;4.259443e-002
2.159974e+003;4.226744e-002
2.161902e+003;4.175200e-002
2.163831e+003;4.131974e-002
2.165759e+003;4.095468e-002
2.167688e+003;4.058595e-002
2.169616e+003;4.049189e-002
2.171545e+003;4.038042e-002
2.173474e+003;4.014860e-002
2.175402e+003;4.005986e-002
2.177331e+003;3.985363e-002
2.179259e+003;3.927241e-002
2.181188e+003;3.891530e-002
2.183116e+003;3.902153e-002
2.185045e+003;3.899982e-002
2.186973e+003;3.900899e-002
2.188902e+003;3.906598e-002
2.190831e+003;3.905782e-002
2.192759e+003;3.915104e-002
2.194688e+003;3.928286e-002
2.196616e+003;3.932740e-002
2.198545e+003;3.941868e-002
2.200473e+003;3.959098e-002
2.202402e+003;3.974294e-002
2.204330e+003;3.991872e-002
2.206259e+003;4.015470e-002
2.208188e+003;4.040257e-002
2.210116e+003;4.069282e-002
2.212044e+003;4.122449e-002
2.213973e+003;4.169353e-002
2.215902e+003;4.165713e-002
2.217830e+003;4.137553e-002
2.219759e+003;4.155922e-002
2.221687e+003;4.187031e-002
2.223616e+003;4.186885e-002
2.225544e+003;4.205243e-002
2.227473e+003;4.221573e-002
2.229401e+003;4.222979e-002
2.231330e+003;4.222533e-002
2.233259e+003;4.218616e-002
2.235187e+003;4.228673e-002
2.237116e+003;4.216677e-002
2.239044e+003;4.225119e-002
2.240973e+003;4.257732e-002
2.242901e+003;4.274946e-002
2.244830e+003;4.281696e-002
2.246758e+003;4.293212e-002
2.248687e+003;4.318750e-002
2.250615e+003;4.345702e-002
2.252544e+003;4.356917e-002
2.254473e+003;4.369399e-002
2.256401e+003;4.381786e-002
2.258330e+003;4.400123e-002
2.260258e+003;4.413996e-002
2.262187e+003;4.407853e-002
2.264115e+003;4.394799e-002
2.266044e+003;4.391873e-002
2.267972e+003;4.391103e-002
2.269901e+003;4.398527e-002
2.271830e+003;4.410123e-002
2.273758e+003;4.425892e-002
2.275687e+003;4.447551e-002
2.277615e+003;4.456325e-002
2.279544e+003;4.471212e-002
2.281472e+003;4.505580e-002
2.283401e+003;4.535083e-002
2.285329e+003;4.544938e-002
2.287258e+003;4.535804e-002
2.289187e+003;4.496888e-002
2.291115e+003;4.432680e-002
2.293043e+003;4.371993e-002
2.294972e+003;4.294046e-002
2.296901e+003;4.227438e-002
2.298829e+003;4.200556e-002
2.300758e+003;4.158905e-002
2.302686e+003;4.080116e-002
2.304615e+003;4.015071e-002
2.306543e+003;3.965893e-002
2.308472e+003;3.941494e-002
2.310400e+003;3.933901e-002
2.312329e+003;3.916964e-002
2.314258e+003;3.916804e-002
2.316186e+003;3.932403e-002
2.318115e+003;3.945743e-002
2.320043e+003;3.981488e-002
2.321972e+003;4.005899e-002
2.323900e+003;4.041919e-002
2.325829e+003;4.071108e-002
2.327757e+003;4.070577e-002
2.329686e+003;4.057319e-002
2.331615e+003;4.053357e-002
2.333543e+003;4.058123e-002
2.335472e+003;4.078780e-002
2.337400e+003;4.107266e-002
2.339329e+003;4.099888e-002
2.341257e+003;4.086399e-002
2.343186e+003;4.093552e-002
2.345114e+003;4.115942e-002
2.347043e+003;4.154125e-002
2.348971e+003;4.205706e-002
2.350900e+003;4.254089e-002
2.352829e+003;4.269392e-002
2.354757e+003;4.294148e-002
2.356686e+003;4.327886e-002
2.358614e+003;4.357716e-002
2.360543e+003;4.400478e-002
2.362471e+003;4.431840e-002
2.364400e+003;4.459329e-002
2.366328e+003;4.488822e-002
2.368257e+003;4.524120e-002
2.370186e+003;4.557897e-002
2.372114e+003;4.558302e-002
2.374042e+003;4.547811e-002
2.375971e+003;4.555005e-002
2.377900e+003;4.586511e-002
2.379828e+003;4.607706e-002
2.381757e+003;4.595597e-002
2.383685e+003;4.581014e-002
2.385614e+003;4.604077e-002
2.387542e+003;4.595579e-002
2.389471e+003;4.563388e-002
2.391399e+003;4.566756e-002
2.393328e+003;4.566215e-002
2.395257e+003;4.541414e-002
2.397185e+003;4.537110e-002
2.399114e+003;4.527801e-002
2.401042e+003;4.491148e-002
2.402971e+003;4.461771e-002
2.404899e+003;4.433976e-002
2.406828e+003;4.406972e-002
2.408756e+003;4.399734e-002
2.410685e+003;4.380173e-002
2.412614e+003;4.326027e-002
2.414542e+003;4.274430e-002
2.416471e+003;4.260791e-002
2.418399e+003;4.267945e-002
2.420328e+003;4.238827e-002
2.422256e+003;4.199483e-002
2.424185e+003;4.168919e-002
2.426113e+003;4.123571e-002
2.428042e+003;4.079089e-002
2.429970e+003;4.032450e-002
2.431899e+003;4.008885e-002
2.433828e+003;4.001662e-002
2.435756e+003;3.976829e-002
2.437685e+003;3.947775e-002
2.439613e+003;3.901331e-002
2.441542e+003;3.882685e-002
2.443470e+003;3.881953e-002
2.445399e+003;3.863478e-002
2.447327e+003;3.842843e-002
2.449256e+003;3.815619e-002
2.451185e+003;3.798551e-002
2.453113e+003;3.776132e-002
2.455042e+003;3.784638e-002
2.456970e+003;3.794826e-002
2.458899e+003;3.786673e-002
2.460827e+003;3.787475e-002
2.462756e+003;3.756246e-002
2.464684e+003;3.739551e-002
2.466613e+003;3.770526e-002
2.468542e+003;3.771039e-002
2.470470e+003;3.776067e-002
2.472398e+003;3.792819e-002
2.474327e+003;3.816169e-002
2.476256e+003;3.854469e-002
2.478184e+003;3.882464e-002
2.480113e+003;3.903712e-002
2.482041e+003;3.912076e-002
2.483970e+003;3.907537e-002
2.485898e+003;3.910082e-002
2.487827e+003;3.938922e-002
2.489755e+003;3.972105e-002
2.491684e+003;3.996249e-002
2.493613e+003;4.018404e-002
2.495541e+003;4.041759e-002
2.497470e+003;4.075162e-002
2.499398e+003;4.113640e-002
2.501327e+003;4.113312e-002
2.503255e+003;4.107397e-002
2.505184e+003;4.113615e-002
2.507112e+003;4.134987e-002
2.509041e+003;4.144322e-002
2.510969e+003;4.145857e-002
2.512898e+003;4.161552e-002
2.514827e+003;4.193479e-002
2.516755e+003;4.222358e-002
2.518684e+003;4.239853e-002
2.520612e+003;4.268665e-002
2.522541e+003;4.310564e-002
2.524469e+003;4.318084e-002
2.526398e+003;4.308650e-002
2.528326e+003;4.329402e-002
2.530255e+003;4.362046e-002
2.532184e+003;4.364739e-002
2.534112e+003;4.355426e-002
2.536041e+003;4.371993e-002
2.537969e+003;4.366391e-002
2.539898e+003;4.353130e-002
2.541826e+003;4.359991e-002
2.543755e+003;4.374459e-002
2.545683e+003;4.391888e-002
2.547612e+003;4.385707e-002
2.549541e+003;4.351185e-002
2.551469e+003;4.334681e-002
2.553397e+003;4.339767e-002
2.555326e+003;4.351148e-002
2.557255e+003;4.358672e-002
2.559183e+003;4.368171e-002
2.561112e+003;4.388841e-002
2.563040e+003;4.384201e-002
2.564969e+003;4.361328e-002
2.566897e+003;4.344802e-002
2.568826e+003;4.337364e-002
2.570754e+003;4.361404e-002
2.572683e+003;4.360229e-002
2.574612e+003;4.344820e-002
2.576540e+003;4.351925e-002
2.578469e+003;4.343256e-002
2.580397e+003;4.344846e-002
2.582326e+003;4.355507e-002
2.584254e+003;4.350683e-002
2.586183e+003;4.325455e-002
2.588111e+003;4.293007e-002
2.590040e+003;4.262374e-002
2.591969e+003;4.228662e-002
2.593897e+003;4.203571e-002
2.595826e+003;4.165462e-002
2.597754e+003;4.136026e-002
2.599683e+003;4.132520e-002
2.601611e+003;4.108978e-002
2.603540e+003;4.054819e-002
2.605468e+003;3.999155e-002
2.607397e+003;3.991596e-002
2.609325e+003;3.985908e-002
2.611254e+003;3.960528e-002
2.613183e+003;3.949009e-002
2.615111e+003;3.951992e-002
2.617040e+003;3.939328e-002
2.618968e+003;3.917762e-002
2.620897e+003;3.905093e-002
2.622825e+003;3.924257e-002
2.624754e+003;3.929291e-002
2.626682e+003;3.925573e-002
2.628611e+003;3.936854e-002
2.630540e+003;3.947104e-002
2.632468e+003;3.946853e-002
2.634396e+003;3.899841e-002
2.636325e+003;3.830624e-002
2.638254e+003;3.776685e-002
2.640182e+003;3.743578e-002
2.642111e+003;3.705441e-002
2.644039e+003;3.676143e-002
2.645968e+003;3.657655e-002
2.647896e+003;3.632762e-002
2.649825e+003;3.623684e-002
2.651753e+003;3.624473e-002
2.653682e+003;3.611058e-002
2.655611e+003;3.590630e-002
2.657539e+003;3.567642e-002
2.659468e+003;3.557869e-002
2.661396e+003;3.537706e-002
2.663325e+003;3.529324e-002
2.665253e+003;3.538091e-002
2.667182e+003;3.559930e-002
2.669110e+003;3.580384e-002
2.671039e+003;3.563368e-002
2.672968e+003;3.554039e-002
2.674896e+003;3.584634e-002
2.676825e+003;3.596482e-002
2.678753e+003;3.605499e-002
2.680682e+003;3.598566e-002
2.682610e+003;3.590500e-002
2.684539e+003;3.593354e-002
2.686467e+003;3.591044e-002
2.688396e+003;3.577599e-002
2.690324e+003;3.579978e-002
2.692253e+003;3.616255e-002
2.694182e+003;3.640021e-002
2.696110e+003;3.628813e-002
2.698039e+003;3.613669e-002
2.699967e+003;3.617364e-002
2.701896e+003;3.620446e-002
2.703824e+003;3.641080e-002
2.705753e+003;3.663275e-002
2.707681e+003;3.662211e-002
2.709610e+003;3.661317e-002
2.711539e+003;3.668116e-002
2.713467e+003;3.701930e-002
2.715396e+003;3.711807e-002
2.717324e+003;3.710443e-002
2.719253e+003;3.744582e-002
2.721181e+003;3.763252e-002
2.723110e+003;3.786409e-002
2.725038e+003;3.782906e-002
2.726967e+003;3.776533e-002
2.728896e+003;3.828854e-002
2.730824e+003;3.889008e-002
2.732752e+003;3.925022e-002
2.734681e+003;3.927608e-002
2.736610e+003;3.928112e-002
2.738538e+003;3.945311e-002
2.740467e+003;3.943294e-002
2.742395e+003;3.946146e-002
2.744324e+003;3.956648e-002
2.746252e+003;3.984382e-002
2.748181e+003;4.013668e-002
2.750109e+003;4.016884e-002
2.752038e+003;4.000271e-002
2.753967e+003;3.989315e-002
2.755895e+003;3.986507e-002
2.757824e+003;3.971934e-002
2.759752e+003;3.967030e-002
2.761681e+003;3.976208e-002
2.763609e+003;3.993117e-002
2.765538e+003;4.004373e-002
2.767466e+003;4.007617e-002
2.769395e+003;4.037369e-002
2.771323e+003;4.077284e-002
2.773252e+003;4.090061e-002
2.775181e+003;4.100125e-002
2.777109e+003;4.117505e-002
2.779038e+003;4.139915e-002
2.780966e+003;4.205644e-002
2.782895e+003;4.245794e-002
2.784823e+003;4.233041e-002
2.786752e+003;4.246678e-002
2.788680e+003;4.314695e-002
2.790609e+003;4.381584e-002
2.792538e+003;4.406521e-002
2.794466e+003;4.436376e-002
2.796395e+003;4.500210e-002
2.798323e+003;4.545457e-002
2.800252e+003;4.567639e-002
2.802180e+003;4.574236e-002
2.804109e+003;4.601988e-002
2.806037e+003;4.642624e-002
2.807966e+003;4.658811e-002
2.809895e+003;4.633205e-002
2.811823e+003;4.578444e-002
2.813751e+003;4.546557e-002
2.815680e+003;4.529298e-002
2.817609e+003;4.515174e-002
2.819537e+003;4.483811e-002
2.821466e+003;4.441763e-002
2.823394e+003;4.440556e-002
2.825323e+003;4.477643e-002
2.827251e+003;4.516707e-002
2.829180e+003;4.554269e-002
2.831108e+003;4.601760e-002
2.833037e+003;4.659467e-002
2.834966e+003;4.708255e-002
2.836894e+003;4.753630e-002
2.838823e+003;4.828753e-002
2.840751e+003;4.888672e-002
2.842680e+003;4.937232e-002
2.844608e+003;4.985750e-002
2.846537e+003;5.068963e-002
2.848465e+003;5.143496e-002
2.850394e+003;5.192748e-002
2.852323e+003;5.254860e-002
2.854251e+003;5.343009e-002
2.856180e+003;5.416249e-002
2.858108e+003;5.487809e-002
2.860037e+003;5.565388e-002
2.861965e+003;5.613330e-002
2.863894e+003;5.639680e-002
2.865822e+003;5.700428e-002
2.867751e+003;5.754299e-002
2.869679e+003;5.773857e-002
2.871608e+003;5.785546e-002
2.873536e+003;5.801043e-002
2.875465e+003;5.845395e-002
2.877394e+003;5.916527e-002
2.879322e+003;5.948136e-002
2.881251e+003;5.979123e-002
2.883179e+003;6.044963e-002
2.885108e+003;6.109195e-002
2.887036e+003;6.162194e-002
2.888965e+003;6.185662e-002
2.890893e+003;6.216402e-002
2.892822e+003;6.291112e-002
2.894750e+003;6.335362e-002
2.896679e+003;6.375375e-002
2.898608e+003;6.487419e-002
2.900536e+003;6.615605e-002
2.902465e+003;6.723793e-002
2.904393e+003;6.824785e-002
2.906322e+003;6.921813e-002
2.908250e+003;6.989177e-002
2.910179e+003;6.982678e-002
2.912107e+003;6.903747e-002
2.914036e+003;6.792984e-002
2.915965e+003;6.658700e-002
2.917893e+003;6.527317e-002
2.919822e+003;6.418359e-002
2.921750e+003;6.313856e-002
2.923679e+003;6.213546e-002
2.925607e+003;6.116026e-002
2.927536e+003;6.051270e-002
2.929464e+003;6.033259e-002
2.931393e+003;6.064336e-002
2.933322e+003;6.102590e-002
2.935250e+003;6.140579e-002
2.937178e+003;6.210285e-002
2.939107e+003;6.320428e-002
2.941036e+003;6.411599e-002
2.942964e+003;6.499925e-002
2.944893e+003;6.671251e-002
2.946821e+003;6.839809e-002
2.948750e+003;6.948273e-002
2.950678e+003;7.063144e-002
2.952607e+003;7.207827e-002
2.954535e+003;7.366889e-002
2.956464e+003;7.511053e-002
2.958393e+003;7.653563e-002
2.960321e+003;7.772133e-002
2.962250e+003;7.867502e-002
2.964178e+003;7.954556e-002
2.966107e+003;8.039392e-002
2.968035e+003;8.098191e-002
2.969964e+003;8.115043e-002
2.971892e+003;8.118375e-002
2.973821e+003;8.058882e-002
2.975750e+003;7.950994e-002
2.977678e+003;7.842945e-002
2.979607e+003;7.756261e-002
2.981535e+003;7.672536e-002
2.983464e+003;7.594462e-002
2.985392e+003;7.500612e-002
2.987321e+003;7.410045e-002
2.989249e+003;7.316333e-002
2.991178e+003;7.214524e-002
2.993106e+003;7.117204e-002
2.995035e+003;7.047276e-002
2.996964e+003;6.971449e-002
2.998892e+003;6.913882e-002
3.000821e+003;6.897366e-002
3.002749e+003;6.860711e-002
3.004678e+003;6.792616e-002
3.006606e+003;6.712677e-002
3.008535e+003;6.643111e-002
3.010463e+003;6.581736e-002
3.012392e+003;6.517207e-002
3.014321e+003;6.460439e-002
3.016249e+003;6.391099e-002
3.018177e+003;6.283391e-002
3.020106e+003;6.194190e-002
3.022035e+003;6.075124e-002
3.023963e+003;5.953460e-002
3.025892e+003;5.840664e-002
3.027820e+003;5.704398e-002
3.029749e+003;5.577607e-002
3.031677e+003;5.493200e-002
3.033606e+003;5.420209e-002
3.035534e+003;5.364722e-002
3.037463e+003;5.323584e-002
3.039392e+003;5.281325e-002
3.041320e+003;5.309477e-002
3.043249e+003;5.435790e-002
3.045177e+003;5.599163e-002
3.047106e+003;5.765929e-002
3.049034e+003;5.919264e-002
3.050963e+003;6.054660e-002
3.052891e+003;6.157715e-002
3.054820e+003;6.205247e-002
3.056749e+003;6.213959e-002
3.058677e+003;6.184175e-002
3.060606e+003;6.159579e-002
3.062534e+003;6.139698e-002
3.064463e+003;6.129913e-002
3.066391e+003;6.120081e-002
3.068320e+003;6.133271e-002
3.070248e+003;6.154245e-002
3.072177e+003;6.134309e-002
3.074105e+003;6.110339e-002
3.076034e+003;6.113348e-002
3.077963e+003;6.123087e-002
3.079891e+003;6.102128e-002
3.081820e+003;6.059563e-002
3.083748e+003;6.027152e-002
3.085677e+003;5.988691e-002
3.087605e+003;5.932553e-002
3.089534e+003;5.866359e-002
3.091462e+003;5.802618e-002
3.093391e+003;5.747200e-002
3.095320e+003;5.726013e-002
3.097248e+003;5.762853e-002
3.099177e+003;5.832538e-002
3.101105e+003;5.873038e-002
3.103034e+003;5.915422e-002
3.104962e+003;5.960404e-002
3.106891e+003;5.947992e-002
3.108819e+003;5.923912e-002
3.110748e+003;5.841748e-002
3.112677e+003;5.745789e-002
3.114605e+003;5.667321e-002
3.116533e+003;5.567437e-002
3.118462e+003;5.472502e-002
3.120391e+003;5.414793e-002
3.122319e+003;5.354540e-002
3.124248e+003;5.273468e-002
3.126176e+003;5.243452e-002
3.128105e+003;5.255723e-002
3.130033e+003;5.216292e-002
3.131962e+003;5.168375e-002
3.133890e+003;5.134463e-002
3.135819e+003;5.087477e-002
3.137748e+003;5.016968e-002
3.139676e+003;4.932269e-002
3.141605e+003;4.860321e-002
3.143533e+003;4.819259e-002
3.145462e+003;4.757039e-002
3.147390e+003;4.682664e-002
3.149319e+003;4.622287e-002
3.151247e+003;4.582347e-002
3.153176e+003;4.533127e-002
3.155104e+003;4.499258e-002
3.157033e+003;4.499222e-002
3.158962e+003;4.488176e-002
3.160890e+003;4.468028e-002
3.162819e+003;4.455749e-002
3.164747e+003;4.440834e-002
3.166676e+003;4.400375e-002
3.168604e+003;4.385304e-002
3.170533e+003;4.389501e-002
3.172461e+003;4.403162e-002
3.174390e+003;4.382621e-002
3.176319e+003;4.344868e-002
3.178247e+003;4.358291e-002
3.180176e+003;4.379927e-002
3.182104e+003;4.347229e-002
3.184033e+003;4.318219e-002
3.185961e+003;4.303843e-002
3.187890e+003;4.317663e-002
3.189818e+003;4.339404e-002
3.191747e+003;4.327399e-002
3.193676e+003;4.325496e-002
3.195604e+003;4.347545e-002
3.197532e+003;4.320485e-002
3.199461e+003;4.265346e-002
3.201390e+003;4.249569e-002
3.203318e+003;4.240003e-002
3.205247e+003;4.198822e-002
3.207175e+003;4.152841e-002
3.209104e+003;4.170830e-002
3.211032e+003;4.205600e-002
3.212961e+003;4.208568e-002
3.214889e+003;4.215826e-002
3.216818e+003;4.205301e-002
3.218747e+003;4.233983e-002
3.220675e+003;4.255649e-002
3.222604e+003;4.204815e-002
3.224532e+003;4.170531e-002
3.226461e+003;4.181088e-002
3.228389e+003;4.202789e-002
3.230318e+003;4.217911e-002
3.232246e+003;4.212755e-002
3.234175e+003;4.208717e-002
3.236104e+003;4.188688e-002
3.238032e+003;4.154493e-002
3.239961e+003;4.165214e-002
3.241889e+003;4.176703e-002
3.243818e+003;4.161093e-002
3.245746e+003;4.130505e-002
3.247675e+003;4.121972e-002
3.249603e+003;4.123644e-002
3.251532e+003;4.103628e-002
3.253460e+003;4.064602e-002
3.255389e+003;4.036522e-002
3.257318e+003;4.047203e-002
3.259246e+003;4.065225e-002
3.261175e+003;4.076291e-002
3.263103e+003;4.062685e-002
3.265032e+003;4.033788e-002
3.266960e+003;4.026055e-002
3.268889e+003;4.022852e-002
3.270817e+003;4.028643e-002
3.272746e+003;4.025466e-002
3.274675e+003;3.972548e-002
3.276603e+003;3.975968e-002
3.278531e+003;4.046610e-002
3.280460e+003;4.073980e-002
3.282389e+003;4.059894e-002
3.284317e+003;4.024528e-002
3.286246e+003;4.022438e-002
3.288174e+003;4.043733e-002
3.290103e+003;4.051840e-002
3.292031e+003;4.041319e-002
3.293960e+003;4.053739e-002
3.295888e+003;4.078285e-002
3.297817e+003;4.086541e-002
3.299746e+003;4.109918e-002
3.301674e+003;4.106669e-002
3.303603e+003;4.055278e-002
3.305531e+003;4.036257e-002
3.307460e+003;4.040991e-002
3.309388e+003;4.016794e-002
3.311317e+003;3.974701e-002
3.313245e+003;3.988276e-002
3.315174e+003;3.997779e-002
3.317103e+003;3.979389e-002
3.319031e+003;3.982592e-002
3.320960e+003;3.980152e-002
3.322888e+003;3.969531e-002
3.324817e+003;3.998287e-002
3.326745e+003;4.036475e-002
3.328674e+003;4.038108e-002
3.330602e+003;4.032068e-002
3.332531e+003;4.052775e-002
3.334459e+003;4.056886e-002
3.336388e+003;4.052797e-002
3.338317e+003;4.064209e-002
3.340245e+003;4.092824e-002
3.342174e+003;4.109980e-002
3.344102e+003;4.076942e-002
3.346031e+003;4.011505e-002
3.347959e+003;3.929614e-002
3.349888e+003;3.847785e-002
3.351816e+003;3.844664e-002
3.353745e+003;3.837139e-002
3.355674e+003;3.801925e-002
3.357602e+003;3.792045e-002
3.359531e+003;3.798959e-002
3.361459e+003;3.765641e-002
3.363388e+003;3.728123e-002
3.365316e+003;3.683200e-002
3.367245e+003;3.667756e-002
3.369173e+003;3.672360e-002
3.371102e+003;3.690901e-002
3.373031e+003;3.709028e-002
3.374959e+003;3.665514e-002
3.376887e+003;3.662539e-002
3.378816e+003;3.682530e-002
3.380745e+003;3.689188e-002
3.382673e+003;3.712995e-002
3.384602e+003;3.712428e-002
3.386530e+003;3.694624e-002
3.388459e+003;3.689866e-002
3.390387e+003;3.728788e-002
3.392316e+003;3.820583e-002
3.394244e+003;3.871737e-002
3.396173e+003;3.869828e-002
3.398102e+003;3.904227e-002
3.400030e+003;3.968725e-002
3.401959e+003;4.036024e-002
3.403887e+003;4.096804e-002
3.405816e+003;4.183809e-002
3.407744e+003;4.281509e-002
3.409673e+003;4.372246e-002
3.411601e+003;4.481199e-002
3.413530e+003;4.593969e-002
3.415458e+003;4.711306e-002
3.417387e+003;4.829249e-002
3.419316e+003;4.959385e-002
3.421244e+003;5.075704e-002
3.423173e+003;5.152699e-002
3.425101e+003;5.240573e-002
3.427030e+003;5.344279e-002
3.428958e+003;5.378858e-002
3.430887e+003;5.401902e-002
3.432815e+003;5.405515e-002
3.434744e+003;5.343904e-002
3.436673e+003;5.282257e-002
3.438601e+003;5.239523e-002
3.440530e+003;5.147894e-002
3.442458e+003;5.038318e-002
3.444387e+003;4.939567e-002
3.446315e+003;4.870369e-002
3.448244e+003;4.804885e-002
3.450172e+003;4.718563e-002
3.452101e+003;4.595236e-002
3.454030e+003;4.467455e-002
3.455958e+003;4.370689e-002
3.457886e+003;4.318040e-002
3.459815e+003;4.268098e-002
3.461744e+003;4.187965e-002
3.463672e+003;4.116008e-002
3.465601e+003;4.049134e-002
3.467529e+003;3.957947e-002
3.469458e+003;3.898456e-002
3.471386e+003;3.860013e-002
3.473315e+003;3.799954e-002
3.475243e+003;3.789312e-002
3.477172e+003;3.748819e-002
3.479101e+003;3.672353e-002
3.481029e+003;3.646594e-002
3.482958e+003;3.635784e-002
3.484886e+003;3.640014e-002
3.486815e+003;3.652912e-002
3.488743e+003;3.646374e-002
3.490672e+003;3.614847e-002
3.492600e+003;3.565066e-002
3.494529e+003;3.550854e-002
3.496458e+003;3.567771e-002
3.498386e+003;3.602547e-002
3.500315e+003;3.625424e-002
3.502243e+003;3.629339e-002
3.504172e+003;3.641549e-002
3.506100e+003;3.683951e-002
3.508029e+003;3.668726e-002
3.509957e+003;3.639938e-002
3.511886e+003;3.682227e-002
3.513814e+003;3.721069e-002
3.515743e+003;3.750484e-002
3.517672e+003;3.738540e-002
3.519600e+003;3.721553e-002
3.521529e+003;3.742242e-002
3.523457e+003;3.748617e-002
3.525386e+003;3.791076e-002
3.527314e+003;3.844596e-002
3.529243e+003;3.841149e-002
3.531171e+003;3.846797e-002
3.533100e+003;3.854425e-002
3.535029e+003;3.847999e-002
3.536957e+003;3.868929e-002
3.538885e+003;3.887580e-002
3.540814e+003;3.890392e-002
3.542743e+003;3.896078e-002
3.544671e+003;3.921765e-002
3.546600e+003;3.919571e-002
3.548528e+003;3.871356e-002
3.550457e+003;3.853868e-002
3.552385e+003;3.871193e-002
3.554314e+003;3.871320e-002
3.556242e+003;3.837721e-002
3.558171e+003;3.780231e-002
3.560100e+003;3.746136e-002
3.562028e+003;3.748559e-002
3.563957e+003;3.747010e-002
3.565885e+003;3.694318e-002
3.567814e+003;3.633028e-002
3.569742e+003;3.603282e-002
3.571671e+003;3.574988e-002
3.573599e+003;3.578492e-002
3.575528e+003;3.584483e-002
3.577457e+003;3.569447e-002
3.579385e+003;3.521825e-002
3.581314e+003;3.448289e-002
3.583242e+003;3.387396e-002
3.585171e+003;3.381697e-002
3.587099e+003;3.387840e-002
3.589028e+003;3.370405e-002
3.590956e+003;3.310962e-002
3.592885e+003;3.255078e-002
3.594813e+003;3.268358e-002
3.596742e+003;3.283576e-002
3.598671e+003;3.252335e-002
3.600599e+003;3.237932e-002
3.602528e+003;3.235230e-002
3.604456e+003;3.209172e-002
3.606385e+003;3.181850e-002
3.608313e+003;3.175404e-002
3.610242e+003;3.190939e-002
3.612170e+003;3.232203e-002
3.614099e+003;3.252703e-002
3.616028e+003;3.237957e-002
3.617956e+003;3.266886e-002
3.619885e+003;3.266761e-002
3.621813e+003;3.233973e-002
3.623742e+003;3.240763e-002
3.625670e+003;3.282625e-002
3.627599e+003;3.281588e-002
3.629527e+003;3.248432e-002
3.631456e+003;3.235822e-002
3.633385e+003;3.276525e-002
3.635313e+003;3.327890e-002
3.637241e+003;3.339779e-002
3.639170e+003;3.314241e-002
3.641099e+003;3.276779e-002
3.643027e+003;3.231760e-002
3.644956e+003;3.221446e-002
3.646884e+003;3.198043e-002
3.648813e+003;3.167698e-002
3.650741e+003;3.148581e-002
3.652670e+003;3.120802e-002
3.654598e+003;3.076837e-002
3.656527e+003;3.015950e-002
3.658456e+003;2.992352e-002
3.660384e+003;3.027605e-002
3.662313e+003;3.019445e-002
3.664241e+003;2.984171e-002
3.666170e+003;2.957029e-002
3.668098e+003;2.885222e-002
3.670027e+003;2.861344e-002
3.671955e+003;2.907812e-002
3.673884e+003;2.926157e-002
3.675813e+003;2.918300e-002
3.677741e+003;2.925427e-002
3.679669e+003;2.941333e-002
3.681598e+003;2.966489e-002
3.683527e+003;2.994628e-002
3.685455e+003;3.052751e-002
3.687384e+003;3.047998e-002
3.689312e+003;2.998693e-002
3.691241e+003;2.951503e-002
3.693169e+003;2.902558e-002
3.695098e+003;2.852706e-002
3.697026e+003;2.842418e-002
3.698955e+003;2.859614e-002
3.700884e+003;2.806064e-002
3.702812e+003;2.722936e-002
3.704741e+003;2.696109e-002
3.706669e+003;2.703601e-002
3.708598e+003;2.715557e-002
3.710526e+003;2.715621e-002
3.712455e+003;2.696197e-002
3.714383e+003;2.684490e-002
3.716312e+003;2.688332e-002
3.718240e+003;2.699194e-002
3.720169e+003;2.670457e-002
3.722098e+003;2.618048e-002
3.724026e+003;2.617428e-002
3.725955e+003;2.647402e-002
3.727883e+003;2.678220e-002
3.729812e+003;2.712249e-002
3.731740e+003;2.703855e-002
3.733669e+003;2.692862e-002
3.735597e+003;2.687888e-002
3.737526e+003;2.684377e-002
3.739455e+003;2.695351e-002
3.741383e+003;2.689453e-002
3.743312e+003;2.676994e-002
3.745240e+003;2.669869e-002
3.747169e+003;2.677734e-002
3.749097e+003;2.701373e-002
3.751026e+003;2.692231e-002
3.752954e+003;2.715949e-002
3.754883e+003;2.782276e-002
3.756812e+003;2.836302e-002
3.758740e+003;2.856054e-002
3.760668e+003;2.845499e-002
3.762597e+003;2.835814e-002
3.764526e+003;2.820275e-002
3.766454e+003;2.789451e-002
3.768383e+003;2.767441e-002
3.770311e+003;2.773124e-002
3.772240e+003;2.792041e-002
3.774168e+003;2.764486e-002
3.776097e+003;2.731923e-002
3.778025e+003;2.728652e-002
3.779954e+003;2.722489e-002
3.781883e+003;2.700971e-002
3.783811e+003;2.677332e-002
3.785740e+003;2.681209e-002
3.787668e+003;2.708739e-002
3.789597e+003;2.732526e-002
3.791525e+003;2.747366e-002
3.793454e+003;2.777825e-002
3.795382e+003;2.759232e-002
3.797311e+003;2.725904e-002
3.799240e+003;2.736334e-002
3.801168e+003;2.790932e-002
3.803097e+003;2.811861e-002
3.805025e+003;2.835092e-002
3.806954e+003;2.818373e-002
3.808882e+003;2.786395e-002
3.810811e+003;2.812172e-002
3.812739e+003;2.830378e-002
3.814668e+003;2.804721e-002
3.816596e+003;2.770754e-002
3.818525e+003;2.769468e-002
3.820454e+003;2.784431e-002
3.822382e+003;2.797600e-002
3.824311e+003;2.769380e-002
3.826239e+003;2.747289e-002
3.828168e+003;2.777906e-002
3.830096e+003;2.758321e-002
3.832025e+003;2.713529e-002
3.833953e+003;2.723631e-002
3.835882e+003;2.713927e-002
3.837811e+003;2.718347e-002
3.839739e+003;2.776670e-002
3.841667e+003;2.795794e-002
3.843596e+003;2.750088e-002
3.845525e+003;2.748270e-002
3.847453e+003;2.756280e-002
3.849382e+003;2.717702e-002
3.851310e+003;2.695164e-002
3.853239e+003;2.699173e-002
3.855167e+003;2.734238e-002
3.857096e+003;2.768992e-002
3.859024e+003;2.769479e-002
3.860953e+003;2.775614e-002
3.862882e+003;2.799607e-002
3.864810e+003;2.785335e-002
3.866739e+003;2.767625e-002
3.868667e+003;2.761905e-002
3.870596e+003;2.756400e-002
3.872524e+003;2.775787e-002
3.874453e+003;2.795656e-002
3.876381e+003;2.788956e-002
3.878310e+003;2.782569e-002
3.880239e+003;2.764878e-002
3.882167e+003;2.787059e-002
3.884096e+003;2.843352e-002
3.886024e+003;2.852207e-002
3.887953e+003;2.838909e-002
3.889881e+003;2.834887e-002
3.891810e+003;2.884499e-002
3.893738e+003;2.880275e-002
3.895667e+003;2.827517e-002
3.897595e+003;2.833904e-002
3.899524e+003;2.878286e-002
3.901453e+003;2.897674e-002
3.903381e+003;2.889825e-002
3.905310e+003;2.875460e-002
3.907238e+003;2.893926e-002
3.909167e+003;2.968168e-002
3.911095e+003;2.984774e-002
3.913024e+003;2.993506e-002
3.914952e+003;3.000287e-002
3.916881e+003;3.007882e-002
3.918810e+003;3.052452e-002
3.920738e+003;3.038776e-002
3.922667e+003;2.977957e-002
3.924595e+003;3.004143e-002
3.926524e+003;3.063135e-002
3.928452e+003;3.075848e-002
3.930381e+003;3.089739e-002
3.932309e+003;3.099844e-002
3.934238e+003;3.058250e-002
3.936167e+003;3.003976e-002
3.938095e+003;2.976676e-002
3.940023e+003;3.006607e-002
3.941952e+003;3.067786e-002
3.943881e+003;3.054567e-002
3.945809e+003;3.016092e-002
3.947738e+003;3.022760e-002
3.949666e+003;3.022575e-002
3.951595e+003;3.023310e-002
3.953523e+003;3.061070e-002
3.955452e+003;3.053437e-002
3.957380e+003;3.033986e-002
3.959309e+003;3.080984e-002
3.961238e+003;3.109748e-002
3.963166e+003;3.120075e-002
3.965095e+003;3.151000e-002
3.967023e+003;3.155197e-002
3.968952e+003;3.157737e-002
3.970880e+003;3.161019e-002
3.972809e+003;3.112279e-002
3.974737e+003;3.065308e-002
3.976666e+003;3.042596e-002
3.978594e+003;3.062961e-002
3.980523e+003;3.072729e-002
3.982452e+003;3.070251e-002
3.984380e+003;3.104178e-002
3.986309e+003;3.115323e-002
3.988237e+003;3.128795e-002
3.990166e+003;3.126976e-002
3.992094e+003;3.108004e-002
3.994023e+003;3.090892e-002
3.995951e+003;3.065951e-002
3.997880e+003;3.074333e-002
3.999809e+003;3.103897e-002
4.001737e+003;0.000000e+000
