3.992094e+002;0.000000e+000
4.011380e+002;0.000000e+000
4.030665e+002;0.000000e+000
4.049951e+002;0.000000e+000
4.069236e+002;0.000000e+000
4.088522e+002;0.000000e+000
4.107807e+002;0.000000e+000
4.127093e+002;0.000000e+000
4.146378e+002;0.000000e+000
4.165664e+002;0.000000e+000
4.184949e+002;0.000000e+000
4.204235e+002;0.000000e+000
4.223520e+002;0.000000e+000
4.242806e+002;0.000000e+000
4.262091e+002;0.000000e+000
4.281377e+002;0.000000e+000
4.300662e+002;0.000000e+000
4.319948e+002;0.000000e+000
4.339233e+002;0.000000e+000
4.358519e+002;0.000000e+000
4.377804e+002;0.000000e+000
4.397090e+002;0.000000e+000
4.416375e+002;0.000000e+000
4.435660e+002;0.000000e+000
4.454946e+002;0.000000e+000
4.474232e+002;0.000000e+000
4.493517e+002;0.000000e+000
4.512802e+002;0.000000e+000
4.532088e+002;0.000000e+000
4.551373e+002;0.000000e+000
4.570659e+002;0.000000e+000
4.589944e+002;0.000000e+000
4.609230e+002;0.000000e+000
4.628515e+002;0.000000e+000
4.647801e+002;0.000000e+000
4.667086e+002;0.000000e+000
4.686372e+002;0.000000e+000
4.705657e+002;0.000000e+000
4.724943e+002;0.000000e+000
4.744228e+002;0.000000e+000
4.763513e+002;0.000000e+000
4.782799e+002;0.000000e+000
4.802085e+002;0.000000e+000
4.821370e+002;0.000000e+000
4.840656e+002;0.000000e+000
4.859941e+002;0.000000e+000
4.879226e+002;0.000000e+000
4.898512e+002;0.000000e+000
4.917798e+002;0.000000e+000
4.937083e+002;0.000000e+000
4.956368e+002;0.000000e+000
4.975654e+002;0.000000e+000
4.994939e+002;0.000000e+000
5.014225e+002;0.000000e+000
5.033510e+002;0.000000e+000
5.052796e+002;0.000000e+000
5.072081e+002;0.000000e+000
5.091367e+002;0.000000e+000
5.110652e+002;0.000000e+000
5.129938e+002;0.000000e+000
5.149223e+002;0.000000e+000
5.168509e+002;0.000000e+000
5.187794e+002;0.000000e+000
5.207079e+002;0.000000e+000
5.226365e+002;0.000000e+000
5.245651e+002;0.000000e+000
5.264936e+002;0.000000e+000
5.284222e+002;0.000000e+000
5.303507e+002;0.000000e+000
5.322792e+002;0.000000e+000
5.342078e+002;0.000000e+000
5.361364e+002;0.000000e+000
5.380649e+002;0.000000e+000
5.399935e+002;0.000000e+000
5.419220e+002;0.000000e+000
5.438505e+002;0.000000e+000
5.457791e+002;0.000000e+000
5.477076e+002;0.000000e+000
5.496362e+002;0.000000e+000
5.515648e+002;0.000000e+000
5.534933e+002;0.000000e+000
5.554218e+002;0.000000e+000
5.573504e+002;0.000000e+000
5.592789e+002;0.000000e+000
5.612075e+002;0.000000e+000
5.631360e+002;0.000000e+000
5.650646e+002;0.000000e+000
5.669931e+002;0.000000e+000
5.689217e+002;0.000000e+000
5.708502e+002;0.000000e+000
5.727787e+002;0.000000e+000
5.747073e+002;0.000000e+000
5.766359e+002;0.000000e+000
5.785644e+002;0.000000e+000
5.804930e+002;0.000000e+000
5.824215e+002;0.000000e+000
5.843500e+002;0.000000e+000
5.862786e+002;0.000000e+000
5.882072e+002;0.000000e+000
5.901357e+002;0.000000e+000
5.920643e+002;0.000000e+000
5.939928e+002;0.000000e+000
5.959213e+002;0.000000e+000
5.978499e+002;0.000000e+000
5.997784e+002;9.882224e-002
6.017070e+002;9.838939e-002
6.036355e+002;9.788965e-002
6.055641e+002;9.718756e-002
6.074926e+002;9.738761e-002
6.094211e+002;9.586874e-002
6.113497e+002;9.513179e-002
6.132783e+002;9.833837e-002
6.152068e+002;9.735834e-002
6.171354e+002;9.476566e-002
6.190639e+002;9.781945e-002
6.209924e+002;9.896562e-002
6.229210e+002;1.006285e-001
6.248495e+002;1.046373e-001
6.267781e+002;1.046469e-001
6.287067e+002;1.065507e-001
6.306352e+002;1.118998e-001
6.325637e+002;1.125563e-001
6.344923e+002;1.102069e-001
6.364208e+002;1.066950e-001
6.383494e+002;1.049961e-001
6.402780e+002;1.034918e-001
6.422065e+002;1.050871e-001
6.441350e+002;1.058711e-001
6.460636e+002;1.055446e-001
6.479921e+002;1.060343e-001
6.499207e+002;1.089296e-001
6.518492e+002;1.113015e-001
6.537778e+002;1.086193e-001
6.557063e+002;1.077232e-001
6.576349e+002;1.106438e-001
6.595634e+002;1.129943e-001
6.614919e+002;1.130814e-001
6.634205e+002;1.132882e-001
6.653491e+002;1.149212e-001
6.672776e+002;1.160259e-001
6.692062e+002;1.192185e-001
6.711347e+002;1.235690e-001
6.730632e+002;1.264883e-001
6.749918e+002;1.303102e-001
6.769203e+002;1.358275e-001
6.788489e+002;1.411441e-001
6.807775e+002;1.438426e-001
6.827060e+002;1.448673e-001
6.846345e+002;1.456130e-001
6.865631e+002;1.457365e-001
6.884916e+002;1.471677e-001
6.904202e+002;1.508324e-001
6.923488e+002;1.565839e-001
6.942773e+002;1.641335e-001
6.962058e+002;1.745054e-001
6.981344e+002;1.894968e-001
7.000629e+002;2.079577e-001
7.019915e+002;2.252662e-001
7.039200e+002;2.401554e-001
7.058486e+002;2.534789e-001
7.077771e+002;2.689762e-001
7.097057e+002;2.885977e-001
7.116342e+002;3.119819e-001
7.135627e+002;3.396564e-001
7.154913e+002;3.795459e-001
7.174199e+002;4.313898e-001
7.193484e+002;4.856077e-001
7.212770e+002;5.317704e-001
7.232055e+002;5.567042e-001
7.251340e+002;5.430648e-001
7.270626e+002;4.930044e-001
7.289911e+002;4.285940e-001
7.309197e+002;3.671137e-001
7.328483e+002;3.133560e-001
7.347768e+002;2.645320e-001
7.367053e+002;2.190478e-001
7.386339e+002;1.797784e-001
7.405624e+002;1.494572e-001
7.424910e+002;1.268695e-001
7.444196e+002;1.106625e-001
7.463481e+002;1.011513e-001
7.482766e+002;9.568417e-002
7.502052e+002;9.211672e-002
7.521337e+002;8.970156e-002
7.540623e+002;8.955823e-002
7.559908e+002;8.992350e-002
7.579194e+002;8.994506e-002
7.598479e+002;9.017194e-002
7.617765e+002;8.987985e-002
7.637050e+002;9.059112e-002
7.656335e+002;9.281352e-002
7.675621e+002;9.524144e-002
7.694907e+002;9.797201e-002
7.714192e+002;1.013867e-001
7.733478e+002;1.044803e-001
7.752763e+002;1.063251e-001
7.772048e+002;1.083897e-001
7.791334e+002;1.111078e-001
7.810620e+002;1.138701e-001
7.829905e+002;1.163946e-001
7.849191e+002;1.206511e-001
7.868476e+002;1.267634e-001
7.887761e+002;1.333537e-001
7.907047e+002;1.385669e-001
7.926332e+002;1.392111e-001
7.945618e+002;1.324327e-001
7.964903e+002;1.220547e-001
7.984189e+002;1.147152e-001
8.003474e+002;1.115245e-001
8.022759e+002;1.112618e-001
8.042045e+002;1.125774e-001
8.061331e+002;1.140161e-001
8.080616e+002;1.147560e-001
8.099902e+002;1.146241e-001
8.119187e+002;1.148223e-001
8.138472e+002;1.162350e-001
8.157758e+002;1.181573e-001
8.177043e+002;1.196188e-001
8.196329e+002;1.210945e-001
8.215615e+002;1.226454e-001
8.234900e+002;1.245312e-001
8.254185e+002;1.257839e-001
8.273471e+002;1.275734e-001
8.292756e+002;1.305324e-001
8.312042e+002;1.339917e-001
8.331328e+002;1.370311e-001
8.350613e+002;1.407186e-001
8.369898e+002;1.451430e-001
8.389184e+002;1.503326e-001
8.408469e+002;1.560662e-001
8.427755e+002;1.615367e-001
8.447040e+002;1.673972e-001
8.466326e+002;1.728287e-001
8.485611e+002;1.740571e-001
8.504897e+002;1.709231e-001
8.524182e+002;1.673656e-001
8.543467e+002;1.656221e-001
8.562753e+002;1.647017e-001
8.582039e+002;1.640089e-001
8.601324e+002;1.639628e-001
8.620610e+002;1.653500e-001
8.639895e+002;1.703114e-001
8.659180e+002;1.801628e-001
8.678466e+002;1.975348e-001
8.697751e+002;2.235705e-001
8.717037e+002;2.465892e-001
8.736323e+002;2.455188e-001
8.755608e+002;2.251934e-001
8.774893e+002;2.033234e-001
8.794179e+002;1.846999e-001
8.813464e+002;1.683657e-001
8.832750e+002;1.541051e-001
8.852036e+002;1.422505e-001
8.871321e+002;1.332234e-001
8.890606e+002;1.269343e-001
8.909892e+002;1.227879e-001
8.929177e+002;1.207833e-001
8.948463e+002;1.200830e-001
8.967748e+002;1.199135e-001
8.987034e+002;1.198778e-001
9.006319e+002;1.195622e-001
9.025605e+002;1.186155e-001
9.044890e+002;1.171920e-001
9.064175e+002;1.153048e-001
9.083461e+002;1.130387e-001
9.102747e+002;1.105963e-001
9.122032e+002;1.083741e-001
9.141318e+002;1.068101e-001
9.160603e+002;1.058909e-001
9.179888e+002;1.051661e-001
9.199174e+002;1.047571e-001
9.218459e+002;1.051221e-001
9.237745e+002;1.056957e-001
9.257031e+002;1.062634e-001
9.276316e+002;1.072800e-001
9.295601e+002;1.080131e-001
9.314887e+002;1.086269e-001
9.334172e+002;1.097066e-001
9.353458e+002;1.106816e-001
9.372744e+002;1.113519e-001
9.392029e+002;1.122116e-001
9.411314e+002;1.133280e-001
9.430600e+002;1.148104e-001
9.449885e+002;1.164349e-001
9.469171e+002;1.182614e-001
9.488456e+002;1.204864e-001
9.507742e+002;1.227634e-001
9.527027e+002;1.255383e-001
9.546313e+002;1.286122e-001
9.565598e+002;1.317389e-001
9.584883e+002;1.356203e-001
9.604169e+002;1.398524e-001
9.623455e+002;1.434078e-001
9.642740e+002;1.468726e-001
9.662026e+002;1.506332e-001
9.681311e+002;1.535369e-001
9.700596e+002;1.550484e-001
9.719882e+002;1.548489e-001
9.739167e+002;1.527860e-001
9.758453e+002;1.490549e-001
9.777739e+002;1.450188e-001
9.797024e+002;1.414982e-001
9.816309e+002;1.384926e-001
9.835595e+002;1.365920e-001
9.854880e+002;1.356911e-001
9.874166e+002;1.352155e-001
9.893452e+002;1.347019e-001
9.912737e+002;1.341900e-001
9.932022e+002;1.341553e-001
9.951307e+002;1.347810e-001
9.970593e+002;1.360699e-001
9.989879e+002;1.384111e-001
1.000916e+003;1.407516e-001
1.002845e+003;1.439242e-001
1.004773e+003;1.489766e-001
1.006702e+003;1.554604e-001
1.008631e+003;1.644522e-001
1.010559e+003;1.789996e-001
1.012488e+003;2.023019e-001
1.014416e+003;2.353403e-001
1.016345e+003;2.682440e-001
1.018273e+003;2.830411e-001
1.020202e+003;2.732211e-001
1.022130e+003;2.486181e-001
1.024059e+003;2.202567e-001
1.025988e+003;1.934162e-001
1.027916e+003;1.709726e-001
1.029845e+003;1.557695e-001
1.031773e+003;1.485850e-001
1.033702e+003;1.470668e-001
1.035630e+003;1.483556e-001
1.037559e+003;1.507961e-001
1.039487e+003;1.537045e-001
1.041416e+003;1.563932e-001
1.043344e+003;1.583452e-001
1.045273e+003;1.598427e-001
1.047202e+003;1.613894e-001
1.049130e+003;1.628989e-001
1.051059e+003;1.643766e-001
1.052987e+003;1.659261e-001
1.054916e+003;1.678775e-001
1.056844e+003;1.712171e-001
1.058773e+003;1.757533e-001
1.060701e+003;1.814989e-001
1.062630e+003;1.890032e-001
1.064558e+003;1.980077e-001
1.066487e+003;2.074441e-001
1.068416e+003;2.181812e-001
1.070344e+003;2.310459e-001
1.072273e+003;2.455993e-001
1.074201e+003;2.626362e-001
1.076130e+003;2.832680e-001
1.078058e+003;3.073059e-001
1.079987e+003;3.331716e-001
1.081915e+003;3.598288e-001
1.083844e+003;3.853481e-001
1.085773e+003;4.068494e-001
1.087701e+003;4.246308e-001
1.089630e+003;4.394455e-001
1.091558e+003;4.529565e-001
1.093487e+003;4.657315e-001
1.095415e+003;4.755980e-001
1.097344e+003;4.804917e-001
1.099272e+003;4.790879e-001
1.101201e+003;4.704313e-001
1.103129e+003;4.545586e-001
1.105058e+003;4.327130e-001
1.106987e+003;4.082456e-001
1.108915e+003;3.868075e-001
1.110844e+003;3.712569e-001
1.112772e+003;3.626316e-001
1.114701e+003;3.600150e-001
1.116629e+003;3.583960e-001
1.118558e+003;3.547983e-001
1.120486e+003;3.478606e-001
1.122415e+003;3.378352e-001
1.124344e+003;3.254024e-001
1.126272e+003;3.107558e-001
1.128201e+003;2.944664e-001
1.130129e+003;2.772750e-001
1.132058e+003;2.584764e-001
1.133986e+003;2.388601e-001
1.135915e+003;2.207554e-001
1.137843e+003;2.042179e-001
1.139772e+003;1.891811e-001
1.141700e+003;1.765033e-001
1.143629e+003;1.663568e-001
1.145557e+003;1.585293e-001
1.147486e+003;1.526814e-001
1.149415e+003;1.481054e-001
1.151343e+003;1.440935e-001
1.153272e+003;1.405755e-001
1.155200e+003;1.373565e-001
1.157129e+003;1.343604e-001
1.159057e+003;1.322858e-001
1.160986e+003;1.314463e-001
1.162914e+003;1.320532e-001
1.164843e+003;1.340688e-001
1.166771e+003;1.369718e-001
1.168700e+003;1.403051e-001
1.170629e+003;1.438694e-001
1.172557e+003;1.462504e-001
1.174486e+003;1.469819e-001
1.176414e+003;1.460418e-001
1.178343e+003;1.433467e-001
1.180271e+003;1.399044e-001
1.182200e+003;1.366646e-001
1.184128e+003;1.337862e-001
1.186057e+003;1.322133e-001
1.187986e+003;1.330665e-001
1.189914e+003;1.347494e-001
1.191843e+003;1.372306e-001
1.193771e+003;1.408219e-001
1.195700e+003;1.449569e-001
1.197628e+003;1.497491e-001
1.199557e+003;1.548877e-001
1.201485e+003;1.604304e-001
1.203414e+003;1.668091e-001
1.205343e+003;1.736003e-001
1.207271e+003;1.805227e-001
1.209200e+003;1.878440e-001
1.211128e+003;1.960635e-001
1.213057e+003;2.053225e-001
1.214985e+003;2.154325e-001
1.216914e+003;2.265159e-001
1.218842e+003;2.384913e-001
1.220771e+003;2.512724e-001
1.222699e+003;2.636944e-001
1.224628e+003;2.759208e-001
1.226557e+003;2.903073e-001
1.228485e+003;3.084525e-001
1.230414e+003;3.313407e-001
1.232342e+003;3.597901e-001
1.234271e+003;3.937921e-001
1.236199e+003;4.320333e-001
1.238128e+003;4.718769e-001
1.240056e+003;5.094299e-001
1.241985e+003;5.397243e-001
1.243913e+003;5.582243e-001
1.245842e+003;5.655100e-001
1.247771e+003;5.630136e-001
1.249699e+003;5.537064e-001
1.251628e+003;5.406110e-001
1.253556e+003;5.252118e-001
1.255485e+003;5.099655e-001
1.257413e+003;4.958377e-001
1.259342e+003;4.829029e-001
1.261270e+003;4.694729e-001
1.263199e+003;4.526380e-001
1.265127e+003;4.325517e-001
1.267056e+003;4.111629e-001
1.268985e+003;3.890897e-001
1.270913e+003;3.669097e-001
1.272842e+003;3.461589e-001
1.274770e+003;3.276139e-001
1.276699e+003;3.112823e-001
1.278627e+003;2.969645e-001
1.280556e+003;2.837692e-001
1.282484e+003;2.710993e-001
1.284413e+003;2.592676e-001
1.286342e+003;2.476616e-001
1.288270e+003;2.359836e-001
1.290199e+003;2.246275e-001
1.292127e+003;2.132583e-001
1.294056e+003;2.016675e-001
1.295984e+003;1.902598e-001
1.297913e+003;1.790407e-001
1.299841e+003;1.685479e-001
1.301770e+003;1.594705e-001
1.303698e+003;1.519621e-001
1.305627e+003;1.458357e-001
1.307556e+003;1.401021e-001
1.309484e+003;1.346557e-001
1.311413e+003;1.297995e-001
1.313341e+003;1.257373e-001
1.315270e+003;1.223196e-001
1.317198e+003;1.192679e-001
1.319127e+003;1.166724e-001
1.321055e+003;1.148131e-001
1.322984e+003;1.140315e-001
1.324912e+003;1.146491e-001
1.326841e+003;1.175226e-001
1.328770e+003;1.245530e-001
1.330698e+003;1.372642e-001
1.332627e+003;1.553720e-001
1.334555e+003;1.765627e-001
1.336484e+003;1.956339e-001
1.338412e+003;2.066845e-001
1.340341e+003;2.059006e-001
1.342269e+003;1.939188e-001
1.344198e+003;1.746410e-001
1.346126e+003;1.534820e-001
1.348055e+003;1.345492e-001
1.349984e+003;1.200197e-001
1.351912e+003;1.099020e-001
1.353841e+003;1.032853e-001
1.355769e+003;9.927038e-002
1.357698e+003;9.680329e-002
1.359626e+003;9.540523e-002
1.361555e+003;9.527462e-002
1.363483e+003;9.682205e-002
1.365412e+003;9.944694e-002
1.367341e+003;1.014998e-001
1.369269e+003;1.027908e-001
1.371198e+003;1.029930e-001
1.373126e+003;1.018404e-001
1.375055e+003;1.007906e-001
1.376983e+003;1.005643e-001
1.378912e+003;1.005493e-001
1.380840e+003;1.014907e-001
1.382769e+003;1.027096e-001
1.384698e+003;1.036302e-001
1.386626e+003;1.044688e-001
1.388555e+003;1.066276e-001
1.390483e+003;1.092924e-001
1.392412e+003;1.112577e-001
1.394340e+003;1.135400e-001
1.396269e+003;1.179983e-001
1.398197e+003;1.239493e-001
1.400126e+003;1.320962e-001
1.402054e+003;1.427315e-001
1.403983e+003;1.554367e-001
1.405911e+003;1.698124e-001
1.407840e+003;1.814036e-001
1.409769e+003;1.836267e-001
1.411697e+003;1.734336e-001
1.413626e+003;1.536819e-001
1.415554e+003;1.310326e-001
1.417483e+003;1.104689e-001
1.419411e+003;9.622245e-002
1.421340e+003;8.975700e-002
1.423268e+003;8.599183e-002
1.425197e+003;8.410700e-002
1.427125e+003;8.395570e-002
1.429054e+003;8.414790e-002
1.430983e+003;8.564216e-002
1.432911e+003;8.799414e-002
1.434840e+003;8.882511e-002
1.436768e+003;8.978160e-002
1.438697e+003;9.353964e-002
1.440625e+003;9.638764e-002
1.442554e+003;9.807038e-002
1.444482e+003;9.976368e-002
1.446411e+003;1.013053e-001
1.448340e+003;1.028262e-001
1.450268e+003;1.046095e-001
1.452197e+003;1.056480e-001
1.454125e+003;1.046630e-001
1.456054e+003;1.012031e-001
1.457982e+003;1.014722e-001
1.459911e+003;1.046961e-001
1.461839e+003;1.054439e-001
1.463768e+003;1.041931e-001
1.465697e+003;1.046750e-001
1.467625e+003;1.082077e-001
1.469554e+003;1.125423e-001
1.471482e+003;1.138488e-001
1.473411e+003;1.121659e-001
1.475339e+003;1.098635e-001
1.477268e+003;1.072076e-001
1.479196e+003;1.042956e-001
1.481125e+003;1.005811e-001
1.483053e+003;9.703246e-002
1.484982e+003;9.297246e-002
1.486911e+003;8.865261e-002
1.488839e+003;8.524289e-002
1.490768e+003;8.363036e-002
1.492696e+003;8.369536e-002
1.494625e+003;8.298863e-002
1.496553e+003;8.370721e-002
1.498482e+003;8.879458e-002
1.500410e+003;9.666551e-002
1.502339e+003;1.062092e-001
1.504267e+003;1.117085e-001
1.506196e+003;1.100710e-001
1.508125e+003;1.057635e-001
1.510053e+003;9.952839e-002
1.511982e+003;9.344386e-002
1.513910e+003;9.047696e-002
1.515839e+003;8.868297e-002
1.517767e+003;8.811259e-002
1.519696e+003;8.694392e-002
1.521624e+003;8.657221e-002
1.523553e+003;8.916719e-002
1.525481e+003;9.034806e-002
1.527410e+003;9.124991e-002
1.529339e+003;9.228405e-002
1.531267e+003;9.177752e-002
1.533196e+003;8.990014e-002
1.535124e+003;8.939911e-002
1.537053e+003;8.652975e-002
1.538981e+003;8.051535e-002
1.540910e+003;7.906972e-002
1.542838e+003;8.099800e-002
1.544767e+003;8.215272e-002
1.546695e+003;8.317226e-002
1.548624e+003;8.317780e-002
1.550553e+003;8.281551e-002
1.552481e+003;8.190318e-002
1.554410e+003;8.052799e-002
1.556338e+003;7.808118e-002
1.558267e+003;7.394886e-002
1.560195e+003;7.607472e-002
1.562124e+003;8.206150e-002
1.564052e+003;8.427638e-002
1.565981e+003;8.500290e-002
1.567910e+003;8.546136e-002
1.569838e+003;8.688333e-002
1.571767e+003;9.047696e-002
1.573695e+003;9.214064e-002
1.575624e+003;9.217702e-002
1.577552e+003;9.644018e-002
1.579481e+003;1.002331e-001
1.581409e+003;9.971432e-002
1.583338e+003;9.734296e-002
1.585266e+003;9.427463e-002
1.587195e+003;9.187257e-002
1.589124e+003;9.041122e-002
1.591052e+003;9.003808e-002
1.592981e+003;9.018528e-002
1.594909e+003;9.087829e-002
1.596838e+003;9.252503e-002
1.598766e+003;9.473916e-002
1.600695e+003;9.657673e-002
1.602623e+003;9.809223e-002
1.604552e+003;9.917186e-002
1.606480e+003;9.960099e-002
1.608409e+003;9.997435e-002
1.610338e+003;1.010690e-001
1.612266e+003;1.022461e-001
1.614195e+003;1.012759e-001
1.616123e+003;9.814842e-002
1.618052e+003;9.824434e-002
1.619980e+003;9.849376e-002
1.621909e+003;9.606757e-002
1.623837e+003;9.462976e-002
1.625766e+003;9.499075e-002
1.627694e+003;9.529760e-002
1.629623e+003;9.594696e-002
1.631552e+003;9.630433e-002
1.633480e+003;9.449267e-002
1.635409e+003;9.274981e-002
1.637337e+003;9.537812e-002
1.639266e+003;9.846687e-002
1.641194e+003;1.000749e-001
1.643123e+003;1.003899e-001
1.645051e+003;9.917965e-002
1.646980e+003;9.992042e-002
1.648909e+003;1.028513e-001
1.650837e+003;1.014877e-001
1.652766e+003;9.872628e-002
1.654694e+003;1.046485e-001
1.656623e+003;1.112605e-001
1.658551e+003;1.148168e-001
1.660480e+003;1.173589e-001
1.662408e+003;1.199720e-001
1.664337e+003;1.247430e-001
1.666266e+003;1.291838e-001
1.668194e+003;1.320281e-001
1.670123e+003;1.364904e-001
1.672051e+003;1.418471e-001
1.673980e+003;1.456124e-001
1.675908e+003;1.507222e-001
1.677837e+003;1.579941e-001
1.679765e+003;1.638059e-001
1.681694e+003;1.671863e-001
1.683622e+003;1.683752e-001
1.685551e+003;1.749466e-001
1.687479e+003;1.844010e-001
1.689408e+003;1.925698e-001
1.691337e+003;2.023612e-001
1.693265e+003;2.127222e-001
1.695194e+003;2.241423e-001
1.697122e+003;2.428345e-001
1.699051e+003;2.644302e-001
1.700979e+003;2.934685e-001
1.702908e+003;3.321387e-001
1.704836e+003;3.754944e-001
1.706765e+003;4.262085e-001
1.708693e+003;4.802310e-001
1.710622e+003;5.285687e-001
1.712551e+003;5.606648e-001
1.714479e+003;5.681828e-001
1.716408e+003;5.510612e-001
1.718336e+003;5.199735e-001
1.720265e+003;4.848848e-001
1.722193e+003;4.460748e-001
1.724122e+003;4.065216e-001
1.726050e+003;3.683122e-001
1.727979e+003;3.321322e-001
1.729908e+003;2.974110e-001
1.731836e+003;2.634572e-001
1.733765e+003;2.311408e-001
1.735693e+003;2.056281e-001
1.737622e+003;1.819439e-001
1.739550e+003;1.574481e-001
1.741479e+003;1.366354e-001
1.743407e+003;1.185632e-001
1.745336e+003;1.027845e-001
1.747265e+003;8.998211e-002
1.749193e+003;8.052173e-002
1.751122e+003;7.449408e-002
1.753050e+003;7.248836e-002
1.754979e+003;7.098140e-002
1.756907e+003;6.951146e-002
1.758836e+003;6.912868e-002
1.760764e+003;6.820533e-002
1.762693e+003;6.798076e-002
1.764621e+003;6.856967e-002
1.766550e+003;6.781080e-002
1.768479e+003;6.692634e-002
1.770407e+003;6.600039e-002
1.772336e+003;6.515682e-002
1.774264e+003;6.665263e-002
1.776193e+003;6.770504e-002
1.778121e+003;6.753414e-002
1.780050e+003;6.720833e-002
1.781978e+003;6.738870e-002
1.783907e+003;6.758206e-002
1.785835e+003;6.768207e-002
1.787764e+003;6.764498e-002
1.789693e+003;6.675690e-002
1.791621e+003;6.575375e-002
1.793550e+003;6.636134e-002
1.795478e+003;6.752779e-002
1.797407e+003;6.774453e-002
1.799335e+003;6.763355e-002
1.801264e+003;6.773299e-002
1.803192e+003;6.821548e-002
1.805121e+003;6.854639e-002
1.807049e+003;6.887130e-002
1.808978e+003;6.884074e-002
1.810907e+003;6.878899e-002
1.812835e+003;6.918673e-002
1.814764e+003;6.951294e-002
1.816692e+003;6.943035e-002
1.818621e+003;6.949863e-002
1.820549e+003;6.953740e-002
1.822478e+003;6.922330e-002
1.824406e+003;6.846496e-002
1.826335e+003;6.834662e-002
1.828264e+003;6.804090e-002
1.830192e+003;6.780809e-002
1.832121e+003;6.824774e-002
1.834049e+003;6.801823e-002
1.835978e+003;6.753259e-002
1.837906e+003;6.720006e-002
1.839835e+003;6.653903e-002
1.841763e+003;6.512087e-002
1.843692e+003;6.332555e-002
1.845620e+003;6.340297e-002
1.847549e+003;6.368095e-002
1.849478e+003;6.334181e-002
1.851406e+003;6.280665e-002
1.853335e+003;6.202579e-002
1.855263e+003;6.132645e-002
1.857192e+003;6.077193e-002
1.859120e+003;6.016502e-002
1.861049e+003;5.972078e-002
1.862977e+003;5.921227e-002
1.864906e+003;5.847442e-002
1.866834e+003;5.745233e-002
1.868763e+003;5.670643e-002
1.870692e+003;5.695769e-002
1.872620e+003;5.710509e-002
1.874549e+003;5.711098e-002
1.876477e+003;5.721912e-002
1.878406e+003;5.718755e-002
1.880334e+003;5.703393e-002
1.882263e+003;5.685072e-002
1.884191e+003;5.675004e-002
1.886120e+003;5.673641e-002
1.888048e+003;5.627555e-002
1.889977e+003;5.611524e-002
1.891906e+003;5.654611e-002
1.893834e+003;5.666128e-002
1.895763e+003;5.689873e-002
1.897691e+003;5.720010e-002
1.899620e+003;5.748932e-002
1.901548e+003;5.774232e-002
1.903477e+003;5.774244e-002
1.905405e+003;5.773203e-002
1.907334e+003;5.788135e-002
1.909262e+003;5.809034e-002
1.911191e+003;5.841286e-002
1.913120e+003;5.879354e-002
1.915048e+003;5.899963e-002
1.916977e+003;5.883634e-002
1.918905e+003;5.926259e-002
1.920834e+003;6.007080e-002
1.922762e+003;6.062923e-002
1.924691e+003;6.121058e-002
1.926619e+003;6.179965e-002
1.928548e+003;6.248269e-002
1.930477e+003;6.313629e-002
1.932405e+003;6.357615e-002
1.934334e+003;6.425960e-002
1.936262e+003;6.524122e-002
1.938191e+003;6.589795e-002
1.940119e+003;6.632178e-002
1.942048e+003;6.682844e-002
1.943976e+003;6.771827e-002
1.945905e+003;6.854643e-002
1.947833e+003;6.907826e-002
1.949762e+003;6.942935e-002
1.951691e+003;6.979911e-002
1.953619e+003;7.009073e-002
1.955548e+003;7.003108e-002
1.957476e+003;7.007399e-002
1.959405e+003;7.012668e-002
1.961333e+003;6.994790e-002
1.963262e+003;6.936174e-002
1.965190e+003;6.865791e-002
1.967119e+003;6.785035e-002
1.969047e+003;6.714428e-002
1.970976e+003;6.650876e-002
1.972905e+003;6.579905e-002
1.974833e+003;6.508638e-002
1.976762e+003;6.445220e-002
1.978690e+003;6.391590e-002
1.980619e+003;6.355306e-002
1.982547e+003;6.341719e-002
1.984476e+003;6.319481e-002
1.986404e+003;6.262895e-002
1.988333e+003;6.212360e-002
1.990261e+003;6.148450e-002
1.992190e+003;6.072807e-002
1.994119e+003;6.018082e-002
1.996047e+003;5.975511e-002
1.997976e+003;5.932382e-002
1.999904e+003;5.891390e-002
2.001833e+003;5.849004e-002
2.003761e+003;5.808708e-002
2.005690e+003;5.773294e-002
2.007618e+003;5.743263e-002
2.009547e+003;5.710751e-002
2.011476e+003;5.672965e-002
2.013404e+003;5.636647e-002
2.015333e+003;5.610382e-002
2.017261e+003;5.580901e-002
2.019190e+003;5.552923e-002
2.021118e+003;5.524725e-002
2.023047e+003;5.501537e-002
2.024975e+003;5.480155e-002
2.026904e+003;5.452613e-002
2.028833e+003;5.418494e-002
2.030761e+003;5.423160e-002
2.032690e+003;5.445642e-002
2.034618e+003;5.445536e-002
2.036547e+003;5.430594e-002
2.038475e+003;5.439016e-002
2.040404e+003;5.464290e-002
2.042332e+003;5.475644e-002
2.044261e+003;5.479936e-002
2.046189e+003;5.506795e-002
2.048118e+003;5.526584e-002
2.050047e+003;5.558838e-002
2.051975e+003;5.596924e-002
2.053904e+003;5.642710e-002
2.055832e+003;5.690160e-002
2.057761e+003;5.735768e-002
2.059689e+003;5.774296e-002
2.061618e+003;5.833058e-002
2.063546e+003;5.877947e-002
2.065475e+003;5.904048e-002
2.067404e+003;5.947483e-002
2.069332e+003;5.998120e-002
2.071260e+003;6.037599e-002
2.073189e+003;6.070673e-002
2.075118e+003;6.100447e-002
2.077046e+003;6.149144e-002
2.078975e+003;6.175347e-002
2.080903e+003;6.202709e-002
2.082832e+003;6.234849e-002
2.084760e+003;6.245947e-002
2.086689e+003;6.247228e-002
2.088617e+003;6.263745e-002
2.090546e+003;6.274647e-002
2.092475e+003;6.280788e-002
2.094403e+003;6.299350e-002
2.096332e+003;6.302446e-002
2.098260e+003;6.297236e-002
2.100189e+003;6.312181e-002
2.102117e+003;6.323567e-002
2.104046e+003;6.324012e-002
2.105974e+003;6.315270e-002
2.107903e+003;6.310353e-002
2.109832e+003;6.302760e-002
2.111760e+003;6.286034e-002
2.113688e+003;6.273196e-002
2.115617e+003;6.274294e-002
2.117546e+003;6.263634e-002
2.119474e+003;6.238154e-002
2.121403e+003;6.220267e-002
2.123331e+003;6.185364e-002
2.125260e+003;6.132118e-002
2.127188e+003;6.091125e-002
2.129117e+003;6.066531e-002
2.131045e+003;6.070829e-002
2.132974e+003;6.051632e-002
2.134903e+003;6.003824e-002
2.136831e+003;5.953145e-002
2.138760e+003;5.920494e-002
2.140688e+003;5.896449e-002
2.142617e+003;5.882356e-002
2.144545e+003;5.860439e-002
2.146474e+003;5.829954e-002
2.148402e+003;5.807818e-002
2.150331e+003;5.767723e-002
2.152260e+003;5.729756e-002
2.154188e+003;5.711639e-002
2.156117e+003;5.664678e-002
2.158045e+003;5.600603e-002
2.159974e+003;5.564133e-002
2.161902e+003;5.532978e-002
2.163831e+003;5.494633e-002
2.165759e+003;5.463667e-002
2.167688e+003;5.429869e-002
2.169616e+003;5.389011e-002
2.171545e+003;5.368231e-002
2.173474e+003;5.381311e-002
2.175402e+003;5.386194e-002
2.177331e+003;5.336995e-002
2.179259e+003;5.299387e-002
2.181188e+003;5.301304e-002
2.183116e+003;5.275975e-002
2.185045e+003;5.273034e-002
2.186973e+003;5.295966e-002
2.188902e+003;5.313341e-002
2.190831e+003;5.310791e-002
2.192759e+003;5.314614e-002
2.194688e+003;5.323977e-002
2.196616e+003;5.321797e-002
2.198545e+003;5.329918e-002
2.200473e+003;5.357543e-002
2.202402e+003;5.362015e-002
2.204330e+003;5.365696e-002
2.206259e+003;5.417364e-002
2.208188e+003;5.460078e-002
2.210116e+003;5.477689e-002
2.212044e+003;5.489737e-002
2.213973e+003;5.478068e-002
2.215902e+003;5.475821e-002
2.217830e+003;5.480884e-002
2.219759e+003;5.505742e-002
2.221687e+003;5.537638e-002
2.223616e+003;5.536294e-002
2.225544e+003;5.534744e-002
2.227473e+003;5.552463e-002
2.229401e+003;5.581982e-002
2.231330e+003;5.599397e-002
2.233259e+003;5.602247e-002
2.235187e+003;5.615031e-002
2.237116e+003;5.620096e-002
2.239044e+003;5.646253e-002
2.240973e+003;5.670081e-002
2.242901e+003;5.700949e-002
2.244830e+003;5.732864e-002
2.246758e+003;5.772851e-002
2.248687e+003;5.822618e-002
2.250615e+003;5.832993e-002
2.252544e+003;5.825919e-002
2.254473e+003;5.798782e-002
2.256401e+003;5.787173e-002
2.258330e+003;5.814155e-002
2.260258e+003;5.825339e-002
2.262187e+003;5.812272e-002
2.264115e+003;5.809488e-002
2.266044e+003;5.811939e-002
2.267972e+003;5.803671e-002
2.269901e+003;5.793269e-002
2.271830e+003;5.777108e-002
2.273758e+003;5.777695e-002
2.275687e+003;5.799066e-002
2.277615e+003;5.834733e-002
2.279544e+003;5.868381e-002
2.281472e+003;5.873839e-002
2.283401e+003;5.854494e-002
2.285329e+003;5.834949e-002
2.287258e+003;5.815341e-002
2.289187e+003;5.789153e-002
2.291115e+003;5.752847e-002
2.293043e+003;5.706609e-002
2.294972e+003;5.678323e-002
2.296901e+003;5.626250e-002
2.298829e+003;5.546469e-002
2.300758e+003;5.485309e-002
2.302686e+003;5.452831e-002
2.304615e+003;5.391236e-002
2.306543e+003;5.330555e-002
2.308472e+003;5.304205e-002
2.310400e+003;5.296932e-002
2.312329e+003;5.300054e-002
2.314258e+003;5.261139e-002
2.316186e+003;5.229505e-002
2.318115e+003;5.232428e-002
2.320043e+003;5.230772e-002
2.321972e+003;5.229319e-002
2.323900e+003;5.217065e-002
2.325829e+003;5.213064e-002
2.327757e+003;5.232768e-002
2.329686e+003;5.231628e-002
2.331615e+003;5.214857e-002
2.333543e+003;5.199034e-002
2.335472e+003;5.191165e-002
2.337400e+003;5.212369e-002
2.339329e+003;5.228010e-002
2.341257e+003;5.219976e-002
2.343186e+003;5.262654e-002
2.345114e+003;5.363530e-002
2.347043e+003;5.460428e-002
2.348971e+003;5.493904e-002
2.350900e+003;5.456937e-002
2.352829e+003;5.411186e-002
2.354757e+003;5.373889e-002
2.356686e+003;5.357172e-002
2.358614e+003;5.367181e-002
2.360543e+003;5.379593e-002
2.362471e+003;5.407219e-002
2.364400e+003;5.466312e-002
2.366328e+003;5.538538e-002
2.368257e+003;5.594987e-002
2.370186e+003;5.658065e-002
2.372114e+003;5.702309e-002
2.374042e+003;5.743599e-002
2.375971e+003;5.821088e-002
2.377900e+003;5.883987e-002
2.379828e+003;5.921201e-002
2.381757e+003;5.928884e-002
2.383685e+003;5.932496e-002
2.385614e+003;5.953004e-002
2.387542e+003;5.936537e-002
2.389471e+003;5.911776e-002
2.391399e+003;5.922712e-002
2.393328e+003;5.938114e-002
2.395257e+003;5.912828e-002
2.397185e+003;5.867561e-002
2.399114e+003;5.846809e-002
2.401042e+003;5.864432e-002
2.402971e+003;5.856067e-002
2.404899e+003;5.819633e-002
2.406828e+003;5.803247e-002
2.408756e+003;5.784024e-002
2.410685e+003;5.767069e-002
2.412614e+003;5.764416e-002
2.414542e+003;5.734115e-002
2.416471e+003;5.666506e-002
2.418399e+003;5.625187e-002
2.420328e+003;5.626903e-002
2.422256e+003;5.643430e-002
2.424185e+003;5.615747e-002
2.426113e+003;5.560710e-002
2.428042e+003;5.502786e-002
2.429970e+003;5.459432e-002
2.431899e+003;5.462322e-002
2.433828e+003;5.460033e-002
2.435756e+003;5.432238e-002
2.437685e+003;5.379312e-002
2.439613e+003;5.340907e-002
2.441542e+003;5.335178e-002
2.443470e+003;5.345006e-002
2.445399e+003;5.322876e-002
2.447327e+003;5.298990e-002
2.449256e+003;5.285161e-002
2.451185e+003;5.275773e-002
2.453113e+003;5.256812e-002
2.455042e+003;5.256707e-002
2.456970e+003;5.254179e-002
2.458899e+003;5.231082e-002
2.460827e+003;5.235542e-002
2.462756e+003;5.252534e-002
2.464684e+003;5.267969e-002
2.466613e+003;5.274093e-002
2.468542e+003;5.271224e-002
2.470470e+003;5.268148e-002
2.472398e+003;5.280641e-002
2.474327e+003;5.287268e-002
2.476256e+003;5.301356e-002
2.478184e+003;5.329738e-002
2.480113e+003;5.346097e-002
2.482041e+003;5.363454e-002
2.483970e+003;5.389555e-002
2.485898e+003;5.398322e-002
2.487827e+003;5.422608e-002
2.489755e+003;5.462130e-002
2.491684e+003;5.470487e-002
2.493613e+003;5.454732e-002
2.495541e+003;5.457538e-002
2.497470e+003;5.500375e-002
2.499398e+003;5.541364e-002
2.501327e+003;5.546571e-002
2.503255e+003;5.552350e-002
2.505184e+003;5.581903e-002
2.507112e+003;5.612230e-002
2.509041e+003;5.614119e-002
2.510969e+003;5.597459e-002
2.512898e+003;5.571467e-002
2.514827e+003;5.586914e-002
2.516755e+003;5.634730e-002
2.518684e+003;5.682402e-002
2.520612e+003;5.715244e-002
2.522541e+003;5.726127e-002
2.524469e+003;5.729461e-002
2.526398e+003;5.741258e-002
2.528326e+003;5.753467e-002
2.530255e+003;5.749204e-002
2.532184e+003;5.751746e-002
2.534112e+003;5.749635e-002
2.536041e+003;5.754553e-002
2.537969e+003;5.759032e-002
2.539898e+003;5.750873e-002
2.541826e+003;5.751587e-002
2.543755e+003;5.753502e-002
2.545683e+003;5.767859e-002
2.547612e+003;5.771988e-002
2.549541e+003;5.763951e-002
2.551469e+003;5.751512e-002
2.553397e+003;5.757371e-002
2.555326e+003;5.777653e-002
2.557255e+003;5.785508e-002
2.559183e+003;5.777881e-002
2.561112e+003;5.777669e-002
2.563040e+003;5.788150e-002
2.564969e+003;5.788271e-002
2.566897e+003;5.749273e-002
2.568826e+003;5.709825e-002
2.570754e+003;5.713226e-002
2.572683e+003;5.726920e-002
2.574612e+003;5.749749e-002
2.576540e+003;5.768904e-002
2.578469e+003;5.787726e-002
2.580397e+003;5.787018e-002
2.582326e+003;5.764594e-002
2.584254e+003;5.738033e-002
2.586183e+003;5.714961e-002
2.588111e+003;5.700129e-002
2.590040e+003;5.692173e-002
2.591969e+003;5.655302e-002
2.593897e+003;5.609500e-002
2.595826e+003;5.598937e-002
2.597754e+003;5.581594e-002
2.599683e+003;5.544448e-002
2.601611e+003;5.531228e-002
2.603540e+003;5.531582e-002
2.605468e+003;5.530318e-002
2.607397e+003;5.503768e-002
2.609325e+003;5.449480e-002
2.611254e+003;5.419016e-002
2.613183e+003;5.426741e-002
2.615111e+003;5.439550e-002
2.617040e+003;5.424969e-002
2.618968e+003;5.416767e-002
2.620897e+003;5.422514e-002
2.622825e+003;5.412222e-002
2.624754e+003;5.420588e-002
2.626682e+003;5.442115e-002
2.628611e+003;5.423280e-002
2.630540e+003;5.389161e-002
2.632468e+003;5.389337e-002
2.634396e+003;5.386427e-002
2.636325e+003;5.356655e-002
2.638254e+003;5.312046e-002
2.640182e+003;5.267550e-002
2.642111e+003;5.232708e-002
2.644039e+003;5.208148e-002
2.645968e+003;5.188170e-002
2.647896e+003;5.165680e-002
2.649825e+003;5.148800e-002
2.651753e+003;5.154642e-002
2.653682e+003;5.164811e-002
2.655611e+003;5.147121e-002
2.657539e+003;5.097578e-002
2.659468e+003;5.080706e-002
2.661396e+003;5.095912e-002
2.663325e+003;5.078433e-002
2.665253e+003;5.058691e-002
2.667182e+003;5.069663e-002
2.669110e+003;5.070270e-002
2.671039e+003;5.079689e-002
2.672968e+003;5.113047e-002
2.674896e+003;5.121670e-002
2.676825e+003;5.113208e-002
2.678753e+003;5.122934e-002
2.680682e+003;5.142552e-002
2.682610e+003;5.121271e-002
2.684539e+003;5.113479e-002
2.686467e+003;5.134794e-002
2.688396e+003;5.145574e-002
2.690324e+003;5.160777e-002
2.692253e+003;5.161269e-002
2.694182e+003;5.163034e-002
2.696110e+003;5.170733e-002
2.698039e+003;5.173958e-002
2.699967e+003;5.175560e-002
2.701896e+003;5.181842e-002
2.703824e+003;5.203355e-002
2.705753e+003;5.226695e-002
2.707681e+003;5.233149e-002
2.709610e+003;5.231359e-002
2.711539e+003;5.238491e-002
2.713467e+003;5.236637e-002
2.715396e+003;5.251857e-002
2.717324e+003;5.280985e-002
2.719253e+003;5.276427e-002
2.721181e+003;5.269312e-002
2.723110e+003;5.295281e-002
2.725038e+003;5.336193e-002
2.726967e+003;5.364155e-002
2.728896e+003;5.368790e-002
2.730824e+003;5.383396e-002
2.732752e+003;5.398416e-002
2.734681e+003;5.418952e-002
2.736610e+003;5.436357e-002
2.738538e+003;5.464693e-002
2.740467e+003;5.493332e-002
2.742395e+003;5.479982e-002
2.744324e+003;5.455904e-002
2.746252e+003;5.427019e-002
2.748181e+003;5.421050e-002
2.750109e+003;5.436215e-002
2.752038e+003;5.463592e-002
2.753967e+003;5.466887e-002
2.755895e+003;5.467150e-002
2.757824e+003;5.475535e-002
2.759752e+003;5.484883e-002
2.761681e+003;5.489760e-002
2.763609e+003;5.489643e-002
2.765538e+003;5.492636e-002
2.767466e+003;5.504851e-002
2.769395e+003;5.520045e-002
2.771323e+003;5.532293e-002
2.773252e+003;5.538579e-002
2.775181e+003;5.556413e-002
2.777109e+003;5.572695e-002
2.779038e+003;5.576116e-002
2.780966e+003;5.587171e-002
2.782895e+003;5.606280e-002
2.784823e+003;5.636647e-002
2.786752e+003;5.677689e-002
2.788680e+003;5.724667e-002
2.790609e+003;5.766489e-002
2.792538e+003;5.802046e-002
2.794466e+003;5.830560e-002
2.796395e+003;5.864399e-002
2.798323e+003;5.898620e-002
2.800252e+003;5.920396e-002
2.802180e+003;5.940439e-002
2.804109e+003;5.951355e-002
2.806037e+003;5.926472e-002
2.807966e+003;5.910759e-002
2.809895e+003;5.909613e-002
2.811823e+003;5.909734e-002
2.813751e+003;5.872367e-002
2.815680e+003;5.814231e-002
2.817609e+003;5.754666e-002
2.819537e+003;5.726705e-002
2.821466e+003;5.704742e-002
2.823394e+003;5.689499e-002
2.825323e+003;5.692105e-002
2.827251e+003;5.688860e-002
2.829180e+003;5.664255e-002
2.831108e+003;5.662093e-002
2.833037e+003;5.647158e-002
2.834966e+003;5.619111e-002
2.836894e+003;5.608791e-002
2.838823e+003;5.552177e-002
2.840751e+003;5.451858e-002
2.842680e+003;5.270973e-002
2.844608e+003;5.008679e-002
2.846537e+003;4.675184e-002
2.848465e+003;4.325891e-002
2.850394e+003;4.109998e-002
2.852323e+003;4.061139e-002
2.854251e+003;4.169722e-002
2.856180e+003;4.398736e-002
2.858108e+003;4.683949e-002
2.860037e+003;4.988117e-002
2.861965e+003;5.263237e-002
2.863894e+003;5.471765e-002
2.865822e+003;5.611837e-002
2.867751e+003;5.699279e-002
2.869679e+003;5.750029e-002
2.871608e+003;5.799244e-002
2.873536e+003;5.892802e-002
2.875465e+003;5.975834e-002
2.877394e+003;6.046372e-002
2.879322e+003;6.112818e-002
2.881251e+003;6.136556e-002
2.883179e+003;6.139774e-002
2.885108e+003;6.143235e-002
2.887036e+003;6.140964e-002
2.888965e+003;6.110148e-002
2.890893e+003;6.044899e-002
2.892822e+003;5.988957e-002
2.894750e+003;5.948114e-002
2.896679e+003;5.916663e-002
2.898608e+003;5.899326e-002
2.900536e+003;5.896654e-002
2.902465e+003;5.876771e-002
2.904393e+003;5.816530e-002
2.906322e+003;5.721416e-002
2.908250e+003;5.590698e-002
2.910179e+003;5.320599e-002
2.912107e+003;4.922887e-002
2.914036e+003;4.523705e-002
2.915965e+003;4.103559e-002
2.917893e+003;3.753479e-002
2.919822e+003;3.491587e-002
2.921750e+003;3.298720e-002
2.923679e+003;3.236936e-002
2.925607e+003;3.319741e-002
2.927536e+003;3.467230e-002
2.929464e+003;3.659454e-002
2.931393e+003;3.924470e-002
2.933322e+003;4.234239e-002
2.935250e+003;4.542642e-002
2.937178e+003;4.855238e-002
2.939107e+003;5.171297e-002
2.941036e+003;5.462209e-002
2.942964e+003;5.705906e-002
2.944893e+003;5.900859e-002
2.946821e+003;6.062100e-002
2.948750e+003;6.164615e-002
2.950678e+003;6.219059e-002
2.952607e+003;6.294785e-002
2.954535e+003;6.409824e-002
2.956464e+003;6.506917e-002
2.958393e+003;6.648450e-002
2.960321e+003;6.836345e-002
2.962250e+003;7.034386e-002
2.964178e+003;7.218542e-002
2.966107e+003;7.393385e-002
2.968035e+003;7.582328e-002
2.969964e+003;7.712032e-002
2.971892e+003;7.795265e-002
2.973821e+003;7.834650e-002
2.975750e+003;7.836515e-002
2.977678e+003;7.838230e-002
2.979607e+003;7.830761e-002
2.981535e+003;7.784918e-002
2.983464e+003;7.736839e-002
2.985392e+003;7.690379e-002
2.987321e+003;7.673817e-002
2.989249e+003;7.647943e-002
2.991178e+003;7.574987e-002
2.993106e+003;7.520822e-002
2.995035e+003;7.469387e-002
2.996964e+003;7.415205e-002
2.998892e+003;7.394136e-002
3.000821e+003;7.372582e-002
3.002749e+003;7.318458e-002
3.004678e+003;7.284907e-002
3.006606e+003;7.256605e-002
3.008535e+003;7.227487e-002
3.010463e+003;7.208782e-002
3.012392e+003;7.185666e-002
3.014321e+003;7.164536e-002
3.016249e+003;7.123993e-002
3.018177e+003;7.053784e-002
3.020106e+003;6.961382e-002
3.022035e+003;6.903289e-002
3.023963e+003;6.842508e-002
3.025892e+003;6.752226e-002
3.027820e+003;6.669300e-002
3.029749e+003;6.575772e-002
3.031677e+003;6.492706e-002
3.033606e+003;6.444032e-002
3.035534e+003;6.446965e-002
3.037463e+003;6.443990e-002
3.039392e+003;6.444924e-002
3.041320e+003;6.475079e-002
3.043249e+003;6.520464e-002
3.045177e+003;6.586136e-002
3.047106e+003;6.705867e-002
3.049034e+003;6.859198e-002
3.050963e+003;6.982736e-002
3.052891e+003;7.025099e-002
3.054820e+003;7.045332e-002
3.056749e+003;7.046945e-002
3.058677e+003;7.019841e-002
3.060606e+003;7.008248e-002
3.062534e+003;7.015557e-002
3.064463e+003;7.029820e-002
3.066391e+003;7.050928e-002
3.068320e+003;7.053543e-002
3.070248e+003;7.041212e-002
3.072177e+003;7.039038e-002
3.074105e+003;7.079689e-002
3.076034e+003;7.096536e-002
3.077963e+003;7.099779e-002
3.079891e+003;7.082216e-002
3.081820e+003;7.061678e-002
3.083748e+003;7.059667e-002
3.085677e+003;7.022469e-002
3.087605e+003;6.989609e-002
3.089534e+003;6.963206e-002
3.091462e+003;6.930845e-002
3.093391e+003;6.904555e-002
3.095320e+003;6.890104e-002
3.097248e+003;6.884466e-002
3.099177e+003;6.885212e-002
3.101105e+003;6.903977e-002
3.103034e+003;6.958655e-002
3.104962e+003;6.982970e-002
3.106891e+003;6.959487e-002
3.108819e+003;6.917694e-002
3.110748e+003;6.891452e-002
3.112677e+003;6.825499e-002
3.114605e+003;6.713121e-002
3.116533e+003;6.618731e-002
3.118462e+003;6.545728e-002
3.120391e+003;6.509484e-002
3.122319e+003;6.490631e-002
3.124248e+003;6.462365e-002
3.126176e+003;6.466891e-002
3.128105e+003;6.474818e-002
3.130033e+003;6.454764e-002
3.131962e+003;6.402463e-002
3.133890e+003;6.334910e-002
3.135819e+003;6.297865e-002
3.137748e+003;6.256840e-002
3.139676e+003;6.168900e-002
3.141605e+003;6.089790e-002
3.143533e+003;6.054039e-002
3.145462e+003;6.026996e-002
3.147390e+003;5.996789e-002
3.149319e+003;5.957755e-002
3.151247e+003;5.917688e-002
3.153176e+003;5.908451e-002
3.155104e+003;5.911864e-002
3.157033e+003;5.899234e-002
3.158962e+003;5.858517e-002
3.160890e+003;5.805849e-002
3.162819e+003;5.791641e-002
3.164747e+003;5.779311e-002
3.166676e+003;5.755851e-002
3.168604e+003;5.757674e-002
3.170533e+003;5.765400e-002
3.172461e+003;5.738082e-002
3.174390e+003;5.691833e-002
3.176319e+003;5.674377e-002
3.178247e+003;5.686247e-002
3.180176e+003;5.686186e-002
3.182104e+003;5.664947e-002
3.184033e+003;5.662470e-002
3.185961e+003;5.663606e-002
3.187890e+003;5.669178e-002
3.189818e+003;5.647139e-002
3.191747e+003;5.595677e-002
3.193676e+003;5.608682e-002
3.195604e+003;5.621374e-002
3.197532e+003;5.599182e-002
3.199461e+003;5.577837e-002
3.201390e+003;5.584081e-002
3.203318e+003;5.568126e-002
3.205247e+003;5.540808e-002
3.207175e+003;5.547023e-002
3.209104e+003;5.560540e-002
3.211032e+003;5.542148e-002
3.212961e+003;5.518021e-002
3.214889e+003;5.534559e-002
3.216818e+003;5.540928e-002
3.218747e+003;5.541056e-002
3.220675e+003;5.533456e-002
3.222604e+003;5.510722e-002
3.224532e+003;5.516997e-002
3.226461e+003;5.528428e-002
3.228389e+003;5.533057e-002
3.230318e+003;5.546322e-002
3.232246e+003;5.555724e-002
3.234175e+003;5.548732e-002
3.236104e+003;5.505231e-002
3.238032e+003;5.485880e-002
3.239961e+003;5.510301e-002
3.241889e+003;5.512517e-002
3.243818e+003;5.481662e-002
3.245746e+003;5.467455e-002
3.247675e+003;5.438874e-002
3.249603e+003;5.405343e-002
3.251532e+003;5.395100e-002
3.253460e+003;5.378937e-002
3.255389e+003;5.371924e-002
3.257318e+003;5.362307e-002
3.259246e+003;5.355346e-002
3.261175e+003;5.362869e-002
3.263103e+003;5.329731e-002
3.265032e+003;5.287971e-002
3.266960e+003;5.263907e-002
3.268889e+003;5.252765e-002
3.270817e+003;5.263847e-002
3.272746e+003;5.291647e-002
3.274675e+003;5.312353e-002
3.276603e+003;5.280203e-002
3.278531e+003;5.273599e-002
3.280460e+003;5.279724e-002
3.282389e+003;5.283997e-002
3.284317e+003;5.295554e-002
3.286246e+003;5.296550e-002
3.288174e+003;5.303445e-002
3.290103e+003;5.322127e-002
3.292031e+003;5.346363e-002
3.293960e+003;5.353738e-002
3.295888e+003;5.298268e-002
3.297817e+003;5.264411e-002
3.299746e+003;5.290430e-002
3.301674e+003;5.324876e-002
3.303603e+003;5.327337e-002
3.305531e+003;5.290453e-002
3.307460e+003;5.284300e-002
3.309388e+003;5.311289e-002
3.311317e+003;5.286811e-002
3.313245e+003;5.266682e-002
3.315174e+003;5.276458e-002
3.317103e+003;5.289016e-002
3.319031e+003;5.287242e-002
3.320960e+003;5.257350e-002
3.322888e+003;5.297766e-002
3.324817e+003;5.343552e-002
3.326745e+003;5.332514e-002
3.328674e+003;5.320393e-002
3.330602e+003;5.317108e-002
3.332531e+003;5.332282e-002
3.334459e+003;5.375336e-002
3.336388e+003;5.368411e-002
3.338317e+003;5.315389e-002
3.340245e+003;5.312413e-002
3.342174e+003;5.358146e-002
3.344102e+003;5.338228e-002
3.346031e+003;5.251064e-002
3.347959e+003;5.243616e-002
3.349888e+003;5.228567e-002
3.351816e+003;5.211465e-002
3.353745e+003;5.198978e-002
3.355674e+003;5.152736e-002
3.357602e+003;5.116428e-002
3.359531e+003;5.105325e-002
3.361459e+003;5.093010e-002
3.363388e+003;5.072501e-002
3.365316e+003;5.071343e-002
3.367245e+003;5.091616e-002
3.369173e+003;5.114128e-002
3.371102e+003;5.112223e-002
3.373031e+003;5.078247e-002
3.374959e+003;5.081905e-002
3.376887e+003;5.098140e-002
3.378816e+003;5.113882e-002
3.380745e+003;5.128038e-002
3.382673e+003;5.146036e-002
3.384602e+003;5.150691e-002
3.386530e+003;5.154333e-002
3.388459e+003;5.139028e-002
3.390387e+003;5.110192e-002
3.392316e+003;5.146484e-002
3.394244e+003;5.191938e-002
3.396173e+003;5.201181e-002
3.398102e+003;5.230970e-002
3.400030e+003;5.251696e-002
3.401959e+003;5.300057e-002
3.403887e+003;5.360763e-002
3.405816e+003;5.430845e-002
3.407744e+003;5.507578e-002
3.409673e+003;5.593739e-002
3.411601e+003;5.673377e-002
3.413530e+003;5.740060e-002
3.415458e+003;5.811962e-002
3.417387e+003;5.922974e-002
3.419316e+003;6.005840e-002
3.421244e+003;6.078714e-002
3.423173e+003;6.165925e-002
3.425101e+003;6.205136e-002
3.427030e+003;6.225074e-002
3.428958e+003;6.267159e-002
3.430887e+003;6.322996e-002
3.432815e+003;6.324724e-002
3.434744e+003;6.301568e-002
3.436673e+003;6.267408e-002
3.438601e+003;6.214219e-002
3.440530e+003;6.122481e-002
3.442458e+003;6.041151e-002
3.444387e+003;5.988505e-002
3.446315e+003;5.905270e-002
3.448244e+003;5.856416e-002
3.450172e+003;5.793102e-002
3.452101e+003;5.714061e-002
3.454030e+003;5.642966e-002
3.455958e+003;5.563034e-002
3.457886e+003;5.482868e-002
3.459815e+003;5.407711e-002
3.461744e+003;5.341236e-002
3.463672e+003;5.280191e-002
3.465601e+003;5.226149e-002
3.467529e+003;5.204756e-002
3.469458e+003;5.198578e-002
3.471386e+003;5.142298e-002
3.473315e+003;5.084684e-002
3.475243e+003;5.055114e-002
3.477172e+003;5.023734e-002
3.479101e+003;4.997741e-002
3.481029e+003;4.970173e-002
3.482958e+003;4.990013e-002
3.484886e+003;5.035948e-002
3.486815e+003;5.054507e-002
3.488743e+003;4.973353e-002
3.490672e+003;4.899609e-002
3.492600e+003;4.913955e-002
3.494529e+003;4.948077e-002
3.496458e+003;4.983026e-002
3.498386e+003;5.006270e-002
3.500315e+003;4.985865e-002
3.502243e+003;4.960340e-002
3.504172e+003;4.973937e-002
3.506100e+003;4.995670e-002
3.508029e+003;5.015228e-002
3.509957e+003;5.035765e-002
3.511886e+003;5.034467e-002
3.513814e+003;5.041894e-002
3.515743e+003;5.055650e-002
3.517672e+003;5.052382e-002
3.519600e+003;5.055374e-002
3.521529e+003;5.069961e-002
3.523457e+003;5.086125e-002
3.525386e+003;5.095875e-002
3.527314e+003;5.120443e-002
3.529243e+003;5.177123e-002
3.531171e+003;5.187215e-002
3.533100e+003;5.172230e-002
3.535029e+003;5.172409e-002
3.536957e+003;5.169908e-002
3.538885e+003;5.167266e-002
3.540814e+003;5.183171e-002
3.542743e+003;5.169002e-002
3.544671e+003;5.140780e-002
3.546600e+003;5.161709e-002
3.548528e+003;5.194171e-002
3.550457e+003;5.174600e-002
3.552385e+003;5.161680e-002
3.554314e+003;5.165829e-002
3.556242e+003;5.134299e-002
3.558171e+003;5.110889e-002
3.560100e+003;5.119079e-002
3.562028e+003;5.139423e-002
3.563957e+003;5.074102e-002
3.565885e+003;4.953718e-002
3.567814e+003;4.944921e-002
3.569742e+003;5.000064e-002
3.571671e+003;5.001496e-002
3.573599e+003;4.985189e-002
3.575528e+003;4.958539e-002
3.577457e+003;4.900488e-002
3.579385e+003;4.843101e-002
3.581314e+003;4.818304e-002
3.583242e+003;4.806565e-002
3.585171e+003;4.708429e-002
3.587099e+003;4.587366e-002
3.589028e+003;4.595663e-002
3.590956e+003;4.679767e-002
3.592885e+003;4.676730e-002
3.594813e+003;4.654986e-002
3.596742e+003;4.673472e-002
3.598671e+003;4.650612e-002
3.600599e+003;4.644081e-002
3.602528e+003;4.713636e-002
3.604456e+003;4.719963e-002
3.606385e+003;4.610834e-002
3.608313e+003;4.521267e-002
3.610242e+003;4.563068e-002
3.612170e+003;4.565626e-002
3.614099e+003;4.600382e-002
3.616028e+003;4.590883e-002
3.617956e+003;4.502717e-002
3.619885e+003;4.577844e-002
3.621813e+003;4.731892e-002
3.623742e+003;4.775102e-002
3.625670e+003;4.660828e-002
3.627599e+003;4.388658e-002
3.629527e+003;4.403500e-002
3.631456e+003;4.665908e-002
3.633385e+003;4.752273e-002
3.635313e+003;4.775701e-002
3.637241e+003;4.775805e-002
3.639170e+003;4.771456e-002
3.641099e+003;4.757538e-002
3.643027e+003;4.733204e-002
3.644956e+003;4.613594e-002
3.646884e+003;4.386598e-002
3.648813e+003;4.251904e-002
3.650741e+003;4.378487e-002
3.652670e+003;4.530556e-002
3.654598e+003;4.445892e-002
3.656527e+003;4.392885e-002
3.658456e+003;4.495576e-002
3.660384e+003;4.527967e-002
3.662313e+003;4.496120e-002
3.664241e+003;4.437785e-002
3.666170e+003;4.355261e-002
3.668098e+003;4.159408e-002
3.670027e+003;3.972795e-002
3.671955e+003;4.054907e-002
3.673884e+003;3.946560e-002
3.675813e+003;3.862197e-002
3.677741e+003;4.127441e-002
3.679669e+003;4.286771e-002
3.681598e+003;4.334666e-002
3.683527e+003;4.362269e-002
3.685455e+003;4.312383e-002
3.687384e+003;4.074464e-002
3.689312e+003;4.049982e-002
3.691241e+003;4.218689e-002
3.693169e+003;4.319932e-002
3.695098e+003;4.299720e-002
3.697026e+003;4.262195e-002
3.698955e+003;4.194862e-002
3.700884e+003;4.086551e-002
3.702812e+003;4.096036e-002
3.704741e+003;4.115046e-002
3.706669e+003;4.080567e-002
3.708598e+003;3.938657e-002
3.710526e+003;3.743759e-002
3.712455e+003;3.751178e-002
3.714383e+003;3.948323e-002
3.716312e+003;4.015540e-002
3.718240e+003;4.019985e-002
3.720169e+003;4.027731e-002
3.722098e+003;3.991330e-002
3.724026e+003;3.971009e-002
3.725955e+003;3.986285e-002
3.727883e+003;4.035268e-002
3.729812e+003;3.979890e-002
3.731740e+003;3.848571e-002
3.733669e+003;3.808974e-002
3.735597e+003;3.768839e-002
3.737526e+003;3.891273e-002
3.739455e+003;3.989064e-002
3.741383e+003;3.860281e-002
3.743312e+003;3.470263e-002
3.745240e+003;3.558920e-002
3.747169e+003;3.762316e-002
3.749097e+003;3.585073e-002
3.751026e+003;3.552360e-002
3.752954e+003;3.795144e-002
3.754883e+003;4.097594e-002
3.756812e+003;4.151646e-002
3.758740e+003;4.128439e-002
3.760668e+003;4.156334e-002
3.762597e+003;4.185991e-002
3.764526e+003;4.123086e-002
3.766454e+003;4.122489e-002
3.768383e+003;4.075104e-002
3.770311e+003;4.074354e-002
3.772240e+003;4.166862e-002
3.774168e+003;4.162792e-002
3.776097e+003;4.109015e-002
3.778025e+003;4.067589e-002
3.779954e+003;4.045068e-002
3.781883e+003;4.082027e-002
3.783811e+003;4.092285e-002
3.785740e+003;4.070883e-002
3.787668e+003;4.049880e-002
3.789597e+003;4.075730e-002
3.791525e+003;4.109685e-002
3.793454e+003;4.096931e-002
3.795382e+003;4.033486e-002
3.797311e+003;4.023191e-002
3.799240e+003;3.859390e-002
3.801168e+003;3.713911e-002
3.803097e+003;3.925870e-002
3.805025e+003;3.963214e-002
3.806954e+003;3.904285e-002
3.808882e+003;4.067510e-002
3.810811e+003;4.158212e-002
3.812739e+003;4.133952e-002
3.814668e+003;3.903168e-002
3.816596e+003;3.862015e-002
3.818525e+003;3.915350e-002
3.820454e+003;3.815047e-002
3.822382e+003;3.983304e-002
3.824311e+003;4.137936e-002
3.826239e+003;4.121403e-002
3.828168e+003;4.099163e-002
3.830096e+003;3.988632e-002
3.832025e+003;3.914117e-002
3.833953e+003;3.891856e-002
3.835882e+003;3.713698e-002
3.837811e+003;3.638195e-002
3.839739e+003;3.850855e-002
3.841667e+003;3.987142e-002
3.843596e+003;4.020977e-002
3.845525e+003;4.076152e-002
3.847453e+003;4.083028e-002
3.849382e+003;3.906341e-002
3.851310e+003;3.486488e-002
3.853239e+003;3.234223e-002
3.855167e+003;3.620940e-002
3.857096e+003;4.033734e-002
3.859024e+003;4.111222e-002
3.860953e+003;3.993256e-002
3.862882e+003;3.885319e-002
3.864810e+003;3.891835e-002
3.866739e+003;3.946505e-002
3.868667e+003;3.812935e-002
3.870596e+003;3.823430e-002
3.872524e+003;3.943530e-002
3.874453e+003;4.013079e-002
3.876381e+003;4.076818e-002
3.878310e+003;4.028018e-002
3.880239e+003;3.999464e-002
3.882167e+003;4.040879e-002
3.884096e+003;3.954285e-002
3.886024e+003;3.968060e-002
3.887953e+003;4.113881e-002
3.889881e+003;4.056780e-002
3.891810e+003;4.048021e-002
3.893738e+003;4.136810e-002
3.895667e+003;4.134474e-002
3.897595e+003;4.064729e-002
3.899524e+003;4.008973e-002
3.901453e+003;3.989736e-002
3.903381e+003;4.021588e-002
3.905310e+003;4.112336e-002
3.907238e+003;4.193786e-002
3.909167e+003;4.229385e-002
3.911095e+003;4.252543e-002
3.913024e+003;4.270021e-002
3.914952e+003;4.216622e-002
3.916881e+003;4.181445e-002
3.918810e+003;4.229951e-002
3.920738e+003;4.274847e-002
3.922667e+003;4.288029e-002
3.924595e+003;4.284398e-002
3.926524e+003;4.290736e-002
3.928452e+003;4.294715e-002
3.930381e+003;4.261749e-002
3.932309e+003;4.219897e-002
3.934238e+003;4.242181e-002
3.936167e+003;4.262707e-002
3.938095e+003;4.266022e-002
3.940023e+003;4.259465e-002
3.941952e+003;4.259308e-002
3.943881e+003;4.301263e-002
3.945809e+003;4.296051e-002
3.947738e+003;4.305679e-002
3.949666e+003;4.336951e-002
3.951595e+003;4.297869e-002
3.953523e+003;4.301110e-002
3.955452e+003;4.372199e-002
3.957380e+003;4.395011e-002
3.959309e+003;4.401354e-002
3.961238e+003;4.420697e-002
3.963166e+003;4.441800e-002
3.965095e+003;4.448396e-002
3.967023e+003;4.454882e-002
3.968952e+003;4.403870e-002
3.970880e+003;4.311164e-002
3.972809e+003;4.312576e-002
3.974737e+003;4.354089e-002
3.976666e+003;4.382049e-002
3.978594e+003;4.407233e-002
3.980523e+003;4.404655e-002
3.982452e+003;4.419454e-002
3.984380e+003;4.444670e-002
3.986309e+003;4.451076e-002
3.988237e+003;4.444057e-002
3.990166e+003;4.440552e-002
3.992094e+003;4.381577e-002
3.994023e+003;4.329962e-002
3.995951e+003;4.331972e-002
3.997880e+003;4.374544e-002
3.999809e+003;4.390568e-002
4.001737e+003;0.000000e+000
