3.992094e+002;0.000000e+000
4.011380e+002;0.000000e+000
4.030665e+002;0.000000e+000
4.049951e+002;0.000000e+000
4.069236e+002;0.000000e+000
4.088522e+002;0.000000e+000
4.107807e+002;0.000000e+000
4.127093e+002;0.000000e+000
4.146378e+002;0.000000e+000
4.165664e+002;0.000000e+000
4.184949e+002;0.000000e+000
4.204235e+002;0.000000e+000
4.223520e+002;0.000000e+000
4.242806e+002;0.000000e+000
4.262091e+002;0.000000e+000
4.281377e+002;0.000000e+000
4.300662e+002;0.000000e+000
4.319948e+002;0.000000e+000
4.339233e+002;0.000000e+000
4.358519e+002;0.000000e+000
4.377804e+002;0.000000e+000
4.397090e+002;0.000000e+000
4.416375e+002;0.000000e+000
4.435660e+002;0.000000e+000
4.454946e+002;0.000000e+000
4.474232e+002;0.000000e+000
4.493517e+002;0.000000e+000
4.512802e+002;0.000000e+000
4.532088e+002;0.000000e+000
4.551373e+002;0.000000e+000
4.570659e+002;0.000000e+000
4.589944e+002;0.000000e+000
4.609230e+002;0.000000e+000
4.628515e+002;0.000000e+000
4.647801e+002;0.000000e+000
4.667086e+002;0.000000e+000
4.686372e+002;0.000000e+000
4.705657e+002;0.000000e+000
4.724943e+002;0.000000e+000
4.744228e+002;0.000000e+000
4.763513e+002;0.000000e+000
4.782799e+002;0.000000e+000
4.802085e+002;0.000000e+000
4.821370e+002;0.000000e+000
4.840656e+002;0.000000e+000
4.859941e+002;0.000000e+000
4.879226e+002;0.000000e+000
4.898512e+002;0.000000e+000
4.917798e+002;0.000000e+000
4.937083e+002;0.000000e+000
4.956368e+002;0.000000e+000
4.975654e+002;0.000000e+000
4.994939e+002;0.000000e+000
5.014225e+002;0.000000e+000
5.033510e+002;0.000000e+000
5.052796e+002;0.000000e+000
5.072081e+002;0.000000e+000
5.091367e+002;0.000000e+000
5.110652e+002;0.000000e+000
5.129938e+002;0.000000e+000
5.149223e+002;0.000000e+000
5.168509e+002;0.000000e+000
5.187794e+002;0.000000e+000
5.207079e+002;0.000000e+000
5.226365e+002;0.000000e+000
5.245651e+002;0.000000e+000
5.264936e+002;0.000000e+000
5.284222e+002;0.000000e+000
5.303507e+002;0.000000e+000
5.322792e+002;0.000000e+000
5.342078e+002;0.000000e+000
5.361364e+002;0.000000e+000
5.380649e+002;0.000000e+000
5.399935e+002;0.000000e+000
5.419220e+002;0.000000e+000
5.438505e+002;0.000000e+000
5.457791e+002;0.000000e+000
5.477076e+002;0.000000e+000
5.496362e+002;0.000000e+000
5.515648e+002;0.000000e+000
5.534933e+002;0.000000e+000
5.554218e+002;0.000000e+000
5.573504e+002;0.000000e+000
5.592789e+002;0.000000e+000
5.612075e+002;0.000000e+000
5.631360e+002;0.000000e+000
5.650646e+002;0.000000e+000
5.669931e+002;0.000000e+000
5.689217e+002;0.000000e+000
5.708502e+002;0.000000e+000
5.727787e+002;0.000000e+000
5.747073e+002;0.000000e+000
5.766359e+002;0.000000e+000
5.785644e+002;0.000000e+000
5.804930e+002;0.000000e+000
5.824215e+002;0.000000e+000
5.843500e+002;0.000000e+000
5.862786e+002;0.000000e+000
5.882072e+002;0.000000e+000
5.901357e+002;0.000000e+000
5.920643e+002;0.000000e+000
5.939928e+002;0.000000e+000
5.959213e+002;0.000000e+000
5.978499e+002;0.000000e+000
5.997784e+002;7.380907e-002
6.017070e+002;7.027078e-002
6.036355e+002;7.528660e-002
6.055641e+002;7.932264e-002
6.074926e+002;7.705835e-002
6.094211e+002;7.585161e-002
6.113497e+002;7.229937e-002
6.132783e+002;6.979639e-002
6.152068e+002;7.233839e-002
6.171354e+002;7.233866e-002
6.190639e+002;6.904349e-002
6.209924e+002;7.018910e-002
6.229210e+002;7.420821e-002
6.248495e+002;7.597624e-002
6.267781e+002;7.571634e-002
6.287067e+002;7.879366e-002
6.306352e+002;8.303067e-002
6.325637e+002;8.092374e-002
6.344923e+002;8.048484e-002
6.364208e+002;7.909210e-002
6.383494e+002;7.482001e-002
6.402780e+002;7.397570e-002
6.422065e+002;7.089807e-002
6.441350e+002;6.789048e-002
6.460636e+002;6.553145e-002
6.479921e+002;6.584331e-002
6.499207e+002;6.861689e-002
6.518492e+002;7.228684e-002
6.537778e+002;7.621872e-002
6.557063e+002;7.965162e-002
6.576349e+002;7.952136e-002
6.595634e+002;7.767592e-002
6.614919e+002;7.504471e-002
6.634205e+002;7.514149e-002
6.653491e+002;7.845402e-002
6.672776e+002;8.115239e-002
6.692062e+002;8.154755e-002
6.711347e+002;8.242448e-002
6.730632e+002;8.442549e-002
6.749918e+002;8.713518e-002
6.769203e+002;8.893997e-002
6.788489e+002;8.989037e-002
6.807775e+002;9.106018e-002
6.827060e+002;9.096727e-002
6.846345e+002;9.075601e-002
6.865631e+002;9.181231e-002
6.884916e+002;9.283412e-002
6.904202e+002;9.326775e-002
6.923488e+002;9.473887e-002
6.942773e+002;9.764260e-002
6.962058e+002;1.020925e-001
6.981344e+002;1.088615e-001
7.000629e+002;1.163105e-001
7.019915e+002;1.229652e-001
7.039200e+002;1.288623e-001
7.058486e+002;1.346152e-001
7.077771e+002;1.412756e-001
7.097057e+002;1.485817e-001
7.116342e+002;1.576413e-001
7.135627e+002;1.692470e-001
7.154913e+002;1.850808e-001
7.174199e+002;2.044537e-001
7.193484e+002;2.252373e-001
7.212770e+002;2.436064e-001
7.232055e+002;2.537690e-001
7.251340e+002;2.490047e-001
7.270626e+002;2.310140e-001
7.289911e+002;2.077828e-001
7.309197e+002;1.842153e-001
7.328483e+002;1.627647e-001
7.347768e+002;1.433205e-001
7.367053e+002;1.243732e-001
7.386339e+002;1.072126e-001
7.405624e+002;9.413058e-002
7.424910e+002;8.546830e-002
7.444196e+002;7.887240e-002
7.463481e+002;7.440386e-002
7.482766e+002;7.307440e-002
7.502052e+002;7.264414e-002
7.521337e+002;7.243973e-002
7.540623e+002;7.203333e-002
7.559908e+002;7.160866e-002
7.579194e+002;7.160245e-002
7.598479e+002;7.124832e-002
7.617765e+002;7.121619e-002
7.637050e+002;7.157432e-002
7.656335e+002;7.253762e-002
7.675621e+002;7.396355e-002
7.694907e+002;7.505105e-002
7.714192e+002;7.574525e-002
7.733478e+002;7.640062e-002
7.752763e+002;7.721067e-002
7.772048e+002;7.834769e-002
7.791334e+002;7.945770e-002
7.810620e+002;8.014610e-002
7.829905e+002;8.195280e-002
7.849191e+002;8.458670e-002
7.868476e+002;8.703326e-002
7.887761e+002;8.967549e-002
7.907047e+002;9.283183e-002
7.926332e+002;9.328713e-002
7.945618e+002;9.012427e-002
7.964903e+002;8.580967e-002
7.984189e+002;8.260113e-002
8.003474e+002;8.124750e-002
8.022759e+002;8.096310e-002
8.042045e+002;8.154635e-002
8.061331e+002;8.219180e-002
8.080616e+002;8.217106e-002
8.099902e+002;8.272242e-002
8.119187e+002;8.381647e-002
8.138472e+002;8.410334e-002
8.157758e+002;8.383608e-002
8.177043e+002;8.388648e-002
8.196329e+002;8.419870e-002
8.215615e+002;8.457861e-002
8.234900e+002;8.444960e-002
8.254185e+002;8.481789e-002
8.273471e+002;8.695829e-002
8.292756e+002;8.843688e-002
8.312042e+002;8.909534e-002
8.331328e+002;9.085554e-002
8.350613e+002;9.357256e-002
8.369898e+002;9.593742e-002
8.389184e+002;9.789255e-002
8.408469e+002;1.004407e-001
8.427755e+002;1.037186e-001
8.447040e+002;1.072165e-001
8.466326e+002;1.094664e-001
8.485611e+002;1.096953e-001
8.504897e+002;1.080971e-001
8.524182e+002;1.057193e-001
8.543467e+002;1.041878e-001
8.562753e+002;1.034654e-001
8.582039e+002;1.028597e-001
8.601324e+002;1.022354e-001
8.620610e+002;1.030336e-001
8.639895e+002;1.053001e-001
8.659180e+002;1.096439e-001
8.678466e+002;1.179810e-001
8.697751e+002;1.309383e-001
8.717037e+002;1.410843e-001
8.736323e+002;1.385242e-001
8.755608e+002;1.281738e-001
8.774893e+002;1.186744e-001
8.794179e+002;1.106655e-001
8.813464e+002;1.040121e-001
8.832750e+002;9.881046e-002
8.852036e+002;9.448270e-002
8.871321e+002;9.140839e-002
8.890606e+002;8.918521e-002
8.909892e+002;8.812623e-002
8.929177e+002;8.766113e-002
8.948463e+002;8.763028e-002
8.967748e+002;8.766580e-002
8.987034e+002;8.724842e-002
9.006319e+002;8.687168e-002
9.025605e+002;8.624171e-002
9.044890e+002;8.526503e-002
9.064175e+002;8.426584e-002
9.083461e+002;8.284053e-002
9.102747e+002;8.119429e-002
9.122032e+002;8.002570e-002
9.141318e+002;7.908232e-002
9.160603e+002;7.850268e-002
9.179888e+002;7.819612e-002
9.199174e+002;7.779147e-002
9.218459e+002;7.742596e-002
9.237745e+002;7.760563e-002
9.257031e+002;7.825032e-002
9.276316e+002;7.876291e-002
9.295601e+002;7.890073e-002
9.314887e+002;7.900791e-002
9.334172e+002;7.931776e-002
9.353458e+002;7.961281e-002
9.372744e+002;8.039651e-002
9.392029e+002;8.168154e-002
9.411314e+002;8.260999e-002
9.430600e+002;8.334954e-002
9.449885e+002;8.408710e-002
9.469171e+002;8.484689e-002
9.488456e+002;8.591474e-002
9.507742e+002;8.758119e-002
9.527027e+002;8.938406e-002
9.546313e+002;9.095264e-002
9.565598e+002;9.270838e-002
9.584883e+002;9.466808e-002
9.604169e+002;9.671187e-002
9.623455e+002;9.925576e-002
9.642740e+002;1.018316e-001
9.662026e+002;1.036944e-001
9.681311e+002;1.048705e-001
9.700596e+002;1.053205e-001
9.719882e+002;1.050465e-001
9.739167e+002;1.039871e-001
9.758453e+002;1.022747e-001
9.777739e+002;1.002965e-001
9.797024e+002;9.814660e-002
9.816309e+002;9.636009e-002
9.835595e+002;9.511290e-002
9.854880e+002;9.416786e-002
9.874166e+002;9.365383e-002
9.893452e+002;9.288955e-002
9.912737e+002;9.211328e-002
9.932022e+002;9.164946e-002
9.951307e+002;9.110930e-002
9.970593e+002;9.124798e-002
9.989879e+002;9.235466e-002
1.000916e+003;9.318750e-002
1.002845e+003;9.430078e-002
1.004773e+003;9.648031e-002
1.006702e+003;9.984081e-002
1.008631e+003;1.045301e-001
1.010559e+003;1.114552e-001
1.012488e+003;1.222213e-001
1.014416e+003;1.372418e-001
1.016345e+003;1.520718e-001
1.018273e+003;1.586285e-001
1.020202e+003;1.543560e-001
1.022130e+003;1.450200e-001
1.024059e+003;1.345167e-001
1.025988e+003;1.230456e-001
1.027916e+003;1.128850e-001
1.029845e+003;1.062960e-001
1.031773e+003;1.033750e-001
1.033702e+003;1.028182e-001
1.035630e+003;1.032386e-001
1.037559e+003;1.038030e-001
1.039487e+003;1.044331e-001
1.041416e+003;1.051594e-001
1.043344e+003;1.056027e-001
1.045273e+003;1.059726e-001
1.047202e+003;1.062948e-001
1.049130e+003;1.059750e-001
1.051059e+003;1.054744e-001
1.052987e+003;1.055232e-001
1.054916e+003;1.060923e-001
1.056844e+003;1.069518e-001
1.058773e+003;1.078109e-001
1.060701e+003;1.090091e-001
1.062630e+003;1.110218e-001
1.064558e+003;1.138552e-001
1.066487e+003;1.171333e-001
1.068416e+003;1.210811e-001
1.070344e+003;1.258141e-001
1.072273e+003;1.315046e-001
1.074201e+003;1.382944e-001
1.076130e+003;1.459645e-001
1.078058e+003;1.549823e-001
1.079987e+003;1.649031e-001
1.081915e+003;1.753372e-001
1.083844e+003;1.848530e-001
1.085773e+003;1.921747e-001
1.087701e+003;1.987571e-001
1.089630e+003;2.047844e-001
1.091558e+003;2.100487e-001
1.093487e+003;2.157132e-001
1.095415e+003;2.201740e-001
1.097344e+003;2.224621e-001
1.099272e+003;2.229353e-001
1.101201e+003;2.209653e-001
1.103129e+003;2.173609e-001
1.105058e+003;2.117969e-001
1.106987e+003;2.045632e-001
1.108915e+003;1.975486e-001
1.110844e+003;1.927848e-001
1.112772e+003;1.908348e-001
1.114701e+003;1.907278e-001
1.116629e+003;1.910694e-001
1.118558e+003;1.909074e-001
1.120486e+003;1.896223e-001
1.122415e+003;1.869231e-001
1.124344e+003;1.834680e-001
1.126272e+003;1.790447e-001
1.128201e+003;1.731723e-001
1.130129e+003;1.658514e-001
1.132058e+003;1.576724e-001
1.133986e+003;1.484559e-001
1.135915e+003;1.390330e-001
1.137843e+003;1.306557e-001
1.139772e+003;1.238721e-001
1.141700e+003;1.180240e-001
1.143629e+003;1.131766e-001
1.145557e+003;1.094340e-001
1.147486e+003;1.062097e-001
1.149415e+003;1.034990e-001
1.151343e+003;1.012268e-001
1.153272e+003;9.910118e-002
1.155200e+003;9.780161e-002
1.157129e+003;9.699982e-002
1.159057e+003;9.613404e-002
1.160986e+003;9.555326e-002
1.162914e+003;9.555583e-002
1.164843e+003;9.632075e-002
1.166771e+003;9.755424e-002
1.168700e+003;9.923773e-002
1.170629e+003;1.011609e-001
1.172557e+003;1.027342e-001
1.174486e+003;1.037217e-001
1.176414e+003;1.040626e-001
1.178343e+003;1.035659e-001
1.180271e+003;1.024661e-001
1.182200e+003;1.014303e-001
1.184128e+003;1.005809e-001
1.186057e+003;1.001324e-001
1.187986e+003;1.002211e-001
1.189914e+003;1.007591e-001
1.191843e+003;1.015036e-001
1.193771e+003;1.026476e-001
1.195700e+003;1.048339e-001
1.197628e+003;1.071206e-001
1.199557e+003;1.092675e-001
1.201485e+003;1.117258e-001
1.203414e+003;1.145029e-001
1.205343e+003;1.172982e-001
1.207271e+003;1.203221e-001
1.209200e+003;1.237088e-001
1.211128e+003;1.272579e-001
1.213057e+003;1.307608e-001
1.214985e+003;1.348071e-001
1.216914e+003;1.397993e-001
1.218842e+003;1.451603e-001
1.220771e+003;1.503601e-001
1.222699e+003;1.552184e-001
1.224628e+003;1.604788e-001
1.226557e+003;1.669475e-001
1.228485e+003;1.745959e-001
1.230414e+003;1.838536e-001
1.232342e+003;1.960409e-001
1.234271e+003;2.104800e-001
1.236199e+003;2.259015e-001
1.238128e+003;2.409903e-001
1.240056e+003;2.538570e-001
1.241985e+003;2.637380e-001
1.243913e+003;2.702873e-001
1.245842e+003;2.731405e-001
1.247771e+003;2.731018e-001
1.249699e+003;2.712449e-001
1.251628e+003;2.679803e-001
1.253556e+003;2.639876e-001
1.255485e+003;2.604049e-001
1.257413e+003;2.567509e-001
1.259342e+003;2.522785e-001
1.261270e+003;2.473719e-001
1.263199e+003;2.414517e-001
1.265127e+003;2.343913e-001
1.267056e+003;2.260340e-001
1.268985e+003;2.169415e-001
1.270913e+003;2.080010e-001
1.272842e+003;1.993906e-001
1.274770e+003;1.913866e-001
1.276699e+003;1.837826e-001
1.278627e+003;1.765165e-001
1.280556e+003;1.699211e-001
1.282484e+003;1.637726e-001
1.284413e+003;1.577773e-001
1.286342e+003;1.517971e-001
1.288270e+003;1.460433e-001
1.290199e+003;1.400632e-001
1.292127e+003;1.340028e-001
1.294056e+003;1.279466e-001
1.295984e+003;1.220203e-001
1.297913e+003;1.167442e-001
1.299841e+003;1.117100e-001
1.301770e+003;1.071655e-001
1.303698e+003;1.037112e-001
1.305627e+003;1.008624e-001
1.307556e+003;9.795731e-002
1.309484e+003;9.527499e-002
1.311413e+003;9.289338e-002
1.313341e+003;9.067611e-002
1.315270e+003;8.881772e-002
1.317198e+003;8.741234e-002
1.319127e+003;8.637335e-002
1.321055e+003;8.539101e-002
1.322984e+003;8.486941e-002
1.324912e+003;8.518597e-002
1.326841e+003;8.655785e-002
1.328770e+003;8.973700e-002
1.330698e+003;9.517618e-002
1.332627e+003;1.032402e-001
1.334555e+003;1.133602e-001
1.336484e+003;1.230265e-001
1.338412e+003;1.290474e-001
1.340341e+003;1.291323e-001
1.342269e+003;1.233643e-001
1.344198e+003;1.134489e-001
1.346126e+003;1.027927e-001
1.348055e+003;9.376586e-002
1.349984e+003;8.727269e-002
1.351912e+003;8.317724e-002
1.353841e+003;8.071493e-002
1.355769e+003;7.903561e-002
1.357698e+003;7.808942e-002
1.359626e+003;7.791729e-002
1.361555e+003;7.862160e-002
1.363483e+003;8.001602e-002
1.365412e+003;8.144251e-002
1.367341e+003;8.248168e-002
1.369269e+003;8.298194e-002
1.371198e+003;8.316391e-002
1.373126e+003;8.330169e-002
1.375055e+003;8.289651e-002
1.376983e+003;8.248257e-002
1.378912e+003;8.251550e-002
1.380840e+003;8.278304e-002
1.382769e+003;8.312359e-002
1.384698e+003;8.334725e-002
1.386626e+003;8.347380e-002
1.388555e+003;8.376869e-002
1.390483e+003;8.432003e-002
1.392412e+003;8.506379e-002
1.394340e+003;8.605230e-002
1.396269e+003;8.784509e-002
1.398197e+003;9.045435e-002
1.400126e+003;9.415539e-002
1.402054e+003;9.918427e-002
1.403983e+003;1.053844e-001
1.405911e+003;1.120797e-001
1.407840e+003;1.170612e-001
1.409769e+003;1.167888e-001
1.411697e+003;1.103976e-001
1.413626e+003;1.004614e-001
1.415554e+003;9.048414e-002
1.417483e+003;8.267713e-002
1.419411e+003;7.758935e-002
1.421340e+003;7.456796e-002
1.423268e+003;7.291443e-002
1.425197e+003;7.238231e-002
1.427125e+003;7.244087e-002
1.429054e+003;7.295167e-002
1.430983e+003;7.390754e-002
1.432911e+003;7.502916e-002
1.434840e+003;7.638437e-002
1.436768e+003;7.762650e-002
1.438697e+003;7.864948e-002
1.440625e+003;7.953143e-002
1.442554e+003;8.021557e-002
1.444482e+003;8.086175e-002
1.446411e+003;8.160020e-002
1.448340e+003;8.234209e-002
1.450268e+003;8.309995e-002
1.452197e+003;8.352975e-002
1.454125e+003;8.387611e-002
1.456054e+003;8.398424e-002
1.457982e+003;8.385738e-002
1.459911e+003;8.378754e-002
1.461839e+003;8.351705e-002
1.463768e+003;8.337077e-002
1.465697e+003;8.370139e-002
1.467625e+003;8.476142e-002
1.469554e+003;8.652534e-002
1.471482e+003;8.720124e-002
1.473411e+003;8.601505e-002
1.475339e+003;8.436172e-002
1.477268e+003;8.265340e-002
1.479196e+003;8.074358e-002
1.481125e+003;7.871648e-002
1.483053e+003;7.677162e-002
1.484982e+003;7.478183e-002
1.486911e+003;7.289828e-002
1.488839e+003;7.140771e-002
1.490768e+003;7.029969e-002
1.492696e+003;6.950986e-002
1.494625e+003;6.973791e-002
1.496553e+003;7.141513e-002
1.498482e+003;7.412127e-002
1.500410e+003;7.808514e-002
1.502339e+003;8.296750e-002
1.504267e+003;8.646917e-002
1.506196e+003;8.597047e-002
1.508125e+003;8.144438e-002
1.510053e+003;7.619337e-002
1.511982e+003;7.238657e-002
1.513910e+003;7.034172e-002
1.515839e+003;6.939179e-002
1.517767e+003;6.896982e-002
1.519696e+003;6.896127e-002
1.521624e+003;6.928280e-002
1.523553e+003;6.954961e-002
1.525481e+003;6.931362e-002
1.527410e+003;6.897704e-002
1.529339e+003;6.855977e-002
1.531267e+003;6.815946e-002
1.533196e+003;6.775948e-002
1.535124e+003;6.714723e-002
1.537053e+003;6.680401e-002
1.538981e+003;6.673056e-002
1.540910e+003;6.667624e-002
1.542838e+003;6.648887e-002
1.544767e+003;6.632949e-002
1.546695e+003;6.667539e-002
1.548624e+003;6.697976e-002
1.550553e+003;6.715693e-002
1.552481e+003;6.718258e-002
1.554410e+003;6.723564e-002
1.556338e+003;6.751064e-002
1.558267e+003;6.773783e-002
1.560195e+003;6.777397e-002
1.562124e+003;6.817994e-002
1.564052e+003;6.879015e-002
1.565981e+003;6.953075e-002
1.567910e+003;7.045433e-002
1.569838e+003;7.165044e-002
1.571767e+003;7.337227e-002
1.573695e+003;7.529976e-002
1.575624e+003;7.676621e-002
1.577552e+003;7.767976e-002
1.579481e+003;7.785244e-002
1.581409e+003;7.671204e-002
1.583338e+003;7.476333e-002
1.585266e+003;7.268244e-002
1.587195e+003;7.097051e-002
1.589124e+003;6.977495e-002
1.591052e+003;6.913214e-002
1.592981e+003;6.909873e-002
1.594909e+003;6.902077e-002
1.596838e+003;6.909194e-002
1.598766e+003;6.953176e-002
1.600695e+003;7.039171e-002
1.602623e+003;7.135652e-002
1.604552e+003;7.200052e-002
1.606480e+003;7.290416e-002
1.608409e+003;7.425358e-002
1.610338e+003;7.525460e-002
1.612266e+003;7.602621e-002
1.614195e+003;7.650492e-002
1.616123e+003;7.617591e-002
1.618052e+003;7.525815e-002
1.619980e+003;7.436253e-002
1.621909e+003;7.387058e-002
1.623837e+003;7.370568e-002
1.625766e+003;7.378303e-002
1.627694e+003;7.413283e-002
1.629623e+003;7.456261e-002
1.631552e+003;7.512664e-002
1.633480e+003;7.564431e-002
1.635409e+003;7.609667e-002
1.637337e+003;7.678340e-002
1.639266e+003;7.731355e-002
1.641194e+003;7.772569e-002
1.643123e+003;7.812408e-002
1.645051e+003;7.857280e-002
1.646980e+003;7.928610e-002
1.648909e+003;8.006211e-002
1.650837e+003;8.088494e-002
1.652766e+003;8.184353e-002
1.654694e+003;8.305434e-002
1.656623e+003;8.423381e-002
1.658551e+003;8.547390e-002
1.660480e+003;8.695311e-002
1.662408e+003;8.863766e-002
1.664337e+003;9.058544e-002
1.666266e+003;9.258875e-002
1.668194e+003;9.450004e-002
1.670123e+003;9.648962e-002
1.672051e+003;9.852261e-002
1.673980e+003;1.004380e-001
1.675908e+003;1.025311e-001
1.677837e+003;1.049365e-001
1.679765e+003;1.073034e-001
1.681694e+003;1.094896e-001
1.683622e+003;1.111913e-001
1.685551e+003;1.126507e-001
1.687479e+003;1.148369e-001
1.689408e+003;1.180041e-001
1.691337e+003;1.218662e-001
1.693265e+003;1.264587e-001
1.695194e+003;1.321041e-001
1.697122e+003;1.392640e-001
1.699051e+003;1.483113e-001
1.700979e+003;1.596639e-001
1.702908e+003;1.732045e-001
1.704836e+003;1.894114e-001
1.706765e+003;2.078325e-001
1.708693e+003;2.264995e-001
1.710622e+003;2.424137e-001
1.712551e+003;2.524802e-001
1.714479e+003;2.543998e-001
1.716408e+003;2.487150e-001
1.718336e+003;2.378909e-001
1.720265e+003;2.250278e-001
1.722193e+003;2.118015e-001
1.724122e+003;1.990255e-001
1.726050e+003;1.862334e-001
1.727979e+003;1.729945e-001
1.729908e+003;1.599365e-001
1.731836e+003;1.478478e-001
1.733765e+003;1.360857e-001
1.735693e+003;1.246292e-001
1.737622e+003;1.140712e-001
1.739550e+003;1.039092e-001
1.741479e+003;9.397496e-002
1.743407e+003;8.485233e-002
1.745336e+003;7.722341e-002
1.747265e+003;7.140455e-002
1.749193e+003;6.707487e-002
1.751122e+003;6.377834e-002
1.753050e+003;6.157666e-002
1.754979e+003;6.025606e-002
1.756907e+003;5.946020e-002
1.758836e+003;5.882375e-002
1.760764e+003;5.815462e-002
1.762693e+003;5.772419e-002
1.764621e+003;5.738925e-002
1.766550e+003;5.700745e-002
1.768479e+003;5.684868e-002
1.770407e+003;5.684925e-002
1.772336e+003;5.673422e-002
1.774264e+003;5.654762e-002
1.776193e+003;5.652305e-002
1.778121e+003;5.657197e-002
1.780050e+003;5.649992e-002
1.781978e+003;5.644626e-002
1.783907e+003;5.647079e-002
1.785835e+003;5.653974e-002
1.787764e+003;5.662459e-002
1.789693e+003;5.655223e-002
1.791621e+003;5.632474e-002
1.793550e+003;5.623056e-002
1.795478e+003;5.633825e-002
1.797407e+003;5.644532e-002
1.799335e+003;5.649041e-002
1.801264e+003;5.661934e-002
1.803192e+003;5.667178e-002
1.805121e+003;5.671497e-002
1.807049e+003;5.690696e-002
1.808978e+003;5.704017e-002
1.810907e+003;5.687931e-002
1.812835e+003;5.674404e-002
1.814764e+003;5.682160e-002
1.816692e+003;5.678017e-002
1.818621e+003;5.675390e-002
1.820549e+003;5.673596e-002
1.822478e+003;5.663346e-002
1.824406e+003;5.662806e-002
1.826335e+003;5.667064e-002
1.828264e+003;5.639910e-002
1.830192e+003;5.602084e-002
1.832121e+003;5.579853e-002
1.834049e+003;5.543653e-002
1.835978e+003;5.497788e-002
1.837906e+003;5.477294e-002
1.839835e+003;5.448665e-002
1.841763e+003;5.389281e-002
1.843692e+003;5.313356e-002
1.845620e+003;5.263245e-002
1.847549e+003;5.227670e-002
1.849478e+003;5.178535e-002
1.851406e+003;5.107531e-002
1.853335e+003;5.049259e-002
1.855263e+003;5.009571e-002
1.857192e+003;4.967937e-002
1.859120e+003;4.932358e-002
1.861049e+003;4.898804e-002
1.862977e+003;4.859136e-002
1.864906e+003;4.827593e-002
1.866834e+003;4.802768e-002
1.868763e+003;4.787531e-002
1.870692e+003;4.771574e-002
1.872620e+003;4.728149e-002
1.874549e+003;4.699803e-002
1.876477e+003;4.703484e-002
1.878406e+003;4.672616e-002
1.880334e+003;4.654440e-002
1.882263e+003;4.667203e-002
1.884191e+003;4.660659e-002
1.886120e+003;4.660072e-002
1.888048e+003;4.673789e-002
1.889977e+003;4.666768e-002
1.891906e+003;4.668428e-002
1.893834e+003;4.670623e-002
1.895763e+003;4.663090e-002
1.897691e+003;4.676099e-002
1.899620e+003;4.696440e-002
1.901548e+003;4.709503e-002
1.903477e+003;4.709725e-002
1.905405e+003;4.710656e-002
1.907334e+003;4.722848e-002
1.909262e+003;4.714264e-002
1.911191e+003;4.710050e-002
1.913120e+003;4.737571e-002
1.915048e+003;4.764519e-002
1.916977e+003;4.770553e-002
1.918905e+003;4.777332e-002
1.920834e+003;4.808542e-002
1.922762e+003;4.831841e-002
1.924691e+003;4.863664e-002
1.926619e+003;4.907110e-002
1.928548e+003;4.928906e-002
1.930477e+003;4.965117e-002
1.932405e+003;5.032398e-002
1.934334e+003;5.085853e-002
1.936262e+003;5.114851e-002
1.938191e+003;5.150595e-002
1.940119e+003;5.213265e-002
1.942048e+003;5.282414e-002
1.943976e+003;5.328671e-002
1.945905e+003;5.356257e-002
1.947833e+003;5.386427e-002
1.949762e+003;5.422315e-002
1.951691e+003;5.438337e-002
1.953619e+003;5.462686e-002
1.955548e+003;5.501022e-002
1.957476e+003;5.515154e-002
1.959405e+003;5.497615e-002
1.961333e+003;5.481350e-002
1.963262e+003;5.450438e-002
1.965190e+003;5.383707e-002
1.967119e+003;5.306399e-002
1.969047e+003;5.245048e-002
1.970976e+003;5.183201e-002
1.972905e+003;5.110542e-002
1.974833e+003;5.056740e-002
1.976762e+003;5.047685e-002
1.978690e+003;5.006831e-002
1.980619e+003;4.948768e-002
1.982547e+003;4.918623e-002
1.984476e+003;4.901924e-002
1.986404e+003;4.868097e-002
1.988333e+003;4.824609e-002
1.990261e+003;4.800263e-002
1.992190e+003;4.778006e-002
1.994119e+003;4.750096e-002
1.996047e+003;4.720964e-002
1.997976e+003;4.682653e-002
1.999904e+003;4.645324e-002
2.001833e+003;4.600761e-002
2.003761e+003;4.568839e-002
2.005690e+003;4.550118e-002
2.007618e+003;4.519285e-002
2.009547e+003;4.488194e-002
2.011476e+003;4.475160e-002
2.013404e+003;4.446927e-002
2.015333e+003;4.433532e-002
2.017261e+003;4.437744e-002
2.019190e+003;4.429114e-002
2.021118e+003;4.402517e-002
2.023047e+003;4.367051e-002
2.024975e+003;4.361328e-002
2.026904e+003;4.355935e-002
2.028833e+003;4.328629e-002
2.030761e+003;4.312855e-002
2.032690e+003;4.302588e-002
2.034618e+003;4.284025e-002
2.036547e+003;4.271337e-002
2.038475e+003;4.278138e-002
2.040404e+003;4.305983e-002
2.042332e+003;4.325269e-002
2.044261e+003;4.352353e-002
2.046189e+003;4.367211e-002
2.048118e+003;4.340202e-002
2.050047e+003;4.341649e-002
2.051975e+003;4.369175e-002
2.053904e+003;4.388739e-002
2.055832e+003;4.398619e-002
2.057761e+003;4.418163e-002
2.059689e+003;4.454600e-002
2.061618e+003;4.484704e-002
2.063546e+003;4.504371e-002
2.065475e+003;4.537882e-002
2.067404e+003;4.574630e-002
2.069332e+003;4.590117e-002
2.071260e+003;4.597034e-002
2.073189e+003;4.604011e-002
2.075118e+003;4.615237e-002
2.077046e+003;4.651464e-002
2.078975e+003;4.688987e-002
2.080903e+003;4.714740e-002
2.082832e+003;4.729236e-002
2.084760e+003;4.736252e-002
2.086689e+003;4.761002e-002
2.088617e+003;4.775975e-002
2.090546e+003;4.762311e-002
2.092475e+003;4.744179e-002
2.094403e+003;4.740502e-002
2.096332e+003;4.749110e-002
2.098260e+003;4.773767e-002
2.100189e+003;4.780547e-002
2.102117e+003;4.763409e-002
2.104046e+003;4.751582e-002
2.105974e+003;4.755264e-002
2.107903e+003;4.749753e-002
2.109832e+003;4.739652e-002
2.111760e+003;4.740372e-002
2.113688e+003;4.720133e-002
2.115617e+003;4.691441e-002
2.117546e+003;4.672767e-002
2.119474e+003;4.663348e-002
2.121403e+003;4.663746e-002
2.123331e+003;4.660201e-002
2.125260e+003;4.629179e-002
2.127188e+003;4.594231e-002
2.129117e+003;4.579453e-002
2.131045e+003;4.556083e-002
2.132974e+003;4.520583e-002
2.134903e+003;4.491233e-002
2.136831e+003;4.479252e-002
2.138760e+003;4.488359e-002
2.140688e+003;4.484002e-002
2.142617e+003;4.466698e-002
2.144545e+003;4.436900e-002
2.146474e+003;4.417587e-002
2.148402e+003;4.402807e-002
2.150331e+003;4.352295e-002
2.152260e+003;4.310267e-002
2.154188e+003;4.295593e-002
2.156117e+003;4.277015e-002
2.158045e+003;4.267265e-002
2.159974e+003;4.249448e-002
2.161902e+003;4.207560e-002
2.163831e+003;4.158157e-002
2.165759e+003;4.132768e-002
2.167688e+003;4.133042e-002
2.169616e+003;4.114667e-002
2.171545e+003;4.076214e-002
2.173474e+003;4.060993e-002
2.175402e+003;4.069860e-002
2.177331e+003;4.064493e-002
2.179259e+003;4.025339e-002
2.181188e+003;4.011458e-002
2.183116e+003;4.032486e-002
2.185045e+003;4.021740e-002
2.186973e+003;4.005197e-002
2.188902e+003;3.997989e-002
2.190831e+003;4.015459e-002
2.192759e+003;4.036697e-002
2.194688e+003;4.026786e-002
2.196616e+003;3.999243e-002
2.198545e+003;3.989699e-002
2.200473e+003;4.022943e-002
2.202402e+003;4.045057e-002
2.204330e+003;4.047079e-002
2.206259e+003;4.057595e-002
2.208188e+003;4.077677e-002
2.210116e+003;4.105128e-002
2.212044e+003;4.140254e-002
2.213973e+003;4.136635e-002
2.215902e+003;4.118099e-002
2.217830e+003;4.127914e-002
2.219759e+003;4.149790e-002
2.221687e+003;4.167690e-002
2.223616e+003;4.164670e-002
2.225544e+003;4.156932e-002
2.227473e+003;4.153611e-002
2.229401e+003;4.146443e-002
2.231330e+003;4.136533e-002
2.233259e+003;4.137149e-002
2.235187e+003;4.143392e-002
2.237116e+003;4.139630e-002
2.239044e+003;4.161589e-002
2.240973e+003;4.180515e-002
2.242901e+003;4.175193e-002
2.244830e+003;4.169747e-002
2.246758e+003;4.192023e-002
2.248687e+003;4.202092e-002
2.250615e+003;4.213522e-002
2.252544e+003;4.251973e-002
2.254473e+003;4.270050e-002
2.256401e+003;4.256537e-002
2.258330e+003;4.247946e-002
2.260258e+003;4.252733e-002
2.262187e+003;4.247296e-002
2.264115e+003;4.231437e-002
2.266044e+003;4.218867e-002
2.267972e+003;4.228552e-002
2.269901e+003;4.238494e-002
2.271830e+003;4.242678e-002
2.273758e+003;4.244570e-002
2.275687e+003;4.267422e-002
2.277615e+003;4.260261e-002
2.279544e+003;4.257235e-002
2.281472e+003;4.284808e-002
2.283401e+003;4.297173e-002
2.285329e+003;4.296508e-002
2.287258e+003;4.292038e-002
2.289187e+003;4.283089e-002
2.291115e+003;4.252879e-002
2.293043e+003;4.213968e-002
2.294972e+003;4.169419e-002
2.296901e+003;4.115130e-002
2.298829e+003;4.091870e-002
2.300758e+003;4.070879e-002
2.302686e+003;4.017935e-002
2.304615e+003;3.973699e-002
2.306543e+003;3.951875e-002
2.308472e+003;3.936869e-002
2.310400e+003;3.935932e-002
2.312329e+003;3.948613e-002
2.314258e+003;3.961258e-002
2.316186e+003;3.964100e-002
2.318115e+003;3.973928e-002
2.320043e+003;3.987557e-002
2.321972e+003;3.966717e-002
2.323900e+003;3.972032e-002
2.325829e+003;3.997004e-002
2.327757e+003;3.990993e-002
2.329686e+003;3.989797e-002
2.331615e+003;3.995588e-002
2.333543e+003;3.997055e-002
2.335472e+003;3.993288e-002
2.337400e+003;4.018113e-002
2.339329e+003;4.032697e-002
2.341257e+003;4.036748e-002
2.343186e+003;4.038595e-002
2.345114e+003;4.025044e-002
2.347043e+003;4.033268e-002
2.348971e+003;4.065559e-002
2.350900e+003;4.108883e-002
2.352829e+003;4.121520e-002
2.354757e+003;4.124380e-002
2.356686e+003;4.124566e-002
2.358614e+003;4.147613e-002
2.360543e+003;4.180074e-002
2.362471e+003;4.198296e-002
2.364400e+003;4.229812e-002
2.366328e+003;4.265422e-002
2.368257e+003;4.269955e-002
2.370186e+003;4.284862e-002
2.372114e+003;4.292012e-002
2.374042e+003;4.285974e-002
2.375971e+003;4.285996e-002
2.377900e+003;4.310019e-002
2.379828e+003;4.338108e-002
2.381757e+003;4.333875e-002
2.383685e+003;4.317440e-002
2.385614e+003;4.329402e-002
2.387542e+003;4.323874e-002
2.389471e+003;4.309770e-002
2.391399e+003;4.299149e-002
2.393328e+003;4.292056e-002
2.395257e+003;4.296987e-002
2.397185e+003;4.316913e-002
2.399114e+003;4.313074e-002
2.401042e+003;4.296848e-002
2.402971e+003;4.282734e-002
2.404899e+003;4.245652e-002
2.406828e+003;4.231912e-002
2.408756e+003;4.240277e-002
2.410685e+003;4.226061e-002
2.412614e+003;4.202925e-002
2.414542e+003;4.171680e-002
2.416471e+003;4.160189e-002
2.418399e+003;4.162376e-002
2.420328e+003;4.141245e-002
2.422256e+003;4.108912e-002
2.424185e+003;4.097070e-002
2.426113e+003;4.093487e-002
2.428042e+003;4.065563e-002
2.429970e+003;4.014689e-002
2.431899e+003;3.988592e-002
2.433828e+003;3.985029e-002
2.435756e+003;3.979433e-002
2.437685e+003;3.957780e-002
2.439613e+003;3.930274e-002
2.441542e+003;3.923560e-002
2.443470e+003;3.913722e-002
2.445399e+003;3.907192e-002
2.447327e+003;3.904100e-002
2.449256e+003;3.896872e-002
2.451185e+003;3.893349e-002
2.453113e+003;3.885772e-002
2.455042e+003;3.877674e-002
2.456970e+003;3.875548e-002
2.458899e+003;3.866800e-002
2.460827e+003;3.844603e-002
2.462756e+003;3.820105e-002
2.464684e+003;3.817627e-002
2.466613e+003;3.854038e-002
2.468542e+003;3.866474e-002
2.470470e+003;3.850692e-002
2.472398e+003;3.854349e-002
2.474327e+003;3.889983e-002
2.476256e+003;3.924380e-002
2.478184e+003;3.933277e-002
2.480113e+003;3.923941e-002
2.482041e+003;3.924793e-002
2.483970e+003;3.939847e-002
2.485898e+003;3.941200e-002
2.487827e+003;3.938929e-002
2.489755e+003;3.954866e-002
2.491684e+003;3.978503e-002
2.493613e+003;3.992435e-002
2.495541e+003;3.990193e-002
2.497470e+003;3.983460e-002
2.499398e+003;4.005499e-002
2.501327e+003;4.026891e-002
2.503255e+003;4.029305e-002
2.505184e+003;4.029211e-002
2.507112e+003;4.040293e-002
2.509041e+003;4.043708e-002
2.510969e+003;4.044162e-002
2.512898e+003;4.047235e-002
2.514827e+003;4.047781e-002
2.516755e+003;4.062470e-002
2.518684e+003;4.073434e-002
2.520612e+003;4.082984e-002
2.522541e+003;4.104265e-002
2.524469e+003;4.114788e-002
2.526398e+003;4.124558e-002
2.528326e+003;4.125531e-002
2.530255e+003;4.132298e-002
2.532184e+003;4.126482e-002
2.534112e+003;4.130760e-002
2.536041e+003;4.162985e-002
2.537969e+003;4.151241e-002
2.539898e+003;4.145167e-002
2.541826e+003;4.135826e-002
2.543755e+003;4.119888e-002
2.545683e+003;4.128235e-002
2.547612e+003;4.142401e-002
2.549541e+003;4.125069e-002
2.551469e+003;4.104134e-002
2.553397e+003;4.108286e-002
2.555326e+003;4.125834e-002
2.557255e+003;4.130724e-002
2.559183e+003;4.128060e-002
2.561112e+003;4.135086e-002
2.563040e+003;4.125378e-002
2.564969e+003;4.126165e-002
2.566897e+003;4.157556e-002
2.568826e+003;4.151839e-002
2.570754e+003;4.128578e-002
2.572683e+003;4.116492e-002
2.574612e+003;4.100700e-002
2.576540e+003;4.090913e-002
2.578469e+003;4.092205e-002
2.580397e+003;4.125615e-002
2.582326e+003;4.146644e-002
2.584254e+003;4.143910e-002
2.586183e+003;4.132491e-002
2.588111e+003;4.108887e-002
2.590040e+003;4.075228e-002
2.591969e+003;4.045635e-002
2.593897e+003;4.034472e-002
2.595826e+003;4.007556e-002
2.597754e+003;3.981223e-002
2.599683e+003;3.996521e-002
2.601611e+003;3.992457e-002
2.603540e+003;3.959287e-002
2.605468e+003;3.943174e-002
2.607397e+003;3.947227e-002
2.609325e+003;3.969201e-002
2.611254e+003;3.962412e-002
2.613183e+003;3.921529e-002
2.615111e+003;3.904999e-002
2.617040e+003;3.911648e-002
2.618968e+003;3.920488e-002
2.620897e+003;3.912540e-002
2.622825e+003;3.893049e-002
2.624754e+003;3.901011e-002
2.626682e+003;3.921410e-002
2.628611e+003;3.933959e-002
2.630540e+003;3.936110e-002
2.632468e+003;3.922744e-002
2.634396e+003;3.889823e-002
2.636325e+003;3.854889e-002
2.638254e+003;3.811300e-002
2.640182e+003;3.771401e-002
2.642111e+003;3.767686e-002
2.644039e+003;3.776410e-002
2.645968e+003;3.774173e-002
2.647896e+003;3.749690e-002
2.649825e+003;3.724820e-002
2.651753e+003;3.728369e-002
2.653682e+003;3.728509e-002
2.655611e+003;3.704611e-002
2.657539e+003;3.696652e-002
2.659468e+003;3.701003e-002
2.661396e+003;3.702252e-002
2.663325e+003;3.688878e-002
2.665253e+003;3.690631e-002
2.667182e+003;3.715680e-002
2.669110e+003;3.728415e-002
2.671039e+003;3.718716e-002
2.672968e+003;3.716759e-002
2.674896e+003;3.718528e-002
2.676825e+003;3.734128e-002
2.678753e+003;3.759624e-002
2.680682e+003;3.747187e-002
2.682610e+003;3.730192e-002
2.684539e+003;3.724369e-002
2.686467e+003;3.726343e-002
2.688396e+003;3.712608e-002
2.690324e+003;3.707877e-002
2.692253e+003;3.719907e-002
2.694182e+003;3.729196e-002
2.696110e+003;3.731373e-002
2.698039e+003;3.740801e-002
2.699967e+003;3.765771e-002
2.701896e+003;3.772648e-002
2.703824e+003;3.773316e-002
2.705753e+003;3.778106e-002
2.707681e+003;3.761651e-002
2.709610e+003;3.753855e-002
2.711539e+003;3.748148e-002
2.713467e+003;3.759766e-002
2.715396e+003;3.784084e-002
2.717324e+003;3.808464e-002
2.719253e+003;3.833997e-002
2.721181e+003;3.834515e-002
2.723110e+003;3.817772e-002
2.725038e+003;3.812971e-002
2.726967e+003;3.820286e-002
2.728896e+003;3.858517e-002
2.730824e+003;3.887859e-002
2.732752e+003;3.901621e-002
2.734681e+003;3.903332e-002
2.736610e+003;3.911358e-002
2.738538e+003;3.919288e-002
2.740467e+003;3.949074e-002
2.742395e+003;3.959592e-002
2.744324e+003;3.945025e-002
2.746252e+003;3.969687e-002
2.748181e+003;3.983580e-002
2.750109e+003;3.970860e-002
2.752038e+003;3.952533e-002
2.753967e+003;3.946342e-002
2.755895e+003;3.953004e-002
2.757824e+003;3.928460e-002
2.759752e+003;3.905235e-002
2.761681e+003;3.903973e-002
2.763609e+003;3.920927e-002
2.765538e+003;3.933629e-002
2.767466e+003;3.928830e-002
2.769395e+003;3.939147e-002
2.771323e+003;3.947757e-002
2.773252e+003;3.946962e-002
2.775181e+003;3.956662e-002
2.777109e+003;3.986453e-002
2.779038e+003;3.998534e-002
2.780966e+003;4.031443e-002
2.782895e+003;4.056660e-002
2.784823e+003;4.047338e-002
2.786752e+003;4.061426e-002
2.788680e+003;4.106162e-002
2.790609e+003;4.154456e-002
2.792538e+003;4.169419e-002
2.794466e+003;4.179030e-002
2.796395e+003;4.209652e-002
2.798323e+003;4.240197e-002
2.800252e+003;4.265708e-002
2.802180e+003;4.260605e-002
2.804109e+003;4.259172e-002
2.806037e+003;4.278668e-002
2.807966e+003;4.301106e-002
2.809895e+003;4.296570e-002
2.811823e+003;4.249123e-002
2.813751e+003;4.213789e-002
2.815680e+003;4.201793e-002
2.817609e+003;4.222899e-002
2.819537e+003;4.231898e-002
2.821466e+003;4.206776e-002
2.823394e+003;4.204074e-002
2.825323e+003;4.212879e-002
2.827251e+003;4.225908e-002
2.829180e+003;4.236255e-002
2.831108e+003;4.272876e-002
2.833037e+003;4.339162e-002
2.834966e+003;4.376585e-002
2.836894e+003;4.385278e-002
2.838823e+003;4.413548e-002
2.840751e+003;4.448355e-002
2.842680e+003;4.486798e-002
2.844608e+003;4.541940e-002
2.846537e+003;4.581390e-002
2.848465e+003;4.590894e-002
2.850394e+003;4.607555e-002
2.852323e+003;4.644317e-002
2.854251e+003;4.703344e-002
2.856180e+003;4.750751e-002
2.858108e+003;4.775483e-002
2.860037e+003;4.817285e-002
2.861965e+003;4.850610e-002
2.863894e+003;4.852277e-002
2.865822e+003;4.886366e-002
2.867751e+003;4.920155e-002
2.869679e+003;4.936137e-002
2.871608e+003;4.941918e-002
2.873536e+003;4.930677e-002
2.875465e+003;4.941854e-002
2.877394e+003;4.970927e-002
2.879322e+003;5.015630e-002
2.881251e+003;5.045630e-002
2.883179e+003;5.055706e-002
2.885108e+003;5.077760e-002
2.887036e+003;5.123716e-002
2.888965e+003;5.144138e-002
2.890893e+003;5.136764e-002
2.892822e+003;5.152811e-002
2.894750e+003;5.203501e-002
2.896679e+003;5.259254e-002
2.898608e+003;5.278373e-002
2.900536e+003;5.322899e-002
2.902465e+003;5.398911e-002
2.904393e+003;5.492494e-002
2.906322e+003;5.540484e-002
2.908250e+003;5.546628e-002
2.910179e+003;5.538526e-002
2.912107e+003;5.491595e-002
2.914036e+003;5.404791e-002
2.915965e+003;5.320674e-002
2.917893e+003;5.266473e-002
2.919822e+003;5.224086e-002
2.921750e+003;5.147886e-002
2.923679e+003;5.079532e-002
2.925607e+003;5.025601e-002
2.927536e+003;4.993466e-002
2.929464e+003;5.000566e-002
2.931393e+003;5.024195e-002
2.933322e+003;5.063390e-002
2.935250e+003;5.090178e-002
2.937178e+003;5.123977e-002
2.939107e+003;5.197798e-002
2.941036e+003;5.264116e-002
2.942964e+003;5.312955e-002
2.944893e+003;5.404870e-002
2.946821e+003;5.493693e-002
2.948750e+003;5.549692e-002
2.950678e+003;5.606951e-002
2.952607e+003;5.647026e-002
2.954535e+003;5.706669e-002
2.956464e+003;5.779780e-002
2.958393e+003;5.843014e-002
2.960321e+003;5.880857e-002
2.962250e+003;5.904780e-002
2.964178e+003;5.933157e-002
2.966107e+003;5.971283e-002
2.968035e+003;6.027411e-002
2.969964e+003;6.057426e-002
2.971892e+003;6.054245e-002
2.973821e+003;6.013766e-002
2.975750e+003;5.954927e-002
2.977678e+003;5.884898e-002
2.979607e+003;5.835305e-002
2.981535e+003;5.796665e-002
2.983464e+003;5.732365e-002
2.985392e+003;5.656635e-002
2.987321e+003;5.628389e-002
2.989249e+003;5.588373e-002
2.991178e+003;5.527439e-002
2.993106e+003;5.497807e-002
2.995035e+003;5.494159e-002
2.996964e+003;5.475884e-002
2.998892e+003;5.450705e-002
3.000821e+003;5.445649e-002
3.002749e+003;5.425146e-002
3.004678e+003;5.376750e-002
3.006606e+003;5.331697e-002
3.008535e+003;5.298841e-002
3.010463e+003;5.270243e-002
3.012392e+003;5.220817e-002
3.014321e+003;5.183575e-002
3.016249e+003;5.173514e-002
3.018177e+003;5.115399e-002
3.020106e+003;5.050733e-002
3.022035e+003;4.970983e-002
3.023963e+003;4.874120e-002
3.025892e+003;4.805992e-002
3.027820e+003;4.758499e-002
3.029749e+003;4.713038e-002
3.031677e+003;4.673748e-002
3.033606e+003;4.633787e-002
3.035534e+003;4.620238e-002
3.037463e+003;4.591152e-002
3.039392e+003;4.554059e-002
3.041320e+003;4.560197e-002
3.043249e+003;4.619291e-002
3.045177e+003;4.691530e-002
3.047106e+003;4.777214e-002
3.049034e+003;4.861096e-002
3.050963e+003;4.917131e-002
3.052891e+003;4.960819e-002
3.054820e+003;4.986526e-002
3.056749e+003;4.997496e-002
3.058677e+003;4.996889e-002
3.060606e+003;4.996094e-002
3.062534e+003;4.968601e-002
3.064463e+003;4.953863e-002
3.066391e+003;4.958870e-002
3.068320e+003;4.962584e-002
3.070248e+003;4.968657e-002
3.072177e+003;4.966324e-002
3.074105e+003;4.950142e-002
3.076034e+003;4.930777e-002
3.077963e+003;4.933854e-002
3.079891e+003;4.937043e-002
3.081820e+003;4.914014e-002
3.083748e+003;4.900054e-002
3.085677e+003;4.881546e-002
3.087605e+003;4.832459e-002
3.089534e+003;4.791331e-002
3.091462e+003;4.764097e-002
3.093391e+003;4.715387e-002
3.095320e+003;4.695963e-002
3.097248e+003;4.736522e-002
3.099177e+003;4.763032e-002
3.101105e+003;4.758000e-002
3.103034e+003;4.786710e-002
3.104962e+003;4.799778e-002
3.106891e+003;4.786310e-002
3.108819e+003;4.798450e-002
3.110748e+003;4.754299e-002
3.112677e+003;4.688215e-002
3.114605e+003;4.635734e-002
3.116533e+003;4.554541e-002
3.118462e+003;4.528787e-002
3.120391e+003;4.539490e-002
3.122319e+003;4.505573e-002
3.124248e+003;4.479384e-002
3.126176e+003;4.491112e-002
3.128105e+003;4.507275e-002
3.130033e+003;4.466897e-002
3.131962e+003;4.428204e-002
3.133890e+003;4.405535e-002
3.135819e+003;4.377358e-002
3.137748e+003;4.332272e-002
3.139676e+003;4.304117e-002
3.141605e+003;4.292466e-002
3.143533e+003;4.281249e-002
3.145462e+003;4.248272e-002
3.147390e+003;4.224608e-002
3.149319e+003;4.206681e-002
3.151247e+003;4.211175e-002
3.153176e+003;4.186918e-002
3.155104e+003;4.146757e-002
3.157033e+003;4.137841e-002
3.158962e+003;4.133942e-002
3.160890e+003;4.108902e-002
3.162819e+003;4.103326e-002
3.164747e+003;4.124216e-002
3.166676e+003;4.109167e-002
3.168604e+003;4.084837e-002
3.170533e+003;4.086828e-002
3.172461e+003;4.109193e-002
3.174390e+003;4.107208e-002
3.176319e+003;4.119079e-002
3.178247e+003;4.110489e-002
3.180176e+003;4.059381e-002
3.182104e+003;4.026466e-002
3.184033e+003;4.012799e-002
3.185961e+003;4.016506e-002
3.187890e+003;4.042089e-002
3.189818e+003;4.040373e-002
3.191747e+003;4.033243e-002
3.193676e+003;4.064307e-002
3.195604e+003;4.065606e-002
3.197532e+003;4.021562e-002
3.199461e+003;4.013944e-002
3.201390e+003;4.020962e-002
3.203318e+003;4.004260e-002
3.205247e+003;3.993121e-002
3.207175e+003;4.006306e-002
3.209104e+003;4.022794e-002
3.211032e+003;4.041889e-002
3.212961e+003;4.027124e-002
3.214889e+003;3.990183e-002
3.216818e+003;3.971081e-002
3.218747e+003;3.995588e-002
3.220675e+003;3.996935e-002
3.222604e+003;3.967857e-002
3.224532e+003;3.950743e-002
3.226461e+003;3.982741e-002
3.228389e+003;4.020493e-002
3.230318e+003;4.006353e-002
3.232246e+003;3.973674e-002
3.234175e+003;3.980137e-002
3.236104e+003;3.999984e-002
3.238032e+003;3.980042e-002
3.239961e+003;3.971891e-002
3.241889e+003;3.961632e-002
3.243818e+003;3.958717e-002
3.245746e+003;3.963280e-002
3.247675e+003;3.952562e-002
3.249603e+003;3.942688e-002
3.251532e+003;3.936524e-002
3.253460e+003;3.919984e-002
3.255389e+003;3.915426e-002
3.257318e+003;3.892712e-002
3.259246e+003;3.885986e-002
3.261175e+003;3.909578e-002
3.263103e+003;3.900254e-002
3.265032e+003;3.888765e-002
3.266960e+003;3.909404e-002
3.268889e+003;3.916050e-002
3.270817e+003;3.901679e-002
3.272746e+003;3.879779e-002
3.274675e+003;3.822095e-002
3.276603e+003;3.812320e-002
3.278531e+003;3.873124e-002
3.280460e+003;3.927318e-002
3.282389e+003;3.925943e-002
3.284317e+003;3.916104e-002
3.286246e+003;3.920974e-002
3.288174e+003;3.898409e-002
3.290103e+003;3.907160e-002
3.292031e+003;3.938029e-002
3.293960e+003;3.948824e-002
3.295888e+003;3.934510e-002
3.297817e+003;3.910285e-002
3.299746e+003;3.918530e-002
3.301674e+003;3.934975e-002
3.303603e+003;3.912921e-002
3.305531e+003;3.912993e-002
3.307460e+003;3.929548e-002
3.309388e+003;3.916902e-002
3.311317e+003;3.875935e-002
3.313245e+003;3.856145e-002
3.315174e+003;3.846036e-002
3.317103e+003;3.843227e-002
3.319031e+003;3.856283e-002
3.320960e+003;3.847010e-002
3.322888e+003;3.860958e-002
3.324817e+003;3.887544e-002
3.326745e+003;3.907377e-002
3.328674e+003;3.926937e-002
3.330602e+003;3.915966e-002
3.332531e+003;3.895307e-002
3.334459e+003;3.899297e-002
3.336388e+003;3.906341e-002
3.338317e+003;3.887584e-002
3.340245e+003;3.916090e-002
3.342174e+003;3.956746e-002
3.344102e+003;3.946139e-002
3.346031e+003;3.909991e-002
3.347959e+003;3.867752e-002
3.349888e+003;3.839271e-002
3.351816e+003;3.831413e-002
3.353745e+003;3.809679e-002
3.355674e+003;3.799064e-002
3.357602e+003;3.788213e-002
3.359531e+003;3.767704e-002
3.361459e+003;3.741928e-002
3.363388e+003;3.736208e-002
3.365316e+003;3.713489e-002
3.367245e+003;3.703911e-002
3.369173e+003;3.696280e-002
3.371102e+003;3.668167e-002
3.373031e+003;3.663862e-002
3.374959e+003;3.660499e-002
3.376887e+003;3.693023e-002
3.378816e+003;3.729387e-002
3.380745e+003;3.718539e-002
3.382673e+003;3.686519e-002
3.384602e+003;3.680077e-002
3.386530e+003;3.670958e-002
3.388459e+003;3.663001e-002
3.390387e+003;3.671762e-002
3.392316e+003;3.722589e-002
3.394244e+003;3.763700e-002
3.396173e+003;3.764130e-002
3.398102e+003;3.770364e-002
3.400030e+003;3.811549e-002
3.401959e+003;3.863757e-002
3.403887e+003;3.886004e-002
3.405816e+003;3.902907e-002
3.407744e+003;3.923176e-002
3.409673e+003;3.983191e-002
3.411601e+003;4.072906e-002
3.413530e+003;4.138231e-002
3.415458e+003;4.180971e-002
3.417387e+003;4.229911e-002
3.419316e+003;4.279600e-002
3.421244e+003;4.339748e-002
3.423173e+003;4.422616e-002
3.425101e+003;4.509697e-002
3.427030e+003;4.560966e-002
3.428958e+003;4.604748e-002
3.430887e+003;4.631129e-002
3.432815e+003;4.597903e-002
3.434744e+003;4.525227e-002
3.436673e+003;4.489616e-002
3.438601e+003;4.474011e-002
3.440530e+003;4.399092e-002
3.442458e+003;4.337819e-002
3.444387e+003;4.304421e-002
3.446315e+003;4.275151e-002
3.448244e+003;4.195293e-002
3.450172e+003;4.110981e-002
3.452101e+003;4.054412e-002
3.454030e+003;4.035449e-002
3.455958e+003;4.006207e-002
3.457886e+003;3.953425e-002
3.459815e+003;3.925598e-002
3.461744e+003;3.878877e-002
3.463672e+003;3.816086e-002
3.465601e+003;3.779942e-002
3.467529e+003;3.750553e-002
3.469458e+003;3.733601e-002
3.471386e+003;3.716290e-002
3.473315e+003;3.672414e-002
3.475243e+003;3.678768e-002
3.477172e+003;3.669270e-002
3.479101e+003;3.610681e-002
3.481029e+003;3.588999e-002
3.482958e+003;3.585587e-002
3.484886e+003;3.582543e-002
3.486815e+003;3.603811e-002
3.488743e+003;3.596651e-002
3.490672e+003;3.570411e-002
3.492600e+003;3.546672e-002
3.494529e+003;3.546291e-002
3.496458e+003;3.570879e-002
3.498386e+003;3.638612e-002
3.500315e+003;3.650450e-002
3.502243e+003;3.593393e-002
3.504172e+003;3.587078e-002
3.506100e+003;3.623187e-002
3.508029e+003;3.609744e-002
3.509957e+003;3.587121e-002
3.511886e+003;3.601763e-002
3.513814e+003;3.621761e-002
3.515743e+003;3.636980e-002
3.517672e+003;3.626731e-002
3.519600e+003;3.629123e-002
3.521529e+003;3.642900e-002
3.523457e+003;3.652493e-002
3.525386e+003;3.702158e-002
3.527314e+003;3.746139e-002
3.529243e+003;3.753822e-002
3.531171e+003;3.765391e-002
3.533100e+003;3.748964e-002
3.535029e+003;3.739100e-002
3.536957e+003;3.728120e-002
3.538885e+003;3.733568e-002
3.540814e+003;3.747490e-002
3.542743e+003;3.755932e-002
3.544671e+003;3.764994e-002
3.546600e+003;3.725188e-002
3.548528e+003;3.661422e-002
3.550457e+003;3.662604e-002
3.552385e+003;3.715864e-002
3.554314e+003;3.736677e-002
3.556242e+003;3.722748e-002
3.558171e+003;3.723859e-002
3.560100e+003;3.718048e-002
3.562028e+003;3.691031e-002
3.563957e+003;3.674080e-002
3.565885e+003;3.665679e-002
3.567814e+003;3.629231e-002
3.569742e+003;3.592893e-002
3.571671e+003;3.573523e-002
3.573599e+003;3.573347e-002
3.575528e+003;3.559855e-002
3.577457e+003;3.532236e-002
3.579385e+003;3.525051e-002
3.581314e+003;3.490653e-002
3.583242e+003;3.433372e-002
3.585171e+003;3.447313e-002
3.587099e+003;3.448454e-002
3.589028e+003;3.427668e-002
3.590956e+003;3.422013e-002
3.592885e+003;3.364709e-002
3.594813e+003;3.346045e-002
3.596742e+003;3.374137e-002
3.598671e+003;3.389309e-002
3.600599e+003;3.390677e-002
3.602528e+003;3.369603e-002
3.604456e+003;3.335556e-002
3.606385e+003;3.322059e-002
3.608313e+003;3.308641e-002
3.610242e+003;3.335356e-002
3.612170e+003;3.370634e-002
3.614099e+003;3.381188e-002
3.616028e+003;3.385547e-002
3.617956e+003;3.375433e-002
3.619885e+003;3.347154e-002
3.621813e+003;3.333320e-002
3.623742e+003;3.350096e-002
3.625670e+003;3.412640e-002
3.627599e+003;3.425470e-002
3.629527e+003;3.370291e-002
3.631456e+003;3.330566e-002
3.633385e+003;3.361290e-002
3.635313e+003;3.381507e-002
3.637241e+003;3.383219e-002
3.639170e+003;3.380486e-002
3.641099e+003;3.365979e-002
3.643027e+003;3.358286e-002
3.644956e+003;3.355522e-002
3.646884e+003;3.325450e-002
3.648813e+003;3.308877e-002
3.650741e+003;3.308695e-002
3.652670e+003;3.297025e-002
3.654598e+003;3.273217e-002
3.656527e+003;3.243712e-002
3.658456e+003;3.246458e-002
3.660384e+003;3.268626e-002
3.662313e+003;3.276647e-002
3.664241e+003;3.257796e-002
3.666170e+003;3.227056e-002
3.668098e+003;3.175647e-002
3.670027e+003;3.140954e-002
3.671955e+003;3.145207e-002
3.673884e+003;3.143732e-002
3.675813e+003;3.139344e-002
3.677741e+003;3.172834e-002
3.679669e+003;3.175436e-002
3.681598e+003;3.203668e-002
3.683527e+003;3.245954e-002
3.685455e+003;3.264786e-002
3.687384e+003;3.252693e-002
3.689312e+003;3.205123e-002
3.691241e+003;3.136623e-002
3.693169e+003;3.121346e-002
3.695098e+003;3.112215e-002
3.697026e+003;3.098068e-002
3.698955e+003;3.101869e-002
3.700884e+003;3.082290e-002
3.702812e+003;3.048588e-002
3.704741e+003;3.028728e-002
3.706669e+003;3.007931e-002
3.708598e+003;2.991745e-002
3.710526e+003;2.971964e-002
3.712455e+003;2.940603e-002
3.714383e+003;2.975938e-002
3.716312e+003;3.030049e-002
3.718240e+003;3.055947e-002
3.720169e+003;3.053718e-002
3.722098e+003;3.026557e-002
3.724026e+003;3.018525e-002
3.725955e+003;3.025793e-002
3.727883e+003;3.000752e-002
3.729812e+003;2.985832e-002
3.731740e+003;3.002215e-002
3.733669e+003;3.015709e-002
3.735597e+003;3.012680e-002
3.737526e+003;2.995086e-002
3.739455e+003;2.985165e-002
3.741383e+003;2.991941e-002
3.743312e+003;2.995998e-002
3.745240e+003;3.005208e-002
3.747169e+003;3.022347e-002
3.749097e+003;3.020547e-002
3.751026e+003;3.017481e-002
3.752954e+003;3.037582e-002
3.754883e+003;3.093129e-002
3.756812e+003;3.155888e-002
3.758740e+003;3.169530e-002
3.760668e+003;3.175169e-002
3.762597e+003;3.172645e-002
3.764526e+003;3.139330e-002
3.766454e+003;3.100552e-002
3.768383e+003;3.064653e-002
3.770311e+003;3.059356e-002
3.772240e+003;3.068035e-002
3.774168e+003;3.037603e-002
3.776097e+003;3.003670e-002
3.778025e+003;3.000365e-002
3.779954e+003;3.007136e-002
3.781883e+003;3.005588e-002
3.783811e+003;3.037881e-002
3.785740e+003;3.059843e-002
3.787668e+003;3.049502e-002
3.789597e+003;3.048745e-002
3.791525e+003;3.052079e-002
3.793454e+003;3.048713e-002
3.795382e+003;3.010325e-002
3.797311e+003;3.015989e-002
3.799240e+003;3.068899e-002
3.801168e+003;3.120250e-002
3.803097e+003;3.143846e-002
3.805025e+003;3.131074e-002
3.806954e+003;3.074767e-002
3.808882e+003;3.069127e-002
3.810811e+003;3.092183e-002
3.812739e+003;3.085879e-002
3.814668e+003;3.077755e-002
3.816596e+003;3.061645e-002
3.818525e+003;3.049736e-002
3.820454e+003;3.070919e-002
3.822382e+003;3.094884e-002
3.824311e+003;3.099363e-002
3.826239e+003;3.091098e-002
3.828168e+003;3.120485e-002
3.830096e+003;3.114518e-002
3.832025e+003;3.039846e-002
3.833953e+003;3.031122e-002
3.835882e+003;3.052648e-002
3.837811e+003;3.032583e-002
3.839739e+003;3.056419e-002
3.841667e+003;3.063853e-002
3.843596e+003;3.032927e-002
3.845525e+003;3.054500e-002
3.847453e+003;3.073643e-002
3.849382e+003;3.048837e-002
3.851310e+003;3.038541e-002
3.853239e+003;2.996282e-002
3.855167e+003;2.988405e-002
3.857096e+003;3.041313e-002
3.859024e+003;3.042671e-002
3.860953e+003;3.046989e-002
3.862882e+003;3.083158e-002
3.864810e+003;3.116896e-002
3.866739e+003;3.105513e-002
3.868667e+003;3.053970e-002
3.870596e+003;3.059662e-002
3.872524e+003;3.113600e-002
3.874453e+003;3.125601e-002
3.876381e+003;3.103904e-002
3.878310e+003;3.090980e-002
3.880239e+003;3.098687e-002
3.882167e+003;3.117281e-002
3.884096e+003;3.151110e-002
3.886024e+003;3.148912e-002
3.887953e+003;3.121535e-002
3.889881e+003;3.115778e-002
3.891810e+003;3.150508e-002
3.893738e+003;3.167801e-002
3.895667e+003;3.130547e-002
3.897595e+003;3.065678e-002
3.899524e+003;3.069664e-002
3.901453e+003;3.097976e-002
3.903381e+003;3.130269e-002
3.905310e+003;3.157164e-002
3.907238e+003;3.180905e-002
3.909167e+003;3.271609e-002
3.911095e+003;3.290795e-002
3.913024e+003;3.244672e-002
3.914952e+003;3.231146e-002
3.916881e+003;3.265554e-002
3.918810e+003;3.310200e-002
3.920738e+003;3.268022e-002
3.922667e+003;3.187390e-002
3.924595e+003;3.206197e-002
3.926524e+003;3.258442e-002
3.928452e+003;3.271466e-002
3.930381e+003;3.277840e-002
3.932309e+003;3.272131e-002
3.934238e+003;3.243205e-002
3.936167e+003;3.215551e-002
3.938095e+003;3.244894e-002
3.940023e+003;3.259871e-002
3.941952e+003;3.278966e-002
3.943881e+003;3.284408e-002
3.945809e+003;3.255228e-002
3.947738e+003;3.272345e-002
3.949666e+003;3.279520e-002
3.951595e+003;3.286567e-002
3.953523e+003;3.302995e-002
3.955452e+003;3.286338e-002
3.957380e+003;3.247618e-002
3.959309e+003;3.263361e-002
3.961238e+003;3.298473e-002
3.963166e+003;3.301455e-002
3.965095e+003;3.298062e-002
3.967023e+003;3.305477e-002
3.968952e+003;3.318915e-002
3.970880e+003;3.308155e-002
3.972809e+003;3.285437e-002
3.974737e+003;3.267594e-002
3.976666e+003;3.229208e-002
3.978594e+003;3.256367e-002
3.980523e+003;3.305634e-002
3.982452e+003;3.311531e-002
3.984380e+003;3.291531e-002
3.986309e+003;3.283840e-002
3.988237e+003;3.306549e-002
3.990166e+003;3.325708e-002
3.992094e+003;3.310283e-002
3.994023e+003;3.300586e-002
3.995951e+003;3.294777e-002
3.997880e+003;3.291928e-002
3.999809e+003;3.310200e-002
4.001737e+003;0.000000e+000
