3.992094e+002;0.000000e+000
4.011380e+002;0.000000e+000
4.030665e+002;0.000000e+000
4.049951e+002;0.000000e+000
4.069236e+002;0.000000e+000
4.088522e+002;0.000000e+000
4.107807e+002;0.000000e+000
4.127093e+002;0.000000e+000
4.146378e+002;0.000000e+000
4.165664e+002;0.000000e+000
4.184949e+002;0.000000e+000
4.204235e+002;0.000000e+000
4.223520e+002;0.000000e+000
4.242806e+002;0.000000e+000
4.262091e+002;0.000000e+000
4.281377e+002;0.000000e+000
4.300662e+002;0.000000e+000
4.319948e+002;0.000000e+000
4.339233e+002;0.000000e+000
4.358519e+002;0.000000e+000
4.377804e+002;0.000000e+000
4.397090e+002;0.000000e+000
4.416375e+002;0.000000e+000
4.435660e+002;0.000000e+000
4.454946e+002;0.000000e+000
4.474232e+002;0.000000e+000
4.493517e+002;0.000000e+000
4.512802e+002;0.000000e+000
4.532088e+002;0.000000e+000
4.551373e+002;0.000000e+000
4.570659e+002;0.000000e+000
4.589944e+002;0.000000e+000
4.609230e+002;0.000000e+000
4.628515e+002;0.000000e+000
4.647801e+002;0.000000e+000
4.667086e+002;0.000000e+000
4.686372e+002;0.000000e+000
4.705657e+002;0.000000e+000
4.724943e+002;0.000000e+000
4.744228e+002;0.000000e+000
4.763513e+002;0.000000e+000
4.782799e+002;0.000000e+000
4.802085e+002;0.000000e+000
4.821370e+002;0.000000e+000
4.840656e+002;0.000000e+000
4.859941e+002;0.000000e+000
4.879226e+002;0.000000e+000
4.898512e+002;0.000000e+000
4.917798e+002;0.000000e+000
4.937083e+002;0.000000e+000
4.956368e+002;0.000000e+000
4.975654e+002;0.000000e+000
4.994939e+002;0.000000e+000
5.014225e+002;0.000000e+000
5.033510e+002;0.000000e+000
5.052796e+002;0.000000e+000
5.072081e+002;0.000000e+000
5.091367e+002;0.000000e+000
5.110652e+002;0.000000e+000
5.129938e+002;0.000000e+000
5.149223e+002;0.000000e+000
5.168509e+002;0.000000e+000
5.187794e+002;0.000000e+000
5.207079e+002;0.000000e+000
5.226365e+002;0.000000e+000
5.245651e+002;0.000000e+000
5.264936e+002;0.000000e+000
5.284222e+002;0.000000e+000
5.303507e+002;0.000000e+000
5.322792e+002;0.000000e+000
5.342078e+002;0.000000e+000
5.361364e+002;0.000000e+000
5.380649e+002;0.000000e+000
5.399935e+002;0.000000e+000
5.419220e+002;0.000000e+000
5.438505e+002;0.000000e+000
5.457791e+002;0.000000e+000
5.477076e+002;0.000000e+000
5.496362e+002;0.000000e+000
5.515648e+002;0.000000e+000
5.534933e+002;0.000000e+000
5.554218e+002;0.000000e+000
5.573504e+002;0.000000e+000
5.592789e+002;0.000000e+000
5.612075e+002;0.000000e+000
5.631360e+002;0.000000e+000
5.650646e+002;0.000000e+000
5.669931e+002;0.000000e+000
5.689217e+002;0.000000e+000
5.708502e+002;0.000000e+000
5.727787e+002;0.000000e+000
5.747073e+002;0.000000e+000
5.766359e+002;0.000000e+000
5.785644e+002;0.000000e+000
5.804930e+002;0.000000e+000
5.824215e+002;0.000000e+000
5.843500e+002;0.000000e+000
5.862786e+002;0.000000e+000
5.882072e+002;0.000000e+000
5.901357e+002;0.000000e+000
5.920643e+002;0.000000e+000
5.939928e+002;0.000000e+000
5.959213e+002;0.000000e+000
5.978499e+002;0.000000e+000
5.997784e+002;8.149274e-002
6.017070e+002;8.227360e-002
6.036355e+002;8.078708e-002
6.055641e+002;8.084080e-002
6.074926e+002;8.369368e-002
6.094211e+002;8.393653e-002
6.113497e+002;8.249511e-002
6.132783e+002;7.946080e-002
6.152068e+002;7.880812e-002
6.171354e+002;8.009618e-002
6.190639e+002;8.157490e-002
6.209924e+002;8.045449e-002
6.229210e+002;7.815832e-002
6.248495e+002;8.290240e-002
6.267781e+002;9.028410e-002
6.287067e+002;9.482056e-002
6.306352e+002;9.611366e-002
6.325637e+002;9.500002e-002
6.344923e+002;9.351782e-002
6.364208e+002;9.039099e-002
6.383494e+002;8.736218e-002
6.402780e+002;8.593941e-002
6.422065e+002;8.571497e-002
6.441350e+002;8.492997e-002
6.460636e+002;8.553603e-002
6.479921e+002;8.740286e-002
6.499207e+002;8.706561e-002
6.518492e+002;8.755504e-002
6.537778e+002;8.954426e-002
6.557063e+002;9.027851e-002
6.576349e+002;8.947569e-002
6.595634e+002;9.152075e-002
6.614919e+002;9.727750e-002
6.634205e+002;1.023945e-001
6.653491e+002;1.037061e-001
6.672776e+002;1.031686e-001
6.692062e+002;1.058215e-001
6.711347e+002;1.089942e-001
6.730632e+002;1.111390e-001
6.749918e+002;1.130507e-001
6.769203e+002;1.167724e-001
6.788489e+002;1.218180e-001
6.807775e+002;1.255580e-001
6.827060e+002;1.258552e-001
6.846345e+002;1.256608e-001
6.865631e+002;1.260930e-001
6.884916e+002;1.271287e-001
6.904202e+002;1.292201e-001
6.923488e+002;1.324137e-001
6.942773e+002;1.385887e-001
6.962058e+002;1.491264e-001
6.981344e+002;1.636807e-001
7.000629e+002;1.792116e-001
7.019915e+002;1.930100e-001
7.039200e+002;2.065550e-001
7.058486e+002;2.208273e-001
7.077771e+002;2.363243e-001
7.097057e+002;2.534766e-001
7.116342e+002;2.744583e-001
7.135627e+002;3.030579e-001
7.154913e+002;3.425409e-001
7.174199e+002;3.922184e-001
7.193484e+002;4.431771e-001
7.212770e+002;4.862931e-001
7.232055e+002;5.125597e-001
7.251340e+002;5.009706e-001
7.270626e+002;4.516797e-001
7.289911e+002;3.891203e-001
7.309197e+002;3.307841e-001
7.328483e+002;2.801781e-001
7.347768e+002;2.347401e-001
7.367053e+002;1.933585e-001
7.386339e+002;1.568462e-001
7.405624e+002;1.291168e-001
7.424910e+002;1.110080e-001
7.444196e+002;9.824359e-002
7.463481e+002;9.039829e-002
7.482766e+002;8.620716e-002
7.502052e+002;8.439068e-002
7.521337e+002;8.296950e-002
7.540623e+002;8.219925e-002
7.559908e+002;8.209083e-002
7.579194e+002;8.292682e-002
7.598479e+002;8.383998e-002
7.617765e+002;8.492316e-002
7.637050e+002;8.635310e-002
7.656335e+002;8.763993e-002
7.675621e+002;8.933891e-002
7.694907e+002;9.209017e-002
7.714192e+002;9.429497e-002
7.733478e+002;9.617915e-002
7.752763e+002;9.823092e-002
7.772048e+002;1.003831e-001
7.791334e+002;1.023579e-001
7.810620e+002;1.050209e-001
7.829905e+002;1.091893e-001
7.849191e+002;1.134994e-001
7.868476e+002;1.173662e-001
7.887761e+002;1.220306e-001
7.907047e+002;1.269400e-001
7.926332e+002;1.273419e-001
7.945618e+002;1.222519e-001
7.964903e+002;1.144499e-001
7.984189e+002;1.077599e-001
8.003474e+002;1.048371e-001
8.022759e+002;1.042887e-001
8.042045e+002;1.047570e-001
8.061331e+002;1.053187e-001
8.080616e+002;1.059155e-001
8.099902e+002;1.067377e-001
8.119187e+002;1.076393e-001
8.138472e+002;1.080714e-001
8.157758e+002;1.089363e-001
8.177043e+002;1.097226e-001
8.196329e+002;1.103953e-001
8.215615e+002;1.118491e-001
8.234900e+002;1.132919e-001
8.254185e+002;1.143636e-001
8.273471e+002;1.163853e-001
8.292756e+002;1.194381e-001
8.312042e+002;1.232117e-001
8.331328e+002;1.277567e-001
8.350613e+002;1.319783e-001
8.369898e+002;1.355222e-001
8.389184e+002;1.408118e-001
8.408469e+002;1.475497e-001
8.427755e+002;1.534508e-001
8.447040e+002;1.587738e-001
8.466326e+002;1.624914e-001
8.485611e+002;1.624747e-001
8.504897e+002;1.590434e-001
8.524182e+002;1.546026e-001
8.543467e+002;1.514726e-001
8.562753e+002;1.500636e-001
8.582039e+002;1.498623e-001
8.601324e+002;1.500836e-001
8.620610e+002;1.514478e-001
8.639895e+002;1.562432e-001
8.659180e+002;1.651786e-001
8.678466e+002;1.811952e-001
8.697751e+002;2.060686e-001
8.717037e+002;2.269787e-001
8.736323e+002;2.250140e-001
8.755608e+002;2.066705e-001
8.774893e+002;1.879584e-001
8.794179e+002;1.713024e-001
8.813464e+002;1.555568e-001
8.832750e+002;1.421724e-001
8.852036e+002;1.317011e-001
8.871321e+002;1.238865e-001
8.890606e+002;1.188959e-001
8.909892e+002;1.163376e-001
8.929177e+002;1.151183e-001
8.948463e+002;1.147966e-001
8.967748e+002;1.144068e-001
8.987034e+002;1.137641e-001
9.006319e+002;1.134026e-001
9.025605e+002;1.123746e-001
9.044890e+002;1.109075e-001
9.064175e+002;1.090743e-001
9.083461e+002;1.066370e-001
9.102747e+002;1.045368e-001
9.122032e+002;1.030040e-001
9.141318e+002;1.018249e-001
9.160603e+002;1.010416e-001
9.179888e+002;1.003334e-001
9.199174e+002;1.002152e-001
9.218459e+002;1.003385e-001
9.237745e+002;1.005926e-001
9.257031e+002;1.012998e-001
9.276316e+002;1.020928e-001
9.295601e+002;1.026606e-001
9.314887e+002;1.034657e-001
9.334172e+002;1.046894e-001
9.353458e+002;1.058335e-001
9.372744e+002;1.070908e-001
9.392029e+002;1.087339e-001
9.411314e+002;1.103808e-001
9.430600e+002;1.120678e-001
9.449885e+002;1.139661e-001
9.469171e+002;1.158653e-001
9.488456e+002;1.180805e-001
9.507742e+002;1.210254e-001
9.527027e+002;1.239846e-001
9.546313e+002;1.265215e-001
9.565598e+002;1.296910e-001
9.584883e+002;1.332407e-001
9.604169e+002;1.366262e-001
9.623455e+002;1.399676e-001
9.642740e+002;1.435724e-001
9.662026e+002;1.464916e-001
9.681311e+002;1.483114e-001
9.700596e+002;1.489103e-001
9.719882e+002;1.482793e-001
9.739167e+002;1.461823e-001
9.758453e+002;1.432718e-001
9.777739e+002;1.399701e-001
9.797024e+002;1.369196e-001
9.816309e+002;1.345002e-001
9.835595e+002;1.326189e-001
9.854880e+002;1.314874e-001
9.874166e+002;1.306952e-001
9.893452e+002;1.296566e-001
9.912737e+002;1.286240e-001
9.932022e+002;1.284177e-001
9.951307e+002;1.289889e-001
9.970593e+002;1.298959e-001
9.989879e+002;1.315041e-001
1.000916e+003;1.340749e-001
1.002845e+003;1.376018e-001
1.004773e+003;1.425742e-001
1.006702e+003;1.495833e-001
1.008631e+003;1.588680e-001
1.010559e+003;1.724650e-001
1.012488e+003;1.947485e-001
1.014416e+003;2.255224e-001
1.016345e+003;2.549927e-001
1.018273e+003;2.671044e-001
1.020202e+003;2.550824e-001
1.022130e+003;2.291787e-001
1.024059e+003;2.019103e-001
1.025988e+003;1.772264e-001
1.027916e+003;1.576302e-001
1.029845e+003;1.463042e-001
1.031773e+003;1.422915e-001
1.033702e+003;1.424026e-001
1.035630e+003;1.442574e-001
1.037559e+003;1.464549e-001
1.039487e+003;1.490418e-001
1.041416e+003;1.518435e-001
1.043344e+003;1.538068e-001
1.045273e+003;1.549316e-001
1.047202e+003;1.561631e-001
1.049130e+003;1.572654e-001
1.051059e+003;1.581986e-001
1.052987e+003;1.595599e-001
1.054916e+003;1.611294e-001
1.056844e+003;1.632683e-001
1.058773e+003;1.661350e-001
1.060701e+003;1.698042e-001
1.062630e+003;1.751597e-001
1.064558e+003;1.816749e-001
1.066487e+003;1.891390e-001
1.068416e+003;1.980394e-001
1.070344e+003;2.084183e-001
1.072273e+003;2.214763e-001
1.074201e+003;2.374410e-001
1.076130e+003;2.568480e-001
1.078058e+003;2.800567e-001
1.079987e+003;3.047750e-001
1.081915e+003;3.292030e-001
1.083844e+003;3.519028e-001
1.085773e+003;3.706249e-001
1.087701e+003;3.861023e-001
1.089630e+003;4.009037e-001
1.091558e+003;4.143230e-001
1.093487e+003;4.255083e-001
1.095415e+003;4.351331e-001
1.097344e+003;4.409959e-001
1.099272e+003;4.401712e-001
1.101201e+003;4.312911e-001
1.103129e+003;4.154942e-001
1.105058e+003;3.949683e-001
1.106987e+003;3.713080e-001
1.108915e+003;3.499121e-001
1.110844e+003;3.352827e-001
1.112772e+003;3.281279e-001
1.114701e+003;3.258166e-001
1.116629e+003;3.250651e-001
1.118558e+003;3.224611e-001
1.120486e+003;3.152834e-001
1.122415e+003;3.040645e-001
1.124344e+003;2.908610e-001
1.126272e+003;2.765744e-001
1.128201e+003;2.607943e-001
1.130129e+003;2.433162e-001
1.132058e+003;2.247600e-001
1.133986e+003;2.067575e-001
1.135915e+003;1.903551e-001
1.137843e+003;1.759172e-001
1.139772e+003;1.631772e-001
1.141700e+003;1.528702e-001
1.143629e+003;1.447262e-001
1.145557e+003;1.377729e-001
1.147486e+003;1.314623e-001
1.149415e+003;1.260017e-001
1.151343e+003;1.216277e-001
1.153272e+003;1.181663e-001
1.155200e+003;1.153919e-001
1.157129e+003;1.132038e-001
1.159057e+003;1.113234e-001
1.160986e+003;1.103013e-001
1.162914e+003;1.104211e-001
1.164843e+003;1.113328e-001
1.166771e+003;1.143161e-001
1.168700e+003;1.189249e-001
1.170629e+003;1.235175e-001
1.172557e+003;1.273479e-001
1.174486e+003;1.296830e-001
1.176414e+003;1.294828e-001
1.178343e+003;1.275788e-001
1.180271e+003;1.254592e-001
1.182200e+003;1.234245e-001
1.184128e+003;1.217987e-001
1.186057e+003;1.210597e-001
1.187986e+003;1.216875e-001
1.189914e+003;1.233910e-001
1.191843e+003;1.259333e-001
1.193771e+003;1.292878e-001
1.195700e+003;1.333219e-001
1.197628e+003;1.378390e-001
1.199557e+003;1.427743e-001
1.201485e+003;1.474493e-001
1.203414e+003;1.521946e-001
1.205343e+003;1.579970e-001
1.207271e+003;1.643106e-001
1.209200e+003;1.706854e-001
1.211128e+003;1.779798e-001
1.213057e+003;1.862992e-001
1.214985e+003;1.951490e-001
1.216914e+003;2.046923e-001
1.218842e+003;2.145462e-001
1.220771e+003;2.241163e-001
1.222699e+003;2.338085e-001
1.224628e+003;2.445059e-001
1.226557e+003;2.571748e-001
1.228485e+003;2.735233e-001
1.230414e+003;2.949496e-001
1.232342e+003;3.217409e-001
1.234271e+003;3.532566e-001
1.236199e+003;3.883434e-001
1.238128e+003;4.251260e-001
1.240056e+003;4.590337e-001
1.241985e+003;4.850070e-001
1.243913e+003;5.009187e-001
1.245842e+003;5.063343e-001
1.247771e+003;5.033387e-001
1.249699e+003;4.952172e-001
1.251628e+003;4.839326e-001
1.253556e+003;4.720217e-001
1.255485e+003;4.612764e-001
1.257413e+003;4.512338e-001
1.259342e+003;4.406447e-001
1.261270e+003;4.281849e-001
1.263199e+003;4.126634e-001
1.265127e+003;3.945126e-001
1.267056e+003;3.742886e-001
1.268985e+003;3.532250e-001
1.270913e+003;3.323555e-001
1.272842e+003;3.130135e-001
1.274770e+003;2.960931e-001
1.276699e+003;2.810026e-001
1.278627e+003;2.675062e-001
1.280556e+003;2.551208e-001
1.282484e+003;2.432541e-001
1.284413e+003;2.316960e-001
1.286342e+003;2.200903e-001
1.288270e+003;2.089854e-001
1.290199e+003;1.984830e-001
1.292127e+003;1.874239e-001
1.294056e+003;1.766453e-001
1.295984e+003;1.666721e-001
1.297913e+003;1.565173e-001
1.299841e+003;1.469413e-001
1.301770e+003;1.387972e-001
1.303698e+003;1.323231e-001
1.305627e+003;1.267436e-001
1.307556e+003;1.213669e-001
1.309484e+003;1.160565e-001
1.311413e+003;1.114915e-001
1.313341e+003;1.076360e-001
1.315270e+003;1.042015e-001
1.317198e+003;1.012395e-001
1.319127e+003;9.908461e-002
1.321055e+003;9.783498e-002
1.322984e+003;9.742008e-002
1.324912e+003;9.839684e-002
1.326841e+003;1.020408e-001
1.328770e+003;1.095050e-001
1.330698e+003;1.221850e-001
1.332627e+003;1.399651e-001
1.334555e+003;1.595662e-001
1.336484e+003;1.756858e-001
1.338412e+003;1.831638e-001
1.340341e+003;1.795797e-001
1.342269e+003;1.663969e-001
1.344198e+003;1.478083e-001
1.346126e+003;1.290330e-001
1.348055e+003;1.136840e-001
1.349984e+003;1.024576e-001
1.351912e+003;9.474485e-002
1.353841e+003;8.966746e-002
1.355769e+003;8.654370e-002
1.357698e+003;8.476597e-002
1.359626e+003;8.440839e-002
1.361555e+003;8.520705e-002
1.363483e+003;8.667018e-002
1.365412e+003;8.875593e-002
1.367341e+003;9.124181e-002
1.369269e+003;9.323727e-002
1.371198e+003;9.401820e-002
1.373126e+003;9.382907e-002
1.375055e+003;9.341858e-002
1.376983e+003;9.318187e-002
1.378912e+003;9.314356e-002
1.380840e+003;9.365342e-002
1.382769e+003;9.447520e-002
1.384698e+003;9.495706e-002
1.386626e+003;9.536202e-002
1.388555e+003;9.626963e-002
1.390483e+003;9.739254e-002
1.392412e+003;9.883273e-002
1.394340e+003;1.012131e-001
1.396269e+003;1.052511e-001
1.398197e+003;1.111077e-001
1.400126e+003;1.190304e-001
1.402054e+003;1.297472e-001
1.403983e+003;1.432425e-001
1.405911e+003;1.575225e-001
1.407840e+003;1.672871e-001
1.409769e+003;1.669697e-001
1.411697e+003;1.548567e-001
1.413626e+003;1.351981e-001
1.415554e+003;1.147388e-001
1.417483e+003;9.859641e-002
1.419411e+003;8.771871e-002
1.421340e+003;8.110315e-002
1.423268e+003;7.733165e-002
1.425197e+003;7.578944e-002
1.427125e+003;7.578635e-002
1.429054e+003;7.666499e-002
1.430983e+003;7.821830e-002
1.432911e+003;8.028787e-002
1.434840e+003;8.246189e-002
1.436768e+003;8.437185e-002
1.438697e+003;8.650447e-002
1.440625e+003;8.806571e-002
1.442554e+003;8.939154e-002
1.444482e+003;9.108604e-002
1.446411e+003;9.297705e-002
1.448340e+003;9.486385e-002
1.450268e+003;9.666398e-002
1.452197e+003;9.809078e-002
1.454125e+003;9.888044e-002
1.456054e+003;9.891997e-002
1.457982e+003;9.905614e-002
1.459911e+003;9.954811e-002
1.461839e+003;9.973208e-002
1.463768e+003;9.939808e-002
1.465697e+003;9.974083e-002
1.467625e+003;1.018057e-001
1.469554e+003;1.047785e-001
1.471482e+003;1.057784e-001
1.473411e+003;1.040370e-001
1.475339e+003;1.012211e-001
1.477268e+003;9.796031e-002
1.479196e+003;9.450782e-002
1.481125e+003;9.061687e-002
1.483053e+003;8.663316e-002
1.484982e+003;8.263011e-002
1.486911e+003;7.891536e-002
1.488839e+003;7.577270e-002
1.490768e+003;7.351808e-002
1.492696e+003;7.257243e-002
1.494625e+003;7.272902e-002
1.496553e+003;7.467144e-002
1.498482e+003;7.932718e-002
1.500410e+003;8.661581e-002
1.502339e+003;9.546091e-002
1.504267e+003;1.016728e-001
1.506196e+003;1.002436e-001
1.508125e+003;9.228691e-002
1.510053e+003;8.311015e-002
1.511982e+003;7.651646e-002
1.513910e+003;7.296044e-002
1.515839e+003;7.100712e-002
1.517767e+003;7.035457e-002
1.519696e+003;7.031231e-002
1.521624e+003;7.042522e-002
1.523553e+003;7.096739e-002
1.525481e+003;7.129943e-002
1.527410e+003;7.111096e-002
1.529339e+003;7.064653e-002
1.531267e+003;6.974491e-002
1.533196e+003;6.855132e-002
1.535124e+003;6.780890e-002
1.537053e+003;6.696287e-002
1.538981e+003;6.572815e-002
1.540910e+003;6.547670e-002
1.542838e+003;6.619719e-002
1.544767e+003;6.664857e-002
1.546695e+003;6.712932e-002
1.548624e+003;6.793372e-002
1.550553e+003;6.849964e-002
1.552481e+003;6.843055e-002
1.554410e+003;6.840084e-002
1.556338e+003;6.844223e-002
1.558267e+003;6.820521e-002
1.560195e+003;6.897591e-002
1.562124e+003;7.039806e-002
1.564052e+003;7.157389e-002
1.565981e+003;7.293908e-002
1.567910e+003;7.443528e-002
1.569838e+003;7.634906e-002
1.571767e+003;7.900859e-002
1.573695e+003;8.180357e-002
1.575624e+003;8.453944e-002
1.577552e+003;8.692603e-002
1.579481e+003;8.741891e-002
1.581409e+003;8.532383e-002
1.583338e+003;8.205838e-002
1.585266e+003;7.882202e-002
1.587195e+003;7.616221e-002
1.589124e+003;7.460718e-002
1.591052e+003;7.380212e-002
1.592981e+003;7.296989e-002
1.594909e+003;7.254533e-002
1.596838e+003;7.296491e-002
1.598766e+003;7.391956e-002
1.600695e+003;7.519290e-002
1.602623e+003;7.665333e-002
1.604552e+003;7.845049e-002
1.606480e+003;8.022043e-002
1.608409e+003;8.187446e-002
1.610338e+003;8.382567e-002
1.612266e+003;8.554503e-002
1.614195e+003;8.615402e-002
1.616123e+003;8.552071e-002
1.618052e+003;8.452306e-002
1.619980e+003;8.332931e-002
1.621909e+003;8.210529e-002
1.623837e+003;8.147952e-002
1.625766e+003;8.165771e-002
1.627694e+003;8.213759e-002
1.629623e+003;8.293445e-002
1.631552e+003;8.372465e-002
1.633480e+003;8.415148e-002
1.635409e+003;8.465048e-002
1.637337e+003;8.596376e-002
1.639266e+003;8.746129e-002
1.641194e+003;8.860263e-002
1.643123e+003;8.972119e-002
1.645051e+003;9.068644e-002
1.646980e+003;9.184919e-002
1.648909e+003;9.337368e-002
1.650837e+003;9.441619e-002
1.652766e+003;9.536140e-002
1.654694e+003;9.766268e-002
1.656623e+003;1.004709e-001
1.658551e+003;1.032769e-001
1.660480e+003;1.063970e-001
1.662408e+003;1.097774e-001
1.664337e+003;1.136426e-001
1.666266e+003;1.177242e-001
1.668194e+003;1.216907e-001
1.670123e+003;1.257662e-001
1.672051e+003;1.296685e-001
1.673980e+003;1.335974e-001
1.675908e+003;1.382355e-001
1.677837e+003;1.435034e-001
1.679765e+003;1.487260e-001
1.681694e+003;1.533689e-001
1.683622e+003;1.573248e-001
1.685551e+003;1.620885e-001
1.687479e+003;1.682705e-001
1.689408e+003;1.757096e-001
1.691337e+003;1.848510e-001
1.693265e+003;1.962389e-001
1.695194e+003;2.102703e-001
1.697122e+003;2.280100e-001
1.699051e+003;2.494954e-001
1.700979e+003;2.772558e-001
1.702908e+003;3.114345e-001
1.704836e+003;3.526292e-001
1.706765e+003;4.009588e-001
1.708693e+003;4.530249e-001
1.710622e+003;5.008029e-001
1.712551e+003;5.334287e-001
1.714479e+003;5.420861e-001
1.716408e+003;5.272546e-001
1.718336e+003;4.971744e-001
1.720265e+003;4.611186e-001
1.722193e+003;4.231248e-001
1.724122e+003;3.862932e-001
1.726050e+003;3.511489e-001
1.727979e+003;3.179421e-001
1.729908e+003;2.869537e-001
1.731836e+003;2.582906e-001
1.733765e+003;2.313171e-001
1.735693e+003;2.069776e-001
1.737622e+003;1.843737e-001
1.739550e+003;1.621504e-001
1.741479e+003;1.415192e-001
1.743407e+003;1.231828e-001
1.745336e+003;1.074602e-001
1.747265e+003;9.456846e-002
1.749193e+003;8.457394e-002
1.751122e+003;7.750006e-002
1.753050e+003;7.291380e-002
1.754979e+003;6.957302e-002
1.756907e+003;6.702905e-002
1.758836e+003;6.537581e-002
1.760764e+003;6.419691e-002
1.762693e+003;6.334791e-002
1.764621e+003;6.244244e-002
1.766550e+003;6.153970e-002
1.768479e+003;6.114359e-002
1.770407e+003;6.073473e-002
1.772336e+003;6.012742e-002
1.774264e+003;5.993362e-002
1.776193e+003;5.978192e-002
1.778121e+003;5.961483e-002
1.780050e+003;5.966314e-002
1.781978e+003;5.950998e-002
1.783907e+003;5.922860e-002
1.785835e+003;5.905076e-002
1.787764e+003;5.892415e-002
1.789693e+003;5.869246e-002
1.791621e+003;5.873498e-002
1.793550e+003;5.895841e-002
1.795478e+003;5.921049e-002
1.797407e+003;5.930597e-002
1.799335e+003;5.911222e-002
1.801264e+003;5.921246e-002
1.803192e+003;5.969812e-002
1.805121e+003;5.979150e-002
1.807049e+003;5.965938e-002
1.808978e+003;5.982865e-002
1.810907e+003;5.991372e-002
1.812835e+003;5.976773e-002
1.814764e+003;5.990486e-002
1.816692e+003;5.992324e-002
1.818621e+003;5.976241e-002
1.820549e+003;5.984789e-002
1.822478e+003;5.982991e-002
1.824406e+003;5.956063e-002
1.826335e+003;5.929066e-002
1.828264e+003;5.885676e-002
1.830192e+003;5.852249e-002
1.832121e+003;5.834111e-002
1.834049e+003;5.791364e-002
1.835978e+003;5.723272e-002
1.837906e+003;5.660205e-002
1.839835e+003;5.604146e-002
1.841763e+003;5.535527e-002
1.843692e+003;5.448380e-002
1.845620e+003;5.372149e-002
1.847549e+003;5.312229e-002
1.849478e+003;5.244790e-002
1.851406e+003;5.179815e-002
1.853335e+003;5.117539e-002
1.855263e+003;5.052910e-002
1.857192e+003;4.980298e-002
1.859120e+003;4.911551e-002
1.861049e+003;4.853163e-002
1.862977e+003;4.802350e-002
1.864906e+003;4.756521e-002
1.866834e+003;4.710899e-002
1.868763e+003;4.678225e-002
1.870692e+003;4.663473e-002
1.872620e+003;4.643513e-002
1.874549e+003;4.615856e-002
1.876477e+003;4.605252e-002
1.878406e+003;4.604372e-002
1.880334e+003;4.571861e-002
1.882263e+003;4.525440e-002
1.884191e+003;4.509623e-002
1.886120e+003;4.515700e-002
1.888048e+003;4.541980e-002
1.889977e+003;4.564489e-002
1.891906e+003;4.573084e-002
1.893834e+003;4.556609e-002
1.895763e+003;4.556318e-002
1.897691e+003;4.577104e-002
1.899620e+003;4.580289e-002
1.901548e+003;4.577104e-002
1.903477e+003;4.609017e-002
1.905405e+003;4.639369e-002
1.907334e+003;4.645254e-002
1.909262e+003;4.681432e-002
1.911191e+003;4.746581e-002
1.913120e+003;4.782030e-002
1.915048e+003;4.786551e-002
1.916977e+003;4.797887e-002
1.918905e+003;4.861522e-002
1.920834e+003;4.925254e-002
1.922762e+003;4.974583e-002
1.924691e+003;5.030356e-002
1.926619e+003;5.066439e-002
1.928548e+003;5.110084e-002
1.930477e+003;5.173514e-002
1.932405e+003;5.231953e-002
1.934334e+003;5.313109e-002
1.936262e+003;5.410120e-002
1.938191e+003;5.487921e-002
1.940119e+003;5.544075e-002
1.942048e+003;5.627540e-002
1.943976e+003;5.728406e-002
1.945905e+003;5.804061e-002
1.947833e+003;5.841892e-002
1.949762e+003;5.879647e-002
1.951691e+003;5.906143e-002
1.953619e+003;5.938919e-002
1.955548e+003;5.984078e-002
1.957476e+003;5.999802e-002
1.959405e+003;5.979519e-002
1.961333e+003;5.958724e-002
1.963262e+003;5.915262e-002
1.965190e+003;5.817072e-002
1.967119e+003;5.710845e-002
1.969047e+003;5.626869e-002
1.970976e+003;5.537947e-002
1.972905e+003;5.446648e-002
1.974833e+003;5.374163e-002
1.976762e+003;5.326221e-002
1.978690e+003;5.288215e-002
1.980619e+003;5.257470e-002
1.982547e+003;5.222723e-002
1.984476e+003;5.176493e-002
1.986404e+003;5.121375e-002
1.988333e+003;5.088751e-002
1.990261e+003;5.030043e-002
1.992190e+003;4.962119e-002
1.994119e+003;4.913487e-002
1.996047e+003;4.847283e-002
1.997976e+003;4.781209e-002
1.999904e+003;4.751213e-002
2.001833e+003;4.719302e-002
2.003761e+003;4.695303e-002
2.005690e+003;4.665432e-002
2.007618e+003;4.613616e-002
2.009547e+003;4.571699e-002
2.011476e+003;4.546814e-002
2.013404e+003;4.523579e-002
2.015333e+003;4.493588e-002
2.017261e+003;4.470680e-002
2.019190e+003;4.475965e-002
2.021118e+003;4.461660e-002
2.023047e+003;4.406866e-002
2.024975e+003;4.360727e-002
2.026904e+003;4.368762e-002
2.028833e+003;4.371986e-002
2.030761e+003;4.347955e-002
2.032690e+003;4.337207e-002
2.034618e+003;4.340587e-002
2.036547e+003;4.351789e-002
2.038475e+003;4.362863e-002
2.040404e+003;4.357162e-002
2.042332e+003;4.368919e-002
2.044261e+003;4.393288e-002
2.046189e+003;4.405747e-002
2.048118e+003;4.416835e-002
2.050047e+003;4.446593e-002
2.051975e+003;4.480520e-002
2.053904e+003;4.508984e-002
2.055832e+003;4.522980e-002
2.057761e+003;4.561379e-002
2.059689e+003;4.614581e-002
2.061618e+003;4.667664e-002
2.063546e+003;4.711981e-002
2.065475e+003;4.739061e-002
2.067404e+003;4.772621e-002
2.069332e+003;4.825457e-002
2.071260e+003;4.880029e-002
2.073189e+003;4.933628e-002
2.075118e+003;4.971158e-002
2.077046e+003;5.009828e-002
2.078975e+003;5.052020e-002
2.080903e+003;5.067753e-002
2.082832e+003;5.061904e-002
2.084760e+003;5.072981e-002
2.086689e+003;5.107818e-002
2.088617e+003;5.131297e-002
2.090546e+003;5.137364e-002
2.092475e+003;5.145223e-002
2.094403e+003;5.151822e-002
2.096332e+003;5.160195e-002
2.098260e+003;5.171625e-002
2.100189e+003;5.189522e-002
2.102117e+003;5.208517e-002
2.104046e+003;5.207714e-002
2.105974e+003;5.196076e-002
2.107903e+003;5.185452e-002
2.109832e+003;5.182731e-002
2.111760e+003;5.177781e-002
2.113688e+003;5.172040e-002
2.115617e+003;5.167691e-002
2.117546e+003;5.155195e-002
2.119474e+003;5.120875e-002
2.121403e+003;5.079149e-002
2.123331e+003;5.043814e-002
2.125260e+003;5.000644e-002
2.127188e+003;4.964263e-002
2.129117e+003;4.938806e-002
2.131045e+003;4.915357e-002
2.132974e+003;4.877416e-002
2.134903e+003;4.846498e-002
2.136831e+003;4.823939e-002
2.138760e+003;4.791922e-002
2.140688e+003;4.786588e-002
2.142617e+003;4.783728e-002
2.144545e+003;4.747491e-002
2.146474e+003;4.724462e-002
2.148402e+003;4.696665e-002
2.150331e+003;4.654905e-002
2.152260e+003;4.614563e-002
2.154188e+003;4.573522e-002
2.156117e+003;4.524094e-002
2.158045e+003;4.489237e-002
2.159974e+003;4.466908e-002
2.161902e+003;4.429114e-002
2.163831e+003;4.392991e-002
2.165759e+003;4.397703e-002
2.167688e+003;4.385044e-002
2.169616e+003;4.342429e-002
2.171545e+003;4.337442e-002
2.173474e+003;4.333612e-002
2.175402e+003;4.305339e-002
2.177331e+003;4.285806e-002
2.179259e+003;4.252886e-002
2.181188e+003;4.221902e-002
2.183116e+003;4.214468e-002
2.185045e+003;4.210605e-002
2.186973e+003;4.208167e-002
2.188902e+003;4.234013e-002
2.190831e+003;4.259563e-002
2.192759e+003;4.261007e-002
2.194688e+003;4.255010e-002
2.196616e+003;4.264311e-002
2.198545e+003;4.271107e-002
2.200473e+003;4.278909e-002
2.202402e+003;4.285247e-002
2.204330e+003;4.286607e-002
2.206259e+003;4.308072e-002
2.208188e+003;4.349134e-002
2.210116e+003;4.369886e-002
2.212044e+003;4.379480e-002
2.213973e+003;4.382936e-002
2.215902e+003;4.387881e-002
2.217830e+003;4.403749e-002
2.219759e+003;4.427701e-002
2.221687e+003;4.446362e-002
2.223616e+003;4.440104e-002
2.225544e+003;4.413420e-002
2.227473e+003;4.423643e-002
2.229401e+003;4.452522e-002
2.231330e+003;4.467022e-002
2.233259e+003;4.471965e-002
2.235187e+003;4.459696e-002
2.237116e+003;4.461091e-002
2.239044e+003;4.483326e-002
2.240973e+003;4.511329e-002
2.242901e+003;4.530585e-002
2.244830e+003;4.549209e-002
2.246758e+003;4.560057e-002
2.248687e+003;4.547664e-002
2.250615e+003;4.561235e-002
2.252544e+003;4.596662e-002
2.254473e+003;4.599137e-002
2.256401e+003;4.586990e-002
2.258330e+003;4.595884e-002
2.260258e+003;4.616549e-002
2.262187e+003;4.629835e-002
2.264115e+003;4.622545e-002
2.266044e+003;4.591409e-002
2.267972e+003;4.596684e-002
2.269901e+003;4.614154e-002
2.271830e+003;4.614865e-002
2.273758e+003;4.616763e-002
2.275687e+003;4.634336e-002
2.277615e+003;4.657033e-002
2.279544e+003;4.668395e-002
2.281472e+003;4.653784e-002
2.283401e+003;4.650781e-002
2.285329e+003;4.656516e-002
2.287258e+003;4.643273e-002
2.289187e+003;4.610443e-002
2.291115e+003;4.581345e-002
2.293043e+003;4.576224e-002
2.294972e+003;4.520899e-002
2.296901e+003;4.431554e-002
2.298829e+003;4.378556e-002
2.300758e+003;4.332459e-002
2.302686e+003;4.269681e-002
2.304615e+003;4.225064e-002
2.306543e+003;4.190738e-002
2.308472e+003;4.173500e-002
2.310400e+003;4.175175e-002
2.312329e+003;4.155241e-002
2.314258e+003;4.121097e-002
2.316186e+003;4.098490e-002
2.318115e+003;4.068252e-002
2.320043e+003;4.037457e-002
2.321972e+003;4.020999e-002
2.323900e+003;4.033868e-002
2.325829e+003;4.030599e-002
2.327757e+003;4.003922e-002
2.329686e+003;4.002381e-002
2.331615e+003;3.999733e-002
2.333543e+003;3.993909e-002
2.335472e+003;3.977722e-002
2.337400e+003;3.969934e-002
2.339329e+003;3.989500e-002
2.341257e+003;4.020036e-002
2.343186e+003;4.084862e-002
2.345114e+003;4.171892e-002
2.347043e+003;4.243609e-002
2.348971e+003;4.258204e-002
2.350900e+003;4.233592e-002
2.352829e+003;4.201691e-002
2.354757e+003;4.146403e-002
2.356686e+003;4.098632e-002
2.358614e+003;4.091182e-002
2.360543e+003;4.109298e-002
2.362471e+003;4.148736e-002
2.364400e+003;4.199778e-002
2.366328e+003;4.261625e-002
2.368257e+003;4.341692e-002
2.370186e+003;4.414634e-002
2.372114e+003;4.485982e-002
2.374042e+003;4.556462e-002
2.375971e+003;4.607923e-002
2.377900e+003;4.669664e-002
2.379828e+003;4.716997e-002
2.381757e+003;4.723047e-002
2.383685e+003;4.716875e-002
2.385614e+003;4.730384e-002
2.387542e+003;4.746249e-002
2.389471e+003;4.757845e-002
2.391399e+003;4.748100e-002
2.393328e+003;4.722656e-002
2.395257e+003;4.699231e-002
2.397185e+003;4.691504e-002
2.399114e+003;4.680011e-002
2.401042e+003;4.664695e-002
2.402971e+003;4.650789e-002
2.404899e+003;4.627543e-002
2.406828e+003;4.578282e-002
2.408756e+003;4.535705e-002
2.410685e+003;4.535263e-002
2.412614e+003;4.523024e-002
2.414542e+003;4.499611e-002
2.416471e+003;4.494202e-002
2.418399e+003;4.472380e-002
2.420328e+003;4.436779e-002
2.422256e+003;4.410647e-002
2.424185e+003;4.380825e-002
2.426113e+003;4.355419e-002
2.428042e+003;4.336409e-002
2.429970e+003;4.305888e-002
2.431899e+003;4.277136e-002
2.433828e+003;4.244168e-002
2.435756e+003;4.191326e-002
2.437685e+003;4.148091e-002
2.439613e+003;4.122704e-002
2.441542e+003;4.124639e-002
2.443470e+003;4.130749e-002
2.445399e+003;4.114252e-002
2.447327e+003;4.101079e-002
2.449256e+003;4.087047e-002
2.451185e+003;4.076181e-002
2.453113e+003;4.076411e-002
2.455042e+003;4.084502e-002
2.456970e+003;4.098592e-002
2.458899e+003;4.093949e-002
2.460827e+003;4.083446e-002
2.462756e+003;4.084997e-002
2.464684e+003;4.076982e-002
2.466613e+003;4.082092e-002
2.468542e+003;4.072877e-002
2.470470e+003;4.061397e-002
2.472398e+003;4.089613e-002
2.474327e+003;4.122832e-002
2.476256e+003;4.125753e-002
2.478184e+003;4.119800e-002
2.480113e+003;4.143235e-002
2.482041e+003;4.182481e-002
2.483970e+003;4.211930e-002
2.485898e+003;4.224754e-002
2.487827e+003;4.227650e-002
2.489755e+003;4.245871e-002
2.491684e+003;4.268289e-002
2.493613e+003;4.291029e-002
2.495541e+003;4.299708e-002
2.497470e+003;4.311314e-002
2.499398e+003;4.319091e-002
2.501327e+003;4.327612e-002
2.503255e+003;4.339188e-002
2.505184e+003;4.352163e-002
2.507112e+003;4.368457e-002
2.509041e+003;4.373041e-002
2.510969e+003;4.374515e-002
2.512898e+003;4.397871e-002
2.514827e+003;4.428795e-002
2.516755e+003;4.438431e-002
2.518684e+003;4.438699e-002
2.520612e+003;4.459637e-002
2.522541e+003;4.467315e-002
2.524469e+003;4.481908e-002
2.526398e+003;4.514682e-002
2.528326e+003;4.534550e-002
2.530255e+003;4.540623e-002
2.532184e+003;4.538000e-002
2.534112e+003;4.555943e-002
2.536041e+003;4.598754e-002
2.537969e+003;4.606626e-002
2.539898e+003;4.573533e-002
2.541826e+003;4.553389e-002
2.543755e+003;4.540715e-002
2.545683e+003;4.554221e-002
2.547612e+003;4.571493e-002
2.549541e+003;4.568004e-002
2.551469e+003;4.557036e-002
2.553397e+003;4.550221e-002
2.555326e+003;4.549368e-002
2.557255e+003;4.545269e-002
2.559183e+003;4.528091e-002
2.561112e+003;4.531909e-002
2.563040e+003;4.555608e-002
2.564969e+003;4.558258e-002
2.566897e+003;4.565214e-002
2.568826e+003;4.547590e-002
2.570754e+003;4.510531e-002
2.572683e+003;4.519770e-002
2.574612e+003;4.548952e-002
2.576540e+003;4.570304e-002
2.578469e+003;4.565935e-002
2.580397e+003;4.574111e-002
2.582326e+003;4.559678e-002
2.584254e+003;4.538489e-002
2.586183e+003;4.525584e-002
2.588111e+003;4.489348e-002
2.590040e+003;4.485457e-002
2.591969e+003;4.486828e-002
2.593897e+003;4.445456e-002
2.595826e+003;4.407556e-002
2.597754e+003;4.382496e-002
2.599683e+003;4.367611e-002
2.601611e+003;4.344201e-002
2.603540e+003;4.320277e-002
2.605468e+003;4.313378e-002
2.607397e+003;4.310685e-002
2.609325e+003;4.278449e-002
2.611254e+003;4.239298e-002
2.613183e+003;4.230108e-002
2.615111e+003;4.258233e-002
2.617040e+003;4.297163e-002
2.618968e+003;4.285740e-002
2.620897e+003;4.241366e-002
2.622825e+003;4.233198e-002
2.624754e+003;4.234451e-002
2.626682e+003;4.237381e-002
2.628611e+003;4.245871e-002
2.630540e+003;4.238750e-002
2.632468e+003;4.205075e-002
2.634396e+003;4.186918e-002
2.636325e+003;4.179811e-002
2.638254e+003;4.163777e-002
2.640182e+003;4.121345e-002
2.642111e+003;4.072109e-002
2.644039e+003;4.049934e-002
2.645968e+003;4.039344e-002
2.647896e+003;4.019919e-002
2.649825e+003;3.988621e-002
2.651753e+003;3.959421e-002
2.653682e+003;3.965501e-002
2.655611e+003;3.972040e-002
2.657539e+003;3.979792e-002
2.659468e+003;3.964920e-002
2.661396e+003;3.943297e-002
2.663325e+003;3.956024e-002
2.665253e+003;3.971695e-002
2.667182e+003;3.959388e-002
2.669110e+003;3.970863e-002
2.671039e+003;3.994636e-002
2.672968e+003;3.975224e-002
2.674896e+003;3.965440e-002
2.676825e+003;3.985232e-002
2.678753e+003;4.002770e-002
2.680682e+003;4.044075e-002
2.682610e+003;4.065541e-002
2.684539e+003;4.041722e-002
2.686467e+003;4.000049e-002
2.688396e+003;3.978220e-002
2.690324e+003;3.980936e-002
2.692253e+003;3.994985e-002
2.694182e+003;4.003849e-002
2.696110e+003;4.007817e-002
2.698039e+003;4.027066e-002
2.699967e+003;4.060520e-002
2.701896e+003;4.079144e-002
2.703824e+003;4.064682e-002
2.705753e+003;4.033464e-002
2.707681e+003;4.048345e-002
2.709610e+003;4.078471e-002
2.711539e+003;4.086941e-002
2.713467e+003;4.093064e-002
2.715396e+003;4.110155e-002
2.717324e+003;4.109109e-002
2.719253e+003;4.108603e-002
2.721181e+003;4.119432e-002
2.723110e+003;4.139470e-002
2.725038e+003;4.162329e-002
2.726967e+003;4.192607e-002
2.728896e+003;4.220047e-002
2.730824e+003;4.241790e-002
2.732752e+003;4.247405e-002
2.734681e+003;4.262129e-002
2.736610e+003;4.303579e-002
2.738538e+003;4.338770e-002
2.740467e+003;4.346805e-002
2.742395e+003;4.328911e-002
2.744324e+003;4.326019e-002
2.746252e+003;4.332433e-002
2.748181e+003;4.312423e-002
2.750109e+003;4.292510e-002
2.752038e+003;4.277702e-002
2.753967e+003;4.299211e-002
2.755895e+003;4.329076e-002
2.757824e+003;4.336453e-002
2.759752e+003;4.332568e-002
2.761681e+003;4.338617e-002
2.763609e+003;4.332488e-002
2.765538e+003;4.327985e-002
2.767466e+003;4.356631e-002
2.769395e+003;4.399195e-002
2.771323e+003;4.413706e-002
2.773252e+003;4.394337e-002
2.775181e+003;4.419718e-002
2.777109e+003;4.477680e-002
2.779038e+003;4.492985e-002
2.780966e+003;4.492361e-002
2.782895e+003;4.490322e-002
2.784823e+003;4.509660e-002
2.786752e+003;4.554438e-002
2.788680e+003;4.613383e-002
2.790609e+003;4.644675e-002
2.792538e+003;4.662057e-002
2.794466e+003;4.693040e-002
2.796395e+003;4.713684e-002
2.798323e+003;4.713525e-002
2.800252e+003;4.760884e-002
2.802180e+003;4.818796e-002
2.804109e+003;4.831963e-002
2.806037e+003;4.842704e-002
2.807966e+003;4.843975e-002
2.809895e+003;4.825672e-002
2.811823e+003;4.815597e-002
2.813751e+003;4.811670e-002
2.815680e+003;4.771115e-002
2.817609e+003;4.723809e-002
2.819537e+003;4.713994e-002
2.821466e+003;4.727536e-002
2.823394e+003;4.734926e-002
2.825323e+003;4.745447e-002
2.827251e+003;4.785341e-002
2.829180e+003;4.820170e-002
2.831108e+003;4.822328e-002
2.833037e+003;4.840970e-002
2.834966e+003;4.896393e-002
2.836894e+003;4.941958e-002
2.838823e+003;4.968940e-002
2.840751e+003;5.028659e-002
2.842680e+003;5.113897e-002
2.844608e+003;5.164422e-002
2.846537e+003;5.207501e-002
2.848465e+003;5.279215e-002
2.850394e+003;5.304438e-002
2.852323e+003;5.350447e-002
2.854251e+003;5.421617e-002
2.856180e+003;5.481865e-002
2.858108e+003;5.534936e-002
2.860037e+003;5.595009e-002
2.861965e+003;5.643011e-002
2.863894e+003;5.629804e-002
2.865822e+003;5.629630e-002
2.867751e+003;5.672444e-002
2.869679e+003;5.700454e-002
2.871608e+003;5.705211e-002
2.873536e+003;5.705188e-002
2.875465e+003;5.733106e-002
2.877394e+003;5.798305e-002
2.879322e+003;5.854710e-002
2.881251e+003;5.908405e-002
2.883179e+003;5.967079e-002
2.885108e+003;6.024975e-002
2.887036e+003;6.066561e-002
2.888965e+003;6.058949e-002
2.890893e+003;6.045116e-002
2.892822e+003;6.089848e-002
2.894750e+003;6.147709e-002
2.896679e+003;6.201726e-002
2.898608e+003;6.292866e-002
2.900536e+003;6.416027e-002
2.902465e+003;6.525947e-002
2.904393e+003;6.586899e-002
2.906322e+003;6.653116e-002
2.908250e+003;6.698594e-002
2.910179e+003;6.665626e-002
2.912107e+003;6.584454e-002
2.914036e+003;6.512444e-002
2.915965e+003;6.396204e-002
2.917893e+003;6.241631e-002
2.919822e+003;6.125857e-002
2.921750e+003;6.064443e-002
2.923679e+003;5.997839e-002
2.925607e+003;5.908759e-002
2.927536e+003;5.892775e-002
2.929464e+003;5.885471e-002
2.931393e+003;5.886859e-002
2.933322e+003;5.915919e-002
2.935250e+003;5.944599e-002
2.937178e+003;6.008324e-002
2.939107e+003;6.102879e-002
2.941036e+003;6.195478e-002
2.942964e+003;6.260457e-002
2.944893e+003;6.382501e-002
2.946821e+003;6.524572e-002
2.948750e+003;6.661613e-002
2.950678e+003;6.775332e-002
2.952607e+003;6.867775e-002
2.954535e+003;7.000341e-002
2.956464e+003;7.131431e-002
2.958393e+003;7.233377e-002
2.960321e+003;7.315227e-002
2.962250e+003;7.387776e-002
2.964178e+003;7.482839e-002
2.966107e+003;7.572986e-002
2.968035e+003;7.607432e-002
2.969964e+003;7.612371e-002
2.971892e+003;7.627413e-002
2.973821e+003;7.598713e-002
2.975750e+003;7.516493e-002
2.977678e+003;7.425028e-002
2.979607e+003;7.348500e-002
2.981535e+003;7.274336e-002
2.983464e+003;7.187992e-002
2.985392e+003;7.129037e-002
2.987321e+003;7.058123e-002
2.989249e+003;6.949917e-002
2.991178e+003;6.866494e-002
2.993106e+003;6.825813e-002
2.995035e+003;6.799029e-002
2.996964e+003;6.743939e-002
2.998892e+003;6.688173e-002
3.000821e+003;6.638030e-002
3.002749e+003;6.556998e-002
3.004678e+003;6.488281e-002
3.006606e+003;6.461015e-002
3.008535e+003;6.397741e-002
3.010463e+003;6.341182e-002
3.012392e+003;6.312592e-002
3.014321e+003;6.274857e-002
3.016249e+003;6.225089e-002
3.018177e+003;6.127768e-002
3.020106e+003;5.965189e-002
3.022035e+003;5.844045e-002
3.023963e+003;5.772503e-002
3.025892e+003;5.676507e-002
3.027820e+003;5.574420e-002
3.029749e+003;5.461089e-002
3.031677e+003;5.386494e-002
3.033606e+003;5.375408e-002
3.035534e+003;5.367687e-002
3.037463e+003;5.332301e-002
3.039392e+003;5.304284e-002
3.041320e+003;5.324082e-002
3.043249e+003;5.409846e-002
3.045177e+003;5.518999e-002
3.047106e+003;5.656702e-002
3.049034e+003;5.807424e-002
3.050963e+003;5.919560e-002
3.052891e+003;5.990467e-002
3.054820e+003;6.031054e-002
3.056749e+003;6.043391e-002
3.058677e+003;6.008907e-002
3.060606e+003;5.937882e-002
3.062534e+003;5.916181e-002
3.064463e+003;5.930483e-002
3.066391e+003;5.968264e-002
3.068320e+003;5.987919e-002
3.070248e+003;5.980115e-002
3.072177e+003;5.943703e-002
3.074105e+003;5.936754e-002
3.076034e+003;5.961552e-002
3.077963e+003;5.937631e-002
3.079891e+003;5.893416e-002
3.081820e+003;5.856879e-002
3.083748e+003;5.838504e-002
3.085677e+003;5.835896e-002
3.087605e+003;5.779489e-002
3.089534e+003;5.713396e-002
3.091462e+003;5.676330e-002
3.093391e+003;5.633213e-002
3.095320e+003;5.609711e-002
3.097248e+003;5.632225e-002
3.099177e+003;5.676443e-002
3.101105e+003;5.708143e-002
3.103034e+003;5.711639e-002
3.104962e+003;5.700182e-002
3.106891e+003;5.703481e-002
3.108819e+003;5.675760e-002
3.110748e+003;5.622841e-002
3.112677e+003;5.568378e-002
3.114605e+003;5.471431e-002
3.116533e+003;5.388486e-002
3.118462e+003;5.318599e-002
3.120391e+003;5.268392e-002
3.122319e+003;5.250204e-002
3.124248e+003;5.221134e-002
3.126176e+003;5.199583e-002
3.128105e+003;5.200270e-002
3.130033e+003;5.211962e-002
3.131962e+003;5.193816e-002
3.133890e+003;5.126155e-002
3.135819e+003;5.067601e-002
3.137748e+003;5.013320e-002
3.139676e+003;4.966971e-002
3.141605e+003;4.942537e-002
3.143533e+003;4.885020e-002
3.145462e+003;4.822169e-002
3.147390e+003;4.804752e-002
3.149319e+003;4.799301e-002
3.151247e+003;4.757826e-002
3.153176e+003;4.736415e-002
3.155104e+003;4.716373e-002
3.157033e+003;4.690205e-002
3.158962e+003;4.676324e-002
3.160890e+003;4.662703e-002
3.162819e+003;4.653108e-002
3.164747e+003;4.672837e-002
3.166676e+003;4.635347e-002
3.168604e+003;4.574320e-002
3.170533e+003;4.573054e-002
3.172461e+003;4.591848e-002
3.174390e+003;4.595435e-002
3.176319e+003;4.589023e-002
3.178247e+003;4.565493e-002
3.180176e+003;4.526510e-002
3.182104e+003;4.530541e-002
3.184033e+003;4.546034e-002
3.185961e+003;4.535010e-002
3.187890e+003;4.532339e-002
3.189818e+003;4.528349e-002
3.191747e+003;4.501680e-002
3.193676e+003;4.492684e-002
3.195604e+003;4.508903e-002
3.197532e+003;4.521138e-002
3.199461e+003;4.500210e-002
3.201390e+003;4.474396e-002
3.203318e+003;4.467921e-002
3.205247e+003;4.456222e-002
3.207175e+003;4.442666e-002
3.209104e+003;4.472887e-002
3.211032e+003;4.482386e-002
3.212961e+003;4.441965e-002
3.214889e+003;4.410746e-002
3.216818e+003;4.421321e-002
3.218747e+003;4.396445e-002
3.220675e+003;4.398318e-002
3.222604e+003;4.461715e-002
3.224532e+003;4.457467e-002
3.226461e+003;4.436541e-002
3.228389e+003;4.479003e-002
3.230318e+003;4.510804e-002
3.232246e+003;4.513796e-002
3.234175e+003;4.472427e-002
3.236104e+003;4.426949e-002
3.238032e+003;4.438365e-002
3.239961e+003;4.445617e-002
3.241889e+003;4.446561e-002
3.243818e+003;4.459186e-002
3.245746e+003;4.425019e-002
3.247675e+003;4.407016e-002
3.249603e+003;4.423654e-002
3.251532e+003;4.398238e-002
3.253460e+003;4.373261e-002
3.255389e+003;4.355690e-002
3.257318e+003;4.339118e-002
3.259246e+003;4.331016e-002
3.261175e+003;4.330826e-002
3.263103e+003;4.328746e-002
3.265032e+003;4.300312e-002
3.266960e+003;4.276540e-002
3.268889e+003;4.275977e-002
3.270817e+003;4.286874e-002
3.272746e+003;4.262999e-002
3.274675e+003;4.267320e-002
3.276603e+003;4.287082e-002
3.278531e+003;4.296222e-002
3.280460e+003;4.306612e-002
3.282389e+003;4.312324e-002
3.284317e+003;4.285726e-002
3.286246e+003;4.267316e-002
3.288174e+003;4.293688e-002
3.290103e+003;4.352544e-002
3.292031e+003;4.386609e-002
3.293960e+003;4.380517e-002
3.295888e+003;4.400075e-002
3.297817e+003;4.394722e-002
3.299746e+003;4.366754e-002
3.301674e+003;4.340645e-002
3.303603e+003;4.312053e-002
3.305531e+003;4.304944e-002
3.307460e+003;4.356924e-002
3.309388e+003;4.335398e-002
3.311317e+003;4.287258e-002
3.313245e+003;4.290004e-002
3.315174e+003;4.282793e-002
3.317103e+003;4.246433e-002
3.319031e+003;4.251304e-002
3.320960e+003;4.295593e-002
3.322888e+003;4.297554e-002
3.324817e+003;4.300506e-002
3.326745e+003;4.318893e-002
3.328674e+003;4.323395e-002
3.330602e+003;4.309130e-002
3.332531e+003;4.303261e-002
3.334459e+003;4.312324e-002
3.336388e+003;4.330965e-002
3.338317e+003;4.339898e-002
3.340245e+003;4.306817e-002
3.342174e+003;4.271498e-002
3.344102e+003;4.288132e-002
3.346031e+003;4.285722e-002
3.347959e+003;4.267444e-002
3.349888e+003;4.290637e-002
3.351816e+003;4.267557e-002
3.353745e+003;4.233114e-002
3.355674e+003;4.227595e-002
3.357602e+003;4.213146e-002
3.359531e+003;4.163678e-002
3.361459e+003;4.138238e-002
3.363388e+003;4.094131e-002
3.365316e+003;4.053343e-002
3.367245e+003;4.029411e-002
3.369173e+003;4.027811e-002
3.371102e+003;4.067913e-002
3.373031e+003;4.078151e-002
3.374959e+003;4.060614e-002
3.376887e+003;4.025972e-002
3.378816e+003;4.024837e-002
3.380745e+003;4.040526e-002
3.382673e+003;4.023670e-002
3.384602e+003;4.000739e-002
3.386530e+003;4.021021e-002
3.388459e+003;4.051426e-002
3.390387e+003;4.086417e-002
3.392316e+003;4.107336e-002
3.394244e+003;4.105030e-002
3.396173e+003;4.141038e-002
3.398102e+003;4.211441e-002
3.400030e+003;4.225258e-002
3.401959e+003;4.239766e-002
3.403887e+003;4.320346e-002
3.405816e+003;4.400706e-002
3.407744e+003;4.476637e-002
3.409673e+003;4.557080e-002
3.411601e+003;4.615152e-002
3.413530e+003;4.727880e-002
3.415458e+003;4.895025e-002
3.417387e+003;4.987798e-002
3.419316e+003;5.021104e-002
3.421244e+003;5.069232e-002
3.423173e+003;5.170416e-002
3.425101e+003;5.273206e-002
3.427030e+003;5.346512e-002
3.428958e+003;5.380921e-002
3.430887e+003;5.390935e-002
3.432815e+003;5.370488e-002
3.434744e+003;5.344066e-002
3.436673e+003;5.301922e-002
3.438601e+003;5.193376e-002
3.440530e+003;5.110613e-002
3.442458e+003;5.066472e-002
3.444387e+003;5.016012e-002
3.446315e+003;4.953443e-002
3.448244e+003;4.877190e-002
3.450172e+003;4.779319e-002
3.452101e+003;4.683048e-002
3.454030e+003;4.621476e-002
3.455958e+003;4.589255e-002
3.457886e+003;4.534999e-002
3.459815e+003;4.456656e-002
3.461744e+003;4.403789e-002
3.463672e+003;4.338093e-002
3.465601e+003;4.290509e-002
3.467529e+003;4.249371e-002
3.469458e+003;4.193724e-002
3.471386e+003;4.161421e-002
3.473315e+003;4.127412e-002
3.475243e+003;4.063547e-002
3.477172e+003;4.022653e-002
3.479101e+003;4.044631e-002
3.481029e+003;4.052382e-002
3.482958e+003;4.037955e-002
3.484886e+003;3.997906e-002
3.486815e+003;3.968340e-002
3.488743e+003;3.982294e-002
3.490672e+003;4.026451e-002
3.492600e+003;4.061149e-002
3.494529e+003;4.059611e-002
3.496458e+003;4.052411e-002
3.498386e+003;4.028058e-002
3.500315e+003;4.003984e-002
3.502243e+003;4.005859e-002
3.504172e+003;4.027963e-002
3.506100e+003;4.067262e-002
3.508029e+003;4.103956e-002
3.509957e+003;4.113655e-002
3.511886e+003;4.106582e-002
3.513814e+003;4.122628e-002
3.515743e+003;4.140870e-002
3.517672e+003;4.144704e-002
3.519600e+003;4.163613e-002
3.521529e+003;4.137954e-002
3.523457e+003;4.121808e-002
3.525386e+003;4.181734e-002
3.527314e+003;4.215669e-002
3.529243e+003;4.258442e-002
3.531171e+003;4.289196e-002
3.533100e+003;4.268574e-002
3.535029e+003;4.280046e-002
3.536957e+003;4.306817e-002
3.538885e+003;4.279761e-002
3.540814e+003;4.221486e-002
3.542743e+003;4.210667e-002
3.544671e+003;4.227164e-002
3.546600e+003;4.272445e-002
3.548528e+003;4.344022e-002
3.550457e+003;4.342187e-002
3.552385e+003;4.304567e-002
3.554314e+003;4.258291e-002
3.556242e+003;4.243270e-002
3.558171e+003;4.242919e-002
3.560100e+003;4.228453e-002
3.562028e+003;4.170280e-002
3.563957e+003;4.080065e-002
3.565885e+003;4.083166e-002
3.567814e+003;4.144952e-002
3.569742e+003;4.155284e-002
3.571671e+003;4.138318e-002
3.573599e+003;4.092846e-002
3.575528e+003;4.047443e-002
3.577457e+003;4.013094e-002
3.579385e+003;3.975522e-002
3.581314e+003;3.959207e-002
3.583242e+003;3.942644e-002
3.585171e+003;3.897072e-002
3.587099e+003;3.871682e-002
3.589028e+003;3.854454e-002
3.590956e+003;3.838460e-002
3.592885e+003;3.842815e-002
3.594813e+003;3.858014e-002
3.596742e+003;3.843386e-002
3.598671e+003;3.818633e-002
3.600599e+003;3.774336e-002
3.602528e+003;3.728607e-002
3.604456e+003;3.729246e-002
3.606385e+003;3.687200e-002
3.608313e+003;3.666725e-002
3.610242e+003;3.729704e-002
3.612170e+003;3.756268e-002
3.614099e+003;3.804796e-002
3.616028e+003;3.816466e-002
3.617956e+003;3.736468e-002
3.619885e+003;3.726430e-002
3.621813e+003;3.800626e-002
3.623742e+003;3.819190e-002
3.625670e+003;3.806254e-002
3.627599e+003;3.786785e-002
3.629527e+003;3.797694e-002
3.631456e+003;3.827045e-002
3.633385e+003;3.816878e-002
3.635313e+003;3.820160e-002
3.637241e+003;3.829853e-002
3.639170e+003;3.824064e-002
3.641099e+003;3.807715e-002
3.643027e+003;3.791517e-002
3.644956e+003;3.780860e-002
3.646884e+003;3.741390e-002
3.648813e+003;3.688983e-002
3.650741e+003;3.690115e-002
3.652670e+003;3.705095e-002
3.654598e+003;3.695526e-002
3.656527e+003;3.684899e-002
3.658456e+003;3.687637e-002
3.660384e+003;3.677632e-002
3.662313e+003;3.616672e-002
3.664241e+003;3.555777e-002
3.666170e+003;3.517793e-002
3.668098e+003;3.483594e-002
3.670027e+003;3.464639e-002
3.671955e+003;3.466642e-002
3.673884e+003;3.440093e-002
3.675813e+003;3.417934e-002
3.677741e+003;3.456974e-002
3.679669e+003;3.519895e-002
3.681598e+003;3.587081e-002
3.683527e+003;3.618005e-002
3.685455e+003;3.598008e-002
3.687384e+003;3.536373e-002
3.689312e+003;3.534216e-002
3.691241e+003;3.537088e-002
3.693169e+003;3.479559e-002
3.695098e+003;3.432282e-002
3.697026e+003;3.425391e-002
3.698955e+003;3.410471e-002
3.700884e+003;3.370405e-002
3.702812e+003;3.343658e-002
3.704741e+003;3.310840e-002
3.706669e+003;3.262236e-002
3.708598e+003;3.210335e-002
3.710526e+003;3.185586e-002
3.712455e+003;3.188264e-002
3.714383e+003;3.225140e-002
3.716312e+003;3.265050e-002
3.718240e+003;3.268726e-002
3.720169e+003;3.257110e-002
3.722098e+003;3.230697e-002
3.724026e+003;3.193075e-002
3.725955e+003;3.221457e-002
3.727883e+003;3.294341e-002
3.729812e+003;3.296046e-002
3.731740e+003;3.248879e-002
3.733669e+003;3.210057e-002
3.735597e+003;3.201506e-002
3.737526e+003;3.257085e-002
3.739455e+003;3.286481e-002
3.741383e+003;3.251785e-002
3.743312e+003;3.160021e-002
3.745240e+003;3.166746e-002
3.747169e+003;3.239039e-002
3.749097e+003;3.251914e-002
3.751026e+003;3.283912e-002
3.752954e+003;3.315078e-002
3.754883e+003;3.342785e-002
3.756812e+003;3.382313e-002
3.758740e+003;3.390201e-002
3.760668e+003;3.369410e-002
3.762597e+003;3.364512e-002
3.764526e+003;3.348171e-002
3.766454e+003;3.312296e-002
3.768383e+003;3.289841e-002
3.770311e+003;3.316179e-002
3.772240e+003;3.337092e-002
3.774168e+003;3.308169e-002
3.776097e+003;3.299763e-002
3.778025e+003;3.284179e-002
3.779954e+003;3.311155e-002
3.781883e+003;3.347723e-002
3.783811e+003;3.334770e-002
3.785740e+003;3.321981e-002
3.787668e+003;3.299574e-002
3.789597e+003;3.316465e-002
3.791525e+003;3.324255e-002
3.793454e+003;3.330169e-002
3.795382e+003;3.338008e-002
3.797311e+003;3.331188e-002
3.799240e+003;3.303811e-002
3.801168e+003;3.261889e-002
3.803097e+003;3.317499e-002
3.805025e+003;3.337807e-002
3.806954e+003;3.320188e-002
3.808882e+003;3.368980e-002
3.810811e+003;3.386522e-002
3.812739e+003;3.348213e-002
3.814668e+003;3.329857e-002
3.816596e+003;3.327454e-002
3.818525e+003;3.332018e-002
3.820454e+003;3.336859e-002
3.822382e+003;3.317435e-002
3.824311e+003;3.322846e-002
3.826239e+003;3.317016e-002
3.828168e+003;3.287778e-002
3.830096e+003;3.267583e-002
3.832025e+003;3.281707e-002
3.833953e+003;3.277415e-002
3.835882e+003;3.246783e-002
3.837811e+003;3.243059e-002
3.839739e+003;3.266904e-002
3.841667e+003;3.297440e-002
3.843596e+003;3.330347e-002
3.845525e+003;3.365031e-002
3.847453e+003;3.370469e-002
3.849382e+003;3.329063e-002
3.851310e+003;3.271402e-002
3.853239e+003;3.226699e-002
3.855167e+003;3.248989e-002
3.857096e+003;3.302316e-002
3.859024e+003;3.320214e-002
3.860953e+003;3.333510e-002
3.862882e+003;3.357860e-002
3.864810e+003;3.361017e-002
3.866739e+003;3.323429e-002
3.868667e+003;3.261235e-002
3.870596e+003;3.276418e-002
3.872524e+003;3.322531e-002
3.874453e+003;3.322106e-002
3.876381e+003;3.329185e-002
3.878310e+003;3.328809e-002
3.880239e+003;3.351159e-002
3.882167e+003;3.388467e-002
3.884096e+003;3.376497e-002
3.886024e+003;3.330258e-002
3.887953e+003;3.341575e-002
3.889881e+003;3.345039e-002
3.891810e+003;3.335957e-002
3.893738e+003;3.387288e-002
3.895667e+003;3.430679e-002
3.897595e+003;3.427033e-002
3.899524e+003;3.395807e-002
3.901453e+003;3.401913e-002
3.903381e+003;3.413435e-002
3.905310e+003;3.420992e-002
3.907238e+003;3.468242e-002
3.909167e+003;3.516252e-002
3.911095e+003;3.530902e-002
3.913024e+003;3.492801e-002
3.914952e+003;3.498679e-002
3.916881e+003;3.508725e-002
3.918810e+003;3.513708e-002
3.920738e+003;3.537706e-002
3.922667e+003;3.542753e-002
3.924595e+003;3.540888e-002
3.926524e+003;3.541513e-002
3.928452e+003;3.520585e-002
3.930381e+003;3.483006e-002
3.932309e+003;3.466724e-002
3.934238e+003;3.508873e-002
3.936167e+003;3.545888e-002
3.938095e+003;3.508560e-002
3.940023e+003;3.512293e-002
3.941952e+003;3.537458e-002
3.943881e+003;3.571235e-002
3.945809e+003;3.593016e-002
3.947738e+003;3.561761e-002
3.949666e+003;3.569552e-002
3.951595e+003;3.606997e-002
3.953523e+003;3.566012e-002
3.955452e+003;3.545000e-002
3.957380e+003;3.592127e-002
3.959309e+003;3.617018e-002
3.961238e+003;3.619870e-002
3.963166e+003;3.625698e-002
3.965095e+003;3.629091e-002
3.967023e+003;3.607048e-002
3.968952e+003;3.578020e-002
3.970880e+003;3.577920e-002
3.972809e+003;3.594999e-002
3.974737e+003;3.609337e-002
3.976666e+003;3.567785e-002
3.978594e+003;3.538598e-002
3.980523e+003;3.603807e-002
3.982452e+003;3.643055e-002
3.984380e+003;3.621923e-002
3.986309e+003;3.611149e-002
3.988237e+003;3.614181e-002
3.990166e+003;3.608772e-002
3.992094e+003;3.598930e-002
3.994023e+003;3.603339e-002
3.995951e+003;3.571566e-002
3.997880e+003;3.594495e-002
3.999809e+003;3.632837e-002
4.001737e+003;0.000000e+000
