3.992094e+002;0.000000e+000
4.011380e+002;0.000000e+000
4.030665e+002;0.000000e+000
4.049951e+002;0.000000e+000
4.069236e+002;0.000000e+000
4.088522e+002;0.000000e+000
4.107807e+002;0.000000e+000
4.127093e+002;0.000000e+000
4.146378e+002;0.000000e+000
4.165664e+002;0.000000e+000
4.184949e+002;0.000000e+000
4.204235e+002;0.000000e+000
4.223520e+002;0.000000e+000
4.242806e+002;0.000000e+000
4.262091e+002;0.000000e+000
4.281377e+002;0.000000e+000
4.300662e+002;0.000000e+000
4.319948e+002;0.000000e+000
4.339233e+002;0.000000e+000
4.358519e+002;0.000000e+000
4.377804e+002;0.000000e+000
4.397090e+002;0.000000e+000
4.416375e+002;0.000000e+000
4.435660e+002;0.000000e+000
4.454946e+002;0.000000e+000
4.474232e+002;0.000000e+000
4.493517e+002;0.000000e+000
4.512802e+002;0.000000e+000
4.532088e+002;0.000000e+000
4.551373e+002;0.000000e+000
4.570659e+002;0.000000e+000
4.589944e+002;0.000000e+000
4.609230e+002;0.000000e+000
4.628515e+002;0.000000e+000
4.647801e+002;0.000000e+000
4.667086e+002;0.000000e+000
4.686372e+002;0.000000e+000
4.705657e+002;0.000000e+000
4.724943e+002;0.000000e+000
4.744228e+002;0.000000e+000
4.763513e+002;0.000000e+000
4.782799e+002;0.000000e+000
4.802085e+002;0.000000e+000
4.821370e+002;0.000000e+000
4.840656e+002;0.000000e+000
4.859941e+002;0.000000e+000
4.879226e+002;0.000000e+000
4.898512e+002;0.000000e+000
4.917798e+002;0.000000e+000
4.937083e+002;0.000000e+000
4.956368e+002;0.000000e+000
4.975654e+002;0.000000e+000
4.994939e+002;0.000000e+000
5.014225e+002;0.000000e+000
5.033510e+002;0.000000e+000
5.052796e+002;0.000000e+000
5.072081e+002;0.000000e+000
5.091367e+002;0.000000e+000
5.110652e+002;0.000000e+000
5.129938e+002;0.000000e+000
5.149223e+002;0.000000e+000
5.168509e+002;0.000000e+000
5.187794e+002;0.000000e+000
5.207079e+002;0.000000e+000
5.226365e+002;0.000000e+000
5.245651e+002;0.000000e+000
5.264936e+002;0.000000e+000
5.284222e+002;0.000000e+000
5.303507e+002;0.000000e+000
5.322792e+002;0.000000e+000
5.342078e+002;0.000000e+000
5.361364e+002;0.000000e+000
5.380649e+002;0.000000e+000
5.399935e+002;0.000000e+000
5.419220e+002;0.000000e+000
5.438505e+002;0.000000e+000
5.457791e+002;0.000000e+000
5.477076e+002;0.000000e+000
5.496362e+002;0.000000e+000
5.515648e+002;0.000000e+000
5.534933e+002;0.000000e+000
5.554218e+002;0.000000e+000
5.573504e+002;0.000000e+000
5.592789e+002;0.000000e+000
5.612075e+002;0.000000e+000
5.631360e+002;0.000000e+000
5.650646e+002;0.000000e+000
5.669931e+002;0.000000e+000
5.689217e+002;0.000000e+000
5.708502e+002;0.000000e+000
5.727787e+002;0.000000e+000
5.747073e+002;0.000000e+000
5.766359e+002;0.000000e+000
5.785644e+002;0.000000e+000
5.804930e+002;0.000000e+000
5.824215e+002;0.000000e+000
5.843500e+002;0.000000e+000
5.862786e+002;0.000000e+000
5.882072e+002;0.000000e+000
5.901357e+002;0.000000e+000
5.920643e+002;0.000000e+000
5.939928e+002;0.000000e+000
5.959213e+002;0.000000e+000
5.978499e+002;0.000000e+000
5.997784e+002;1.002059e-001
6.017070e+002;1.071308e-001
6.036355e+002;1.088069e-001
6.055641e+002;1.051176e-001
6.074926e+002;9.961041e-002
6.094211e+002;9.856065e-002
6.113497e+002;1.022088e-001
6.132783e+002;1.021752e-001
6.152068e+002;1.013996e-001
6.171354e+002;1.020516e-001
6.190639e+002;1.040976e-001
6.209924e+002;1.047359e-001
6.229210e+002;1.077517e-001
6.248495e+002;1.126928e-001
6.267781e+002;1.143221e-001
6.287067e+002;1.163918e-001
6.306352e+002;1.208238e-001
6.325637e+002;1.232746e-001
6.344923e+002;1.214572e-001
6.364208e+002;1.150556e-001
6.383494e+002;1.142791e-001
6.402780e+002;1.121793e-001
6.422065e+002;1.117787e-001
6.441350e+002;1.139893e-001
6.460636e+002;1.135360e-001
6.479921e+002;1.154173e-001
6.499207e+002;1.185000e-001
6.518492e+002;1.184407e-001
6.537778e+002;1.187001e-001
6.557063e+002;1.197270e-001
6.576349e+002;1.221665e-001
6.595634e+002;1.228548e-001
6.614919e+002;1.221450e-001
6.634205e+002;1.216679e-001
6.653491e+002;1.244698e-001
6.672776e+002;1.258086e-001
6.692062e+002;1.286568e-001
6.711347e+002;1.329537e-001
6.730632e+002;1.363300e-001
6.749918e+002;1.399210e-001
6.769203e+002;1.434176e-001
6.788489e+002;1.458476e-001
6.807775e+002;1.472250e-001
6.827060e+002;1.467801e-001
6.846345e+002;1.478374e-001
6.865631e+002;1.494924e-001
6.884916e+002;1.512005e-001
6.904202e+002;1.549844e-001
6.923488e+002;1.616538e-001
6.942773e+002;1.688498e-001
6.962058e+002;1.781103e-001
6.981344e+002;1.919015e-001
7.000629e+002;2.088710e-001
7.019915e+002;2.250345e-001
7.039200e+002;2.384379e-001
7.058486e+002;2.519262e-001
7.077771e+002;2.683244e-001
7.097057e+002;2.880263e-001
7.116342e+002;3.121162e-001
7.135627e+002;3.417012e-001
7.154913e+002;3.807344e-001
7.174199e+002;4.288202e-001
7.193484e+002;4.816401e-001
7.212770e+002;5.304567e-001
7.232055e+002;5.592667e-001
7.251340e+002;5.471096e-001
7.270626e+002;4.959850e-001
7.289911e+002;4.308029e-001
7.309197e+002;3.686155e-001
7.328483e+002;3.147766e-001
7.347768e+002;2.657033e-001
7.367053e+002;2.204820e-001
7.386339e+002;1.818795e-001
7.405624e+002;1.521496e-001
7.424910e+002;1.317036e-001
7.444196e+002;1.165498e-001
7.463481e+002;1.062317e-001
7.482766e+002;1.016465e-001
7.502052e+002;9.997631e-002
7.521337e+002;9.781493e-002
7.540623e+002;9.685903e-002
7.559908e+002;9.698532e-002
7.579194e+002;9.728670e-002
7.598479e+002;9.757835e-002
7.617765e+002;9.788359e-002
7.637050e+002;9.954198e-002
7.656335e+002;1.021634e-001
7.675621e+002;1.043992e-001
7.694907e+002;1.070825e-001
7.714192e+002;1.098471e-001
7.733478e+002;1.118511e-001
7.752763e+002;1.132599e-001
7.772048e+002;1.153918e-001
7.791334e+002;1.181703e-001
7.810620e+002;1.215658e-001
7.829905e+002;1.246422e-001
7.849191e+002;1.289429e-001
7.868476e+002;1.347511e-001
7.887761e+002;1.407157e-001
7.907047e+002;1.455152e-001
7.926332e+002;1.461301e-001
7.945618e+002;1.402976e-001
7.964903e+002;1.305276e-001
7.984189e+002;1.229000e-001
8.003474e+002;1.205410e-001
8.022759e+002;1.215413e-001
8.042045e+002;1.229682e-001
8.061331e+002;1.239660e-001
8.080616e+002;1.243042e-001
8.099902e+002;1.244094e-001
8.119187e+002;1.245560e-001
8.138472e+002;1.249536e-001
8.157758e+002;1.259886e-001
8.177043e+002;1.276668e-001
8.196329e+002;1.299582e-001
8.215615e+002;1.320736e-001
8.234900e+002;1.339802e-001
8.254185e+002;1.354202e-001
8.273471e+002;1.369268e-001
8.292756e+002;1.395191e-001
8.312042e+002;1.425136e-001
8.331328e+002;1.457199e-001
8.350613e+002;1.496928e-001
8.369898e+002;1.541146e-001
8.389184e+002;1.597784e-001
8.408469e+002;1.655390e-001
8.427755e+002;1.721133e-001
8.447040e+002;1.797181e-001
8.466326e+002;1.856294e-001
8.485611e+002;1.866328e-001
8.504897e+002;1.822433e-001
8.524182e+002;1.771911e-001
8.543467e+002;1.743955e-001
8.562753e+002;1.722648e-001
8.582039e+002;1.709796e-001
8.601324e+002;1.711669e-001
8.620610e+002;1.732352e-001
8.639895e+002;1.787118e-001
8.659180e+002;1.890906e-001
8.678466e+002;2.072934e-001
8.697751e+002;2.355712e-001
8.717037e+002;2.595347e-001
8.736323e+002;2.556497e-001
8.755608e+002;2.312983e-001
8.774893e+002;2.075454e-001
8.794179e+002;1.890831e-001
8.813464e+002;1.737121e-001
8.832750e+002;1.602277e-001
8.852036e+002;1.491882e-001
8.871321e+002;1.413538e-001
8.890606e+002;1.360284e-001
8.909892e+002;1.325579e-001
8.929177e+002;1.308647e-001
8.948463e+002;1.303871e-001
8.967748e+002;1.303777e-001
8.987034e+002;1.302890e-001
9.006319e+002;1.301901e-001
9.025605e+002;1.293600e-001
9.044890e+002;1.276550e-001
9.064175e+002;1.254373e-001
9.083461e+002;1.227889e-001
9.102747e+002;1.198304e-001
9.122032e+002;1.176464e-001
9.141318e+002;1.164229e-001
9.160603e+002;1.154186e-001
9.179888e+002;1.143196e-001
9.199174e+002;1.134552e-001
9.218459e+002;1.134447e-001
9.237745e+002;1.147004e-001
9.257031e+002;1.159600e-001
9.276316e+002;1.166709e-001
9.295601e+002;1.169240e-001
9.314887e+002;1.172554e-001
9.334172e+002;1.178738e-001
9.353458e+002;1.187825e-001
9.372744e+002;1.197162e-001
9.392029e+002;1.203480e-001
9.411314e+002;1.209076e-001
9.430600e+002;1.216761e-001
9.449885e+002;1.231786e-001
9.469171e+002;1.254959e-001
9.488456e+002;1.279545e-001
9.507742e+002;1.303036e-001
9.527027e+002;1.330184e-001
9.546313e+002;1.359858e-001
9.565598e+002;1.392386e-001
9.584883e+002;1.431067e-001
9.604169e+002;1.472046e-001
9.623455e+002;1.512390e-001
9.642740e+002;1.548463e-001
9.662026e+002;1.585048e-001
9.681311e+002;1.620602e-001
9.700596e+002;1.642768e-001
9.719882e+002;1.637179e-001
9.739167e+002;1.606858e-001
9.758453e+002;1.564899e-001
9.777739e+002;1.523947e-001
9.797024e+002;1.487710e-001
9.816309e+002;1.458807e-001
9.835595e+002;1.437975e-001
9.854880e+002;1.424523e-001
9.874166e+002;1.421089e-001
9.893452e+002;1.418734e-001
9.912737e+002;1.409904e-001
9.932022e+002;1.407719e-001
9.951307e+002;1.415109e-001
9.970593e+002;1.426434e-001
9.989879e+002;1.443846e-001
1.000916e+003;1.468766e-001
1.002845e+003;1.503273e-001
1.004773e+003;1.549084e-001
1.006702e+003;1.615692e-001
1.008631e+003;1.711103e-001
1.010559e+003;1.857804e-001
1.012488e+003;2.085806e-001
1.014416e+003;2.406106e-001
1.016345e+003;2.732565e-001
1.018273e+003;2.877972e-001
1.020202e+003;2.772677e-001
1.022130e+003;2.529942e-001
1.024059e+003;2.260678e-001
1.025988e+003;1.998579e-001
1.027916e+003;1.767487e-001
1.029845e+003;1.608819e-001
1.031773e+003;1.540862e-001
1.033702e+003;1.532905e-001
1.035630e+003;1.550944e-001
1.037559e+003;1.576809e-001
1.039487e+003;1.606452e-001
1.041416e+003;1.633449e-001
1.043344e+003;1.653129e-001
1.045273e+003;1.667275e-001
1.047202e+003;1.676244e-001
1.049130e+003;1.686063e-001
1.051059e+003;1.701532e-001
1.052987e+003;1.716838e-001
1.054916e+003;1.733595e-001
1.056844e+003;1.758656e-001
1.058773e+003;1.801041e-001
1.060701e+003;1.852462e-001
1.062630e+003;1.915939e-001
1.064558e+003;2.002719e-001
1.066487e+003;2.099711e-001
1.068416e+003;2.202855e-001
1.070344e+003;2.318875e-001
1.072273e+003;2.460438e-001
1.074201e+003;2.629600e-001
1.076130e+003;2.821271e-001
1.078058e+003;3.050005e-001
1.079987e+003;3.319611e-001
1.081915e+003;3.593276e-001
1.083844e+003;3.848139e-001
1.085773e+003;4.077037e-001
1.087701e+003;4.274520e-001
1.089630e+003;4.444301e-001
1.091558e+003;4.597959e-001
1.093487e+003;4.733012e-001
1.095415e+003;4.827658e-001
1.097344e+003;4.866728e-001
1.099272e+003;4.859107e-001
1.101201e+003;4.783868e-001
1.103129e+003;4.625027e-001
1.105058e+003;4.408284e-001
1.106987e+003;4.180714e-001
1.108915e+003;3.967605e-001
1.110844e+003;3.809964e-001
1.112772e+003;3.727613e-001
1.114701e+003;3.693966e-001
1.116629e+003;3.682050e-001
1.118558e+003;3.668986e-001
1.120486e+003;3.620432e-001
1.122415e+003;3.533563e-001
1.124344e+003;3.416664e-001
1.126272e+003;3.269633e-001
1.128201e+003;3.104488e-001
1.130129e+003;2.924965e-001
1.132058e+003;2.725976e-001
1.133986e+003;2.520595e-001
1.135915e+003;2.316941e-001
1.137843e+003;2.128296e-001
1.139772e+003;1.967207e-001
1.141700e+003;1.827546e-001
1.143629e+003;1.710013e-001
1.145557e+003;1.624136e-001
1.147486e+003;1.559949e-001
1.149415e+003;1.510103e-001
1.151343e+003;1.469790e-001
1.153272e+003;1.432737e-001
1.155200e+003;1.399474e-001
1.157129e+003;1.370847e-001
1.159057e+003;1.351207e-001
1.160986e+003;1.342974e-001
1.162914e+003;1.350484e-001
1.164843e+003;1.368100e-001
1.166771e+003;1.395645e-001
1.168700e+003;1.431916e-001
1.170629e+003;1.464983e-001
1.172557e+003;1.487844e-001
1.174486e+003;1.496694e-001
1.176414e+003;1.486881e-001
1.178343e+003;1.461090e-001
1.180271e+003;1.428483e-001
1.182200e+003;1.395726e-001
1.184128e+003;1.367099e-001
1.186057e+003;1.354125e-001
1.187986e+003;1.361815e-001
1.189914e+003;1.376681e-001
1.191843e+003;1.402207e-001
1.193771e+003;1.441406e-001
1.195700e+003;1.480387e-001
1.197628e+003;1.520771e-001
1.199557e+003;1.571070e-001
1.201485e+003;1.627924e-001
1.203414e+003;1.685534e-001
1.205343e+003;1.748567e-001
1.207271e+003;1.818243e-001
1.209200e+003;1.888198e-001
1.211128e+003;1.960590e-001
1.213057e+003;2.043727e-001
1.214985e+003;2.140353e-001
1.216914e+003;2.247285e-001
1.218842e+003;2.362401e-001
1.220771e+003;2.483163e-001
1.222699e+003;2.599128e-001
1.224628e+003;2.720859e-001
1.226557e+003;2.860567e-001
1.228485e+003;3.029032e-001
1.230414e+003;3.252115e-001
1.232342e+003;3.541941e-001
1.234271e+003;3.901097e-001
1.236199e+003;4.308501e-001
1.238128e+003;4.731476e-001
1.240056e+003;5.129448e-001
1.241985e+003;5.451596e-001
1.243913e+003;5.661208e-001
1.245842e+003;5.749999e-001
1.247771e+003;5.741216e-001
1.249699e+003;5.665901e-001
1.251628e+003;5.541748e-001
1.253556e+003;5.392360e-001
1.255485e+003;5.238867e-001
1.257413e+003;5.097507e-001
1.259342e+003;4.968424e-001
1.261270e+003;4.827650e-001
1.263199e+003;4.653345e-001
1.265127e+003;4.449269e-001
1.267056e+003;4.231436e-001
1.268985e+003;4.000102e-001
1.270913e+003;3.763966e-001
1.272842e+003;3.549016e-001
1.274770e+003;3.363232e-001
1.276699e+003;3.197689e-001
1.278627e+003;3.044786e-001
1.280556e+003;2.904854e-001
1.282484e+003;2.775846e-001
1.284413e+003;2.647638e-001
1.286342e+003;2.521724e-001
1.288270e+003;2.401496e-001
1.290199e+003;2.282014e-001
1.292127e+003;2.163142e-001
1.294056e+003;2.044569e-001
1.295984e+003;1.928884e-001
1.297913e+003;1.813283e-001
1.299841e+003;1.705950e-001
1.301770e+003;1.614926e-001
1.303698e+003;1.537687e-001
1.305627e+003;1.476765e-001
1.307556e+003;1.424453e-001
1.309484e+003;1.372234e-001
1.311413e+003;1.323521e-001
1.313341e+003;1.283117e-001
1.315270e+003;1.247568e-001
1.317198e+003;1.214321e-001
1.319127e+003;1.188276e-001
1.321055e+003;1.172751e-001
1.322984e+003;1.165027e-001
1.324912e+003;1.170725e-001
1.326841e+003;1.197565e-001
1.328770e+003;1.260330e-001
1.330698e+003;1.377762e-001
1.332627e+003;1.555510e-001
1.334555e+003;1.773361e-001
1.336484e+003;1.976367e-001
1.338412e+003;2.096299e-001
1.340341e+003;2.090520e-001
1.342269e+003;1.963880e-001
1.344198e+003;1.759175e-001
1.346126e+003;1.537206e-001
1.348055e+003;1.344082e-001
1.349984e+003;1.199550e-001
1.351912e+003;1.101379e-001
1.353841e+003;1.039190e-001
1.355769e+003;1.000864e-001
1.357698e+003;9.779580e-002
1.359626e+003;9.667479e-002
1.361555e+003;9.692484e-002
1.363483e+003;9.902284e-002
1.365412e+003;1.019518e-001
1.367341e+003;1.040639e-001
1.369269e+003;1.054796e-001
1.371198e+003;1.055351e-001
1.373126e+003;1.040742e-001
1.375055e+003;1.028034e-001
1.376983e+003;1.024513e-001
1.378912e+003;1.023519e-001
1.380840e+003;1.031407e-001
1.382769e+003;1.045110e-001
1.384698e+003;1.055975e-001
1.386626e+003;1.063639e-001
1.388555e+003;1.084679e-001
1.390483e+003;1.111640e-001
1.392412e+003;1.129382e-001
1.394340e+003;1.149418e-001
1.396269e+003;1.190297e-001
1.398197e+003;1.245611e-001
1.400126e+003;1.327841e-001
1.402054e+003;1.437560e-001
1.403983e+003;1.567471e-001
1.405911e+003;1.719390e-001
1.407840e+003;1.846206e-001
1.409769e+003;1.873675e-001
1.411697e+003;1.769388e-001
1.413626e+003;1.567734e-001
1.415554e+003;1.334833e-001
1.417483e+003;1.120542e-001
1.419411e+003;9.719697e-002
1.421340e+003;9.078256e-002
1.423268e+003;8.719921e-002
1.425197e+003;8.538343e-002
1.427125e+003;8.522923e-002
1.429054e+003;8.554697e-002
1.430983e+003;8.726256e-002
1.432911e+003;8.959512e-002
1.434840e+003;9.008558e-002
1.436768e+003;9.084627e-002
1.438697e+003;9.474415e-002
1.440625e+003;9.756735e-002
1.442554e+003;9.922174e-002
1.444482e+003;1.009056e-001
1.446411e+003;1.022871e-001
1.448340e+003;1.035833e-001
1.450268e+003;1.053377e-001
1.452197e+003;1.061418e-001
1.454125e+003;1.046082e-001
1.456054e+003;1.003226e-001
1.457982e+003;1.004001e-001
1.459911e+003;1.038913e-001
1.461839e+003;1.046864e-001
1.463768e+003;1.032848e-001
1.465697e+003;1.039460e-001
1.467625e+003;1.083357e-001
1.469554e+003;1.136603e-001
1.471482e+003;1.149818e-001
1.473411e+003;1.128090e-001
1.475339e+003;1.103538e-001
1.477268e+003;1.077400e-001
1.479196e+003;1.049882e-001
1.481125e+003;1.013669e-001
1.483053e+003;9.808774e-002
1.484982e+003;9.421165e-002
1.486911e+003;8.980560e-002
1.488839e+003;8.633406e-002
1.490768e+003;8.499810e-002
1.492696e+003;8.522648e-002
1.494625e+003;8.428004e-002
1.496553e+003;8.469288e-002
1.498482e+003;8.999560e-002
1.500410e+003;9.863504e-002
1.502339e+003;1.086842e-001
1.504267e+003;1.140696e-001
1.506196e+003;1.119913e-001
1.508125e+003;1.075289e-001
1.510053e+003;1.012748e-001
1.511982e+003;9.489208e-002
1.513910e+003;9.176904e-002
1.515839e+003;8.995117e-002
1.517767e+003;8.945648e-002
1.519696e+003;8.818996e-002
1.521624e+003;8.769187e-002
1.523553e+003;9.048581e-002
1.525481e+003;9.189918e-002
1.527410e+003;9.280741e-002
1.529339e+003;9.353907e-002
1.531267e+003;9.294710e-002
1.533196e+003;9.095448e-002
1.535124e+003;9.049781e-002
1.537053e+003;8.711198e-002
1.538981e+003;8.030729e-002
1.540910e+003;7.907564e-002
1.542838e+003;8.179257e-002
1.544767e+003;8.341096e-002
1.546695e+003;8.490083e-002
1.548624e+003;8.503215e-002
1.550553e+003;8.461557e-002
1.552481e+003;8.345710e-002
1.554410e+003;8.181465e-002
1.556338e+003;7.933351e-002
1.558267e+003;7.445224e-002
1.560195e+003;7.651994e-002
1.562124e+003;8.309763e-002
1.564052e+003;8.566573e-002
1.565981e+003;8.658661e-002
1.567910e+003;8.681866e-002
1.569838e+003;8.799352e-002
1.571767e+003;9.171718e-002
1.573695e+003;9.334271e-002
1.575624e+003;9.327280e-002
1.577552e+003;9.764318e-002
1.579481e+003;1.014576e-001
1.581409e+003;1.007245e-001
1.583338e+003;9.825431e-002
1.585266e+003;9.549976e-002
1.587195e+003;9.331247e-002
1.589124e+003;9.178873e-002
1.591052e+003;9.124468e-002
1.592981e+003;9.142504e-002
1.594909e+003;9.240863e-002
1.596838e+003;9.416506e-002
1.598766e+003;9.631467e-002
1.600695e+003;9.817529e-002
1.602623e+003;9.956402e-002
1.604552e+003;1.003970e-001
1.606480e+003;1.007988e-001
1.608409e+003;1.013102e-001
1.610338e+003;1.022935e-001
1.612266e+003;1.032318e-001
1.614195e+003;1.018886e-001
1.616123e+003;9.845839e-002
1.618052e+003;9.879928e-002
1.619980e+003;9.937521e-002
1.621909e+003;9.702977e-002
1.623837e+003;9.567694e-002
1.625766e+003;9.602078e-002
1.627694e+003;9.612958e-002
1.629623e+003;9.680847e-002
1.631552e+003;9.732625e-002
1.633480e+003;9.486846e-002
1.635409e+003;9.268853e-002
1.637337e+003;9.582143e-002
1.639266e+003;9.918460e-002
1.641194e+003;1.007827e-001
1.643123e+003;1.008356e-001
1.645051e+003;9.900120e-002
1.646980e+003;9.948239e-002
1.648909e+003;1.025637e-001
1.650837e+003;1.003676e-001
1.652766e+003;9.661559e-002
1.654694e+003;1.034723e-001
1.656623e+003;1.113109e-001
1.658551e+003;1.150583e-001
1.660480e+003;1.172501e-001
1.662408e+003;1.196274e-001
1.664337e+003;1.243272e-001
1.666266e+003;1.290180e-001
1.668194e+003;1.318925e-001
1.670123e+003;1.362017e-001
1.672051e+003;1.416292e-001
1.673980e+003;1.453554e-001
1.675908e+003;1.507781e-001
1.677837e+003;1.584369e-001
1.679765e+003;1.643073e-001
1.681694e+003;1.675104e-001
1.683622e+003;1.680208e-001
1.685551e+003;1.744309e-001
1.687479e+003;1.843255e-001
1.689408e+003;1.924483e-001
1.691337e+003;2.019181e-001
1.693265e+003;2.115839e-001
1.695194e+003;2.223465e-001
1.697122e+003;2.409863e-001
1.699051e+003;2.622492e-001
1.700979e+003;2.916491e-001
1.702908e+003;3.316486e-001
1.704836e+003;3.763658e-001
1.706765e+003;4.291345e-001
1.708693e+003;4.860506e-001
1.710622e+003;5.387394e-001
1.712551e+003;5.746815e-001
1.714479e+003;5.828484e-001
1.716408e+003;5.639593e-001
1.718336e+003;5.306007e-001
1.720265e+003;4.930462e-001
1.722193e+003;4.519461e-001
1.724122e+003;4.107910e-001
1.726050e+003;3.719498e-001
1.727979e+003;3.350401e-001
1.729908e+003;2.997683e-001
1.731836e+003;2.649434e-001
1.733765e+003;2.315213e-001
1.735693e+003;2.059486e-001
1.737622e+003;1.822859e-001
1.739550e+003;1.576417e-001
1.741479e+003;1.368020e-001
1.743407e+003;1.187605e-001
1.745336e+003;1.032113e-001
1.747265e+003;9.061500e-002
1.749193e+003;8.125601e-002
1.751122e+003;7.530992e-002
1.753050e+003;7.369044e-002
1.754979e+003;7.247943e-002
1.756907e+003;7.113390e-002
1.758836e+003;7.061285e-002
1.760764e+003;6.948650e-002
1.762693e+003;6.946025e-002
1.764621e+003;7.026934e-002
1.766550e+003;6.940535e-002
1.768479e+003;6.847800e-002
1.770407e+003;6.732996e-002
1.772336e+003;6.633926e-002
1.774264e+003;6.815504e-002
1.776193e+003;6.948090e-002
1.778121e+003;6.958625e-002
1.780050e+003;6.927879e-002
1.781978e+003;6.927681e-002
1.783907e+003;6.925450e-002
1.785835e+003;6.939521e-002
1.787764e+003;6.972387e-002
1.789693e+003;6.905635e-002
1.791621e+003;6.785201e-002
1.793550e+003;6.842733e-002
1.795478e+003;6.978141e-002
1.797407e+003;7.002361e-002
1.799335e+003;6.989099e-002
1.801264e+003;7.003155e-002
1.803192e+003;7.072357e-002
1.805121e+003;7.112032e-002
1.807049e+003;7.121319e-002
1.808978e+003;7.105332e-002
1.810907e+003;7.100840e-002
1.812835e+003;7.133832e-002
1.814764e+003;7.177359e-002
1.816692e+003;7.176940e-002
1.818621e+003;7.203978e-002
1.820549e+003;7.234575e-002
1.822478e+003;7.186987e-002
1.824406e+003;7.097816e-002
1.826335e+003;7.105737e-002
1.828264e+003;7.065222e-002
1.830192e+003;7.010530e-002
1.832121e+003;7.062193e-002
1.834049e+003;7.068135e-002
1.835978e+003;7.027097e-002
1.837906e+003;6.994089e-002
1.839835e+003;6.941896e-002
1.841763e+003;6.794577e-002
1.843692e+003;6.599059e-002
1.845620e+003;6.612669e-002
1.847549e+003;6.650960e-002
1.849478e+003;6.622501e-002
1.851406e+003;6.581517e-002
1.853335e+003;6.528681e-002
1.855263e+003;6.476521e-002
1.857192e+003;6.409129e-002
1.859120e+003;6.355252e-002
1.861049e+003;6.333894e-002
1.862977e+003;6.293283e-002
1.864906e+003;6.215304e-002
1.866834e+003;6.106426e-002
1.868763e+003;6.042640e-002
1.870692e+003;6.084030e-002
1.872620e+003;6.112429e-002
1.874549e+003;6.113268e-002
1.876477e+003;6.107906e-002
1.878406e+003;6.087675e-002
1.880334e+003;6.076111e-002
1.882263e+003;6.076134e-002
1.884191e+003;6.076564e-002
1.886120e+003;6.056519e-002
1.888048e+003;6.021435e-002
1.889977e+003;6.032748e-002
1.891906e+003;6.068306e-002
1.893834e+003;6.072597e-002
1.895763e+003;6.108707e-002
1.897691e+003;6.149041e-002
1.899620e+003;6.162271e-002
1.901548e+003;6.165967e-002
1.903477e+003;6.166731e-002
1.905405e+003;6.178010e-002
1.907334e+003;6.200866e-002
1.909262e+003;6.212785e-002
1.911191e+003;6.240525e-002
1.913120e+003;6.281798e-002
1.915048e+003;6.300060e-002
1.916977e+003;6.267270e-002
1.918905e+003;6.319497e-002
1.920834e+003;6.414525e-002
1.922762e+003;6.461293e-002
1.924691e+003;6.512684e-002
1.926619e+003;6.576670e-002
1.928548e+003;6.636366e-002
1.930477e+003;6.686886e-002
1.932405e+003;6.732435e-002
1.934334e+003;6.799242e-002
1.936262e+003;6.871652e-002
1.938191e+003;6.935362e-002
1.940119e+003;6.983682e-002
1.942048e+003;7.020900e-002
1.943976e+003;7.097278e-002
1.945905e+003;7.171007e-002
1.947833e+003;7.228485e-002
1.949762e+003;7.280114e-002
1.951691e+003;7.326620e-002
1.953619e+003;7.341143e-002
1.955548e+003;7.332394e-002
1.957476e+003;7.350937e-002
1.959405e+003;7.372402e-002
1.961333e+003;7.351694e-002
1.963262e+003;7.307021e-002
1.965190e+003;7.242545e-002
1.967119e+003;7.163449e-002
1.969047e+003;7.093719e-002
1.970976e+003;7.018957e-002
1.972905e+003;6.958660e-002
1.974833e+003;6.899937e-002
1.976762e+003;6.835666e-002
1.978690e+003;6.787959e-002
1.980619e+003;6.756607e-002
1.982547e+003;6.732482e-002
1.984476e+003;6.699847e-002
1.986404e+003;6.644122e-002
1.988333e+003;6.603970e-002
1.990261e+003;6.538478e-002
1.992190e+003;6.480186e-002
1.994119e+003;6.466976e-002
1.996047e+003;6.454918e-002
1.997976e+003;6.428492e-002
1.999904e+003;6.397721e-002
2.001833e+003;6.358466e-002
2.003761e+003;6.314243e-002
2.005690e+003;6.268475e-002
2.007618e+003;6.246999e-002
2.009547e+003;6.212907e-002
2.011476e+003;6.174381e-002
2.013404e+003;6.136167e-002
2.015333e+003;6.104645e-002
2.017261e+003;6.089409e-002
2.019190e+003;6.096950e-002
2.021118e+003;6.082616e-002
2.023047e+003;6.055155e-002
2.024975e+003;6.034793e-002
2.026904e+003;5.993754e-002
2.028833e+003;5.959491e-002
2.030761e+003;5.974047e-002
2.032690e+003;5.968497e-002
2.034618e+003;5.955197e-002
2.036547e+003;5.950120e-002
2.038475e+003;5.969793e-002
2.040404e+003;5.987296e-002
2.042332e+003;5.993332e-002
2.044261e+003;6.008473e-002
2.046189e+003;6.041635e-002
2.048118e+003;6.054950e-002
2.050047e+003;6.081938e-002
2.051975e+003;6.123801e-002
2.053904e+003;6.147610e-002
2.055832e+003;6.167269e-002
2.057761e+003;6.212403e-002
2.059689e+003;6.256484e-002
2.061618e+003;6.292038e-002
2.063546e+003;6.318941e-002
2.065475e+003;6.349864e-002
2.067404e+003;6.394519e-002
2.069332e+003;6.434190e-002
2.071260e+003;6.461789e-002
2.073189e+003;6.483910e-002
2.075118e+003;6.513199e-002
2.077046e+003;6.552956e-002
2.078975e+003;6.581763e-002
2.080903e+003;6.624724e-002
2.082832e+003;6.651609e-002
2.084760e+003;6.663900e-002
2.086689e+003;6.678005e-002
2.088617e+003;6.701270e-002
2.090546e+003;6.701316e-002
2.092475e+003;6.694787e-002
2.094403e+003;6.709938e-002
2.096332e+003;6.715330e-002
2.098260e+003;6.715016e-002
2.100189e+003;6.735875e-002
2.102117e+003;6.732048e-002
2.104046e+003;6.732544e-002
2.105974e+003;6.741366e-002
2.107903e+003;6.744206e-002
2.109832e+003;6.751239e-002
2.111760e+003;6.740034e-002
2.113688e+003;6.704487e-002
2.115617e+003;6.686623e-002
2.117546e+003;6.688447e-002
2.119474e+003;6.699986e-002
2.121403e+003;6.689680e-002
2.123331e+003;6.647026e-002
2.125260e+003;6.591608e-002
2.127188e+003;6.548683e-002
2.129117e+003;6.533672e-002
2.131045e+003;6.534030e-002
2.132974e+003;6.515905e-002
2.134903e+003;6.478579e-002
2.136831e+003;6.433445e-002
2.138760e+003;6.409936e-002
2.140688e+003;6.389505e-002
2.142617e+003;6.359924e-002
2.144545e+003;6.338191e-002
2.146474e+003;6.329470e-002
2.148402e+003;6.296470e-002
2.150331e+003;6.247810e-002
2.152260e+003;6.221999e-002
2.154188e+003;6.206806e-002
2.156117e+003;6.195822e-002
2.158045e+003;6.167105e-002
2.159974e+003;6.120756e-002
2.161902e+003;6.087560e-002
2.163831e+003;6.058138e-002
2.165759e+003;6.027251e-002
2.167688e+003;5.986771e-002
2.169616e+003;5.953893e-002
2.171545e+003;5.951305e-002
2.173474e+003;5.952924e-002
2.175402e+003;5.938581e-002
2.177331e+003;5.929336e-002
2.179259e+003;5.905854e-002
2.181188e+003;5.868718e-002
2.183116e+003;5.847885e-002
2.185045e+003;5.864683e-002
2.186973e+003;5.889846e-002
2.188902e+003;5.919002e-002
2.190831e+003;5.911549e-002
2.192759e+003;5.898202e-002
2.194688e+003;5.894407e-002
2.196616e+003;5.896631e-002
2.198545e+003;5.907650e-002
2.200473e+003;5.901572e-002
2.202402e+003;5.906986e-002
2.204330e+003;5.952643e-002
2.206259e+003;6.006696e-002
2.208188e+003;6.034671e-002
2.210116e+003;6.033719e-002
2.212044e+003;6.028454e-002
2.213973e+003;6.026946e-002
2.215902e+003;6.041662e-002
2.217830e+003;6.061586e-002
2.219759e+003;6.091860e-002
2.221687e+003;6.102468e-002
2.223616e+003;6.090122e-002
2.225544e+003;6.098361e-002
2.227473e+003;6.114405e-002
2.229401e+003;6.133721e-002
2.231330e+003;6.156807e-002
2.233259e+003;6.175985e-002
2.235187e+003;6.190086e-002
2.237116e+003;6.191584e-002
2.239044e+003;6.194366e-002
2.240973e+003;6.202323e-002
2.242901e+003;6.237779e-002
2.244830e+003;6.270926e-002
2.246758e+003;6.317017e-002
2.248687e+003;6.344660e-002
2.250615e+003;6.341381e-002
2.252544e+003;6.349212e-002
2.254473e+003;6.341726e-002
2.256401e+003;6.333192e-002
2.258330e+003;6.338874e-002
2.260258e+003;6.321635e-002
2.262187e+003;6.313178e-002
2.264115e+003;6.329953e-002
2.266044e+003;6.352016e-002
2.267972e+003;6.352361e-002
2.269901e+003;6.347977e-002
2.271830e+003;6.338559e-002
2.273758e+003;6.320056e-002
2.275687e+003;6.318738e-002
2.277615e+003;6.357764e-002
2.279544e+003;6.402751e-002
2.281472e+003;6.408484e-002
2.283401e+003;6.390005e-002
2.285329e+003;6.374047e-002
2.287258e+003;6.359710e-002
2.289187e+003;6.337126e-002
2.291115e+003;6.305752e-002
2.293043e+003;6.264127e-002
2.294972e+003;6.226779e-002
2.296901e+003;6.176543e-002
2.298829e+003;6.117681e-002
2.300758e+003;6.060504e-002
2.302686e+003;6.005353e-002
2.304615e+003;5.953855e-002
2.306543e+003;5.921865e-002
2.308472e+003;5.911177e-002
2.310400e+003;5.884438e-002
2.312329e+003;5.848014e-002
2.314258e+003;5.827502e-002
2.316186e+003;5.818417e-002
2.318115e+003;5.805693e-002
2.320043e+003;5.801664e-002
2.321972e+003;5.786708e-002
2.323900e+003;5.774792e-002
2.325829e+003;5.787060e-002
2.327757e+003;5.787200e-002
2.329686e+003;5.764670e-002
2.331615e+003;5.749000e-002
2.333543e+003;5.745358e-002
2.335472e+003;5.728036e-002
2.337400e+003;5.734758e-002
2.339329e+003;5.746980e-002
2.341257e+003;5.762146e-002
2.343186e+003;5.816291e-002
2.345114e+003;5.888430e-002
2.347043e+003;5.964520e-002
2.348971e+003;6.000536e-002
2.350900e+003;5.975154e-002
2.352829e+003;5.937723e-002
2.354757e+003;5.906371e-002
2.356686e+003;5.897280e-002
2.358614e+003;5.901083e-002
2.360543e+003;5.898536e-002
2.362471e+003;5.907183e-002
2.364400e+003;5.948076e-002
2.366328e+003;6.029497e-002
2.368257e+003;6.109817e-002
2.370186e+003;6.174182e-002
2.372114e+003;6.216390e-002
2.374042e+003;6.267112e-002
2.375971e+003;6.344591e-002
2.377900e+003;6.393302e-002
2.379828e+003;6.419419e-002
2.381757e+003;6.423587e-002
2.383685e+003;6.430763e-002
2.385614e+003;6.458002e-002
2.387542e+003;6.455775e-002
2.389471e+003;6.432596e-002
2.391399e+003;6.431831e-002
2.393328e+003;6.429595e-002
2.395257e+003;6.413300e-002
2.397185e+003;6.399572e-002
2.399114e+003;6.397256e-002
2.401042e+003;6.407639e-002
2.402971e+003;6.392100e-002
2.404899e+003;6.359157e-002
2.406828e+003;6.329397e-002
2.408756e+003;6.285214e-002
2.410685e+003;6.264571e-002
2.412614e+003;6.271385e-002
2.414542e+003;6.252111e-002
2.416471e+003;6.197774e-002
2.418399e+003;6.171253e-002
2.420328e+003;6.167590e-002
2.422256e+003;6.141594e-002
2.424185e+003;6.094079e-002
2.426113e+003;6.088692e-002
2.428042e+003;6.086009e-002
2.429970e+003;6.059410e-002
2.431899e+003;6.013991e-002
2.433828e+003;5.977789e-002
2.435756e+003;5.958473e-002
2.437685e+003;5.936271e-002
2.439613e+003;5.920536e-002
2.441542e+003;5.906553e-002
2.443470e+003;5.880493e-002
2.445399e+003;5.848716e-002
2.447327e+003;5.836412e-002
2.449256e+003;5.849910e-002
2.451185e+003;5.876987e-002
2.453113e+003;5.863799e-002
2.455042e+003;5.833524e-002
2.456970e+003;5.822220e-002
2.458899e+003;5.822402e-002
2.460827e+003;5.828870e-002
2.462756e+003;5.852382e-002
2.464684e+003;5.866181e-002
2.466613e+003;5.847776e-002
2.468542e+003;5.831792e-002
2.470470e+003;5.838595e-002
2.472398e+003;5.845816e-002
2.474327e+003;5.855362e-002
2.476256e+003;5.888419e-002
2.478184e+003;5.912832e-002
2.480113e+003;5.936416e-002
2.482041e+003;5.960415e-002
2.483970e+003;5.958340e-002
2.485898e+003;5.956782e-002
2.487827e+003;5.979070e-002
2.489755e+003;6.020643e-002
2.491684e+003;6.041163e-002
2.493613e+003;6.045020e-002
2.495541e+003;6.057574e-002
2.497470e+003;6.090336e-002
2.499398e+003;6.114424e-002
2.501327e+003;6.109488e-002
2.503255e+003;6.099741e-002
2.505184e+003;6.115992e-002
2.507112e+003;6.127654e-002
2.509041e+003;6.133530e-002
2.510969e+003;6.153993e-002
2.512898e+003;6.152477e-002
2.514827e+003;6.154359e-002
2.516755e+003;6.187453e-002
2.518684e+003;6.214861e-002
2.520612e+003;6.214697e-002
2.522541e+003;6.231965e-002
2.524469e+003;6.255110e-002
2.526398e+003;6.258252e-002
2.528326e+003;6.258823e-002
2.530255e+003;6.260315e-002
2.532184e+003;6.256492e-002
2.534112e+003;6.256599e-002
2.536041e+003;6.270140e-002
2.537969e+003;6.270366e-002
2.539898e+003;6.266236e-002
2.541826e+003;6.274831e-002
2.543755e+003;6.262784e-002
2.545683e+003;6.270355e-002
2.547612e+003;6.279176e-002
2.549541e+003;6.270210e-002
2.551469e+003;6.262524e-002
2.553397e+003;6.279536e-002
2.555326e+003;6.287665e-002
2.557255e+003;6.289496e-002
2.559183e+003;6.298018e-002
2.561112e+003;6.296202e-002
2.563040e+003;6.286512e-002
2.564969e+003;6.269823e-002
2.566897e+003;6.263224e-002
2.568826e+003;6.256928e-002
2.570754e+003;6.249895e-002
2.572683e+003;6.268874e-002
2.574612e+003;6.292950e-002
2.576540e+003;6.292659e-002
2.578469e+003;6.289764e-002
2.580397e+003;6.281664e-002
2.582326e+003;6.258945e-002
2.584254e+003;6.268097e-002
2.586183e+003;6.267721e-002
2.588111e+003;6.237316e-002
2.590040e+003;6.217892e-002
2.591969e+003;6.196682e-002
2.593897e+003;6.160969e-002
2.595826e+003;6.131714e-002
2.597754e+003;6.108718e-002
2.599683e+003;6.082083e-002
2.601611e+003;6.072715e-002
2.603540e+003;6.082460e-002
2.605468e+003;6.074289e-002
2.607397e+003;6.047835e-002
2.609325e+003;6.033133e-002
2.611254e+003;6.013842e-002
2.613183e+003;5.997767e-002
2.615111e+003;6.010414e-002
2.617040e+003;6.018691e-002
2.618968e+003;6.006658e-002
2.620897e+003;5.981150e-002
2.622825e+003;5.975249e-002
2.624754e+003;6.008008e-002
2.626682e+003;6.026908e-002
2.628611e+003;6.000198e-002
2.630540e+003;5.973690e-002
2.632468e+003;5.973929e-002
2.634396e+003;5.970074e-002
2.636325e+003;5.954239e-002
2.638254e+003;5.924353e-002
2.640182e+003;5.885091e-002
2.642111e+003;5.848974e-002
2.644039e+003;5.813780e-002
2.645968e+003;5.805788e-002
2.647896e+003;5.789415e-002
2.649825e+003;5.779379e-002
2.651753e+003;5.780772e-002
2.653682e+003;5.763243e-002
2.655611e+003;5.737447e-002
2.657539e+003;5.722807e-002
2.659468e+003;5.720891e-002
2.661396e+003;5.727934e-002
2.663325e+003;5.715947e-002
2.665253e+003;5.702963e-002
2.667182e+003;5.728595e-002
2.669110e+003;5.737083e-002
2.671039e+003;5.732981e-002
2.672968e+003;5.755688e-002
2.674896e+003;5.772268e-002
2.676825e+003;5.778986e-002
2.678753e+003;5.779447e-002
2.680682e+003;5.791819e-002
2.682610e+003;5.785375e-002
2.684539e+003;5.769827e-002
2.686467e+003;5.799467e-002
2.688396e+003;5.817424e-002
2.690324e+003;5.799816e-002
2.692253e+003;5.789630e-002
2.694182e+003;5.797729e-002
2.696110e+003;5.818743e-002
2.698039e+003;5.820690e-002
2.699967e+003;5.813291e-002
2.701896e+003;5.832425e-002
2.703824e+003;5.840365e-002
2.705753e+003;5.840766e-002
2.707681e+003;5.862320e-002
2.709610e+003;5.892866e-002
2.711539e+003;5.901280e-002
2.713467e+003;5.864342e-002
2.715396e+003;5.859143e-002
2.717324e+003;5.905114e-002
2.719253e+003;5.920851e-002
2.721181e+003;5.901451e-002
2.723110e+003;5.920532e-002
2.725038e+003;5.952640e-002
2.726967e+003;5.966136e-002
2.728896e+003;5.988041e-002
2.730824e+003;6.010075e-002
2.732752e+003;6.003762e-002
2.734681e+003;6.004843e-002
2.736610e+003;6.032931e-002
2.738538e+003;6.078980e-002
2.740467e+003;6.105934e-002
2.742395e+003;6.097141e-002
2.744324e+003;6.080177e-002
2.746252e+003;6.048871e-002
2.748181e+003;6.047324e-002
2.750109e+003;6.061136e-002
2.752038e+003;6.070757e-002
2.753967e+003;6.066138e-002
2.755895e+003;6.071999e-002
2.757824e+003;6.085799e-002
2.759752e+003;6.099593e-002
2.761681e+003;6.092703e-002
2.763609e+003;6.065876e-002
2.765538e+003;6.068028e-002
2.767466e+003;6.096031e-002
2.769395e+003;6.127723e-002
2.771323e+003;6.131718e-002
2.773252e+003;6.117201e-002
2.775181e+003;6.119753e-002
2.777109e+003;6.135229e-002
2.779038e+003;6.144228e-002
2.780966e+003;6.146362e-002
2.782895e+003;6.165452e-002
2.784823e+003;6.212716e-002
2.786752e+003;6.266535e-002
2.788680e+003;6.311262e-002
2.790609e+003;6.333598e-002
2.792538e+003;6.346397e-002
2.794466e+003;6.352395e-002
2.796395e+003;6.380624e-002
2.798323e+003;6.447476e-002
2.800252e+003;6.473275e-002
2.802180e+003;6.457609e-002
2.804109e+003;6.452885e-002
2.806037e+003;6.434805e-002
2.807966e+003;6.421612e-002
2.809895e+003;6.418992e-002
2.811823e+003;6.422438e-002
2.813751e+003;6.413803e-002
2.815680e+003;6.367727e-002
2.817609e+003;6.313768e-002
2.819537e+003;6.285877e-002
2.821466e+003;6.264410e-002
2.823394e+003;6.248686e-002
2.825323e+003;6.233954e-002
2.827251e+003;6.218696e-002
2.829180e+003;6.194178e-002
2.831108e+003;6.187362e-002
2.833037e+003;6.178239e-002
2.834966e+003;6.153447e-002
2.836894e+003;6.122546e-002
2.838823e+003;6.028945e-002
2.840751e+003;5.897621e-002
2.842680e+003;5.689676e-002
2.844608e+003;5.402266e-002
2.846537e+003;5.056424e-002
2.848465e+003;4.706228e-002
2.850394e+003;4.473533e-002
2.852323e+003;4.389703e-002
2.854251e+003;4.468432e-002
2.856180e+003;4.704300e-002
2.858108e+003;5.004169e-002
2.860037e+003;5.321516e-002
2.861965e+003;5.611750e-002
2.863894e+003;5.839372e-002
2.865822e+003;6.012084e-002
2.867751e+003;6.121508e-002
2.869679e+003;6.158552e-002
2.871608e+003;6.196976e-002
2.873536e+003;6.296562e-002
2.875465e+003;6.383422e-002
2.877394e+003;6.447008e-002
2.879322e+003;6.485292e-002
2.881251e+003;6.499786e-002
2.883179e+003;6.525388e-002
2.885108e+003;6.538991e-002
2.887036e+003;6.512984e-002
2.888965e+003;6.450305e-002
2.890893e+003;6.405047e-002
2.892822e+003;6.379718e-002
2.894750e+003;6.331413e-002
2.896679e+003;6.283472e-002
2.898608e+003;6.212078e-002
2.900536e+003;6.166223e-002
2.902465e+003;6.168469e-002
2.904393e+003;6.125582e-002
2.906322e+003;6.024952e-002
2.908250e+003;5.873319e-002
2.910179e+003;5.565041e-002
2.912107e+003;5.126628e-002
2.914036e+003;4.690958e-002
2.915965e+003;4.268584e-002
2.917893e+003;3.914675e-002
2.919822e+003;3.628688e-002
2.921750e+003;3.436259e-002
2.923679e+003;3.371684e-002
2.925607e+003;3.446065e-002
2.927536e+003;3.598138e-002
2.929464e+003;3.832705e-002
2.931393e+003;4.148430e-002
2.933322e+003;4.480667e-002
2.935250e+003;4.802857e-002
2.937178e+003;5.109957e-002
2.939107e+003;5.447797e-002
2.941036e+003;5.764147e-002
2.942964e+003;5.995036e-002
2.944893e+003;6.166234e-002
2.946821e+003;6.353162e-002
2.948750e+003;6.488434e-002
2.950678e+003;6.543621e-002
2.952607e+003;6.598951e-002
2.954535e+003;6.688486e-002
2.956464e+003;6.816055e-002
2.958393e+003;7.002174e-002
2.960321e+003;7.193173e-002
2.962250e+003;7.369532e-002
2.964178e+003;7.542931e-002
2.966107e+003;7.722151e-002
2.968035e+003;7.937790e-002
2.969964e+003;8.076533e-002
2.971892e+003;8.124271e-002
2.973821e+003;8.162904e-002
2.975750e+003;8.198649e-002
2.977678e+003;8.191575e-002
2.979607e+003;8.154523e-002
2.981535e+003;8.104137e-002
2.983464e+003;8.053210e-002
2.985392e+003;8.020345e-002
2.987321e+003;7.994706e-002
2.989249e+003;7.947461e-002
2.991178e+003;7.884272e-002
2.993106e+003;7.833495e-002
2.995035e+003;7.772806e-002
2.996964e+003;7.737306e-002
2.998892e+003;7.735801e-002
3.000821e+003;7.723501e-002
3.002749e+003;7.679618e-002
3.004678e+003;7.630474e-002
3.006606e+003;7.591490e-002
3.008535e+003;7.573488e-002
3.010463e+003;7.562645e-002
3.012392e+003;7.550315e-002
3.014321e+003;7.529133e-002
3.016249e+003;7.499706e-002
3.018177e+003;7.455686e-002
3.020106e+003;7.372978e-002
3.022035e+003;7.290346e-002
3.023963e+003;7.218394e-002
3.025892e+003;7.126316e-002
3.027820e+003;7.044829e-002
3.029749e+003;6.974686e-002
3.031677e+003;6.914831e-002
3.033606e+003;6.868558e-002
3.035534e+003;6.835992e-002
3.037463e+003;6.817283e-002
3.039392e+003;6.816345e-002
3.041320e+003;6.855027e-002
3.043249e+003;6.913545e-002
3.045177e+003;6.978258e-002
3.047106e+003;7.090661e-002
3.049034e+003;7.225769e-002
3.050963e+003;7.322650e-002
3.052891e+003;7.373010e-002
3.054820e+003;7.397106e-002
3.056749e+003;7.388169e-002
3.058677e+003;7.355368e-002
3.060606e+003;7.361393e-002
3.062534e+003;7.372610e-002
3.064463e+003;7.363176e-002
3.066391e+003;7.369037e-002
3.068320e+003;7.396760e-002
3.070248e+003;7.407498e-002
3.072177e+003;7.412501e-002
3.074105e+003;7.444138e-002
3.076034e+003;7.450222e-002
3.077963e+003;7.432659e-002
3.079891e+003;7.394619e-002
3.081820e+003;7.384874e-002
3.083748e+003;7.395558e-002
3.085677e+003;7.384799e-002
3.087605e+003;7.343925e-002
3.089534e+003;7.289480e-002
3.091462e+003;7.224412e-002
3.093391e+003;7.167728e-002
3.095320e+003;7.174364e-002
3.097248e+003;7.207941e-002
3.099177e+003;7.232763e-002
3.101105e+003;7.270728e-002
3.103034e+003;7.322706e-002
3.104962e+003;7.326965e-002
3.106891e+003;7.278069e-002
3.108819e+003;7.234594e-002
3.110748e+003;7.186475e-002
3.112677e+003;7.113554e-002
3.114605e+003;7.013131e-002
3.116533e+003;6.923966e-002
3.118462e+003;6.885262e-002
3.120391e+003;6.860506e-002
3.122319e+003;6.845898e-002
3.124248e+003;6.859819e-002
3.126176e+003;6.865834e-002
3.128105e+003;6.849809e-002
3.130033e+003;6.814244e-002
3.131962e+003;6.786817e-002
3.133890e+003;6.758597e-002
3.135819e+003;6.711408e-002
3.137748e+003;6.646987e-002
3.139676e+003;6.561715e-002
3.141605e+003;6.505820e-002
3.143533e+003;6.480414e-002
3.145462e+003;6.449525e-002
3.147390e+003;6.423571e-002
3.149319e+003;6.397092e-002
3.151247e+003;6.365889e-002
3.153176e+003;6.360933e-002
3.155104e+003;6.335293e-002
3.157033e+003;6.284633e-002
3.158962e+003;6.235909e-002
3.160890e+003;6.198126e-002
3.162819e+003;6.196678e-002
3.164747e+003;6.202900e-002
3.166676e+003;6.227433e-002
3.168604e+003;6.238165e-002
3.170533e+003;6.204046e-002
3.172461e+003;6.175305e-002
3.174390e+003;6.158192e-002
3.176319e+003;6.153034e-002
3.178247e+003;6.165887e-002
3.180176e+003;6.145419e-002
3.182104e+003;6.120459e-002
3.184033e+003;6.134641e-002
3.185961e+003;6.177238e-002
3.187890e+003;6.178602e-002
3.189818e+003;6.137056e-002
3.191747e+003;6.100573e-002
3.193676e+003;6.098315e-002
3.195604e+003;6.085056e-002
3.197532e+003;6.095200e-002
3.199461e+003;6.111823e-002
3.201390e+003;6.095402e-002
3.203318e+003;6.050912e-002
3.205247e+003;6.037675e-002
3.207175e+003;6.068204e-002
3.209104e+003;6.056987e-002
3.211032e+003;5.992308e-002
3.212961e+003;5.971971e-002
3.214889e+003;6.005387e-002
3.216818e+003;6.026006e-002
3.218747e+003;6.032562e-002
3.220675e+003;6.023524e-002
3.222604e+003;5.991513e-002
3.224532e+003;5.976800e-002
3.226461e+003;5.971667e-002
3.228389e+003;5.962909e-002
3.230318e+003;5.970306e-002
3.232246e+003;5.997953e-002
3.234175e+003;6.015182e-002
3.236104e+003;5.987851e-002
3.238032e+003;5.972329e-002
3.239961e+003;5.967098e-002
3.241889e+003;5.925078e-002
3.243818e+003;5.896392e-002
3.245746e+003;5.910960e-002
3.247675e+003;5.892115e-002
3.249603e+003;5.850551e-002
3.251532e+003;5.870710e-002
3.253460e+003;5.878418e-002
3.255389e+003;5.843026e-002
3.257318e+003;5.817250e-002
3.259246e+003;5.819663e-002
3.261175e+003;5.823853e-002
3.263103e+003;5.819254e-002
3.265032e+003;5.787654e-002
3.266960e+003;5.773263e-002
3.268889e+003;5.761170e-002
3.270817e+003;5.739931e-002
3.272746e+003;5.765298e-002
3.274675e+003;5.814507e-002
3.276603e+003;5.781590e-002
3.278531e+003;5.755567e-002
3.280460e+003;5.771644e-002
3.282389e+003;5.769445e-002
3.284317e+003;5.771295e-002
3.286246e+003;5.780333e-002
3.288174e+003;5.779247e-002
3.290103e+003;5.797824e-002
3.292031e+003;5.811768e-002
3.293960e+003;5.805030e-002
3.295888e+003;5.773797e-002
3.297817e+003;5.783214e-002
3.299746e+003;5.822815e-002
3.301674e+003;5.821425e-002
3.303603e+003;5.802099e-002
3.305531e+003;5.814715e-002
3.307460e+003;5.835722e-002
3.309388e+003;5.813519e-002
3.311317e+003;5.793485e-002
3.313245e+003;5.788343e-002
3.315174e+003;5.818295e-002
3.317103e+003;5.840505e-002
3.319031e+003;5.815572e-002
3.320960e+003;5.762789e-002
3.322888e+003;5.749428e-002
3.324817e+003;5.763648e-002
3.326745e+003;5.756108e-002
3.328674e+003;5.750074e-002
3.330602e+003;5.794268e-002
3.332531e+003;5.842533e-002
3.334459e+003;5.870429e-002
3.336388e+003;5.858085e-002
3.338317e+003;5.815587e-002
3.340245e+003;5.823781e-002
3.342174e+003;5.845914e-002
3.344102e+003;5.812291e-002
3.346031e+003;5.774081e-002
3.347959e+003;5.754928e-002
3.349888e+003;5.731877e-002
3.351816e+003;5.710173e-002
3.353745e+003;5.685794e-002
3.355674e+003;5.657925e-002
3.357602e+003;5.638627e-002
3.359531e+003;5.624727e-002
3.361459e+003;5.633085e-002
3.363388e+003;5.644351e-002
3.365316e+003;5.622192e-002
3.367245e+003;5.608338e-002
3.369173e+003;5.620974e-002
3.371102e+003;5.640638e-002
3.373031e+003;5.642053e-002
3.374959e+003;5.640593e-002
3.376887e+003;5.626714e-002
3.378816e+003;5.622720e-002
3.380745e+003;5.644641e-002
3.382673e+003;5.654204e-002
3.384602e+003;5.646743e-002
3.386530e+003;5.664758e-002
3.388459e+003;5.676507e-002
3.390387e+003;5.670466e-002
3.392316e+003;5.688721e-002
3.394244e+003;5.692403e-002
3.396173e+003;5.668997e-002
3.398102e+003;5.710584e-002
3.400030e+003;5.763932e-002
3.401959e+003;5.804462e-002
3.403887e+003;5.857027e-002
3.405816e+003;5.938148e-002
3.407744e+003;6.011121e-002
3.409673e+003;6.091227e-002
3.411601e+003;6.177246e-002
3.413530e+003;6.235289e-002
3.415458e+003;6.280436e-002
3.417387e+003;6.354600e-002
3.419316e+003;6.473133e-002
3.421244e+003;6.582029e-002
3.423173e+003;6.665263e-002
3.425101e+003;6.705310e-002
3.427030e+003;6.737693e-002
3.428958e+003;6.763611e-002
3.430887e+003;6.789629e-002
3.432815e+003;6.796069e-002
3.434744e+003;6.768842e-002
3.436673e+003;6.731994e-002
3.438601e+003;6.701224e-002
3.440530e+003;6.616724e-002
3.442458e+003;6.518054e-002
3.444387e+003;6.460208e-002
3.446315e+003;6.385030e-002
3.448244e+003;6.320398e-002
3.450172e+003;6.265830e-002
3.452101e+003;6.213748e-002
3.454030e+003;6.140926e-002
3.455958e+003;6.074883e-002
3.457886e+003;6.033830e-002
3.459815e+003;5.965391e-002
3.461744e+003;5.854300e-002
3.463672e+003;5.794075e-002
3.465601e+003;5.784959e-002
3.467529e+003;5.758094e-002
3.469458e+003;5.716718e-002
3.471386e+003;5.672210e-002
3.473315e+003;5.639035e-002
3.475243e+003;5.622969e-002
3.477172e+003;5.616162e-002
3.479101e+003;5.600045e-002
3.481029e+003;5.538929e-002
3.482958e+003;5.544128e-002
3.484886e+003;5.601628e-002
3.486815e+003;5.607151e-002
3.488743e+003;5.550897e-002
3.490672e+003;5.506863e-002
3.492600e+003;5.509368e-002
3.494529e+003;5.537006e-002
3.496458e+003;5.558545e-002
3.498386e+003;5.573049e-002
3.500315e+003;5.589985e-002
3.502243e+003;5.556485e-002
3.504172e+003;5.546401e-002
3.506100e+003;5.600151e-002
3.508029e+003;5.582208e-002
3.509957e+003;5.560360e-002
3.511886e+003;5.588881e-002
3.513814e+003;5.608429e-002
3.515743e+003;5.626228e-002
3.517672e+003;5.643823e-002
3.519600e+003;5.664546e-002
3.521529e+003;5.687663e-002
3.523457e+003;5.696653e-002
3.525386e+003;5.695803e-002
3.527314e+003;5.698792e-002
3.529243e+003;5.716854e-002
3.531171e+003;5.730372e-002
3.533100e+003;5.765335e-002
3.535029e+003;5.797551e-002
3.536957e+003;5.801569e-002
3.538885e+003;5.814310e-002
3.540814e+003;5.836692e-002
3.542743e+003;5.827260e-002
3.544671e+003;5.801902e-002
3.546600e+003;5.790838e-002
3.548528e+003;5.797108e-002
3.550457e+003;5.767417e-002
3.552385e+003;5.758449e-002
3.554314e+003;5.780189e-002
3.556242e+003;5.775504e-002
3.558171e+003;5.752756e-002
3.560100e+003;5.739167e-002
3.562028e+003;5.737613e-002
3.563957e+003;5.669450e-002
3.565885e+003;5.546966e-002
3.567814e+003;5.538590e-002
3.569742e+003;5.618255e-002
3.571671e+003;5.659031e-002
3.573599e+003;5.668133e-002
3.575528e+003;5.626752e-002
3.577457e+003;5.572876e-002
3.579385e+003;5.555841e-002
3.581314e+003;5.538312e-002
3.583242e+003;5.483677e-002
3.585171e+003;5.357786e-002
3.587099e+003;5.252897e-002
3.589028e+003;5.306938e-002
3.590956e+003;5.375186e-002
3.592885e+003;5.317562e-002
3.594813e+003;5.302468e-002
3.596742e+003;5.356324e-002
3.598671e+003;5.352186e-002
3.600599e+003;5.331469e-002
3.602528e+003;5.367342e-002
3.604456e+003;5.362641e-002
3.606385e+003;5.260013e-002
3.608313e+003;5.169562e-002
3.610242e+003;5.211786e-002
3.612170e+003;5.203385e-002
3.614099e+003;5.233512e-002
3.616028e+003;5.260806e-002
3.617956e+003;5.186994e-002
3.619885e+003;5.213673e-002
3.621813e+003;5.379540e-002
3.623742e+003;5.437372e-002
3.625670e+003;5.304644e-002
3.627599e+003;5.007552e-002
3.629527e+003;5.027580e-002
3.631456e+003;5.322498e-002
3.633385e+003;5.437893e-002
3.635313e+003;5.488974e-002
3.637241e+003;5.482914e-002
3.639170e+003;5.432707e-002
3.641099e+003;5.400806e-002
3.643027e+003;5.392151e-002
3.644956e+003;5.262923e-002
3.646884e+003;4.992143e-002
3.648813e+003;4.849220e-002
3.650741e+003;5.004541e-002
3.652670e+003;5.223799e-002
3.654598e+003;5.135973e-002
3.656527e+003;5.085082e-002
3.658456e+003;5.256356e-002
3.660384e+003;5.302648e-002
3.662313e+003;5.254512e-002
3.664241e+003;5.184400e-002
3.666170e+003;5.121468e-002
3.668098e+003;4.917943e-002
3.670027e+003;4.699755e-002
3.671955e+003;4.770136e-002
3.673884e+003;4.648082e-002
3.675813e+003;4.621262e-002
3.677741e+003;4.935966e-002
3.679669e+003;5.103432e-002
3.681598e+003;5.175138e-002
3.683527e+003;5.206485e-002
3.685455e+003;5.145667e-002
3.687384e+003;4.870147e-002
3.689312e+003;4.815083e-002
3.691241e+003;4.984364e-002
3.693169e+003;5.092537e-002
3.695098e+003;5.091508e-002
3.697026e+003;5.087828e-002
3.698955e+003;5.007831e-002
3.700884e+003;4.862938e-002
3.702812e+003;4.875221e-002
3.704741e+003;4.936735e-002
3.706669e+003;4.886188e-002
3.708598e+003;4.711967e-002
3.710526e+003;4.538294e-002
3.712455e+003;4.597921e-002
3.714383e+003;4.826949e-002
3.716312e+003;4.877201e-002
3.718240e+003;4.847342e-002
3.720169e+003;4.826697e-002
3.722098e+003;4.810019e-002
3.724026e+003;4.793273e-002
3.725955e+003;4.792596e-002
3.727883e+003;4.861567e-002
3.729812e+003;4.816790e-002
3.731740e+003;4.669195e-002
3.733669e+003;4.587753e-002
3.735597e+003;4.501022e-002
3.737526e+003;4.639542e-002
3.739455e+003;4.809071e-002
3.741383e+003;4.695842e-002
3.743312e+003;4.239302e-002
3.745240e+003;4.326656e-002
3.747169e+003;4.552113e-002
3.749097e+003;4.361412e-002
3.751026e+003;4.339477e-002
3.752954e+003;4.589646e-002
3.754883e+003;4.881220e-002
3.756812e+003;4.921064e-002
3.758740e+003;4.900856e-002
3.760668e+003;4.944624e-002
3.762597e+003;5.008051e-002
3.764526e+003;4.932919e-002
3.766454e+003;4.882647e-002
3.768383e+003;4.811066e-002
3.770311e+003;4.820155e-002
3.772240e+003;4.927915e-002
3.774168e+003;4.964215e-002
3.776097e+003;4.912493e-002
3.778025e+003;4.840467e-002
3.779954e+003;4.842441e-002
3.781883e+003;4.901735e-002
3.783811e+003;4.901219e-002
3.785740e+003;4.865095e-002
3.787668e+003;4.857913e-002
3.789597e+003;4.944817e-002
3.791525e+003;5.002834e-002
3.793454e+003;4.969776e-002
3.795382e+003;4.883811e-002
3.797311e+003;4.867689e-002
3.799240e+003;4.664078e-002
3.801168e+003;4.496113e-002
3.803097e+003;4.719043e-002
3.805025e+003;4.740864e-002
3.806954e+003;4.691807e-002
3.808882e+003;4.912515e-002
3.810811e+003;5.053919e-002
3.812739e+003;4.981550e-002
3.814668e+003;4.688680e-002
3.816596e+003;4.694125e-002
3.818525e+003;4.771093e-002
3.820454e+003;4.596485e-002
3.822382e+003;4.729173e-002
3.824311e+003;4.927117e-002
3.826239e+003;4.955924e-002
3.828168e+003;4.910534e-002
3.830096e+003;4.795804e-002
3.832025e+003;4.736777e-002
3.833953e+003;4.733270e-002
3.835882e+003;4.569060e-002
3.837811e+003;4.447045e-002
3.839739e+003;4.634878e-002
3.841667e+003;4.807395e-002
3.843596e+003;4.884297e-002
3.845525e+003;4.920511e-002
3.847453e+003;4.898830e-002
3.849382e+003;4.740709e-002
3.851310e+003;4.284551e-002
3.853239e+003;3.968024e-002
3.855167e+003;4.393332e-002
3.857096e+003;4.837874e-002
3.859024e+003;4.894042e-002
3.860953e+003;4.796174e-002
3.862882e+003;4.707557e-002
3.864810e+003;4.709119e-002
3.866739e+003;4.793043e-002
3.868667e+003;4.603480e-002
3.870596e+003;4.579099e-002
3.872524e+003;4.735724e-002
3.874453e+003;4.820647e-002
3.876381e+003;4.915209e-002
3.878310e+003;4.888624e-002
3.880239e+003;4.840574e-002
3.882167e+003;4.867975e-002
3.884096e+003;4.766441e-002
3.886024e+003;4.772458e-002
3.887953e+003;4.945768e-002
3.889881e+003;4.864731e-002
3.891810e+003;4.854778e-002
3.893738e+003;4.974999e-002
3.895667e+003;4.962955e-002
3.897595e+003;4.860903e-002
3.899524e+003;4.788245e-002
3.901453e+003;4.797525e-002
3.903381e+003;4.847298e-002
3.905310e+003;4.963891e-002
3.907238e+003;5.080054e-002
3.909167e+003;5.112082e-002
3.911095e+003;5.132255e-002
3.913024e+003;5.136253e-002
3.914952e+003;5.090189e-002
3.916881e+003;5.071190e-002
3.918810e+003;5.122919e-002
3.920738e+003;5.152449e-002
3.922667e+003;5.119959e-002
3.924595e+003;5.091788e-002
3.926524e+003;5.124540e-002
3.928452e+003;5.144025e-002
3.930381e+003;5.122281e-002
3.932309e+003;5.090722e-002
3.934238e+003;5.128981e-002
3.936167e+003;5.149468e-002
3.938095e+003;5.166191e-002
3.940023e+003;5.136644e-002
3.941952e+003;5.057437e-002
3.943881e+003;5.057973e-002
3.945809e+003;5.095741e-002
3.947738e+003;5.111299e-002
3.949666e+003;5.105194e-002
3.951595e+003;5.117118e-002
3.953523e+003;5.130331e-002
3.955452e+003;5.172715e-002
3.957380e+003;5.242308e-002
3.959309e+003;5.283410e-002
3.961238e+003;5.273539e-002
3.963166e+003;5.245841e-002
3.965095e+003;5.237459e-002
3.967023e+003;5.245766e-002
3.968952e+003;5.213707e-002
3.970880e+003;5.154717e-002
3.972809e+003;5.148080e-002
3.974737e+003;5.153572e-002
3.976666e+003;5.193854e-002
3.978594e+003;5.220925e-002
3.980523e+003;5.207595e-002
3.982452e+003;5.201615e-002
3.984380e+003;5.226702e-002
3.986309e+003;5.237437e-002
3.988237e+003;5.237411e-002
3.990166e+003;5.229277e-002
3.992094e+003;5.187629e-002
3.994023e+003;5.150650e-002
3.995951e+003;5.195799e-002
3.997880e+003;5.207236e-002
3.999809e+003;5.199108e-002
4.001737e+003;0.000000e+000
