3.992094e+002;0.000000e+000
4.011380e+002;0.000000e+000
4.030665e+002;0.000000e+000
4.049951e+002;0.000000e+000
4.069236e+002;0.000000e+000
4.088522e+002;0.000000e+000
4.107807e+002;0.000000e+000
4.127093e+002;0.000000e+000
4.146378e+002;0.000000e+000
4.165664e+002;0.000000e+000
4.184949e+002;0.000000e+000
4.204235e+002;0.000000e+000
4.223520e+002;0.000000e+000
4.242806e+002;0.000000e+000
4.262091e+002;0.000000e+000
4.281377e+002;0.000000e+000
4.300662e+002;0.000000e+000
4.319948e+002;0.000000e+000
4.339233e+002;0.000000e+000
4.358519e+002;0.000000e+000
4.377804e+002;0.000000e+000
4.397090e+002;0.000000e+000
4.416375e+002;0.000000e+000
4.435660e+002;0.000000e+000
4.454946e+002;0.000000e+000
4.474232e+002;0.000000e+000
4.493517e+002;0.000000e+000
4.512802e+002;0.000000e+000
4.532088e+002;0.000000e+000
4.551373e+002;0.000000e+000
4.570659e+002;0.000000e+000
4.589944e+002;0.000000e+000
4.609230e+002;0.000000e+000
4.628515e+002;0.000000e+000
4.647801e+002;0.000000e+000
4.667086e+002;0.000000e+000
4.686372e+002;0.000000e+000
4.705657e+002;0.000000e+000
4.724943e+002;0.000000e+000
4.744228e+002;0.000000e+000
4.763513e+002;0.000000e+000
4.782799e+002;0.000000e+000
4.802085e+002;0.000000e+000
4.821370e+002;0.000000e+000
4.840656e+002;0.000000e+000
4.859941e+002;0.000000e+000
4.879226e+002;0.000000e+000
4.898512e+002;0.000000e+000
4.917798e+002;0.000000e+000
4.937083e+002;0.000000e+000
4.956368e+002;0.000000e+000
4.975654e+002;0.000000e+000
4.994939e+002;0.000000e+000
5.014225e+002;0.000000e+000
5.033510e+002;0.000000e+000
5.052796e+002;0.000000e+000
5.072081e+002;0.000000e+000
5.091367e+002;0.000000e+000
5.110652e+002;0.000000e+000
5.129938e+002;0.000000e+000
5.149223e+002;0.000000e+000
5.168509e+002;0.000000e+000
5.187794e+002;0.000000e+000
5.207079e+002;0.000000e+000
5.226365e+002;0.000000e+000
5.245651e+002;0.000000e+000
5.264936e+002;0.000000e+000
5.284222e+002;0.000000e+000
5.303507e+002;0.000000e+000
5.322792e+002;0.000000e+000
5.342078e+002;0.000000e+000
5.361364e+002;0.000000e+000
5.380649e+002;0.000000e+000
5.399935e+002;0.000000e+000
5.419220e+002;0.000000e+000
5.438505e+002;0.000000e+000
5.457791e+002;0.000000e+000
5.477076e+002;0.000000e+000
5.496362e+002;0.000000e+000
5.515648e+002;0.000000e+000
5.534933e+002;0.000000e+000
5.554218e+002;0.000000e+000
5.573504e+002;0.000000e+000
5.592789e+002;0.000000e+000
5.612075e+002;0.000000e+000
5.631360e+002;0.000000e+000
5.650646e+002;0.000000e+000
5.669931e+002;0.000000e+000
5.689217e+002;0.000000e+000
5.708502e+002;0.000000e+000
5.727787e+002;0.000000e+000
5.747073e+002;0.000000e+000
5.766359e+002;0.000000e+000
5.785644e+002;0.000000e+000
5.804930e+002;0.000000e+000
5.824215e+002;0.000000e+000
5.843500e+002;0.000000e+000
5.862786e+002;0.000000e+000
5.882072e+002;0.000000e+000
5.901357e+002;0.000000e+000
5.920643e+002;0.000000e+000
5.939928e+002;0.000000e+000
5.959213e+002;0.000000e+000
5.978499e+002;0.000000e+000
5.997784e+002;6.012712e-002
6.017070e+002;7.272988e-002
6.036355e+002;7.758836e-002
6.055641e+002;7.258970e-002
6.074926e+002;6.676313e-002
6.094211e+002;6.549365e-002
6.113497e+002;6.722625e-002
6.132783e+002;6.508075e-002
6.152068e+002;6.385130e-002
6.171354e+002;6.983121e-002
6.190639e+002;7.315866e-002
6.209924e+002;7.080836e-002
6.229210e+002;7.067627e-002
6.248495e+002;7.153060e-002
6.267781e+002;7.336991e-002
6.287067e+002;7.460962e-002
6.306352e+002;7.783899e-002
6.325637e+002;8.084682e-002
6.344923e+002;7.570371e-002
6.364208e+002;6.960884e-002
6.383494e+002;6.770945e-002
6.402780e+002;6.861755e-002
6.422065e+002;6.962506e-002
6.441350e+002;6.910852e-002
6.460636e+002;7.054202e-002
6.479921e+002;7.244322e-002
6.499207e+002;7.110198e-002
6.518492e+002;7.229280e-002
6.537778e+002;7.580964e-002
6.557063e+002;7.664780e-002
6.576349e+002;7.629929e-002
6.595634e+002;7.793964e-002
6.614919e+002;8.223964e-002
6.634205e+002;8.588235e-002
6.653491e+002;8.561028e-002
6.672776e+002;8.368632e-002
6.692062e+002;8.765011e-002
6.711347e+002;9.357458e-002
6.730632e+002;9.569871e-002
6.749918e+002;9.759593e-002
6.769203e+002;1.018500e-001
6.788489e+002;1.073403e-001
6.807775e+002;1.107923e-001
6.827060e+002;1.103399e-001
6.846345e+002;1.097277e-001
6.865631e+002;1.098108e-001
6.884916e+002;1.108551e-001
6.904202e+002;1.138299e-001
6.923488e+002;1.176776e-001
6.942773e+002;1.236992e-001
6.962058e+002;1.340720e-001
6.981344e+002;1.496309e-001
7.000629e+002;1.688461e-001
7.019915e+002;1.862678e-001
7.039200e+002;1.999885e-001
7.058486e+002;2.141714e-001
7.077771e+002;2.304388e-001
7.097057e+002;2.501076e-001
7.116342e+002;2.743416e-001
7.135627e+002;3.052505e-001
7.154913e+002;3.475318e-001
7.174199e+002;4.006893e-001
7.193484e+002;4.585812e-001
7.212770e+002;5.151128e-001
7.232055e+002;5.498807e-001
7.251340e+002;5.343892e-001
7.270626e+002;4.764416e-001
7.289911e+002;4.044767e-001
7.309197e+002;3.381812e-001
7.328483e+002;2.827141e-001
7.347768e+002;2.328186e-001
7.367053e+002;1.881134e-001
7.386339e+002;1.506889e-001
7.405624e+002;1.216404e-001
7.424910e+002;1.018660e-001
7.444196e+002;8.953603e-002
7.463481e+002;8.212466e-002
7.482766e+002;7.779274e-002
7.502052e+002;7.476809e-002
7.521337e+002;7.296809e-002
7.540623e+002;7.178191e-002
7.559908e+002;7.124317e-002
7.579194e+002;7.155599e-002
7.598479e+002;7.174916e-002
7.617765e+002;7.223997e-002
7.637050e+002;7.316054e-002
7.656335e+002;7.517769e-002
7.675621e+002;7.673493e-002
7.694907e+002;7.863153e-002
7.714192e+002;8.063877e-002
7.733478e+002;8.282028e-002
7.752763e+002;8.528217e-002
7.772048e+002;8.758269e-002
7.791334e+002;8.944964e-002
7.810620e+002;9.217338e-002
7.829905e+002;9.631765e-002
7.849191e+002;1.009019e-001
7.868476e+002;1.058297e-001
7.887761e+002;1.112075e-001
7.907047e+002;1.166881e-001
7.926332e+002;1.193113e-001
7.945618e+002;1.150429e-001
7.964903e+002;1.057236e-001
7.984189e+002;9.764895e-002
8.003474e+002;9.415600e-002
8.022759e+002;9.316048e-002
8.042045e+002;9.416869e-002
8.061331e+002;9.526814e-002
8.080616e+002;9.546652e-002
8.099902e+002;9.588552e-002
8.119187e+002;9.668737e-002
8.138472e+002;9.642880e-002
8.157758e+002;9.613454e-002
8.177043e+002;9.712067e-002
8.196329e+002;9.815673e-002
8.215615e+002;9.878247e-002
8.234900e+002;9.919835e-002
8.254185e+002;9.974708e-002
8.273471e+002;1.014587e-001
8.292756e+002;1.047786e-001
8.312042e+002;1.090654e-001
8.331328e+002;1.133446e-001
8.350613e+002;1.170522e-001
8.369898e+002;1.219251e-001
8.389184e+002;1.278511e-001
8.408469e+002;1.339999e-001
8.427755e+002;1.408297e-001
8.447040e+002;1.480327e-001
8.466326e+002;1.533823e-001
8.485611e+002;1.538102e-001
8.504897e+002;1.507968e-001
8.524182e+002;1.463692e-001
8.543467e+002;1.428962e-001
8.562753e+002;1.416742e-001
8.582039e+002;1.412473e-001
8.601324e+002;1.412837e-001
8.620610e+002;1.424771e-001
8.639895e+002;1.470683e-001
8.659180e+002;1.575560e-001
8.678466e+002;1.773887e-001
8.697751e+002;2.075654e-001
8.717037e+002;2.307537e-001
8.736323e+002;2.238727e-001
8.755608e+002;1.992680e-001
8.774893e+002;1.768950e-001
8.794179e+002;1.583125e-001
8.813464e+002;1.422128e-001
8.832750e+002;1.289589e-001
8.852036e+002;1.187269e-001
8.871321e+002;1.114959e-001
8.890606e+002;1.069821e-001
8.909892e+002;1.047250e-001
8.929177e+002;1.034636e-001
8.948463e+002;1.032870e-001
8.967748e+002;1.036259e-001
8.987034e+002;1.035399e-001
9.006319e+002;1.027456e-001
9.025605e+002;1.009932e-001
9.044890e+002;9.900578e-002
9.064175e+002;9.672980e-002
9.083461e+002;9.385547e-002
9.102747e+002;9.115843e-002
9.122032e+002;8.881596e-002
9.141318e+002;8.681097e-002
9.160603e+002;8.533052e-002
9.179888e+002;8.425747e-002
9.199174e+002;8.359493e-002
9.218459e+002;8.364776e-002
9.237745e+002;8.360927e-002
9.257031e+002;8.370958e-002
9.276316e+002;8.431995e-002
9.295601e+002;8.507971e-002
9.314887e+002;8.608744e-002
9.334172e+002;8.720217e-002
9.353458e+002;8.845455e-002
9.372744e+002;8.947842e-002
9.392029e+002;9.084023e-002
9.411314e+002;9.249460e-002
9.430600e+002;9.424434e-002
9.449885e+002;9.673535e-002
9.469171e+002;9.909081e-002
9.488456e+002;1.010646e-001
9.507742e+002;1.035546e-001
9.527027e+002;1.065170e-001
9.546313e+002;1.097596e-001
9.565598e+002;1.136296e-001
9.584883e+002;1.176834e-001
9.604169e+002;1.220273e-001
9.623455e+002;1.269502e-001
9.642740e+002;1.324607e-001
9.662026e+002;1.374199e-001
9.681311e+002;1.410372e-001
9.700596e+002;1.430320e-001
9.719882e+002;1.428063e-001
9.739167e+002;1.402894e-001
9.758453e+002;1.361527e-001
9.777739e+002;1.315069e-001
9.797024e+002;1.272625e-001
9.816309e+002;1.236765e-001
9.835595e+002;1.207543e-001
9.854880e+002;1.191326e-001
9.874166e+002;1.179537e-001
9.893452e+002;1.163189e-001
9.912737e+002;1.148738e-001
9.932022e+002;1.139472e-001
9.951307e+002;1.138432e-001
9.970593e+002;1.144063e-001
9.989879e+002;1.155894e-001
1.000916e+003;1.178090e-001
1.002845e+003;1.210397e-001
1.004773e+003;1.258665e-001
1.006702e+003;1.332051e-001
1.008631e+003;1.444260e-001
1.010559e+003;1.612643e-001
1.012488e+003;1.884125e-001
1.014416e+003;2.260719e-001
1.016345e+003;2.619656e-001
1.018273e+003;2.764615e-001
1.020202e+003;2.636636e-001
1.022130e+003;2.370857e-001
1.024059e+003;2.083426e-001
1.025988e+003;1.809120e-001
1.027916e+003;1.587109e-001
1.029845e+003;1.457033e-001
1.031773e+003;1.409183e-001
1.033702e+003;1.404877e-001
1.035630e+003;1.416444e-001
1.037559e+003;1.432779e-001
1.039487e+003;1.448978e-001
1.041416e+003;1.465748e-001
1.043344e+003;1.479772e-001
1.045273e+003;1.488321e-001
1.047202e+003;1.490209e-001
1.049130e+003;1.483882e-001
1.051059e+003;1.473458e-001
1.052987e+003;1.470003e-001
1.054916e+003;1.469546e-001
1.056844e+003;1.477779e-001
1.058773e+003;1.498720e-001
1.060701e+003;1.536901e-001
1.062630e+003;1.592523e-001
1.064558e+003;1.653223e-001
1.066487e+003;1.727038e-001
1.068416e+003;1.829475e-001
1.070344e+003;1.947388e-001
1.072273e+003;2.089631e-001
1.074201e+003;2.268700e-001
1.076130e+003;2.479147e-001
1.078058e+003;2.728568e-001
1.079987e+003;3.015153e-001
1.081915e+003;3.312064e-001
1.083844e+003;3.590903e-001
1.085773e+003;3.837434e-001
1.087701e+003;4.043001e-001
1.089630e+003;4.226831e-001
1.091558e+003;4.405036e-001
1.093487e+003;4.556814e-001
1.095415e+003;4.676418e-001
1.097344e+003;4.748935e-001
1.099272e+003;4.753081e-001
1.101201e+003;4.663278e-001
1.103129e+003;4.485217e-001
1.105058e+003;4.263902e-001
1.106987e+003;4.016463e-001
1.108915e+003;3.779615e-001
1.110844e+003;3.620924e-001
1.112772e+003;3.549918e-001
1.114701e+003;3.538279e-001
1.116629e+003;3.544050e-001
1.118558e+003;3.523564e-001
1.120486e+003;3.451686e-001
1.122415e+003;3.350607e-001
1.124344e+003;3.228495e-001
1.126272e+003;3.076807e-001
1.128201e+003;2.903757e-001
1.130129e+003;2.718777e-001
1.132058e+003;2.524175e-001
1.133986e+003;2.316129e-001
1.135915e+003;2.111800e-001
1.137843e+003;1.932760e-001
1.139772e+003;1.775246e-001
1.141700e+003;1.643692e-001
1.143629e+003;1.532693e-001
1.145557e+003;1.436720e-001
1.147486e+003;1.356523e-001
1.149415e+003;1.288806e-001
1.151343e+003;1.231126e-001
1.153272e+003;1.180590e-001
1.155200e+003;1.138951e-001
1.157129e+003;1.112083e-001
1.159057e+003;1.093734e-001
1.160986e+003;1.082906e-001
1.162914e+003;1.078183e-001
1.164843e+003;1.084700e-001
1.166771e+003;1.109506e-001
1.168700e+003;1.150556e-001
1.170629e+003;1.196075e-001
1.172557e+003;1.230951e-001
1.174486e+003;1.249358e-001
1.176414e+003;1.245902e-001
1.178343e+003;1.226033e-001
1.180271e+003;1.197989e-001
1.182200e+003;1.166979e-001
1.184128e+003;1.144681e-001
1.186057e+003;1.132760e-001
1.187986e+003;1.134952e-001
1.189914e+003;1.148951e-001
1.191843e+003;1.165408e-001
1.193771e+003;1.190998e-001
1.195700e+003;1.230028e-001
1.197628e+003;1.273795e-001
1.199557e+003;1.321201e-001
1.201485e+003;1.372626e-001
1.203414e+003;1.429843e-001
1.205343e+003;1.490903e-001
1.207271e+003;1.557108e-001
1.209200e+003;1.626668e-001
1.211128e+003;1.701886e-001
1.213057e+003;1.791080e-001
1.214985e+003;1.896740e-001
1.216914e+003;2.010357e-001
1.218842e+003;2.128818e-001
1.220771e+003;2.255432e-001
1.222699e+003;2.385966e-001
1.224628e+003;2.514782e-001
1.226557e+003;2.663677e-001
1.228485e+003;2.856649e-001
1.230414e+003;3.104421e-001
1.232342e+003;3.415160e-001
1.234271e+003;3.790140e-001
1.236199e+003;4.212372e-001
1.238128e+003;4.651853e-001
1.240056e+003;5.060459e-001
1.241985e+003;5.385861e-001
1.243913e+003;5.586027e-001
1.245842e+003;5.665708e-001
1.247771e+003;5.641408e-001
1.249699e+003;5.545763e-001
1.251628e+003;5.424142e-001
1.253556e+003;5.293176e-001
1.255485e+003;5.168718e-001
1.257413e+003;5.058865e-001
1.259342e+003;4.943991e-001
1.261270e+003;4.802174e-001
1.263199e+003;4.613017e-001
1.265127e+003;4.387851e-001
1.267056e+003;4.140140e-001
1.268985e+003;3.889227e-001
1.270913e+003;3.651683e-001
1.272842e+003;3.431063e-001
1.274770e+003;3.233624e-001
1.276699e+003;3.063941e-001
1.278627e+003;2.913238e-001
1.280556e+003;2.776404e-001
1.282484e+003;2.647067e-001
1.284413e+003;2.520496e-001
1.286342e+003;2.392751e-001
1.288270e+003;2.265558e-001
1.290199e+003;2.141648e-001
1.292127e+003;2.016508e-001
1.294056e+003;1.894611e-001
1.295984e+003;1.778602e-001
1.297913e+003;1.659826e-001
1.299841e+003;1.546368e-001
1.301770e+003;1.452143e-001
1.303698e+003;1.380433e-001
1.305627e+003;1.317471e-001
1.307556e+003;1.254995e-001
1.309484e+003;1.200406e-001
1.311413e+003;1.150251e-001
1.313341e+003;1.099352e-001
1.315270e+003;1.056591e-001
1.317198e+003;1.023687e-001
1.319127e+003;9.972149e-002
1.321055e+003;9.761651e-002
1.322984e+003;9.620918e-002
1.324912e+003;9.592605e-002
1.326841e+003;9.789749e-002
1.328770e+003;1.036208e-001
1.330698e+003;1.148453e-001
1.332627e+003;1.322908e-001
1.334555e+003;1.539173e-001
1.336484e+003;1.747845e-001
1.338412e+003;1.879863e-001
1.340341e+003;1.882901e-001
1.342269e+003;1.758047e-001
1.344198e+003;1.560064e-001
1.346126e+003;1.351561e-001
1.348055e+003;1.176171e-001
1.349984e+003;1.046576e-001
1.351912e+003;9.563275e-002
1.353841e+003;8.994868e-002
1.355769e+003;8.688697e-002
1.357698e+003;8.528801e-002
1.359626e+003;8.499874e-002
1.361555e+003;8.616065e-002
1.363483e+003;8.846393e-002
1.365412e+003;9.120494e-002
1.367341e+003;9.384580e-002
1.369269e+003;9.588936e-002
1.371198e+003;9.638487e-002
1.373126e+003;9.579764e-002
1.375055e+003;9.492350e-002
1.376983e+003;9.433091e-002
1.378912e+003;9.407268e-002
1.380840e+003;9.417934e-002
1.382769e+003;9.448002e-002
1.384698e+003;9.490198e-002
1.386626e+003;9.551528e-002
1.388555e+003;9.638333e-002
1.390483e+003;9.746267e-002
1.392412e+003;9.873830e-002
1.394340e+003;1.009597e-001
1.396269e+003;1.049868e-001
1.398197e+003;1.109628e-001
1.400126e+003;1.194792e-001
1.402054e+003;1.310198e-001
1.403983e+003;1.459120e-001
1.405911e+003;1.628059e-001
1.407840e+003;1.751978e-001
1.409769e+003;1.758522e-001
1.411697e+003;1.623580e-001
1.413626e+003;1.401294e-001
1.415554e+003;1.174551e-001
1.417483e+003;9.950394e-002
1.419411e+003;8.743082e-002
1.421340e+003;8.037718e-002
1.423268e+003;7.648410e-002
1.425197e+003;7.467545e-002
1.427125e+003;7.470068e-002
1.429054e+003;7.607231e-002
1.430983e+003;7.827174e-002
1.432911e+003;8.097903e-002
1.434840e+003;8.360469e-002
1.436768e+003;8.599450e-002
1.438697e+003;8.836012e-002
1.440625e+003;9.010506e-002
1.442554e+003;9.129974e-002
1.444482e+003;9.262279e-002
1.446411e+003;9.417803e-002
1.448340e+003;9.567525e-002
1.450268e+003;9.726933e-002
1.452197e+003;9.858239e-002
1.454125e+003;9.913202e-002
1.456054e+003;9.875868e-002
1.457982e+003;9.844783e-002
1.459911e+003;9.834327e-002
1.461839e+003;9.781303e-002
1.463768e+003;9.700587e-002
1.465697e+003;9.731257e-002
1.467625e+003;9.975955e-002
1.469554e+003;1.034358e-001
1.471482e+003;1.047020e-001
1.473411e+003;1.019368e-001
1.475339e+003;9.799588e-002
1.477268e+003;9.436842e-002
1.479196e+003;9.089577e-002
1.481125e+003;8.729266e-002
1.483053e+003;8.340354e-002
1.484982e+003;7.931815e-002
1.486911e+003;7.523687e-002
1.488839e+003;7.175932e-002
1.490768e+003;6.958558e-002
1.492696e+003;6.878744e-002
1.494625e+003;6.887098e-002
1.496553e+003;7.086366e-002
1.498482e+003;7.611492e-002
1.500410e+003;8.425631e-002
1.502339e+003;9.438209e-002
1.504267e+003;1.023345e-001
1.506196e+003;1.014318e-001
1.508125e+003;9.230900e-002
1.510053e+003;8.185289e-002
1.511982e+003;7.432640e-002
1.513910e+003;6.994545e-002
1.515839e+003;6.759283e-002
1.517767e+003;6.684888e-002
1.519696e+003;6.689484e-002
1.521624e+003;6.735693e-002
1.523553e+003;6.809454e-002
1.525481e+003;6.824750e-002
1.527410e+003;6.791221e-002
1.529339e+003;6.722860e-002
1.531267e+003;6.603827e-002
1.533196e+003;6.465330e-002
1.535124e+003;6.373210e-002
1.537053e+003;6.273460e-002
1.538981e+003;6.131905e-002
1.540910e+003;6.094945e-002
1.542838e+003;6.167017e-002
1.544767e+003;6.219108e-002
1.546695e+003;6.259504e-002
1.548624e+003;6.318098e-002
1.550553e+003;6.375846e-002
1.552481e+003;6.406230e-002
1.554410e+003;6.427839e-002
1.556338e+003;6.420805e-002
1.558267e+003;6.398086e-002
1.560195e+003;6.487454e-002
1.562124e+003;6.608097e-002
1.564052e+003;6.707526e-002
1.565981e+003;6.875662e-002
1.567910e+003;7.054381e-002
1.569838e+003;7.276365e-002
1.571767e+003;7.612206e-002
1.573695e+003;7.992823e-002
1.575624e+003;8.334882e-002
1.577552e+003;8.592572e-002
1.579481e+003;8.627416e-002
1.581409e+003;8.373538e-002
1.583338e+003;7.966082e-002
1.585266e+003;7.555756e-002
1.587195e+003;7.231984e-002
1.589124e+003;7.018400e-002
1.591052e+003;6.883333e-002
1.592981e+003;6.805132e-002
1.594909e+003;6.791788e-002
1.596838e+003;6.838501e-002
1.598766e+003;6.935354e-002
1.600695e+003;7.056716e-002
1.602623e+003;7.190279e-002
1.604552e+003;7.375629e-002
1.606480e+003;7.602321e-002
1.608409e+003;7.806273e-002
1.610338e+003;8.028277e-002
1.612266e+003;8.244354e-002
1.614195e+003;8.339242e-002
1.616123e+003;8.232407e-002
1.618052e+003;8.047961e-002
1.619980e+003;7.894186e-002
1.621909e+003;7.764743e-002
1.623837e+003;7.712083e-002
1.625766e+003;7.733022e-002
1.627694e+003;7.775553e-002
1.629623e+003;7.843350e-002
1.631552e+003;7.912633e-002
1.633480e+003;7.958941e-002
1.635409e+003;8.027121e-002
1.637337e+003;8.156770e-002
1.639266e+003;8.309028e-002
1.641194e+003;8.426189e-002
1.643123e+003;8.518657e-002
1.645051e+003;8.615714e-002
1.646980e+003;8.748525e-002
1.648909e+003;8.919774e-002
1.650837e+003;9.053397e-002
1.652766e+003;9.159496e-002
1.654694e+003;9.378836e-002
1.656623e+003;9.664722e-002
1.658551e+003;9.965167e-002
1.660480e+003;1.029504e-001
1.662408e+003;1.064060e-001
1.664337e+003;1.104316e-001
1.666266e+003;1.150134e-001
1.668194e+003;1.193254e-001
1.670123e+003;1.236104e-001
1.672051e+003;1.279735e-001
1.673980e+003;1.322346e-001
1.675908e+003;1.371434e-001
1.677837e+003;1.428732e-001
1.679765e+003;1.487044e-001
1.681694e+003;1.536150e-001
1.683622e+003;1.573954e-001
1.685551e+003;1.614076e-001
1.687479e+003;1.666089e-001
1.689408e+003;1.732484e-001
1.691337e+003;1.818899e-001
1.693265e+003;1.926651e-001
1.695194e+003;2.058447e-001
1.697122e+003;2.226314e-001
1.699051e+003;2.438635e-001
1.700979e+003;2.726295e-001
1.702908e+003;3.093925e-001
1.704836e+003;3.552102e-001
1.706765e+003;4.112602e-001
1.708693e+003;4.740482e-001
1.710622e+003;5.339875e-001
1.712551e+003;5.768359e-001
1.714479e+003;5.895035e-001
1.716408e+003;5.712180e-001
1.718336e+003;5.331554e-001
1.720265e+003;4.897797e-001
1.722193e+003;4.459590e-001
1.724122e+003;4.043129e-001
1.726050e+003;3.654945e-001
1.727979e+003;3.291162e-001
1.729908e+003;2.952746e-001
1.731836e+003;2.645668e-001
1.733765e+003;2.355448e-001
1.735693e+003;2.089035e-001
1.737622e+003;1.847980e-001
1.739550e+003;1.617745e-001
1.741479e+003;1.403651e-001
1.743407e+003;1.214910e-001
1.745336e+003;1.055941e-001
1.747265e+003;9.283921e-002
1.749193e+003;8.303279e-002
1.751122e+003;7.576367e-002
1.753050e+003;7.100286e-002
1.754979e+003;6.769036e-002
1.756907e+003;6.526228e-002
1.758836e+003;6.363354e-002
1.760764e+003;6.222179e-002
1.762693e+003;6.118528e-002
1.764621e+003;6.034926e-002
1.766550e+003;5.937745e-002
1.768479e+003;5.882045e-002
1.770407e+003;5.822383e-002
1.772336e+003;5.755162e-002
1.774264e+003;5.740937e-002
1.776193e+003;5.720524e-002
1.778121e+003;5.690352e-002
1.780050e+003;5.684234e-002
1.781978e+003;5.671187e-002
1.783907e+003;5.649596e-002
1.785835e+003;5.616257e-002
1.787764e+003;5.581443e-002
1.789693e+003;5.551770e-002
1.791621e+003;5.538647e-002
1.793550e+003;5.534687e-002
1.795478e+003;5.554993e-002
1.797407e+003;5.563429e-002
1.799335e+003;5.551895e-002
1.801264e+003;5.565305e-002
1.803192e+003;5.596562e-002
1.805121e+003;5.606141e-002
1.807049e+003;5.589051e-002
1.808978e+003;5.591772e-002
1.810907e+003;5.596898e-002
1.812835e+003;5.611208e-002
1.814764e+003;5.637046e-002
1.816692e+003;5.613036e-002
1.818621e+003;5.581861e-002
1.820549e+003;5.566126e-002
1.822478e+003;5.558465e-002
1.824406e+003;5.545024e-002
1.826335e+003;5.511764e-002
1.828264e+003;5.462757e-002
1.830192e+003;5.424770e-002
1.832121e+003;5.386911e-002
1.834049e+003;5.333852e-002
1.835978e+003;5.267666e-002
1.837906e+003;5.197521e-002
1.839835e+003;5.119608e-002
1.841763e+003;5.023444e-002
1.843692e+003;4.918370e-002
1.845620e+003;4.837096e-002
1.847549e+003;4.772066e-002
1.849478e+003;4.687377e-002
1.851406e+003;4.600106e-002
1.853335e+003;4.525143e-002
1.855263e+003;4.442945e-002
1.857192e+003;4.345193e-002
1.859120e+003;4.243175e-002
1.861049e+003;4.174350e-002
1.862977e+003;4.147067e-002
1.864906e+003;4.111990e-002
1.866834e+003;4.050065e-002
1.868763e+003;3.997106e-002
1.870692e+003;3.959094e-002
1.872620e+003;3.931326e-002
1.874549e+003;3.891324e-002
1.876477e+003;3.884565e-002
1.878406e+003;3.893802e-002
1.880334e+003;3.858951e-002
1.882263e+003;3.824538e-002
1.884191e+003;3.819085e-002
1.886120e+003;3.817855e-002
1.888048e+003;3.825080e-002
1.889977e+003;3.834645e-002
1.891906e+003;3.852358e-002
1.893834e+003;3.846757e-002
1.895763e+003;3.831768e-002
1.897691e+003;3.859904e-002
1.899620e+003;3.887870e-002
1.901548e+003;3.894063e-002
1.903477e+003;3.915227e-002
1.905405e+003;3.931133e-002
1.907334e+003;3.937478e-002
1.909262e+003;3.969055e-002
1.911191e+003;4.021504e-002
1.913120e+003;4.048545e-002
1.915048e+003;4.063904e-002
1.916977e+003;4.089791e-002
1.918905e+003;4.140476e-002
1.920834e+003;4.191921e-002
1.922762e+003;4.243387e-002
1.924691e+003;4.311625e-002
1.926619e+003;4.387463e-002
1.928548e+003;4.458268e-002
1.930477e+003;4.527547e-002
1.932405e+003;4.578849e-002
1.934334e+003;4.641847e-002
1.936262e+003;4.738931e-002
1.938191e+003;4.836415e-002
1.940119e+003;4.932288e-002
1.942048e+003;5.027841e-002
1.943976e+003;5.117192e-002
1.945905e+003;5.194100e-002
1.947833e+003;5.257059e-002
1.949762e+003;5.312109e-002
1.951691e+003;5.351740e-002
1.953619e+003;5.407880e-002
1.955548e+003;5.474783e-002
1.957476e+003;5.491053e-002
1.959405e+003;5.446145e-002
1.961333e+003;5.407516e-002
1.963262e+003;5.359069e-002
1.965190e+003;5.249853e-002
1.967119e+003;5.136383e-002
1.969047e+003;5.035155e-002
1.970976e+003;4.900292e-002
1.972905e+003;4.781745e-002
1.974833e+003;4.686890e-002
1.976762e+003;4.605912e-002
1.978690e+003;4.549695e-002
1.980619e+003;4.515281e-002
1.982547e+003;4.467356e-002
1.984476e+003;4.422638e-002
1.986404e+003;4.361646e-002
1.988333e+003;4.296255e-002
1.990261e+003;4.234831e-002
1.992190e+003;4.184149e-002
1.994119e+003;4.144220e-002
1.996047e+003;4.084586e-002
1.997976e+003;4.022155e-002
1.999904e+003;3.973590e-002
2.001833e+003;3.944850e-002
2.003761e+003;3.910977e-002
2.005690e+003;3.864022e-002
2.007618e+003;3.789948e-002
2.009547e+003;3.734196e-002
2.011476e+003;3.709057e-002
2.013404e+003;3.677632e-002
2.015333e+003;3.639773e-002
2.017261e+003;3.612718e-002
2.019190e+003;3.596248e-002
2.021118e+003;3.566904e-002
2.023047e+003;3.516489e-002
2.024975e+003;3.477667e-002
2.026904e+003;3.474778e-002
2.028833e+003;3.458510e-002
2.030761e+003;3.427682e-002
2.032690e+003;3.420096e-002
2.034618e+003;3.423820e-002
2.036547e+003;3.432601e-002
2.038475e+003;3.451676e-002
2.040404e+003;3.452235e-002
2.042332e+003;3.460609e-002
2.044261e+003;3.468902e-002
2.046189e+003;3.486980e-002
2.048118e+003;3.507525e-002
2.050047e+003;3.523783e-002
2.051975e+003;3.564117e-002
2.053904e+003;3.595093e-002
2.055832e+003;3.632531e-002
2.057761e+003;3.697897e-002
2.059689e+003;3.756655e-002
2.061618e+003;3.811593e-002
2.063546e+003;3.854661e-002
2.065475e+003;3.889501e-002
2.067404e+003;3.935261e-002
2.069332e+003;3.977638e-002
2.071260e+003;4.025917e-002
2.073189e+003;4.092883e-002
2.075118e+003;4.150512e-002
2.077046e+003;4.198942e-002
2.078975e+003;4.237278e-002
2.080903e+003;4.258595e-002
2.082832e+003;4.275757e-002
2.084760e+003;4.277897e-002
2.086689e+003;4.290761e-002
2.088617e+003;4.319768e-002
2.090546e+003;4.329665e-002
2.092475e+003;4.321308e-002
2.094403e+003;4.337895e-002
2.096332e+003;4.374844e-002
2.098260e+003;4.389307e-002
2.100189e+003;4.386250e-002
2.102117e+003;4.395525e-002
2.104046e+003;4.401186e-002
2.105974e+003;4.410178e-002
2.107903e+003;4.424003e-002
2.109832e+003;4.413607e-002
2.111760e+003;4.395121e-002
2.113688e+003;4.372393e-002
2.115617e+003;4.353668e-002
2.117546e+003;4.339060e-002
2.119474e+003;4.307549e-002
2.121403e+003;4.278317e-002
2.123331e+003;4.228234e-002
2.125260e+003;4.164236e-002
2.127188e+003;4.145973e-002
2.129117e+003;4.149841e-002
2.131045e+003;4.128709e-002
2.132974e+003;4.067761e-002
2.134903e+003;4.007508e-002
2.136831e+003;3.988948e-002
2.138760e+003;3.966812e-002
2.140688e+003;3.957788e-002
2.142617e+003;3.954656e-002
2.144545e+003;3.901653e-002
2.146474e+003;3.846786e-002
2.148402e+003;3.815514e-002
2.150331e+003;3.780766e-002
2.152260e+003;3.746172e-002
2.154188e+003;3.712280e-002
2.156117e+003;3.653812e-002
2.158045e+003;3.600413e-002
2.159974e+003;3.577502e-002
2.161902e+003;3.540100e-002
2.163831e+003;3.477129e-002
2.165759e+003;3.454327e-002
2.167688e+003;3.441208e-002
2.169616e+003;3.398853e-002
2.171545e+003;3.384673e-002
2.173474e+003;3.368457e-002
2.175402e+003;3.334376e-002
2.177331e+003;3.319076e-002
2.179259e+003;3.307021e-002
2.181188e+003;3.267644e-002
2.183116e+003;3.249036e-002
2.185045e+003;3.251246e-002
2.186973e+003;3.248457e-002
2.188902e+003;3.238039e-002
2.190831e+003;3.238082e-002
2.192759e+003;3.268401e-002
2.194688e+003;3.290470e-002
2.196616e+003;3.289701e-002
2.198545e+003;3.280248e-002
2.200473e+003;3.281599e-002
2.202402e+003;3.295821e-002
2.204330e+003;3.334726e-002
2.206259e+003;3.382553e-002
2.208188e+003;3.414468e-002
2.210116e+003;3.412525e-002
2.212044e+003;3.406260e-002
2.213973e+003;3.416439e-002
2.215902e+003;3.441886e-002
2.217830e+003;3.448734e-002
2.219759e+003;3.445993e-002
2.221687e+003;3.455837e-002
2.223616e+003;3.460850e-002
2.225544e+003;3.448128e-002
2.227473e+003;3.455468e-002
2.229401e+003;3.480618e-002
2.231330e+003;3.505507e-002
2.233259e+003;3.523359e-002
2.235187e+003;3.529619e-002
2.237116e+003;3.527689e-002
2.239044e+003;3.525008e-002
2.240973e+003;3.543095e-002
2.242901e+003;3.581370e-002
2.244830e+003;3.625428e-002
2.246758e+003;3.638054e-002
2.248687e+003;3.646424e-002
2.250615e+003;3.660200e-002
2.252544e+003;3.661725e-002
2.254473e+003;3.669032e-002
2.256401e+003;3.688160e-002
2.258330e+003;3.716084e-002
2.260258e+003;3.729398e-002
2.262187e+003;3.725596e-002
2.264115e+003;3.724946e-002
2.266044e+003;3.711092e-002
2.267972e+003;3.686894e-002
2.269901e+003;3.689776e-002
2.271830e+003;3.702331e-002
2.273758e+003;3.712204e-002
2.275687e+003;3.716791e-002
2.277615e+003;3.748231e-002
2.279544e+003;3.768087e-002
2.281472e+003;3.774466e-002
2.283401e+003;3.780404e-002
2.285329e+003;3.775612e-002
2.287258e+003;3.755426e-002
2.289187e+003;3.712724e-002
2.291115e+003;3.661562e-002
2.293043e+003;3.632953e-002
2.294972e+003;3.580748e-002
2.296901e+003;3.498097e-002
2.298829e+003;3.433623e-002
2.300758e+003;3.362542e-002
2.302686e+003;3.304107e-002
2.304615e+003;3.273392e-002
2.306543e+003;3.227848e-002
2.308472e+003;3.176164e-002
2.310400e+003;3.142315e-002
2.312329e+003;3.123230e-002
2.314258e+003;3.094994e-002
2.316186e+003;3.079177e-002
2.318115e+003;3.083140e-002
2.320043e+003;3.064703e-002
2.321972e+003;3.062086e-002
2.323900e+003;3.060757e-002
2.325829e+003;3.027093e-002
2.327757e+003;2.997546e-002
2.329686e+003;2.992264e-002
2.331615e+003;2.987582e-002
2.333543e+003;2.983277e-002
2.335472e+003;2.973447e-002
2.337400e+003;2.965081e-002
2.339329e+003;2.974661e-002
2.341257e+003;3.011639e-002
2.343186e+003;3.073448e-002
2.345114e+003;3.161130e-002
2.347043e+003;3.256396e-002
2.348971e+003;3.298566e-002
2.350900e+003;3.269901e-002
2.352829e+003;3.218998e-002
2.354757e+003;3.162484e-002
2.356686e+003;3.121738e-002
2.358614e+003;3.129062e-002
2.360543e+003;3.152183e-002
2.362471e+003;3.189502e-002
2.364400e+003;3.245480e-002
2.366328e+003;3.298734e-002
2.368257e+003;3.376482e-002
2.370186e+003;3.469437e-002
2.372114e+003;3.566872e-002
2.374042e+003;3.639214e-002
2.375971e+003;3.697669e-002
2.377900e+003;3.762772e-002
2.379828e+003;3.820236e-002
2.381757e+003;3.839919e-002
2.383685e+003;3.839517e-002
2.385614e+003;3.851123e-002
2.387542e+003;3.868382e-002
2.389471e+003;3.876294e-002
2.391399e+003;3.855512e-002
2.393328e+003;3.829557e-002
2.395257e+003;3.834146e-002
2.397185e+003;3.824483e-002
2.399114e+003;3.787143e-002
2.401042e+003;3.781199e-002
2.402971e+003;3.776840e-002
2.404899e+003;3.744153e-002
2.406828e+003;3.700974e-002
2.408756e+003;3.670449e-002
2.410685e+003;3.649044e-002
2.412614e+003;3.630298e-002
2.414542e+003;3.623746e-002
2.416471e+003;3.592746e-002
2.418399e+003;3.551796e-002
2.420328e+003;3.517703e-002
2.422256e+003;3.487167e-002
2.424185e+003;3.445466e-002
2.426113e+003;3.396850e-002
2.428042e+003;3.365106e-002
2.429970e+003;3.323805e-002
2.431899e+003;3.303188e-002
2.433828e+003;3.296593e-002
2.435756e+003;3.258299e-002
2.437685e+003;3.213492e-002
2.439613e+003;3.170924e-002
2.441542e+003;3.145057e-002
2.443470e+003;3.147801e-002
2.445399e+003;3.148082e-002
2.447327e+003;3.128304e-002
2.449256e+003;3.093233e-002
2.451185e+003;3.070997e-002
2.453113e+003;3.076592e-002
2.455042e+003;3.080778e-002
2.456970e+003;3.071541e-002
2.458899e+003;3.056654e-002
2.460827e+003;3.054390e-002
2.462756e+003;3.066314e-002
2.464684e+003;3.066574e-002
2.466613e+003;3.068942e-002
2.468542e+003;3.074682e-002
2.470470e+003;3.088938e-002
2.472398e+003;3.111546e-002
2.474327e+003;3.130864e-002
2.476256e+003;3.116248e-002
2.478184e+003;3.110980e-002
2.480113e+003;3.140719e-002
2.482041e+003;3.179105e-002
2.483970e+003;3.222881e-002
2.485898e+003;3.257717e-002
2.487827e+003;3.265543e-002
2.489755e+003;3.271888e-002
2.491684e+003;3.303564e-002
2.493613e+003;3.334701e-002
2.495541e+003;3.337721e-002
2.497470e+003;3.351438e-002
2.499398e+003;3.346356e-002
2.501327e+003;3.345690e-002
2.503255e+003;3.359424e-002
2.505184e+003;3.373080e-002
2.507112e+003;3.390799e-002
2.509041e+003;3.413665e-002
2.510969e+003;3.412779e-002
2.512898e+003;3.428270e-002
2.514827e+003;3.445746e-002
2.516755e+003;3.454226e-002
2.518684e+003;3.488312e-002
2.520612e+003;3.525307e-002
2.522541e+003;3.537685e-002
2.524469e+003;3.550300e-002
2.526398e+003;3.570893e-002
2.528326e+003;3.595143e-002
2.530255e+003;3.601990e-002
2.532184e+003;3.600888e-002
2.534112e+003;3.624614e-002
2.536041e+003;3.668091e-002
2.537969e+003;3.673438e-002
2.539898e+003;3.647286e-002
2.541826e+003;3.613320e-002
2.543755e+003;3.603872e-002
2.545683e+003;3.629786e-002
2.547612e+003;3.646431e-002
2.549541e+003;3.659439e-002
2.551469e+003;3.675148e-002
2.553397e+003;3.677618e-002
2.555326e+003;3.669494e-002
2.557255e+003;3.653023e-002
2.559183e+003;3.605924e-002
2.561112e+003;3.583443e-002
2.563040e+003;3.604171e-002
2.564969e+003;3.629336e-002
2.566897e+003;3.638645e-002
2.568826e+003;3.615715e-002
2.570754e+003;3.596313e-002
2.572683e+003;3.599257e-002
2.574612e+003;3.621271e-002
2.576540e+003;3.653175e-002
2.578469e+003;3.655124e-002
2.580397e+003;3.648958e-002
2.582326e+003;3.633511e-002
2.584254e+003;3.610360e-002
2.586183e+003;3.593685e-002
2.588111e+003;3.564897e-002
2.590040e+003;3.535531e-002
2.591969e+003;3.508046e-002
2.593897e+003;3.485677e-002
2.595826e+003;3.467503e-002
2.597754e+003;3.444738e-002
2.599683e+003;3.401956e-002
2.601611e+003;3.361515e-002
2.603540e+003;3.356177e-002
2.605468e+003;3.361325e-002
2.607397e+003;3.345690e-002
2.609325e+003;3.310318e-002
2.611254e+003;3.263214e-002
2.613183e+003;3.250704e-002
2.615111e+003;3.279377e-002
2.617040e+003;3.292578e-002
2.618968e+003;3.292432e-002
2.620897e+003;3.288686e-002
2.622825e+003;3.272213e-002
2.624754e+003;3.254046e-002
2.626682e+003;3.266879e-002
2.628611e+003;3.283318e-002
2.630540e+003;3.266693e-002
2.632468e+003;3.235633e-002
2.634396e+003;3.213214e-002
2.636325e+003;3.177186e-002
2.638254e+003;3.119826e-002
2.640182e+003;3.089604e-002
2.642111e+003;3.069173e-002
2.644039e+003;3.037532e-002
2.645968e+003;3.004942e-002
2.647896e+003;2.978393e-002
2.649825e+003;2.964985e-002
2.651753e+003;2.959313e-002
2.653682e+003;2.952840e-002
2.655611e+003;2.936483e-002
2.657539e+003;2.915263e-002
2.659468e+003;2.903898e-002
2.661396e+003;2.894465e-002
2.663325e+003;2.891253e-002
2.665253e+003;2.899788e-002
2.667182e+003;2.880690e-002
2.669110e+003;2.873375e-002
2.671039e+003;2.888203e-002
2.672968e+003;2.898446e-002
2.674896e+003;2.898279e-002
2.676825e+003;2.894351e-002
2.678753e+003;2.935232e-002
2.680682e+003;2.990507e-002
2.682610e+003;2.994440e-002
2.684539e+003;2.962112e-002
2.686467e+003;2.937898e-002
2.688396e+003;2.914211e-002
2.690324e+003;2.926136e-002
2.692253e+003;2.950248e-002
2.694182e+003;2.953592e-002
2.696110e+003;2.934739e-002
2.698039e+003;2.926654e-002
2.699967e+003;2.943234e-002
2.701896e+003;2.956125e-002
2.703824e+003;2.939369e-002
2.705753e+003;2.928086e-002
2.707681e+003;2.960711e-002
2.709610e+003;3.010790e-002
2.711539e+003;3.050625e-002
2.713467e+003;3.067143e-002
2.715396e+003;3.030426e-002
2.717324e+003;2.997255e-002
2.719253e+003;3.029826e-002
2.721181e+003;3.061838e-002
2.723110e+003;3.068789e-002
2.725038e+003;3.075133e-002
2.726967e+003;3.108976e-002
2.728896e+003;3.152325e-002
2.730824e+003;3.194747e-002
2.732752e+003;3.231543e-002
2.734681e+003;3.241113e-002
2.736610e+003;3.248900e-002
2.738538e+003;3.272688e-002
2.740467e+003;3.275332e-002
2.742395e+003;3.278426e-002
2.744324e+003;3.271734e-002
2.746252e+003;3.280149e-002
2.748181e+003;3.286356e-002
2.750109e+003;3.285648e-002
2.752038e+003;3.274757e-002
2.753967e+003;3.273953e-002
2.755895e+003;3.302348e-002
2.757824e+003;3.315922e-002
2.759752e+003;3.282893e-002
2.761681e+003;3.283551e-002
2.763609e+003;3.288107e-002
2.765538e+003;3.269805e-002
2.767466e+003;3.283497e-002
2.769395e+003;3.303417e-002
2.771323e+003;3.312331e-002
2.773252e+003;3.326742e-002
2.775181e+003;3.383406e-002
2.777109e+003;3.432185e-002
2.779038e+003;3.419862e-002
2.780966e+003;3.404243e-002
2.782895e+003;3.408593e-002
2.784823e+003;3.431551e-002
2.786752e+003;3.486010e-002
2.788680e+003;3.567512e-002
2.790609e+003;3.602918e-002
2.792538e+003;3.626328e-002
2.794466e+003;3.676474e-002
2.796395e+003;3.724441e-002
2.798323e+003;3.743903e-002
2.800252e+003;3.761778e-002
2.802180e+003;3.782656e-002
2.804109e+003;3.800200e-002
2.806037e+003;3.821343e-002
2.807966e+003;3.833143e-002
2.809895e+003;3.827885e-002
2.811823e+003;3.806514e-002
2.813751e+003;3.790190e-002
2.815680e+003;3.761673e-002
2.817609e+003;3.711847e-002
2.819537e+003;3.677517e-002
2.821466e+003;3.690797e-002
2.823394e+003;3.705521e-002
2.825323e+003;3.712330e-002
2.827251e+003;3.761272e-002
2.829180e+003;3.785541e-002
2.831108e+003;3.774711e-002
2.833037e+003;3.830588e-002
2.834966e+003;3.922385e-002
2.836894e+003;3.960180e-002
2.838823e+003;3.970366e-002
2.840751e+003;4.048410e-002
2.842680e+003;4.157797e-002
2.844608e+003;4.228220e-002
2.846537e+003;4.305094e-002
2.848465e+003;4.390498e-002
2.850394e+003;4.453109e-002
2.852323e+003;4.517575e-002
2.854251e+003;4.597804e-002
2.856180e+003;4.688581e-002
2.858108e+003;4.731149e-002
2.860037e+003;4.767758e-002
2.861965e+003;4.810026e-002
2.863894e+003;4.799386e-002
2.865822e+003;4.792518e-002
2.867751e+003;4.845005e-002
2.869679e+003;4.916700e-002
2.871608e+003;4.945233e-002
2.873536e+003;4.954160e-002
2.875465e+003;4.964720e-002
2.877394e+003;5.006448e-002
2.879322e+003;5.077950e-002
2.881251e+003;5.129138e-002
2.883179e+003;5.180644e-002
2.885108e+003;5.265725e-002
2.887036e+003;5.341424e-002
2.888965e+003;5.346014e-002
2.890893e+003;5.361078e-002
2.892822e+003;5.416842e-002
2.894750e+003;5.436249e-002
2.896679e+003;5.488651e-002
2.898608e+003;5.613394e-002
2.900536e+003;5.757507e-002
2.902465e+003;5.888715e-002
2.904393e+003;5.976739e-002
2.906322e+003;6.056245e-002
2.908250e+003;6.100000e-002
2.910179e+003;6.070757e-002
2.912107e+003;5.994822e-002
2.914036e+003;5.883403e-002
2.915965e+003;5.733480e-002
2.917893e+003;5.566423e-002
2.919822e+003;5.416152e-002
2.921750e+003;5.336729e-002
2.923679e+003;5.220032e-002
2.925607e+003;5.123996e-002
2.927536e+003;5.144708e-002
2.929464e+003;5.146872e-002
2.931393e+003;5.131356e-002
2.933322e+003;5.157706e-002
2.935250e+003;5.221123e-002
2.937178e+003;5.291695e-002
2.939107e+003;5.372948e-002
2.941036e+003;5.484835e-002
2.942964e+003;5.619149e-002
2.944893e+003;5.810159e-002
2.946821e+003;5.988368e-002
2.948750e+003;6.105175e-002
2.950678e+003;6.226929e-002
2.952607e+003;6.358416e-002
2.954535e+003;6.510232e-002
2.956464e+003;6.662227e-002
2.958393e+003;6.775015e-002
2.960321e+003;6.876834e-002
2.962250e+003;6.935307e-002
2.964178e+003;6.975227e-002
2.966107e+003;7.048157e-002
2.968035e+003;7.115210e-002
2.969964e+003;7.139327e-002
2.971892e+003;7.139424e-002
2.973821e+003;7.096381e-002
2.975750e+003;6.990683e-002
2.977678e+003;6.882455e-002
2.979607e+003;6.771991e-002
2.981535e+003;6.671657e-002
2.983464e+003;6.572160e-002
2.985392e+003;6.486688e-002
2.987321e+003;6.394181e-002
2.989249e+003;6.280424e-002
2.991178e+003;6.200014e-002
2.993106e+003;6.132813e-002
2.995035e+003;6.080974e-002
2.996964e+003;6.045070e-002
2.998892e+003;6.004067e-002
3.000821e+003;5.978811e-002
3.002749e+003;5.914260e-002
3.004678e+003;5.825596e-002
3.006606e+003;5.761680e-002
3.008535e+003;5.691671e-002
3.010463e+003;5.624425e-002
3.012392e+003;5.564548e-002
3.014321e+003;5.495810e-002
3.016249e+003;5.423535e-002
3.018177e+003;5.327790e-002
3.020106e+003;5.190004e-002
3.022035e+003;5.053416e-002
3.023963e+003;4.926063e-002
3.025892e+003;4.795208e-002
3.027820e+003;4.666543e-002
3.029749e+003;4.519039e-002
3.031677e+003;4.423240e-002
3.033606e+003;4.386935e-002
3.035534e+003;4.345179e-002
3.037463e+003;4.311977e-002
3.039392e+003;4.308149e-002
3.041320e+003;4.354635e-002
3.043249e+003;4.450158e-002
3.045177e+003;4.565736e-002
3.047106e+003;4.719117e-002
3.049034e+003;4.916244e-002
3.050963e+003;5.090942e-002
3.052891e+003;5.184519e-002
3.054820e+003;5.193536e-002
3.056749e+003;5.187383e-002
3.058677e+003;5.152411e-002
3.060606e+003;5.087999e-002
3.062534e+003;5.070702e-002
3.064463e+003;5.063646e-002
3.066391e+003;5.085838e-002
3.068320e+003;5.091001e-002
3.070248e+003;5.074728e-002
3.072177e+003;5.072527e-002
3.074105e+003;5.060329e-002
3.076034e+003;5.067098e-002
3.077963e+003;5.053014e-002
3.079891e+003;4.992496e-002
3.081820e+003;4.945786e-002
3.083748e+003;4.953521e-002
3.085677e+003;4.931538e-002
3.087605e+003;4.842630e-002
3.089534e+003;4.765143e-002
3.091462e+003;4.725320e-002
3.093391e+003;4.674571e-002
3.095320e+003;4.657771e-002
3.097248e+003;4.710042e-002
3.099177e+003;4.779367e-002
3.101105e+003;4.824120e-002
3.103034e+003;4.846197e-002
3.104962e+003;4.837693e-002
3.106891e+003;4.794031e-002
3.108819e+003;4.738739e-002
3.110748e+003;4.658376e-002
3.112677e+003;4.575694e-002
3.114605e+003;4.482305e-002
3.116533e+003;4.369952e-002
3.118462e+003;4.296965e-002
3.120391e+003;4.233231e-002
3.122319e+003;4.198742e-002
3.124248e+003;4.196464e-002
3.126176e+003;4.191082e-002
3.128105e+003;4.191056e-002
3.130033e+003;4.195592e-002
3.131962e+003;4.181584e-002
3.133890e+003;4.120329e-002
3.135819e+003;4.028927e-002
3.137748e+003;3.981869e-002
3.139676e+003;3.957294e-002
3.141605e+003;3.891874e-002
3.143533e+003;3.817055e-002
3.145462e+003;3.763859e-002
3.147390e+003;3.735482e-002
3.149319e+003;3.721990e-002
3.151247e+003;3.721979e-002
3.153176e+003;3.695732e-002
3.155104e+003;3.629761e-002
3.157033e+003;3.588869e-002
3.158962e+003;3.567437e-002
3.160890e+003;3.558607e-002
3.162819e+003;3.563754e-002
3.164747e+003;3.571872e-002
3.166676e+003;3.544418e-002
3.168604e+003;3.510752e-002
3.170533e+003;3.500866e-002
3.172461e+003;3.479538e-002
3.174390e+003;3.483102e-002
3.176319e+003;3.491554e-002
3.178247e+003;3.465016e-002
3.180176e+003;3.446280e-002
3.182104e+003;3.476637e-002
3.184033e+003;3.499020e-002
3.185961e+003;3.469592e-002
3.187890e+003;3.448099e-002
3.189818e+003;3.432250e-002
3.191747e+003;3.420192e-002
3.193676e+003;3.451112e-002
3.195604e+003;3.450560e-002
3.197532e+003;3.414780e-002
3.199461e+003;3.410324e-002
3.201390e+003;3.400279e-002
3.203318e+003;3.376708e-002
3.205247e+003;3.378201e-002
3.207175e+003;3.407815e-002
3.209104e+003;3.429485e-002
3.211032e+003;3.404379e-002
3.212961e+003;3.372117e-002
3.214889e+003;3.344327e-002
3.216818e+003;3.328158e-002
3.218747e+003;3.319141e-002
3.220675e+003;3.355587e-002
3.222604e+003;3.405264e-002
3.224532e+003;3.415238e-002
3.226461e+003;3.404866e-002
3.228389e+003;3.415425e-002
3.230318e+003;3.444028e-002
3.232246e+003;3.440408e-002
3.234175e+003;3.404425e-002
3.236104e+003;3.402157e-002
3.238032e+003;3.406163e-002
3.239961e+003;3.378398e-002
3.241889e+003;3.359807e-002
3.243818e+003;3.375078e-002
3.245746e+003;3.385483e-002
3.247675e+003;3.373338e-002
3.249603e+003;3.321347e-002
3.251532e+003;3.243444e-002
3.253460e+003;3.215455e-002
3.255389e+003;3.251718e-002
3.257318e+003;3.272402e-002
3.259246e+003;3.266954e-002
3.261175e+003;3.280802e-002
3.263103e+003;3.306099e-002
3.265032e+003;3.283736e-002
3.266960e+003;3.240167e-002
3.268889e+003;3.220104e-002
3.270817e+003;3.211091e-002
3.272746e+003;3.194241e-002
3.274675e+003;3.191595e-002
3.276603e+003;3.214117e-002
3.278531e+003;3.249450e-002
3.280460e+003;3.247561e-002
3.282389e+003;3.232756e-002
3.284317e+003;3.228351e-002
3.286246e+003;3.239149e-002
3.288174e+003;3.254464e-002
3.290103e+003;3.276618e-002
3.292031e+003;3.301387e-002
3.293960e+003;3.297179e-002
3.295888e+003;3.302127e-002
3.297817e+003;3.319931e-002
3.299746e+003;3.313801e-002
3.301674e+003;3.284608e-002
3.303603e+003;3.265575e-002
3.305531e+003;3.258599e-002
3.307460e+003;3.274849e-002
3.309388e+003;3.265047e-002
3.311317e+003;3.239114e-002
3.313245e+003;3.234441e-002
3.315174e+003;3.227359e-002
3.317103e+003;3.192572e-002
3.319031e+003;3.195696e-002
3.320960e+003;3.224022e-002
3.322888e+003;3.226738e-002
3.324817e+003;3.220522e-002
3.326745e+003;3.209500e-002
3.328674e+003;3.220508e-002
3.330602e+003;3.229322e-002
3.332531e+003;3.263925e-002
3.334459e+003;3.284601e-002
3.336388e+003;3.290931e-002
3.338317e+003;3.282232e-002
3.340245e+003;3.237489e-002
3.342174e+003;3.228327e-002
3.344102e+003;3.267283e-002
3.346031e+003;3.251603e-002
3.347959e+003;3.203871e-002
3.349888e+003;3.197686e-002
3.351816e+003;3.152311e-002
3.353745e+003;3.079181e-002
3.355674e+003;3.064838e-002
3.357602e+003;3.081909e-002
3.359531e+003;3.028987e-002
3.361459e+003;2.991248e-002
3.363388e+003;3.011468e-002
3.365316e+003;2.995778e-002
3.367245e+003;2.948865e-002
3.369173e+003;2.938447e-002
3.371102e+003;2.969072e-002
3.373031e+003;2.981396e-002
3.374959e+003;2.953323e-002
3.376887e+003;2.919817e-002
3.378816e+003;2.928238e-002
3.380745e+003;2.916249e-002
3.382673e+003;2.913151e-002
3.384602e+003;2.933112e-002
3.386530e+003;2.957132e-002
3.388459e+003;2.987631e-002
3.390387e+003;3.032298e-002
3.392316e+003;3.060664e-002
3.394244e+003;3.075482e-002
3.396173e+003;3.118602e-002
3.398102e+003;3.184374e-002
3.400030e+003;3.189994e-002
3.401959e+003;3.180816e-002
3.403887e+003;3.277837e-002
3.405816e+003;3.395249e-002
3.407744e+003;3.460128e-002
3.409673e+003;3.548617e-002
3.411601e+003;3.643762e-002
3.413530e+003;3.743261e-002
3.415458e+003;3.884366e-002
3.417387e+003;4.010219e-002
3.419316e+003;4.120012e-002
3.421244e+003;4.215388e-002
3.423173e+003;4.344571e-002
3.425101e+003;4.481772e-002
3.427030e+003;4.581787e-002
3.428958e+003;4.652054e-002
3.430887e+003;4.676165e-002
3.432815e+003;4.648886e-002
3.434744e+003;4.595660e-002
3.436673e+003;4.507271e-002
3.438601e+003;4.401729e-002
3.440530e+003;4.313323e-002
3.442458e+003;4.212365e-002
3.444387e+003;4.117749e-002
3.446315e+003;4.059239e-002
3.448244e+003;3.968286e-002
3.450172e+003;3.834258e-002
3.452101e+003;3.727390e-002
3.454030e+003;3.696731e-002
3.455958e+003;3.667139e-002
3.457886e+003;3.555647e-002
3.459815e+003;3.437783e-002
3.461744e+003;3.369205e-002
3.463672e+003;3.290745e-002
3.465601e+003;3.211851e-002
3.467529e+003;3.167374e-002
3.469458e+003;3.158493e-002
3.471386e+003;3.124793e-002
3.473315e+003;3.063157e-002
3.475243e+003;3.000486e-002
3.477172e+003;2.961821e-002
3.479101e+003;2.974490e-002
3.481029e+003;2.952124e-002
3.482958e+003;2.926218e-002
3.484886e+003;2.914151e-002
3.486815e+003;2.919349e-002
3.488743e+003;2.941075e-002
3.490672e+003;2.950262e-002
3.492600e+003;2.950461e-002
3.494529e+003;2.932864e-002
3.496458e+003;2.923131e-002
3.498386e+003;2.937100e-002
3.500315e+003;2.920543e-002
3.502243e+003;2.919661e-002
3.504172e+003;2.925852e-002
3.506100e+003;2.939848e-002
3.508029e+003;2.990854e-002
3.509957e+003;3.021456e-002
3.511886e+003;3.034306e-002
3.513814e+003;3.048499e-002
3.515743e+003;3.060856e-002
3.517672e+003;3.076912e-002
3.519600e+003;3.110603e-002
3.521529e+003;3.108307e-002
3.523457e+003;3.087885e-002
3.525386e+003;3.140146e-002
3.527314e+003;3.206750e-002
3.529243e+003;3.215976e-002
3.531171e+003;3.193717e-002
3.533100e+003;3.209593e-002
3.535029e+003;3.256832e-002
3.536957e+003;3.289719e-002
3.538885e+003;3.286760e-002
3.540814e+003;3.277419e-002
3.542743e+003;3.245958e-002
3.544671e+003;3.191912e-002
3.546600e+003;3.211109e-002
3.548528e+003;3.285434e-002
3.550457e+003;3.301630e-002
3.552385e+003;3.295252e-002
3.554314e+003;3.254546e-002
3.556242e+003;3.211262e-002
3.558171e+003;3.187412e-002
3.560100e+003;3.163984e-002
3.562028e+003;3.153875e-002
3.563957e+003;3.131377e-002
3.565885e+003;3.083638e-002
3.567814e+003;3.067687e-002
3.569742e+003;3.064764e-002
3.571671e+003;3.063025e-002
3.573599e+003;3.039959e-002
3.575528e+003;2.994429e-002
3.577457e+003;2.943993e-002
3.579385e+003;2.906530e-002
3.581314e+003;2.863404e-002
3.583242e+003;2.826477e-002
3.585171e+003;2.787988e-002
3.587099e+003;2.757840e-002
3.589028e+003;2.771937e-002
3.590956e+003;2.776967e-002
3.592885e+003;2.746279e-002
3.594813e+003;2.717416e-002
3.596742e+003;2.713137e-002
3.598671e+003;2.689908e-002
3.600599e+003;2.633212e-002
3.602528e+003;2.629582e-002
3.604456e+003;2.662558e-002
3.606385e+003;2.621219e-002
3.608313e+003;2.593529e-002
3.610242e+003;2.642827e-002
3.612170e+003;2.682273e-002
3.614099e+003;2.700343e-002
3.616028e+003;2.702307e-002
3.617956e+003;2.701881e-002
3.619885e+003;2.686637e-002
3.621813e+003;2.671866e-002
3.623742e+003;2.684067e-002
3.625670e+003;2.700216e-002
3.627599e+003;2.689816e-002
3.629527e+003;2.698944e-002
3.631456e+003;2.747331e-002
3.633385e+003;2.769504e-002
3.635313e+003;2.721233e-002
3.637241e+003;2.691543e-002
3.639170e+003;2.675172e-002
3.641099e+003;2.651533e-002
3.643027e+003;2.659067e-002
3.644956e+003;2.686531e-002
3.646884e+003;2.671556e-002
3.648813e+003;2.593096e-002
3.650741e+003;2.568053e-002
3.652670e+003;2.610598e-002
3.654598e+003;2.573228e-002
3.656527e+003;2.538535e-002
3.658456e+003;2.551289e-002
3.660384e+003;2.510624e-002
3.662313e+003;2.467900e-002
3.664241e+003;2.433180e-002
3.666170e+003;2.396851e-002
3.668098e+003;2.332774e-002
3.670027e+003;2.299757e-002
3.671955e+003;2.318627e-002
3.673884e+003;2.292404e-002
3.675813e+003;2.257530e-002
3.677741e+003;2.280145e-002
3.679669e+003;2.326575e-002
3.681598e+003;2.430611e-002
3.683527e+003;2.513900e-002
3.685455e+003;2.510473e-002
3.687384e+003;2.427972e-002
3.689312e+003;2.371918e-002
3.691241e+003;2.367848e-002
3.693169e+003;2.328613e-002
3.695098e+003;2.270145e-002
3.697026e+003;2.223887e-002
3.698955e+003;2.187900e-002
3.700884e+003;2.167781e-002
3.702812e+003;2.172233e-002
3.704741e+003;2.152421e-002
3.706669e+003;2.095862e-002
3.708598e+003;2.047381e-002
3.710526e+003;2.044564e-002
3.712455e+003;2.037973e-002
3.714383e+003;2.055926e-002
3.716312e+003;2.052206e-002
3.718240e+003;2.027619e-002
3.720169e+003;2.021537e-002
3.722098e+003;2.027275e-002
3.724026e+003;2.053429e-002
3.725955e+003;2.092638e-002
3.727883e+003;2.133265e-002
3.729812e+003;2.137058e-002
3.731740e+003;2.101912e-002
3.733669e+003;2.058737e-002
3.735597e+003;2.036341e-002
3.737526e+003;2.055555e-002
3.739455e+003;2.055447e-002
3.741383e+003;2.050455e-002
3.743312e+003;2.002435e-002
3.745240e+003;1.993161e-002
3.747169e+003;2.037171e-002
3.749097e+003;2.033573e-002
3.751026e+003;2.053811e-002
3.752954e+003;2.078889e-002
3.754883e+003;2.126374e-002
3.756812e+003;2.176159e-002
3.758740e+003;2.165002e-002
3.760668e+003;2.161370e-002
3.762597e+003;2.182001e-002
3.764526e+003;2.146913e-002
3.766454e+003;2.124137e-002
3.768383e+003;2.129252e-002
3.770311e+003;2.156355e-002
3.772240e+003;2.141872e-002
3.774168e+003;2.114086e-002
3.776097e+003;2.140877e-002
3.778025e+003;2.131674e-002
3.779954e+003;2.115130e-002
3.781883e+003;2.118821e-002
3.783811e+003;2.108684e-002
3.785740e+003;2.113849e-002
3.787668e+003;2.085229e-002
3.789597e+003;2.067194e-002
3.791525e+003;2.095702e-002
3.793454e+003;2.133902e-002
3.795382e+003;2.145858e-002
3.797311e+003;2.139143e-002
3.799240e+003;2.110621e-002
3.801168e+003;2.075038e-002
3.803097e+003;2.121347e-002
3.805025e+003;2.139933e-002
3.806954e+003;2.145033e-002
3.808882e+003;2.203141e-002
3.810811e+003;2.192709e-002
3.812739e+003;2.160377e-002
3.814668e+003;2.155655e-002
3.816596e+003;2.169676e-002
3.818525e+003;2.157013e-002
3.820454e+003;2.105811e-002
3.822382e+003;2.087715e-002
3.824311e+003;2.096481e-002
3.826239e+003;2.094735e-002
3.828168e+003;2.090921e-002
3.830096e+003;2.097266e-002
3.832025e+003;2.119784e-002
3.833953e+003;2.124412e-002
3.835882e+003;2.090076e-002
3.837811e+003;2.046801e-002
3.839739e+003;2.069790e-002
3.841667e+003;2.073776e-002
3.843596e+003;2.069832e-002
3.845525e+003;2.089189e-002
3.847453e+003;2.100546e-002
3.849382e+003;2.120692e-002
3.851310e+003;2.123733e-002
3.853239e+003;2.095396e-002
3.855167e+003;2.096592e-002
3.857096e+003;2.119955e-002
3.859024e+003;2.138593e-002
3.860953e+003;2.133223e-002
3.862882e+003;2.139049e-002
3.864810e+003;2.147254e-002
3.866739e+003;2.190441e-002
3.868667e+003;2.177298e-002
3.870596e+003;2.137145e-002
3.872524e+003;2.128434e-002
3.874453e+003;2.133087e-002
3.876381e+003;2.176653e-002
3.878310e+003;2.185447e-002
3.880239e+003;2.173619e-002
3.882167e+003;2.198087e-002
3.884096e+003;2.197791e-002
3.886024e+003;2.167203e-002
3.887953e+003;2.174037e-002
3.889881e+003;2.185008e-002
3.891810e+003;2.203420e-002
3.893738e+003;2.248823e-002
3.895667e+003;2.248034e-002
3.897595e+003;2.230608e-002
3.899524e+003;2.242326e-002
3.901453e+003;2.228620e-002
3.903381e+003;2.220898e-002
3.905310e+003;2.273294e-002
3.907238e+003;2.303747e-002
3.909167e+003;2.306535e-002
3.911095e+003;2.326470e-002
3.913024e+003;2.316058e-002
3.914952e+003;2.334427e-002
3.916881e+003;2.364898e-002
3.918810e+003;2.356429e-002
3.920738e+003;2.381206e-002
3.922667e+003;2.419774e-002
3.924595e+003;2.393766e-002
3.926524e+003;2.363331e-002
3.928452e+003;2.333095e-002
3.930381e+003;2.333225e-002
3.932309e+003;2.360560e-002
3.934238e+003;2.391078e-002
3.936167e+003;2.395836e-002
3.938095e+003;2.341235e-002
3.940023e+003;2.346957e-002
3.941952e+003;2.386058e-002
3.943881e+003;2.412582e-002
3.945809e+003;2.443879e-002
3.947738e+003;2.411143e-002
3.949666e+003;2.407031e-002
3.951595e+003;2.456987e-002
3.953523e+003;2.408075e-002
3.955452e+003;2.399901e-002
3.957380e+003;2.450014e-002
3.959309e+003;2.488857e-002
3.961238e+003;2.506731e-002
3.963166e+003;2.479282e-002
3.965095e+003;2.463818e-002
3.967023e+003;2.463629e-002
3.968952e+003;2.453888e-002
3.970880e+003;2.463815e-002
3.972809e+003;2.440844e-002
3.974737e+003;2.395062e-002
3.976666e+003;2.410050e-002
3.978594e+003;2.446554e-002
3.980523e+003;2.467258e-002
3.982452e+003;2.470211e-002
3.984380e+003;2.439449e-002
3.986309e+003;2.403928e-002
3.988237e+003;2.425439e-002
3.990166e+003;2.445856e-002
3.992094e+003;2.451185e-002
3.994023e+003;2.468549e-002
3.995951e+003;2.467985e-002
3.997880e+003;2.476402e-002
3.999809e+003;2.470124e-002
4.001737e+003;0.000000e+000
