3.992094e+002;0.000000e+000
4.011380e+002;0.000000e+000
4.030665e+002;0.000000e+000
4.049951e+002;0.000000e+000
4.069236e+002;0.000000e+000
4.088522e+002;0.000000e+000
4.107807e+002;0.000000e+000
4.127093e+002;0.000000e+000
4.146378e+002;0.000000e+000
4.165664e+002;0.000000e+000
4.184949e+002;0.000000e+000
4.204235e+002;0.000000e+000
4.223520e+002;0.000000e+000
4.242806e+002;0.000000e+000
4.262091e+002;0.000000e+000
4.281377e+002;0.000000e+000
4.300662e+002;0.000000e+000
4.319948e+002;0.000000e+000
4.339233e+002;0.000000e+000
4.358519e+002;0.000000e+000
4.377804e+002;0.000000e+000
4.397090e+002;0.000000e+000
4.416375e+002;0.000000e+000
4.435660e+002;0.000000e+000
4.454946e+002;0.000000e+000
4.474232e+002;0.000000e+000
4.493517e+002;0.000000e+000
4.512802e+002;0.000000e+000
4.532088e+002;0.000000e+000
4.551373e+002;0.000000e+000
4.570659e+002;0.000000e+000
4.589944e+002;0.000000e+000
4.609230e+002;0.000000e+000
4.628515e+002;0.000000e+000
4.647801e+002;0.000000e+000
4.667086e+002;0.000000e+000
4.686372e+002;0.000000e+000
4.705657e+002;0.000000e+000
4.724943e+002;0.000000e+000
4.744228e+002;0.000000e+000
4.763513e+002;0.000000e+000
4.782799e+002;0.000000e+000
4.802085e+002;0.000000e+000
4.821370e+002;0.000000e+000
4.840656e+002;0.000000e+000
4.859941e+002;0.000000e+000
4.879226e+002;0.000000e+000
4.898512e+002;0.000000e+000
4.917798e+002;0.000000e+000
4.937083e+002;0.000000e+000
4.956368e+002;0.000000e+000
4.975654e+002;0.000000e+000
4.994939e+002;0.000000e+000
5.014225e+002;0.000000e+000
5.033510e+002;0.000000e+000
5.052796e+002;0.000000e+000
5.072081e+002;0.000000e+000
5.091367e+002;0.000000e+000
5.110652e+002;0.000000e+000
5.129938e+002;0.000000e+000
5.149223e+002;0.000000e+000
5.168509e+002;0.000000e+000
5.187794e+002;0.000000e+000
5.207079e+002;0.000000e+000
5.226365e+002;0.000000e+000
5.245651e+002;0.000000e+000
5.264936e+002;0.000000e+000
5.284222e+002;0.000000e+000
5.303507e+002;0.000000e+000
5.322792e+002;0.000000e+000
5.342078e+002;0.000000e+000
5.361364e+002;0.000000e+000
5.380649e+002;0.000000e+000
5.399935e+002;0.000000e+000
5.419220e+002;0.000000e+000
5.438505e+002;0.000000e+000
5.457791e+002;0.000000e+000
5.477076e+002;0.000000e+000
5.496362e+002;0.000000e+000
5.515648e+002;0.000000e+000
5.534933e+002;0.000000e+000
5.554218e+002;0.000000e+000
5.573504e+002;0.000000e+000
5.592789e+002;0.000000e+000
5.612075e+002;0.000000e+000
5.631360e+002;0.000000e+000
5.650646e+002;0.000000e+000
5.669931e+002;0.000000e+000
5.689217e+002;0.000000e+000
5.708502e+002;0.000000e+000
5.727787e+002;0.000000e+000
5.747073e+002;0.000000e+000
5.766359e+002;0.000000e+000
5.785644e+002;0.000000e+000
5.804930e+002;0.000000e+000
5.824215e+002;0.000000e+000
5.843500e+002;0.000000e+000
5.862786e+002;0.000000e+000
5.882072e+002;0.000000e+000
5.901357e+002;0.000000e+000
5.920643e+002;0.000000e+000
5.939928e+002;0.000000e+000
5.959213e+002;0.000000e+000
5.978499e+002;0.000000e+000
5.997784e+002;6.023559e-002
6.017070e+002;6.717182e-002
6.036355e+002;6.456114e-002
6.055641e+002;5.914605e-002
6.074926e+002;6.099021e-002
6.094211e+002;6.146766e-002
6.113497e+002;5.970101e-002
6.132783e+002;5.708396e-002
6.152068e+002;5.429925e-002
6.171354e+002;5.447313e-002
6.190639e+002;5.601157e-002
6.209924e+002;5.757068e-002
6.229210e+002;5.804258e-002
6.248495e+002;5.970857e-002
6.267781e+002;6.120111e-002
6.287067e+002;6.200874e-002
6.306352e+002;6.439505e-002
6.325637e+002;6.657819e-002
6.344923e+002;6.413784e-002
6.364208e+002;5.894479e-002
6.383494e+002;5.758578e-002
6.402780e+002;5.973849e-002
6.422065e+002;6.082308e-002
6.441350e+002;5.954019e-002
6.460636e+002;5.913428e-002
6.479921e+002;6.052965e-002
6.499207e+002;5.975678e-002
6.518492e+002;6.141938e-002
6.537778e+002;6.506790e-002
6.557063e+002;6.625550e-002
6.576349e+002;6.637099e-002
6.595634e+002;6.575182e-002
6.614919e+002;6.706435e-002
6.634205e+002;7.250895e-002
6.653491e+002;7.489047e-002
6.672776e+002;7.210037e-002
6.692062e+002;7.448362e-002
6.711347e+002;7.795805e-002
6.730632e+002;7.878532e-002
6.749918e+002;8.106676e-002
6.769203e+002;8.445302e-002
6.788489e+002;8.815655e-002
6.807775e+002;9.171637e-002
6.827060e+002;9.233925e-002
6.846345e+002;9.252297e-002
6.865631e+002;9.358571e-002
6.884916e+002;9.399766e-002
6.904202e+002;9.583453e-002
6.923488e+002;9.869380e-002
6.942773e+002;1.031856e-001
6.962058e+002;1.110941e-001
6.981344e+002;1.215072e-001
7.000629e+002;1.338914e-001
7.019915e+002;1.460449e-001
7.039200e+002;1.562341e-001
7.058486e+002;1.662492e-001
7.077771e+002;1.778381e-001
7.097057e+002;1.911061e-001
7.116342e+002;2.072191e-001
7.135627e+002;2.275365e-001
7.154913e+002;2.525883e-001
7.174199e+002;2.845701e-001
7.193484e+002;3.217506e-001
7.212770e+002;3.554185e-001
7.232055e+002;3.740791e-001
7.251340e+002;3.651054e-001
7.270626e+002;3.301478e-001
7.289911e+002;2.855928e-001
7.309197e+002;2.440086e-001
7.328483e+002;2.078911e-001
7.347768e+002;1.737372e-001
7.367053e+002;1.420772e-001
7.386339e+002;1.153447e-001
7.405624e+002;9.455565e-002
7.424910e+002;7.985634e-002
7.444196e+002;7.070829e-002
7.463481e+002;6.613537e-002
7.482766e+002;6.383242e-002
7.502052e+002;6.167128e-002
7.521337e+002;6.050554e-002
7.540623e+002;5.953369e-002
7.559908e+002;5.928595e-002
7.579194e+002;5.966193e-002
7.598479e+002;5.993624e-002
7.617765e+002;6.097290e-002
7.637050e+002;6.236440e-002
7.656335e+002;6.372684e-002
7.675621e+002;6.480752e-002
7.694907e+002;6.602893e-002
7.714192e+002;6.722245e-002
7.733478e+002;6.884513e-002
7.752763e+002;7.123107e-002
7.772048e+002;7.342202e-002
7.791334e+002;7.487146e-002
7.810620e+002;7.679958e-002
7.829905e+002;7.996439e-002
7.849191e+002;8.321793e-002
7.868476e+002;8.579361e-002
7.887761e+002;8.878259e-002
7.907047e+002;9.252588e-002
7.926332e+002;9.362583e-002
7.945618e+002;8.974119e-002
7.964903e+002;8.320689e-002
7.984189e+002;7.867172e-002
8.003474e+002;7.742323e-002
8.022759e+002;7.675640e-002
8.042045e+002;7.695062e-002
8.061331e+002;7.775691e-002
8.080616e+002;7.841075e-002
8.099902e+002;7.822651e-002
8.119187e+002;7.866488e-002
8.138472e+002;7.922234e-002
8.157758e+002;7.912832e-002
8.177043e+002;7.956450e-002
8.196329e+002;8.052707e-002
8.215615e+002;8.163879e-002
8.234900e+002;8.225006e-002
8.254185e+002;8.260731e-002
8.273471e+002;8.364024e-002
8.292756e+002;8.593562e-002
8.312042e+002;8.907370e-002
8.331328e+002;9.200790e-002
8.350613e+002;9.480412e-002
8.369898e+002;9.806627e-002
8.389184e+002;1.016214e-001
8.408469e+002;1.047877e-001
8.427755e+002;1.086545e-001
8.447040e+002;1.130027e-001
8.466326e+002;1.161116e-001
8.485611e+002;1.164402e-001
8.504897e+002;1.149733e-001
8.524182e+002;1.129678e-001
8.543467e+002;1.113381e-001
8.562753e+002;1.103905e-001
8.582039e+002;1.102986e-001
8.601324e+002;1.114021e-001
8.620610e+002;1.132451e-001
8.639895e+002;1.164070e-001
8.659180e+002;1.231344e-001
8.678466e+002;1.362165e-001
8.697751e+002;1.555928e-001
8.717037e+002;1.707803e-001
8.736323e+002;1.674924e-001
8.755608e+002;1.524808e-001
8.774893e+002;1.380207e-001
8.794179e+002;1.250325e-001
8.813464e+002;1.134772e-001
8.832750e+002;1.039339e-001
8.852036e+002;9.642094e-002
8.871321e+002;9.092347e-002
8.890606e+002;8.746482e-002
8.909892e+002;8.554221e-002
8.929177e+002;8.457994e-002
8.948463e+002;8.414971e-002
8.967748e+002;8.392624e-002
8.987034e+002;8.354235e-002
9.006319e+002;8.329109e-002
9.025605e+002;8.250628e-002
9.044890e+002;8.131910e-002
9.064175e+002;8.027919e-002
9.083461e+002;7.865448e-002
9.102747e+002;7.694093e-002
9.122032e+002;7.575882e-002
9.141318e+002;7.468832e-002
9.160603e+002;7.382808e-002
9.179888e+002;7.341413e-002
9.199174e+002;7.320431e-002
9.218459e+002;7.328067e-002
9.237745e+002;7.343607e-002
9.257031e+002;7.379481e-002
9.276316e+002;7.439910e-002
9.295601e+002;7.466561e-002
9.314887e+002;7.543483e-002
9.334172e+002;7.628381e-002
9.353458e+002;7.688219e-002
9.372744e+002;7.767580e-002
9.392029e+002;7.856288e-002
9.411314e+002;7.976026e-002
9.430600e+002;8.126756e-002
9.449885e+002;8.289045e-002
9.469171e+002;8.427887e-002
9.488456e+002;8.552696e-002
9.507742e+002;8.709530e-002
9.527027e+002;8.910523e-002
9.546313e+002;9.127955e-002
9.565598e+002;9.362994e-002
9.584883e+002;9.598366e-002
9.604169e+002;9.872898e-002
9.623455e+002;1.018753e-001
9.642740e+002;1.051449e-001
9.662026e+002;1.083000e-001
9.681311e+002;1.102996e-001
9.700596e+002;1.109570e-001
9.719882e+002;1.107113e-001
9.739167e+002;1.093982e-001
9.758453e+002;1.071661e-001
9.777739e+002;1.043645e-001
9.797024e+002;1.019795e-001
9.816309e+002;9.981333e-002
9.835595e+002;9.769036e-002
9.854880e+002;9.678669e-002
9.874166e+002;9.624949e-002
9.893452e+002;9.527342e-002
9.912737e+002;9.431243e-002
9.932022e+002;9.419437e-002
9.951307e+002;9.449646e-002
9.970593e+002;9.459565e-002
9.989879e+002;9.545869e-002
1.000916e+003;9.694282e-002
1.002845e+003;9.833999e-002
1.004773e+003;1.010619e-001
1.006702e+003;1.054479e-001
1.008631e+003;1.120088e-001
1.010559e+003;1.225170e-001
1.012488e+003;1.400820e-001
1.014416e+003;1.643798e-001
1.016345e+003;1.871878e-001
1.018273e+003;1.963291e-001
1.020202e+003;1.880359e-001
1.022130e+003;1.703431e-001
1.024059e+003;1.507575e-001
1.025988e+003;1.324153e-001
1.027916e+003;1.185874e-001
1.029845e+003;1.113164e-001
1.031773e+003;1.089204e-001
1.033702e+003;1.086260e-001
1.035630e+003;1.092486e-001
1.037559e+003;1.103247e-001
1.039487e+003;1.112718e-001
1.041416e+003;1.121441e-001
1.043344e+003;1.126270e-001
1.045273e+003;1.129159e-001
1.047202e+003;1.134650e-001
1.049130e+003;1.135261e-001
1.051059e+003;1.130137e-001
1.052987e+003;1.128962e-001
1.054916e+003;1.131949e-001
1.056844e+003;1.140634e-001
1.058773e+003;1.159504e-001
1.060701e+003;1.184086e-001
1.062630e+003;1.211453e-001
1.064558e+003;1.250210e-001
1.066487e+003;1.298662e-001
1.068416e+003;1.364027e-001
1.070344e+003;1.441433e-001
1.072273e+003;1.535461e-001
1.074201e+003;1.653835e-001
1.076130e+003;1.793401e-001
1.078058e+003;1.958371e-001
1.079987e+003;2.137150e-001
1.081915e+003;2.309242e-001
1.083844e+003;2.464952e-001
1.085773e+003;2.599953e-001
1.087701e+003;2.716337e-001
1.089630e+003;2.820737e-001
1.091558e+003;2.923564e-001
1.093487e+003;3.019045e-001
1.095415e+003;3.091252e-001
1.097344e+003;3.121294e-001
1.099272e+003;3.108462e-001
1.101201e+003;3.053213e-001
1.103129e+003;2.959394e-001
1.105058e+003;2.838090e-001
1.106987e+003;2.700838e-001
1.108915e+003;2.567754e-001
1.110844e+003;2.468056e-001
1.112772e+003;2.414912e-001
1.114701e+003;2.401516e-001
1.116629e+003;2.398029e-001
1.118558e+003;2.383089e-001
1.120486e+003;2.346497e-001
1.122415e+003;2.283472e-001
1.124344e+003;2.205667e-001
1.126272e+003;2.117455e-001
1.128201e+003;2.006611e-001
1.130129e+003;1.883550e-001
1.132058e+003;1.752989e-001
1.133986e+003;1.618882e-001
1.135915e+003;1.491950e-001
1.137843e+003;1.375578e-001
1.139772e+003;1.274031e-001
1.141700e+003;1.191408e-001
1.143629e+003;1.119254e-001
1.145557e+003;1.057352e-001
1.147486e+003;1.006856e-001
1.149415e+003;9.605166e-002
1.151343e+003;9.203001e-002
1.153272e+003;8.872711e-002
1.155200e+003;8.582013e-002
1.157129e+003;8.374382e-002
1.159057e+003;8.247139e-002
1.160986e+003;8.214416e-002
1.162914e+003;8.228129e-002
1.164843e+003;8.258482e-002
1.166771e+003;8.409075e-002
1.168700e+003;8.693044e-002
1.170629e+003;9.048994e-002
1.172557e+003;9.329300e-002
1.174486e+003;9.479859e-002
1.176414e+003;9.453678e-002
1.178343e+003;9.306490e-002
1.180271e+003;9.131087e-002
1.182200e+003;8.939749e-002
1.184128e+003;8.826015e-002
1.186057e+003;8.768250e-002
1.187986e+003;8.762983e-002
1.189914e+003;8.839355e-002
1.191843e+003;8.972775e-002
1.193771e+003;9.182082e-002
1.195700e+003;9.448385e-002
1.197628e+003;9.748614e-002
1.199557e+003;1.005561e-001
1.201485e+003;1.036208e-001
1.203414e+003;1.072078e-001
1.205343e+003;1.111915e-001
1.207271e+003;1.151735e-001
1.209200e+003;1.196785e-001
1.211128e+003;1.250273e-001
1.213057e+003;1.306911e-001
1.214985e+003;1.369650e-001
1.216914e+003;1.441057e-001
1.218842e+003;1.515786e-001
1.220771e+003;1.593731e-001
1.222699e+003;1.674910e-001
1.224628e+003;1.755835e-001
1.226557e+003;1.847725e-001
1.228485e+003;1.967951e-001
1.230414e+003;2.125184e-001
1.232342e+003;2.315321e-001
1.234271e+003;2.536442e-001
1.236199e+003;2.783901e-001
1.238128e+003;3.034160e-001
1.240056e+003;3.254156e-001
1.241985e+003;3.425161e-001
1.243913e+003;3.536178e-001
1.245842e+003;3.586775e-001
1.247771e+003;3.589965e-001
1.249699e+003;3.553903e-001
1.251628e+003;3.495590e-001
1.253556e+003;3.435978e-001
1.255485e+003;3.381773e-001
1.257413e+003;3.329403e-001
1.259342e+003;3.276352e-001
1.261270e+003;3.207228e-001
1.263199e+003;3.109517e-001
1.265127e+003;2.983392e-001
1.267056e+003;2.833889e-001
1.268985e+003;2.685774e-001
1.270913e+003;2.542837e-001
1.272842e+003;2.403241e-001
1.274770e+003;2.280460e-001
1.276699e+003;2.173273e-001
1.278627e+003;2.075419e-001
1.280556e+003;1.982568e-001
1.282484e+003;1.893426e-001
1.284413e+003;1.804482e-001
1.286342e+003;1.712857e-001
1.288270e+003;1.625915e-001
1.290199e+003;1.543524e-001
1.292127e+003;1.456881e-001
1.294056e+003;1.370846e-001
1.295984e+003;1.290044e-001
1.297913e+003;1.211124e-001
1.299841e+003;1.135895e-001
1.301770e+003;1.067600e-001
1.303698e+003;1.013527e-001
1.305627e+003;9.688877e-002
1.307556e+003;9.254286e-002
1.309484e+003;8.847149e-002
1.311413e+003;8.494463e-002
1.313341e+003;8.160540e-002
1.315270e+003;7.828991e-002
1.317198e+003;7.547409e-002
1.319127e+003;7.345973e-002
1.321055e+003;7.197666e-002
1.322984e+003;7.097367e-002
1.324912e+003;7.099697e-002
1.326841e+003;7.269717e-002
1.328770e+003;7.701685e-002
1.330698e+003;8.541667e-002
1.332627e+003;9.768239e-002
1.334555e+003;1.118288e-001
1.336484e+003;1.250305e-001
1.338412e+003;1.329615e-001
1.340341e+003;1.326129e-001
1.342269e+003;1.245424e-001
1.344198e+003;1.114810e-001
1.346126e+003;9.716310e-002
1.348055e+003;8.480021e-002
1.349984e+003;7.589687e-002
1.351912e+003;6.988029e-002
1.353841e+003;6.590158e-002
1.355769e+003;6.352384e-002
1.357698e+003;6.204073e-002
1.359626e+003;6.144594e-002
1.361555e+003;6.192337e-002
1.363483e+003;6.331336e-002
1.365412e+003;6.503561e-002
1.367341e+003;6.676576e-002
1.369269e+003;6.818373e-002
1.371198e+003;6.859346e-002
1.373126e+003;6.816113e-002
1.375055e+003;6.752543e-002
1.376983e+003;6.725053e-002
1.378912e+003;6.720373e-002
1.380840e+003;6.742871e-002
1.382769e+003;6.774876e-002
1.384698e+003;6.779508e-002
1.386626e+003;6.799746e-002
1.388555e+003;6.848222e-002
1.390483e+003;6.921440e-002
1.392412e+003;7.036801e-002
1.394340e+003;7.204846e-002
1.396269e+003;7.498147e-002
1.398197e+003;7.944381e-002
1.400126e+003;8.564386e-002
1.402054e+003;9.412613e-002
1.403983e+003;1.048368e-001
1.405911e+003;1.164152e-001
1.407840e+003;1.244421e-001
1.409769e+003;1.244306e-001
1.411697e+003;1.151606e-001
1.413626e+003;1.000410e-001
1.415554e+003;8.411110e-002
1.417483e+003;7.133445e-002
1.419411e+003;6.290150e-002
1.421340e+003;5.808977e-002
1.423268e+003;5.542370e-002
1.425197e+003;5.433616e-002
1.427125e+003;5.437003e-002
1.429054e+003;5.531492e-002
1.430983e+003;5.675374e-002
1.432911e+003;5.831023e-002
1.434840e+003;5.991696e-002
1.436768e+003;6.148293e-002
1.438697e+003;6.314553e-002
1.440625e+003;6.437845e-002
1.442554e+003;6.527063e-002
1.444482e+003;6.636296e-002
1.446411e+003;6.758272e-002
1.448340e+003;6.869075e-002
1.450268e+003;6.993353e-002
1.452197e+003;7.110620e-002
1.454125e+003;7.160984e-002
1.456054e+003;7.123786e-002
1.457982e+003;7.104676e-002
1.459911e+003;7.106724e-002
1.461839e+003;7.067850e-002
1.463768e+003;7.007656e-002
1.465697e+003;7.000862e-002
1.467625e+003;7.146185e-002
1.469554e+003;7.379780e-002
1.471482e+003;7.458209e-002
1.473411e+003;7.307927e-002
1.475339e+003;7.069066e-002
1.477268e+003;6.813272e-002
1.479196e+003;6.553542e-002
1.481125e+003;6.272568e-002
1.483053e+003;5.996770e-002
1.484982e+003;5.732913e-002
1.486911e+003;5.482624e-002
1.488839e+003;5.257956e-002
1.490768e+003;5.106376e-002
1.492696e+003;5.076564e-002
1.494625e+003;5.090569e-002
1.496553e+003;5.212197e-002
1.498482e+003;5.543145e-002
1.500410e+003;6.059536e-002
1.502339e+003;6.703798e-002
1.504267e+003;7.183703e-002
1.506196e+003;7.093806e-002
1.508125e+003;6.501475e-002
1.510053e+003;5.864831e-002
1.511982e+003;5.417173e-002
1.513910e+003;5.148341e-002
1.515839e+003;4.977689e-002
1.517767e+003;4.927912e-002
1.519696e+003;4.935302e-002
1.521624e+003;4.962651e-002
1.523553e+003;5.018902e-002
1.525481e+003;5.022990e-002
1.527410e+003;4.998726e-002
1.529339e+003;4.972049e-002
1.531267e+003;4.914671e-002
1.533196e+003;4.827460e-002
1.535124e+003;4.784427e-002
1.537053e+003;4.737697e-002
1.538981e+003;4.635911e-002
1.540910e+003;4.613568e-002
1.542838e+003;4.677380e-002
1.544767e+003;4.718711e-002
1.546695e+003;4.743026e-002
1.548624e+003;4.793325e-002
1.550553e+003;4.836948e-002
1.552481e+003;4.832637e-002
1.554410e+003;4.842334e-002
1.556338e+003;4.848187e-002
1.558267e+003;4.805803e-002
1.560195e+003;4.878213e-002
1.562124e+003;5.000395e-002
1.564052e+003;5.058710e-002
1.565981e+003;5.142578e-002
1.567910e+003;5.238184e-002
1.569838e+003;5.367136e-002
1.571767e+003;5.576530e-002
1.573695e+003;5.785167e-002
1.575624e+003;5.968945e-002
1.577552e+003;6.134595e-002
1.579481e+003;6.169675e-002
1.581409e+003;6.042755e-002
1.583338e+003;5.827995e-002
1.585266e+003;5.604173e-002
1.587195e+003;5.431930e-002
1.589124e+003;5.327884e-002
1.591052e+003;5.252725e-002
1.592981e+003;5.181547e-002
1.594909e+003;5.149360e-002
1.596838e+003;5.171267e-002
1.598766e+003;5.220596e-002
1.600695e+003;5.304722e-002
1.602623e+003;5.404266e-002
1.604552e+003;5.526238e-002
1.606480e+003;5.667023e-002
1.608409e+003;5.768737e-002
1.610338e+003;5.886928e-002
1.612266e+003;6.015924e-002
1.614195e+003;6.071061e-002
1.616123e+003;6.010406e-002
1.618052e+003;5.930422e-002
1.619980e+003;5.849474e-002
1.621909e+003;5.757655e-002
1.623837e+003;5.715974e-002
1.625766e+003;5.719247e-002
1.627694e+003;5.746939e-002
1.629623e+003;5.808026e-002
1.631552e+003;5.847427e-002
1.633480e+003;5.844792e-002
1.635409e+003;5.883547e-002
1.637337e+003;6.000886e-002
1.639266e+003;6.103802e-002
1.641194e+003;6.181872e-002
1.643123e+003;6.258096e-002
1.645051e+003;6.316703e-002
1.646980e+003;6.398235e-002
1.648909e+003;6.529235e-002
1.650837e+003;6.590112e-002
1.652766e+003;6.619672e-002
1.654694e+003;6.781487e-002
1.656623e+003;6.999215e-002
1.658551e+003;7.211000e-002
1.660480e+003;7.412163e-002
1.662408e+003;7.623041e-002
1.664337e+003;7.885221e-002
1.666266e+003;8.170006e-002
1.668194e+003;8.436972e-002
1.670123e+003;8.696837e-002
1.672051e+003;8.988511e-002
1.673980e+003;9.277245e-002
1.675908e+003;9.600644e-002
1.677837e+003;9.988939e-002
1.679765e+003;1.036851e-001
1.681694e+003;1.069393e-001
1.683622e+003;1.095072e-001
1.685551e+003;1.124156e-001
1.687479e+003;1.161388e-001
1.689408e+003;1.207111e-001
1.691337e+003;1.265015e-001
1.693265e+003;1.336545e-001
1.695194e+003;1.425281e-001
1.697122e+003;1.539453e-001
1.699051e+003;1.679667e-001
1.700979e+003;1.866444e-001
1.702908e+003;2.101330e-001
1.704836e+003;2.387403e-001
1.706765e+003;2.728129e-001
1.708693e+003;3.092220e-001
1.710622e+003;3.426812e-001
1.712551e+003;3.664744e-001
1.714479e+003;3.738030e-001
1.716408e+003;3.649819e-001
1.718336e+003;3.458480e-001
1.720265e+003;3.232919e-001
1.722193e+003;2.997987e-001
1.724122e+003;2.766092e-001
1.726050e+003;2.540231e-001
1.727979e+003;2.318437e-001
1.729908e+003;2.107776e-001
1.731836e+003;1.910958e-001
1.733765e+003;1.719560e-001
1.735693e+003;1.542355e-001
1.737622e+003;1.377079e-001
1.739550e+003;1.214978e-001
1.741479e+003;1.064311e-001
1.743407e+003;9.290269e-002
1.745336e+003;8.132797e-002
1.747265e+003;7.192176e-002
1.749193e+003;6.455691e-002
1.751122e+003;5.915361e-002
1.753050e+003;5.547689e-002
1.754979e+003;5.255436e-002
1.756907e+003;5.040528e-002
1.758836e+003;4.898793e-002
1.760764e+003;4.788582e-002
1.762693e+003;4.718703e-002
1.764621e+003;4.661474e-002
1.766550e+003;4.580690e-002
1.768479e+003;4.521421e-002
1.770407e+003;4.472571e-002
1.772336e+003;4.414704e-002
1.774264e+003;4.395257e-002
1.776193e+003;4.382515e-002
1.778121e+003;4.387005e-002
1.780050e+003;4.401670e-002
1.781978e+003;4.386268e-002
1.783907e+003;4.347827e-002
1.785835e+003;4.324072e-002
1.787764e+003;4.308870e-002
1.789693e+003;4.288885e-002
1.791621e+003;4.280423e-002
1.793550e+003;4.286124e-002
1.795478e+003;4.309638e-002
1.797407e+003;4.328655e-002
1.799335e+003;4.323164e-002
1.801264e+003;4.314996e-002
1.803192e+003;4.334728e-002
1.805121e+003;4.343194e-002
1.807049e+003;4.319742e-002
1.808978e+003;4.309049e-002
1.810907e+003;4.318670e-002
1.812835e+003;4.328519e-002
1.814764e+003;4.356701e-002
1.816692e+003;4.355339e-002
1.818621e+003;4.331269e-002
1.820549e+003;4.325814e-002
1.822478e+003;4.330877e-002
1.824406e+003;4.320880e-002
1.826335e+003;4.287868e-002
1.828264e+003;4.239251e-002
1.830192e+003;4.216655e-002
1.832121e+003;4.222172e-002
1.834049e+003;4.205231e-002
1.835978e+003;4.170072e-002
1.837906e+003;4.126333e-002
1.839835e+003;4.067648e-002
1.841763e+003;4.007087e-002
1.843692e+003;3.935174e-002
1.845620e+003;3.886287e-002
1.847549e+003;3.850098e-002
1.849478e+003;3.799758e-002
1.851406e+003;3.743932e-002
1.853335e+003;3.679771e-002
1.855263e+003;3.620958e-002
1.857192e+003;3.562595e-002
1.859120e+003;3.510011e-002
1.861049e+003;3.468432e-002
1.862977e+003;3.430798e-002
1.864906e+003;3.400766e-002
1.866834e+003;3.379186e-002
1.868763e+003;3.355698e-002
1.870692e+003;3.333589e-002
1.872620e+003;3.316780e-002
1.874549e+003;3.290873e-002
1.876477e+003;3.275410e-002
1.878406e+003;3.276382e-002
1.880334e+003;3.259974e-002
1.882263e+003;3.229847e-002
1.884191e+003;3.203553e-002
1.886120e+003;3.205886e-002
1.888048e+003;3.236197e-002
1.889977e+003;3.262682e-002
1.891906e+003;3.261432e-002
1.893834e+003;3.241320e-002
1.895763e+003;3.246019e-002
1.897691e+003;3.265625e-002
1.899620e+003;3.282922e-002
1.901548e+003;3.289251e-002
1.903477e+003;3.299714e-002
1.905405e+003;3.311005e-002
1.907334e+003;3.319262e-002
1.909262e+003;3.355701e-002
1.911191e+003;3.395184e-002
1.913120e+003;3.421149e-002
1.915048e+003;3.436119e-002
1.916977e+003;3.448597e-002
1.918905e+003;3.484133e-002
1.920834e+003;3.523729e-002
1.922762e+003;3.571883e-002
1.924691e+003;3.630449e-002
1.926619e+003;3.668874e-002
1.928548e+003;3.711948e-002
1.930477e+003;3.763628e-002
1.932405e+003;3.795925e-002
1.934334e+003;3.827320e-002
1.936262e+003;3.892878e-002
1.938191e+003;3.965832e-002
1.940119e+003;4.016350e-002
1.942048e+003;4.075672e-002
1.943976e+003;4.131376e-002
1.945905e+003;4.165258e-002
1.947833e+003;4.189783e-002
1.949762e+003;4.215249e-002
1.951691e+003;4.254805e-002
1.953619e+003;4.301483e-002
1.955548e+003;4.337654e-002
1.957476e+003;4.323113e-002
1.959405e+003;4.287821e-002
1.961333e+003;4.275842e-002
1.963262e+003;4.240679e-002
1.965190e+003;4.166760e-002
1.967119e+003;4.114234e-002
1.969047e+003;4.065312e-002
1.970976e+003;3.978837e-002
1.972905e+003;3.914933e-002
1.974833e+003;3.868332e-002
1.976762e+003;3.817652e-002
1.978690e+003;3.779808e-002
1.980619e+003;3.748494e-002
1.982547e+003;3.729770e-002
1.984476e+003;3.726538e-002
1.986404e+003;3.691746e-002
1.988333e+003;3.636101e-002
1.990261e+003;3.583936e-002
1.992190e+003;3.546564e-002
1.994119e+003;3.509638e-002
1.996047e+003;3.458478e-002
1.997976e+003;3.409177e-002
1.999904e+003;3.388506e-002
2.001833e+003;3.384877e-002
2.003761e+003;3.367211e-002
2.005690e+003;3.327575e-002
2.007618e+003;3.274918e-002
2.009547e+003;3.233770e-002
2.011476e+003;3.203025e-002
2.013404e+003;3.197879e-002
2.015333e+003;3.192023e-002
2.017261e+003;3.186774e-002
2.019190e+003;3.186335e-002
2.021118e+003;3.152621e-002
2.023047e+003;3.096339e-002
2.024975e+003;3.077193e-002
2.026904e+003;3.084961e-002
2.028833e+003;3.064902e-002
2.030761e+003;3.040727e-002
2.032690e+003;3.039032e-002
2.034618e+003;3.048677e-002
2.036547e+003;3.073547e-002
2.038475e+003;3.076894e-002
2.040404e+003;3.064554e-002
2.042332e+003;3.082389e-002
2.044261e+003;3.109510e-002
2.046189e+003;3.121589e-002
2.048118e+003;3.130747e-002
2.050047e+003;3.155717e-002
2.051975e+003;3.186160e-002
2.053904e+003;3.210535e-002
2.055832e+003;3.228851e-002
2.057761e+003;3.268026e-002
2.059689e+003;3.306185e-002
2.061618e+003;3.355837e-002
2.063546e+003;3.393790e-002
2.065475e+003;3.417403e-002
2.067404e+003;3.445925e-002
2.069332e+003;3.471339e-002
2.071260e+003;3.509074e-002
2.073189e+003;3.578877e-002
2.075118e+003;3.603577e-002
2.077046e+003;3.591511e-002
2.078975e+003;3.604016e-002
2.080903e+003;3.632232e-002
2.082832e+003;3.659634e-002
2.084760e+003;3.676536e-002
2.086689e+003;3.691435e-002
2.088617e+003;3.693109e-002
2.090546e+003;3.687345e-002
2.092475e+003;3.709216e-002
2.094403e+003;3.735337e-002
2.096332e+003;3.727495e-002
2.098260e+003;3.728329e-002
2.100189e+003;3.738263e-002
2.102117e+003;3.742675e-002
2.104046e+003;3.745392e-002
2.105974e+003;3.757211e-002
2.107903e+003;3.768842e-002
2.109832e+003;3.761366e-002
2.111760e+003;3.757609e-002
2.113688e+003;3.756232e-002
2.115617e+003;3.738295e-002
2.117546e+003;3.729513e-002
2.119474e+003;3.716528e-002
2.121403e+003;3.688041e-002
2.123331e+003;3.645797e-002
2.125260e+003;3.607768e-002
2.127188e+003;3.608225e-002
2.129117e+003;3.607479e-002
2.131045e+003;3.578035e-002
2.132974e+003;3.539234e-002
2.134903e+003;3.523323e-002
2.136831e+003;3.510015e-002
2.138760e+003;3.481971e-002
2.140688e+003;3.476512e-002
2.142617e+003;3.460196e-002
2.144545e+003;3.431873e-002
2.146474e+003;3.422458e-002
2.148402e+003;3.395940e-002
2.150331e+003;3.348074e-002
2.152260e+003;3.307340e-002
2.154188e+003;3.270755e-002
2.156117e+003;3.241866e-002
2.158045e+003;3.232713e-002
2.159974e+003;3.217389e-002
2.161902e+003;3.179379e-002
2.163831e+003;3.139166e-002
2.165759e+003;3.133375e-002
2.167688e+003;3.138215e-002
2.169616e+003;3.115892e-002
2.171545e+003;3.093016e-002
2.173474e+003;3.069493e-002
2.175402e+003;3.050035e-002
2.177331e+003;3.026330e-002
2.179259e+003;3.007804e-002
2.181188e+003;2.979153e-002
2.183116e+003;2.967007e-002
2.185045e+003;2.991550e-002
2.186973e+003;3.018650e-002
2.188902e+003;3.029968e-002
2.190831e+003;3.028745e-002
2.192759e+003;3.016853e-002
2.194688e+003;3.011120e-002
2.196616e+003;3.001512e-002
2.198545e+003;3.013876e-002
2.200473e+003;3.058176e-002
2.202402e+003;3.081916e-002
2.204330e+003;3.085125e-002
2.206259e+003;3.116530e-002
2.208188e+003;3.152396e-002
2.210116e+003;3.158425e-002
2.212044e+003;3.151801e-002
2.213973e+003;3.152354e-002
2.215902e+003;3.166422e-002
2.217830e+003;3.181554e-002
2.219759e+003;3.183875e-002
2.221687e+003;3.180438e-002
2.223616e+003;3.173658e-002
2.225544e+003;3.175251e-002
2.227473e+003;3.198175e-002
2.229401e+003;3.224701e-002
2.231330e+003;3.226492e-002
2.233259e+003;3.225935e-002
2.235187e+003;3.233805e-002
2.237116e+003;3.238328e-002
2.239044e+003;3.252396e-002
2.240973e+003;3.280785e-002
2.242901e+003;3.292911e-002
2.244830e+003;3.301523e-002
2.246758e+003;3.307114e-002
2.248687e+003;3.298287e-002
2.250615e+003;3.311852e-002
2.252544e+003;3.334444e-002
2.254473e+003;3.337056e-002
2.256401e+003;3.346374e-002
2.258330e+003;3.378047e-002
2.260258e+003;3.385923e-002
2.262187e+003;3.377904e-002
2.264115e+003;3.357806e-002
2.266044e+003;3.325146e-002
2.267972e+003;3.337857e-002
2.269901e+003;3.361057e-002
2.271830e+003;3.385225e-002
2.273758e+003;3.384208e-002
2.275687e+003;3.378455e-002
2.277615e+003;3.393697e-002
2.279544e+003;3.410855e-002
2.281472e+003;3.415188e-002
2.283401e+003;3.409521e-002
2.285329e+003;3.408375e-002
2.287258e+003;3.402544e-002
2.289187e+003;3.378978e-002
2.291115e+003;3.348210e-002
2.293043e+003;3.331861e-002
2.294972e+003;3.271520e-002
2.296901e+003;3.194633e-002
2.298829e+003;3.182602e-002
2.300758e+003;3.160606e-002
2.302686e+003;3.106591e-002
2.304615e+003;3.077022e-002
2.306543e+003;3.041224e-002
2.308472e+003;2.997631e-002
2.310400e+003;2.968494e-002
2.312329e+003;2.950744e-002
2.314258e+003;2.937745e-002
2.316186e+003;2.913123e-002
2.318115e+003;2.907819e-002
2.320043e+003;2.904315e-002
2.321972e+003;2.881936e-002
2.323900e+003;2.871028e-002
2.325829e+003;2.867920e-002
2.327757e+003;2.856400e-002
2.329686e+003;2.836122e-002
2.331615e+003;2.817913e-002
2.333543e+003;2.810875e-002
2.335472e+003;2.800572e-002
2.337400e+003;2.805746e-002
2.339329e+003;2.831089e-002
2.341257e+003;2.864193e-002
2.343186e+003;2.937472e-002
2.345114e+003;3.013471e-002
2.347043e+003;3.080106e-002
2.348971e+003;3.132185e-002
2.350900e+003;3.113326e-002
2.352829e+003;3.046140e-002
2.354757e+003;2.998767e-002
2.356686e+003;2.966979e-002
2.358614e+003;2.947039e-002
2.360543e+003;2.948907e-002
2.362471e+003;2.964659e-002
2.364400e+003;2.996925e-002
2.366328e+003;3.051912e-002
2.368257e+003;3.121368e-002
2.370186e+003;3.223234e-002
2.372114e+003;3.326505e-002
2.374042e+003;3.389298e-002
2.375971e+003;3.441298e-002
2.377900e+003;3.494567e-002
2.379828e+003;3.542818e-002
2.381757e+003;3.545665e-002
2.383685e+003;3.535510e-002
2.385614e+003;3.542746e-002
2.387542e+003;3.552900e-002
2.389471e+003;3.544163e-002
2.391399e+003;3.547492e-002
2.393328e+003;3.556226e-002
2.395257e+003;3.546374e-002
2.397185e+003;3.530191e-002
2.399114e+003;3.506010e-002
2.401042e+003;3.498022e-002
2.402971e+003;3.502339e-002
2.404899e+003;3.500543e-002
2.406828e+003;3.465264e-002
2.408756e+003;3.435431e-002
2.410685e+003;3.430808e-002
2.412614e+003;3.405590e-002
2.414542e+003;3.390656e-002
2.416471e+003;3.399269e-002
2.418399e+003;3.365693e-002
2.420328e+003;3.312499e-002
2.422256e+003;3.291181e-002
2.424185e+003;3.279931e-002
2.426113e+003;3.274046e-002
2.428042e+003;3.253171e-002
2.429970e+003;3.205351e-002
2.431899e+003;3.194319e-002
2.433828e+003;3.183697e-002
2.435756e+003;3.154587e-002
2.437685e+003;3.132289e-002
2.439613e+003;3.094763e-002
2.441542e+003;3.079835e-002
2.443470e+003;3.101096e-002
2.445399e+003;3.086573e-002
2.447327e+003;3.073248e-002
2.449256e+003;3.056917e-002
2.451185e+003;3.033631e-002
2.453113e+003;3.028991e-002
2.455042e+003;3.041512e-002
2.456970e+003;3.029715e-002
2.458899e+003;3.015787e-002
2.460827e+003;3.029698e-002
2.462756e+003;3.046609e-002
2.464684e+003;3.029833e-002
2.466613e+003;3.014164e-002
2.468542e+003;3.020060e-002
2.470470e+003;3.027605e-002
2.472398e+003;3.051901e-002
2.474327e+003;3.072921e-002
2.476256e+003;3.073234e-002
2.478184e+003;3.063036e-002
2.480113e+003;3.076599e-002
2.482041e+003;3.119915e-002
2.483970e+003;3.144341e-002
2.485898e+003;3.147562e-002
2.487827e+003;3.148780e-002
2.489755e+003;3.176966e-002
2.491684e+003;3.203043e-002
2.493613e+003;3.206878e-002
2.495541e+003;3.194327e-002
2.497470e+003;3.205626e-002
2.499398e+003;3.247918e-002
2.501327e+003;3.279934e-002
2.503255e+003;3.271380e-002
2.505184e+003;3.266190e-002
2.507112e+003;3.285312e-002
2.509041e+003;3.298208e-002
2.510969e+003;3.296114e-002
2.512898e+003;3.317374e-002
2.514827e+003;3.333177e-002
2.516755e+003;3.338773e-002
2.518684e+003;3.355483e-002
2.520612e+003;3.367003e-002
2.522541e+003;3.381532e-002
2.524469e+003;3.398573e-002
2.526398e+003;3.404658e-002
2.528326e+003;3.430834e-002
2.530255e+003;3.461155e-002
2.532184e+003;3.463706e-002
2.534112e+003;3.469125e-002
2.536041e+003;3.483243e-002
2.537969e+003;3.490269e-002
2.539898e+003;3.487422e-002
2.541826e+003;3.472768e-002
2.543755e+003;3.471214e-002
2.545683e+003;3.473310e-002
2.547612e+003;3.485181e-002
2.549541e+003;3.495824e-002
2.551469e+003;3.482227e-002
2.553397e+003;3.480708e-002
2.555326e+003;3.501057e-002
2.557255e+003;3.496607e-002
2.559183e+003;3.483910e-002
2.561112e+003;3.477000e-002
2.563040e+003;3.485763e-002
2.564969e+003;3.494240e-002
2.566897e+003;3.494093e-002
2.568826e+003;3.484359e-002
2.570754e+003;3.475510e-002
2.572683e+003;3.483684e-002
2.574612e+003;3.503754e-002
2.576540e+003;3.512910e-002
2.578469e+003;3.505478e-002
2.580397e+003;3.510220e-002
2.582326e+003;3.495418e-002
2.584254e+003;3.470069e-002
2.586183e+003;3.448443e-002
2.588111e+003;3.426771e-002
2.590040e+003;3.420135e-002
2.591969e+003;3.407672e-002
2.593897e+003;3.380819e-002
2.595826e+003;3.363219e-002
2.597754e+003;3.355766e-002
2.599683e+003;3.332176e-002
2.601611e+003;3.297593e-002
2.603540e+003;3.269808e-002
2.605468e+003;3.275796e-002
2.607397e+003;3.295699e-002
2.609325e+003;3.277926e-002
2.611254e+003;3.230496e-002
2.613183e+003;3.199466e-002
2.615111e+003;3.214909e-002
2.617040e+003;3.224718e-002
2.618968e+003;3.212329e-002
2.620897e+003;3.188521e-002
2.622825e+003;3.179700e-002
2.624754e+003;3.205683e-002
2.626682e+003;3.210560e-002
2.628611e+003;3.194216e-002
2.630540e+003;3.208430e-002
2.632468e+003;3.205412e-002
2.634396e+003;3.175215e-002
2.636325e+003;3.138913e-002
2.638254e+003;3.100221e-002
2.640182e+003;3.056768e-002
2.642111e+003;3.025658e-002
2.644039e+003;3.003070e-002
2.645968e+003;2.990961e-002
2.647896e+003;2.977598e-002
2.649825e+003;2.942606e-002
2.651753e+003;2.932431e-002
2.653682e+003;2.935994e-002
2.655611e+003;2.928741e-002
2.657539e+003;2.922581e-002
2.659468e+003;2.922599e-002
2.661396e+003;2.913499e-002
2.663325e+003;2.896303e-002
2.665253e+003;2.894603e-002
2.667182e+003;2.888894e-002
2.669110e+003;2.897780e-002
2.671039e+003;2.924438e-002
2.672968e+003;2.940897e-002
2.674896e+003;2.919363e-002
2.676825e+003;2.884864e-002
2.678753e+003;2.911139e-002
2.680682e+003;2.967167e-002
2.682610e+003;2.964347e-002
2.684539e+003;2.946163e-002
2.686467e+003;2.927632e-002
2.688396e+003;2.909917e-002
2.690324e+003;2.903256e-002
2.692253e+003;2.929691e-002
2.694182e+003;2.966312e-002
2.696110e+003;2.963857e-002
2.698039e+003;2.956568e-002
2.699967e+003;2.983188e-002
2.701896e+003;3.002059e-002
2.703824e+003;2.989889e-002
2.705753e+003;2.974210e-002
2.707681e+003;2.982819e-002
2.709610e+003;3.017350e-002
2.711539e+003;3.029126e-002
2.713467e+003;3.015396e-002
2.715396e+003;2.995100e-002
2.717324e+003;2.995909e-002
2.719253e+003;3.031833e-002
2.721181e+003;3.056796e-002
2.723110e+003;3.080379e-002
2.725038e+003;3.114063e-002
2.726967e+003;3.133268e-002
2.728896e+003;3.135733e-002
2.730824e+003;3.142799e-002
2.732752e+003;3.156205e-002
2.734681e+003;3.176263e-002
2.736610e+003;3.200739e-002
2.738538e+003;3.220183e-002
2.740467e+003;3.227295e-002
2.742395e+003;3.216076e-002
2.744324e+003;3.196534e-002
2.746252e+003;3.205787e-002
2.748181e+003;3.214538e-002
2.750109e+003;3.202330e-002
2.752038e+003;3.197804e-002
2.753967e+003;3.215912e-002
2.755895e+003;3.228252e-002
2.757824e+003;3.210114e-002
2.759752e+003;3.192814e-002
2.761681e+003;3.219833e-002
2.763609e+003;3.229465e-002
2.765538e+003;3.223808e-002
2.767466e+003;3.250221e-002
2.769395e+003;3.275300e-002
2.771323e+003;3.272159e-002
2.773252e+003;3.263421e-002
2.775181e+003;3.291992e-002
2.777109e+003;3.323937e-002
2.779038e+003;3.331124e-002
2.780966e+003;3.350905e-002
2.782895e+003;3.364476e-002
2.784823e+003;3.369607e-002
2.786752e+003;3.406124e-002
2.788680e+003;3.462913e-002
2.790609e+003;3.490050e-002
2.792538e+003;3.503194e-002
2.794466e+003;3.534586e-002
2.796395e+003;3.568109e-002
2.798323e+003;3.585800e-002
2.800252e+003;3.609075e-002
2.802180e+003;3.612751e-002
2.804109e+003;3.621455e-002
2.806037e+003;3.634718e-002
2.807966e+003;3.626472e-002
2.809895e+003;3.598062e-002
2.811823e+003;3.602267e-002
2.813751e+003;3.636076e-002
2.815680e+003;3.600629e-002
2.817609e+003;3.540255e-002
2.819537e+003;3.542361e-002
2.821466e+003;3.551986e-002
2.823394e+003;3.560390e-002
2.825323e+003;3.585660e-002
2.827251e+003;3.613244e-002
2.829180e+003;3.629674e-002
2.831108e+003;3.636505e-002
2.833037e+003;3.656105e-002
2.834966e+003;3.699823e-002
2.836894e+003;3.727069e-002
2.838823e+003;3.742918e-002
2.840751e+003;3.788451e-002
2.842680e+003;3.841280e-002
2.844608e+003;3.898431e-002
2.846537e+003;3.952547e-002
2.848465e+003;3.995897e-002
2.850394e+003;4.008966e-002
2.852323e+003;4.027658e-002
2.854251e+003;4.077743e-002
2.856180e+003;4.155434e-002
2.858108e+003;4.191169e-002
2.860037e+003;4.233114e-002
2.861965e+003;4.273432e-002
2.863894e+003;4.253756e-002
2.865822e+003;4.241286e-002
2.867751e+003;4.288878e-002
2.869679e+003;4.319764e-002
2.871608e+003;4.300707e-002
2.873536e+003;4.292418e-002
2.875465e+003;4.319328e-002
2.877394e+003;4.369963e-002
2.879322e+003;4.409033e-002
2.881251e+003;4.440992e-002
2.883179e+003;4.481827e-002
2.885108e+003;4.510612e-002
2.887036e+003;4.555847e-002
2.888965e+003;4.582642e-002
2.890893e+003;4.583849e-002
2.892822e+003;4.610244e-002
2.894750e+003;4.621962e-002
2.896679e+003;4.647086e-002
2.898608e+003;4.710083e-002
2.900536e+003;4.785770e-002
2.902465e+003;4.849298e-002
2.904393e+003;4.874350e-002
2.906322e+003;4.902332e-002
2.908250e+003;4.956414e-002
2.910179e+003;4.958669e-002
2.912107e+003;4.894417e-002
2.914036e+003;4.838474e-002
2.915965e+003;4.783754e-002
2.917893e+003;4.683624e-002
2.919822e+003;4.566035e-002
2.921750e+003;4.528305e-002
2.923679e+003;4.476626e-002
2.925607e+003;4.420199e-002
2.927536e+003;4.417733e-002
2.929464e+003;4.434104e-002
2.931393e+003;4.472354e-002
2.933322e+003;4.480762e-002
2.935250e+003;4.492364e-002
2.937178e+003;4.539155e-002
2.939107e+003;4.580403e-002
2.941036e+003;4.652382e-002
2.942964e+003;4.730226e-002
2.944893e+003;4.819322e-002
2.946821e+003;4.914255e-002
2.948750e+003;4.978496e-002
2.950678e+003;5.045157e-002
2.952607e+003;5.148666e-002
2.954535e+003;5.245979e-002
2.956464e+003;5.315517e-002
2.958393e+003;5.386719e-002
2.960321e+003;5.443309e-002
2.962250e+003;5.476644e-002
2.964178e+003;5.516576e-002
2.966107e+003;5.558390e-002
2.968035e+003;5.610868e-002
2.969964e+003;5.625851e-002
2.971892e+003;5.624410e-002
2.973821e+003;5.605360e-002
2.975750e+003;5.517091e-002
2.977678e+003;5.446678e-002
2.979607e+003;5.402438e-002
2.981535e+003;5.348469e-002
2.983464e+003;5.288076e-002
2.985392e+003;5.239792e-002
2.987321e+003;5.180737e-002
2.989249e+003;5.120816e-002
2.991178e+003;5.076609e-002
2.993106e+003;5.050349e-002
2.995035e+003;5.030322e-002
2.996964e+003;5.009568e-002
2.998892e+003;4.999102e-002
3.000821e+003;4.973673e-002
3.002749e+003;4.931957e-002
3.004678e+003;4.898389e-002
3.006606e+003;4.852974e-002
3.008535e+003;4.786236e-002
3.010463e+003;4.752917e-002
3.012392e+003;4.735051e-002
3.014321e+003;4.681354e-002
3.016249e+003;4.619298e-002
3.018177e+003;4.561754e-002
3.020106e+003;4.472549e-002
3.022035e+003;4.393178e-002
3.023963e+003;4.362826e-002
3.025892e+003;4.308270e-002
3.027820e+003;4.203607e-002
3.029749e+003;4.117611e-002
3.031677e+003;4.092267e-002
3.033606e+003;4.085161e-002
3.035534e+003;4.039293e-002
3.037463e+003;4.008795e-002
3.039392e+003;4.019792e-002
3.041320e+003;4.054274e-002
3.043249e+003;4.123032e-002
3.045177e+003;4.197994e-002
3.047106e+003;4.292305e-002
3.049034e+003;4.418933e-002
3.050963e+003;4.507363e-002
3.052891e+003;4.525194e-002
3.054820e+003;4.506944e-002
3.056749e+003;4.527481e-002
3.058677e+003;4.524866e-002
3.060606e+003;4.480160e-002
3.062534e+003;4.493739e-002
3.064463e+003;4.507892e-002
3.066391e+003;4.510105e-002
3.068320e+003;4.521660e-002
3.070248e+003;4.523855e-002
3.072177e+003;4.501508e-002
3.074105e+003;4.502713e-002
3.076034e+003;4.500346e-002
3.077963e+003;4.467077e-002
3.079891e+003;4.443855e-002
3.081820e+003;4.428486e-002
3.083748e+003;4.423489e-002
3.085677e+003;4.428233e-002
3.087605e+003;4.388438e-002
3.089534e+003;4.348695e-002
3.091462e+003;4.330837e-002
3.093391e+003;4.304084e-002
3.095320e+003;4.292561e-002
3.097248e+003;4.296321e-002
3.099177e+003;4.332371e-002
3.101105e+003;4.360192e-002
3.103034e+003;4.362636e-002
3.104962e+003;4.334304e-002
3.106891e+003;4.309499e-002
3.108819e+003;4.311471e-002
3.110748e+003;4.298937e-002
3.112677e+003;4.247493e-002
3.114605e+003;4.172574e-002
3.116533e+003;4.106865e-002
3.118462e+003;4.074988e-002
3.120391e+003;4.057573e-002
3.122319e+003;4.032072e-002
3.124248e+003;4.008878e-002
3.126176e+003;3.986285e-002
3.128105e+003;3.947681e-002
3.130033e+003;3.918157e-002
3.131962e+003;3.902683e-002
3.133890e+003;3.859915e-002
3.135819e+003;3.841989e-002
3.137748e+003;3.826568e-002
3.139676e+003;3.759856e-002
3.141605e+003;3.709407e-002
3.143533e+003;3.684820e-002
3.145462e+003;3.644039e-002
3.147390e+003;3.629869e-002
3.149319e+003;3.638591e-002
3.151247e+003;3.611847e-002
3.153176e+003;3.587254e-002
3.155104e+003;3.584695e-002
3.157033e+003;3.562800e-002
3.158962e+003;3.504303e-002
3.160890e+003;3.466878e-002
3.162819e+003;3.465411e-002
3.164747e+003;3.470209e-002
3.166676e+003;3.447152e-002
3.168604e+003;3.440842e-002
3.170533e+003;3.467277e-002
3.172461e+003;3.476749e-002
3.174390e+003;3.483490e-002
3.176319e+003;3.488488e-002
3.178247e+003;3.468160e-002
3.180176e+003;3.432684e-002
3.182104e+003;3.437174e-002
3.184033e+003;3.465357e-002
3.185961e+003;3.474063e-002
3.187890e+003;3.481595e-002
3.189818e+003;3.442299e-002
3.191747e+003;3.413403e-002
3.193676e+003;3.451622e-002
3.195604e+003;3.454689e-002
3.197532e+003;3.435420e-002
3.199461e+003;3.431712e-002
3.201390e+003;3.396821e-002
3.203318e+003;3.359360e-002
3.205247e+003;3.352372e-002
3.207175e+003;3.353944e-002
3.209104e+003;3.371440e-002
3.211032e+003;3.396180e-002
3.212961e+003;3.396391e-002
3.214889e+003;3.384967e-002
3.216818e+003;3.360803e-002
3.218747e+003;3.313258e-002
3.220675e+003;3.313343e-002
3.222604e+003;3.375995e-002
3.224532e+003;3.387679e-002
3.226461e+003;3.388685e-002
3.228389e+003;3.401960e-002
3.230318e+003;3.402042e-002
3.232246e+003;3.404171e-002
3.234175e+003;3.368511e-002
3.236104e+003;3.336684e-002
3.238032e+003;3.356890e-002
3.239961e+003;3.385014e-002
3.241889e+003;3.383742e-002
3.243818e+003;3.388940e-002
3.245746e+003;3.380049e-002
3.247675e+003;3.372883e-002
3.249603e+003;3.361261e-002
3.251532e+003;3.311881e-002
3.253460e+003;3.300189e-002
3.255389e+003;3.301008e-002
3.257318e+003;3.265164e-002
3.259246e+003;3.239953e-002
3.261175e+003;3.246847e-002
3.263103e+003;3.265111e-002
3.265032e+003;3.267201e-002
3.266960e+003;3.259296e-002
3.268889e+003;3.235887e-002
3.270817e+003;3.216622e-002
3.272746e+003;3.217018e-002
3.274675e+003;3.246872e-002
3.276603e+003;3.277404e-002
3.278531e+003;3.288032e-002
3.280460e+003;3.275403e-002
3.282389e+003;3.264889e-002
3.284317e+003;3.267486e-002
3.286246e+003;3.242109e-002
3.288174e+003;3.248757e-002
3.290103e+003;3.329213e-002
3.292031e+003;3.344499e-002
3.293960e+003;3.312070e-002
3.295888e+003;3.326988e-002
3.297817e+003;3.333059e-002
3.299746e+003;3.322989e-002
3.301674e+003;3.301612e-002
3.303603e+003;3.272002e-002
3.305531e+003;3.241613e-002
3.307460e+003;3.277143e-002
3.309388e+003;3.281732e-002
3.311317e+003;3.250725e-002
3.313245e+003;3.248904e-002
3.315174e+003;3.257321e-002
3.317103e+003;3.234502e-002
3.319031e+003;3.236572e-002
3.320960e+003;3.272377e-002
3.322888e+003;3.263332e-002
3.324817e+003;3.248525e-002
3.326745e+003;3.243783e-002
3.328674e+003;3.245858e-002
3.330602e+003;3.243651e-002
3.332531e+003;3.258264e-002
3.334459e+003;3.287971e-002
3.336388e+003;3.279684e-002
3.338317e+003;3.247822e-002
3.340245e+003;3.227270e-002
3.342174e+003;3.221303e-002
3.344102e+003;3.261728e-002
3.346031e+003;3.283147e-002
3.347959e+003;3.248643e-002
3.349888e+003;3.226389e-002
3.351816e+003;3.197811e-002
3.353745e+003;3.165082e-002
3.355674e+003;3.176823e-002
3.357602e+003;3.156294e-002
3.359531e+003;3.091596e-002
3.361459e+003;3.057856e-002
3.363388e+003;3.035283e-002
3.365316e+003;3.001238e-002
3.367245e+003;2.992768e-002
3.369173e+003;3.014754e-002
3.371102e+003;3.032202e-002
3.373031e+003;3.023648e-002
3.374959e+003;2.994894e-002
3.376887e+003;2.978106e-002
3.378816e+003;3.022877e-002
3.380745e+003;3.050298e-002
3.382673e+003;3.028802e-002
3.384602e+003;3.003937e-002
3.386530e+003;2.990794e-002
3.388459e+003;2.992949e-002
3.390387e+003;3.018849e-002
3.392316e+003;3.064742e-002
3.394244e+003;3.103015e-002
3.396173e+003;3.124939e-002
3.398102e+003;3.179005e-002
3.400030e+003;3.236836e-002
3.401959e+003;3.268158e-002
3.403887e+003;3.301086e-002
3.405816e+003;3.342001e-002
3.407744e+003;3.387320e-002
3.409673e+003;3.465619e-002
3.411601e+003;3.509397e-002
3.413530e+003;3.557236e-002
3.415458e+003;3.680777e-002
3.417387e+003;3.791839e-002
3.419316e+003;3.832579e-002
3.421244e+003;3.897187e-002
3.423173e+003;3.996576e-002
3.425101e+003;4.059621e-002
3.427030e+003;4.091958e-002
3.428958e+003;4.115451e-002
3.430887e+003;4.109692e-002
3.432815e+003;4.085041e-002
3.434744e+003;4.064551e-002
3.436673e+003;4.018244e-002
3.438601e+003;3.966961e-002
3.440530e+003;3.936858e-002
3.442458e+003;3.914273e-002
3.444387e+003;3.845776e-002
3.446315e+003;3.753790e-002
3.448244e+003;3.694855e-002
3.450172e+003;3.625359e-002
3.452101e+003;3.551965e-002
3.454030e+003;3.496093e-002
3.455958e+003;3.472628e-002
3.457886e+003;3.434911e-002
3.459815e+003;3.373191e-002
3.461744e+003;3.321941e-002
3.463672e+003;3.275464e-002
3.465601e+003;3.224904e-002
3.467529e+003;3.165264e-002
3.469458e+003;3.118983e-002
3.471386e+003;3.094204e-002
3.473315e+003;3.079152e-002
3.475243e+003;3.029193e-002
3.477172e+003;2.978951e-002
3.479101e+003;2.993456e-002
3.481029e+003;3.009448e-002
3.482958e+003;3.011081e-002
3.484886e+003;2.973383e-002
3.486815e+003;2.942652e-002
3.488743e+003;2.959462e-002
3.490672e+003;2.975260e-002
3.492600e+003;3.012779e-002
3.494529e+003;3.009423e-002
3.496458e+003;2.992416e-002
3.498386e+003;2.986396e-002
3.500315e+003;2.968835e-002
3.502243e+003;2.948336e-002
3.504172e+003;2.955064e-002
3.506100e+003;2.967139e-002
3.508029e+003;2.987280e-002
3.509957e+003;3.058922e-002
3.511886e+003;3.085925e-002
3.513814e+003;3.060949e-002
3.515743e+003;3.054255e-002
3.517672e+003;3.069226e-002
3.519600e+003;3.096115e-002
3.521529e+003;3.050248e-002
3.523457e+003;3.007541e-002
3.525386e+003;3.042664e-002
3.527314e+003;3.100947e-002
3.529243e+003;3.144267e-002
3.531171e+003;3.166333e-002
3.533100e+003;3.175468e-002
3.535029e+003;3.160281e-002
3.536957e+003;3.163999e-002
3.538885e+003;3.179722e-002
3.540814e+003;3.152272e-002
3.542743e+003;3.125334e-002
3.544671e+003;3.123298e-002
3.546600e+003;3.145424e-002
3.548528e+003;3.178271e-002
3.550457e+003;3.203357e-002
3.552385e+003;3.195778e-002
3.554314e+003;3.143305e-002
3.556242e+003;3.102627e-002
3.558171e+003;3.090489e-002
3.560100e+003;3.106734e-002
3.562028e+003;3.093589e-002
3.563957e+003;3.043343e-002
3.565885e+003;3.006664e-002
3.567814e+003;2.995466e-002
3.569742e+003;3.014395e-002
3.571671e+003;3.011433e-002
3.573599e+003;3.007001e-002
3.575528e+003;3.002211e-002
3.577457e+003;2.969828e-002
3.579385e+003;2.936636e-002
3.581314e+003;2.899112e-002
3.583242e+003;2.866076e-002
3.585171e+003;2.849119e-002
3.587099e+003;2.831669e-002
3.589028e+003;2.823344e-002
3.590956e+003;2.808142e-002
3.592885e+003;2.801289e-002
3.594813e+003;2.806690e-002
3.596742e+003;2.790624e-002
3.598671e+003;2.740170e-002
3.600599e+003;2.669298e-002
3.602528e+003;2.649782e-002
3.604456e+003;2.678009e-002
3.606385e+003;2.644982e-002
3.608313e+003;2.624432e-002
3.610242e+003;2.642327e-002
3.612170e+003;2.678336e-002
3.614099e+003;2.721765e-002
3.616028e+003;2.688378e-002
3.617956e+003;2.647018e-002
3.619885e+003;2.663784e-002
3.621813e+003;2.691995e-002
3.623742e+003;2.697554e-002
3.625670e+003;2.690613e-002
3.627599e+003;2.667807e-002
3.629527e+003;2.676299e-002
3.631456e+003;2.693489e-002
3.633385e+003;2.672483e-002
3.635313e+003;2.675010e-002
3.637241e+003;2.710041e-002
3.639170e+003;2.682262e-002
3.641099e+003;2.633712e-002
3.643027e+003;2.649071e-002
3.644956e+003;2.648271e-002
3.646884e+003;2.621068e-002
3.648813e+003;2.634071e-002
3.650741e+003;2.639334e-002
3.652670e+003;2.645408e-002
3.654598e+003;2.600729e-002
3.656527e+003;2.582475e-002
3.658456e+003;2.632546e-002
3.660384e+003;2.633261e-002
3.662313e+003;2.584381e-002
3.664241e+003;2.506019e-002
3.666170e+003;2.469279e-002
3.668098e+003;2.448976e-002
3.670027e+003;2.425800e-002
3.671955e+003;2.453103e-002
3.673884e+003;2.466206e-002
3.675813e+003;2.431813e-002
3.677741e+003;2.421322e-002
3.679669e+003;2.472986e-002
3.681598e+003;2.556852e-002
3.683527e+003;2.620666e-002
3.685455e+003;2.633145e-002
3.687384e+003;2.557924e-002
3.689312e+003;2.530604e-002
3.691241e+003;2.543963e-002
3.693169e+003;2.548471e-002
3.695098e+003;2.526102e-002
3.697026e+003;2.471818e-002
3.698955e+003;2.427496e-002
3.700884e+003;2.375837e-002
3.702812e+003;2.365959e-002
3.704741e+003;2.366609e-002
3.706669e+003;2.325848e-002
3.708598e+003;2.291279e-002
3.710526e+003;2.302671e-002
3.712455e+003;2.324128e-002
3.714383e+003;2.331595e-002
3.716312e+003;2.310260e-002
3.718240e+003;2.286396e-002
3.720169e+003;2.288852e-002
3.722098e+003;2.284881e-002
3.724026e+003;2.278661e-002
3.725955e+003;2.297996e-002
3.727883e+003;2.339620e-002
3.729812e+003;2.363594e-002
3.731740e+003;2.370861e-002
3.733669e+003;2.389016e-002
3.735597e+003;2.365224e-002
3.737526e+003;2.352305e-002
3.739455e+003;2.334123e-002
3.741383e+003;2.288764e-002
3.743312e+003;2.222785e-002
3.745240e+003;2.215692e-002
3.747169e+003;2.254068e-002
3.749097e+003;2.281081e-002
3.751026e+003;2.345453e-002
3.752954e+003;2.373772e-002
3.754883e+003;2.395072e-002
3.756812e+003;2.462012e-002
3.758740e+003;2.489250e-002
3.760668e+003;2.423379e-002
3.762597e+003;2.398175e-002
3.764526e+003;2.424812e-002
3.766454e+003;2.390136e-002
3.768383e+003;2.343274e-002
3.770311e+003;2.339365e-002
3.772240e+003;2.343099e-002
3.774168e+003;2.339557e-002
3.776097e+003;2.339434e-002
3.778025e+003;2.317805e-002
3.779954e+003;2.315642e-002
3.781883e+003;2.331498e-002
3.783811e+003;2.315135e-002
3.785740e+003;2.311522e-002
3.787668e+003;2.329187e-002
3.789597e+003;2.383131e-002
3.791525e+003;2.394134e-002
3.793454e+003;2.393686e-002
3.795382e+003;2.391134e-002
3.797311e+003;2.377342e-002
3.799240e+003;2.362505e-002
3.801168e+003;2.326390e-002
3.803097e+003;2.361071e-002
3.805025e+003;2.382291e-002
3.806954e+003;2.368814e-002
3.808882e+003;2.397629e-002
3.810811e+003;2.405753e-002
3.812739e+003;2.403410e-002
3.814668e+003;2.370448e-002
3.816596e+003;2.355127e-002
3.818525e+003;2.367439e-002
3.820454e+003;2.345393e-002
3.822382e+003;2.322873e-002
3.824311e+003;2.338116e-002
3.826239e+003;2.349213e-002
3.828168e+003;2.328533e-002
3.830096e+003;2.289375e-002
3.832025e+003;2.265310e-002
3.833953e+003;2.285820e-002
3.835882e+003;2.279709e-002
3.837811e+003;2.260580e-002
3.839739e+003;2.313639e-002
3.841667e+003;2.344596e-002
3.843596e+003;2.343974e-002
3.845525e+003;2.369048e-002
3.847453e+003;2.367848e-002
3.849382e+003;2.342141e-002
3.851310e+003;2.325271e-002
3.853239e+003;2.307328e-002
3.855167e+003;2.304075e-002
3.857096e+003;2.327655e-002
3.859024e+003;2.327991e-002
3.860953e+003;2.334158e-002
3.862882e+003;2.358353e-002
3.864810e+003;2.370599e-002
3.866739e+003;2.387395e-002
3.868667e+003;2.379292e-002
3.870596e+003;2.373860e-002
3.872524e+003;2.379407e-002
3.874453e+003;2.380247e-002
3.876381e+003;2.389408e-002
3.878310e+003;2.377829e-002
3.880239e+003;2.364713e-002
3.882167e+003;2.395556e-002
3.884096e+003;2.430313e-002
3.886024e+003;2.418026e-002
3.887953e+003;2.391823e-002
3.889881e+003;2.373832e-002
3.891810e+003;2.387297e-002
3.893738e+003;2.475561e-002
3.895667e+003;2.509434e-002
3.897595e+003;2.475259e-002
3.899524e+003;2.444276e-002
3.901453e+003;2.407297e-002
3.903381e+003;2.391648e-002
3.905310e+003;2.432850e-002
3.907238e+003;2.464534e-002
3.909167e+003;2.473221e-002
3.911095e+003;2.481201e-002
3.913024e+003;2.464916e-002
3.914952e+003;2.467069e-002
3.916881e+003;2.477869e-002
3.918810e+003;2.525575e-002
3.920738e+003;2.607832e-002
3.922667e+003;2.610468e-002
3.924595e+003;2.551282e-002
3.926524e+003;2.504976e-002
3.928452e+003;2.483962e-002
3.930381e+003;2.462163e-002
3.932309e+003;2.459940e-002
3.934238e+003;2.492850e-002
3.936167e+003;2.503923e-002
3.938095e+003;2.484857e-002
3.940023e+003;2.483271e-002
3.941952e+003;2.503481e-002
3.943881e+003;2.499438e-002
3.945809e+003;2.528451e-002
3.947738e+003;2.554149e-002
3.949666e+003;2.574082e-002
3.951595e+003;2.596251e-002
3.953523e+003;2.556297e-002
3.955452e+003;2.546538e-002
3.957380e+003;2.604662e-002
3.959309e+003;2.634993e-002
3.961238e+003;2.633782e-002
3.963166e+003;2.633363e-002
3.965095e+003;2.637246e-002
3.967023e+003;2.670520e-002
3.968952e+003;2.663453e-002
3.970880e+003;2.627466e-002
3.972809e+003;2.625140e-002
3.974737e+003;2.598907e-002
3.976666e+003;2.565132e-002
3.978594e+003;2.555942e-002
3.980523e+003;2.580337e-002
3.982452e+003;2.633567e-002
3.984380e+003;2.643524e-002
3.986309e+003;2.615799e-002
3.988237e+003;2.613438e-002
3.990166e+003;2.659084e-002
3.992094e+003;2.659828e-002
3.994023e+003;2.609813e-002
3.995951e+003;2.596424e-002
3.997880e+003;2.636584e-002
3.999809e+003;2.656622e-002
4.001737e+003;0.000000e+000
