3.992094e+002;0.000000e+000
4.011380e+002;0.000000e+000
4.030665e+002;0.000000e+000
4.049951e+002;0.000000e+000
4.069236e+002;0.000000e+000
4.088522e+002;0.000000e+000
4.107807e+002;0.000000e+000
4.127093e+002;0.000000e+000
4.146378e+002;0.000000e+000
4.165664e+002;0.000000e+000
4.184949e+002;0.000000e+000
4.204235e+002;0.000000e+000
4.223520e+002;0.000000e+000
4.242806e+002;0.000000e+000
4.262091e+002;0.000000e+000
4.281377e+002;0.000000e+000
4.300662e+002;0.000000e+000
4.319948e+002;0.000000e+000
4.339233e+002;0.000000e+000
4.358519e+002;0.000000e+000
4.377804e+002;0.000000e+000
4.397090e+002;0.000000e+000
4.416375e+002;0.000000e+000
4.435660e+002;0.000000e+000
4.454946e+002;0.000000e+000
4.474232e+002;0.000000e+000
4.493517e+002;0.000000e+000
4.512802e+002;0.000000e+000
4.532088e+002;0.000000e+000
4.551373e+002;0.000000e+000
4.570659e+002;0.000000e+000
4.589944e+002;0.000000e+000
4.609230e+002;0.000000e+000
4.628515e+002;0.000000e+000
4.647801e+002;0.000000e+000
4.667086e+002;0.000000e+000
4.686372e+002;0.000000e+000
4.705657e+002;0.000000e+000
4.724943e+002;0.000000e+000
4.744228e+002;0.000000e+000
4.763513e+002;0.000000e+000
4.782799e+002;0.000000e+000
4.802085e+002;0.000000e+000
4.821370e+002;0.000000e+000
4.840656e+002;0.000000e+000
4.859941e+002;0.000000e+000
4.879226e+002;0.000000e+000
4.898512e+002;0.000000e+000
4.917798e+002;0.000000e+000
4.937083e+002;0.000000e+000
4.956368e+002;0.000000e+000
4.975654e+002;0.000000e+000
4.994939e+002;0.000000e+000
5.014225e+002;0.000000e+000
5.033510e+002;0.000000e+000
5.052796e+002;0.000000e+000
5.072081e+002;0.000000e+000
5.091367e+002;0.000000e+000
5.110652e+002;0.000000e+000
5.129938e+002;0.000000e+000
5.149223e+002;0.000000e+000
5.168509e+002;0.000000e+000
5.187794e+002;0.000000e+000
5.207079e+002;0.000000e+000
5.226365e+002;0.000000e+000
5.245651e+002;0.000000e+000
5.264936e+002;0.000000e+000
5.284222e+002;0.000000e+000
5.303507e+002;0.000000e+000
5.322792e+002;0.000000e+000
5.342078e+002;0.000000e+000
5.361364e+002;0.000000e+000
5.380649e+002;0.000000e+000
5.399935e+002;0.000000e+000
5.419220e+002;0.000000e+000
5.438505e+002;0.000000e+000
5.457791e+002;0.000000e+000
5.477076e+002;0.000000e+000
5.496362e+002;0.000000e+000
5.515648e+002;0.000000e+000
5.534933e+002;0.000000e+000
5.554218e+002;0.000000e+000
5.573504e+002;0.000000e+000
5.592789e+002;0.000000e+000
5.612075e+002;0.000000e+000
5.631360e+002;0.000000e+000
5.650646e+002;0.000000e+000
5.669931e+002;0.000000e+000
5.689217e+002;0.000000e+000
5.708502e+002;0.000000e+000
5.727787e+002;0.000000e+000
5.747073e+002;0.000000e+000
5.766359e+002;0.000000e+000
5.785644e+002;0.000000e+000
5.804930e+002;0.000000e+000
5.824215e+002;0.000000e+000
5.843500e+002;0.000000e+000
5.862786e+002;0.000000e+000
5.882072e+002;0.000000e+000
5.901357e+002;0.000000e+000
5.920643e+002;0.000000e+000
5.939928e+002;0.000000e+000
5.959213e+002;0.000000e+000
5.978499e+002;0.000000e+000
5.997784e+002;8.206005e-002
6.017070e+002;9.032204e-002
6.036355e+002;9.301157e-002
6.055641e+002;8.719022e-002
6.074926e+002;8.128881e-002
6.094211e+002;8.235710e-002
6.113497e+002;8.806475e-002
6.132783e+002;8.741271e-002
6.152068e+002;8.256863e-002
6.171354e+002;8.191599e-002
6.190639e+002;8.350388e-002
6.209924e+002;8.417960e-002
6.229210e+002;8.836926e-002
6.248495e+002;9.320696e-002
6.267781e+002;9.464072e-002
6.287067e+002;9.615377e-002
6.306352e+002;1.010512e-001
6.325637e+002;9.979624e-002
6.344923e+002;1.005392e-001
6.364208e+002;1.007872e-001
6.383494e+002;9.825406e-002
6.402780e+002;9.478421e-002
6.422065e+002;9.356948e-002
6.441350e+002;9.476314e-002
6.460636e+002;9.759577e-002
6.479921e+002;9.890341e-002
6.499207e+002;1.012637e-001
6.518492e+002;1.029862e-001
6.537778e+002;1.036467e-001
6.557063e+002;1.045102e-001
6.576349e+002;1.058690e-001
6.595634e+002;1.064206e-001
6.614919e+002;1.075800e-001
6.634205e+002;1.085529e-001
6.653491e+002;1.098463e-001
6.672776e+002;1.106119e-001
6.692062e+002;1.139636e-001
6.711347e+002;1.172715e-001
6.730632e+002;1.197463e-001
6.749918e+002;1.258355e-001
6.769203e+002;1.317844e-001
6.788489e+002;1.350539e-001
6.807775e+002;1.379432e-001
6.827060e+002;1.386429e-001
6.846345e+002;1.380440e-001
6.865631e+002;1.384640e-001
6.884916e+002;1.399045e-001
6.904202e+002;1.426842e-001
6.923488e+002;1.477110e-001
6.942773e+002;1.553945e-001
6.962058e+002;1.673246e-001
6.981344e+002;1.825140e-001
7.000629e+002;1.997832e-001
7.019915e+002;2.169325e-001
7.039200e+002;2.322469e-001
7.058486e+002;2.466939e-001
7.077771e+002;2.619581e-001
7.097057e+002;2.803615e-001
7.116342e+002;3.033138e-001
7.135627e+002;3.311060e-001
7.154913e+002;3.679253e-001
7.174199e+002;4.164203e-001
7.193484e+002;4.706367e-001
7.212770e+002;5.181394e-001
7.232055e+002;5.483944e-001
7.251340e+002;5.411050e-001
7.270626e+002;4.947446e-001
7.289911e+002;4.300499e-001
7.309197e+002;3.663503e-001
7.328483e+002;3.110582e-001
7.347768e+002;2.619098e-001
7.367053e+002;2.165643e-001
7.386339e+002;1.764031e-001
7.405624e+002;1.444059e-001
7.424910e+002;1.217978e-001
7.444196e+002;1.058373e-001
7.463481e+002;9.558923e-002
7.482766e+002;9.015416e-002
7.502052e+002;8.750105e-002
7.521337e+002;8.588517e-002
7.540623e+002;8.525273e-002
7.559908e+002;8.462946e-002
7.579194e+002;8.424544e-002
7.598479e+002;8.401142e-002
7.617765e+002;8.459637e-002
7.637050e+002;8.681785e-002
7.656335e+002;8.884840e-002
7.675621e+002;9.085828e-002
7.694907e+002;9.315723e-002
7.714192e+002;9.601718e-002
7.733478e+002;9.915338e-002
7.752763e+002;1.011163e-001
7.772048e+002;1.026245e-001
7.791334e+002;1.048754e-001
7.810620e+002;1.079365e-001
7.829905e+002;1.108297e-001
7.849191e+002;1.142970e-001
7.868476e+002;1.191734e-001
7.887761e+002;1.259239e-001
7.907047e+002;1.319275e-001
7.926332e+002;1.325112e-001
7.945618e+002;1.263108e-001
7.964903e+002;1.166969e-001
7.984189e+002;1.091629e-001
8.003474e+002;1.058451e-001
8.022759e+002;1.051383e-001
8.042045e+002;1.067736e-001
8.061331e+002;1.086735e-001
8.080616e+002;1.090677e-001
8.099902e+002;1.094163e-001
8.119187e+002;1.103471e-001
8.138472e+002;1.113844e-001
8.157758e+002;1.131037e-001
8.177043e+002;1.150109e-001
8.196329e+002;1.169968e-001
8.215615e+002;1.185836e-001
8.234900e+002;1.200493e-001
8.254185e+002;1.215555e-001
8.273471e+002;1.240495e-001
8.292756e+002;1.273894e-001
8.312042e+002;1.304062e-001
8.331328e+002;1.336478e-001
8.350613e+002;1.378104e-001
8.369898e+002;1.423167e-001
8.389184e+002;1.471588e-001
8.408469e+002;1.518460e-001
8.427755e+002;1.568452e-001
8.447040e+002;1.622242e-001
8.466326e+002;1.661230e-001
8.485611e+002;1.669949e-001
8.504897e+002;1.645524e-001
8.524182e+002;1.612671e-001
8.543467e+002;1.596892e-001
8.562753e+002;1.591015e-001
8.582039e+002;1.586993e-001
8.601324e+002;1.586467e-001
8.620610e+002;1.604789e-001
8.639895e+002;1.653712e-001
8.659180e+002;1.742844e-001
8.678466e+002;1.905842e-001
8.697751e+002;2.152531e-001
8.717037e+002;2.384866e-001
8.736323e+002;2.414058e-001
8.755608e+002;2.253404e-001
8.774893e+002;2.050928e-001
8.794179e+002;1.855530e-001
8.813464e+002;1.676116e-001
8.832750e+002;1.519018e-001
8.852036e+002;1.390597e-001
8.871321e+002;1.297397e-001
8.890606e+002;1.232193e-001
8.909892e+002;1.194519e-001
8.929177e+002;1.178560e-001
8.948463e+002;1.170663e-001
8.967748e+002;1.166974e-001
8.987034e+002;1.168206e-001
9.006319e+002;1.164994e-001
9.025605e+002;1.154571e-001
9.044890e+002;1.142216e-001
9.064175e+002;1.123401e-001
9.083461e+002;1.096854e-001
9.102747e+002;1.069340e-001
9.122032e+002;1.048612e-001
9.141318e+002;1.032774e-001
9.160603e+002;1.026463e-001
9.179888e+002;1.022785e-001
9.199174e+002;1.019384e-001
9.218459e+002;1.021056e-001
9.237745e+002;1.027919e-001
9.257031e+002;1.039659e-001
9.276316e+002;1.050828e-001
9.295601e+002;1.056838e-001
9.314887e+002;1.061660e-001
9.334172e+002;1.070381e-001
9.353458e+002;1.085434e-001
9.372744e+002;1.096653e-001
9.392029e+002;1.107626e-001
9.411314e+002;1.119575e-001
9.430600e+002;1.132117e-001
9.449885e+002;1.149090e-001
9.469171e+002;1.170268e-001
9.488456e+002;1.198078e-001
9.507742e+002;1.225456e-001
9.527027e+002;1.253688e-001
9.546313e+002;1.284667e-001
9.565598e+002;1.317062e-001
9.584883e+002;1.352624e-001
9.604169e+002;1.389421e-001
9.623455e+002;1.424158e-001
9.642740e+002;1.456901e-001
9.662026e+002;1.487254e-001
9.681311e+002;1.508970e-001
9.700596e+002;1.519542e-001
9.719882e+002;1.514011e-001
9.739167e+002;1.494308e-001
9.758453e+002;1.463800e-001
9.777739e+002;1.429999e-001
9.797024e+002;1.400123e-001
9.816309e+002;1.373990e-001
9.835595e+002;1.352908e-001
9.854880e+002;1.339599e-001
9.874166e+002;1.331791e-001
9.893452e+002;1.330228e-001
9.912737e+002;1.329105e-001
9.932022e+002;1.328969e-001
9.951307e+002;1.337298e-001
9.970593e+002;1.352414e-001
9.989879e+002;1.376400e-001
1.000916e+003;1.404841e-001
1.002845e+003;1.438482e-001
1.004773e+003;1.488104e-001
1.006702e+003;1.557035e-001
1.008631e+003;1.657440e-001
1.010559e+003;1.815233e-001
1.012488e+003;2.059341e-001
1.014416e+003;2.402600e-001
1.016345e+003;2.741577e-001
1.018273e+003;2.879979e-001
1.020202e+003;2.746368e-001
1.022130e+003;2.458542e-001
1.024059e+003;2.144864e-001
1.025988e+003;1.864661e-001
1.027916e+003;1.648470e-001
1.029845e+003;1.516210e-001
1.031773e+003;1.463255e-001
1.033702e+003;1.457890e-001
1.035630e+003;1.474796e-001
1.037559e+003;1.498109e-001
1.039487e+003;1.521588e-001
1.041416e+003;1.551264e-001
1.043344e+003;1.579565e-001
1.045273e+003;1.600756e-001
1.047202e+003;1.617265e-001
1.049130e+003;1.634516e-001
1.051059e+003;1.651149e-001
1.052987e+003;1.669989e-001
1.054916e+003;1.693894e-001
1.056844e+003;1.727426e-001
1.058773e+003;1.781429e-001
1.060701e+003;1.843534e-001
1.062630e+003;1.916286e-001
1.064558e+003;2.008472e-001
1.066487e+003;2.107771e-001
1.068416e+003;2.218262e-001
1.070344e+003;2.349228e-001
1.072273e+003;2.501007e-001
1.074201e+003;2.678038e-001
1.076130e+003;2.888708e-001
1.078058e+003;3.133548e-001
1.079987e+003;3.390015e-001
1.081915e+003;3.650254e-001
1.083844e+003;3.897116e-001
1.085773e+003;4.106245e-001
1.087701e+003;4.282905e-001
1.089630e+003;4.429903e-001
1.091558e+003;4.571106e-001
1.093487e+003;4.697022e-001
1.095415e+003;4.789886e-001
1.097344e+003;4.844219e-001
1.099272e+003;4.834652e-001
1.101201e+003;4.736896e-001
1.103129e+003;4.561113e-001
1.105058e+003;4.321729e-001
1.106987e+003;4.050180e-001
1.108915e+003;3.803914e-001
1.110844e+003;3.637136e-001
1.112772e+003;3.560230e-001
1.114701e+003;3.538608e-001
1.116629e+003;3.526122e-001
1.118558e+003;3.489525e-001
1.120486e+003;3.401736e-001
1.122415e+003;3.274843e-001
1.124344e+003;3.123631e-001
1.126272e+003;2.957623e-001
1.128201e+003;2.783717e-001
1.130129e+003;2.604261e-001
1.132058e+003;2.420852e-001
1.133986e+003;2.239300e-001
1.135915e+003;2.076179e-001
1.137843e+003;1.934902e-001
1.139772e+003;1.811053e-001
1.141700e+003;1.701539e-001
1.143629e+003;1.610723e-001
1.145557e+003;1.544736e-001
1.147486e+003;1.491835e-001
1.149415e+003;1.449130e-001
1.151343e+003;1.415644e-001
1.153272e+003;1.385793e-001
1.155200e+003;1.355645e-001
1.157129e+003;1.328494e-001
1.159057e+003;1.312674e-001
1.160986e+003;1.307858e-001
1.162914e+003;1.310809e-001
1.164843e+003;1.327260e-001
1.166771e+003;1.362987e-001
1.168700e+003;1.403961e-001
1.170629e+003;1.440765e-001
1.172557e+003;1.466753e-001
1.174486e+003;1.470328e-001
1.176414e+003;1.454444e-001
1.178343e+003;1.429707e-001
1.180271e+003;1.396892e-001
1.182200e+003;1.362136e-001
1.184128e+003;1.335303e-001
1.186057e+003;1.321550e-001
1.187986e+003;1.323007e-001
1.189914e+003;1.338493e-001
1.191843e+003;1.364976e-001
1.193771e+003;1.402127e-001
1.195700e+003;1.444792e-001
1.197628e+003;1.492782e-001
1.199557e+003;1.546867e-001
1.201485e+003;1.601687e-001
1.203414e+003;1.659159e-001
1.205343e+003;1.724874e-001
1.207271e+003;1.797109e-001
1.209200e+003;1.875646e-001
1.211128e+003;1.963751e-001
1.213057e+003;2.059706e-001
1.214985e+003;2.159022e-001
1.216914e+003;2.268545e-001
1.218842e+003;2.383921e-001
1.220771e+003;2.501110e-001
1.222699e+003;2.623170e-001
1.224628e+003;2.749868e-001
1.226557e+003;2.900185e-001
1.228485e+003;3.090117e-001
1.230414e+003;3.322875e-001
1.232342e+003;3.609260e-001
1.234271e+003;3.952183e-001
1.236199e+003;4.331069e-001
1.238128e+003;4.720867e-001
1.240056e+003;5.085716e-001
1.241985e+003;5.372960e-001
1.243913e+003;5.546171e-001
1.245842e+003;5.602235e-001
1.247771e+003;5.563359e-001
1.249699e+003;5.455087e-001
1.251628e+003;5.314994e-001
1.253556e+003;5.168404e-001
1.255485e+003;5.018739e-001
1.257413e+003;4.883759e-001
1.259342e+003;4.771359e-001
1.261270e+003;4.644096e-001
1.263199e+003;4.482929e-001
1.265127e+003;4.289354e-001
1.267056e+003;4.069017e-001
1.268985e+003;3.835287e-001
1.270913e+003;3.604637e-001
1.272842e+003;3.391573e-001
1.274770e+003;3.205796e-001
1.276699e+003;3.047774e-001
1.278627e+003;2.908684e-001
1.280556e+003;2.779706e-001
1.282484e+003;2.654734e-001
1.284413e+003;2.533781e-001
1.286342e+003;2.421681e-001
1.288270e+003;2.308903e-001
1.290199e+003;2.193731e-001
1.292127e+003;2.081122e-001
1.294056e+003;1.967123e-001
1.295984e+003;1.852497e-001
1.297913e+003;1.741397e-001
1.299841e+003;1.639373e-001
1.301770e+003;1.551322e-001
1.303698e+003;1.478567e-001
1.305627e+003;1.420693e-001
1.307556e+003;1.369317e-001
1.309484e+003;1.319548e-001
1.311413e+003;1.273880e-001
1.313341e+003;1.233559e-001
1.315270e+003;1.199948e-001
1.317198e+003;1.171138e-001
1.319127e+003;1.149760e-001
1.321055e+003;1.136221e-001
1.322984e+003;1.132488e-001
1.324912e+003;1.144380e-001
1.326841e+003;1.178828e-001
1.328770e+003;1.256157e-001
1.330698e+003;1.393525e-001
1.332627e+003;1.585522e-001
1.334555e+003;1.800496e-001
1.336484e+003;1.977339e-001
1.338412e+003;2.058887e-001
1.340341e+003;2.020331e-001
1.342269e+003;1.882663e-001
1.344198e+003;1.692592e-001
1.346126e+003;1.494749e-001
1.348055e+003;1.319630e-001
1.349984e+003;1.185771e-001
1.351912e+003;1.090753e-001
1.353841e+003;1.025833e-001
1.355769e+003;9.858926e-002
1.357698e+003;9.627207e-002
1.359626e+003;9.504349e-002
1.361555e+003;9.496283e-002
1.363483e+003;9.629854e-002
1.365412e+003;9.847921e-002
1.367341e+003;1.005310e-001
1.369269e+003;1.021124e-001
1.371198e+003;1.023573e-001
1.373126e+003;1.012969e-001
1.375055e+003;1.006024e-001
1.376983e+003;1.005671e-001
1.378912e+003;1.004346e-001
1.380840e+003;1.011903e-001
1.382769e+003;1.024466e-001
1.384698e+003;1.032647e-001
1.386626e+003;1.037473e-001
1.388555e+003;1.054261e-001
1.390483e+003;1.076813e-001
1.392412e+003;1.097809e-001
1.394340e+003;1.126756e-001
1.396269e+003;1.173868e-001
1.398197e+003;1.235696e-001
1.400126e+003;1.320643e-001
1.402054e+003;1.429842e-001
1.403983e+003;1.557908e-001
1.405911e+003;1.698890e-001
1.407840e+003;1.802675e-001
1.409769e+003;1.803739e-001
1.411697e+003;1.684137e-001
1.413626e+003;1.486031e-001
1.415554e+003;1.270356e-001
1.417483e+003;1.081887e-001
1.419411e+003;9.521887e-002
1.421340e+003;8.893924e-002
1.423268e+003;8.537436e-002
1.425197e+003;8.361843e-002
1.427125e+003;8.361168e-002
1.429054e+003;8.419660e-002
1.430983e+003;8.551332e-002
1.432911e+003;8.741072e-002
1.434840e+003;8.854945e-002
1.436768e+003;8.996254e-002
1.438697e+003;9.323510e-002
1.440625e+003;9.574009e-002
1.442554e+003;9.740523e-002
1.444482e+003;9.927671e-002
1.446411e+003;1.011063e-001
1.448340e+003;1.029160e-001
1.450268e+003;1.050162e-001
1.452197e+003;1.063657e-001
1.454125e+003;1.059983e-001
1.456054e+003;1.035657e-001
1.457982e+003;1.038151e-001
1.459911e+003;1.061597e-001
1.461839e+003;1.067288e-001
1.463768e+003;1.057108e-001
1.465697e+003;1.058107e-001
1.467625e+003;1.079867e-001
1.469554e+003;1.107507e-001
1.471482e+003;1.118390e-001
1.473411e+003;1.113186e-001
1.475339e+003;1.100082e-001
1.477268e+003;1.076171e-001
1.479196e+003;1.044958e-001
1.481125e+003;1.007710e-001
1.483053e+003;9.714010e-002
1.484982e+003;9.276035e-002
1.486911e+003;8.828525e-002
1.488839e+003;8.499625e-002
1.490768e+003;8.328692e-002
1.492696e+003;8.305474e-002
1.494625e+003;8.268169e-002
1.496553e+003;8.364398e-002
1.498482e+003;8.870032e-002
1.500410e+003;9.685501e-002
1.502339e+003;1.063162e-001
1.504267e+003;1.112289e-001
1.506196e+003;1.087704e-001
1.508125e+003;1.036388e-001
1.510053e+003;9.770293e-002
1.511982e+003;9.243914e-002
1.513910e+003;8.978739e-002
1.515839e+003;8.826803e-002
1.517767e+003;8.783961e-002
1.519696e+003;8.690745e-002
1.521624e+003;8.663449e-002
1.523553e+003;8.886248e-002
1.525481e+003;9.000661e-002
1.527410e+003;9.095684e-002
1.529339e+003;9.190991e-002
1.531267e+003;9.149478e-002
1.533196e+003;8.978438e-002
1.535124e+003;8.903538e-002
1.537053e+003;8.603008e-002
1.538981e+003;8.083593e-002
1.540910e+003;7.971527e-002
1.542838e+003;8.105279e-002
1.544767e+003;8.170190e-002
1.546695e+003;8.225746e-002
1.548624e+003;8.184281e-002
1.550553e+003;8.148671e-002
1.552481e+003;8.079813e-002
1.554410e+003;7.952236e-002
1.556338e+003;7.765599e-002
1.558267e+003;7.427422e-002
1.560195e+003;7.590847e-002
1.562124e+003;8.085121e-002
1.564052e+003;8.294062e-002
1.565981e+003;8.388419e-002
1.567910e+003;8.471148e-002
1.569838e+003;8.637263e-002
1.571767e+003;8.975410e-002
1.573695e+003;9.178525e-002
1.575624e+003;9.263837e-002
1.577552e+003;9.639124e-002
1.579481e+003;9.930824e-002
1.581409e+003;9.834875e-002
1.583338e+003;9.576740e-002
1.585266e+003;9.298912e-002
1.587195e+003;9.064986e-002
1.589124e+003;8.904405e-002
1.591052e+003;8.846665e-002
1.592981e+003;8.831744e-002
1.594909e+003;8.901249e-002
1.596838e+003;9.082805e-002
1.598766e+003;9.303164e-002
1.600695e+003;9.498683e-002
1.602623e+003;9.655786e-002
1.604552e+003;9.748332e-002
1.606480e+003;9.797554e-002
1.608409e+003;9.864864e-002
1.610338e+003;9.976130e-002
1.612266e+003;1.007998e-001
1.614195e+003;9.992296e-002
1.616123e+003;9.708835e-002
1.618052e+003;9.654598e-002
1.619980e+003;9.629329e-002
1.621909e+003;9.405486e-002
1.623837e+003;9.260158e-002
1.625766e+003;9.258834e-002
1.627694e+003;9.263013e-002
1.629623e+003;9.299232e-002
1.631552e+003;9.333552e-002
1.633480e+003;9.199798e-002
1.635409e+003;9.060969e-002
1.637337e+003;9.270740e-002
1.639266e+003;9.529950e-002
1.641194e+003;9.684077e-002
1.643123e+003;9.730921e-002
1.645051e+003;9.654611e-002
1.646980e+003;9.730544e-002
1.648909e+003;9.984727e-002
1.650837e+003;9.915209e-002
1.652766e+003;9.729276e-002
1.654694e+003;1.023739e-001
1.656623e+003;1.082021e-001
1.658551e+003;1.116330e-001
1.660480e+003;1.142933e-001
1.662408e+003;1.174003e-001
1.664337e+003;1.220724e-001
1.666266e+003;1.262125e-001
1.668194e+003;1.291203e-001
1.670123e+003;1.334653e-001
1.672051e+003;1.384403e-001
1.673980e+003;1.420858e-001
1.675908e+003;1.470114e-001
1.677837e+003;1.534668e-001
1.679765e+003;1.587203e-001
1.681694e+003;1.624870e-001
1.683622e+003;1.644758e-001
1.685551e+003;1.708602e-001
1.687479e+003;1.801283e-001
1.689408e+003;1.884584e-001
1.691337e+003;1.980411e-001
1.693265e+003;2.084583e-001
1.695194e+003;2.204303e-001
1.697122e+003;2.389223e-001
1.699051e+003;2.602248e-001
1.700979e+003;2.884796e-001
1.702908e+003;3.254651e-001
1.704836e+003;3.675921e-001
1.706765e+003;4.172010e-001
1.708693e+003;4.706693e-001
1.710622e+003;5.193511e-001
1.712551e+003;5.527025e-001
1.714479e+003;5.624669e-001
1.716408e+003;5.491398e-001
1.718336e+003;5.209895e-001
1.720265e+003;4.871665e-001
1.722193e+003;4.488991e-001
1.724122e+003;4.098087e-001
1.726050e+003;3.716597e-001
1.727979e+003;3.351083e-001
1.729908e+003;3.003105e-001
1.731836e+003;2.667371e-001
1.733765e+003;2.344515e-001
1.735693e+003;2.080597e-001
1.737622e+003;1.837513e-001
1.739550e+003;1.589468e-001
1.741479e+003;1.374935e-001
1.743407e+003;1.187940e-001
1.745336e+003;1.028474e-001
1.747265e+003;9.003307e-002
1.749193e+003;8.063513e-002
1.751122e+003;7.448779e-002
1.753050e+003;7.197474e-002
1.754979e+003;7.034491e-002
1.756907e+003;6.884509e-002
1.758836e+003;6.813287e-002
1.760764e+003;6.714204e-002
1.762693e+003;6.711110e-002
1.764621e+003;6.761261e-002
1.766550e+003;6.672650e-002
1.768479e+003;6.573547e-002
1.770407e+003;6.477152e-002
1.772336e+003;6.396680e-002
1.774264e+003;6.515417e-002
1.776193e+003;6.614100e-002
1.778121e+003;6.600810e-002
1.780050e+003;6.550124e-002
1.781978e+003;6.532159e-002
1.783907e+003;6.522863e-002
1.785835e+003;6.533017e-002
1.787764e+003;6.551700e-002
1.789693e+003;6.499632e-002
1.791621e+003;6.402755e-002
1.793550e+003;6.439697e-002
1.795478e+003;6.524372e-002
1.797407e+003;6.527995e-002
1.799335e+003;6.521495e-002
1.801264e+003;6.528515e-002
1.803192e+003;6.565465e-002
1.805121e+003;6.587412e-002
1.807049e+003;6.594358e-002
1.808978e+003;6.568849e-002
1.810907e+003;6.563850e-002
1.812835e+003;6.616979e-002
1.814764e+003;6.665147e-002
1.816692e+003;6.653417e-002
1.818621e+003;6.656592e-002
1.820549e+003;6.661543e-002
1.822478e+003;6.625473e-002
1.824406e+003;6.569909e-002
1.826335e+003;6.555434e-002
1.828264e+003;6.511509e-002
1.830192e+003;6.448583e-002
1.832121e+003;6.464203e-002
1.834049e+003;6.449182e-002
1.835978e+003;6.393713e-002
1.837906e+003;6.355820e-002
1.839835e+003;6.305809e-002
1.841763e+003;6.165035e-002
1.843692e+003;5.993552e-002
1.845620e+003;5.985242e-002
1.847549e+003;5.975192e-002
1.849478e+003;5.896331e-002
1.851406e+003;5.814515e-002
1.853335e+003;5.730735e-002
1.855263e+003;5.662512e-002
1.857192e+003;5.602401e-002
1.859120e+003;5.544851e-002
1.861049e+003;5.496667e-002
1.862977e+003;5.427827e-002
1.864906e+003;5.336407e-002
1.866834e+003;5.238102e-002
1.868763e+003;5.164217e-002
1.870692e+003;5.176463e-002
1.872620e+003;5.188428e-002
1.874549e+003;5.168893e-002
1.876477e+003;5.151811e-002
1.878406e+003;5.136212e-002
1.880334e+003;5.128653e-002
1.882263e+003;5.131808e-002
1.884191e+003;5.127926e-002
1.886120e+003;5.096929e-002
1.888048e+003;5.058300e-002
1.889977e+003;5.058427e-002
1.891906e+003;5.082698e-002
1.893834e+003;5.081924e-002
1.895763e+003;5.106722e-002
1.897691e+003;5.155848e-002
1.899620e+003;5.193551e-002
1.901548e+003;5.202070e-002
1.903477e+003;5.191161e-002
1.905405e+003;5.190747e-002
1.907334e+003;5.206821e-002
1.909262e+003;5.232136e-002
1.911191e+003;5.281075e-002
1.913120e+003;5.337029e-002
1.915048e+003;5.352224e-002
1.916977e+003;5.343020e-002
1.918905e+003;5.402045e-002
1.920834e+003;5.475426e-002
1.922762e+003;5.513326e-002
1.924691e+003;5.574767e-002
1.926619e+003;5.653328e-002
1.928548e+003;5.735359e-002
1.930477e+003;5.818436e-002
1.932405e+003;5.883403e-002
1.934334e+003;5.974656e-002
1.936262e+003;6.067411e-002
1.938191e+003;6.140694e-002
1.940119e+003;6.216635e-002
1.942048e+003;6.279314e-002
1.943976e+003;6.365460e-002
1.945905e+003;6.465349e-002
1.947833e+003;6.534473e-002
1.949762e+003;6.585480e-002
1.951691e+003;6.625299e-002
1.953619e+003;6.621328e-002
1.955548e+003;6.590644e-002
1.957476e+003;6.588218e-002
1.959405e+003;6.591569e-002
1.961333e+003;6.577476e-002
1.963262e+003;6.512279e-002
1.965190e+003;6.423318e-002
1.967119e+003;6.329999e-002
1.969047e+003;6.245962e-002
1.970976e+003;6.159636e-002
1.972905e+003;6.076892e-002
1.974833e+003;6.007491e-002
1.976762e+003;5.945804e-002
1.978690e+003;5.889834e-002
1.980619e+003;5.843166e-002
1.982547e+003;5.799880e-002
1.984476e+003;5.765699e-002
1.986404e+003;5.707697e-002
1.988333e+003;5.651347e-002
1.990261e+003;5.590483e-002
1.992190e+003;5.503598e-002
1.994119e+003;5.458959e-002
1.996047e+003;5.423918e-002
1.997976e+003;5.368977e-002
1.999904e+003;5.321719e-002
2.001833e+003;5.279933e-002
2.003761e+003;5.221456e-002
2.005690e+003;5.160180e-002
2.007618e+003;5.131502e-002
2.009547e+003;5.108634e-002
2.011476e+003;5.070445e-002
2.013404e+003;5.019200e-002
2.015333e+003;4.981361e-002
2.017261e+003;4.942185e-002
2.019190e+003;4.910259e-002
2.021118e+003;4.898103e-002
2.023047e+003;4.895800e-002
2.024975e+003;4.875499e-002
2.026904e+003;4.838670e-002
2.028833e+003;4.810974e-002
2.030761e+003;4.818522e-002
2.032690e+003;4.830322e-002
2.034618e+003;4.807184e-002
2.036547e+003;4.784279e-002
2.038475e+003;4.817641e-002
2.040404e+003;4.845664e-002
2.042332e+003;4.862819e-002
2.044261e+003;4.886981e-002
2.046189e+003;4.921031e-002
2.048118e+003;4.936430e-002
2.050047e+003;4.964590e-002
2.051975e+003;5.012431e-002
2.053904e+003;5.065955e-002
2.055832e+003;5.111970e-002
2.057761e+003;5.150822e-002
2.059689e+003;5.164997e-002
2.061618e+003;5.203893e-002
2.063546e+003;5.270464e-002
2.065475e+003;5.308361e-002
2.067404e+003;5.342173e-002
2.069332e+003;5.407013e-002
2.071260e+003;5.468804e-002
2.073189e+003;5.505178e-002
2.075118e+003;5.537619e-002
2.077046e+003;5.578124e-002
2.078975e+003;5.607355e-002
2.080903e+003;5.644868e-002
2.082832e+003;5.675714e-002
2.084760e+003;5.694424e-002
2.086689e+003;5.700477e-002
2.088617e+003;5.729045e-002
2.090546e+003;5.741224e-002
2.092475e+003;5.732822e-002
2.094403e+003;5.729586e-002
2.096332e+003;5.722637e-002
2.098260e+003;5.719738e-002
2.100189e+003;5.739515e-002
2.102117e+003;5.751406e-002
2.104046e+003;5.746326e-002
2.105974e+003;5.719062e-002
2.107903e+003;5.712954e-002
2.109832e+003;5.731881e-002
2.111760e+003;5.722104e-002
2.113688e+003;5.683358e-002
2.115617e+003;5.656000e-002
2.117546e+003;5.651237e-002
2.119474e+003;5.640287e-002
2.121403e+003;5.618919e-002
2.123331e+003;5.590148e-002
2.125260e+003;5.533261e-002
2.127188e+003;5.485015e-002
2.129117e+003;5.471720e-002
2.131045e+003;5.470480e-002
2.132974e+003;5.439140e-002
2.134903e+003;5.399238e-002
2.136831e+003;5.369333e-002
2.138760e+003;5.332005e-002
2.140688e+003;5.286007e-002
2.142617e+003;5.254792e-002
2.144545e+003;5.235807e-002
2.146474e+003;5.210553e-002
2.148402e+003;5.162138e-002
2.150331e+003;5.104855e-002
2.152260e+003;5.070792e-002
2.154188e+003;5.037748e-002
2.156117e+003;4.994544e-002
2.158045e+003;4.943841e-002
2.159974e+003;4.899539e-002
2.161902e+003;4.866503e-002
2.163831e+003;4.810163e-002
2.165759e+003;4.769130e-002
2.167688e+003;4.755859e-002
2.169616e+003;4.727429e-002
2.171545e+003;4.710881e-002
2.173474e+003;4.707136e-002
2.175402e+003;4.693158e-002
2.177331e+003;4.679007e-002
2.179259e+003;4.646356e-002
2.181188e+003;4.625213e-002
2.183116e+003;4.613929e-002
2.185045e+003;4.622817e-002
2.186973e+003;4.640029e-002
2.188902e+003;4.653537e-002
2.190831e+003;4.656675e-002
2.192759e+003;4.654034e-002
2.194688e+003;4.655698e-002
2.196616e+003;4.669520e-002
2.198545e+003;4.694048e-002
2.200473e+003;4.701011e-002
2.202402e+003;4.699312e-002
2.204330e+003;4.726114e-002
2.206259e+003;4.772088e-002
2.208188e+003;4.796999e-002
2.210116e+003;4.812440e-002
2.212044e+003;4.821573e-002
2.213973e+003;4.833241e-002
2.215902e+003;4.864417e-002
2.217830e+003;4.880790e-002
2.219759e+003;4.907276e-002
2.221687e+003;4.925770e-002
2.223616e+003;4.918448e-002
2.225544e+003;4.905574e-002
2.227473e+003;4.914018e-002
2.229401e+003;4.946143e-002
2.231330e+003;4.968364e-002
2.233259e+003;4.993064e-002
2.235187e+003;5.011145e-002
2.237116e+003;5.004760e-002
2.239044e+003;5.009103e-002
2.240973e+003;5.022280e-002
2.242901e+003;5.044365e-002
2.244830e+003;5.082337e-002
2.246758e+003;5.123246e-002
2.248687e+003;5.165594e-002
2.250615e+003;5.189997e-002
2.252544e+003;5.202388e-002
2.254473e+003;5.196692e-002
2.256401e+003;5.188398e-002
2.258330e+003;5.203755e-002
2.260258e+003;5.193738e-002
2.262187e+003;5.184030e-002
2.264115e+003;5.186681e-002
2.266044e+003;5.168763e-002
2.267972e+003;5.139837e-002
2.269901e+003;5.146767e-002
2.271830e+003;5.162217e-002
2.273758e+003;5.174320e-002
2.275687e+003;5.184713e-002
2.277615e+003;5.211947e-002
2.279544e+003;5.236663e-002
2.281472e+003;5.236603e-002
2.283401e+003;5.229774e-002
2.285329e+003;5.225290e-002
2.287258e+003;5.201458e-002
2.289187e+003;5.166718e-002
2.291115e+003;5.124999e-002
2.293043e+003;5.085689e-002
2.294972e+003;5.045150e-002
2.296901e+003;4.971849e-002
2.298829e+003;4.885821e-002
2.300758e+003;4.839215e-002
2.302686e+003;4.804523e-002
2.304615e+003;4.738680e-002
2.306543e+003;4.677228e-002
2.308472e+003;4.651615e-002
2.310400e+003;4.647813e-002
2.312329e+003;4.643683e-002
2.314258e+003;4.610690e-002
2.316186e+003;4.582984e-002
2.318115e+003;4.585370e-002
2.320043e+003;4.586471e-002
2.321972e+003;4.569763e-002
2.323900e+003;4.567433e-002
2.325829e+003;4.577984e-002
2.327757e+003;4.565508e-002
2.329686e+003;4.549614e-002
2.331615e+003;4.532354e-002
2.333543e+003;4.519796e-002
2.335472e+003;4.531685e-002
2.337400e+003;4.544986e-002
2.339329e+003;4.563418e-002
2.341257e+003;4.589417e-002
2.343186e+003;4.639177e-002
2.345114e+003;4.707417e-002
2.347043e+003;4.786099e-002
2.348971e+003;4.831819e-002
2.350900e+003;4.813458e-002
2.352829e+003;4.770202e-002
2.354757e+003;4.726036e-002
2.356686e+003;4.709112e-002
2.358614e+003;4.727174e-002
2.360543e+003;4.746315e-002
2.362471e+003;4.761989e-002
2.364400e+003;4.801273e-002
2.366328e+003;4.868045e-002
2.368257e+003;4.937782e-002
2.370186e+003;4.999306e-002
2.372114e+003;5.040885e-002
2.374042e+003;5.096203e-002
2.375971e+003;5.164785e-002
2.377900e+003;5.217876e-002
2.379828e+003;5.251363e-002
2.381757e+003;5.262074e-002
2.383685e+003;5.267135e-002
2.385614e+003;5.271089e-002
2.387542e+003;5.265934e-002
2.389471e+003;5.258042e-002
2.391399e+003;5.258136e-002
2.393328e+003;5.248518e-002
2.395257e+003;5.227244e-002
2.397185e+003;5.201387e-002
2.399114e+003;5.198044e-002
2.401042e+003;5.204550e-002
2.402971e+003;5.172200e-002
2.404899e+003;5.126404e-002
2.406828e+003;5.099903e-002
2.408756e+003;5.080501e-002
2.410685e+003;5.053424e-002
2.412614e+003;5.032498e-002
2.414542e+003;5.014365e-002
2.416471e+003;4.988578e-002
2.418399e+003;4.964564e-002
2.420328e+003;4.940447e-002
2.422256e+003;4.905800e-002
2.424185e+003;4.853170e-002
2.426113e+003;4.822450e-002
2.428042e+003;4.795156e-002
2.429970e+003;4.764411e-002
2.431899e+003;4.730096e-002
2.433828e+003;4.695524e-002
2.435756e+003;4.693505e-002
2.437685e+003;4.680634e-002
2.439613e+003;4.638543e-002
2.441542e+003;4.606497e-002
2.443470e+003;4.595840e-002
2.445399e+003;4.568151e-002
2.447327e+003;4.551524e-002
2.449256e+003;4.542889e-002
2.451185e+003;4.544912e-002
2.453113e+003;4.547105e-002
2.455042e+003;4.528110e-002
2.456970e+003;4.516380e-002
2.458899e+003;4.527036e-002
2.460827e+003;4.540921e-002
2.462756e+003;4.549500e-002
2.464684e+003;4.548223e-002
2.466613e+003;4.535146e-002
2.468542e+003;4.543275e-002
2.470470e+003;4.559616e-002
2.472398e+003;4.561062e-002
2.474327e+003;4.558446e-002
2.476256e+003;4.571291e-002
2.478184e+003;4.585230e-002
2.480113e+003;4.619515e-002
2.482041e+003;4.673748e-002
2.483970e+003;4.683398e-002
2.485898e+003;4.678741e-002
2.487827e+003;4.700446e-002
2.489755e+003;4.731881e-002
2.491684e+003;4.758067e-002
2.493613e+003;4.763683e-002
2.495541e+003;4.763664e-002
2.497470e+003;4.793018e-002
2.499398e+003;4.815001e-002
2.501327e+003;4.813095e-002
2.503255e+003;4.813302e-002
2.505184e+003;4.827416e-002
2.507112e+003;4.843908e-002
2.509041e+003;4.867378e-002
2.510969e+003;4.884163e-002
2.512898e+003;4.874313e-002
2.514827e+003;4.894042e-002
2.516755e+003;4.933679e-002
2.518684e+003;4.967925e-002
2.520612e+003;5.003957e-002
2.522541e+003;5.016091e-002
2.524469e+003;5.004738e-002
2.526398e+003;5.005161e-002
2.528326e+003;5.014544e-002
2.530255e+003;5.010103e-002
2.532184e+003;5.002191e-002
2.534112e+003;4.993391e-002
2.536041e+003;5.011498e-002
2.537969e+003;5.026226e-002
2.539898e+003;5.016756e-002
2.541826e+003;5.024727e-002
2.543755e+003;5.042679e-002
2.545683e+003;5.040681e-002
2.547612e+003;5.021454e-002
2.549541e+003;5.021260e-002
2.551469e+003;5.035073e-002
2.553397e+003;5.046665e-002
2.555326e+003;5.042210e-002
2.557255e+003;5.041153e-002
2.559183e+003;5.041272e-002
2.561112e+003;5.052389e-002
2.563040e+003;5.069797e-002
2.564969e+003;5.048302e-002
2.566897e+003;5.017526e-002
2.568826e+003;5.018296e-002
2.570754e+003;5.022443e-002
2.572683e+003;5.022276e-002
2.574612e+003;5.039668e-002
2.576540e+003;5.038225e-002
2.578469e+003;5.031103e-002
2.580397e+003;5.038731e-002
2.582326e+003;5.020874e-002
2.584254e+003;5.004113e-002
2.586183e+003;4.989987e-002
2.588111e+003;4.962487e-002
2.590040e+003;4.940644e-002
2.591969e+003;4.926249e-002
2.593897e+003;4.892677e-002
2.595826e+003;4.854852e-002
2.597754e+003;4.821869e-002
2.599683e+003;4.782659e-002
2.601611e+003;4.763978e-002
2.603540e+003;4.757689e-002
2.605468e+003;4.756126e-002
2.607397e+003;4.728378e-002
2.609325e+003;4.699080e-002
2.611254e+003;4.677678e-002
2.613183e+003;4.658047e-002
2.615111e+003;4.655462e-002
2.617040e+003;4.660076e-002
2.618968e+003;4.649749e-002
2.620897e+003;4.633013e-002
2.622825e+003;4.637297e-002
2.624754e+003;4.662381e-002
2.626682e+003;4.683041e-002
2.628611e+003;4.671073e-002
2.630540e+003;4.636357e-002
2.632468e+003;4.614835e-002
2.634396e+003;4.603922e-002
2.636325e+003;4.568817e-002
2.638254e+003;4.495646e-002
2.640182e+003;4.429980e-002
2.642111e+003;4.396144e-002
2.644039e+003;4.376105e-002
2.645968e+003;4.384677e-002
2.647896e+003;4.388687e-002
2.649825e+003;4.373067e-002
2.651753e+003;4.371993e-002
2.653682e+003;4.345527e-002
2.655611e+003;4.294975e-002
2.657539e+003;4.266186e-002
2.659468e+003;4.282270e-002
2.661396e+003;4.307194e-002
2.663325e+003;4.291464e-002
2.665253e+003;4.262674e-002
2.667182e+003;4.281853e-002
2.669110e+003;4.301761e-002
2.671039e+003;4.295645e-002
2.672968e+003;4.312628e-002
2.674896e+003;4.332462e-002
2.676825e+003;4.334801e-002
2.678753e+003;4.332986e-002
2.680682e+003;4.346658e-002
2.682610e+003;4.353705e-002
2.684539e+003;4.351112e-002
2.686467e+003;4.344589e-002
2.688396e+003;4.344820e-002
2.690324e+003;4.363090e-002
2.692253e+003;4.378300e-002
2.694182e+003;4.373917e-002
2.696110e+003;4.361379e-002
2.698039e+003;4.368553e-002
2.699967e+003;4.377519e-002
2.701896e+003;4.378091e-002
2.703824e+003;4.389571e-002
2.705753e+003;4.397277e-002
2.707681e+003;4.417216e-002
2.709610e+003;4.451307e-002
2.711539e+003;4.473298e-002
2.713467e+003;4.449967e-002
2.715396e+003;4.454963e-002
2.717324e+003;4.498479e-002
2.719253e+003;4.493099e-002
2.721181e+003;4.479476e-002
2.723110e+003;4.507840e-002
2.725038e+003;4.548547e-002
2.726967e+003;4.581831e-002
2.728896e+003;4.610499e-002
2.730824e+003;4.629791e-002
2.732752e+003;4.621531e-002
2.734681e+003;4.627163e-002
2.736610e+003;4.639653e-002
2.738538e+003;4.664602e-002
2.740467e+003;4.681313e-002
2.742395e+003;4.677081e-002
2.744324e+003;4.663680e-002
2.746252e+003;4.659080e-002
2.748181e+003;4.667886e-002
2.750109e+003;4.652496e-002
2.752038e+003;4.652327e-002
2.753967e+003;4.660526e-002
2.755895e+003;4.664348e-002
2.757824e+003;4.675671e-002
2.759752e+003;4.692464e-002
2.761681e+003;4.702790e-002
2.763609e+003;4.692767e-002
2.765538e+003;4.693638e-002
2.767466e+003;4.719568e-002
2.769395e+003;4.742213e-002
2.771323e+003;4.737904e-002
2.773252e+003;4.732557e-002
2.775181e+003;4.748910e-002
2.777109e+003;4.774684e-002
2.779038e+003;4.824198e-002
2.780966e+003;4.859999e-002
2.782895e+003;4.881360e-002
2.784823e+003;4.911951e-002
2.786752e+003;4.958320e-002
2.788680e+003;5.029243e-002
2.790609e+003;5.077901e-002
2.792538e+003;5.075655e-002
2.794466e+003;5.083983e-002
2.796395e+003;5.129850e-002
2.798323e+003;5.186994e-002
2.800252e+003;5.204169e-002
2.802180e+003;5.213531e-002
2.804109e+003;5.236842e-002
2.806037e+003;5.227670e-002
2.807966e+003;5.220297e-002
2.809895e+003;5.229098e-002
2.811823e+003;5.211502e-002
2.813751e+003;5.168931e-002
2.815680e+003;5.099217e-002
2.817609e+003;5.024682e-002
2.819537e+003;5.001436e-002
2.821466e+003;4.982885e-002
2.823394e+003;4.957528e-002
2.825323e+003;4.960236e-002
2.827251e+003;4.989314e-002
2.829180e+003;4.994087e-002
2.831108e+003;4.983189e-002
2.833037e+003;4.971986e-002
2.834966e+003;4.962216e-002
2.836894e+003;4.967052e-002
2.838823e+003;4.934110e-002
2.840751e+003;4.842404e-002
2.842680e+003;4.690773e-002
2.844608e+003;4.480009e-002
2.846537e+003;4.197388e-002
2.848465e+003;3.923720e-002
2.850394e+003;3.765803e-002
2.852323e+003;3.718672e-002
2.854251e+003;3.841917e-002
2.856180e+003;4.086155e-002
2.858108e+003;4.356433e-002
2.860037e+003;4.624845e-002
2.861965e+003;4.893085e-002
2.863894e+003;5.102090e-002
2.865822e+003;5.212623e-002
2.867751e+003;5.281198e-002
2.869679e+003;5.351812e-002
2.871608e+003;5.425007e-002
2.873536e+003;5.500815e-002
2.875465e+003;5.583493e-002
2.877394e+003;5.675597e-002
2.879322e+003;5.735397e-002
2.881251e+003;5.749760e-002
2.883179e+003;5.765146e-002
2.885108e+003;5.787700e-002
2.887036e+003;5.788979e-002
2.888965e+003;5.776934e-002
2.890893e+003;5.766887e-002
2.892822e+003;5.757125e-002
2.894750e+003;5.728161e-002
2.896679e+003;5.704992e-002
2.898608e+003;5.712693e-002
2.900536e+003;5.755918e-002
2.902465e+003;5.767704e-002
2.904393e+003;5.738199e-002
2.906322e+003;5.671972e-002
2.908250e+003;5.559124e-002
2.910179e+003;5.330139e-002
2.912107e+003;4.973301e-002
2.914036e+003;4.593612e-002
2.915965e+003;4.191209e-002
2.917893e+003;3.814964e-002
2.919822e+003;3.522011e-002
2.921750e+003;3.352766e-002
2.923679e+003;3.288332e-002
2.925607e+003;3.327496e-002
2.927536e+003;3.467147e-002
2.929464e+003;3.648179e-002
2.931393e+003;3.868553e-002
2.933322e+003;4.141555e-002
2.935250e+003;4.435656e-002
2.937178e+003;4.716118e-002
2.939107e+003;4.988258e-002
2.941036e+003;5.251520e-002
2.942964e+003;5.480511e-002
2.944893e+003;5.678966e-002
2.946821e+003;5.867493e-002
2.948750e+003;6.012476e-002
2.950678e+003;6.101934e-002
2.952607e+003;6.178880e-002
2.954535e+003;6.297133e-002
2.956464e+003;6.449064e-002
2.958393e+003;6.643910e-002
2.960321e+003;6.830129e-002
2.962250e+003;7.014532e-002
2.964178e+003;7.188246e-002
2.966107e+003;7.325985e-002
2.968035e+003;7.496808e-002
2.969964e+003;7.632539e-002
2.971892e+003;7.695371e-002
2.973821e+003;7.743313e-002
2.975750e+003;7.753143e-002
2.977678e+003;7.721016e-002
2.979607e+003;7.686155e-002
2.981535e+003;7.676446e-002
2.983464e+003;7.662902e-002
2.985392e+003;7.597371e-002
2.987321e+003;7.545580e-002
2.989249e+003;7.499175e-002
2.991178e+003;7.405624e-002
2.993106e+003;7.328589e-002
2.995035e+003;7.285503e-002
2.996964e+003;7.234724e-002
2.998892e+003;7.172817e-002
3.000821e+003;7.127304e-002
3.002749e+003;7.057885e-002
3.004678e+003;6.982394e-002
3.006606e+003;6.943218e-002
3.008535e+003;6.917477e-002
3.010463e+003;6.880300e-002
3.012392e+003;6.843978e-002
3.014321e+003;6.785055e-002
3.016249e+003;6.732780e-002
3.018177e+003;6.656356e-002
3.020106e+003;6.545135e-002
3.022035e+003;6.456921e-002
3.023963e+003;6.350182e-002
3.025892e+003;6.229460e-002
3.027820e+003;6.147381e-002
3.029749e+003;6.069392e-002
3.031677e+003;5.990547e-002
3.033606e+003;5.933350e-002
3.035534e+003;5.897295e-002
3.037463e+003;5.890946e-002
3.039392e+003;5.901531e-002
3.041320e+003;5.915828e-002
3.043249e+003;5.964996e-002
3.045177e+003;6.067682e-002
3.047106e+003;6.210755e-002
3.049034e+003;6.384543e-002
3.050963e+003;6.532732e-002
3.052891e+003;6.615451e-002
3.054820e+003;6.670258e-002
3.056749e+003;6.673666e-002
3.058677e+003;6.627337e-002
3.060606e+003;6.643114e-002
3.062534e+003;6.666179e-002
3.064463e+003;6.626114e-002
3.066391e+003;6.626179e-002
3.068320e+003;6.663664e-002
3.070248e+003;6.662536e-002
3.072177e+003;6.638663e-002
3.074105e+003;6.673925e-002
3.076034e+003;6.705461e-002
3.077963e+003;6.688776e-002
3.079891e+003;6.670088e-002
3.081820e+003;6.680018e-002
3.083748e+003;6.658905e-002
3.085677e+003;6.605235e-002
3.087605e+003;6.554655e-002
3.089534e+003;6.515513e-002
3.091462e+003;6.493709e-002
3.093391e+003;6.459958e-002
3.095320e+003;6.426233e-002
3.097248e+003;6.409290e-002
3.099177e+003;6.408323e-002
3.101105e+003;6.438267e-002
3.103034e+003;6.508237e-002
3.104962e+003;6.552559e-002
3.106891e+003;6.532628e-002
3.108819e+003;6.460766e-002
3.110748e+003;6.401668e-002
3.112677e+003;6.319136e-002
3.114605e+003;6.174519e-002
3.116533e+003;6.066832e-002
3.118462e+003;6.026098e-002
3.120391e+003;5.994168e-002
3.122319e+003;5.960640e-002
3.124248e+003;5.943957e-002
3.126176e+003;5.937931e-002
3.128105e+003;5.919651e-002
3.130033e+003;5.886480e-002
3.131962e+003;5.851665e-002
3.133890e+003;5.795931e-002
3.135819e+003;5.723291e-002
3.137748e+003;5.641362e-002
3.139676e+003;5.515297e-002
3.141605e+003;5.420097e-002
3.143533e+003;5.364452e-002
3.145462e+003;5.349068e-002
3.147390e+003;5.341630e-002
3.149319e+003;5.286658e-002
3.151247e+003;5.239325e-002
3.153176e+003;5.241239e-002
3.155104e+003;5.218183e-002
3.157033e+003;5.167423e-002
3.158962e+003;5.141735e-002
3.160890e+003;5.093885e-002
3.162819e+003;5.057094e-002
3.164747e+003;5.060795e-002
3.166676e+003;5.053457e-002
3.168604e+003;5.024314e-002
3.170533e+003;5.014640e-002
3.172461e+003;5.023291e-002
3.174390e+003;5.012985e-002
3.176319e+003;4.995953e-002
3.178247e+003;4.974892e-002
3.180176e+003;4.956964e-002
3.182104e+003;4.953150e-002
3.184033e+003;4.948564e-002
3.185961e+003;4.966046e-002
3.187890e+003;4.983535e-002
3.189818e+003;4.951824e-002
3.191747e+003;4.923254e-002
3.193676e+003;4.929712e-002
3.195604e+003;4.912946e-002
3.197532e+003;4.901145e-002
3.199461e+003;4.916760e-002
3.201390e+003;4.903623e-002
3.203318e+003;4.846460e-002
3.205247e+003;4.814424e-002
3.207175e+003;4.833522e-002
3.209104e+003;4.856471e-002
3.211032e+003;4.842071e-002
3.212961e+003;4.817308e-002
3.214889e+003;4.813610e-002
3.216818e+003;4.835948e-002
3.218747e+003;4.839685e-002
3.220675e+003;4.823198e-002
3.222604e+003;4.800637e-002
3.224532e+003;4.781198e-002
3.226461e+003;4.779700e-002
3.228389e+003;4.794908e-002
3.230318e+003;4.801273e-002
3.232246e+003;4.798320e-002
3.234175e+003;4.774066e-002
3.236104e+003;4.740468e-002
3.238032e+003;4.752758e-002
3.239961e+003;4.760492e-002
3.241889e+003;4.746019e-002
3.243818e+003;4.735166e-002
3.245746e+003;4.713248e-002
3.247675e+003;4.678446e-002
3.249603e+003;4.642396e-002
3.251532e+003;4.643259e-002
3.253460e+003;4.653960e-002
3.255389e+003;4.654661e-002
3.257318e+003;4.607599e-002
3.259246e+003;4.591962e-002
3.261175e+003;4.603893e-002
3.263103e+003;4.589104e-002
3.265032e+003;4.583610e-002
3.266960e+003;4.565269e-002
3.268889e+003;4.546726e-002
3.270817e+003;4.561261e-002
3.272746e+003;4.602135e-002
3.274675e+003;4.612871e-002
3.276603e+003;4.574549e-002
3.278531e+003;4.562012e-002
3.280460e+003;4.567820e-002
3.282389e+003;4.561960e-002
3.284317e+003;4.558806e-002
3.286246e+003;4.567754e-002
3.288174e+003;4.598268e-002
3.290103e+003;4.632549e-002
3.292031e+003;4.605013e-002
3.293960e+003;4.582468e-002
3.295888e+003;4.568781e-002
3.297817e+003;4.562733e-002
3.299746e+003;4.598540e-002
3.301674e+003;4.622331e-002
3.303603e+003;4.586928e-002
3.305531e+003;4.570264e-002
3.307460e+003;4.593818e-002
3.309388e+003;4.593317e-002
3.311317e+003;4.585628e-002
3.313245e+003;4.545924e-002
3.315174e+003;4.530618e-002
3.317103e+003;4.565295e-002
3.319031e+003;4.572631e-002
3.320960e+003;4.563999e-002
3.322888e+003;4.584891e-002
3.324817e+003;4.551351e-002
3.326745e+003;4.518208e-002
3.328674e+003;4.562770e-002
3.330602e+003;4.602323e-002
3.332531e+003;4.616571e-002
3.334459e+003;4.624472e-002
3.336388e+003;4.615171e-002
3.338317e+003;4.566756e-002
3.340245e+003;4.584254e-002
3.342174e+003;4.609636e-002
3.344102e+003;4.543117e-002
3.346031e+003;4.461741e-002
3.347959e+003;4.460452e-002
3.349888e+003;4.457089e-002
3.351816e+003;4.434086e-002
3.353745e+003;4.417557e-002
3.355674e+003;4.372825e-002
3.357602e+003;4.325511e-002
3.359531e+003;4.310063e-002
3.361459e+003;4.305145e-002
3.363388e+003;4.305547e-002
3.365316e+003;4.299913e-002
3.367245e+003;4.267462e-002
3.369173e+003;4.266972e-002
3.371102e+003;4.294280e-002
3.373031e+003;4.288768e-002
3.374959e+003;4.295385e-002
3.376887e+003;4.297448e-002
3.378816e+003;4.307391e-002
3.380745e+003;4.338145e-002
3.382673e+003;4.373353e-002
3.384602e+003;4.384905e-002
3.386530e+003;4.391924e-002
3.388459e+003;4.386693e-002
3.390387e+003;4.363123e-002
3.392316e+003;4.387298e-002
3.394244e+003;4.426413e-002
3.396173e+003;4.444780e-002
3.398102e+003;4.486023e-002
3.400030e+003;4.506609e-002
3.401959e+003;4.565272e-002
3.403887e+003;4.638783e-002
3.405816e+003;4.676483e-002
3.407744e+003;4.738698e-002
3.409673e+003;4.856108e-002
3.411601e+003;5.002689e-002
3.413530e+003;5.114001e-002
3.415458e+003;5.199900e-002
3.417387e+003;5.280450e-002
3.419316e+003;5.393685e-002
3.421244e+003;5.485417e-002
3.423173e+003;5.565263e-002
3.425101e+003;5.642751e-002
3.427030e+003;5.708873e-002
3.428958e+003;5.751368e-002
3.430887e+003;5.753649e-002
3.432815e+003;5.724830e-002
3.434744e+003;5.719107e-002
3.436673e+003;5.734754e-002
3.438601e+003;5.686590e-002
3.440530e+003;5.558172e-002
3.442458e+003;5.461262e-002
3.444387e+003;5.393854e-002
3.446315e+003;5.289547e-002
3.448244e+003;5.209758e-002
3.450172e+003;5.137316e-002
3.452101e+003;5.047536e-002
3.454030e+003;4.945905e-002
3.455958e+003;4.852862e-002
3.457886e+003;4.804622e-002
3.459815e+003;4.778690e-002
3.461744e+003;4.706575e-002
3.463672e+003;4.588224e-002
3.465601e+003;4.514531e-002
3.467529e+003;4.487676e-002
3.469458e+003;4.461873e-002
3.471386e+003;4.411678e-002
3.473315e+003;4.332902e-002
3.475243e+003;4.263313e-002
3.477172e+003;4.248370e-002
3.479101e+003;4.255415e-002
3.481029e+003;4.223322e-002
3.482958e+003;4.228541e-002
3.484886e+003;4.250814e-002
3.486815e+003;4.245853e-002
3.488743e+003;4.190378e-002
3.490672e+003;4.136157e-002
3.492600e+003;4.148259e-002
3.494529e+003;4.182222e-002
3.496458e+003;4.201943e-002
3.498386e+003;4.198271e-002
3.500315e+003;4.197504e-002
3.502243e+003;4.213705e-002
3.504172e+003;4.229064e-002
3.506100e+003;4.272489e-002
3.508029e+003;4.268508e-002
3.509957e+003;4.251001e-002
3.511886e+003;4.255704e-002
3.513814e+003;4.283231e-002
3.515743e+003;4.336306e-002
3.517672e+003;4.354580e-002
3.519600e+003;4.331177e-002
3.521529e+003;4.339064e-002
3.523457e+003;4.353764e-002
3.525386e+003;4.368732e-002
3.527314e+003;4.404526e-002
3.529243e+003;4.429822e-002
3.531171e+003;4.442457e-002
3.533100e+003;4.459872e-002
3.535029e+003;4.453803e-002
3.536957e+003;4.448532e-002
3.538885e+003;4.488165e-002
3.540814e+003;4.533472e-002
3.542743e+003;4.507855e-002
3.544671e+003;4.480641e-002
3.546600e+003;4.483554e-002
3.548528e+003;4.503919e-002
3.550457e+003;4.502309e-002
3.552385e+003;4.474492e-002
3.554314e+003;4.470580e-002
3.556242e+003;4.463999e-002
3.558171e+003;4.438354e-002
3.560100e+003;4.434651e-002
3.562028e+003;4.463577e-002
3.563957e+003;4.407797e-002
3.565885e+003;4.242235e-002
3.567814e+003;4.213683e-002
3.569742e+003;4.305965e-002
3.571671e+003;4.337060e-002
3.573599e+003;4.314538e-002
3.575528e+003;4.251377e-002
3.577457e+003;4.201381e-002
3.579385e+003;4.188028e-002
3.581314e+003;4.154351e-002
3.583242e+003;4.087942e-002
3.585171e+003;4.012185e-002
3.587099e+003;3.949575e-002
3.589028e+003;3.929160e-002
3.590956e+003;3.947158e-002
3.592885e+003;3.938432e-002
3.594813e+003;3.921388e-002
3.596742e+003;3.940573e-002
3.598671e+003;3.943497e-002
3.600599e+003;3.928333e-002
3.602528e+003;3.986264e-002
3.604456e+003;4.005615e-002
3.606385e+003;3.895879e-002
3.608313e+003;3.816361e-002
3.610242e+003;3.877917e-002
3.612170e+003;3.873283e-002
3.614099e+003;3.901051e-002
3.616028e+003;3.925062e-002
3.617956e+003;3.869824e-002
3.619885e+003;3.874348e-002
3.621813e+003;3.994745e-002
3.623742e+003;4.061226e-002
3.625670e+003;3.979687e-002
3.627599e+003;3.791391e-002
3.629527e+003;3.820623e-002
3.631456e+003;4.005434e-002
3.633385e+003;4.063994e-002
3.635313e+003;4.113669e-002
3.637241e+003;4.127663e-002
3.639170e+003;4.096407e-002
3.641099e+003;4.064206e-002
3.643027e+003;4.036675e-002
3.644956e+003;3.943192e-002
3.646884e+003;3.739645e-002
3.648813e+003;3.596143e-002
3.650741e+003;3.687579e-002
3.652670e+003;3.850837e-002
3.654598e+003;3.763064e-002
3.656527e+003;3.667410e-002
3.658456e+003;3.725675e-002
3.660384e+003;3.747392e-002
3.662313e+003;3.723358e-002
3.664241e+003;3.654378e-002
3.666170e+003;3.599066e-002
3.668098e+003;3.492315e-002
3.670027e+003;3.359839e-002
3.671955e+003;3.394324e-002
3.673884e+003;3.291667e-002
3.675813e+003;3.233670e-002
3.677741e+003;3.440696e-002
3.679669e+003;3.577175e-002
3.681598e+003;3.644126e-002
3.683527e+003;3.665030e-002
3.685455e+003;3.630867e-002
3.687384e+003;3.438397e-002
3.689312e+003;3.375612e-002
3.691241e+003;3.463950e-002
3.693169e+003;3.511718e-002
3.695098e+003;3.507881e-002
3.697026e+003;3.500087e-002
3.698955e+003;3.438992e-002
3.700884e+003;3.311985e-002
3.702812e+003;3.299031e-002
3.704741e+003;3.322041e-002
3.706669e+003;3.308702e-002
3.708598e+003;3.204980e-002
3.710526e+003;3.082620e-002
3.712455e+003;3.104221e-002
3.714383e+003;3.257181e-002
3.716312e+003;3.304776e-002
3.718240e+003;3.254517e-002
3.720169e+003;3.236069e-002
3.722098e+003;3.266704e-002
3.724026e+003;3.301733e-002
3.725955e+003;3.296035e-002
3.727883e+003;3.311906e-002
3.729812e+003;3.285227e-002
3.731740e+003;3.179144e-002
3.733669e+003;3.116263e-002
3.735597e+003;3.067573e-002
3.737526e+003;3.154260e-002
3.739455e+003;3.251678e-002
3.741383e+003;3.173294e-002
3.743312e+003;2.869949e-002
3.745240e+003;2.939032e-002
3.747169e+003;3.102467e-002
3.749097e+003;2.952631e-002
3.751026e+003;2.923545e-002
3.752954e+003;3.129614e-002
3.754883e+003;3.346381e-002
3.756812e+003;3.354141e-002
3.758740e+003;3.329174e-002
3.760668e+003;3.365632e-002
3.762597e+003;3.439645e-002
3.764526e+003;3.384262e-002
3.766454e+003;3.345111e-002
3.768383e+003;3.301630e-002
3.770311e+003;3.323222e-002
3.772240e+003;3.382882e-002
3.774168e+003;3.377223e-002
3.776097e+003;3.367136e-002
3.778025e+003;3.335471e-002
3.779954e+003;3.299975e-002
3.781883e+003;3.334372e-002
3.783811e+003;3.362872e-002
3.785740e+003;3.338673e-002
3.787668e+003;3.298023e-002
3.789597e+003;3.336405e-002
3.791525e+003;3.397545e-002
3.793454e+003;3.382925e-002
3.795382e+003;3.310822e-002
3.797311e+003;3.296396e-002
3.799240e+003;3.155582e-002
3.801168e+003;3.052530e-002
3.803097e+003;3.226849e-002
3.805025e+003;3.276461e-002
3.806954e+003;3.236590e-002
3.808882e+003;3.352534e-002
3.810811e+003;3.444616e-002
3.812739e+003;3.411224e-002
3.814668e+003;3.202176e-002
3.816596e+003;3.183875e-002
3.818525e+003;3.227177e-002
3.820454e+003;3.107673e-002
3.822382e+003;3.223430e-002
3.824311e+003;3.381980e-002
3.826239e+003;3.396359e-002
3.828168e+003;3.337957e-002
3.830096e+003;3.247115e-002
3.832025e+003;3.251318e-002
3.833953e+003;3.261389e-002
3.835882e+003;3.113810e-002
3.837811e+003;3.030497e-002
3.839739e+003;3.170343e-002
3.841667e+003;3.268065e-002
3.843596e+003;3.337492e-002
3.845525e+003;3.390795e-002
3.847453e+003;3.330405e-002
3.849382e+003;3.170763e-002
3.851310e+003;2.857175e-002
3.853239e+003;2.647778e-002
3.855167e+003;2.976470e-002
3.857096e+003;3.305538e-002
3.859024e+003;3.345039e-002
3.860953e+003;3.252510e-002
3.862882e+003;3.200279e-002
3.864810e+003;3.212283e-002
3.866739e+003;3.246929e-002
3.868667e+003;3.104719e-002
3.870596e+003;3.092158e-002
3.872524e+003;3.205872e-002
3.874453e+003;3.265079e-002
3.876381e+003;3.349566e-002
3.878310e+003;3.348045e-002
3.880239e+003;3.344166e-002
3.882167e+003;3.376164e-002
3.884096e+003;3.290169e-002
3.886024e+003;3.280070e-002
3.887953e+003;3.397982e-002
3.889881e+003;3.345422e-002
3.891810e+003;3.340287e-002
3.893738e+003;3.421167e-002
3.895667e+003;3.397280e-002
3.897595e+003;3.307672e-002
3.899524e+003;3.284794e-002
3.901453e+003;3.305716e-002
3.903381e+003;3.326555e-002
3.905310e+003;3.406808e-002
3.907238e+003;3.486517e-002
3.909167e+003;3.520136e-002
3.911095e+003;3.528566e-002
3.913024e+003;3.495131e-002
3.914952e+003;3.469243e-002
3.916881e+003;3.501534e-002
3.918810e+003;3.532175e-002
3.920738e+003;3.558233e-002
3.922667e+003;3.596226e-002
3.924595e+003;3.623479e-002
3.926524e+003;3.645217e-002
3.928452e+003;3.634523e-002
3.930381e+003;3.586649e-002
3.932309e+003;3.544616e-002
3.934238e+003;3.566894e-002
3.936167e+003;3.599977e-002
3.938095e+003;3.602904e-002
3.940023e+003;3.575686e-002
3.941952e+003;3.543465e-002
3.943881e+003;3.567739e-002
3.945809e+003;3.604308e-002
3.947738e+003;3.632146e-002
3.949666e+003;3.654393e-002
3.951595e+003;3.618865e-002
3.953523e+003;3.627928e-002
3.955452e+003;3.692016e-002
3.957380e+003;3.714861e-002
3.959309e+003;3.737649e-002
3.961238e+003;3.724946e-002
3.963166e+003;3.689873e-002
3.965095e+003;3.644046e-002
3.967023e+003;3.654746e-002
3.968952e+003;3.653311e-002
3.970880e+003;3.606108e-002
3.972809e+003;3.638937e-002
3.974737e+003;3.695396e-002
3.976666e+003;3.691984e-002
3.978594e+003;3.660182e-002
3.980523e+003;3.656955e-002
3.982452e+003;3.672432e-002
3.984380e+003;3.685758e-002
3.986309e+003;3.680384e-002
3.988237e+003;3.646961e-002
3.990166e+003;3.637506e-002
3.992094e+003;3.668553e-002
3.994023e+003;3.700963e-002
3.995951e+003;3.714994e-002
3.997880e+003;3.703334e-002
3.999809e+003;3.664807e-002
4.001737e+003;0.000000e+000
