3.992094e+002;0.000000e+000
4.011380e+002;0.000000e+000
4.030665e+002;0.000000e+000
4.049951e+002;0.000000e+000
4.069236e+002;0.000000e+000
4.088522e+002;0.000000e+000
4.107807e+002;0.000000e+000
4.127093e+002;0.000000e+000
4.146378e+002;0.000000e+000
4.165664e+002;0.000000e+000
4.184949e+002;0.000000e+000
4.204235e+002;0.000000e+000
4.223520e+002;0.000000e+000
4.242806e+002;0.000000e+000
4.262091e+002;0.000000e+000
4.281377e+002;0.000000e+000
4.300662e+002;0.000000e+000
4.319948e+002;0.000000e+000
4.339233e+002;0.000000e+000
4.358519e+002;0.000000e+000
4.377804e+002;0.000000e+000
4.397090e+002;0.000000e+000
4.416375e+002;0.000000e+000
4.435660e+002;0.000000e+000
4.454946e+002;0.000000e+000
4.474232e+002;0.000000e+000
4.493517e+002;0.000000e+000
4.512802e+002;0.000000e+000
4.532088e+002;0.000000e+000
4.551373e+002;0.000000e+000
4.570659e+002;0.000000e+000
4.589944e+002;0.000000e+000
4.609230e+002;0.000000e+000
4.628515e+002;0.000000e+000
4.647801e+002;0.000000e+000
4.667086e+002;0.000000e+000
4.686372e+002;0.000000e+000
4.705657e+002;0.000000e+000
4.724943e+002;0.000000e+000
4.744228e+002;0.000000e+000
4.763513e+002;0.000000e+000
4.782799e+002;0.000000e+000
4.802085e+002;0.000000e+000
4.821370e+002;0.000000e+000
4.840656e+002;0.000000e+000
4.859941e+002;0.000000e+000
4.879226e+002;0.000000e+000
4.898512e+002;0.000000e+000
4.917798e+002;0.000000e+000
4.937083e+002;0.000000e+000
4.956368e+002;0.000000e+000
4.975654e+002;0.000000e+000
4.994939e+002;0.000000e+000
5.014225e+002;0.000000e+000
5.033510e+002;0.000000e+000
5.052796e+002;0.000000e+000
5.072081e+002;0.000000e+000
5.091367e+002;0.000000e+000
5.110652e+002;0.000000e+000
5.129938e+002;0.000000e+000
5.149223e+002;0.000000e+000
5.168509e+002;0.000000e+000
5.187794e+002;0.000000e+000
5.207079e+002;0.000000e+000
5.226365e+002;0.000000e+000
5.245651e+002;0.000000e+000
5.264936e+002;0.000000e+000
5.284222e+002;0.000000e+000
5.303507e+002;0.000000e+000
5.322792e+002;0.000000e+000
5.342078e+002;0.000000e+000
5.361364e+002;0.000000e+000
5.380649e+002;0.000000e+000
5.399935e+002;0.000000e+000
5.419220e+002;0.000000e+000
5.438505e+002;0.000000e+000
5.457791e+002;0.000000e+000
5.477076e+002;0.000000e+000
5.496362e+002;0.000000e+000
5.515648e+002;0.000000e+000
5.534933e+002;0.000000e+000
5.554218e+002;0.000000e+000
5.573504e+002;0.000000e+000
5.592789e+002;0.000000e+000
5.612075e+002;0.000000e+000
5.631360e+002;0.000000e+000
5.650646e+002;0.000000e+000
5.669931e+002;0.000000e+000
5.689217e+002;0.000000e+000
5.708502e+002;0.000000e+000
5.727787e+002;0.000000e+000
5.747073e+002;0.000000e+000
5.766359e+002;0.000000e+000
5.785644e+002;0.000000e+000
5.804930e+002;0.000000e+000
5.824215e+002;0.000000e+000
5.843500e+002;0.000000e+000
5.862786e+002;0.000000e+000
5.882072e+002;0.000000e+000
5.901357e+002;0.000000e+000
5.920643e+002;0.000000e+000
5.939928e+002;0.000000e+000
5.959213e+002;0.000000e+000
5.978499e+002;0.000000e+000
5.997784e+002;-9.737002e-005
6.017070e+002;1.407688e-002
6.036355e+002;1.761547e-002
6.055641e+002;1.273993e-002
6.074926e+002;1.084119e-002
6.094211e+002;9.998261e-003
6.113497e+002;1.412264e-002
6.132783e+002;1.868615e-002
6.152068e+002;1.936490e-002
6.171354e+002;1.839676e-002
6.190639e+002;1.808631e-002
6.209924e+002;2.117954e-002
6.229210e+002;2.022377e-002
6.248495e+002;1.842804e-002
6.267781e+002;2.091460e-002
6.287067e+002;2.578991e-002
6.306352e+002;3.821864e-002
6.325637e+002;3.965345e-002
6.344923e+002;3.070514e-002
6.364208e+002;2.446635e-002
6.383494e+002;2.339379e-002
6.402780e+002;2.339504e-002
6.422065e+002;2.375533e-002
6.441350e+002;2.416989e-002
6.460636e+002;2.267202e-002
6.479921e+002;2.455101e-002
6.499207e+002;2.758864e-002
6.518492e+002;2.854911e-002
6.537778e+002;2.833260e-002
6.557063e+002;2.694572e-002
6.576349e+002;2.800356e-002
6.595634e+002;3.144840e-002
6.614919e+002;3.783412e-002
6.634205e+002;4.124977e-002
6.653491e+002;4.001713e-002
6.672776e+002;3.765301e-002
6.692062e+002;3.795896e-002
6.711347e+002;4.076411e-002
6.730632e+002;4.469644e-002
6.749918e+002;4.813784e-002
6.769203e+002;5.393539e-002
6.788489e+002;6.152759e-002
6.807775e+002;6.459101e-002
6.827060e+002;6.460743e-002
6.846345e+002;6.536665e-002
6.865631e+002;6.467307e-002
6.884916e+002;6.410950e-002
6.904202e+002;6.599861e-002
6.923488e+002;6.904435e-002
6.942773e+002;7.567500e-002
6.962058e+002;8.735614e-002
6.981344e+002;1.033532e-001
7.000629e+002;1.214983e-001
7.019915e+002;1.402029e-001
7.039200e+002;1.550232e-001
7.058486e+002;1.690965e-001
7.077771e+002;1.848565e-001
7.097057e+002;2.019311e-001
7.116342e+002;2.234585e-001
7.135627e+002;2.513417e-001
7.154913e+002;2.861176e-001
7.174199e+002;3.288631e-001
7.193484e+002;3.757935e-001
7.212770e+002;4.165249e-001
7.232055e+002;4.415854e-001
7.251340e+002;4.355080e-001
7.270626e+002;3.941664e-001
7.289911e+002;3.371369e-001
7.309197e+002;2.809555e-001
7.328483e+002;2.308928e-001
7.347768e+002;1.846490e-001
7.367053e+002;1.420863e-001
7.386339e+002;1.061223e-001
7.405624e+002;7.954420e-002
7.424910e+002;6.117880e-002
7.444196e+002;5.013015e-002
7.463481e+002;4.364292e-002
7.482766e+002;3.837168e-002
7.502052e+002;3.388646e-002
7.521337e+002;3.098203e-002
7.540623e+002;2.968434e-002
7.559908e+002;2.896594e-002
7.579194e+002;2.811942e-002
7.598479e+002;2.867000e-002
7.617765e+002;2.960243e-002
7.637050e+002;3.038236e-002
7.656335e+002;3.152129e-002
7.675621e+002;3.274496e-002
7.694907e+002;3.458342e-002
7.714192e+002;3.714424e-002
7.733478e+002;3.963788e-002
7.752763e+002;4.202096e-002
7.772048e+002;4.525444e-002
7.791334e+002;4.922798e-002
7.810620e+002;5.220036e-002
7.829905e+002;5.564243e-002
7.849191e+002;6.106758e-002
7.868476e+002;6.778776e-002
7.887761e+002;7.569275e-002
7.907047e+002;8.315071e-002
7.926332e+002;8.643323e-002
7.945618e+002;8.283227e-002
7.964903e+002;7.474636e-002
7.984189e+002;6.788316e-002
8.003474e+002;6.494275e-002
8.022759e+002;6.445546e-002
8.042045e+002;6.445543e-002
8.061331e+002;6.396331e-002
8.080616e+002;6.320474e-002
8.099902e+002;6.395087e-002
8.119187e+002;6.459266e-002
8.138472e+002;6.466991e-002
8.157758e+002;6.446373e-002
8.177043e+002;6.464618e-002
8.196329e+002;6.476871e-002
8.215615e+002;6.500293e-002
8.234900e+002;6.530222e-002
8.254185e+002;6.585646e-002
8.273471e+002;6.679118e-002
8.292756e+002;6.918468e-002
8.312042e+002;7.288245e-002
8.331328e+002;7.644202e-002
8.350613e+002;7.976320e-002
8.369898e+002;8.315159e-002
8.389184e+002;8.767557e-002
8.408469e+002;9.376018e-002
8.427755e+002;1.012128e-001
8.447040e+002;1.077903e-001
8.466326e+002;1.118765e-001
8.485611e+002;1.120834e-001
8.504897e+002;1.077632e-001
8.524182e+002;1.028832e-001
8.543467e+002;9.995737e-002
8.562753e+002;9.855683e-002
8.582039e+002;9.792551e-002
8.601324e+002;9.774800e-002
8.620610e+002;9.914372e-002
8.639895e+002;1.039251e-001
8.659180e+002;1.138086e-001
8.678466e+002;1.310118e-001
8.697751e+002;1.573027e-001
8.717037e+002;1.783496e-001
8.736323e+002;1.738052e-001
8.755608e+002;1.532581e-001
8.774893e+002;1.339169e-001
8.794179e+002;1.170730e-001
8.813464e+002;1.016340e-001
8.832750e+002;8.890582e-002
8.852036e+002;7.820866e-002
8.871321e+002;7.023849e-002
8.890606e+002;6.564771e-002
8.909892e+002;6.377738e-002
8.929177e+002;6.289553e-002
8.948463e+002;6.167793e-002
8.967748e+002;6.110198e-002
8.987034e+002;6.112841e-002
9.006319e+002;6.099837e-002
9.025605e+002;5.988589e-002
9.044890e+002;5.819568e-002
9.064175e+002;5.593581e-002
9.083461e+002;5.346483e-002
9.102747e+002;5.158433e-002
9.122032e+002;5.019524e-002
9.141318e+002;4.908757e-002
9.160603e+002;4.791926e-002
9.179888e+002;4.730067e-002
9.199174e+002;4.698238e-002
9.218459e+002;4.651969e-002
9.237745e+002;4.681483e-002
9.257031e+002;4.775287e-002
9.276316e+002;4.853829e-002
9.295601e+002;4.898656e-002
9.314887e+002;4.961009e-002
9.334172e+002;5.050844e-002
9.353458e+002;5.179901e-002
9.372744e+002;5.338168e-002
9.392029e+002;5.511204e-002
9.411314e+002;5.694889e-002
9.430600e+002;5.894767e-002
9.449885e+002;6.101125e-002
9.469171e+002;6.311354e-002
9.488456e+002;6.595056e-002
9.507742e+002;6.906758e-002
9.527027e+002;7.196223e-002
9.546313e+002;7.498548e-002
9.565598e+002;7.873630e-002
9.584883e+002;8.267159e-002
9.604169e+002;8.642377e-002
9.623455e+002;9.039890e-002
9.642740e+002;9.429444e-002
9.662026e+002;9.754586e-002
9.681311e+002;9.986521e-002
9.700596e+002;1.009872e-001
9.719882e+002;9.957249e-002
9.739167e+002;9.641072e-002
9.758453e+002;9.260343e-002
9.777739e+002;8.899508e-002
9.797024e+002;8.595128e-002
9.816309e+002;8.336460e-002
9.835595e+002;8.176089e-002
9.854880e+002;8.076689e-002
9.874166e+002;7.978164e-002
9.893452e+002;7.883044e-002
9.912737e+002;7.842620e-002
9.932022e+002;7.857205e-002
9.951307e+002;7.965469e-002
9.970593e+002;8.079039e-002
9.989879e+002;8.268875e-002
1.000916e+003;8.604446e-002
1.002845e+003;9.027410e-002
1.004773e+003;9.605785e-002
1.006702e+003;1.043287e-001
1.008631e+003;1.151430e-001
1.010559e+003;1.311691e-001
1.012488e+003;1.549284e-001
1.014416e+003;1.856411e-001
1.016345e+003;2.141530e-001
1.018273e+003;2.231730e-001
1.020202e+003;2.087521e-001
1.022130e+003;1.829902e-001
1.024059e+003;1.554313e-001
1.025988e+003;1.298966e-001
1.027916e+003;1.115571e-001
1.029845e+003;1.021956e-001
1.031773e+003;9.911862e-002
1.033702e+003;9.954306e-002
1.035630e+003;1.016983e-001
1.037559e+003;1.046863e-001
1.039487e+003;1.076215e-001
1.041416e+003;1.100703e-001
1.043344e+003;1.119799e-001
1.045273e+003;1.135631e-001
1.047202e+003;1.150968e-001
1.049130e+003;1.160832e-001
1.051059e+003;1.166473e-001
1.052987e+003;1.172637e-001
1.054916e+003;1.183998e-001
1.056844e+003;1.207441e-001
1.058773e+003;1.242675e-001
1.060701e+003;1.286999e-001
1.062630e+003;1.340826e-001
1.064558e+003;1.407040e-001
1.066487e+003;1.476726e-001
1.068416e+003;1.557178e-001
1.070344e+003;1.660068e-001
1.072273e+003;1.791259e-001
1.074201e+003;1.953024e-001
1.076130e+003;2.140118e-001
1.078058e+003;2.367209e-001
1.079987e+003;2.622030e-001
1.081915e+003;2.860829e-001
1.083844e+003;3.067215e-001
1.085773e+003;3.244739e-001
1.087701e+003;3.404170e-001
1.089630e+003;3.544452e-001
1.091558e+003;3.669942e-001
1.093487e+003;3.779422e-001
1.095415e+003;3.866499e-001
1.097344e+003;3.911423e-001
1.099272e+003;3.901820e-001
1.101201e+003;3.813077e-001
1.103129e+003;3.641279e-001
1.105058e+003;3.419387e-001
1.106987e+003;3.188626e-001
1.108915e+003;2.979703e-001
1.110844e+003;2.834081e-001
1.112772e+003;2.759668e-001
1.114701e+003;2.729158e-001
1.116629e+003;2.709818e-001
1.118558e+003;2.664642e-001
1.120486e+003;2.576972e-001
1.122415e+003;2.456929e-001
1.124344e+003;2.313905e-001
1.126272e+003;2.151799e-001
1.128201e+003;1.977173e-001
1.130129e+003;1.794464e-001
1.132058e+003;1.614127e-001
1.133986e+003;1.446761e-001
1.135915e+003;1.299424e-001
1.137843e+003;1.173568e-001
1.139772e+003;1.067926e-001
1.141700e+003;9.751745e-002
1.143629e+003;8.941784e-002
1.145557e+003;8.343004e-002
1.147486e+003;7.817470e-002
1.149415e+003;7.359599e-002
1.151343e+003;6.969687e-002
1.153272e+003;6.601713e-002
1.155200e+003;6.291882e-002
1.157129e+003;6.069370e-002
1.159057e+003;5.947262e-002
1.160986e+003;5.859772e-002
1.162914e+003;5.796498e-002
1.164843e+003;5.881779e-002
1.166771e+003;6.190361e-002
1.168700e+003;6.667399e-002
1.170629e+003;7.218378e-002
1.172557e+003;7.623088e-002
1.174486e+003;7.770607e-002
1.176414e+003;7.764679e-002
1.178343e+003;7.657211e-002
1.180271e+003;7.425688e-002
1.182200e+003;7.172719e-002
1.184128e+003;7.006850e-002
1.186057e+003;6.941671e-002
1.187986e+003;7.011414e-002
1.189914e+003;7.181365e-002
1.191843e+003;7.423884e-002
1.193771e+003;7.758427e-002
1.195700e+003;8.156766e-002
1.197628e+003;8.646306e-002
1.199557e+003;9.199876e-002
1.201485e+003;9.707344e-002
1.203414e+003;1.022069e-001
1.205343e+003;1.082018e-001
1.207271e+003;1.146117e-001
1.209200e+003;1.211204e-001
1.211128e+003;1.283151e-001
1.213057e+003;1.368452e-001
1.214985e+003;1.464458e-001
1.216914e+003;1.564523e-001
1.218842e+003;1.666552e-001
1.220771e+003;1.770617e-001
1.222699e+003;1.878429e-001
1.224628e+003;1.992814e-001
1.226557e+003;2.118287e-001
1.228485e+003;2.269237e-001
1.230414e+003;2.469562e-001
1.232342e+003;2.715571e-001
1.234271e+003;3.003092e-001
1.236199e+003;3.322655e-001
1.238128e+003;3.644040e-001
1.240056e+003;3.932051e-001
1.241985e+003;4.153642e-001
1.243913e+003;4.284721e-001
1.245842e+003;4.319807e-001
1.247771e+003;4.279348e-001
1.249699e+003;4.187600e-001
1.251628e+003;4.072265e-001
1.253556e+003;3.967714e-001
1.255485e+003;3.882503e-001
1.257413e+003;3.800720e-001
1.259342e+003;3.709172e-001
1.261270e+003;3.588337e-001
1.263199e+003;3.422454e-001
1.265127e+003;3.218939e-001
1.267056e+003;2.997774e-001
1.268985e+003;2.772538e-001
1.270913e+003;2.557653e-001
1.272842e+003;2.369624e-001
1.274770e+003;2.211469e-001
1.276699e+003;2.080607e-001
1.278627e+003;1.971190e-001
1.280556e+003;1.875350e-001
1.282484e+003;1.786097e-001
1.284413e+003;1.698629e-001
1.286342e+003;1.606979e-001
1.288270e+003;1.518421e-001
1.290199e+003;1.430411e-001
1.292127e+003;1.336522e-001
1.294056e+003;1.242467e-001
1.295984e+003;1.150902e-001
1.297913e+003;1.060999e-001
1.299841e+003;9.769235e-002
1.301770e+003;9.047104e-002
1.303698e+003;8.419231e-002
1.305627e+003;7.883374e-002
1.307556e+003;7.442891e-002
1.309484e+003;7.017262e-002
1.311413e+003;6.597628e-002
1.313341e+003;6.233900e-002
1.315270e+003;5.950918e-002
1.317198e+003;5.714968e-002
1.319127e+003;5.510500e-002
1.321055e+003;5.374860e-002
1.322984e+003;5.357250e-002
1.324912e+003;5.456201e-002
1.326841e+003;5.799399e-002
1.328770e+003;6.522135e-002
1.330698e+003;7.751083e-002
1.332627e+003;9.457880e-002
1.334555e+003;1.128893e-001
1.336484e+003;1.271321e-001
1.338412e+003;1.319639e-001
1.340341e+003;1.255980e-001
1.342269e+003;1.109828e-001
1.344198e+003;9.311347e-002
1.346126e+003;7.675541e-002
1.348055e+003;6.408369e-002
1.349984e+003;5.491602e-002
1.351912e+003;4.851814e-002
1.353841e+003;4.456171e-002
1.355769e+003;4.225393e-002
1.357698e+003;4.113640e-002
1.359626e+003;4.097656e-002
1.361555e+003;4.136766e-002
1.363483e+003;4.260039e-002
1.365412e+003;4.487305e-002
1.367341e+003;4.717499e-002
1.369269e+003;4.873835e-002
1.371198e+003;4.941892e-002
1.373126e+003;4.963631e-002
1.375055e+003;4.979904e-002
1.376983e+003;4.965277e-002
1.378912e+003;4.946677e-002
1.380840e+003;4.960355e-002
1.382769e+003;5.030054e-002
1.384698e+003;5.120294e-002
1.386626e+003;5.186588e-002
1.388555e+003;5.237553e-002
1.390483e+003;5.345347e-002
1.392412e+003;5.529343e-002
1.394340e+003;5.770591e-002
1.396269e+003;6.120840e-002
1.398197e+003;6.648613e-002
1.400126e+003;7.408272e-002
1.402054e+003;8.423760e-002
1.403983e+003;9.690832e-002
1.405911e+003;1.102922e-001
1.407840e+003;1.193727e-001
1.409769e+003;1.188212e-001
1.411697e+003;1.069458e-001
1.413626e+003;8.842892e-002
1.415554e+003;6.971581e-002
1.417483e+003;5.475054e-002
1.419411e+003;4.432445e-002
1.421340e+003;3.823709e-002
1.423268e+003;3.502813e-002
1.425197e+003;3.322249e-002
1.427125e+003;3.255214e-002
1.429054e+003;3.339092e-002
1.430983e+003;3.538540e-002
1.432911e+003;3.728047e-002
1.434840e+003;3.909538e-002
1.436768e+003;4.101443e-002
1.438697e+003;4.277959e-002
1.440625e+003;4.432156e-002
1.442554e+003;4.554125e-002
1.444482e+003;4.662245e-002
1.446411e+003;4.789151e-002
1.448340e+003;4.954279e-002
1.450268e+003;5.116771e-002
1.452197e+003;5.212701e-002
1.454125e+003;5.266121e-002
1.456054e+003;5.306216e-002
1.457982e+003;5.332327e-002
1.459911e+003;5.321018e-002
1.461839e+003;5.282553e-002
1.463768e+003;5.268104e-002
1.465697e+003;5.339741e-002
1.467625e+003;5.558074e-002
1.469554e+003;5.868608e-002
1.471482e+003;6.069453e-002
1.473411e+003;5.940781e-002
1.475339e+003;5.638118e-002
1.477268e+003;5.311742e-002
1.479196e+003;4.976816e-002
1.481125e+003;4.620510e-002
1.483053e+003;4.218940e-002
1.484982e+003;3.821903e-002
1.486911e+003;3.463867e-002
1.488839e+003;3.152307e-002
1.490768e+003;2.905626e-002
1.492696e+003;2.758236e-002
1.494625e+003;2.760940e-002
1.496553e+003;2.957416e-002
1.498482e+003;3.389251e-002
1.500410e+003;4.070410e-002
1.502339e+003;4.946607e-002
1.504267e+003;5.587532e-002
1.506196e+003;5.472367e-002
1.508125e+003;4.662108e-002
1.510053e+003;3.726614e-002
1.511982e+003;3.026646e-002
1.513910e+003;2.625985e-002
1.515839e+003;2.405539e-002
1.517767e+003;2.327921e-002
1.519696e+003;2.358675e-002
1.521624e+003;2.413069e-002
1.523553e+003;2.459144e-002
1.525481e+003;2.463355e-002
1.527410e+003;2.417577e-002
1.529339e+003;2.337071e-002
1.531267e+003;2.232027e-002
1.533196e+003;2.124864e-002
1.535124e+003;2.019746e-002
1.537053e+003;1.938971e-002
1.538981e+003;1.867463e-002
1.540910e+003;1.816401e-002
1.542838e+003;1.808072e-002
1.544767e+003;1.830205e-002
1.546695e+003;1.848913e-002
1.548624e+003;1.862687e-002
1.550553e+003;1.897017e-002
1.552481e+003;1.920082e-002
1.554410e+003;1.939640e-002
1.556338e+003;1.952465e-002
1.558267e+003;1.968732e-002
1.560195e+003;2.014789e-002
1.562124e+003;2.088730e-002
1.564052e+003;2.176316e-002
1.565981e+003;2.275857e-002
1.567910e+003;2.396487e-002
1.569838e+003;2.595312e-002
1.571767e+003;2.869867e-002
1.573695e+003;3.175586e-002
1.575624e+003;3.476052e-002
1.577552e+003;3.714590e-002
1.579481e+003;3.749964e-002
1.581409e+003;3.578942e-002
1.583338e+003;3.283697e-002
1.585266e+003;2.947166e-002
1.587195e+003;2.673738e-002
1.589124e+003;2.502396e-002
1.591052e+003;2.381483e-002
1.592981e+003;2.299334e-002
1.594909e+003;2.263233e-002
1.596838e+003;2.294591e-002
1.598766e+003;2.400171e-002
1.600695e+003;2.528936e-002
1.602623e+003;2.657520e-002
1.604552e+003;2.799208e-002
1.606480e+003;2.947482e-002
1.608409e+003;3.113490e-002
1.610338e+003;3.315571e-002
1.612266e+003;3.512637e-002
1.614195e+003;3.620371e-002
1.616123e+003;3.592163e-002
1.618052e+003;3.451841e-002
1.619980e+003;3.293104e-002
1.621909e+003;3.173223e-002
1.623837e+003;3.118730e-002
1.625766e+003;3.146272e-002
1.627694e+003;3.205979e-002
1.629623e+003;3.269276e-002
1.631552e+003;3.331253e-002
1.633480e+003;3.390473e-002
1.635409e+003;3.432687e-002
1.637337e+003;3.501233e-002
1.639266e+003;3.592803e-002
1.641194e+003;3.680943e-002
1.643123e+003;3.791941e-002
1.645051e+003;3.892063e-002
1.646980e+003;3.985211e-002
1.648909e+003;4.128085e-002
1.650837e+003;4.288117e-002
1.652766e+003;4.408909e-002
1.654694e+003;4.548668e-002
1.656623e+003;4.768945e-002
1.658551e+003;5.032830e-002
1.660480e+003;5.296909e-002
1.662408e+003;5.599125e-002
1.664337e+003;5.965474e-002
1.666266e+003;6.395797e-002
1.668194e+003;6.812222e-002
1.670123e+003;7.178672e-002
1.672051e+003;7.533743e-002
1.673980e+003;7.927445e-002
1.675908e+003;8.341642e-002
1.677837e+003;8.767719e-002
1.679765e+003;9.214314e-002
1.681694e+003;9.659051e-002
1.683622e+003;1.002736e-001
1.685551e+003;1.041449e-001
1.687479e+003;1.092128e-001
1.689408e+003;1.152194e-001
1.691337e+003;1.226617e-001
1.693265e+003;1.321030e-001
1.695194e+003;1.440194e-001
1.697122e+003;1.590666e-001
1.699051e+003;1.778795e-001
1.700979e+003;2.018300e-001
1.702908e+003;2.312187e-001
1.704836e+003;2.677225e-001
1.706765e+003;3.114447e-001
1.708693e+003;3.598022e-001
1.710622e+003;4.069138e-001
1.712551e+003;4.431263e-001
1.714479e+003;4.583453e-001
1.716408e+003;4.509511e-001
1.718336e+003;4.266295e-001
1.720265e+003;3.948779e-001
1.722193e+003;3.609383e-001
1.724122e+003;3.277455e-001
1.726050e+003;2.954910e-001
1.727979e+003;2.643269e-001
1.729908e+003;2.345784e-001
1.731836e+003;2.063845e-001
1.733765e+003;1.798831e-001
1.735693e+003;1.558926e-001
1.737622e+003;1.336718e-001
1.739550e+003;1.125214e-001
1.741479e+003;9.339825e-002
1.743407e+003;7.676830e-002
1.745336e+003;6.277124e-002
1.747265e+003;5.140579e-002
1.749193e+003;4.295180e-002
1.751122e+003;3.700383e-002
1.753050e+003;3.299810e-002
1.754979e+003;3.038122e-002
1.756907e+003;2.848549e-002
1.758836e+003;2.684388e-002
1.760764e+003;2.535637e-002
1.762693e+003;2.438598e-002
1.764621e+003;2.366053e-002
1.766550e+003;2.285457e-002
1.768479e+003;2.220082e-002
1.770407e+003;2.173738e-002
1.772336e+003;2.130745e-002
1.774264e+003;2.080332e-002
1.776193e+003;2.022752e-002
1.778121e+003;1.992735e-002
1.780050e+003;1.962766e-002
1.781978e+003;1.934893e-002
1.783907e+003;1.914500e-002
1.785835e+003;1.894476e-002
1.787764e+003;1.873977e-002
1.789693e+003;1.841121e-002
1.791621e+003;1.811795e-002
1.793550e+003;1.808044e-002
1.795478e+003;1.823677e-002
1.797407e+003;1.811056e-002
1.799335e+003;1.783205e-002
1.801264e+003;1.798290e-002
1.803192e+003;1.825084e-002
1.805121e+003;1.830416e-002
1.807049e+003;1.828419e-002
1.808978e+003;1.810365e-002
1.810907e+003;1.807429e-002
1.812835e+003;1.812017e-002
1.814764e+003;1.799589e-002
1.816692e+003;1.797468e-002
1.818621e+003;1.793760e-002
1.820549e+003;1.774464e-002
1.822478e+003;1.762006e-002
1.824406e+003;1.766254e-002
1.826335e+003;1.744015e-002
1.828264e+003;1.700577e-002
1.830192e+003;1.653441e-002
1.832121e+003;1.596727e-002
1.834049e+003;1.552138e-002
1.835978e+003;1.526041e-002
1.837906e+003;1.468399e-002
1.839835e+003;1.366845e-002
1.841763e+003;1.287268e-002
1.843692e+003;1.221173e-002
1.845620e+003;1.167164e-002
1.847549e+003;1.114881e-002
1.849478e+003;1.025833e-002
1.851406e+003;9.335504e-003
1.853335e+003;8.811151e-003
1.855263e+003;8.332080e-003
1.857192e+003;7.772639e-003
1.859120e+003;7.150352e-003
1.861049e+003;6.574567e-003
1.862977e+003;6.056929e-003
1.864906e+003;5.626768e-003
1.866834e+003;5.305123e-003
1.868763e+003;4.953953e-003
1.870692e+003;4.499102e-003
1.872620e+003;4.117910e-003
1.874549e+003;4.080749e-003
1.876477e+003;3.740427e-003
1.878406e+003;3.164904e-003
1.880334e+003;2.874593e-003
1.882263e+003;3.058880e-003
1.884191e+003;3.379567e-003
1.886120e+003;3.182227e-003
1.888048e+003;3.038493e-003
1.889977e+003;3.038793e-003
1.891906e+003;2.908048e-003
1.893834e+003;2.962056e-003
1.895763e+003;3.287112e-003
1.897691e+003;3.552677e-003
1.899620e+003;3.616721e-003
1.901548e+003;3.676030e-003
1.903477e+003;3.645188e-003
1.905405e+003;3.601219e-003
1.907334e+003;3.788655e-003
1.909262e+003;4.184781e-003
1.911191e+003;4.445205e-003
1.913120e+003;4.679459e-003
1.915048e+003;4.919670e-003
1.916977e+003;5.226274e-003
1.918905e+003;5.565884e-003
1.920834e+003;5.678195e-003
1.922762e+003;6.006735e-003
1.924691e+003;6.760634e-003
1.926619e+003;7.456750e-003
1.928548e+003;8.004139e-003
1.930477e+003;8.531505e-003
1.932405e+003;9.107827e-003
1.934334e+003;1.001548e-002
1.936262e+003;1.073725e-002
1.938191e+003;1.130070e-002
1.940119e+003;1.201797e-002
1.942048e+003;1.266794e-002
1.943976e+003;1.328207e-002
1.945905e+003;1.404539e-002
1.947833e+003;1.473924e-002
1.949762e+003;1.545459e-002
1.951691e+003;1.623396e-002
1.953619e+003;1.684953e-002
1.955548e+003;1.698017e-002
1.957476e+003;1.696515e-002
1.959405e+003;1.699936e-002
1.961333e+003;1.680910e-002
1.963262e+003;1.638158e-002
1.965190e+003;1.554099e-002
1.967119e+003;1.433471e-002
1.969047e+003;1.340005e-002
1.970976e+003;1.282449e-002
1.972905e+003;1.191660e-002
1.974833e+003;1.094737e-002
1.976762e+003;1.027831e-002
1.978690e+003;9.748549e-003
1.980619e+003;9.195439e-003
1.982547e+003;8.821363e-003
1.984476e+003;8.453792e-003
1.986404e+003;8.165090e-003
1.988333e+003;7.933201e-003
1.990261e+003;7.425402e-003
1.992190e+003;6.937352e-003
1.994119e+003;6.545067e-003
1.996047e+003;6.154581e-003
1.997976e+003;5.716533e-003
1.999904e+003;5.180132e-003
2.001833e+003;4.698249e-003
2.003761e+003;4.581971e-003
2.005690e+003;4.600389e-003
2.007618e+003;4.513800e-003
2.009547e+003;3.964838e-003
2.011476e+003;3.490479e-003
2.013404e+003;3.193341e-003
2.015333e+003;2.882665e-003
2.017261e+003;2.680882e-003
2.019190e+003;2.797819e-003
2.021118e+003;2.756202e-003
2.023047e+003;2.323366e-003
2.024975e+003;1.799888e-003
2.026904e+003;1.602698e-003
2.028833e+003;1.693432e-003
2.030761e+003;1.664693e-003
2.032690e+003;1.558769e-003
2.034618e+003;1.411415e-003
2.036547e+003;1.355107e-003
2.038475e+003;1.557073e-003
2.040404e+003;1.639049e-003
2.042332e+003;1.845971e-003
2.044261e+003;2.179683e-003
2.046189e+003;2.501321e-003
2.048118e+003;2.534148e-003
2.050047e+003;2.486658e-003
2.051975e+003;2.813926e-003
2.053904e+003;3.454708e-003
2.055832e+003;3.914516e-003
2.057761e+003;4.065029e-003
2.059689e+003;4.495788e-003
2.061618e+003;5.075325e-003
2.063546e+003;5.303982e-003
2.065475e+003;5.433806e-003
2.067404e+003;5.676650e-003
2.069332e+003;6.254102e-003
2.071260e+003;6.775475e-003
2.073189e+003;7.096461e-003
2.075118e+003;7.509438e-003
2.077046e+003;7.758506e-003
2.078975e+003;8.098616e-003
2.080903e+003;8.230629e-003
2.082832e+003;8.555532e-003
2.084760e+003;9.068681e-003
2.086689e+003;9.344068e-003
2.088617e+003;9.549615e-003
2.090546e+003;9.542638e-003
2.092475e+003;9.510158e-003
2.094403e+003;9.726626e-003
2.096332e+003;9.987140e-003
2.098260e+003;1.010108e-002
2.100189e+003;1.025480e-002
2.102117e+003;1.036341e-002
2.104046e+003;1.021514e-002
2.105974e+003;1.001660e-002
2.107903e+003;9.976731e-003
2.109832e+003;1.007459e-002
2.111760e+003;1.003241e-002
2.113688e+003;9.905979e-003
2.115617e+003;9.614448e-003
2.117546e+003;9.322673e-003
2.119474e+003;9.209686e-003
2.121403e+003;8.866067e-003
2.123331e+003;8.575469e-003
2.125260e+003;8.484841e-003
2.127188e+003;8.324447e-003
2.129117e+003;8.121437e-003
2.131045e+003;8.003565e-003
2.132974e+003;7.653850e-003
2.134903e+003;7.266544e-003
2.136831e+003;7.131692e-003
2.138760e+003;6.937622e-003
2.140688e+003;6.789072e-003
2.142617e+003;6.823369e-003
2.144545e+003;6.483078e-003
2.146474e+003;6.220690e-003
2.148402e+003;6.062641e-003
2.150331e+003;5.630997e-003
2.152260e+003;5.274165e-003
2.154188e+003;4.935990e-003
2.156117e+003;4.667903e-003
2.158045e+003;4.456486e-003
2.159974e+003;4.075063e-003
2.161902e+003;4.012489e-003
2.163831e+003;3.930966e-003
2.165759e+003;3.778361e-003
2.167688e+003;3.550405e-003
2.169616e+003;3.227990e-003
2.171545e+003;3.008830e-003
2.173474e+003;3.002358e-003
2.175402e+003;2.829067e-003
2.177331e+003;2.470063e-003
2.179259e+003;2.130601e-003
2.181188e+003;1.948005e-003
2.183116e+003;2.075065e-003
2.185045e+003;2.176653e-003
2.186973e+003;2.112787e-003
2.188902e+003;2.083355e-003
2.190831e+003;1.965313e-003
2.192759e+003;1.948571e-003
2.194688e+003;2.206125e-003
2.196616e+003;2.382899e-003
2.198545e+003;2.412918e-003
2.200473e+003;2.534181e-003
2.202402e+003;2.733295e-003
2.204330e+003;2.881898e-003
2.206259e+003;3.180224e-003
2.208188e+003;3.519005e-003
2.210116e+003;3.730133e-003
2.212044e+003;3.841135e-003
2.213973e+003;3.975571e-003
2.215902e+003;4.158587e-003
2.217830e+003;4.192342e-003
2.219759e+003;4.246643e-003
2.221687e+003;4.318956e-003
2.223616e+003;4.411062e-003
2.225544e+003;4.386460e-003
2.227473e+003;4.360354e-003
2.229401e+003;4.548052e-003
2.231330e+003;4.928684e-003
2.233259e+003;4.913872e-003
2.235187e+003;4.949429e-003
2.237116e+003;5.003892e-003
2.239044e+003;5.153878e-003
2.240973e+003;5.272018e-003
2.242901e+003;5.200319e-003
2.244830e+003;5.204276e-003
2.246758e+003;5.541049e-003
2.248687e+003;5.958394e-003
2.250615e+003;6.309200e-003
2.252544e+003;6.343291e-003
2.254473e+003;6.272120e-003
2.256401e+003;6.346854e-003
2.258330e+003;6.573189e-003
2.260258e+003;6.868777e-003
2.262187e+003;6.786985e-003
2.264115e+003;6.445613e-003
2.266044e+003;6.348636e-003
2.267972e+003;6.362725e-003
2.269901e+003;6.288290e-003
2.271830e+003;6.475074e-003
2.273758e+003;6.603734e-003
2.275687e+003;6.672469e-003
2.277615e+003;6.907558e-003
2.279544e+003;7.151700e-003
2.281472e+003;7.109024e-003
2.283401e+003;7.163657e-003
2.285329e+003;7.362344e-003
2.287258e+003;7.460828e-003
2.289187e+003;7.136879e-003
2.291115e+003;6.741081e-003
2.293043e+003;6.360707e-003
2.294972e+003;5.898101e-003
2.296901e+003;5.685949e-003
2.298829e+003;5.311361e-003
2.300758e+003;4.646569e-003
2.302686e+003;4.065163e-003
2.304615e+003;3.825156e-003
2.306543e+003;3.586452e-003
2.308472e+003;3.285843e-003
2.310400e+003;3.437007e-003
2.312329e+003;3.649566e-003
2.314258e+003;3.329614e-003
2.316186e+003;3.073028e-003
2.318115e+003;3.071760e-003
2.320043e+003;3.043831e-003
2.321972e+003;3.006261e-003
2.323900e+003;3.119381e-003
2.325829e+003;3.397065e-003
2.327757e+003;3.719406e-003
2.329686e+003;3.948721e-003
2.331615e+003;3.927690e-003
2.333543e+003;3.852467e-003
2.335472e+003;3.766395e-003
2.337400e+003;3.820510e-003
2.339329e+003;3.812789e-003
2.341257e+003;3.891715e-003
2.343186e+003;4.325280e-003
2.345114e+003;4.541255e-003
2.347043e+003;4.760854e-003
2.348971e+003;4.991323e-003
2.350900e+003;5.188381e-003
2.352829e+003;5.403175e-003
2.354757e+003;5.586122e-003
2.356686e+003;5.559238e-003
2.358614e+003;5.521417e-003
2.360543e+003;5.664532e-003
2.362471e+003;5.958696e-003
2.364400e+003;6.247412e-003
2.366328e+003;6.847974e-003
2.368257e+003;7.461873e-003
2.370186e+003;7.527171e-003
2.372114e+003;7.820475e-003
2.374042e+003;8.321474e-003
2.375971e+003;8.465819e-003
2.377900e+003;8.379031e-003
2.379828e+003;8.159689e-003
2.381757e+003;8.232960e-003
2.383685e+003;8.444332e-003
2.385614e+003;8.455447e-003
2.387542e+003;8.654658e-003
2.389471e+003;8.880101e-003
2.391399e+003;8.654591e-003
2.393328e+003;8.413285e-003
2.395257e+003;8.338768e-003
2.397185e+003;8.013926e-003
2.399114e+003;8.049367e-003
2.401042e+003;8.294557e-003
2.402971e+003;8.149154e-003
2.404899e+003;7.791530e-003
2.406828e+003;7.543219e-003
2.408756e+003;7.407235e-003
2.410685e+003;7.281470e-003
2.412614e+003;7.233661e-003
2.414542e+003;6.985736e-003
2.416471e+003;6.687611e-003
2.418399e+003;6.520378e-003
2.420328e+003;6.456106e-003
2.422256e+003;6.017788e-003
2.424185e+003;5.510477e-003
2.426113e+003;5.437228e-003
2.428042e+003;5.259609e-003
2.429970e+003;4.996384e-003
2.431899e+003;4.649316e-003
2.433828e+003;4.292117e-003
2.435756e+003;4.215527e-003
2.437685e+003;4.406275e-003
2.439613e+003;4.260563e-003
2.441542e+003;3.918395e-003
2.443470e+003;3.737285e-003
2.445399e+003;3.654310e-003
2.447327e+003;3.662330e-003
2.449256e+003;3.327911e-003
2.451185e+003;3.003993e-003
2.453113e+003;3.099424e-003
2.455042e+003;3.306476e-003
2.456970e+003;3.493552e-003
2.458899e+003;3.531531e-003
2.460827e+003;3.236869e-003
2.462756e+003;3.178455e-003
2.464684e+003;3.528157e-003
2.466613e+003;3.400705e-003
2.468542e+003;3.178188e-003
2.470470e+003;3.301869e-003
2.472398e+003;3.496491e-003
2.474327e+003;3.356192e-003
2.476256e+003;3.485302e-003
2.478184e+003;3.959354e-003
2.480113e+003;4.363868e-003
2.482041e+003;4.326486e-003
2.483970e+003;4.056166e-003
2.485898e+003;4.249119e-003
2.487827e+003;4.790535e-003
2.489755e+003;4.982274e-003
2.491684e+003;4.947787e-003
2.493613e+003;4.896916e-003
2.495541e+003;5.000272e-003
2.497470e+003;5.258569e-003
2.499398e+003;5.562158e-003
2.501327e+003;5.681988e-003
2.503255e+003;5.482357e-003
2.505184e+003;5.500712e-003
2.507112e+003;5.504135e-003
2.509041e+003;5.584141e-003
2.510969e+003;5.917178e-003
2.512898e+003;5.927558e-003
2.514827e+003;5.954295e-003
2.516755e+003;6.312394e-003
2.518684e+003;6.621867e-003
2.520612e+003;6.639362e-003
2.522541e+003;6.717525e-003
2.524469e+003;6.881805e-003
2.526398e+003;7.097539e-003
2.528326e+003;7.324702e-003
2.530255e+003;7.386575e-003
2.532184e+003;7.318704e-003
2.534112e+003;7.289624e-003
2.536041e+003;7.323994e-003
2.537969e+003;7.326185e-003
2.539898e+003;7.084370e-003
2.541826e+003;7.243970e-003
2.543755e+003;7.625186e-003
2.545683e+003;7.540319e-003
2.547612e+003;7.541095e-003
2.549541e+003;7.392709e-003
2.551469e+003;7.269981e-003
2.553397e+003;7.480144e-003
2.555326e+003;7.735063e-003
2.557255e+003;7.724304e-003
2.559183e+003;7.415695e-003
2.561112e+003;7.507887e-003
2.563040e+003;7.467031e-003
2.564969e+003;7.108822e-003
2.566897e+003;7.230225e-003
2.568826e+003;7.434368e-003
2.570754e+003;7.572012e-003
2.572683e+003;7.611024e-003
2.574612e+003;7.598851e-003
2.576540e+003;7.486413e-003
2.578469e+003;7.571102e-003
2.580397e+003;7.968770e-003
2.582326e+003;8.089266e-003
2.584254e+003;8.141390e-003
2.586183e+003;8.151687e-003
2.588111e+003;7.906476e-003
2.590040e+003;7.615070e-003
2.591969e+003;7.297442e-003
2.593897e+003;6.947823e-003
2.595826e+003;7.037761e-003
2.597754e+003;7.045776e-003
2.599683e+003;6.518662e-003
2.601611e+003;6.081189e-003
2.603540e+003;5.795001e-003
2.605468e+003;5.774719e-003
2.607397e+003;5.782744e-003
2.609325e+003;5.796075e-003
2.611254e+003;5.901728e-003
2.613183e+003;5.916372e-003
2.615111e+003;5.797183e-003
2.617040e+003;5.533867e-003
2.618968e+003;5.559876e-003
2.620897e+003;5.776264e-003
2.622825e+003;5.712001e-003
2.624754e+003;5.631501e-003
2.626682e+003;5.730601e-003
2.628611e+003;6.012850e-003
2.630540e+003;6.125411e-003
2.632468e+003;5.944487e-003
2.634396e+003;5.541351e-003
2.636325e+003;5.344871e-003
2.638254e+003;5.163668e-003
2.640182e+003;4.752814e-003
2.642111e+003;4.465826e-003
2.644039e+003;4.308213e-003
2.645968e+003;4.205055e-003
2.647896e+003;4.256079e-003
2.649825e+003;4.004731e-003
2.651753e+003;3.636334e-003
2.653682e+003;3.703398e-003
2.655611e+003;3.908933e-003
2.657539e+003;3.823552e-003
2.659468e+003;3.688227e-003
2.661396e+003;3.594804e-003
2.663325e+003;3.590862e-003
2.665253e+003;3.577365e-003
2.667182e+003;3.670817e-003
2.669110e+003;3.798549e-003
2.671039e+003;3.925249e-003
2.672968e+003;4.114063e-003
2.674896e+003;4.098476e-003
2.676825e+003;3.736316e-003
2.678753e+003;3.737653e-003
2.680682e+003;3.983062e-003
2.682610e+003;4.060715e-003
2.684539e+003;4.128580e-003
2.686467e+003;3.874698e-003
2.688396e+003;3.806705e-003
2.690324e+003;3.962463e-003
2.692253e+003;3.754865e-003
2.694182e+003;3.905021e-003
2.696110e+003;4.136441e-003
2.698039e+003;4.123764e-003
2.699967e+003;4.273747e-003
2.701896e+003;4.414342e-003
2.703824e+003;4.317751e-003
2.705753e+003;4.495152e-003
2.707681e+003;4.794220e-003
2.709610e+003;4.883278e-003
2.711539e+003;4.873627e-003
2.713467e+003;5.003758e-003
2.715396e+003;5.103016e-003
2.717324e+003;5.185564e-003
2.719253e+003;5.232444e-003
2.721181e+003;5.083873e-003
2.723110e+003;5.093227e-003
2.725038e+003;5.531619e-003
2.726967e+003;5.933805e-003
2.728896e+003;5.963601e-003
2.730824e+003;6.116640e-003
2.732752e+003;6.290105e-003
2.734681e+003;6.414574e-003
2.736610e+003;6.768071e-003
2.738538e+003;6.863829e-003
2.740467e+003;6.904056e-003
2.742395e+003;6.949641e-003
2.744324e+003;6.717222e-003
2.746252e+003;6.818960e-003
2.748181e+003;7.308359e-003
2.750109e+003;7.422672e-003
2.752038e+003;7.192190e-003
2.753967e+003;7.031733e-003
2.755895e+003;7.198557e-003
2.757824e+003;7.554648e-003
2.759752e+003;7.747510e-003
2.761681e+003;7.449030e-003
2.763609e+003;7.187204e-003
2.765538e+003;7.427964e-003
2.767466e+003;7.778509e-003
2.769395e+003;7.991584e-003
2.771323e+003;8.016897e-003
2.773252e+003;8.057873e-003
2.775181e+003;8.029891e-003
2.777109e+003;7.895173e-003
2.779038e+003;7.950277e-003
2.780966e+003;8.468353e-003
2.782895e+003;8.807702e-003
2.784823e+003;8.919232e-003
2.786752e+003;9.343188e-003
2.788680e+003;9.622104e-003
2.790609e+003;9.700129e-003
2.792538e+003;9.881234e-003
2.794466e+003;1.024686e-002
2.796395e+003;1.054126e-002
2.798323e+003;1.088319e-002
2.800252e+003;1.130760e-002
2.802180e+003;1.169530e-002
2.804109e+003;1.198894e-002
2.806037e+003;1.193237e-002
2.807966e+003;1.192791e-002
2.809895e+003;1.180308e-002
2.811823e+003;1.157461e-002
2.813751e+003;1.139651e-002
2.815680e+003;1.108579e-002
2.817609e+003;1.079907e-002
2.819537e+003;1.094570e-002
2.821466e+003;1.109446e-002
2.823394e+003;1.080763e-002
2.825323e+003;1.075712e-002
2.827251e+003;1.093425e-002
2.829180e+003;1.093133e-002
2.831108e+003;1.104918e-002
2.833037e+003;1.131376e-002
2.834966e+003;1.153705e-002
2.836894e+003;1.183093e-002
2.838823e+003;1.219878e-002
2.840751e+003;1.223204e-002
2.842680e+003;1.226633e-002
2.844608e+003;1.253130e-002
2.846537e+003;1.274860e-002
2.848465e+003;1.298512e-002
2.850394e+003;1.355522e-002
2.852323e+003;1.405046e-002
2.854251e+003;1.427191e-002
2.856180e+003;1.473886e-002
2.858108e+003;1.550819e-002
2.860037e+003;1.634201e-002
2.861965e+003;1.723525e-002
2.863894e+003;1.819248e-002
2.865822e+003;1.860767e-002
2.867751e+003;1.884897e-002
2.869679e+003;1.929247e-002
2.871608e+003;1.973535e-002
2.873536e+003;1.981389e-002
2.875465e+003;1.997380e-002
2.877394e+003;2.023873e-002
2.879322e+003;2.053036e-002
2.881251e+003;2.085282e-002
2.883179e+003;2.166210e-002
2.885108e+003;2.220305e-002
2.887036e+003;2.199018e-002
2.888965e+003;2.200377e-002
2.890893e+003;2.223698e-002
2.892822e+003;2.277313e-002
2.894750e+003;2.311340e-002
2.896679e+003;2.367957e-002
2.898608e+003;2.466582e-002
2.900536e+003;2.533179e-002
2.902465e+003;2.601714e-002
2.904393e+003;2.716689e-002
2.906322e+003;2.787593e-002
2.908250e+003;2.787822e-002
2.910179e+003;2.744225e-002
2.912107e+003;2.660550e-002
2.914036e+003;2.556282e-002
2.915965e+003;2.413924e-002
2.917893e+003;2.247371e-002
2.919822e+003;2.106291e-002
2.921750e+003;1.986144e-002
2.923679e+003;1.887987e-002
2.925607e+003;1.848564e-002
2.927536e+003;1.855988e-002
2.929464e+003;1.885738e-002
2.931393e+003;1.947401e-002
2.933322e+003;2.010180e-002
2.935250e+003;2.105773e-002
2.937178e+003;2.226600e-002
2.939107e+003;2.364206e-002
2.941036e+003;2.504313e-002
2.942964e+003;2.607906e-002
2.944893e+003;2.731217e-002
2.946821e+003;2.867828e-002
2.948750e+003;2.993020e-002
2.950678e+003;3.094802e-002
2.952607e+003;3.183590e-002
2.954535e+003;3.286985e-002
2.956464e+003;3.444541e-002
2.958393e+003;3.643441e-002
2.960321e+003;3.812884e-002
2.962250e+003;3.925994e-002
2.964178e+003;4.023165e-002
2.966107e+003;4.124296e-002
2.968035e+003;4.170163e-002
2.969964e+003;4.170407e-002
2.971892e+003;4.169043e-002
2.973821e+003;4.154672e-002
2.975750e+003;4.089275e-002
2.977678e+003;3.977780e-002
2.979607e+003;3.894977e-002
2.981535e+003;3.839777e-002
2.983464e+003;3.764412e-002
2.985392e+003;3.664706e-002
2.987321e+003;3.563304e-002
2.989249e+003;3.496639e-002
2.991178e+003;3.435997e-002
2.993106e+003;3.370251e-002
2.995035e+003;3.292918e-002
2.996964e+003;3.220054e-002
2.998892e+003;3.174067e-002
3.000821e+003;3.130893e-002
3.002749e+003;3.109820e-002
3.004678e+003;3.099410e-002
3.006606e+003;3.074642e-002
3.008535e+003;3.025246e-002
3.010463e+003;2.941759e-002
3.012392e+003;2.854192e-002
3.014321e+003;2.786837e-002
3.016249e+003;2.714686e-002
3.018177e+003;2.644634e-002
3.020106e+003;2.586829e-002
3.022035e+003;2.459799e-002
3.023963e+003;2.320685e-002
3.025892e+003;2.216738e-002
3.027820e+003;2.122620e-002
3.029749e+003;2.012176e-002
3.031677e+003;1.941331e-002
3.033606e+003;1.893469e-002
3.035534e+003;1.846206e-002
3.037463e+003;1.829766e-002
3.039392e+003;1.856680e-002
3.041320e+003;1.872797e-002
3.043249e+003;1.896902e-002
3.045177e+003;1.969187e-002
3.047106e+003;2.089440e-002
3.049034e+003;2.249112e-002
3.050963e+003;2.374206e-002
3.052891e+003;2.431368e-002
3.054820e+003;2.472365e-002
3.056749e+003;2.479219e-002
3.058677e+003;2.459656e-002
3.060606e+003;2.431077e-002
3.062534e+003;2.401827e-002
3.064463e+003;2.391431e-002
3.066391e+003;2.417259e-002
3.068320e+003;2.442477e-002
3.070248e+003;2.410232e-002
3.072177e+003;2.375946e-002
3.074105e+003;2.399523e-002
3.076034e+003;2.418064e-002
3.077963e+003;2.392860e-002
3.079891e+003;2.331274e-002
3.081820e+003;2.315072e-002
3.083748e+003;2.332022e-002
3.085677e+003;2.292082e-002
3.087605e+003;2.210734e-002
3.089534e+003;2.160959e-002
3.091462e+003;2.170258e-002
3.093391e+003;2.137104e-002
3.095320e+003;2.096790e-002
3.097248e+003;2.112493e-002
3.099177e+003;2.133905e-002
3.101105e+003;2.174835e-002
3.103034e+003;2.210584e-002
3.104962e+003;2.237755e-002
3.106891e+003;2.229397e-002
3.108819e+003;2.163518e-002
3.110748e+003;2.098866e-002
3.112677e+003;2.020947e-002
3.114605e+003;1.930386e-002
3.116533e+003;1.852852e-002
3.118462e+003;1.828142e-002
3.120391e+003;1.811253e-002
3.122319e+003;1.764283e-002
3.124248e+003;1.761019e-002
3.126176e+003;1.777464e-002
3.128105e+003;1.738214e-002
3.130033e+003;1.684399e-002
3.131962e+003;1.618787e-002
3.133890e+003;1.550187e-002
3.135819e+003;1.555235e-002
3.137748e+003;1.551365e-002
3.139676e+003;1.476666e-002
3.141605e+003;1.445606e-002
3.143533e+003;1.428817e-002
3.145462e+003;1.393093e-002
3.147390e+003;1.370326e-002
3.149319e+003;1.336233e-002
3.151247e+003;1.300906e-002
3.153176e+003;1.260467e-002
3.155104e+003;1.236160e-002
3.157033e+003;1.236832e-002
3.158962e+003;1.238512e-002
3.160890e+003;1.193438e-002
3.162819e+003;1.165251e-002
3.164747e+003;1.116598e-002
3.166676e+003;1.065249e-002
3.168604e+003;1.078063e-002
3.170533e+003;1.106105e-002
3.172461e+003;1.115653e-002
3.174390e+003;1.098332e-002
3.176319e+003;1.078015e-002
3.178247e+003;1.087044e-002
3.180176e+003;1.063891e-002
3.182104e+003;1.051407e-002
3.184033e+003;1.055830e-002
3.185961e+003;1.033127e-002
3.187890e+003;1.016928e-002
3.189818e+003;1.037586e-002
3.191747e+003;1.038805e-002
3.193676e+003;1.003936e-002
3.195604e+003;1.015256e-002
3.197532e+003;1.045793e-002
3.199461e+003;1.026104e-002
3.201390e+003;9.815887e-003
3.203318e+003;9.740653e-003
3.205247e+003;9.920183e-003
3.207175e+003;1.006167e-002
3.209104e+003;1.021117e-002
3.211032e+003;1.010630e-002
3.212961e+003;9.809210e-003
3.214889e+003;9.582166e-003
3.216818e+003;9.578033e-003
3.218747e+003;9.669873e-003
3.220675e+003;9.838018e-003
3.222604e+003;1.019988e-002
3.224532e+003;1.047001e-002
3.226461e+003;1.013658e-002
3.228389e+003;9.895504e-003
3.230318e+003;9.897844e-003
3.232246e+003;9.913979e-003
3.234175e+003;9.764578e-003
3.236104e+003;9.589618e-003
3.238032e+003;9.441107e-003
3.239961e+003;9.496476e-003
3.241889e+003;9.740179e-003
3.243818e+003;9.661572e-003
3.245746e+003;9.439448e-003
3.247675e+003;9.297521e-003
3.249603e+003;9.145997e-003
3.251532e+003;9.034341e-003
3.253460e+003;8.851222e-003
3.255389e+003;8.418656e-003
3.257318e+003;8.589900e-003
3.259246e+003;8.733726e-003
3.261175e+003;8.454670e-003
3.263103e+003;8.561715e-003
3.265032e+003;8.519307e-003
3.266960e+003;8.155401e-003
3.268889e+003;8.373728e-003
3.270817e+003;8.378254e-003
3.272746e+003;7.861533e-003
3.274675e+003;7.864098e-003
3.276603e+003;8.480922e-003
3.278531e+003;9.066820e-003
3.280460e+003;8.945545e-003
3.282389e+003;8.754754e-003
3.284317e+003;8.734774e-003
3.286246e+003;8.860623e-003
3.288174e+003;8.631472e-003
3.290103e+003;8.455008e-003
3.292031e+003;8.760908e-003
3.293960e+003;9.011980e-003
3.295888e+003;9.164270e-003
3.297817e+003;8.938442e-003
3.299746e+003;8.927518e-003
3.301674e+003;9.018644e-003
3.303603e+003;8.655807e-003
3.305531e+003;8.627517e-003
3.307460e+003;8.839995e-003
3.309388e+003;8.637115e-003
3.311317e+003;8.497343e-003
3.313245e+003;8.688933e-003
3.315174e+003;8.219081e-003
3.317103e+003;7.622320e-003
3.319031e+003;8.045114e-003
3.320960e+003;8.622414e-003
3.322888e+003;8.601289e-003
3.324817e+003;8.839555e-003
3.326745e+003;9.134694e-003
3.328674e+003;8.936785e-003
3.330602e+003;8.740791e-003
3.332531e+003;9.110602e-003
3.334459e+003;9.324806e-003
3.336388e+003;9.329883e-003
3.338317e+003;9.305205e-003
3.340245e+003;9.026594e-003
3.342174e+003;8.789985e-003
3.344102e+003;8.656686e-003
3.346031e+003;8.333161e-003
3.347959e+003;8.186733e-003
3.349888e+003;8.100642e-003
3.351816e+003;7.951930e-003
3.353745e+003;7.967116e-003
3.355674e+003;7.877020e-003
3.357602e+003;7.329555e-003
3.359531e+003;6.727418e-003
3.361459e+003;6.409799e-003
3.363388e+003;6.518024e-003
3.365316e+003;6.304090e-003
3.367245e+003;6.128267e-003
3.369173e+003;6.276153e-003
3.371102e+003;6.273162e-003
3.373031e+003;6.574500e-003
3.374959e+003;6.524414e-003
3.376887e+003;6.514021e-003
3.378816e+003;6.722371e-003
3.380745e+003;6.825254e-003
3.382673e+003;6.617325e-003
3.384602e+003;6.406336e-003
3.386530e+003;6.311116e-003
3.388459e+003;6.594247e-003
3.390387e+003;7.056081e-003
3.392316e+003;7.181174e-003
3.394244e+003;7.546186e-003
3.396173e+003;7.705079e-003
3.398102e+003;7.722651e-003
3.400030e+003;8.322015e-003
3.401959e+003;8.818624e-003
3.403887e+003;9.274402e-003
3.405816e+003;1.013635e-002
3.407744e+003;1.058000e-002
3.409673e+003;1.123191e-002
3.411601e+003;1.199773e-002
3.413530e+003;1.288671e-002
3.415458e+003;1.334664e-002
3.417387e+003;1.399335e-002
3.419316e+003;1.545473e-002
3.421244e+003;1.698382e-002
3.423173e+003;1.780063e-002
3.425101e+003;1.833150e-002
3.427030e+003;1.919639e-002
3.428958e+003;1.947544e-002
3.430887e+003;1.929105e-002
3.432815e+003;1.902264e-002
3.434744e+003;1.834218e-002
3.436673e+003;1.756451e-002
3.438601e+003;1.666185e-002
3.440530e+003;1.619802e-002
3.442458e+003;1.579367e-002
3.444387e+003;1.525643e-002
3.446315e+003;1.469897e-002
3.448244e+003;1.388796e-002
3.450172e+003;1.314134e-002
3.452101e+003;1.254897e-002
3.454030e+003;1.177836e-002
3.455958e+003;1.132291e-002
3.457886e+003;1.105194e-002
3.459815e+003;1.043770e-002
3.461744e+003;9.829612e-003
3.463672e+003;9.276669e-003
3.465601e+003;8.604500e-003
3.467529e+003;8.078565e-003
3.469458e+003;7.968062e-003
3.471386e+003;7.841155e-003
3.473315e+003;7.604685e-003
3.475243e+003;7.580913e-003
3.477172e+003;7.751388e-003
3.479101e+003;7.553198e-003
3.481029e+003;7.086593e-003
3.482958e+003;7.066520e-003
3.484886e+003;7.134655e-003
3.486815e+003;6.825793e-003
3.488743e+003;6.734183e-003
3.490672e+003;6.625299e-003
3.492600e+003;6.732937e-003
3.494529e+003;6.980449e-003
3.496458e+003;6.760802e-003
3.498386e+003;6.585299e-003
3.500315e+003;7.022506e-003
3.502243e+003;7.330195e-003
3.504172e+003;7.100772e-003
3.506100e+003;6.792236e-003
3.508029e+003;6.758446e-003
3.509957e+003;6.973176e-003
3.511886e+003;7.375285e-003
3.513814e+003;7.578385e-003
3.515743e+003;7.341248e-003
3.517672e+003;7.329487e-003
3.519600e+003;7.671319e-003
3.521529e+003;7.552322e-003
3.523457e+003;7.490729e-003
3.525386e+003;7.848274e-003
3.527314e+003;8.477307e-003
3.529243e+003;8.714050e-003
3.531171e+003;8.735518e-003
3.533100e+003;9.174963e-003
3.535029e+003;9.148365e-003
3.536957e+003;8.457541e-003
3.538885e+003;8.684844e-003
3.540814e+003;9.278869e-003
3.542743e+003;9.274605e-003
3.544671e+003;9.597274e-003
3.546600e+003;1.006364e-002
3.548528e+003;9.699959e-003
3.550457e+003;9.108233e-003
3.552385e+003;8.655909e-003
3.554314e+003;8.531336e-003
3.556242e+003;8.419805e-003
3.558171e+003;8.390179e-003
3.560100e+003;8.393624e-003
3.562028e+003;8.205709e-003
3.563957e+003;7.936273e-003
3.565885e+003;7.957330e-003
3.567814e+003;7.998098e-003
3.569742e+003;8.133355e-003
3.571671e+003;7.720897e-003
3.573599e+003;6.957217e-003
3.575528e+003;6.582036e-003
3.577457e+003;6.557580e-003
3.579385e+003;6.697908e-003
3.581314e+003;6.541232e-003
3.583242e+003;5.955135e-003
3.585171e+003;5.814007e-003
3.587099e+003;5.660268e-003
3.589028e+003;5.494538e-003
3.590956e+003;5.298213e-003
3.592885e+003;4.887500e-003
3.594813e+003;5.220741e-003
3.596742e+003;5.587934e-003
3.598671e+003;5.481753e-003
3.600599e+003;5.204577e-003
3.602528e+003;5.011937e-003
3.604456e+003;5.128932e-003
3.606385e+003;5.134464e-003
3.608313e+003;5.114415e-003
3.610242e+003;5.263466e-003
3.612170e+003;5.672454e-003
3.614099e+003;5.667788e-003
3.616028e+003;5.185766e-003
3.617956e+003;5.277821e-003
3.619885e+003;5.518632e-003
3.621813e+003;5.699546e-003
3.623742e+003;5.620827e-003
3.625670e+003;5.953456e-003
3.627599e+003;5.762497e-003
3.629527e+003;5.516182e-003
3.631456e+003;5.559876e-003
3.633385e+003;5.859343e-003
3.635313e+003;6.287483e-003
3.637241e+003;6.222505e-003
3.639170e+003;5.912778e-003
3.641099e+003;5.463030e-003
3.643027e+003;5.148613e-003
3.644956e+003;5.221982e-003
3.646884e+003;4.865083e-003
3.648813e+003;4.716403e-003
3.650741e+003;4.745378e-003
3.652670e+003;4.485209e-003
3.654598e+003;4.112457e-003
3.656527e+003;3.477352e-003
3.658456e+003;3.141274e-003
3.660384e+003;3.394026e-003
3.662313e+003;3.698352e-003
3.664241e+003;3.385511e-003
3.666170e+003;3.226988e-003
3.668098e+003;2.997387e-003
3.670027e+003;2.517118e-003
3.671955e+003;2.535414e-003
3.673884e+003;2.603075e-003
3.675813e+003;2.709888e-003
3.677741e+003;3.142809e-003
3.679669e+003;3.311751e-003
3.681598e+003;3.217208e-003
3.683527e+003;3.304807e-003
3.685455e+003;3.237804e-003
3.687384e+003;3.015470e-003
3.689312e+003;3.089313e-003
3.691241e+003;2.893639e-003
3.693169e+003;2.771208e-003
3.695098e+003;2.673514e-003
3.697026e+003;2.282128e-003
3.698955e+003;1.915722e-003
3.700884e+003;1.742365e-003
3.702812e+003;1.568711e-003
3.704741e+003;1.489109e-003
3.706669e+003;1.469426e-003
3.708598e+003;1.339719e-003
3.710526e+003;1.361988e-003
3.712455e+003;1.143004e-003
3.714383e+003;9.828066e-004
3.716312e+003;6.014014e-004
3.718240e+003;3.098475e-004
3.720169e+003;4.342066e-004
3.722098e+003;5.643078e-004
3.724026e+003;9.398361e-004
3.725955e+003;7.428706e-004
3.727883e+003;4.627313e-004
3.729812e+003;8.141370e-004
3.731740e+003;1.169615e-003
3.733669e+003;8.921551e-004
3.735597e+003;6.398919e-004
3.737526e+003;7.610595e-004
3.739455e+003;1.027375e-003
3.741383e+003;1.194732e-003
3.743312e+003;1.043849e-003
3.745240e+003;1.054212e-003
3.747169e+003;1.037439e-003
3.749097e+003;1.124433e-003
3.751026e+003;1.254210e-003
3.752954e+003;1.197125e-003
3.754883e+003;1.585272e-003
3.756812e+003;1.741200e-003
3.758740e+003;1.914191e-003
3.760668e+003;2.394959e-003
3.762597e+003;2.328463e-003
3.764526e+003;1.682854e-003
3.766454e+003;1.442365e-003
3.768383e+003;1.570607e-003
3.770311e+003;1.797659e-003
3.772240e+003;1.562027e-003
3.774168e+003;1.019338e-003
3.776097e+003;1.039000e-003
3.778025e+003;1.308112e-003
3.779954e+003;1.393133e-003
3.781883e+003;1.464705e-003
3.783811e+003;1.327521e-003
3.785740e+003;1.262085e-003
3.787668e+003;1.191642e-003
3.789597e+003;9.578340e-004
3.791525e+003;1.013858e-003
3.793454e+003;9.464109e-004
3.795382e+003;7.824690e-004
3.797311e+003;9.134383e-004
3.799240e+003;9.191826e-004
3.801168e+003;7.506373e-004
3.803097e+003;1.028604e-003
3.805025e+003;1.436181e-003
3.806954e+003;1.531070e-003
3.808882e+003;1.445357e-003
3.810811e+003;1.342245e-003
3.812739e+003;1.546265e-003
3.814668e+003;1.768381e-003
3.816596e+003;1.589961e-003
3.818525e+003;1.111478e-003
3.820454e+003;6.652444e-004
3.822382e+003;9.915406e-004
3.824311e+003;1.234272e-003
3.826239e+003;1.084638e-003
3.828168e+003;1.059858e-003
3.830096e+003;7.334445e-004
3.832025e+003;6.321603e-004
3.833953e+003;7.787845e-004
3.835882e+003;8.759196e-004
3.837811e+003;1.074008e-003
3.839739e+003;1.267170e-003
3.841667e+003;1.269064e-003
3.843596e+003;1.226696e-003
3.845525e+003;1.087527e-003
3.847453e+003;9.239308e-004
3.849382e+003;9.425257e-004
3.851310e+003;1.344704e-003
3.853239e+003;1.653284e-003
3.855167e+003;1.315423e-003
3.857096e+003;9.861939e-004
3.859024e+003;9.163270e-004
3.860953e+003;8.158300e-004
3.862882e+003;9.686265e-004
3.864810e+003;9.195810e-004
3.866739e+003;8.194153e-004
3.868667e+003;1.169615e-003
3.870596e+003;8.937157e-004
3.872524e+003;7.951824e-004
3.874453e+003;1.047636e-003
3.876381e+003;1.208720e-003
3.878310e+003;1.240220e-003
3.880239e+003;1.196360e-003
3.882167e+003;1.586702e-003
3.884096e+003;1.646799e-003
3.886024e+003;1.326225e-003
3.887953e+003;1.483556e-003
3.889881e+003;1.475677e-003
3.891810e+003;1.308212e-003
3.893738e+003;1.553481e-003
3.895667e+003;1.859115e-003
3.897595e+003;1.501477e-003
3.899524e+003;1.425311e-003
3.901453e+003;1.758766e-003
3.903381e+003;2.136195e-003
3.905310e+003;2.244724e-003
3.907238e+003;2.202861e-003
3.909167e+003;2.539047e-003
3.911095e+003;2.553312e-003
3.913024e+003;2.140690e-003
3.914952e+003;2.216049e-003
3.916881e+003;2.549746e-003
3.918810e+003;2.195868e-003
3.920738e+003;1.608086e-003
3.922667e+003;1.925806e-003
3.924595e+003;2.663913e-003
3.926524e+003;2.474028e-003
3.928452e+003;1.983519e-003
3.930381e+003;1.833227e-003
3.932309e+003;1.742797e-003
3.934238e+003;2.085719e-003
3.936167e+003;3.028316e-003
3.938095e+003;3.200451e-003
3.940023e+003;2.516518e-003
3.941952e+003;1.796927e-003
3.943881e+003;2.067341e-003
3.945809e+003;3.005260e-003
3.947738e+003;2.930331e-003
3.949666e+003;2.369406e-003
3.951595e+003;3.023611e-003
3.953523e+003;3.725956e-003
3.955452e+003;3.435337e-003
3.957380e+003;2.877095e-003
3.959309e+003;2.543846e-003
3.961238e+003;2.985776e-003
3.963166e+003;3.461655e-003
3.965095e+003;3.186866e-003
3.967023e+003;3.119915e-003
3.968952e+003;3.298163e-003
3.970880e+003;3.200585e-003
3.972809e+003;2.960555e-003
3.974737e+003;3.272923e-003
3.976666e+003;3.831173e-003
3.978594e+003;3.850395e-003
3.980523e+003;3.185331e-003
3.982452e+003;2.650445e-003
3.984380e+003;2.936869e-003
3.986309e+003;3.126589e-003
3.988237e+003;3.250356e-003
3.990166e+003;3.165404e-003
3.992094e+003;2.778377e-003
3.994023e+003;2.664180e-003
3.995951e+003;2.782812e-003
3.997880e+003;2.818495e-003
3.999809e+003;2.421314e-003
4.001737e+003;0.000000e+000
