3.992094e+002;0.000000e+000
4.011380e+002;0.000000e+000
4.030665e+002;0.000000e+000
4.049951e+002;0.000000e+000
4.069236e+002;0.000000e+000
4.088522e+002;0.000000e+000
4.107807e+002;0.000000e+000
4.127093e+002;0.000000e+000
4.146378e+002;0.000000e+000
4.165664e+002;0.000000e+000
4.184949e+002;0.000000e+000
4.204235e+002;0.000000e+000
4.223520e+002;0.000000e+000
4.242806e+002;0.000000e+000
4.262091e+002;0.000000e+000
4.281377e+002;0.000000e+000
4.300662e+002;0.000000e+000
4.319948e+002;0.000000e+000
4.339233e+002;0.000000e+000
4.358519e+002;0.000000e+000
4.377804e+002;0.000000e+000
4.397090e+002;0.000000e+000
4.416375e+002;0.000000e+000
4.435660e+002;0.000000e+000
4.454946e+002;0.000000e+000
4.474232e+002;0.000000e+000
4.493517e+002;0.000000e+000
4.512802e+002;0.000000e+000
4.532088e+002;0.000000e+000
4.551373e+002;0.000000e+000
4.570659e+002;0.000000e+000
4.589944e+002;0.000000e+000
4.609230e+002;0.000000e+000
4.628515e+002;0.000000e+000
4.647801e+002;0.000000e+000
4.667086e+002;0.000000e+000
4.686372e+002;0.000000e+000
4.705657e+002;0.000000e+000
4.724943e+002;0.000000e+000
4.744228e+002;0.000000e+000
4.763513e+002;0.000000e+000
4.782799e+002;0.000000e+000
4.802085e+002;0.000000e+000
4.821370e+002;0.000000e+000
4.840656e+002;0.000000e+000
4.859941e+002;0.000000e+000
4.879226e+002;0.000000e+000
4.898512e+002;0.000000e+000
4.917798e+002;0.000000e+000
4.937083e+002;0.000000e+000
4.956368e+002;0.000000e+000
4.975654e+002;0.000000e+000
4.994939e+002;0.000000e+000
5.014225e+002;0.000000e+000
5.033510e+002;0.000000e+000
5.052796e+002;0.000000e+000
5.072081e+002;0.000000e+000
5.091367e+002;0.000000e+000
5.110652e+002;0.000000e+000
5.129938e+002;0.000000e+000
5.149223e+002;0.000000e+000
5.168509e+002;0.000000e+000
5.187794e+002;0.000000e+000
5.207079e+002;0.000000e+000
5.226365e+002;0.000000e+000
5.245651e+002;0.000000e+000
5.264936e+002;0.000000e+000
5.284222e+002;0.000000e+000
5.303507e+002;0.000000e+000
5.322792e+002;0.000000e+000
5.342078e+002;0.000000e+000
5.361364e+002;0.000000e+000
5.380649e+002;0.000000e+000
5.399935e+002;0.000000e+000
5.419220e+002;0.000000e+000
5.438505e+002;0.000000e+000
5.457791e+002;0.000000e+000
5.477076e+002;0.000000e+000
5.496362e+002;0.000000e+000
5.515648e+002;0.000000e+000
5.534933e+002;0.000000e+000
5.554218e+002;0.000000e+000
5.573504e+002;0.000000e+000
5.592789e+002;0.000000e+000
5.612075e+002;0.000000e+000
5.631360e+002;0.000000e+000
5.650646e+002;0.000000e+000
5.669931e+002;0.000000e+000
5.689217e+002;0.000000e+000
5.708502e+002;0.000000e+000
5.727787e+002;0.000000e+000
5.747073e+002;0.000000e+000
5.766359e+002;0.000000e+000
5.785644e+002;0.000000e+000
5.804930e+002;0.000000e+000
5.824215e+002;0.000000e+000
5.843500e+002;0.000000e+000
5.862786e+002;0.000000e+000
5.882072e+002;0.000000e+000
5.901357e+002;0.000000e+000
5.920643e+002;0.000000e+000
5.939928e+002;0.000000e+000
5.959213e+002;0.000000e+000
5.978499e+002;0.000000e+000
5.997784e+002;1.005181e-001
6.017070e+002;9.991917e-002
6.036355e+002;9.393904e-002
6.055641e+002;9.264316e-002
6.074926e+002;9.354996e-002
6.094211e+002;9.489093e-002
6.113497e+002;9.699799e-002
6.132783e+002;9.778854e-002
6.152068e+002;9.862056e-002
6.171354e+002;1.006742e-001
6.190639e+002;9.928820e-002
6.209924e+002;9.647067e-002
6.229210e+002;9.671055e-002
6.248495e+002;1.012628e-001
6.267781e+002;1.042327e-001
6.287067e+002;1.071307e-001
6.306352e+002;1.083009e-001
6.325637e+002;1.077660e-001
6.344923e+002;1.065935e-001
6.364208e+002;1.037881e-001
6.383494e+002;1.040638e-001
6.402780e+002;1.036564e-001
6.422065e+002;1.028308e-001
6.441350e+002;1.040925e-001
6.460636e+002;1.044715e-001
6.479921e+002;1.052751e-001
6.499207e+002;1.065948e-001
6.518492e+002;1.065215e-001
6.537778e+002;1.067831e-001
6.557063e+002;1.082943e-001
6.576349e+002;1.093327e-001
6.595634e+002;1.097310e-001
6.614919e+002;1.107141e-001
6.634205e+002;1.112509e-001
6.653491e+002;1.116523e-001
6.672776e+002;1.114551e-001
6.692062e+002;1.140122e-001
6.711347e+002;1.184078e-001
6.730632e+002;1.205186e-001
6.749918e+002;1.221953e-001
6.769203e+002;1.257991e-001
6.788489e+002;1.300327e-001
6.807775e+002;1.326360e-001
6.827060e+002;1.330115e-001
6.846345e+002;1.323309e-001
6.865631e+002;1.324624e-001
6.884916e+002;1.331177e-001
6.904202e+002;1.351902e-001
6.923488e+002;1.393646e-001
6.942773e+002;1.441010e-001
6.962058e+002;1.509916e-001
6.981344e+002;1.618130e-001
7.000629e+002;1.732269e-001
7.019915e+002;1.818670e-001
7.039200e+002;1.898340e-001
7.058486e+002;1.992770e-001
7.077771e+002;2.100845e-001
7.097057e+002;2.213526e-001
7.116342e+002;2.343412e-001
7.135627e+002;2.505644e-001
7.154913e+002;2.710758e-001
7.174199e+002;2.955307e-001
7.193484e+002;3.204880e-001
7.212770e+002;3.415119e-001
7.232055e+002;3.536841e-001
7.251340e+002;3.471638e-001
7.270626e+002;3.217704e-001
7.289911e+002;2.878052e-001
7.309197e+002;2.539258e-001
7.328483e+002;2.226620e-001
7.347768e+002;1.927278e-001
7.367053e+002;1.648756e-001
7.386339e+002;1.399244e-001
7.405624e+002;1.210402e-001
7.424910e+002;1.090435e-001
7.444196e+002;1.011636e-001
7.463481e+002;9.632716e-002
7.482766e+002;9.426130e-002
7.502052e+002;9.277636e-002
7.521337e+002;9.180617e-002
7.540623e+002;9.223459e-002
7.559908e+002;9.302713e-002
7.579194e+002;9.373658e-002
7.598479e+002;9.417193e-002
7.617765e+002;9.399195e-002
7.637050e+002;9.487654e-002
7.656335e+002;9.665516e-002
7.675621e+002;9.881330e-002
7.694907e+002;1.010776e-001
7.714192e+002;1.037149e-001
7.733478e+002;1.061440e-001
7.752763e+002;1.067311e-001
7.772048e+002;1.070596e-001
7.791334e+002;1.091101e-001
7.810620e+002;1.115476e-001
7.829905e+002;1.125712e-001
7.849191e+002;1.141821e-001
7.868476e+002;1.179425e-001
7.887761e+002;1.225564e-001
7.907047e+002;1.261721e-001
7.926332e+002;1.268295e-001
7.945618e+002;1.228577e-001
7.964903e+002;1.162990e-001
7.984189e+002;1.116264e-001
8.003474e+002;1.095463e-001
8.022759e+002;1.095878e-001
8.042045e+002;1.114132e-001
8.061331e+002;1.128153e-001
8.080616e+002;1.127774e-001
8.099902e+002;1.121833e-001
8.119187e+002;1.121811e-001
8.138472e+002;1.128083e-001
8.157758e+002;1.135357e-001
8.177043e+002;1.145745e-001
8.196329e+002;1.158625e-001
8.215615e+002;1.171257e-001
8.234900e+002;1.181102e-001
8.254185e+002;1.187235e-001
8.273471e+002;1.197473e-001
8.292756e+002;1.222046e-001
8.312042e+002;1.252022e-001
8.331328e+002;1.276961e-001
8.350613e+002;1.304985e-001
8.369898e+002;1.331525e-001
8.389184e+002;1.358727e-001
8.408469e+002;1.393248e-001
8.427755e+002;1.430223e-001
8.447040e+002;1.460222e-001
8.466326e+002;1.479903e-001
8.485611e+002;1.481786e-001
8.504897e+002;1.459622e-001
8.524182e+002;1.435456e-001
8.543467e+002;1.428060e-001
8.562753e+002;1.424018e-001
8.582039e+002;1.417896e-001
8.601324e+002;1.422352e-001
8.620610e+002;1.437174e-001
8.639895e+002;1.470235e-001
8.659180e+002;1.540635e-001
8.678466e+002;1.658297e-001
8.697751e+002;1.819798e-001
8.717037e+002;1.945858e-001
8.736323e+002;1.931027e-001
8.755608e+002;1.817932e-001
8.774893e+002;1.689602e-001
8.794179e+002;1.565200e-001
8.813464e+002;1.453196e-001
8.832750e+002;1.363040e-001
8.852036e+002;1.292847e-001
8.871321e+002;1.244040e-001
8.890606e+002;1.215705e-001
8.909892e+002;1.201096e-001
8.929177e+002;1.198622e-001
8.948463e+002;1.199591e-001
8.967748e+002;1.202064e-001
8.987034e+002;1.206933e-001
9.006319e+002;1.207828e-001
9.025605e+002;1.201796e-001
9.044890e+002;1.190670e-001
9.064175e+002;1.176401e-001
9.083461e+002;1.161382e-001
9.102747e+002;1.142501e-001
9.122032e+002;1.124720e-001
9.141318e+002;1.112029e-001
9.160603e+002;1.106270e-001
9.179888e+002;1.104179e-001
9.199174e+002;1.102757e-001
9.218459e+002;1.104885e-001
9.237745e+002;1.112339e-001
9.257031e+002;1.120033e-001
9.276316e+002;1.125744e-001
9.295601e+002;1.129315e-001
9.314887e+002;1.133288e-001
9.334172e+002;1.139821e-001
9.353458e+002;1.144856e-001
9.372744e+002;1.151553e-001
9.392029e+002;1.160309e-001
9.411314e+002;1.167363e-001
9.430600e+002;1.176548e-001
9.449885e+002;1.190576e-001
9.469171e+002;1.205987e-001
9.488456e+002;1.223972e-001
9.507742e+002;1.238949e-001
9.527027e+002;1.255855e-001
9.546313e+002;1.276734e-001
9.565598e+002;1.296521e-001
9.584883e+002;1.321540e-001
9.604169e+002;1.349515e-001
9.623455e+002;1.372252e-001
9.642740e+002;1.388739e-001
9.662026e+002;1.401284e-001
9.681311e+002;1.413805e-001
9.700596e+002;1.418196e-001
9.719882e+002;1.409318e-001
9.739167e+002;1.392058e-001
9.758453e+002;1.366769e-001
9.777739e+002;1.341165e-001
9.797024e+002;1.319140e-001
9.816309e+002;1.299295e-001
9.835595e+002;1.286798e-001
9.854880e+002;1.280614e-001
9.874166e+002;1.281411e-001
9.893452e+002;1.283734e-001
9.912737e+002;1.281826e-001
9.932022e+002;1.281051e-001
9.951307e+002;1.286575e-001
9.970593e+002;1.299881e-001
9.989879e+002;1.320913e-001
1.000916e+003;1.343106e-001
1.002845e+003;1.365228e-001
1.004773e+003;1.398600e-001
1.006702e+003;1.452317e-001
1.008631e+003;1.524763e-001
1.010559e+003;1.629502e-001
1.012488e+003;1.786257e-001
1.014416e+003;1.986139e-001
1.016345e+003;2.149795e-001
1.018273e+003;2.165425e-001
1.020202e+003;2.019711e-001
1.022130e+003;1.812872e-001
1.024059e+003;1.614236e-001
1.025988e+003;1.452480e-001
1.027916e+003;1.353631e-001
1.029845e+003;1.318939e-001
1.031773e+003;1.324078e-001
1.033702e+003;1.345969e-001
1.035630e+003;1.369663e-001
1.037559e+003;1.389349e-001
1.039487e+003;1.409498e-001
1.041416e+003;1.429023e-001
1.043344e+003;1.444782e-001
1.045273e+003;1.452311e-001
1.047202e+003;1.452340e-001
1.049130e+003;1.456794e-001
1.051059e+003;1.465164e-001
1.052987e+003;1.473236e-001
1.054916e+003;1.483661e-001
1.056844e+003;1.510065e-001
1.058773e+003;1.548570e-001
1.060701e+003;1.583180e-001
1.062630e+003;1.623779e-001
1.064558e+003;1.680886e-001
1.066487e+003;1.742709e-001
1.068416e+003;1.805803e-001
1.070344e+003;1.874131e-001
1.072273e+003;1.949934e-001
1.074201e+003;2.045815e-001
1.076130e+003;2.166394e-001
1.078058e+003;2.290881e-001
1.079987e+003;2.415246e-001
1.081915e+003;2.529786e-001
1.083844e+003;2.627150e-001
1.085773e+003;2.713983e-001
1.087701e+003;2.791540e-001
1.089630e+003;2.865798e-001
1.091558e+003;2.928202e-001
1.093487e+003;2.978998e-001
1.095415e+003;3.022386e-001
1.097344e+003;3.028041e-001
1.099272e+003;2.986279e-001
1.101201e+003;2.914607e-001
1.103129e+003;2.809587e-001
1.105058e+003;2.673245e-001
1.106987e+003;2.536497e-001
1.108915e+003;2.419383e-001
1.110844e+003;2.346012e-001
1.112772e+003;2.317403e-001
1.114701e+003;2.312004e-001
1.116629e+003;2.303458e-001
1.118558e+003;2.268909e-001
1.120486e+003;2.207243e-001
1.122415e+003;2.126822e-001
1.124344e+003;2.028274e-001
1.126272e+003;1.929369e-001
1.128201e+003;1.834141e-001
1.130129e+003;1.733896e-001
1.132058e+003;1.632236e-001
1.133986e+003;1.538954e-001
1.135915e+003;1.459287e-001
1.137843e+003;1.389883e-001
1.139772e+003;1.325557e-001
1.141700e+003;1.269254e-001
1.143629e+003;1.226703e-001
1.145557e+003;1.195161e-001
1.147486e+003;1.173058e-001
1.149415e+003;1.158642e-001
1.151343e+003;1.145831e-001
1.153272e+003;1.128441e-001
1.155200e+003;1.109894e-001
1.157129e+003;1.097171e-001
1.159057e+003;1.093104e-001
1.160986e+003;1.096463e-001
1.162914e+003;1.107299e-001
1.164843e+003;1.125367e-001
1.166771e+003;1.148977e-001
1.168700e+003;1.172878e-001
1.170629e+003;1.191116e-001
1.172557e+003;1.202340e-001
1.174486e+003;1.205606e-001
1.176414e+003;1.198669e-001
1.178343e+003;1.182308e-001
1.180271e+003;1.162365e-001
1.182200e+003;1.145325e-001
1.184128e+003;1.128806e-001
1.186057e+003;1.120734e-001
1.187986e+003;1.129970e-001
1.189914e+003;1.145940e-001
1.191843e+003;1.169308e-001
1.193771e+003;1.200378e-001
1.195700e+003;1.229520e-001
1.197628e+003;1.261005e-001
1.199557e+003;1.297342e-001
1.201485e+003;1.333732e-001
1.203414e+003;1.369062e-001
1.205343e+003;1.407863e-001
1.207271e+003;1.449007e-001
1.209200e+003;1.490771e-001
1.211128e+003;1.538583e-001
1.213057e+003;1.592261e-001
1.214985e+003;1.652648e-001
1.216914e+003;1.720692e-001
1.218842e+003;1.786999e-001
1.220771e+003;1.850623e-001
1.222699e+003;1.914862e-001
1.224628e+003;1.983252e-001
1.226557e+003;2.064550e-001
1.228485e+003;2.164949e-001
1.230414e+003;2.285121e-001
1.232342e+003;2.428252e-001
1.234271e+003;2.590677e-001
1.236199e+003;2.756529e-001
1.238128e+003;2.904357e-001
1.240056e+003;3.019726e-001
1.241985e+003;3.091497e-001
1.243913e+003;3.107771e-001
1.245842e+003;3.078471e-001
1.247771e+003;3.024786e-001
1.249699e+003;2.959079e-001
1.251628e+003;2.892225e-001
1.253556e+003;2.830294e-001
1.255485e+003;2.772564e-001
1.257413e+003;2.726235e-001
1.259342e+003;2.690716e-001
1.261270e+003;2.641532e-001
1.263199e+003;2.559333e-001
1.265127e+003;2.455420e-001
1.267056e+003;2.341777e-001
1.268985e+003;2.225306e-001
1.270913e+003;2.113388e-001
1.272842e+003;2.014370e-001
1.274770e+003;1.931696e-001
1.276699e+003;1.864690e-001
1.278627e+003;1.804010e-001
1.280556e+003;1.745745e-001
1.282484e+003;1.692922e-001
1.284413e+003;1.642051e-001
1.286342e+003;1.589747e-001
1.288270e+003;1.532479e-001
1.290199e+003;1.470781e-001
1.292127e+003;1.410432e-001
1.294056e+003;1.348128e-001
1.295984e+003;1.285837e-001
1.297913e+003;1.225325e-001
1.299841e+003;1.167287e-001
1.301770e+003;1.119653e-001
1.303698e+003;1.086090e-001
1.305627e+003;1.060341e-001
1.307556e+003;1.033014e-001
1.309484e+003;1.005623e-001
1.311413e+003;9.821057e-002
1.313341e+003;9.634673e-002
1.315270e+003;9.458827e-002
1.317198e+003;9.312956e-002
1.319127e+003;9.203120e-002
1.321055e+003;9.122510e-002
1.322984e+003;9.085146e-002
1.324912e+003;9.152922e-002
1.326841e+003;9.390914e-002
1.328770e+003;9.904265e-002
1.330698e+003;1.077038e-001
1.332627e+003;1.194772e-001
1.334555e+003;1.318794e-001
1.336484e+003;1.403037e-001
1.338412e+003;1.417289e-001
1.340341e+003;1.363438e-001
1.342269e+003;1.264691e-001
1.344198e+003;1.148053e-001
1.346126e+003;1.037328e-001
1.348055e+003;9.469000e-002
1.349984e+003;8.823953e-002
1.351912e+003;8.402264e-002
1.353841e+003;8.148412e-002
1.355769e+003;7.994049e-002
1.357698e+003;7.901184e-002
1.359626e+003;7.872343e-002
1.361555e+003;7.922187e-002
1.363483e+003;8.073720e-002
1.365412e+003;8.285777e-002
1.367341e+003;8.455647e-002
1.369269e+003;8.557876e-002
1.371198e+003;8.559264e-002
1.373126e+003;8.483227e-002
1.375055e+003;8.444232e-002
1.376983e+003;8.443817e-002
1.378912e+003;8.418193e-002
1.380840e+003;8.430877e-002
1.382769e+003;8.466743e-002
1.384698e+003;8.474970e-002
1.386626e+003;8.483179e-002
1.388555e+003;8.549932e-002
1.390483e+003;8.638229e-002
1.392412e+003;8.768056e-002
1.394340e+003;8.965288e-002
1.396269e+003;9.289760e-002
1.398197e+003;9.732264e-002
1.400126e+003;1.030580e-001
1.402054e+003;1.102715e-001
1.403983e+003;1.190271e-001
1.405911e+003;1.280649e-001
1.407840e+003;1.332076e-001
1.409769e+003;1.309205e-001
1.411697e+003;1.209317e-001
1.413626e+003;1.071681e-001
1.415554e+003;9.433783e-002
1.417483e+003;8.418587e-002
1.419411e+003;7.758451e-002
1.421340e+003;7.486327e-002
1.423268e+003;7.344992e-002
1.425197e+003;7.275201e-002
1.427125e+003;7.300286e-002
1.429054e+003;7.365723e-002
1.430983e+003;7.487630e-002
1.432911e+003;7.641239e-002
1.434840e+003;7.714830e-002
1.436768e+003;7.796998e-002
1.438697e+003;7.982934e-002
1.440625e+003;8.124263e-002
1.442554e+003;8.240653e-002
1.444482e+003;8.368555e-002
1.446411e+003;8.486997e-002
1.448340e+003;8.599450e-002
1.450268e+003;8.717244e-002
1.452197e+003;8.796330e-002
1.454125e+003;8.760300e-002
1.456054e+003;8.591098e-002
1.457982e+003;8.582801e-002
1.459911e+003;8.710906e-002
1.461839e+003;8.731563e-002
1.463768e+003;8.656590e-002
1.465697e+003;8.640279e-002
1.467625e+003;8.745777e-002
1.469554e+003;8.910880e-002
1.471482e+003;8.977272e-002
1.473411e+003;8.931050e-002
1.475339e+003;8.865476e-002
1.477268e+003;8.756687e-002
1.479196e+003;8.585618e-002
1.481125e+003;8.371553e-002
1.483053e+003;8.155679e-002
1.484982e+003;7.883978e-002
1.486911e+003;7.615909e-002
1.488839e+003;7.421494e-002
1.490768e+003;7.322361e-002
1.492696e+003;7.324953e-002
1.494625e+003;7.332178e-002
1.496553e+003;7.456902e-002
1.498482e+003;7.847716e-002
1.500410e+003;8.418740e-002
1.502339e+003;9.052307e-002
1.504267e+003;9.326380e-002
1.506196e+003;9.008905e-002
1.508125e+003;8.541324e-002
1.510053e+003;8.177697e-002
1.511982e+003;7.921833e-002
1.513910e+003;7.827051e-002
1.515839e+003;7.776543e-002
1.517767e+003;7.777534e-002
1.519696e+003;7.749797e-002
1.521624e+003;7.746394e-002
1.523553e+003;7.882218e-002
1.525481e+003;7.942101e-002
1.527410e+003;7.970218e-002
1.529339e+003;8.024757e-002
1.531267e+003;8.000307e-002
1.533196e+003;7.877912e-002
1.535124e+003;7.824778e-002
1.537053e+003;7.686190e-002
1.538981e+003;7.384198e-002
1.540910e+003;7.277909e-002
1.542838e+003;7.353162e-002
1.544767e+003;7.408335e-002
1.546695e+003;7.442195e-002
1.548624e+003;7.457067e-002
1.550553e+003;7.451209e-002
1.552481e+003;7.380828e-002
1.554410e+003;7.276494e-002
1.556338e+003;7.167154e-002
1.558267e+003;6.970294e-002
1.560195e+003;7.060450e-002
1.562124e+003;7.340354e-002
1.564052e+003;7.473724e-002
1.565981e+003;7.550492e-002
1.567910e+003;7.610528e-002
1.569838e+003;7.732464e-002
1.571767e+003;7.965878e-002
1.573695e+003;8.124778e-002
1.575624e+003;8.189862e-002
1.577552e+003;8.383142e-002
1.579481e+003;8.509446e-002
1.581409e+003;8.410467e-002
1.583338e+003;8.206481e-002
1.585266e+003;7.990585e-002
1.587195e+003;7.857940e-002
1.589124e+003;7.790647e-002
1.591052e+003;7.778157e-002
1.592981e+003;7.792371e-002
1.594909e+003;7.859408e-002
1.596838e+003;7.998996e-002
1.598766e+003;8.169266e-002
1.600695e+003;8.295847e-002
1.602623e+003;8.375860e-002
1.604552e+003;8.426045e-002
1.606480e+003;8.457539e-002
1.608409e+003;8.500910e-002
1.610338e+003;8.570012e-002
1.612266e+003;8.620409e-002
1.614195e+003;8.538811e-002
1.616123e+003;8.336022e-002
1.618052e+003;8.286110e-002
1.619980e+003;8.255088e-002
1.621909e+003;8.123004e-002
1.623837e+003;8.048839e-002
1.625766e+003;8.067088e-002
1.627694e+003;8.079813e-002
1.629623e+003;8.098431e-002
1.631552e+003;8.126093e-002
1.633480e+003;8.045776e-002
1.635409e+003;7.962117e-002
1.637337e+003;8.120048e-002
1.639266e+003;8.284611e-002
1.641194e+003;8.373867e-002
1.643123e+003;8.432236e-002
1.645051e+003;8.402710e-002
1.646980e+003;8.448374e-002
1.648909e+003;8.608656e-002
1.650837e+003;8.589010e-002
1.652766e+003;8.485878e-002
1.654694e+003;8.782663e-002
1.656623e+003;9.143866e-002
1.658551e+003;9.370069e-002
1.660480e+003;9.523047e-002
1.662408e+003;9.697276e-002
1.664337e+003;9.978523e-002
1.666266e+003;1.022656e-001
1.668194e+003;1.039489e-001
1.670123e+003;1.064659e-001
1.672051e+003;1.093746e-001
1.673980e+003;1.111875e-001
1.675908e+003;1.138313e-001
1.677837e+003;1.177736e-001
1.679765e+003;1.208793e-001
1.681694e+003;1.228610e-001
1.683622e+003;1.238083e-001
1.685551e+003;1.272001e-001
1.687479e+003;1.321811e-001
1.689408e+003;1.366813e-001
1.691337e+003;1.417834e-001
1.693265e+003;1.470786e-001
1.695194e+003;1.531500e-001
1.697122e+003;1.624279e-001
1.699051e+003;1.722613e-001
1.700979e+003;1.851671e-001
1.702908e+003;2.023460e-001
1.704836e+003;2.216014e-001
1.706765e+003;2.439708e-001
1.708693e+003;2.674636e-001
1.710622e+003;2.888186e-001
1.712551e+003;3.042992e-001
1.714479e+003;3.105453e-001
1.716408e+003;3.069589e-001
1.718336e+003;2.972607e-001
1.720265e+003;2.847351e-001
1.722193e+003;2.686398e-001
1.724122e+003;2.509398e-001
1.726050e+003;2.327196e-001
1.727979e+003;2.144371e-001
1.729908e+003;1.963063e-001
1.731836e+003;1.782286e-001
1.733765e+003;1.601651e-001
1.735693e+003;1.451520e-001
1.737622e+003;1.311632e-001
1.739550e+003;1.162987e-001
1.741479e+003;1.031564e-001
1.743407e+003;9.191318e-002
1.745336e+003;8.260281e-002
1.747265e+003;7.534197e-002
1.749193e+003;7.010747e-002
1.751122e+003;6.655116e-002
1.753050e+003;6.528153e-002
1.754979e+003;6.471302e-002
1.756907e+003;6.404099e-002
1.758836e+003;6.365744e-002
1.760764e+003;6.313615e-002
1.762693e+003;6.320918e-002
1.764621e+003;6.364816e-002
1.766550e+003;6.323352e-002
1.768479e+003;6.274160e-002
1.770407e+003;6.218975e-002
1.772336e+003;6.161060e-002
1.774264e+003;6.220692e-002
1.776193e+003;6.262665e-002
1.778121e+003;6.246226e-002
1.780050e+003;6.218095e-002
1.781978e+003;6.219487e-002
1.783907e+003;6.218975e-002
1.785835e+003;6.219919e-002
1.787764e+003;6.215029e-002
1.789693e+003;6.162759e-002
1.791621e+003;6.104492e-002
1.793550e+003;6.130886e-002
1.795478e+003;6.201967e-002
1.797407e+003;6.218657e-002
1.799335e+003;6.214123e-002
1.801264e+003;6.215423e-002
1.803192e+003;6.229005e-002
1.805121e+003;6.235583e-002
1.807049e+003;6.256396e-002
1.808978e+003;6.258360e-002
1.810907e+003;6.243586e-002
1.812835e+003;6.243624e-002
1.814764e+003;6.252547e-002
1.816692e+003;6.248808e-002
1.818621e+003;6.270091e-002
1.820549e+003;6.276113e-002
1.822478e+003;6.255256e-002
1.824406e+003;6.221579e-002
1.826335e+003;6.198176e-002
1.828264e+003;6.158330e-002
1.830192e+003;6.117861e-002
1.832121e+003;6.121115e-002
1.834049e+003;6.079670e-002
1.835978e+003;6.028226e-002
1.837906e+003;5.997489e-002
1.839835e+003;5.943361e-002
1.841763e+003;5.843306e-002
1.843692e+003;5.713264e-002
1.845620e+003;5.667865e-002
1.847549e+003;5.636733e-002
1.849478e+003;5.599193e-002
1.851406e+003;5.530581e-002
1.853335e+003;5.441352e-002
1.855263e+003;5.393242e-002
1.857192e+003;5.348675e-002
1.859120e+003;5.279552e-002
1.861049e+003;5.226422e-002
1.862977e+003;5.203236e-002
1.864906e+003;5.156833e-002
1.866834e+003;5.063564e-002
1.868763e+003;4.986753e-002
1.870692e+003;4.988589e-002
1.872620e+003;4.996845e-002
1.874549e+003;4.979432e-002
1.876477e+003;4.966072e-002
1.878406e+003;4.961291e-002
1.880334e+003;4.953042e-002
1.882263e+003;4.951809e-002
1.884191e+003;4.953191e-002
1.886120e+003;4.928795e-002
1.888048e+003;4.886700e-002
1.889977e+003;4.895296e-002
1.891906e+003;4.933435e-002
1.893834e+003;4.936906e-002
1.895763e+003;4.943919e-002
1.897691e+003;4.969735e-002
1.899620e+003;5.009579e-002
1.901548e+003;5.039754e-002
1.903477e+003;5.042035e-002
1.905405e+003;5.028529e-002
1.907334e+003;5.040003e-002
1.909262e+003;5.070553e-002
1.911191e+003;5.101170e-002
1.913120e+003;5.130376e-002
1.915048e+003;5.146987e-002
1.916977e+003;5.138144e-002
1.918905e+003;5.187013e-002
1.920834e+003;5.262871e-002
1.922762e+003;5.314330e-002
1.924691e+003;5.362622e-002
1.926619e+003;5.419917e-002
1.928548e+003;5.476091e-002
1.930477e+003;5.523634e-002
1.932405e+003;5.565124e-002
1.934334e+003;5.636096e-002
1.936262e+003;5.729831e-002
1.938191e+003;5.804860e-002
1.940119e+003;5.869321e-002
1.942048e+003;5.938741e-002
1.943976e+003;6.018260e-002
1.945905e+003;6.093214e-002
1.947833e+003;6.148778e-002
1.949762e+003;6.192979e-002
1.951691e+003;6.221131e-002
1.953619e+003;6.221609e-002
1.955548e+003;6.219617e-002
1.957476e+003;6.240644e-002
1.959405e+003;6.249114e-002
1.961333e+003;6.232738e-002
1.963262e+003;6.189226e-002
1.965190e+003;6.111922e-002
1.967119e+003;6.007735e-002
1.969047e+003;5.939918e-002
1.970976e+003;5.871787e-002
1.972905e+003;5.783290e-002
1.974833e+003;5.713268e-002
1.976762e+003;5.655566e-002
1.978690e+003;5.612361e-002
1.980619e+003;5.575977e-002
1.982547e+003;5.553476e-002
1.984476e+003;5.537314e-002
1.986404e+003;5.495836e-002
1.988333e+003;5.460732e-002
1.990261e+003;5.414871e-002
1.992190e+003;5.348263e-002
1.994119e+003;5.302700e-002
1.996047e+003;5.268635e-002
1.997976e+003;5.234349e-002
1.999904e+003;5.200210e-002
2.001833e+003;5.148565e-002
2.003761e+003;5.087246e-002
2.005690e+003;5.042995e-002
2.007618e+003;5.025066e-002
2.009547e+003;5.017760e-002
2.011476e+003;4.992291e-002
2.013404e+003;4.942289e-002
2.015333e+003;4.917005e-002
2.017261e+003;4.901271e-002
2.019190e+003;4.863457e-002
2.021118e+003;4.837774e-002
2.023047e+003;4.833863e-002
2.024975e+003;4.817537e-002
2.026904e+003;4.774263e-002
2.028833e+003;4.730022e-002
2.030761e+003;4.725571e-002
2.032690e+003;4.739290e-002
2.034618e+003;4.736780e-002
2.036547e+003;4.721285e-002
2.038475e+003;4.738698e-002
2.040404e+003;4.769148e-002
2.042332e+003;4.774839e-002
2.044261e+003;4.789592e-002
2.046189e+003;4.806343e-002
2.048118e+003;4.808890e-002
2.050047e+003;4.843049e-002
2.051975e+003;4.884764e-002
2.053904e+003;4.927121e-002
2.055832e+003;4.968876e-002
2.057761e+003;5.011215e-002
2.059689e+003;5.047967e-002
2.061618e+003;5.101475e-002
2.063546e+003;5.148106e-002
2.065475e+003;5.182350e-002
2.067404e+003;5.212373e-002
2.069332e+003;5.260982e-002
2.071260e+003;5.297373e-002
2.073189e+003;5.313180e-002
2.075118e+003;5.346823e-002
2.077046e+003;5.403264e-002
2.078975e+003;5.435115e-002
2.080903e+003;5.469634e-002
2.082832e+003;5.500153e-002
2.084760e+003;5.517445e-002
2.086689e+003;5.523258e-002
2.088617e+003;5.525550e-002
2.090546e+003;5.532372e-002
2.092475e+003;5.558714e-002
2.094403e+003;5.582799e-002
2.096332e+003;5.580154e-002
2.098260e+003;5.584084e-002
2.100189e+003;5.610382e-002
2.102117e+003;5.613730e-002
2.104046e+003;5.615001e-002
2.105974e+003;5.607362e-002
2.107903e+003;5.603087e-002
2.109832e+003;5.611476e-002
2.111760e+003;5.599698e-002
2.113688e+003;5.581752e-002
2.115617e+003;5.560943e-002
2.117546e+003;5.545178e-002
2.119474e+003;5.536452e-002
2.121403e+003;5.517878e-002
2.123331e+003;5.497540e-002
2.125260e+003;5.458970e-002
2.127188e+003;5.418584e-002
2.129117e+003;5.407786e-002
2.131045e+003;5.403215e-002
2.132974e+003;5.372179e-002
2.134903e+003;5.352239e-002
2.136831e+003;5.324123e-002
2.138760e+003;5.290101e-002
2.140688e+003;5.258035e-002
2.142617e+003;5.228234e-002
2.144545e+003;5.208861e-002
2.146474e+003;5.198966e-002
2.148402e+003;5.170185e-002
2.150331e+003;5.121367e-002
2.152260e+003;5.095830e-002
2.154188e+003;5.078586e-002
2.156117e+003;5.052013e-002
2.158045e+003;5.014071e-002
2.159974e+003;4.994239e-002
2.161902e+003;4.964771e-002
2.163831e+003;4.902124e-002
2.165759e+003;4.858891e-002
2.167688e+003;4.828671e-002
2.169616e+003;4.801040e-002
2.171545e+003;4.795685e-002
2.173474e+003;4.798420e-002
2.175402e+003;4.789329e-002
2.177331e+003;4.766877e-002
2.179259e+003;4.736185e-002
2.181188e+003;4.721544e-002
2.183116e+003;4.709337e-002
2.185045e+003;4.703396e-002
2.186973e+003;4.721607e-002
2.188902e+003;4.737490e-002
2.190831e+003;4.748677e-002
2.192759e+003;4.770646e-002
2.194688e+003;4.778997e-002
2.196616e+003;4.773749e-002
2.198545e+003;4.786606e-002
2.200473e+003;4.786894e-002
2.202402e+003;4.776929e-002
2.204330e+003;4.791656e-002
2.206259e+003;4.833604e-002
2.208188e+003;4.873687e-002
2.210116e+003;4.885684e-002
2.212044e+003;4.879688e-002
2.213973e+003;4.880982e-002
2.215902e+003;4.913235e-002
2.217830e+003;4.940169e-002
2.219759e+003;4.972811e-002
2.221687e+003;4.973231e-002
2.223616e+003;4.964534e-002
2.225544e+003;4.982123e-002
2.227473e+003;4.990890e-002
2.229401e+003;4.992158e-002
2.231330e+003;4.993198e-002
2.233259e+003;5.008385e-002
2.235187e+003;5.041481e-002
2.237116e+003;5.062742e-002
2.239044e+003;5.092034e-002
2.240973e+003;5.107412e-002
2.242901e+003;5.132337e-002
2.244830e+003;5.169211e-002
2.246758e+003;5.220678e-002
2.248687e+003;5.273113e-002
2.250615e+003;5.283084e-002
2.252544e+003;5.263626e-002
2.254473e+003;5.239683e-002
2.256401e+003;5.231008e-002
2.258330e+003;5.241347e-002
2.260258e+003;5.242136e-002
2.262187e+003;5.251304e-002
2.264115e+003;5.259561e-002
2.266044e+003;5.238454e-002
2.267972e+003;5.217248e-002
2.269901e+003;5.208099e-002
2.271830e+003;5.215612e-002
2.273758e+003;5.227790e-002
2.275687e+003;5.239919e-002
2.277615e+003;5.239268e-002
2.279544e+003;5.247078e-002
2.281472e+003;5.265818e-002
2.283401e+003;5.279410e-002
2.285329e+003;5.273498e-002
2.287258e+003;5.226785e-002
2.289187e+003;5.180864e-002
2.291115e+003;5.144536e-002
2.293043e+003;5.105876e-002
2.294972e+003;5.067765e-002
2.296901e+003;5.010843e-002
2.298829e+003;4.955282e-002
2.300758e+003;4.906984e-002
2.302686e+003;4.865884e-002
2.304615e+003;4.810104e-002
2.306543e+003;4.774758e-002
2.308472e+003;4.763823e-002
2.310400e+003;4.746504e-002
2.312329e+003;4.728589e-002
2.314258e+003;4.715549e-002
2.316186e+003;4.696776e-002
2.318115e+003;4.700191e-002
2.320043e+003;4.704603e-002
2.321972e+003;4.668602e-002
2.323900e+003;4.650863e-002
2.325829e+003;4.662680e-002
2.327757e+003;4.688647e-002
2.329686e+003;4.697274e-002
2.331615e+003;4.659766e-002
2.333543e+003;4.643251e-002
2.335472e+003;4.671110e-002
2.337400e+003;4.679516e-002
2.339329e+003;4.672535e-002
2.341257e+003;4.684196e-002
2.343186e+003;4.748444e-002
2.345114e+003;4.825635e-002
2.347043e+003;4.884227e-002
2.348971e+003;4.912719e-002
2.350900e+003;4.896382e-002
2.352829e+003;4.854930e-002
2.354757e+003;4.830441e-002
2.356686e+003;4.849606e-002
2.358614e+003;4.863731e-002
2.360543e+003;4.853252e-002
2.362471e+003;4.855289e-002
2.364400e+003;4.901497e-002
2.366328e+003;4.973944e-002
2.368257e+003;5.040282e-002
2.370186e+003;5.084196e-002
2.372114e+003;5.112264e-002
2.374042e+003;5.179035e-002
2.375971e+003;5.257986e-002
2.377900e+003;5.302547e-002
2.379828e+003;5.332166e-002
2.381757e+003;5.361269e-002
2.383685e+003;5.377256e-002
2.385614e+003;5.384120e-002
2.387542e+003;5.383343e-002
2.389471e+003;5.382807e-002
2.391399e+003;5.376447e-002
2.393328e+003;5.370657e-002
2.395257e+003;5.356921e-002
2.397185e+003;5.340483e-002
2.399114e+003;5.343387e-002
2.401042e+003;5.333170e-002
2.402971e+003;5.297463e-002
2.404899e+003;5.264569e-002
2.406828e+003;5.240756e-002
2.408756e+003;5.219898e-002
2.410685e+003;5.209059e-002
2.412614e+003;5.218321e-002
2.414542e+003;5.201835e-002
2.416471e+003;5.153348e-002
2.418399e+003;5.105038e-002
2.420328e+003;5.071685e-002
2.422256e+003;5.064208e-002
2.424185e+003;5.048969e-002
2.426113e+003;5.016318e-002
2.428042e+003;4.966060e-002
2.429970e+003;4.917242e-002
2.431899e+003;4.894524e-002
2.433828e+003;4.885020e-002
2.435756e+003;4.870432e-002
2.437685e+003;4.839767e-002
2.439613e+003;4.811155e-002
2.441542e+003;4.799782e-002
2.443470e+003;4.791245e-002
2.445399e+003;4.765435e-002
2.447327e+003;4.743266e-002
2.449256e+003;4.745802e-002
2.451185e+003;4.746426e-002
2.453113e+003;4.734138e-002
2.455042e+003;4.710718e-002
2.456970e+003;4.705035e-002
2.458899e+003;4.726202e-002
2.460827e+003;4.751021e-002
2.462756e+003;4.748784e-002
2.464684e+003;4.736522e-002
2.466613e+003;4.722098e-002
2.468542e+003;4.722770e-002
2.470470e+003;4.746341e-002
2.472398e+003;4.767480e-002
2.474327e+003;4.774303e-002
2.476256e+003;4.781712e-002
2.478184e+003;4.790432e-002
2.480113e+003;4.806984e-002
2.482041e+003;4.836756e-002
2.483970e+003;4.851106e-002
2.485898e+003;4.845842e-002
2.487827e+003;4.875592e-002
2.489755e+003;4.923358e-002
2.491684e+003;4.937652e-002
2.493613e+003;4.932577e-002
2.495541e+003;4.951746e-002
2.497470e+003;4.991013e-002
2.499398e+003;5.007619e-002
2.501327e+003;4.993615e-002
2.503255e+003;5.009557e-002
2.505184e+003;5.031613e-002
2.507112e+003;5.032048e-002
2.509041e+003;5.020766e-002
2.510969e+003;5.026665e-002
2.512898e+003;5.050588e-002
2.514827e+003;5.083484e-002
2.516755e+003;5.093848e-002
2.518684e+003;5.100924e-002
2.520612e+003;5.134865e-002
2.522541e+003;5.162597e-002
2.524469e+003;5.170405e-002
2.526398e+003;5.189227e-002
2.528326e+003;5.193040e-002
2.530255e+003;5.173551e-002
2.532184e+003;5.164363e-002
2.534112e+003;5.186162e-002
2.536041e+003;5.220910e-002
2.537969e+003;5.222083e-002
2.539898e+003;5.188835e-002
2.541826e+003;5.183235e-002
2.543755e+003;5.205940e-002
2.545683e+003;5.211950e-002
2.547612e+003;5.198750e-002
2.549541e+003;5.185893e-002
2.551469e+003;5.165900e-002
2.553397e+003;5.174111e-002
2.555326e+003;5.203221e-002
2.557255e+003;5.225921e-002
2.559183e+003;5.217013e-002
2.561112e+003;5.219416e-002
2.563040e+003;5.223687e-002
2.564969e+003;5.208831e-002
2.566897e+003;5.192767e-002
2.568826e+003;5.177680e-002
2.570754e+003;5.159124e-002
2.572683e+003;5.163896e-002
2.574612e+003;5.199355e-002
2.576540e+003;5.222786e-002
2.578469e+003;5.216090e-002
2.580397e+003;5.205421e-002
2.582326e+003;5.185240e-002
2.584254e+003;5.174163e-002
2.586183e+003;5.165882e-002
2.588111e+003;5.150278e-002
2.590040e+003;5.148181e-002
2.591969e+003;5.123075e-002
2.593897e+003;5.077596e-002
2.595826e+003;5.053063e-002
2.597754e+003;5.034608e-002
2.599683e+003;5.010245e-002
2.601611e+003;4.983015e-002
2.603540e+003;4.979079e-002
2.605468e+003;4.987664e-002
2.607397e+003;4.981740e-002
2.609325e+003;4.956080e-002
2.611254e+003;4.920834e-002
2.613183e+003;4.896783e-002
2.615111e+003;4.897781e-002
2.617040e+003;4.902710e-002
2.618968e+003;4.902517e-002
2.620897e+003;4.893089e-002
2.622825e+003;4.887616e-002
2.624754e+003;4.894432e-002
2.626682e+003;4.893226e-002
2.628611e+003;4.891639e-002
2.630540e+003;4.883707e-002
2.632468e+003;4.874913e-002
2.634396e+003;4.866181e-002
2.636325e+003;4.834863e-002
2.638254e+003;4.789521e-002
2.640182e+003;4.742383e-002
2.642111e+003;4.716277e-002
2.644039e+003;4.704252e-002
2.645968e+003;4.687772e-002
2.647896e+003;4.672553e-002
2.649825e+003;4.677125e-002
2.651753e+003;4.676010e-002
2.653682e+003;4.657280e-002
2.655611e+003;4.621741e-002
2.657539e+003;4.591093e-002
2.659468e+003;4.606191e-002
2.661396e+003;4.611335e-002
2.663325e+003;4.577866e-002
2.665253e+003;4.564205e-002
2.667182e+003;4.576854e-002
2.669110e+003;4.585609e-002
2.671039e+003;4.594463e-002
2.672968e+003;4.625121e-002
2.674896e+003;4.643602e-002
2.676825e+003;4.633610e-002
2.678753e+003;4.638956e-002
2.680682e+003;4.656291e-002
2.682610e+003;4.651969e-002
2.684539e+003;4.654687e-002
2.686467e+003;4.661245e-002
2.688396e+003;4.658386e-002
2.690324e+003;4.664344e-002
2.692253e+003;4.664152e-002
2.694182e+003;4.655185e-002
2.696110e+003;4.654606e-002
2.698039e+003;4.650523e-002
2.699967e+003;4.666819e-002
2.701896e+003;4.677428e-002
2.703824e+003;4.687964e-002
2.705753e+003;4.707339e-002
2.707681e+003;4.713422e-002
2.709610e+003;4.740006e-002
2.711539e+003;4.762414e-002
2.713467e+003;4.737682e-002
2.715396e+003;4.748448e-002
2.717324e+003;4.792910e-002
2.719253e+003;4.800233e-002
2.721181e+003;4.775202e-002
2.723110e+003;4.773870e-002
2.725038e+003;4.820240e-002
2.726967e+003;4.844027e-002
2.728896e+003;4.855671e-002
2.730824e+003;4.872426e-002
2.732752e+003;4.878068e-002
2.734681e+003;4.903196e-002
2.736610e+003;4.940247e-002
2.738538e+003;4.964879e-002
2.740467e+003;4.963096e-002
2.742395e+003;4.934036e-002
2.744324e+003;4.923963e-002
2.746252e+003;4.912611e-002
2.748181e+003;4.926063e-002
2.750109e+003;4.927574e-002
2.752038e+003;4.916697e-002
2.753967e+003;4.911309e-002
2.755895e+003;4.913706e-002
2.757824e+003;4.920905e-002
2.759752e+003;4.949570e-002
2.761681e+003;4.969553e-002
2.763609e+003;4.954587e-002
2.765538e+003;4.952270e-002
2.767466e+003;4.977099e-002
2.769395e+003;4.997016e-002
2.771323e+003;4.997849e-002
2.773252e+003;5.001648e-002
2.775181e+003;5.016065e-002
2.777109e+003;5.038545e-002
2.779038e+003;5.054946e-002
2.780966e+003;5.061997e-002
2.782895e+003;5.075983e-002
2.784823e+003;5.095517e-002
2.786752e+003;5.130976e-002
2.788680e+003;5.185882e-002
2.790609e+003;5.227162e-002
2.792538e+003;5.251767e-002
2.794466e+003;5.276450e-002
2.796395e+003;5.322696e-002
2.798323e+003;5.378697e-002
2.800252e+003;5.403320e-002
2.802180e+003;5.381742e-002
2.804109e+003;5.380643e-002
2.806037e+003;5.381899e-002
2.807966e+003;5.374245e-002
2.809895e+003;5.372685e-002
2.811823e+003;5.379042e-002
2.813751e+003;5.377331e-002
2.815680e+003;5.342724e-002
2.817609e+003;5.289375e-002
2.819537e+003;5.255424e-002
2.821466e+003;5.236652e-002
2.823394e+003;5.260365e-002
2.825323e+003;5.263828e-002
2.827251e+003;5.258173e-002
2.829180e+003;5.251442e-002
2.831108e+003;5.252410e-002
2.833037e+003;5.270471e-002
2.834966e+003;5.309649e-002
2.836894e+003;5.335324e-002
2.838823e+003;5.311416e-002
2.840751e+003;5.298328e-002
2.842680e+003;5.256879e-002
2.844608e+003;5.155370e-002
2.846537e+003;5.012193e-002
2.848465e+003;4.852681e-002
2.850394e+003;4.759435e-002
2.852323e+003;4.753246e-002
2.854251e+003;4.828934e-002
2.856180e+003;4.975501e-002
2.858108e+003;5.107889e-002
2.860037e+003;5.256255e-002
2.861965e+003;5.416662e-002
2.863894e+003;5.584148e-002
2.865822e+003;5.717780e-002
2.867751e+003;5.772378e-002
2.869679e+003;5.787628e-002
2.871608e+003;5.809333e-002
2.873536e+003;5.871225e-002
2.875465e+003;5.921467e-002
2.877394e+003;5.939470e-002
2.879322e+003;5.979777e-002
2.881251e+003;6.037492e-002
2.883179e+003;6.081789e-002
2.885108e+003;6.087175e-002
2.887036e+003;6.087038e-002
2.888965e+003;6.105701e-002
2.890893e+003;6.094895e-002
2.892822e+003;6.068204e-002
2.894750e+003;6.055700e-002
2.896679e+003;6.074644e-002
2.898608e+003;6.092795e-002
2.900536e+003;6.109054e-002
2.902465e+003;6.124697e-002
2.904393e+003;6.135171e-002
2.906322e+003;6.129600e-002
2.908250e+003;6.069320e-002
2.910179e+003;5.906743e-002
2.912107e+003;5.656872e-002
2.914036e+003;5.414511e-002
2.915965e+003;5.163228e-002
2.917893e+003;4.929084e-002
2.919822e+003;4.755109e-002
2.921750e+003;4.650350e-002
2.923679e+003;4.593726e-002
2.925607e+003;4.633477e-002
2.927536e+003;4.705504e-002
2.929464e+003;4.776123e-002
2.931393e+003;4.908134e-002
2.933322e+003;5.082422e-002
2.935250e+003;5.285726e-002
2.937178e+003;5.466944e-002
2.939107e+003;5.626137e-002
2.941036e+003;5.819777e-002
2.942964e+003;5.979895e-002
2.944893e+003;6.101297e-002
2.946821e+003;6.229823e-002
2.948750e+003;6.316347e-002
2.950678e+003;6.381065e-002
2.952607e+003;6.446230e-002
2.954535e+003;6.524433e-002
2.956464e+003;6.636223e-002
2.958393e+003;6.781680e-002
2.960321e+003;6.881449e-002
2.962250e+003;6.951524e-002
2.964178e+003;7.032528e-002
2.966107e+003;7.126004e-002
2.968035e+003;7.249987e-002
2.969964e+003;7.301160e-002
2.971892e+003;7.291424e-002
2.973821e+003;7.279429e-002
2.975750e+003;7.281094e-002
2.977678e+003;7.268421e-002
2.979607e+003;7.237545e-002
2.981535e+003;7.213030e-002
2.983464e+003;7.170687e-002
2.985392e+003;7.132735e-002
2.987321e+003;7.122810e-002
2.989249e+003;7.074502e-002
2.991178e+003;7.017528e-002
2.993106e+003;6.983121e-002
2.995035e+003;6.932031e-002
2.996964e+003;6.888345e-002
2.998892e+003;6.866311e-002
3.000821e+003;6.846457e-002
3.002749e+003;6.826019e-002
3.004678e+003;6.785403e-002
3.006606e+003;6.745870e-002
3.008535e+003;6.720493e-002
3.010463e+003;6.686913e-002
3.012392e+003;6.644493e-002
3.014321e+003;6.585904e-002
3.016249e+003;6.540274e-002
3.018177e+003;6.482560e-002
3.020106e+003;6.393263e-002
3.022035e+003;6.313001e-002
3.023963e+003;6.225315e-002
3.025892e+003;6.145392e-002
3.027820e+003;6.086714e-002
3.029749e+003;6.020533e-002
3.031677e+003;5.961156e-002
3.033606e+003;5.913990e-002
3.035534e+003;5.890240e-002
3.037463e+003;5.853546e-002
3.039392e+003;5.844842e-002
3.041320e+003;5.888923e-002
3.043249e+003;5.947901e-002
3.045177e+003;6.034945e-002
3.047106e+003;6.182185e-002
3.049034e+003;6.331471e-002
3.050963e+003;6.416976e-002
3.052891e+003;6.479160e-002
3.054820e+003;6.507729e-002
3.056749e+003;6.463511e-002
3.058677e+003;6.400704e-002
3.060606e+003;6.403534e-002
3.062534e+003;6.437165e-002
3.064463e+003;6.445961e-002
3.066391e+003;6.447203e-002
3.068320e+003;6.479252e-002
3.070248e+003;6.488734e-002
3.072177e+003;6.486588e-002
3.074105e+003;6.512526e-002
3.076034e+003;6.522019e-002
3.077963e+003;6.508676e-002
3.079891e+003;6.484718e-002
3.081820e+003;6.475217e-002
3.083748e+003;6.470287e-002
3.085677e+003;6.437549e-002
3.087605e+003;6.380843e-002
3.089534e+003;6.324046e-002
3.091462e+003;6.299853e-002
3.093391e+003;6.260231e-002
3.095320e+003;6.240044e-002
3.097248e+003;6.233403e-002
3.099177e+003;6.263274e-002
3.101105e+003;6.315017e-002
3.103034e+003;6.341289e-002
3.104962e+003;6.343636e-002
3.106891e+003;6.306158e-002
3.108819e+003;6.236811e-002
3.110748e+003;6.188859e-002
3.112677e+003;6.120753e-002
3.114605e+003;5.992898e-002
3.116533e+003;5.882902e-002
3.118462e+003;5.841195e-002
3.120391e+003;5.855787e-002
3.122319e+003;5.844261e-002
3.124248e+003;5.833099e-002
3.126176e+003;5.850145e-002
3.128105e+003;5.850679e-002
3.130033e+003;5.856954e-002
3.131962e+003;5.821000e-002
3.133890e+003;5.742090e-002
3.135819e+003;5.682489e-002
3.137748e+003;5.645339e-002
3.139676e+003;5.592149e-002
3.141605e+003;5.537345e-002
3.143533e+003;5.508623e-002
3.145462e+003;5.491012e-002
3.147390e+003;5.480519e-002
3.149319e+003;5.452613e-002
3.151247e+003;5.429381e-002
3.153176e+003;5.412402e-002
3.155104e+003;5.354409e-002
3.157033e+003;5.322674e-002
3.158962e+003;5.317535e-002
3.160890e+003;5.277228e-002
3.162819e+003;5.261764e-002
3.164747e+003;5.263993e-002
3.166676e+003;5.291287e-002
3.168604e+003;5.293304e-002
3.170533e+003;5.260645e-002
3.172461e+003;5.216987e-002
3.174390e+003;5.198350e-002
3.176319e+003;5.227932e-002
3.178247e+003;5.250372e-002
3.180176e+003;5.209627e-002
3.182104e+003;5.165546e-002
3.184033e+003;5.165777e-002
3.185961e+003;5.185337e-002
3.187890e+003;5.214965e-002
3.189818e+003;5.202870e-002
3.191747e+003;5.169670e-002
3.193676e+003;5.176833e-002
3.195604e+003;5.176683e-002
3.197532e+003;5.178699e-002
3.199461e+003;5.191654e-002
3.201390e+003;5.180599e-002
3.203318e+003;5.132598e-002
3.205247e+003;5.090361e-002
3.207175e+003;5.107468e-002
3.209104e+003;5.110285e-002
3.211032e+003;5.081994e-002
3.212961e+003;5.064439e-002
3.214889e+003;5.069958e-002
3.216818e+003;5.079760e-002
3.218747e+003;5.095193e-002
3.220675e+003;5.097857e-002
3.222604e+003;5.085279e-002
3.224532e+003;5.088707e-002
3.226461e+003;5.099120e-002
3.228389e+003;5.124779e-002
3.230318e+003;5.145339e-002
3.232246e+003;5.130722e-002
3.234175e+003;5.116208e-002
3.236104e+003;5.075018e-002
3.238032e+003;5.057317e-002
3.239961e+003;5.075949e-002
3.241889e+003;5.048961e-002
3.243818e+003;5.033775e-002
3.245746e+003;5.054094e-002
3.247675e+003;5.017080e-002
3.249603e+003;4.960318e-002
3.251532e+003;4.990778e-002
3.253460e+003;5.019646e-002
3.255389e+003;4.995023e-002
3.257318e+003;4.946677e-002
3.259246e+003;4.930172e-002
3.261175e+003;4.952233e-002
3.263103e+003;4.963234e-002
3.265032e+003;4.943217e-002
3.266960e+003;4.933895e-002
3.268889e+003;4.921146e-002
3.270817e+003;4.929285e-002
3.272746e+003;4.968156e-002
3.274675e+003;4.984635e-002
3.276603e+003;4.972840e-002
3.278531e+003;4.981621e-002
3.280460e+003;4.967398e-002
3.282389e+003;4.936701e-002
3.284317e+003;4.950573e-002
3.286246e+003;4.976623e-002
3.288174e+003;4.985694e-002
3.290103e+003;4.981956e-002
3.292031e+003;4.989991e-002
3.293960e+003;4.992384e-002
3.295888e+003;4.953165e-002
3.297817e+003;4.957354e-002
3.299746e+003;5.014990e-002
3.301674e+003;5.038325e-002
3.303603e+003;5.026390e-002
3.305531e+003;5.000901e-002
3.307460e+003;4.987084e-002
3.309388e+003;4.984925e-002
3.311317e+003;4.987415e-002
3.313245e+003;4.940269e-002
3.315174e+003;4.917599e-002
3.317103e+003;4.965422e-002
3.319031e+003;4.979930e-002
3.320960e+003;4.938539e-002
3.322888e+003;4.973955e-002
3.324817e+003;5.023325e-002
3.326745e+003;5.013383e-002
3.328674e+003;4.990935e-002
3.330602e+003;5.003355e-002
3.332531e+003;5.043989e-002
3.334459e+003;5.063084e-002
3.336388e+003;5.042835e-002
3.338317e+003;5.022726e-002
3.340245e+003;5.033365e-002
3.342174e+003;5.018709e-002
3.344102e+003;4.976226e-002
3.346031e+003;4.960567e-002
3.347959e+003;4.942385e-002
3.349888e+003;4.902039e-002
3.351816e+003;4.894172e-002
3.353745e+003;4.902120e-002
3.355674e+003;4.854274e-002
3.357602e+003;4.798890e-002
3.359531e+003;4.785233e-002
3.361459e+003;4.777909e-002
3.363388e+003;4.779189e-002
3.365316e+003;4.786107e-002
3.367245e+003;4.774577e-002
3.369173e+003;4.768457e-002
3.371102e+003;4.772613e-002
3.373031e+003;4.781908e-002
3.374959e+003;4.808572e-002
3.376887e+003;4.818933e-002
3.378816e+003;4.822921e-002
3.380745e+003;4.806828e-002
3.382673e+003;4.823839e-002
3.384602e+003;4.836574e-002
3.386530e+003;4.815316e-002
3.388459e+003;4.803290e-002
3.390387e+003;4.796862e-002
3.392316e+003;4.823554e-002
3.394244e+003;4.875091e-002
3.396173e+003;4.894079e-002
3.398102e+003;4.914003e-002
3.400030e+003;4.927815e-002
3.401959e+003;4.942949e-002
3.403887e+003;4.997551e-002
3.405816e+003;5.062931e-002
3.407744e+003;5.114479e-002
3.409673e+003;5.194534e-002
3.411601e+003;5.313064e-002
3.413530e+003;5.415010e-002
3.415458e+003;5.490997e-002
3.417387e+003;5.583772e-002
3.419316e+003;5.684075e-002
3.421244e+003;5.745543e-002
3.423173e+003;5.828897e-002
3.425101e+003;5.901778e-002
3.427030e+003;5.957181e-002
3.428958e+003;6.004892e-002
3.430887e+003;5.997923e-002
3.432815e+003;5.957538e-002
3.434744e+003;5.924117e-002
3.436673e+003;5.919762e-002
3.438601e+003;5.892225e-002
3.440530e+003;5.783642e-002
3.442458e+003;5.681930e-002
3.444387e+003;5.648324e-002
3.446315e+003;5.580023e-002
3.448244e+003;5.491384e-002
3.450172e+003;5.409486e-002
3.452101e+003;5.349094e-002
3.454030e+003;5.283151e-002
3.455958e+003;5.209672e-002
3.457886e+003;5.147804e-002
3.459815e+003;5.090804e-002
3.461744e+003;5.006935e-002
3.463672e+003;4.932715e-002
3.465601e+003;4.888528e-002
3.467529e+003;4.862845e-002
3.469458e+003;4.836341e-002
3.471386e+003;4.780636e-002
3.473315e+003;4.755808e-002
3.475243e+003;4.738961e-002
3.477172e+003;4.689728e-002
3.479101e+003;4.670941e-002
3.481029e+003;4.689865e-002
3.482958e+003;4.703119e-002
3.484886e+003;4.692833e-002
3.486815e+003;4.681107e-002
3.488743e+003;4.627959e-002
3.490672e+003;4.574170e-002
3.492600e+003;4.551538e-002
3.494529e+003;4.561629e-002
3.496458e+003;4.567996e-002
3.498386e+003;4.583050e-002
3.500315e+003;4.625578e-002
3.502243e+003;4.647256e-002
3.504172e+003;4.645368e-002
3.506100e+003;4.666816e-002
3.508029e+003;4.683461e-002
3.509957e+003;4.672667e-002
3.511886e+003;4.646655e-002
3.513814e+003;4.677284e-002
3.515743e+003;4.727735e-002
3.517672e+003;4.735177e-002
3.519600e+003;4.708768e-002
3.521529e+003;4.706967e-002
3.523457e+003;4.720853e-002
3.525386e+003;4.734752e-002
3.527314e+003;4.778298e-002
3.529243e+003;4.813058e-002
3.531171e+003;4.821343e-002
3.533100e+003;4.825120e-002
3.535029e+003;4.805063e-002
3.536957e+003;4.799108e-002
3.538885e+003;4.845990e-002
3.540814e+003;4.898074e-002
3.542743e+003;4.877390e-002
3.544671e+003;4.857068e-002
3.546600e+003;4.880663e-002
3.548528e+003;4.894635e-002
3.550457e+003;4.870310e-002
3.552385e+003;4.840989e-002
3.554314e+003;4.842826e-002
3.556242e+003;4.856082e-002
3.558171e+003;4.819029e-002
3.560100e+003;4.773205e-002
3.562028e+003;4.788892e-002
3.563957e+003;4.789562e-002
3.565885e+003;4.734822e-002
3.567814e+003;4.706187e-002
3.569742e+003;4.701372e-002
3.571671e+003;4.693505e-002
3.573599e+003;4.690094e-002
3.575528e+003;4.661485e-002
3.577457e+003;4.613332e-002
3.579385e+003;4.575046e-002
3.581314e+003;4.546516e-002
3.583242e+003;4.496752e-002
3.585171e+003;4.455073e-002
3.587099e+003;4.418885e-002
3.589028e+003;4.397747e-002
3.590956e+003;4.404306e-002
3.592885e+003;4.378516e-002
3.594813e+003;4.366874e-002
3.596742e+003;4.380950e-002
3.598671e+003;4.346764e-002
3.600599e+003;4.319746e-002
3.602528e+003;4.374767e-002
3.604456e+003;4.387639e-002
3.606385e+003;4.291321e-002
3.608313e+003;4.259768e-002
3.610242e+003;4.322220e-002
3.612170e+003;4.345900e-002
3.614099e+003;4.349606e-002
3.616028e+003;4.348555e-002
3.617956e+003;4.319742e-002
3.619885e+003;4.327242e-002
3.621813e+003;4.390392e-002
3.623742e+003;4.433513e-002
3.625670e+003;4.393123e-002
3.627599e+003;4.236482e-002
3.629527e+003;4.229071e-002
3.631456e+003;4.361602e-002
3.633385e+003;4.420903e-002
3.635313e+003;4.417700e-002
3.637241e+003;4.393787e-002
3.639170e+003;4.363416e-002
3.641099e+003;4.348614e-002
3.643027e+003;4.351408e-002
3.644956e+003;4.308383e-002
3.646884e+003;4.182317e-002
3.648813e+003;4.094423e-002
3.650741e+003;4.142098e-002
3.652670e+003;4.223374e-002
3.654598e+003;4.149225e-002
3.656527e+003;4.082456e-002
3.658456e+003;4.138450e-002
3.660384e+003;4.165677e-002
3.662313e+003;4.131974e-002
3.664241e+003;4.090269e-002
3.666170e+003;4.081583e-002
3.668098e+003;4.001237e-002
3.670027e+003;3.873497e-002
3.671955e+003;3.867426e-002
3.673884e+003;3.833259e-002
3.675813e+003;3.824711e-002
3.677741e+003;3.972828e-002
3.679669e+003;4.052008e-002
3.681598e+003;4.074773e-002
3.683527e+003;4.106097e-002
3.685455e+003;4.100649e-002
3.687384e+003;3.961283e-002
3.689312e+003;3.898938e-002
3.691241e+003;3.945173e-002
3.693169e+003;3.954333e-002
3.695098e+003;3.932435e-002
3.697026e+003;3.915510e-002
3.698955e+003;3.883906e-002
3.700884e+003;3.842605e-002
3.702812e+003;3.845971e-002
3.704741e+003;3.844936e-002
3.706669e+003;3.824357e-002
3.708598e+003;3.739790e-002
3.710526e+003;3.631432e-002
3.712455e+003;3.610270e-002
3.714383e+003;3.696237e-002
3.716312e+003;3.745207e-002
3.718240e+003;3.720058e-002
3.720169e+003;3.691392e-002
3.722098e+003;3.701927e-002
3.724026e+003;3.750210e-002
3.725955e+003;3.793127e-002
3.727883e+003;3.809133e-002
3.729812e+003;3.787490e-002
3.731740e+003;3.743965e-002
3.733669e+003;3.702962e-002
3.735597e+003;3.651704e-002
3.737526e+003;3.706307e-002
3.739455e+003;3.794653e-002
3.741383e+003;3.767375e-002
3.743312e+003;3.557075e-002
3.745240e+003;3.572243e-002
3.747169e+003;3.661281e-002
3.749097e+003;3.557424e-002
3.751026e+003;3.522141e-002
3.752954e+003;3.660960e-002
3.754883e+003;3.852604e-002
3.756812e+003;3.882797e-002
3.758740e+003;3.873747e-002
3.760668e+003;3.896590e-002
3.762597e+003;3.931104e-002
3.764526e+003;3.910183e-002
3.766454e+003;3.858807e-002
3.768383e+003;3.790693e-002
3.770311e+003;3.785079e-002
3.772240e+003;3.816940e-002
3.774168e+003;3.801205e-002
3.776097e+003;3.776761e-002
3.778025e+003;3.782006e-002
3.779954e+003;3.794038e-002
3.781883e+003;3.807549e-002
3.783811e+003;3.813383e-002
3.785740e+003;3.772634e-002
3.787668e+003;3.755383e-002
3.789597e+003;3.811651e-002
3.791525e+003;3.866865e-002
3.793454e+003;3.852477e-002
3.795382e+003;3.813412e-002
3.797311e+003;3.792422e-002
3.799240e+003;3.678004e-002
3.801168e+003;3.629224e-002
3.803097e+003;3.738378e-002
3.805025e+003;3.743438e-002
3.806954e+003;3.742296e-002
3.808882e+003;3.855149e-002
3.810811e+003;3.891639e-002
3.812739e+003;3.886287e-002
3.814668e+003;3.761420e-002
3.816596e+003;3.724571e-002
3.818525e+003;3.735511e-002
3.820454e+003;3.677856e-002
3.822382e+003;3.773382e-002
3.824311e+003;3.858271e-002
3.826239e+003;3.830461e-002
3.828168e+003;3.793224e-002
3.830096e+003;3.735370e-002
3.832025e+003;3.698961e-002
3.833953e+003;3.722155e-002
3.835882e+003;3.667132e-002
3.837811e+003;3.613349e-002
3.839739e+003;3.683713e-002
3.841667e+003;3.765926e-002
3.843596e+003;3.844599e-002
3.845525e+003;3.868201e-002
3.847453e+003;3.827700e-002
3.849382e+003;3.726730e-002
3.851310e+003;3.523276e-002
3.853239e+003;3.410586e-002
3.855167e+003;3.596075e-002
3.857096e+003;3.798059e-002
3.859024e+003;3.867934e-002
3.860953e+003;3.807729e-002
3.862882e+003;3.712424e-002
3.864810e+003;3.701003e-002
3.866739e+003;3.728592e-002
3.868667e+003;3.682025e-002
3.870596e+003;3.706004e-002
3.872524e+003;3.747252e-002
3.874453e+003;3.764997e-002
3.876381e+003;3.819342e-002
3.878310e+003;3.832795e-002
3.880239e+003;3.815084e-002
3.882167e+003;3.847340e-002
3.884096e+003;3.784858e-002
3.886024e+003;3.749975e-002
3.887953e+003;3.840360e-002
3.889881e+003;3.802264e-002
3.891810e+003;3.776512e-002
3.893738e+003;3.842290e-002
3.895667e+003;3.854009e-002
3.897595e+003;3.812606e-002
3.899524e+003;3.799842e-002
3.901453e+003;3.844161e-002
3.903381e+003;3.876446e-002
3.905310e+003;3.885710e-002
3.907238e+003;3.931039e-002
3.909167e+003;3.978354e-002
3.911095e+003;3.978997e-002
3.913024e+003;3.942093e-002
3.914952e+003;3.928627e-002
3.916881e+003;3.954688e-002
3.918810e+003;3.981430e-002
3.920738e+003;4.017062e-002
3.922667e+003;4.021977e-002
3.924595e+003;3.968351e-002
3.926524e+003;3.953490e-002
3.928452e+003;3.985897e-002
3.930381e+003;3.989838e-002
3.932309e+003;3.961178e-002
3.934238e+003;3.965548e-002
3.936167e+003;3.970645e-002
3.938095e+003;3.979327e-002
3.940023e+003;3.981684e-002
3.941952e+003;3.983692e-002
3.943881e+003;4.006651e-002
3.945809e+003;4.001415e-002
3.947738e+003;4.008250e-002
3.949666e+003;4.017033e-002
3.951595e+003;3.994847e-002
3.953523e+003;3.973506e-002
3.955452e+003;4.059687e-002
3.957380e+003;4.103224e-002
3.959309e+003;4.101996e-002
3.961238e+003;4.119243e-002
3.963166e+003;4.128297e-002
3.965095e+003;4.083916e-002
3.967023e+003;4.057461e-002
3.968952e+003;4.034450e-002
3.970880e+003;3.993139e-002
3.972809e+003;4.020740e-002
3.974737e+003;4.066734e-002
3.976666e+003;4.109269e-002
3.978594e+003;4.096028e-002
3.980523e+003;4.074384e-002
3.982452e+003;4.106789e-002
3.984380e+003;4.123855e-002
3.986309e+003;4.093920e-002
3.988237e+003;4.060513e-002
3.990166e+003;4.061575e-002
3.992094e+003;4.048701e-002
3.994023e+003;4.057399e-002
3.995951e+003;4.058337e-002
3.997880e+003;4.038889e-002
3.999809e+003;4.045839e-002
4.001737e+003;0.000000e+000
