3.992094e+002;0.000000e+000
4.011380e+002;0.000000e+000
4.030665e+002;0.000000e+000
4.049951e+002;0.000000e+000
4.069236e+002;0.000000e+000
4.088522e+002;0.000000e+000
4.107807e+002;0.000000e+000
4.127093e+002;0.000000e+000
4.146378e+002;0.000000e+000
4.165664e+002;0.000000e+000
4.184949e+002;0.000000e+000
4.204235e+002;0.000000e+000
4.223520e+002;0.000000e+000
4.242806e+002;0.000000e+000
4.262091e+002;0.000000e+000
4.281377e+002;0.000000e+000
4.300662e+002;0.000000e+000
4.319948e+002;0.000000e+000
4.339233e+002;0.000000e+000
4.358519e+002;0.000000e+000
4.377804e+002;0.000000e+000
4.397090e+002;0.000000e+000
4.416375e+002;0.000000e+000
4.435660e+002;0.000000e+000
4.454946e+002;0.000000e+000
4.474232e+002;0.000000e+000
4.493517e+002;0.000000e+000
4.512802e+002;0.000000e+000
4.532088e+002;0.000000e+000
4.551373e+002;0.000000e+000
4.570659e+002;0.000000e+000
4.589944e+002;0.000000e+000
4.609230e+002;0.000000e+000
4.628515e+002;0.000000e+000
4.647801e+002;0.000000e+000
4.667086e+002;0.000000e+000
4.686372e+002;0.000000e+000
4.705657e+002;0.000000e+000
4.724943e+002;0.000000e+000
4.744228e+002;0.000000e+000
4.763513e+002;0.000000e+000
4.782799e+002;0.000000e+000
4.802085e+002;0.000000e+000
4.821370e+002;0.000000e+000
4.840656e+002;0.000000e+000
4.859941e+002;0.000000e+000
4.879226e+002;0.000000e+000
4.898512e+002;0.000000e+000
4.917798e+002;0.000000e+000
4.937083e+002;0.000000e+000
4.956368e+002;0.000000e+000
4.975654e+002;0.000000e+000
4.994939e+002;0.000000e+000
5.014225e+002;0.000000e+000
5.033510e+002;0.000000e+000
5.052796e+002;0.000000e+000
5.072081e+002;0.000000e+000
5.091367e+002;0.000000e+000
5.110652e+002;0.000000e+000
5.129938e+002;0.000000e+000
5.149223e+002;0.000000e+000
5.168509e+002;0.000000e+000
5.187794e+002;0.000000e+000
5.207079e+002;0.000000e+000
5.226365e+002;0.000000e+000
5.245651e+002;0.000000e+000
5.264936e+002;0.000000e+000
5.284222e+002;0.000000e+000
5.303507e+002;0.000000e+000
5.322792e+002;0.000000e+000
5.342078e+002;0.000000e+000
5.361364e+002;0.000000e+000
5.380649e+002;0.000000e+000
5.399935e+002;0.000000e+000
5.419220e+002;0.000000e+000
5.438505e+002;0.000000e+000
5.457791e+002;0.000000e+000
5.477076e+002;0.000000e+000
5.496362e+002;0.000000e+000
5.515648e+002;0.000000e+000
5.534933e+002;0.000000e+000
5.554218e+002;0.000000e+000
5.573504e+002;0.000000e+000
5.592789e+002;0.000000e+000
5.612075e+002;0.000000e+000
5.631360e+002;0.000000e+000
5.650646e+002;0.000000e+000
5.669931e+002;0.000000e+000
5.689217e+002;0.000000e+000
5.708502e+002;0.000000e+000
5.727787e+002;0.000000e+000
5.747073e+002;0.000000e+000
5.766359e+002;0.000000e+000
5.785644e+002;0.000000e+000
5.804930e+002;0.000000e+000
5.824215e+002;0.000000e+000
5.843500e+002;0.000000e+000
5.862786e+002;0.000000e+000
5.882072e+002;0.000000e+000
5.901357e+002;0.000000e+000
5.920643e+002;0.000000e+000
5.939928e+002;0.000000e+000
5.959213e+002;0.000000e+000
5.978499e+002;0.000000e+000
5.997784e+002;8.220245e-002
6.017070e+002;8.293436e-002
6.036355e+002;8.200514e-002
6.055641e+002;7.468776e-002
6.074926e+002;7.188582e-002
6.094211e+002;7.482611e-002
6.113497e+002;7.667077e-002
6.132783e+002;7.519224e-002
6.152068e+002;7.493383e-002
6.171354e+002;7.697368e-002
6.190639e+002;7.900736e-002
6.209924e+002;8.049397e-002
6.229210e+002;8.279146e-002
6.248495e+002;8.365253e-002
6.267781e+002;8.453972e-002
6.287067e+002;8.544660e-002
6.306352e+002;9.099746e-002
6.325637e+002;9.438580e-002
6.344923e+002;9.498093e-002
6.364208e+002;9.098328e-002
6.383494e+002;8.597491e-002
6.402780e+002;8.370874e-002
6.422065e+002;8.358815e-002
6.441350e+002;8.497944e-002
6.460636e+002;8.827452e-002
6.479921e+002;9.108506e-002
6.499207e+002;9.014576e-002
6.518492e+002;9.009185e-002
6.537778e+002;9.134611e-002
6.557063e+002;9.002263e-002
6.576349e+002;9.045333e-002
6.595634e+002;9.309577e-002
6.614919e+002;9.649624e-002
6.634205e+002;1.000285e-001
6.653491e+002;1.008063e-001
6.672776e+002;9.911300e-002
6.692062e+002;1.010351e-001
6.711347e+002;1.060137e-001
6.730632e+002;1.095769e-001
6.749918e+002;1.130169e-001
6.769203e+002;1.174386e-001
6.788489e+002;1.218955e-001
6.807775e+002;1.257503e-001
6.827060e+002;1.269306e-001
6.846345e+002;1.269783e-001
6.865631e+002;1.286496e-001
6.884916e+002;1.300018e-001
6.904202e+002;1.322313e-001
6.923488e+002;1.362965e-001
6.942773e+002;1.426325e-001
6.962058e+002;1.534491e-001
6.981344e+002;1.677005e-001
7.000629e+002;1.844796e-001
7.019915e+002;1.998382e-001
7.039200e+002;2.138367e-001
7.058486e+002;2.280978e-001
7.077771e+002;2.430812e-001
7.097057e+002;2.607553e-001
7.116342e+002;2.833270e-001
7.135627e+002;3.108236e-001
7.154913e+002;3.467469e-001
7.174199e+002;3.945996e-001
7.193484e+002;4.486220e-001
7.212770e+002;4.977223e-001
7.232055e+002;5.254368e-001
7.251340e+002;5.138716e-001
7.270626e+002;4.652529e-001
7.289911e+002;4.013174e-001
7.309197e+002;3.413139e-001
7.328483e+002;2.884852e-001
7.347768e+002;2.397552e-001
7.367053e+002;1.962301e-001
7.386339e+002;1.585481e-001
7.405624e+002;1.291852e-001
7.424910e+002;1.091506e-001
7.444196e+002;9.579293e-002
7.463481e+002;8.745716e-002
7.482766e+002;8.237045e-002
7.502052e+002;7.975724e-002
7.521337e+002;7.880545e-002
7.540623e+002;7.805452e-002
7.559908e+002;7.756107e-002
7.579194e+002;7.794341e-002
7.598479e+002;7.801022e-002
7.617765e+002;7.805639e-002
7.637050e+002;7.897428e-002
7.656335e+002;8.104815e-002
7.675621e+002;8.326545e-002
7.694907e+002;8.595674e-002
7.714192e+002;8.854108e-002
7.733478e+002;9.075165e-002
7.752763e+002;9.296474e-002
7.772048e+002;9.481636e-002
7.791334e+002;9.682205e-002
7.810620e+002;9.985841e-002
7.829905e+002;1.038572e-001
7.849191e+002;1.084312e-001
7.868476e+002;1.126291e-001
7.887761e+002;1.169021e-001
7.907047e+002;1.213815e-001
7.926332e+002;1.221445e-001
7.945618e+002;1.167863e-001
7.964903e+002;1.080737e-001
7.984189e+002;1.010989e-001
8.003474e+002;9.820994e-002
8.022759e+002;9.779331e-002
8.042045e+002;9.894847e-002
8.061331e+002;9.989594e-002
8.080616e+002;1.005650e-001
8.099902e+002;1.008730e-001
8.119187e+002;1.011668e-001
8.138472e+002;1.024203e-001
8.157758e+002;1.035405e-001
8.177043e+002;1.040783e-001
8.196329e+002;1.048359e-001
8.215615e+002;1.059172e-001
8.234900e+002;1.070631e-001
8.254185e+002;1.081779e-001
8.273471e+002;1.097121e-001
8.292756e+002;1.125675e-001
8.312042e+002;1.165888e-001
8.331328e+002;1.206320e-001
8.350613e+002;1.250630e-001
8.369898e+002;1.298942e-001
8.389184e+002;1.349652e-001
8.408469e+002;1.403912e-001
8.427755e+002;1.464362e-001
8.447040e+002;1.528110e-001
8.466326e+002;1.569200e-001
8.485611e+002;1.570046e-001
8.504897e+002;1.535241e-001
8.524182e+002;1.490197e-001
8.543467e+002;1.461277e-001
8.562753e+002;1.451930e-001
8.582039e+002;1.456655e-001
8.601324e+002;1.466004e-001
8.620610e+002;1.482437e-001
8.639895e+002;1.523654e-001
8.659180e+002;1.608747e-001
8.678466e+002;1.776448e-001
8.697751e+002;2.036926e-001
8.717037e+002;2.258715e-001
8.736323e+002;2.254646e-001
8.755608e+002;2.080334e-001
8.774893e+002;1.884319e-001
8.794179e+002;1.701180e-001
8.813464e+002;1.534930e-001
8.832750e+002;1.394516e-001
8.852036e+002;1.283888e-001
8.871321e+002;1.203842e-001
8.890606e+002;1.148507e-001
8.909892e+002;1.110100e-001
8.929177e+002;1.088814e-001
8.948463e+002;1.084571e-001
8.967748e+002;1.082863e-001
8.987034e+002;1.077796e-001
9.006319e+002;1.073110e-001
9.025605e+002;1.064201e-001
9.044890e+002;1.052775e-001
9.064175e+002;1.038132e-001
9.083461e+002;1.019768e-001
9.102747e+002;1.001103e-001
9.122032e+002;9.846064e-002
9.141318e+002;9.729126e-002
9.160603e+002;9.663339e-002
9.179888e+002;9.602289e-002
9.199174e+002;9.572972e-002
9.218459e+002;9.636281e-002
9.237745e+002;9.716070e-002
9.257031e+002;9.785013e-002
9.276316e+002;9.857304e-002
9.295601e+002;9.956182e-002
9.314887e+002;1.009776e-001
9.334172e+002;1.024003e-001
9.353458e+002;1.036261e-001
9.372744e+002;1.045964e-001
9.392029e+002;1.059809e-001
9.411314e+002;1.077707e-001
9.430600e+002;1.095253e-001
9.449885e+002;1.114367e-001
9.469171e+002;1.136568e-001
9.488456e+002;1.158534e-001
9.507742e+002;1.182789e-001
9.527027e+002;1.212375e-001
9.546313e+002;1.242069e-001
9.565598e+002;1.275106e-001
9.584883e+002;1.310219e-001
9.604169e+002;1.343274e-001
9.623455e+002;1.376024e-001
9.642740e+002;1.409821e-001
9.662026e+002;1.438925e-001
9.681311e+002;1.460032e-001
9.700596e+002;1.468997e-001
9.719882e+002;1.461573e-001
9.739167e+002;1.439127e-001
9.758453e+002;1.408918e-001
9.777739e+002;1.378626e-001
9.797024e+002;1.351571e-001
9.816309e+002;1.324408e-001
9.835595e+002;1.302087e-001
9.854880e+002;1.293469e-001
9.874166e+002;1.287877e-001
9.893452e+002;1.280471e-001
9.912737e+002;1.272821e-001
9.932022e+002;1.274821e-001
9.951307e+002;1.285748e-001
9.970593e+002;1.299060e-001
9.989879e+002;1.312842e-001
1.000916e+003;1.334156e-001
1.002845e+003;1.367905e-001
1.004773e+003;1.415374e-001
1.006702e+003;1.480532e-001
1.008631e+003;1.580110e-001
1.010559e+003;1.728753e-001
1.012488e+003;1.958017e-001
1.014416e+003;2.276801e-001
1.016345e+003;2.580982e-001
1.018273e+003;2.700629e-001
1.020202e+003;2.575553e-001
1.022130e+003;2.307836e-001
1.024059e+003;2.019643e-001
1.025988e+003;1.759433e-001
1.027916e+003;1.557351e-001
1.029845e+003;1.441719e-001
1.031773e+003;1.399919e-001
1.033702e+003;1.397144e-001
1.035630e+003;1.416703e-001
1.037559e+003;1.443556e-001
1.039487e+003;1.466301e-001
1.041416e+003;1.488119e-001
1.043344e+003;1.513741e-001
1.045273e+003;1.531923e-001
1.047202e+003;1.545893e-001
1.049130e+003;1.558989e-001
1.051059e+003;1.570197e-001
1.052987e+003;1.582364e-001
1.054916e+003;1.595628e-001
1.056844e+003;1.623781e-001
1.058773e+003;1.662399e-001
1.060701e+003;1.709794e-001
1.062630e+003;1.768856e-001
1.064558e+003;1.838883e-001
1.066487e+003;1.920044e-001
1.068416e+003;2.016582e-001
1.070344e+003;2.134350e-001
1.072273e+003;2.277556e-001
1.074201e+003;2.451815e-001
1.076130e+003;2.663534e-001
1.078058e+003;2.905680e-001
1.079987e+003;3.162708e-001
1.081915e+003;3.419673e-001
1.083844e+003;3.658029e-001
1.085773e+003;3.854205e-001
1.087701e+003;4.023693e-001
1.089630e+003;4.172105e-001
1.091558e+003;4.300591e-001
1.093487e+003;4.413134e-001
1.095415e+003;4.503766e-001
1.097344e+003;4.547985e-001
1.099272e+003;4.520621e-001
1.101201e+003;4.421325e-001
1.103129e+003;4.263564e-001
1.105058e+003;4.054106e-001
1.106987e+003;3.820472e-001
1.108915e+003;3.592376e-001
1.110844e+003;3.419437e-001
1.112772e+003;3.338722e-001
1.114701e+003;3.321041e-001
1.116629e+003;3.302415e-001
1.118558e+003;3.256784e-001
1.120486e+003;3.181362e-001
1.122415e+003;3.069261e-001
1.124344e+003;2.929685e-001
1.126272e+003;2.774237e-001
1.128201e+003;2.592710e-001
1.130129e+003;2.401992e-001
1.132058e+003;2.221668e-001
1.133986e+003;2.050982e-001
1.135915e+003;1.889250e-001
1.137843e+003;1.741759e-001
1.139772e+003;1.612537e-001
1.141700e+003;1.515512e-001
1.143629e+003;1.434502e-001
1.145557e+003;1.355198e-001
1.147486e+003;1.289888e-001
1.149415e+003;1.236795e-001
1.151343e+003;1.188632e-001
1.153272e+003;1.148252e-001
1.155200e+003;1.116941e-001
1.157129e+003;1.091486e-001
1.159057e+003;1.074598e-001
1.160986e+003;1.073411e-001
1.162914e+003;1.080404e-001
1.164843e+003;1.092304e-001
1.166771e+003;1.122775e-001
1.168700e+003;1.166898e-001
1.170629e+003;1.214779e-001
1.172557e+003;1.253766e-001
1.174486e+003;1.277276e-001
1.176414e+003;1.280939e-001
1.178343e+003;1.267679e-001
1.180271e+003;1.246140e-001
1.182200e+003;1.221015e-001
1.184128e+003;1.206678e-001
1.186057e+003;1.202570e-001
1.187986e+003;1.208912e-001
1.189914e+003;1.229967e-001
1.191843e+003;1.260027e-001
1.193771e+003;1.295790e-001
1.195700e+003;1.336007e-001
1.197628e+003;1.383649e-001
1.199557e+003;1.436887e-001
1.201485e+003;1.490284e-001
1.203414e+003;1.550595e-001
1.205343e+003;1.621573e-001
1.207271e+003;1.693438e-001
1.209200e+003;1.768053e-001
1.211128e+003;1.853369e-001
1.213057e+003;1.946546e-001
1.214985e+003;2.044660e-001
1.216914e+003;2.153667e-001
1.218842e+003;2.269686e-001
1.220771e+003;2.385816e-001
1.222699e+003;2.501174e-001
1.224628e+003;2.617037e-001
1.226557e+003;2.750948e-001
1.228485e+003;2.926975e-001
1.230414e+003;3.155002e-001
1.232342e+003;3.430579e-001
1.234271e+003;3.752494e-001
1.236199e+003;4.107293e-001
1.238128e+003;4.467294e-001
1.240056e+003;4.790612e-001
1.241985e+003;5.040393e-001
1.243913e+003;5.195332e-001
1.245842e+003;5.241777e-001
1.247771e+003;5.193048e-001
1.249699e+003;5.087456e-001
1.251628e+003;4.956506e-001
1.253556e+003;4.819923e-001
1.255485e+003;4.683679e-001
1.257413e+003;4.561483e-001
1.259342e+003;4.444721e-001
1.261270e+003;4.310999e-001
1.263199e+003;4.153207e-001
1.265127e+003;3.959224e-001
1.267056e+003;3.734218e-001
1.268985e+003;3.514155e-001
1.270913e+003;3.311664e-001
1.272842e+003;3.118590e-001
1.274770e+003;2.942809e-001
1.276699e+003;2.792632e-001
1.278627e+003;2.661103e-001
1.280556e+003;2.540351e-001
1.282484e+003;2.425495e-001
1.284413e+003;2.316241e-001
1.286342e+003;2.211486e-001
1.288270e+003;2.110677e-001
1.290199e+003;2.005681e-001
1.292127e+003;1.893788e-001
1.294056e+003;1.783397e-001
1.295984e+003;1.677993e-001
1.297913e+003;1.574769e-001
1.299841e+003;1.477631e-001
1.301770e+003;1.389955e-001
1.303698e+003;1.319085e-001
1.305627e+003;1.260689e-001
1.307556e+003;1.203666e-001
1.309484e+003;1.147863e-001
1.311413e+003;1.100708e-001
1.313341e+003;1.060511e-001
1.315270e+003;1.023591e-001
1.317198e+003;9.905139e-002
1.319127e+003;9.664651e-002
1.321055e+003;9.514887e-002
1.322984e+003;9.451932e-002
1.324912e+003;9.532417e-002
1.326841e+003;9.880032e-002
1.328770e+003;1.062464e-001
1.330698e+003;1.194566e-001
1.332627e+003;1.379293e-001
1.334555e+003;1.580330e-001
1.336484e+003;1.744177e-001
1.338412e+003;1.818171e-001
1.340341e+003;1.774902e-001
1.342269e+003;1.635192e-001
1.344198e+003;1.450271e-001
1.346126e+003;1.266332e-001
1.348055e+003;1.114110e-001
1.349984e+003;1.001001e-001
1.351912e+003;9.217661e-002
1.353841e+003;8.700006e-002
1.355769e+003;8.381691e-002
1.357698e+003;8.187830e-002
1.359626e+003;8.128937e-002
1.361555e+003;8.205629e-002
1.363483e+003;8.354589e-002
1.365412e+003;8.567344e-002
1.367341e+003;8.804891e-002
1.369269e+003;8.968351e-002
1.371198e+003;9.038127e-002
1.373126e+003;9.055059e-002
1.375055e+003;9.023686e-002
1.376983e+003;9.007971e-002
1.378912e+003;9.003364e-002
1.380840e+003;9.035822e-002
1.382769e+003;9.110084e-002
1.384698e+003;9.186008e-002
1.386626e+003;9.279723e-002
1.388555e+003;9.402285e-002
1.390483e+003;9.542315e-002
1.392412e+003;9.709175e-002
1.394340e+003;9.966146e-002
1.396269e+003;1.037860e-001
1.398197e+003;1.095866e-001
1.400126e+003;1.178158e-001
1.402054e+003;1.287603e-001
1.403983e+003;1.424720e-001
1.405911e+003;1.573367e-001
1.407840e+003;1.677638e-001
1.409769e+003;1.680782e-001
1.411697e+003;1.565273e-001
1.413626e+003;1.371085e-001
1.415554e+003;1.162311e-001
1.417483e+003;9.882403e-002
1.419411e+003;8.686407e-002
1.421340e+003;7.971121e-002
1.423268e+003;7.568797e-002
1.425197e+003;7.393821e-002
1.427125e+003;7.359906e-002
1.429054e+003;7.431079e-002
1.430983e+003;7.605159e-002
1.432911e+003;7.841370e-002
1.434840e+003;8.066418e-002
1.436768e+003;8.266021e-002
1.438697e+003;8.486530e-002
1.440625e+003;8.655623e-002
1.442554e+003;8.801588e-002
1.444482e+003;8.985120e-002
1.446411e+003;9.181902e-002
1.448340e+003;9.363035e-002
1.450268e+003;9.547152e-002
1.452197e+003;9.702836e-002
1.454125e+003;9.793527e-002
1.456054e+003;9.797849e-002
1.457982e+003;9.811054e-002
1.459911e+003;9.852153e-002
1.461839e+003;9.833658e-002
1.463768e+003;9.768853e-002
1.465697e+003;9.786627e-002
1.467625e+003;9.975738e-002
1.469554e+003;1.027309e-001
1.471482e+003;1.039548e-001
1.473411e+003;1.024844e-001
1.475339e+003;9.963583e-002
1.477268e+003;9.614099e-002
1.479196e+003;9.230806e-002
1.481125e+003;8.839854e-002
1.483053e+003;8.456907e-002
1.484982e+003;8.065636e-002
1.486911e+003;7.707596e-002
1.488839e+003;7.408618e-002
1.490768e+003;7.204123e-002
1.492696e+003;7.122568e-002
1.494625e+003;7.121639e-002
1.496553e+003;7.259902e-002
1.498482e+003;7.664476e-002
1.500410e+003;8.344489e-002
1.502339e+003;9.218395e-002
1.504267e+003;9.919922e-002
1.506196e+003;9.849663e-002
1.508125e+003;9.066084e-002
1.510053e+003;8.172445e-002
1.511982e+003;7.515607e-002
1.513910e+003;7.145138e-002
1.515839e+003;6.965093e-002
1.517767e+003;6.903184e-002
1.519696e+003;6.904081e-002
1.521624e+003;6.939229e-002
1.523553e+003;6.989753e-002
1.525481e+003;6.995261e-002
1.527410e+003;6.981406e-002
1.529339e+003;6.968302e-002
1.531267e+003;6.914236e-002
1.533196e+003;6.801691e-002
1.535124e+003;6.723846e-002
1.537053e+003;6.672391e-002
1.538981e+003;6.602033e-002
1.540910e+003;6.596062e-002
1.542838e+003;6.639400e-002
1.544767e+003;6.658287e-002
1.546695e+003;6.683910e-002
1.548624e+003;6.738142e-002
1.550553e+003;6.798634e-002
1.552481e+003;6.818082e-002
1.554410e+003;6.822048e-002
1.556338e+003;6.817877e-002
1.558267e+003;6.795658e-002
1.560195e+003;6.876943e-002
1.562124e+003;7.015312e-002
1.564052e+003;7.102584e-002
1.565981e+003;7.210753e-002
1.567910e+003;7.350333e-002
1.569838e+003;7.519203e-002
1.571767e+003;7.739171e-002
1.573695e+003;7.986175e-002
1.575624e+003;8.234609e-002
1.577552e+003;8.459709e-002
1.579481e+003;8.531999e-002
1.581409e+003;8.395936e-002
1.583338e+003;8.134966e-002
1.585266e+003;7.842968e-002
1.587195e+003;7.616276e-002
1.589124e+003;7.468635e-002
1.591052e+003;7.373799e-002
1.592981e+003;7.307766e-002
1.594909e+003;7.292004e-002
1.596838e+003;7.341162e-002
1.598766e+003;7.421541e-002
1.600695e+003;7.540724e-002
1.602623e+003;7.685724e-002
1.604552e+003;7.834849e-002
1.606480e+003;7.996698e-002
1.608409e+003;8.152776e-002
1.610338e+003;8.324899e-002
1.612266e+003;8.476891e-002
1.614195e+003;8.543905e-002
1.616123e+003;8.509418e-002
1.618052e+003;8.434642e-002
1.619980e+003;8.327424e-002
1.621909e+003;8.205309e-002
1.623837e+003;8.159605e-002
1.625766e+003;8.184173e-002
1.627694e+003;8.212714e-002
1.629623e+003;8.273020e-002
1.631552e+003;8.347353e-002
1.633480e+003;8.385164e-002
1.635409e+003;8.439387e-002
1.637337e+003;8.569475e-002
1.639266e+003;8.722222e-002
1.641194e+003;8.840187e-002
1.643123e+003;8.921032e-002
1.645051e+003;9.010706e-002
1.646980e+003;9.119840e-002
1.648909e+003;9.272639e-002
1.650837e+003;9.394012e-002
1.652766e+003;9.500052e-002
1.654694e+003;9.722710e-002
1.656623e+003;9.995183e-002
1.658551e+003;1.027068e-001
1.660480e+003;1.055356e-001
1.662408e+003;1.083346e-001
1.664337e+003;1.120571e-001
1.666266e+003;1.163998e-001
1.668194e+003;1.204237e-001
1.670123e+003;1.242426e-001
1.672051e+003;1.282052e-001
1.673980e+003;1.323714e-001
1.675908e+003;1.371336e-001
1.677837e+003;1.424745e-001
1.679765e+003;1.476327e-001
1.681694e+003;1.524304e-001
1.683622e+003;1.566234e-001
1.685551e+003;1.613066e-001
1.687479e+003;1.671581e-001
1.689408e+003;1.743086e-001
1.691337e+003;1.834351e-001
1.693265e+003;1.948218e-001
1.695194e+003;2.090292e-001
1.697122e+003;2.270803e-001
1.699051e+003;2.489764e-001
1.700979e+003;2.772859e-001
1.702908e+003;3.121453e-001
1.704836e+003;3.544066e-001
1.706765e+003;4.039956e-001
1.708693e+003;4.568618e-001
1.710622e+003;5.058303e-001
1.712551e+003;5.413337e-001
1.714479e+003;5.537609e-001
1.716408e+003;5.412176e-001
1.718336e+003;5.113824e-001
1.720265e+003;4.743180e-001
1.722193e+003;4.353510e-001
1.724122e+003;3.975292e-001
1.726050e+003;3.609949e-001
1.727979e+003;3.265101e-001
1.729908e+003;2.945470e-001
1.731836e+003;2.651485e-001
1.733765e+003;2.372558e-001
1.735693e+003;2.116728e-001
1.737622e+003;1.880592e-001
1.739550e+003;1.654270e-001
1.741479e+003;1.443468e-001
1.743407e+003;1.253042e-001
1.745336e+003;1.089124e-001
1.747265e+003;9.582672e-002
1.749193e+003;8.574141e-002
1.751122e+003;7.817324e-002
1.753050e+003;7.295331e-002
1.754979e+003;6.916987e-002
1.756907e+003;6.652965e-002
1.758836e+003;6.479222e-002
1.760764e+003;6.322701e-002
1.762693e+003;6.217488e-002
1.764621e+003;6.157387e-002
1.766550e+003;6.091876e-002
1.768479e+003;6.027468e-002
1.770407e+003;5.957276e-002
1.772336e+003;5.912016e-002
1.774264e+003;5.916234e-002
1.776193e+003;5.917415e-002
1.778121e+003;5.910729e-002
1.780050e+003;5.906845e-002
1.781978e+003;5.894650e-002
1.783907e+003;5.884302e-002
1.785835e+003;5.881126e-002
1.787764e+003;5.867937e-002
1.789693e+003;5.838792e-002
1.791621e+003;5.836836e-002
1.793550e+003;5.847127e-002
1.795478e+003;5.861729e-002
1.797407e+003;5.875876e-002
1.799335e+003;5.885000e-002
1.801264e+003;5.896426e-002
1.803192e+003;5.922150e-002
1.805121e+003;5.945298e-002
1.807049e+003;5.938612e-002
1.808978e+003;5.948813e-002
1.810907e+003;5.960472e-002
1.812835e+003;5.960176e-002
1.814764e+003;5.966991e-002
1.816692e+003;5.946605e-002
1.818621e+003;5.936852e-002
1.820549e+003;5.937730e-002
1.822478e+003;5.933703e-002
1.824406e+003;5.922382e-002
1.826335e+003;5.911712e-002
1.828264e+003;5.898282e-002
1.830192e+003;5.876915e-002
1.832121e+003;5.836275e-002
1.834049e+003;5.791073e-002
1.835978e+003;5.766376e-002
1.837906e+003;5.726936e-002
1.839835e+003;5.668216e-002
1.841763e+003;5.602427e-002
1.843692e+003;5.530047e-002
1.845620e+003;5.485060e-002
1.847549e+003;5.435137e-002
1.849478e+003;5.362963e-002
1.851406e+003;5.316382e-002
1.853335e+003;5.260956e-002
1.855263e+003;5.182694e-002
1.857192e+003;5.103976e-002
1.859120e+003;5.032741e-002
1.861049e+003;4.985192e-002
1.862977e+003;4.952567e-002
1.864906e+003;4.911784e-002
1.866834e+003;4.859091e-002
1.868763e+003;4.825035e-002
1.870692e+003;4.813809e-002
1.872620e+003;4.797539e-002
1.874549e+003;4.755364e-002
1.876477e+003;4.735879e-002
1.878406e+003;4.741422e-002
1.880334e+003;4.732472e-002
1.882263e+003;4.696551e-002
1.884191e+003;4.675649e-002
1.886120e+003;4.679852e-002
1.888048e+003;4.710305e-002
1.889977e+003;4.718755e-002
1.891906e+003;4.711583e-002
1.893834e+003;4.707542e-002
1.895763e+003;4.708791e-002
1.897691e+003;4.713710e-002
1.899620e+003;4.720913e-002
1.901548e+003;4.737834e-002
1.903477e+003;4.757963e-002
1.905405e+003;4.785330e-002
1.907334e+003;4.800622e-002
1.909262e+003;4.827719e-002
1.911191e+003;4.887445e-002
1.913120e+003;4.926898e-002
1.915048e+003;4.933576e-002
1.916977e+003;4.933813e-002
1.918905e+003;4.973461e-002
1.920834e+003;5.027986e-002
1.922762e+003;5.082314e-002
1.924691e+003;5.136208e-002
1.926619e+003;5.190307e-002
1.928548e+003;5.267112e-002
1.930477e+003;5.336354e-002
1.932405e+003;5.376769e-002
1.934334e+003;5.430868e-002
1.936262e+003;5.506288e-002
1.938191e+003;5.575332e-002
1.940119e+003;5.649947e-002
1.942048e+003;5.734516e-002
1.943976e+003;5.814121e-002
1.945905e+003;5.868855e-002
1.947833e+003;5.894991e-002
1.949762e+003;5.912065e-002
1.951691e+003;5.933575e-002
1.953619e+003;5.978237e-002
1.955548e+003;6.037629e-002
1.957476e+003;6.025005e-002
1.959405e+003;5.962555e-002
1.961333e+003;5.933787e-002
1.963262e+003;5.920141e-002
1.965190e+003;5.864482e-002
1.967119e+003;5.773683e-002
1.969047e+003;5.696971e-002
1.970976e+003;5.626152e-002
1.972905e+003;5.552614e-002
1.974833e+003;5.482214e-002
1.976762e+003;5.422435e-002
1.978690e+003;5.381074e-002
1.980619e+003;5.363713e-002
1.982547e+003;5.337733e-002
1.984476e+003;5.294210e-002
1.986404e+003;5.247157e-002
1.988333e+003;5.190818e-002
1.990261e+003;5.127784e-002
1.992190e+003;5.093744e-002
1.994119e+003;5.054589e-002
1.996047e+003;4.989749e-002
1.997976e+003;4.937611e-002
1.999904e+003;4.907340e-002
2.001833e+003;4.864216e-002
2.003761e+003;4.815331e-002
2.005690e+003;4.772525e-002
2.007618e+003;4.723369e-002
2.009547e+003;4.679527e-002
2.011476e+003;4.646913e-002
2.013404e+003;4.636062e-002
2.015333e+003;4.612514e-002
2.017261e+003;4.588235e-002
2.019190e+003;4.595568e-002
2.021118e+003;4.580086e-002
2.023047e+003;4.529301e-002
2.024975e+003;4.481699e-002
2.026904e+003;4.466504e-002
2.028833e+003;4.472563e-002
2.030761e+003;4.452066e-002
2.032690e+003;4.425448e-002
2.034618e+003;4.429235e-002
2.036547e+003;4.466173e-002
2.038475e+003;4.491652e-002
2.040404e+003;4.482676e-002
2.042332e+003;4.502176e-002
2.044261e+003;4.531269e-002
2.046189e+003;4.542429e-002
2.048118e+003;4.552260e-002
2.050047e+003;4.578090e-002
2.051975e+003;4.619066e-002
2.053904e+003;4.659925e-002
2.055832e+003;4.686506e-002
2.057761e+003;4.717086e-002
2.059689e+003;4.756799e-002
2.061618e+003;4.812584e-002
2.063546e+003;4.854363e-002
2.065475e+003;4.869338e-002
2.067404e+003;4.915209e-002
2.069332e+003;4.971050e-002
2.071260e+003;5.016530e-002
2.073189e+003;5.068144e-002
2.075118e+003;5.104468e-002
2.077046e+003;5.133504e-002
2.078975e+003;5.156713e-002
2.080903e+003;5.167513e-002
2.082832e+003;5.185624e-002
2.084760e+003;5.212997e-002
2.086689e+003;5.232514e-002
2.088617e+003;5.244009e-002
2.090546e+003;5.246252e-002
2.092475e+003;5.264131e-002
2.094403e+003;5.269192e-002
2.096332e+003;5.263203e-002
2.098260e+003;5.259605e-002
2.100189e+003;5.243183e-002
2.102117e+003;5.244764e-002
2.104046e+003;5.261939e-002
2.105974e+003;5.274347e-002
2.107903e+003;5.284038e-002
2.109832e+003;5.277445e-002
2.111760e+003;5.251876e-002
2.113688e+003;5.234046e-002
2.115617e+003;5.228799e-002
2.117546e+003;5.224445e-002
2.119474e+003;5.194817e-002
2.121403e+003;5.158922e-002
2.123331e+003;5.126020e-002
2.125260e+003;5.084706e-002
2.127188e+003;5.058870e-002
2.129117e+003;5.038943e-002
2.131045e+003;4.995094e-002
2.132974e+003;4.955493e-002
2.134903e+003;4.929207e-002
2.136831e+003;4.890078e-002
2.138760e+003;4.851966e-002
2.140688e+003;4.854422e-002
2.142617e+003;4.849943e-002
2.144545e+003;4.801910e-002
2.146474e+003;4.766223e-002
2.148402e+003;4.740143e-002
2.150331e+003;4.694140e-002
2.152260e+003;4.668520e-002
2.154188e+003;4.649837e-002
2.156117e+003;4.598592e-002
2.158045e+003;4.556933e-002
2.159974e+003;4.529647e-002
2.161902e+003;4.492185e-002
2.163831e+003;4.445786e-002
2.165759e+003;4.419094e-002
2.167688e+003;4.406393e-002
2.169616e+003;4.376885e-002
2.171545e+003;4.355141e-002
2.173474e+003;4.343970e-002
2.175402e+003;4.325866e-002
2.177331e+003;4.303030e-002
2.179259e+003;4.279641e-002
2.181188e+003;4.264849e-002
2.183116e+003;4.260152e-002
2.185045e+003;4.260086e-002
2.186973e+003;4.248070e-002
2.188902e+003;4.251955e-002
2.190831e+003;4.265942e-002
2.192759e+003;4.276302e-002
2.194688e+003;4.276690e-002
2.196616e+003;4.285546e-002
2.198545e+003;4.282226e-002
2.200473e+003;4.287108e-002
2.202402e+003;4.309733e-002
2.204330e+003;4.324592e-002
2.206259e+003;4.366446e-002
2.208188e+003;4.405469e-002
2.210116e+003;4.404215e-002
2.212044e+003;4.396746e-002
2.213973e+003;4.401600e-002
2.215902e+003;4.424425e-002
2.217830e+003;4.434332e-002
2.219759e+003;4.453917e-002
2.221687e+003;4.478415e-002
2.223616e+003;4.474440e-002
2.225544e+003;4.456013e-002
2.227473e+003;4.446179e-002
2.229401e+003;4.466188e-002
2.231330e+003;4.481361e-002
2.233259e+003;4.491380e-002
2.235187e+003;4.502232e-002
2.237116e+003;4.502423e-002
2.239044e+003;4.513016e-002
2.240973e+003;4.538897e-002
2.242901e+003;4.561765e-002
2.244830e+003;4.586029e-002
2.246758e+003;4.602917e-002
2.248687e+003;4.584866e-002
2.250615e+003;4.601561e-002
2.252544e+003;4.639660e-002
2.254473e+003;4.658361e-002
2.256401e+003;4.672011e-002
2.258330e+003;4.693257e-002
2.260258e+003;4.691833e-002
2.262187e+003;4.674734e-002
2.264115e+003;4.674556e-002
2.266044e+003;4.652260e-002
2.267972e+003;4.637555e-002
2.269901e+003;4.655170e-002
2.271830e+003;4.669162e-002
2.273758e+003;4.675121e-002
2.275687e+003;4.694192e-002
2.277615e+003;4.712148e-002
2.279544e+003;4.720790e-002
2.281472e+003;4.724621e-002
2.283401e+003;4.727311e-002
2.285329e+003;4.729487e-002
2.287258e+003;4.714836e-002
2.289187e+003;4.690105e-002
2.291115e+003;4.649177e-002
2.293043e+003;4.609412e-002
2.294972e+003;4.563167e-002
2.296901e+003;4.488003e-002
2.298829e+003;4.446498e-002
2.300758e+003;4.408392e-002
2.302686e+003;4.352859e-002
2.304615e+003;4.326565e-002
2.306543e+003;4.284881e-002
2.308472e+003;4.213504e-002
2.310400e+003;4.175889e-002
2.312329e+003;4.180081e-002
2.314258e+003;4.187892e-002
2.316186e+003;4.184415e-002
2.318115e+003;4.164200e-002
2.320043e+003;4.130844e-002
2.321972e+003;4.102565e-002
2.323900e+003;4.087877e-002
2.325829e+003;4.070726e-002
2.327757e+003;4.064511e-002
2.329686e+003;4.046406e-002
2.331615e+003;4.017259e-002
2.333543e+003;4.009471e-002
2.335472e+003;4.018716e-002
2.337400e+003;4.034122e-002
2.339329e+003;4.037955e-002
2.341257e+003;4.058075e-002
2.343186e+003;4.140137e-002
2.345114e+003;4.226142e-002
2.347043e+003;4.293044e-002
2.348971e+003;4.351738e-002
2.350900e+003;4.341747e-002
2.352829e+003;4.288578e-002
2.354757e+003;4.238655e-002
2.356686e+003;4.216772e-002
2.358614e+003;4.205535e-002
2.360543e+003;4.223384e-002
2.362471e+003;4.269429e-002
2.364400e+003;4.298567e-002
2.366328e+003;4.327692e-002
2.368257e+003;4.412697e-002
2.370186e+003;4.499450e-002
2.372114e+003;4.585090e-002
2.374042e+003;4.675132e-002
2.375971e+003;4.732760e-002
2.377900e+003;4.777632e-002
2.379828e+003;4.815031e-002
2.381757e+003;4.819455e-002
2.383685e+003;4.809016e-002
2.385614e+003;4.817182e-002
2.387542e+003;4.837929e-002
2.389471e+003;4.836900e-002
2.391399e+003;4.825620e-002
2.393328e+003;4.826171e-002
2.395257e+003;4.823476e-002
2.397185e+003;4.797006e-002
2.399114e+003;4.759985e-002
2.401042e+003;4.752617e-002
2.402971e+003;4.750821e-002
2.404899e+003;4.735942e-002
2.406828e+003;4.707232e-002
2.408756e+003;4.696314e-002
2.410685e+003;4.697540e-002
2.412614e+003;4.670059e-002
2.414542e+003;4.630964e-002
2.416471e+003;4.595726e-002
2.418399e+003;4.562568e-002
2.420328e+003;4.533575e-002
2.422256e+003;4.526474e-002
2.424185e+003;4.504382e-002
2.426113e+003;4.458859e-002
2.428042e+003;4.417880e-002
2.429970e+003;4.386697e-002
2.431899e+003;4.380030e-002
2.433828e+003;4.364925e-002
2.435756e+003;4.332056e-002
2.437685e+003;4.302683e-002
2.439613e+003;4.277820e-002
2.441542e+003;4.265434e-002
2.443470e+003;4.255050e-002
2.445399e+003;4.236580e-002
2.447327e+003;4.226204e-002
2.449256e+003;4.204888e-002
2.451185e+003;4.180304e-002
2.453113e+003;4.178892e-002
2.455042e+003;4.188936e-002
2.456970e+003;4.169149e-002
2.458899e+003;4.138690e-002
2.460827e+003;4.136311e-002
2.462756e+003;4.162610e-002
2.464684e+003;4.156363e-002
2.466613e+003;4.146895e-002
2.468542e+003;4.166082e-002
2.470470e+003;4.204801e-002
2.472398e+003;4.229538e-002
2.474327e+003;4.234612e-002
2.476256e+003;4.227347e-002
2.478184e+003;4.232555e-002
2.480113e+003;4.265755e-002
2.482041e+003;4.280562e-002
2.483970e+003;4.276068e-002
2.485898e+003;4.302965e-002
2.487827e+003;4.352862e-002
2.489755e+003;4.386169e-002
2.491684e+003;4.395572e-002
2.493613e+003;4.410691e-002
2.495541e+003;4.402132e-002
2.497470e+003;4.396228e-002
2.499398e+003;4.407368e-002
2.501327e+003;4.422114e-002
2.503255e+003;4.468340e-002
2.505184e+003;4.484002e-002
2.507112e+003;4.468399e-002
2.509041e+003;4.481070e-002
2.510969e+003;4.501945e-002
2.512898e+003;4.514788e-002
2.514827e+003;4.519156e-002
2.516755e+003;4.544452e-002
2.518684e+003;4.570032e-002
2.520612e+003;4.577376e-002
2.522541e+003;4.588173e-002
2.524469e+003;4.627384e-002
2.526398e+003;4.672479e-002
2.528326e+003;4.695587e-002
2.530255e+003;4.689644e-002
2.532184e+003;4.675715e-002
2.534112e+003;4.668712e-002
2.536041e+003;4.690954e-002
2.537969e+003;4.709068e-002
2.539898e+003;4.698068e-002
2.541826e+003;4.673206e-002
2.543755e+003;4.665750e-002
2.545683e+003;4.674295e-002
2.547612e+003;4.682948e-002
2.549541e+003;4.693509e-002
2.551469e+003;4.698611e-002
2.553397e+003;4.710035e-002
2.555326e+003;4.732191e-002
2.557255e+003;4.714238e-002
2.559183e+003;4.695011e-002
2.561112e+003;4.702742e-002
2.563040e+003;4.706324e-002
2.564969e+003;4.695694e-002
2.566897e+003;4.684949e-002
2.568826e+003;4.675981e-002
2.570754e+003;4.659408e-002
2.572683e+003;4.674453e-002
2.574612e+003;4.702727e-002
2.576540e+003;4.692778e-002
2.578469e+003;4.687193e-002
2.580397e+003;4.697252e-002
2.582326e+003;4.683421e-002
2.584254e+003;4.691475e-002
2.586183e+003;4.693881e-002
2.588111e+003;4.652094e-002
2.590040e+003;4.628726e-002
2.591969e+003;4.611291e-002
2.593897e+003;4.570827e-002
2.595826e+003;4.540067e-002
2.597754e+003;4.508613e-002
2.599683e+003;4.466680e-002
2.601611e+003;4.437818e-002
2.603540e+003;4.421618e-002
2.605468e+003;4.404853e-002
2.607397e+003;4.405582e-002
2.609325e+003;4.405652e-002
2.611254e+003;4.381298e-002
2.613183e+003;4.359921e-002
2.615111e+003;4.369300e-002
2.617040e+003;4.379924e-002
2.618968e+003;4.368051e-002
2.620897e+003;4.356133e-002
2.622825e+003;4.332096e-002
2.624754e+003;4.328896e-002
2.626682e+003;4.343223e-002
2.628611e+003;4.364163e-002
2.630540e+003;4.379869e-002
2.632468e+003;4.355448e-002
2.634396e+003;4.340345e-002
2.636325e+003;4.302540e-002
2.638254e+003;4.253230e-002
2.640182e+003;4.211583e-002
2.642111e+003;4.164586e-002
2.644039e+003;4.142321e-002
2.645968e+003;4.130684e-002
2.647896e+003;4.086708e-002
2.649825e+003;4.051233e-002
2.651753e+003;4.040439e-002
2.653682e+003;4.031843e-002
2.655611e+003;4.033064e-002
2.657539e+003;4.043268e-002
2.659468e+003;4.051385e-002
2.661396e+003;4.037675e-002
2.663325e+003;4.013962e-002
2.665253e+003;3.999526e-002
2.667182e+003;3.987702e-002
2.669110e+003;3.994763e-002
2.671039e+003;4.018342e-002
2.672968e+003;4.022206e-002
2.674896e+003;4.013344e-002
2.676825e+003;4.010339e-002
2.678753e+003;4.042650e-002
2.680682e+003;4.093425e-002
2.682610e+003;4.097703e-002
2.684539e+003;4.082325e-002
2.686467e+003;4.047170e-002
2.688396e+003;4.035202e-002
2.690324e+003;4.056798e-002
2.692253e+003;4.083264e-002
2.694182e+003;4.093028e-002
2.696110e+003;4.086031e-002
2.698039e+003;4.083537e-002
2.699967e+003;4.115578e-002
2.701896e+003;4.127696e-002
2.703824e+003;4.107037e-002
2.705753e+003;4.071468e-002
2.707681e+003;4.087942e-002
2.709610e+003;4.134463e-002
2.711539e+003;4.166873e-002
2.713467e+003;4.183229e-002
2.715396e+003;4.176922e-002
2.717324e+003;4.162402e-002
2.719253e+003;4.176196e-002
2.721181e+003;4.207604e-002
2.723110e+003;4.244048e-002
2.725038e+003;4.286906e-002
2.726967e+003;4.309119e-002
2.728896e+003;4.311018e-002
2.730824e+003;4.314666e-002
2.732752e+003;4.325584e-002
2.734681e+003;4.329153e-002
2.736610e+003;4.353291e-002
2.738538e+003;4.404343e-002
2.740467e+003;4.414902e-002
2.742395e+003;4.399723e-002
2.744324e+003;4.389333e-002
2.746252e+003;4.400001e-002
2.748181e+003;4.410761e-002
2.750109e+003;4.398495e-002
2.752038e+003;4.382529e-002
2.753967e+003;4.407467e-002
2.755895e+003;4.447830e-002
2.757824e+003;4.469420e-002
2.759752e+003;4.458385e-002
2.761681e+003;4.458135e-002
2.763609e+003;4.468292e-002
2.765538e+003;4.477496e-002
2.767466e+003;4.484770e-002
2.769395e+003;4.487860e-002
2.771323e+003;4.489373e-002
2.773252e+003;4.489785e-002
2.775181e+003;4.533774e-002
2.777109e+003;4.578113e-002
2.779038e+003;4.574733e-002
2.780966e+003;4.579519e-002
2.782895e+003;4.603362e-002
2.784823e+003;4.613328e-002
2.786752e+003;4.659467e-002
2.788680e+003;4.725700e-002
2.790609e+003;4.760019e-002
2.792538e+003;4.807831e-002
2.794466e+003;4.867422e-002
2.796395e+003;4.888873e-002
2.798323e+003;4.881483e-002
2.800252e+003;4.895741e-002
2.802180e+003;4.926367e-002
2.804109e+003;4.968238e-002
2.806037e+003;4.998046e-002
2.807966e+003;4.999258e-002
2.809895e+003;4.992269e-002
2.811823e+003;4.964003e-002
2.813751e+003;4.924824e-002
2.815680e+003;4.886807e-002
2.817609e+003;4.861767e-002
2.819537e+003;4.851091e-002
2.821466e+003;4.861189e-002
2.823394e+003;4.864153e-002
2.825323e+003;4.870502e-002
2.827251e+003;4.905730e-002
2.829180e+003;4.930257e-002
2.831108e+003;4.938142e-002
2.833037e+003;4.977723e-002
2.834966e+003;5.036030e-002
2.836894e+003;5.069660e-002
2.838823e+003;5.075153e-002
2.840751e+003;5.125547e-002
2.842680e+003;5.208839e-002
2.844608e+003;5.270610e-002
2.846537e+003;5.296228e-002
2.848465e+003;5.353037e-002
2.850394e+003;5.406007e-002
2.852323e+003;5.430789e-002
2.854251e+003;5.466406e-002
2.856180e+003;5.529121e-002
2.858108e+003;5.574390e-002
2.860037e+003;5.637243e-002
2.861965e+003;5.698085e-002
2.863894e+003;5.690598e-002
2.865822e+003;5.697692e-002
2.867751e+003;5.748179e-002
2.869679e+003;5.789256e-002
2.871608e+003;5.791414e-002
2.873536e+003;5.781847e-002
2.875465e+003;5.775193e-002
2.877394e+003;5.829264e-002
2.879322e+003;5.891861e-002
2.881251e+003;5.937643e-002
2.883179e+003;6.008758e-002
2.885108e+003;6.060881e-002
2.887036e+003;6.093203e-002
2.888965e+003;6.115519e-002
2.890893e+003;6.131622e-002
2.892822e+003;6.148896e-002
2.894750e+003;6.164462e-002
2.896679e+003;6.212272e-002
2.898608e+003;6.290798e-002
2.900536e+003;6.370217e-002
2.902465e+003;6.456409e-002
2.904393e+003;6.514192e-002
2.906322e+003;6.559885e-002
2.908250e+003;6.581983e-002
2.910179e+003;6.569080e-002
2.912107e+003;6.519552e-002
2.914036e+003;6.450855e-002
2.915965e+003;6.370141e-002
2.917893e+003;6.248162e-002
2.919822e+003;6.137030e-002
2.921750e+003;6.083798e-002
2.923679e+003;6.003489e-002
2.925607e+003;5.929149e-002
2.927536e+003;5.907331e-002
2.929464e+003;5.908629e-002
2.931393e+003;5.939744e-002
2.933322e+003;5.960609e-002
2.935250e+003;5.990867e-002
2.937178e+003;6.045424e-002
2.939107e+003;6.135442e-002
2.941036e+003;6.250293e-002
2.942964e+003;6.333981e-002
2.944893e+003;6.428200e-002
2.946821e+003;6.532551e-002
2.948750e+003;6.620062e-002
2.950678e+003;6.704897e-002
2.952607e+003;6.786159e-002
2.954535e+003;6.880794e-002
2.956464e+003;6.995058e-002
2.958393e+003;7.087342e-002
2.960321e+003;7.141186e-002
2.962250e+003;7.198882e-002
2.964178e+003;7.277282e-002
2.966107e+003;7.354626e-002
2.968035e+003;7.423715e-002
2.969964e+003;7.446993e-002
2.971892e+003;7.445050e-002
2.973821e+003;7.429030e-002
2.975750e+003;7.389960e-002
2.977678e+003;7.318360e-002
2.979607e+003;7.209470e-002
2.981535e+003;7.107993e-002
2.983464e+003;7.044759e-002
2.985392e+003;6.999870e-002
2.987321e+003;6.929154e-002
2.989249e+003;6.832576e-002
2.991178e+003;6.752586e-002
2.993106e+003;6.723654e-002
2.995035e+003;6.709684e-002
2.996964e+003;6.683411e-002
2.998892e+003;6.641485e-002
3.000821e+003;6.607658e-002
3.002749e+003;6.563434e-002
3.004678e+003;6.514157e-002
3.006606e+003;6.466314e-002
3.008535e+003;6.413803e-002
3.010463e+003;6.366312e-002
3.012392e+003;6.286310e-002
3.014321e+003;6.231655e-002
3.016249e+003;6.223188e-002
3.018177e+003;6.170470e-002
3.020106e+003;6.055384e-002
3.022035e+003;5.979663e-002
3.023963e+003;5.949455e-002
3.025892e+003;5.868324e-002
3.027820e+003;5.770436e-002
3.029749e+003;5.673264e-002
3.031677e+003;5.593562e-002
3.033606e+003;5.547222e-002
3.035534e+003;5.529064e-002
3.037463e+003;5.505599e-002
3.039392e+003;5.499409e-002
3.041320e+003;5.527943e-002
3.043249e+003;5.604433e-002
3.045177e+003;5.695426e-002
3.047106e+003;5.809863e-002
3.049034e+003;5.933274e-002
3.050963e+003;6.011000e-002
3.052891e+003;6.057574e-002
3.054820e+003;6.092722e-002
3.056749e+003;6.107383e-002
3.058677e+003;6.111155e-002
3.060606e+003;6.058561e-002
3.062534e+003;6.025561e-002
3.064463e+003;6.040055e-002
3.066391e+003;6.064283e-002
3.068320e+003;6.067163e-002
3.070248e+003;6.065037e-002
3.072177e+003;6.058843e-002
3.074105e+003;6.077540e-002
3.076034e+003;6.107071e-002
3.077963e+003;6.084789e-002
3.079891e+003;6.035653e-002
3.081820e+003;5.986265e-002
3.083748e+003;5.966493e-002
3.085677e+003;5.981598e-002
3.087605e+003;5.949322e-002
3.089534e+003;5.880952e-002
3.091462e+003;5.845531e-002
3.093391e+003;5.806723e-002
3.095320e+003;5.788608e-002
3.097248e+003;5.827748e-002
3.099177e+003;5.888829e-002
3.101105e+003;5.893485e-002
3.103034e+003;5.875303e-002
3.104962e+003;5.865764e-002
3.106891e+003;5.888229e-002
3.108819e+003;5.892555e-002
3.110748e+003;5.834877e-002
3.112677e+003;5.771749e-002
3.114605e+003;5.713869e-002
3.116533e+003;5.618029e-002
3.118462e+003;5.524286e-002
3.120391e+003;5.480809e-002
3.122319e+003;5.467432e-002
3.124248e+003;5.435546e-002
3.126176e+003;5.413749e-002
3.128105e+003;5.388655e-002
3.130033e+003;5.353288e-002
3.131962e+003;5.356216e-002
3.133890e+003;5.343919e-002
3.135819e+003;5.289304e-002
3.137748e+003;5.207535e-002
3.139676e+003;5.154587e-002
3.141605e+003;5.141925e-002
3.143533e+003;5.112507e-002
3.145462e+003;5.041462e-002
3.147390e+003;4.995395e-002
3.149319e+003;4.970990e-002
3.151247e+003;4.949013e-002
3.153176e+003;4.922938e-002
3.155104e+003;4.888494e-002
3.157033e+003;4.854300e-002
3.158962e+003;4.812666e-002
3.160890e+003;4.799974e-002
3.162819e+003;4.801288e-002
3.164747e+003;4.779752e-002
3.166676e+003;4.760559e-002
3.168604e+003;4.733954e-002
3.170533e+003;4.732694e-002
3.172461e+003;4.752584e-002
3.174390e+003;4.760669e-002
3.176319e+003;4.769784e-002
3.178247e+003;4.761564e-002
3.180176e+003;4.715575e-002
3.182104e+003;4.731785e-002
3.184033e+003;4.772473e-002
3.185961e+003;4.749427e-002
3.187890e+003;4.719863e-002
3.189818e+003;4.685251e-002
3.191747e+003;4.627329e-002
3.193676e+003;4.628976e-002
3.195604e+003;4.651888e-002
3.197532e+003;4.656273e-002
3.199461e+003;4.647894e-002
3.201390e+003;4.636279e-002
3.203318e+003;4.629165e-002
3.205247e+003;4.618546e-002
3.207175e+003;4.606571e-002
3.209104e+003;4.620054e-002
3.211032e+003;4.633153e-002
3.212961e+003;4.627679e-002
3.214889e+003;4.613763e-002
3.216818e+003;4.594426e-002
3.218747e+003;4.548069e-002
3.220675e+003;4.559318e-002
3.222604e+003;4.617168e-002
3.224532e+003;4.642164e-002
3.226461e+003;4.651630e-002
3.228389e+003;4.658483e-002
3.230318e+003;4.646109e-002
3.232246e+003;4.617824e-002
3.234175e+003;4.571935e-002
3.236104e+003;4.567433e-002
3.238032e+003;4.607142e-002
3.239961e+003;4.596054e-002
3.241889e+003;4.573143e-002
3.243818e+003;4.579585e-002
3.245746e+003;4.568582e-002
3.247675e+003;4.569439e-002
3.249603e+003;4.566031e-002
3.251532e+003;4.506334e-002
3.253460e+003;4.454897e-002
3.255389e+003;4.462295e-002
3.257318e+003;4.477276e-002
3.259246e+003;4.461513e-002
3.261175e+003;4.464168e-002
3.263103e+003;4.483003e-002
3.265032e+003;4.461836e-002
3.266960e+003;4.441290e-002
3.268889e+003;4.421541e-002
3.270817e+003;4.411146e-002
3.272746e+003;4.401318e-002
3.274675e+003;4.414428e-002
3.276603e+003;4.437458e-002
3.278531e+003;4.439520e-002
3.280460e+003;4.418474e-002
3.282389e+003;4.410614e-002
3.284317e+003;4.417481e-002
3.286246e+003;4.439774e-002
3.288174e+003;4.459435e-002
3.290103e+003;4.479399e-002
3.292031e+003;4.483370e-002
3.293960e+003;4.473004e-002
3.295888e+003;4.523911e-002
3.297817e+003;4.539210e-002
3.299746e+003;4.497046e-002
3.301674e+003;4.459409e-002
3.303603e+003;4.466008e-002
3.305531e+003;4.461315e-002
3.307460e+003;4.464241e-002
3.309388e+003;4.440805e-002
3.311317e+003;4.416512e-002
3.313245e+003;4.420320e-002
3.315174e+003;4.411370e-002
3.317103e+003;4.397677e-002
3.319031e+003;4.434123e-002
3.320960e+003;4.461826e-002
3.322888e+003;4.443631e-002
3.324817e+003;4.436842e-002
3.326745e+003;4.425104e-002
3.328674e+003;4.424722e-002
3.330602e+003;4.442453e-002
3.332531e+003;4.458756e-002
3.334459e+003;4.476405e-002
3.336388e+003;4.477232e-002
3.338317e+003;4.465494e-002
3.340245e+003;4.419501e-002
3.342174e+003;4.394461e-002
3.344102e+003;4.404046e-002
3.346031e+003;4.387540e-002
3.347959e+003;4.391378e-002
3.349888e+003;4.394938e-002
3.351816e+003;4.329790e-002
3.353745e+003;4.267148e-002
3.355674e+003;4.281235e-002
3.357602e+003;4.296610e-002
3.359531e+003;4.249759e-002
3.361459e+003;4.218356e-002
3.363388e+003;4.184871e-002
3.365316e+003;4.169422e-002
3.367245e+003;4.176199e-002
3.369173e+003;4.180825e-002
3.371102e+003;4.188469e-002
3.373031e+003;4.175393e-002
3.374959e+003;4.162311e-002
3.376887e+003;4.129288e-002
3.378816e+003;4.115480e-002
3.380745e+003;4.121432e-002
3.382673e+003;4.135709e-002
3.384602e+003;4.162624e-002
3.386530e+003;4.202048e-002
3.388459e+003;4.217571e-002
3.390387e+003;4.227924e-002
3.392316e+003;4.250434e-002
3.394244e+003;4.266168e-002
3.396173e+003;4.300451e-002
3.398102e+003;4.362126e-002
3.400030e+003;4.413618e-002
3.401959e+003;4.432717e-002
3.403887e+003;4.509726e-002
3.405816e+003;4.617831e-002
3.407744e+003;4.679103e-002
3.409673e+003;4.740291e-002
3.411601e+003;4.807558e-002
3.413530e+003;4.891068e-002
3.415458e+003;4.986482e-002
3.417387e+003;5.064577e-002
3.419316e+003;5.138412e-002
3.421244e+003;5.222659e-002
3.423173e+003;5.334695e-002
3.425101e+003;5.395561e-002
3.427030e+003;5.415472e-002
3.428958e+003;5.420194e-002
3.430887e+003;5.429257e-002
3.432815e+003;5.407745e-002
3.434744e+003;5.386888e-002
3.436673e+003;5.369678e-002
3.438601e+003;5.317307e-002
3.440530e+003;5.246891e-002
3.442458e+003;5.189157e-002
3.444387e+003;5.147491e-002
3.446315e+003;5.089951e-002
3.448244e+003;5.002905e-002
3.450172e+003;4.919828e-002
3.452101e+003;4.838196e-002
3.454030e+003;4.780946e-002
3.455958e+003;4.744719e-002
3.457886e+003;4.675402e-002
3.459815e+003;4.596021e-002
3.461744e+003;4.527154e-002
3.463672e+003;4.474576e-002
3.465601e+003;4.431550e-002
3.467529e+003;4.396397e-002
3.469458e+003;4.346541e-002
3.471386e+003;4.296650e-002
3.473315e+003;4.274708e-002
3.475243e+003;4.214800e-002
3.477172e+003;4.148452e-002
3.479101e+003;4.159062e-002
3.481029e+003;4.151620e-002
3.482958e+003;4.123557e-002
3.484886e+003;4.097689e-002
3.486815e+003;4.088481e-002
3.488743e+003;4.111604e-002
3.490672e+003;4.108417e-002
3.492600e+003;4.086169e-002
3.494529e+003;4.077553e-002
3.496458e+003;4.083905e-002
3.498386e+003;4.098701e-002
3.500315e+003;4.121218e-002
3.502243e+003;4.113294e-002
3.504172e+003;4.101316e-002
3.506100e+003;4.105529e-002
3.508029e+003;4.171396e-002
3.509957e+003;4.238148e-002
3.511886e+003;4.236964e-002
3.513814e+003;4.233169e-002
3.515743e+003;4.230258e-002
3.517672e+003;4.242309e-002
3.519600e+003;4.263284e-002
3.521529e+003;4.251779e-002
3.523457e+003;4.242210e-002
3.525386e+003;4.280533e-002
3.527314e+003;4.326557e-002
3.529243e+003;4.345409e-002
3.531171e+003;4.370238e-002
3.533100e+003;4.365193e-002
3.535029e+003;4.378340e-002
3.536957e+003;4.422719e-002
3.538885e+003;4.418078e-002
3.540814e+003;4.382790e-002
3.542743e+003;4.366823e-002
3.544671e+003;4.335560e-002
3.546600e+003;4.343359e-002
3.548528e+003;4.407886e-002
3.550457e+003;4.430148e-002
3.552385e+003;4.412635e-002
3.554314e+003;4.363441e-002
3.556242e+003;4.319398e-002
3.558171e+003;4.296917e-002
3.560100e+003;4.314615e-002
3.562028e+003;4.315050e-002
3.563957e+003;4.248914e-002
3.565885e+003;4.182963e-002
3.567814e+003;4.195625e-002
3.569742e+003;4.241721e-002
3.571671e+003;4.224348e-002
3.573599e+003;4.165936e-002
3.575528e+003;4.124781e-002
3.577457e+003;4.086828e-002
3.579385e+003;4.036871e-002
3.581314e+003;3.991164e-002
3.583242e+003;3.955109e-002
3.585171e+003;3.911239e-002
3.587099e+003;3.888736e-002
3.589028e+003;3.901969e-002
3.590956e+003;3.878026e-002
3.592885e+003;3.858394e-002
3.594813e+003;3.875486e-002
3.596742e+003;3.877830e-002
3.598671e+003;3.828992e-002
3.600599e+003;3.790834e-002
3.602528e+003;3.802988e-002
3.604456e+003;3.833255e-002
3.606385e+003;3.799332e-002
3.608313e+003;3.773898e-002
3.610242e+003;3.816426e-002
3.612170e+003;3.850624e-002
3.614099e+003;3.892483e-002
3.616028e+003;3.875943e-002
3.617956e+003;3.802511e-002
3.619885e+003;3.802254e-002
3.621813e+003;3.846916e-002
3.623742e+003;3.856482e-002
3.625670e+003;3.848828e-002
3.627599e+003;3.859020e-002
3.629527e+003;3.873856e-002
3.631456e+003;3.886859e-002
3.633385e+003;3.869509e-002
3.635313e+003;3.857253e-002
3.637241e+003;3.867915e-002
3.639170e+003;3.845066e-002
3.641099e+003;3.809401e-002
3.643027e+003;3.821263e-002
3.644956e+003;3.818904e-002
3.646884e+003;3.795021e-002
3.648813e+003;3.743976e-002
3.650741e+003;3.722091e-002
3.652670e+003;3.756449e-002
3.654598e+003;3.722715e-002
3.656527e+003;3.681314e-002
3.658456e+003;3.669443e-002
3.660384e+003;3.619107e-002
3.662313e+003;3.547632e-002
3.664241e+003;3.486449e-002
3.666170e+003;3.482600e-002
3.668098e+003;3.455877e-002
3.670027e+003;3.424874e-002
3.671955e+003;3.452874e-002
3.673884e+003;3.452407e-002
3.675813e+003;3.392805e-002
3.677741e+003;3.377618e-002
3.679669e+003;3.439017e-002
3.681598e+003;3.540222e-002
3.683527e+003;3.575005e-002
3.685455e+003;3.577844e-002
3.687384e+003;3.524512e-002
3.689312e+003;3.500069e-002
3.691241e+003;3.501430e-002
3.693169e+003;3.464104e-002
3.695098e+003;3.443253e-002
3.697026e+003;3.402605e-002
3.698955e+003;3.351367e-002
3.700884e+003;3.325776e-002
3.702812e+003;3.295574e-002
3.704741e+003;3.264818e-002
3.706669e+003;3.215187e-002
3.708598e+003;3.173291e-002
3.710526e+003;3.179992e-002
3.712455e+003;3.177026e-002
3.714383e+003;3.158799e-002
3.716312e+003;3.141371e-002
3.718240e+003;3.142956e-002
3.720169e+003;3.151131e-002
3.722098e+003;3.143415e-002
3.724026e+003;3.102410e-002
3.725955e+003;3.109659e-002
3.727883e+003;3.154616e-002
3.729812e+003;3.165934e-002
3.731740e+003;3.170492e-002
3.733669e+003;3.181393e-002
3.735597e+003;3.185590e-002
3.737526e+003;3.199451e-002
3.739455e+003;3.199986e-002
3.741383e+003;3.205501e-002
3.743312e+003;3.152621e-002
3.745240e+003;3.136470e-002
3.747169e+003;3.165371e-002
3.749097e+003;3.159206e-002
3.751026e+003;3.200361e-002
3.752954e+003;3.249082e-002
3.754883e+003;3.300761e-002
3.756812e+003;3.346574e-002
3.758740e+003;3.332197e-002
3.760668e+003;3.280081e-002
3.762597e+003;3.250332e-002
3.764526e+003;3.263829e-002
3.766454e+003;3.255078e-002
3.768383e+003;3.224590e-002
3.770311e+003;3.241574e-002
3.772240e+003;3.256232e-002
3.774168e+003;3.235330e-002
3.776097e+003;3.239596e-002
3.778025e+003;3.215059e-002
3.779954e+003;3.216582e-002
3.781883e+003;3.270973e-002
3.783811e+003;3.260832e-002
3.785740e+003;3.219993e-002
3.787668e+003;3.205127e-002
3.789597e+003;3.225589e-002
3.791525e+003;3.208487e-002
3.793454e+003;3.211601e-002
3.795382e+003;3.212062e-002
3.797311e+003;3.202191e-002
3.799240e+003;3.185857e-002
3.801168e+003;3.159455e-002
3.803097e+003;3.213553e-002
3.805025e+003;3.256375e-002
3.806954e+003;3.258849e-002
3.808882e+003;3.301751e-002
3.810811e+003;3.299824e-002
3.812739e+003;3.262475e-002
3.814668e+003;3.251650e-002
3.816596e+003;3.234170e-002
3.818525e+003;3.226646e-002
3.820454e+003;3.175009e-002
3.822382e+003;3.141926e-002
3.824311e+003;3.178794e-002
3.826239e+003;3.225935e-002
3.828168e+003;3.254135e-002
3.830096e+003;3.231860e-002
3.832025e+003;3.232428e-002
3.833953e+003;3.243601e-002
3.835882e+003;3.198941e-002
3.837811e+003;3.143615e-002
3.839739e+003;3.172538e-002
3.841667e+003;3.205401e-002
3.843596e+003;3.217549e-002
3.845525e+003;3.269641e-002
3.847453e+003;3.270837e-002
3.849382e+003;3.249536e-002
3.851310e+003;3.230354e-002
3.853239e+003;3.162071e-002
3.855167e+003;3.125875e-002
3.857096e+003;3.197097e-002
3.859024e+003;3.265075e-002
3.860953e+003;3.257189e-002
3.862882e+003;3.223109e-002
3.864810e+003;3.214074e-002
3.866739e+003;3.254374e-002
3.868667e+003;3.255535e-002
3.870596e+003;3.228387e-002
3.872524e+003;3.224226e-002
3.874453e+003;3.222923e-002
3.876381e+003;3.266454e-002
3.878310e+003;3.257160e-002
3.880239e+003;3.229237e-002
3.882167e+003;3.255782e-002
3.884096e+003;3.264757e-002
3.886024e+003;3.245501e-002
3.887953e+003;3.222577e-002
3.889881e+003;3.218070e-002
3.891810e+003;3.255842e-002
3.893738e+003;3.337102e-002
3.895667e+003;3.331750e-002
3.897595e+003;3.292325e-002
3.899524e+003;3.311641e-002
3.901453e+003;3.328390e-002
3.903381e+003;3.333335e-002
3.905310e+003;3.385017e-002
3.907238e+003;3.407332e-002
3.909167e+003;3.389033e-002
3.911095e+003;3.383785e-002
3.913024e+003;3.386436e-002
3.914952e+003;3.404389e-002
3.916881e+003;3.433412e-002
3.918810e+003;3.454570e-002
3.920738e+003;3.458647e-002
3.922667e+003;3.467305e-002
3.924595e+003;3.454700e-002
3.926524e+003;3.451568e-002
3.928452e+003;3.434369e-002
3.930381e+003;3.438680e-002
3.932309e+003;3.436804e-002
3.934238e+003;3.466132e-002
3.936167e+003;3.480414e-002
3.938095e+003;3.442119e-002
3.940023e+003;3.436700e-002
3.941952e+003;3.423931e-002
3.943881e+003;3.424792e-002
3.945809e+003;3.483774e-002
3.947738e+003;3.478583e-002
3.949666e+003;3.482370e-002
3.951595e+003;3.522576e-002
3.953523e+003;3.495767e-002
3.955452e+003;3.479093e-002
3.957380e+003;3.502730e-002
3.959309e+003;3.548175e-002
3.961238e+003;3.563689e-002
3.963166e+003;3.557010e-002
3.965095e+003;3.530269e-002
3.967023e+003;3.533608e-002
3.968952e+003;3.560599e-002
3.970880e+003;3.560588e-002
3.972809e+003;3.522648e-002
3.974737e+003;3.495540e-002
3.976666e+003;3.492933e-002
3.978594e+003;3.506660e-002
3.980523e+003;3.499692e-002
3.982452e+003;3.494323e-002
3.984380e+003;3.503722e-002
3.986309e+003;3.498499e-002
3.988237e+003;3.513798e-002
3.990166e+003;3.541596e-002
3.992094e+003;3.544486e-002
3.994023e+003;3.502310e-002
3.995951e+003;3.472732e-002
3.997880e+003;3.522432e-002
3.999809e+003;3.560276e-002
4.001737e+003;0.000000e+000
