3.992094e+002;0.000000e+000
4.011380e+002;0.000000e+000
4.030665e+002;0.000000e+000
4.049951e+002;0.000000e+000
4.069236e+002;0.000000e+000
4.088522e+002;0.000000e+000
4.107807e+002;0.000000e+000
4.127093e+002;0.000000e+000
4.146378e+002;0.000000e+000
4.165664e+002;0.000000e+000
4.184949e+002;0.000000e+000
4.204235e+002;0.000000e+000
4.223520e+002;0.000000e+000
4.242806e+002;0.000000e+000
4.262091e+002;0.000000e+000
4.281377e+002;0.000000e+000
4.300662e+002;0.000000e+000
4.319948e+002;0.000000e+000
4.339233e+002;0.000000e+000
4.358519e+002;0.000000e+000
4.377804e+002;0.000000e+000
4.397090e+002;0.000000e+000
4.416375e+002;0.000000e+000
4.435660e+002;0.000000e+000
4.454946e+002;0.000000e+000
4.474232e+002;0.000000e+000
4.493517e+002;0.000000e+000
4.512802e+002;0.000000e+000
4.532088e+002;0.000000e+000
4.551373e+002;0.000000e+000
4.570659e+002;0.000000e+000
4.589944e+002;0.000000e+000
4.609230e+002;0.000000e+000
4.628515e+002;0.000000e+000
4.647801e+002;0.000000e+000
4.667086e+002;0.000000e+000
4.686372e+002;0.000000e+000
4.705657e+002;0.000000e+000
4.724943e+002;0.000000e+000
4.744228e+002;0.000000e+000
4.763513e+002;0.000000e+000
4.782799e+002;0.000000e+000
4.802085e+002;0.000000e+000
4.821370e+002;0.000000e+000
4.840656e+002;0.000000e+000
4.859941e+002;0.000000e+000
4.879226e+002;0.000000e+000
4.898512e+002;0.000000e+000
4.917798e+002;0.000000e+000
4.937083e+002;0.000000e+000
4.956368e+002;0.000000e+000
4.975654e+002;0.000000e+000
4.994939e+002;0.000000e+000
5.014225e+002;0.000000e+000
5.033510e+002;0.000000e+000
5.052796e+002;0.000000e+000
5.072081e+002;0.000000e+000
5.091367e+002;0.000000e+000
5.110652e+002;0.000000e+000
5.129938e+002;0.000000e+000
5.149223e+002;0.000000e+000
5.168509e+002;0.000000e+000
5.187794e+002;0.000000e+000
5.207079e+002;0.000000e+000
5.226365e+002;0.000000e+000
5.245651e+002;0.000000e+000
5.264936e+002;0.000000e+000
5.284222e+002;0.000000e+000
5.303507e+002;0.000000e+000
5.322792e+002;0.000000e+000
5.342078e+002;0.000000e+000
5.361364e+002;0.000000e+000
5.380649e+002;0.000000e+000
5.399935e+002;0.000000e+000
5.419220e+002;0.000000e+000
5.438505e+002;0.000000e+000
5.457791e+002;0.000000e+000
5.477076e+002;0.000000e+000
5.496362e+002;0.000000e+000
5.515648e+002;0.000000e+000
5.534933e+002;0.000000e+000
5.554218e+002;0.000000e+000
5.573504e+002;0.000000e+000
5.592789e+002;0.000000e+000
5.612075e+002;0.000000e+000
5.631360e+002;0.000000e+000
5.650646e+002;0.000000e+000
5.669931e+002;0.000000e+000
5.689217e+002;0.000000e+000
5.708502e+002;0.000000e+000
5.727787e+002;0.000000e+000
5.747073e+002;0.000000e+000
5.766359e+002;0.000000e+000
5.785644e+002;0.000000e+000
5.804930e+002;0.000000e+000
5.824215e+002;0.000000e+000
5.843500e+002;0.000000e+000
5.862786e+002;0.000000e+000
5.882072e+002;0.000000e+000
5.901357e+002;0.000000e+000
5.920643e+002;0.000000e+000
5.939928e+002;0.000000e+000
5.959213e+002;0.000000e+000
5.978499e+002;0.000000e+000
5.997784e+002;4.195099e-002
6.017070e+002;4.035752e-002
6.036355e+002;3.490581e-002
6.055641e+002;2.888703e-002
6.074926e+002;3.228259e-002
6.094211e+002;3.013354e-002
6.113497e+002;3.039739e-002
6.132783e+002;3.766584e-002
6.152068e+002;3.947521e-002
6.171354e+002;3.503445e-002
6.190639e+002;3.346048e-002
6.209924e+002;3.309435e-002
6.229210e+002;3.232685e-002
6.248495e+002;3.231132e-002
6.267781e+002;3.654443e-002
6.287067e+002;4.077805e-002
6.306352e+002;4.759960e-002
6.325637e+002;5.080687e-002
6.344923e+002;4.329204e-002
6.364208e+002;3.720712e-002
6.383494e+002;3.254814e-002
6.402780e+002;2.981662e-002
6.422065e+002;3.014910e-002
6.441350e+002;3.081731e-002
6.460636e+002;3.344950e-002
6.479921e+002;3.557956e-002
6.499207e+002;3.802308e-002
6.518492e+002;3.800843e-002
6.537778e+002;3.866890e-002
6.557063e+002;3.912478e-002
6.576349e+002;4.045759e-002
6.595634e+002;4.090308e-002
6.614919e+002;4.197654e-002
6.634205e+002;4.581537e-002
6.653491e+002;4.817959e-002
6.672776e+002;4.976616e-002
6.692062e+002;5.042080e-002
6.711347e+002;5.183280e-002
6.730632e+002;5.442734e-002
6.749918e+002;5.954368e-002
6.769203e+002;6.730017e-002
6.788489e+002;7.364922e-002
6.807775e+002;7.639587e-002
6.827060e+002;7.551336e-002
6.846345e+002;7.393173e-002
6.865631e+002;7.230759e-002
6.884916e+002;7.291204e-002
6.904202e+002;7.536510e-002
6.923488e+002;7.870866e-002
6.942773e+002;8.576934e-002
6.962058e+002;9.659746e-002
6.981344e+002;1.124572e-001
7.000629e+002;1.326369e-001
7.019915e+002;1.513132e-001
7.039200e+002;1.661545e-001
7.058486e+002;1.797127e-001
7.077771e+002;1.948454e-001
7.097057e+002;2.130348e-001
7.116342e+002;2.346858e-001
7.135627e+002;2.622295e-001
7.154913e+002;2.985181e-001
7.174199e+002;3.439847e-001
7.193484e+002;3.923811e-001
7.212770e+002;4.355747e-001
7.232055e+002;4.613723e-001
7.251340e+002;4.522311e-001
7.270626e+002;4.102434e-001
7.289911e+002;3.546812e-001
7.309197e+002;2.986000e-001
7.328483e+002;2.466358e-001
7.347768e+002;2.003261e-001
7.367053e+002;1.596357e-001
7.386339e+002;1.251059e-001
7.405624e+002;9.944574e-002
7.424910e+002;8.174929e-002
7.444196e+002;6.997195e-002
7.463481e+002;6.136595e-002
7.482766e+002;5.639197e-002
7.502052e+002;5.295128e-002
7.521337e+002;5.048593e-002
7.540623e+002;4.931579e-002
7.559908e+002;4.874928e-002
7.579194e+002;4.741729e-002
7.598479e+002;4.611641e-002
7.617765e+002;4.564216e-002
7.637050e+002;4.693014e-002
7.656335e+002;4.953232e-002
7.675621e+002;5.128560e-002
7.694907e+002;5.333619e-002
7.714192e+002;5.522927e-002
7.733478e+002;5.712890e-002
7.752763e+002;5.952290e-002
7.772048e+002;6.234337e-002
7.791334e+002;6.544407e-002
7.810620e+002;6.936714e-002
7.829905e+002;7.386861e-002
7.849191e+002;7.895501e-002
7.868476e+002;8.443540e-002
7.887761e+002;9.213843e-002
7.907047e+002;1.003009e-001
7.926332e+002;1.028263e-001
7.945618e+002;9.786279e-002
7.964903e+002;8.953005e-002
7.984189e+002;8.251586e-002
8.003474e+002;7.866310e-002
8.022759e+002;7.779825e-002
8.042045e+002;7.773797e-002
8.061331e+002;7.735730e-002
8.080616e+002;7.775758e-002
8.099902e+002;7.905040e-002
8.119187e+002;7.958929e-002
8.138472e+002;7.955208e-002
8.157758e+002;8.020138e-002
8.177043e+002;8.054223e-002
8.196329e+002;8.081729e-002
8.215615e+002;8.103462e-002
8.234900e+002;8.188950e-002
8.254185e+002;8.266534e-002
8.273471e+002;8.260025e-002
8.292756e+002;8.333465e-002
8.312042e+002;8.540497e-002
8.331328e+002;8.976759e-002
8.350613e+002;9.478932e-002
8.369898e+002;9.953302e-002
8.389184e+002;1.045756e-001
8.408469e+002;1.097832e-001
8.427755e+002;1.160851e-001
8.447040e+002;1.221326e-001
8.466326e+002;1.254500e-001
8.485611e+002;1.257152e-001
8.504897e+002;1.225938e-001
8.524182e+002;1.182482e-001
8.543467e+002;1.157593e-001
8.562753e+002;1.145473e-001
8.582039e+002;1.135400e-001
8.601324e+002;1.135196e-001
8.620610e+002;1.152234e-001
8.639895e+002;1.190906e-001
8.659180e+002;1.282554e-001
8.678466e+002;1.460854e-001
8.697751e+002;1.729697e-001
8.717037e+002;1.947855e-001
8.736323e+002;1.914159e-001
8.755608e+002;1.706422e-001
8.774893e+002;1.505069e-001
8.794179e+002;1.338398e-001
8.813464e+002;1.184965e-001
8.832750e+002;1.054425e-001
8.852036e+002;9.496559e-002
8.871321e+002;8.779163e-002
8.890606e+002;8.372750e-002
8.909892e+002;8.105187e-002
8.929177e+002;7.941390e-002
8.948463e+002;7.880688e-002
8.967748e+002;7.844663e-002
8.987034e+002;7.768511e-002
9.006319e+002;7.685427e-002
9.025605e+002;7.608009e-002
9.044890e+002;7.455568e-002
9.064175e+002;7.233240e-002
9.083461e+002;7.002587e-002
9.102747e+002;6.769601e-002
9.122032e+002;6.607376e-002
9.141318e+002;6.503442e-002
9.160603e+002;6.365694e-002
9.179888e+002;6.266122e-002
9.199174e+002;6.211214e-002
9.218459e+002;6.199800e-002
9.237745e+002;6.261739e-002
9.257031e+002;6.387126e-002
9.276316e+002;6.487180e-002
9.295601e+002;6.519390e-002
9.314887e+002;6.540205e-002
9.334172e+002;6.656070e-002
9.353458e+002;6.839014e-002
9.372744e+002;7.004362e-002
9.392029e+002;7.151107e-002
9.411314e+002;7.301489e-002
9.430600e+002;7.472692e-002
9.449885e+002;7.670543e-002
9.469171e+002;7.911082e-002
9.488456e+002;8.192707e-002
9.507742e+002;8.459262e-002
9.527027e+002;8.737936e-002
9.546313e+002;9.023454e-002
9.565598e+002;9.335709e-002
9.584883e+002;9.671801e-002
9.604169e+002;1.003580e-001
9.623455e+002;1.041389e-001
9.642740e+002;1.076770e-001
9.662026e+002;1.108887e-001
9.681311e+002;1.132654e-001
9.700596e+002;1.142793e-001
9.719882e+002;1.133278e-001
9.739167e+002;1.106799e-001
9.758453e+002;1.071805e-001
9.777739e+002;1.032419e-001
9.797024e+002;9.999191e-002
9.816309e+002;9.756121e-002
9.835595e+002;9.516525e-002
9.854880e+002;9.374785e-002
9.874166e+002;9.335934e-002
9.893452e+002;9.340523e-002
9.912737e+002;9.342721e-002
9.932022e+002;9.324869e-002
9.951307e+002;9.371319e-002
9.970593e+002;9.496967e-002
9.989879e+002;9.753056e-002
1.000916e+003;1.006527e-001
1.002845e+003;1.044790e-001
1.004773e+003;1.102379e-001
1.006702e+003;1.182037e-001
1.008631e+003;1.288618e-001
1.010559e+003;1.447611e-001
1.012488e+003;1.671994e-001
1.014416e+003;1.959528e-001
1.016345e+003;2.231442e-001
1.018273e+003;2.318664e-001
1.020202e+003;2.177004e-001
1.022130e+003;1.922909e-001
1.024059e+003;1.646877e-001
1.025988e+003;1.383854e-001
1.027916e+003;1.190772e-001
1.029845e+003;1.097352e-001
1.031773e+003;1.072961e-001
1.033702e+003;1.077655e-001
1.035630e+003;1.099828e-001
1.037559e+003;1.130288e-001
1.039487e+003;1.157265e-001
1.041416e+003;1.182421e-001
1.043344e+003;1.204583e-001
1.045273e+003;1.223302e-001
1.047202e+003;1.236978e-001
1.049130e+003;1.243799e-001
1.051059e+003;1.254459e-001
1.052987e+003;1.263804e-001
1.054916e+003;1.274515e-001
1.056844e+003;1.298163e-001
1.058773e+003;1.324203e-001
1.060701e+003;1.361550e-001
1.062630e+003;1.415497e-001
1.064558e+003;1.478588e-001
1.066487e+003;1.549078e-001
1.068416e+003;1.634483e-001
1.070344e+003;1.741396e-001
1.072273e+003;1.871007e-001
1.074201e+003;2.024381e-001
1.076130e+003;2.207501e-001
1.078058e+003;2.417472e-001
1.079987e+003;2.643201e-001
1.081915e+003;2.867546e-001
1.083844e+003;3.069002e-001
1.085773e+003;3.240320e-001
1.087701e+003;3.386883e-001
1.089630e+003;3.531162e-001
1.091558e+003;3.660541e-001
1.093487e+003;3.768949e-001
1.095415e+003;3.841172e-001
1.097344e+003;3.886379e-001
1.099272e+003;3.884909e-001
1.101201e+003;3.805436e-001
1.103129e+003;3.639883e-001
1.105058e+003;3.415391e-001
1.106987e+003;3.181329e-001
1.108915e+003;2.982157e-001
1.110844e+003;2.848479e-001
1.112772e+003;2.780216e-001
1.114701e+003;2.749518e-001
1.116629e+003;2.722435e-001
1.118558e+003;2.675181e-001
1.120486e+003;2.602269e-001
1.122415e+003;2.495471e-001
1.124344e+003;2.364890e-001
1.126272e+003;2.219870e-001
1.128201e+003;2.061905e-001
1.130129e+003;1.892579e-001
1.132058e+003;1.722911e-001
1.133986e+003;1.561067e-001
1.135915e+003;1.407742e-001
1.137843e+003;1.264652e-001
1.139772e+003;1.142335e-001
1.141700e+003;1.050920e-001
1.143629e+003;9.801221e-002
1.145557e+003;9.148410e-002
1.147486e+003;8.539049e-002
1.149415e+003;8.016105e-002
1.151343e+003;7.580742e-002
1.153272e+003;7.190877e-002
1.155200e+003;6.897735e-002
1.157129e+003;6.689143e-002
1.159057e+003;6.563800e-002
1.160986e+003;6.517491e-002
1.162914e+003;6.535128e-002
1.164843e+003;6.628908e-002
1.166771e+003;6.869633e-002
1.168700e+003;7.284291e-002
1.170629e+003;7.788898e-002
1.172557e+003;8.182549e-002
1.174486e+003;8.364587e-002
1.176414e+003;8.348750e-002
1.178343e+003;8.185822e-002
1.180271e+003;7.933613e-002
1.182200e+003;7.776595e-002
1.184128e+003;7.710429e-002
1.186057e+003;7.658965e-002
1.187986e+003;7.667658e-002
1.189914e+003;7.813658e-002
1.191843e+003;8.077946e-002
1.193771e+003;8.412445e-002
1.195700e+003;8.838908e-002
1.197628e+003;9.308354e-002
1.199557e+003;9.773061e-002
1.201485e+003;1.024869e-001
1.203414e+003;1.077269e-001
1.205343e+003;1.133238e-001
1.207271e+003;1.192287e-001
1.209200e+003;1.254470e-001
1.211128e+003;1.321565e-001
1.213057e+003;1.401093e-001
1.214985e+003;1.486608e-001
1.216914e+003;1.579173e-001
1.218842e+003;1.679619e-001
1.220771e+003;1.779640e-001
1.222699e+003;1.871300e-001
1.224628e+003;1.961829e-001
1.226557e+003;2.070428e-001
1.228485e+003;2.211494e-001
1.230414e+003;2.401547e-001
1.232342e+003;2.636427e-001
1.234271e+003;2.911780e-001
1.236199e+003;3.221711e-001
1.238128e+003;3.538417e-001
1.240056e+003;3.824426e-001
1.241985e+003;4.054611e-001
1.243913e+003;4.201754e-001
1.245842e+003;4.260713e-001
1.247771e+003;4.248573e-001
1.249699e+003;4.192371e-001
1.251628e+003;4.114021e-001
1.253556e+003;4.032633e-001
1.255485e+003;3.957977e-001
1.257413e+003;3.883321e-001
1.259342e+003;3.793048e-001
1.261270e+003;3.673441e-001
1.263199e+003;3.505576e-001
1.265127e+003;3.300536e-001
1.267056e+003;3.076070e-001
1.268985e+003;2.860010e-001
1.270913e+003;2.662693e-001
1.272842e+003;2.483119e-001
1.274770e+003;2.322842e-001
1.276699e+003;2.187384e-001
1.278627e+003;2.069648e-001
1.280556e+003;1.962095e-001
1.282484e+003;1.865992e-001
1.284413e+003;1.775249e-001
1.286342e+003;1.684549e-001
1.288270e+003;1.594975e-001
1.290199e+003;1.504765e-001
1.292127e+003;1.411928e-001
1.294056e+003;1.317641e-001
1.295984e+003;1.225767e-001
1.297913e+003;1.135178e-001
1.299841e+003;1.048260e-001
1.301770e+003;9.746569e-002
1.303698e+003;9.148729e-002
1.305627e+003;8.653642e-002
1.307556e+003;8.219428e-002
1.309484e+003;7.782770e-002
1.311413e+003;7.365217e-002
1.313341e+003;6.996533e-002
1.315270e+003;6.702774e-002
1.317198e+003;6.470317e-002
1.319127e+003;6.281152e-002
1.321055e+003;6.138423e-002
1.322984e+003;6.100519e-002
1.324912e+003;6.231066e-002
1.326841e+003;6.548425e-002
1.328770e+003;7.217290e-002
1.330698e+003;8.364715e-002
1.332627e+003;9.977360e-002
1.334555e+003;1.174883e-001
1.336484e+003;1.316289e-001
1.338412e+003;1.376304e-001
1.340341e+003;1.331376e-001
1.342269e+003;1.199135e-001
1.344198e+003;1.026371e-001
1.346126e+003;8.582203e-002
1.348055e+003;7.247610e-002
1.349984e+003;6.295681e-002
1.351912e+003;5.666309e-002
1.353841e+003;5.265036e-002
1.355769e+003;5.019944e-002
1.357698e+003;4.908694e-002
1.359626e+003;4.896412e-002
1.361555e+003;4.946744e-002
1.363483e+003;5.084807e-002
1.365412e+003;5.298515e-002
1.367341e+003;5.517897e-002
1.369269e+003;5.684940e-002
1.371198e+003;5.759316e-002
1.373126e+003;5.742896e-002
1.375055e+003;5.705630e-002
1.376983e+003;5.669884e-002
1.378912e+003;5.665962e-002
1.380840e+003;5.723405e-002
1.382769e+003;5.808575e-002
1.384698e+003;5.873877e-002
1.386626e+003;5.921839e-002
1.388555e+003;5.968690e-002
1.390483e+003;6.032486e-002
1.392412e+003;6.191255e-002
1.394340e+003;6.448963e-002
1.396269e+003;6.817443e-002
1.398197e+003;7.328730e-002
1.400126e+003;8.032957e-002
1.402054e+003;9.017570e-002
1.403983e+003;1.026719e-001
1.405911e+003;1.161690e-001
1.407840e+003;1.254430e-001
1.409769e+003;1.249333e-001
1.411697e+003;1.130717e-001
1.413626e+003;9.460261e-002
1.415554e+003;7.641033e-002
1.417483e+003;6.202567e-002
1.419411e+003;5.210774e-002
1.421340e+003;4.592923e-002
1.423268e+003;4.245290e-002
1.425197e+003;4.108188e-002
1.427125e+003;4.073277e-002
1.429054e+003;4.130866e-002
1.430983e+003;4.279344e-002
1.432911e+003;4.471355e-002
1.434840e+003;4.672066e-002
1.436768e+003;4.836659e-002
1.438697e+003;4.992269e-002
1.440625e+003;5.136909e-002
1.442554e+003;5.253315e-002
1.444482e+003;5.362232e-002
1.446411e+003;5.484925e-002
1.448340e+003;5.659001e-002
1.450268e+003;5.815788e-002
1.452197e+003;5.907676e-002
1.454125e+003;5.981941e-002
1.456054e+003;6.005509e-002
1.457982e+003;6.005029e-002
1.459911e+003;6.016624e-002
1.461839e+003;5.979047e-002
1.463768e+003;5.945063e-002
1.465697e+003;5.995424e-002
1.467625e+003;6.165814e-002
1.469554e+003;6.464007e-002
1.471482e+003;6.652904e-002
1.473411e+003;6.540285e-002
1.475339e+003;6.264575e-002
1.477268e+003;5.973819e-002
1.479196e+003;5.656974e-002
1.481125e+003;5.301869e-002
1.483053e+003;4.920667e-002
1.484982e+003;4.536238e-002
1.486911e+003;4.189826e-002
1.488839e+003;3.895078e-002
1.490768e+003;3.668077e-002
1.492696e+003;3.529364e-002
1.494625e+003;3.536125e-002
1.496553e+003;3.752832e-002
1.498482e+003;4.177819e-002
1.500410e+003;4.836378e-002
1.502339e+003;5.656389e-002
1.504267e+003;6.277828e-002
1.506196e+003;6.183476e-002
1.508125e+003;5.380339e-002
1.510053e+003;4.479072e-002
1.511982e+003;3.856949e-002
1.513910e+003;3.470887e-002
1.515839e+003;3.265143e-002
1.517767e+003;3.191645e-002
1.519696e+003;3.190339e-002
1.521624e+003;3.201570e-002
1.523553e+003;3.210767e-002
1.525481e+003;3.231500e-002
1.527410e+003;3.218684e-002
1.529339e+003;3.132403e-002
1.531267e+003;3.020053e-002
1.533196e+003;2.916479e-002
1.535124e+003;2.816149e-002
1.537053e+003;2.742531e-002
1.538981e+003;2.686594e-002
1.540910e+003;2.671926e-002
1.542838e+003;2.671955e-002
1.544767e+003;2.676595e-002
1.546695e+003;2.676292e-002
1.548624e+003;2.659821e-002
1.550553e+003;2.679510e-002
1.552481e+003;2.735420e-002
1.554410e+003;2.779040e-002
1.556338e+003;2.806361e-002
1.558267e+003;2.832511e-002
1.560195e+003;2.881479e-002
1.562124e+003;2.930850e-002
1.564052e+003;3.007882e-002
1.565981e+003;3.124871e-002
1.567910e+003;3.260028e-002
1.569838e+003;3.460965e-002
1.571767e+003;3.742361e-002
1.573695e+003;4.059047e-002
1.575624e+003;4.357870e-002
1.577552e+003;4.564007e-002
1.579481e+003;4.585109e-002
1.581409e+003;4.394036e-002
1.583338e+003;4.088594e-002
1.585266e+003;3.785288e-002
1.587195e+003;3.523492e-002
1.589124e+003;3.361544e-002
1.591052e+003;3.292746e-002
1.592981e+003;3.249607e-002
1.594909e+003;3.224522e-002
1.596838e+003;3.255000e-002
1.598766e+003;3.337703e-002
1.600695e+003;3.431866e-002
1.602623e+003;3.549336e-002
1.604552e+003;3.678508e-002
1.606480e+003;3.870741e-002
1.608409e+003;4.080389e-002
1.610338e+003;4.244545e-002
1.612266e+003;4.374690e-002
1.614195e+003;4.455356e-002
1.616123e+003;4.427496e-002
1.618052e+003;4.293048e-002
1.619980e+003;4.160320e-002
1.621909e+003;4.073073e-002
1.623837e+003;4.039279e-002
1.625766e+003;4.046283e-002
1.627694e+003;4.067852e-002
1.629623e+003;4.107241e-002
1.631552e+003;4.143615e-002
1.633480e+003;4.207400e-002
1.635409e+003;4.312840e-002
1.637337e+003;4.391979e-002
1.639266e+003;4.461480e-002
1.641194e+003;4.569292e-002
1.643123e+003;4.681564e-002
1.645051e+003;4.777858e-002
1.646980e+003;4.851807e-002
1.648909e+003;4.939838e-002
1.650837e+003;5.062887e-002
1.652766e+003;5.208895e-002
1.654694e+003;5.381307e-002
1.656623e+003;5.561719e-002
1.658551e+003;5.778604e-002
1.660480e+003;6.039735e-002
1.662408e+003;6.360423e-002
1.664337e+003;6.692367e-002
1.666266e+003;7.052631e-002
1.668194e+003;7.425704e-002
1.670123e+003;7.808375e-002
1.672051e+003;8.177709e-002
1.673980e+003;8.519883e-002
1.675908e+003;8.868919e-002
1.677837e+003;9.257304e-002
1.679765e+003;9.689531e-002
1.681694e+003;1.012318e-001
1.683622e+003;1.047799e-001
1.685551e+003;1.083622e-001
1.687479e+003;1.126114e-001
1.689408e+003;1.180016e-001
1.691337e+003;1.251843e-001
1.693265e+003;1.344814e-001
1.695194e+003;1.458599e-001
1.697122e+003;1.603655e-001
1.699051e+003;1.787142e-001
1.700979e+003;2.021627e-001
1.702908e+003;2.309583e-001
1.704836e+003;2.668998e-001
1.706765e+003;3.107972e-001
1.708693e+003;3.597057e-001
1.710622e+003;4.065076e-001
1.712551e+003;4.406202e-001
1.714479e+003;4.526722e-001
1.716408e+003;4.426987e-001
1.718336e+003;4.173167e-001
1.720265e+003;3.859005e-001
1.722193e+003;3.535405e-001
1.724122e+003;3.224322e-001
1.726050e+003;2.915491e-001
1.727979e+003;2.612775e-001
1.729908e+003;2.324518e-001
1.731836e+003;2.055139e-001
1.733765e+003;1.799138e-001
1.735693e+003;1.564335e-001
1.737622e+003;1.348660e-001
1.739550e+003;1.146175e-001
1.741479e+003;9.624080e-002
1.743407e+003;8.005542e-002
1.745336e+003;6.635702e-002
1.747265e+003;5.554771e-002
1.749193e+003;4.771441e-002
1.751122e+003;4.251659e-002
1.753050e+003;3.892632e-002
1.754979e+003;3.622456e-002
1.756907e+003;3.424537e-002
1.758836e+003;3.290716e-002
1.760764e+003;3.184320e-002
1.762693e+003;3.094104e-002
1.764621e+003;3.026259e-002
1.766550e+003;2.955192e-002
1.768479e+003;2.908574e-002
1.770407e+003;2.855328e-002
1.772336e+003;2.785173e-002
1.774264e+003;2.756972e-002
1.776193e+003;2.762318e-002
1.778121e+003;2.731101e-002
1.780050e+003;2.669513e-002
1.781978e+003;2.633975e-002
1.783907e+003;2.625629e-002
1.785835e+003;2.628955e-002
1.787764e+003;2.615247e-002
1.789693e+003;2.590469e-002
1.791621e+003;2.560714e-002
1.793550e+003;2.544132e-002
1.795478e+003;2.529234e-002
1.797407e+003;2.525199e-002
1.799335e+003;2.522730e-002
1.801264e+003;2.499473e-002
1.803192e+003;2.519946e-002
1.805121e+003;2.539916e-002
1.807049e+003;2.520768e-002
1.808978e+003;2.503284e-002
1.810907e+003;2.500845e-002
1.812835e+003;2.538184e-002
1.814764e+003;2.565449e-002
1.816692e+003;2.546405e-002
1.818621e+003;2.525241e-002
1.820549e+003;2.493987e-002
1.822478e+003;2.481759e-002
1.824406e+003;2.492671e-002
1.826335e+003;2.471309e-002
1.828264e+003;2.410313e-002
1.830192e+003;2.362376e-002
1.832121e+003;2.344012e-002
1.834049e+003;2.303003e-002
1.835978e+003;2.246886e-002
1.837906e+003;2.182966e-002
1.839835e+003;2.110225e-002
1.841763e+003;2.028883e-002
1.843692e+003;1.960260e-002
1.845620e+003;1.900184e-002
1.847549e+003;1.833897e-002
1.849478e+003;1.756575e-002
1.851406e+003;1.673337e-002
1.853335e+003;1.600869e-002
1.855263e+003;1.557983e-002
1.857192e+003;1.499887e-002
1.859120e+003;1.440290e-002
1.861049e+003;1.382386e-002
1.862977e+003;1.341813e-002
1.864906e+003;1.317122e-002
1.866834e+003;1.257523e-002
1.868763e+003;1.202962e-002
1.870692e+003;1.171916e-002
1.872620e+003;1.142454e-002
1.874549e+003;1.122946e-002
1.876477e+003;1.108994e-002
1.878406e+003;1.097503e-002
1.880334e+003;1.071063e-002
1.882263e+003;1.042718e-002
1.884191e+003;1.038801e-002
1.886120e+003;1.027003e-002
1.888048e+003;1.025955e-002
1.889977e+003;1.036426e-002
1.891906e+003;1.060054e-002
1.893834e+003;1.067015e-002
1.895763e+003;1.072146e-002
1.897691e+003;1.057894e-002
1.899620e+003;1.044265e-002
1.901548e+003;1.072825e-002
1.903477e+003;1.123129e-002
1.905405e+003;1.153694e-002
1.907334e+003;1.140314e-002
1.909262e+003;1.146278e-002
1.911191e+003;1.188143e-002
1.913120e+003;1.231388e-002
1.915048e+003;1.267153e-002
1.916977e+003;1.289808e-002
1.918905e+003;1.311972e-002
1.920834e+003;1.348269e-002
1.922762e+003;1.399372e-002
1.924691e+003;1.440263e-002
1.926619e+003;1.471857e-002
1.928548e+003;1.533083e-002
1.930477e+003;1.619719e-002
1.932405e+003;1.708048e-002
1.934334e+003;1.793034e-002
1.936262e+003;1.841567e-002
1.938191e+003;1.889652e-002
1.940119e+003;1.984406e-002
1.942048e+003;2.064863e-002
1.943976e+003;2.115157e-002
1.945905e+003;2.166392e-002
1.947833e+003;2.227026e-002
1.949762e+003;2.286012e-002
1.951691e+003;2.322482e-002
1.953619e+003;2.361235e-002
1.955548e+003;2.397775e-002
1.957476e+003;2.410915e-002
1.959405e+003;2.397082e-002
1.961333e+003;2.364605e-002
1.963262e+003;2.304173e-002
1.965190e+003;2.226977e-002
1.967119e+003;2.142495e-002
1.969047e+003;2.042189e-002
1.970976e+003;1.958950e-002
1.972905e+003;1.905792e-002
1.974833e+003;1.838383e-002
1.976762e+003;1.784430e-002
1.978690e+003;1.736589e-002
1.980619e+003;1.680993e-002
1.982547e+003;1.642621e-002
1.984476e+003;1.617900e-002
1.986404e+003;1.573678e-002
1.988333e+003;1.524081e-002
1.990261e+003;1.476718e-002
1.992190e+003;1.428684e-002
1.994119e+003;1.369978e-002
1.996047e+003;1.304883e-002
1.997976e+003;1.273164e-002
1.999904e+003;1.243568e-002
2.001833e+003;1.171385e-002
2.003761e+003;1.115296e-002
2.005690e+003;1.097330e-002
2.007618e+003;1.083039e-002
2.009547e+003;1.059276e-002
2.011476e+003;1.019309e-002
2.013404e+003;1.009877e-002
2.015333e+003;1.001474e-002
2.017261e+003;9.694437e-003
2.019190e+003;9.490379e-003
2.021118e+003;9.105222e-003
2.023047e+003;8.901915e-003
2.024975e+003;8.750833e-003
2.026904e+003;8.552118e-003
2.028833e+003;8.497952e-003
2.030761e+003;8.378761e-003
2.032690e+003;8.485551e-003
2.034618e+003;8.601256e-003
2.036547e+003;8.654421e-003
2.038475e+003;8.808987e-003
2.040404e+003;8.812334e-003
2.042332e+003;8.751238e-003
2.044261e+003;8.885344e-003
2.046189e+003;9.146774e-003
2.048118e+003;9.387134e-003
2.050047e+003;9.673125e-003
2.051975e+003;1.019330e-002
2.053904e+003;1.055627e-002
2.055832e+003;1.067850e-002
2.057761e+003;1.096983e-002
2.059689e+003;1.119536e-002
2.061618e+003;1.146965e-002
2.063546e+003;1.185091e-002
2.065475e+003;1.227301e-002
2.067404e+003;1.282221e-002
2.069332e+003;1.344434e-002
2.071260e+003;1.374300e-002
2.073189e+003;1.396008e-002
2.075118e+003;1.406959e-002
2.077046e+003;1.448162e-002
2.078975e+003;1.501379e-002
2.080903e+003;1.527712e-002
2.082832e+003;1.546242e-002
2.084760e+003;1.565223e-002
2.086689e+003;1.570616e-002
2.088617e+003;1.577563e-002
2.090546e+003;1.594647e-002
2.092475e+003;1.619018e-002
2.094403e+003;1.635460e-002
2.096332e+003;1.631721e-002
2.098260e+003;1.649139e-002
2.100189e+003;1.670627e-002
2.102117e+003;1.679932e-002
2.104046e+003;1.702314e-002
2.105974e+003;1.716465e-002
2.107903e+003;1.715717e-002
2.109832e+003;1.691457e-002
2.111760e+003;1.673330e-002
2.113688e+003;1.669160e-002
2.115617e+003;1.653899e-002
2.117546e+003;1.617522e-002
2.119474e+003;1.582133e-002
2.121403e+003;1.564066e-002
2.123331e+003;1.551832e-002
2.125260e+003;1.554167e-002
2.127188e+003;1.538603e-002
2.129117e+003;1.508253e-002
2.131045e+003;1.484198e-002
2.132974e+003;1.451180e-002
2.134903e+003;1.434067e-002
2.136831e+003;1.433995e-002
2.138760e+003;1.435447e-002
2.140688e+003;1.407404e-002
2.142617e+003;1.346563e-002
2.144545e+003;1.295416e-002
2.146474e+003;1.274061e-002
2.148402e+003;1.257332e-002
2.150331e+003;1.241093e-002
2.152260e+003;1.214951e-002
2.154188e+003;1.187451e-002
2.156117e+003;1.170789e-002
2.158045e+003;1.138930e-002
2.159974e+003;1.107202e-002
2.161902e+003;1.095097e-002
2.163831e+003;1.075097e-002
2.165759e+003;1.051421e-002
2.167688e+003;1.020951e-002
2.169616e+003;1.006991e-002
2.171545e+003;9.867642e-003
2.173474e+003;9.722221e-003
2.175402e+003;9.719849e-003
2.177331e+003;9.789113e-003
2.179259e+003;9.955033e-003
2.181188e+003;9.730116e-003
2.183116e+003;9.407991e-003
2.185045e+003;9.264789e-003
2.186973e+003;9.142883e-003
2.188902e+003;9.300838e-003
2.190831e+003;9.462305e-003
2.192759e+003;9.517507e-003
2.194688e+003;9.448556e-003
2.196616e+003;9.626305e-003
2.198545e+003;9.854491e-003
2.200473e+003;9.889437e-003
2.202402e+003;9.851915e-003
2.204330e+003;1.007025e-002
2.206259e+003;1.031102e-002
2.208188e+003;1.055688e-002
2.210116e+003;1.078025e-002
2.212044e+003;1.110126e-002
2.213973e+003;1.134171e-002
2.215902e+003;1.126880e-002
2.217830e+003;1.120508e-002
2.219759e+003;1.135032e-002
2.221687e+003;1.176222e-002
2.223616e+003;1.221122e-002
2.225544e+003;1.218331e-002
2.227473e+003;1.199286e-002
2.229401e+003;1.205803e-002
2.231330e+003;1.217404e-002
2.233259e+003;1.214715e-002
2.235187e+003;1.244605e-002
2.237116e+003;1.275723e-002
2.239044e+003;1.285224e-002
2.240973e+003;1.308814e-002
2.242901e+003;1.335173e-002
2.244830e+003;1.327957e-002
2.246758e+003;1.316088e-002
2.248687e+003;1.340996e-002
2.250615e+003;1.372580e-002
2.252544e+003;1.377956e-002
2.254473e+003;1.384233e-002
2.256401e+003;1.397001e-002
2.258330e+003;1.423565e-002
2.260258e+003;1.445490e-002
2.262187e+003;1.439691e-002
2.264115e+003;1.426979e-002
2.266044e+003;1.419850e-002
2.267972e+003;1.427636e-002
2.269901e+003;1.401631e-002
2.271830e+003;1.394972e-002
2.273758e+003;1.436153e-002
2.275687e+003;1.439879e-002
2.277615e+003;1.428584e-002
2.279544e+003;1.425130e-002
2.281472e+003;1.420165e-002
2.283401e+003;1.431547e-002
2.285329e+003;1.458145e-002
2.287258e+003;1.479138e-002
2.289187e+003;1.435266e-002
2.291115e+003;1.372173e-002
2.293043e+003;1.348669e-002
2.294972e+003;1.336014e-002
2.296901e+003;1.299260e-002
2.298829e+003;1.235846e-002
2.300758e+003;1.180832e-002
2.302686e+003;1.147410e-002
2.304615e+003;1.101985e-002
2.306543e+003;1.054377e-002
2.308472e+003;1.037434e-002
2.310400e+003;1.039249e-002
2.312329e+003;1.038133e-002
2.314258e+003;1.029582e-002
2.316186e+003;1.040970e-002
2.318115e+003;1.066913e-002
2.320043e+003;1.064257e-002
2.321972e+003;1.052958e-002
2.323900e+003;1.055233e-002
2.325829e+003;1.075940e-002
2.327757e+003;1.105887e-002
2.329686e+003;1.123191e-002
2.331615e+003;1.147230e-002
2.333543e+003;1.164264e-002
2.335472e+003;1.152704e-002
2.337400e+003;1.151895e-002
2.339329e+003;1.156097e-002
2.341257e+003;1.147839e-002
2.343186e+003;1.134940e-002
2.345114e+003;1.150061e-002
2.347043e+003;1.190676e-002
2.348971e+003;1.216538e-002
2.350900e+003;1.235321e-002
2.352829e+003;1.260774e-002
2.354757e+003;1.276003e-002
2.356686e+003;1.287633e-002
2.358614e+003;1.314004e-002
2.360543e+003;1.363751e-002
2.362471e+003;1.418293e-002
2.364400e+003;1.451622e-002
2.366328e+003;1.463937e-002
2.368257e+003;1.477410e-002
2.370186e+003;1.515588e-002
2.372114e+003;1.555338e-002
2.374042e+003;1.536626e-002
2.375971e+003;1.528570e-002
2.377900e+003;1.570620e-002
2.379828e+003;1.591705e-002
2.381757e+003;1.582401e-002
2.383685e+003;1.595805e-002
2.385614e+003;1.601055e-002
2.387542e+003;1.573877e-002
2.389471e+003;1.570417e-002
2.391399e+003;1.549233e-002
2.393328e+003;1.504878e-002
2.395257e+003;1.491200e-002
2.397185e+003;1.493357e-002
2.399114e+003;1.469784e-002
2.401042e+003;1.452218e-002
2.402971e+003;1.443599e-002
2.404899e+003;1.431355e-002
2.406828e+003;1.418272e-002
2.408756e+003;1.397771e-002
2.410685e+003;1.368829e-002
2.412614e+003;1.339981e-002
2.414542e+003;1.311327e-002
2.416471e+003;1.300189e-002
2.418399e+003;1.319705e-002
2.420328e+003;1.333424e-002
2.422256e+003;1.304255e-002
2.424185e+003;1.257277e-002
2.426113e+003;1.226108e-002
2.428042e+003;1.196732e-002
2.429970e+003;1.146070e-002
2.431899e+003;1.120440e-002
2.433828e+003;1.106414e-002
2.435756e+003;1.096759e-002
2.437685e+003;1.094431e-002
2.439613e+003;1.055966e-002
2.441542e+003;1.021565e-002
2.443470e+003;1.005987e-002
2.445399e+003;1.014659e-002
2.447327e+003;1.008659e-002
2.449256e+003;9.744280e-003
2.451185e+003;9.672447e-003
2.453113e+003;9.923980e-003
2.455042e+003;9.796535e-003
2.456970e+003;9.366617e-003
2.458899e+003;9.142815e-003
2.460827e+003;9.211785e-003
2.462756e+003;9.473616e-003
2.464684e+003;9.660657e-003
2.466613e+003;9.806228e-003
2.468542e+003;9.633928e-003
2.470470e+003;9.451265e-003
2.472398e+003;9.635994e-003
2.474327e+003;9.915945e-003
2.476256e+003;1.007422e-002
2.478184e+003;1.022576e-002
2.480113e+003;1.031981e-002
2.482041e+003;1.042959e-002
2.483970e+003;1.074435e-002
2.485898e+003;1.103753e-002
2.487827e+003;1.118393e-002
2.489755e+003;1.128244e-002
2.491684e+003;1.127026e-002
2.493613e+003;1.161749e-002
2.495541e+003;1.175231e-002
2.497470e+003;1.185871e-002
2.499398e+003;1.206532e-002
2.501327e+003;1.226060e-002
2.503255e+003;1.248615e-002
2.505184e+003;1.250545e-002
2.507112e+003;1.254488e-002
2.509041e+003;1.254709e-002
2.510969e+003;1.250658e-002
2.512898e+003;1.267057e-002
2.514827e+003;1.291726e-002
2.516755e+003;1.326366e-002
2.518684e+003;1.337640e-002
2.520612e+003;1.322020e-002
2.522541e+003;1.332259e-002
2.524469e+003;1.332775e-002
2.526398e+003;1.347366e-002
2.528326e+003;1.383398e-002
2.530255e+003;1.415619e-002
2.532184e+003;1.415191e-002
2.534112e+003;1.408558e-002
2.536041e+003;1.391677e-002
2.537969e+003;1.398773e-002
2.539898e+003;1.401244e-002
2.541826e+003;1.394472e-002
2.543755e+003;1.420217e-002
2.545683e+003;1.420097e-002
2.547612e+003;1.418957e-002
2.549541e+003;1.453910e-002
2.551469e+003;1.456751e-002
2.553397e+003;1.433029e-002
2.555326e+003;1.405142e-002
2.557255e+003;1.411501e-002
2.559183e+003;1.441783e-002
2.561112e+003;1.440773e-002
2.563040e+003;1.436468e-002
2.564969e+003;1.455048e-002
2.566897e+003;1.452763e-002
2.568826e+003;1.429804e-002
2.570754e+003;1.428235e-002
2.572683e+003;1.429427e-002
2.574612e+003;1.435855e-002
2.576540e+003;1.450293e-002
2.578469e+003;1.443133e-002
2.580397e+003;1.450114e-002
2.582326e+003;1.466826e-002
2.584254e+003;1.448504e-002
2.586183e+003;1.420905e-002
2.588111e+003;1.407757e-002
2.590040e+003;1.393579e-002
2.591969e+003;1.360267e-002
2.593897e+003;1.319807e-002
2.595826e+003;1.297058e-002
2.597754e+003;1.284237e-002
2.599683e+003;1.302585e-002
2.601611e+003;1.296682e-002
2.603540e+003;1.277521e-002
2.605468e+003;1.266760e-002
2.607397e+003;1.244247e-002
2.609325e+003;1.249584e-002
2.611254e+003;1.267736e-002
2.613183e+003;1.242614e-002
2.615111e+003;1.212477e-002
2.617040e+003;1.211656e-002
2.618968e+003;1.204713e-002
2.620897e+003;1.225631e-002
2.622825e+003;1.270537e-002
2.624754e+003;1.259522e-002
2.626682e+003;1.238915e-002
2.628611e+003;1.260214e-002
2.630540e+003;1.276894e-002
2.632468e+003;1.247517e-002
2.634396e+003;1.209496e-002
2.636325e+003;1.174721e-002
2.638254e+003;1.165085e-002
2.640182e+003;1.148509e-002
2.642111e+003;1.106587e-002
2.644039e+003;1.074143e-002
2.645968e+003;1.058319e-002
2.647896e+003;1.013767e-002
2.649825e+003;9.736757e-003
2.651753e+003;9.445272e-003
2.653682e+003;9.306255e-003
2.655611e+003;9.517405e-003
2.657539e+003;9.731607e-003
2.659468e+003;9.806532e-003
2.661396e+003;1.008375e-002
2.663325e+003;1.010236e-002
2.665253e+003;9.723644e-003
2.667182e+003;9.556050e-003
2.669110e+003;9.761494e-003
2.671039e+003;1.001962e-002
2.672968e+003;9.991480e-003
2.674896e+003;9.984699e-003
2.676825e+003;1.012794e-002
2.678753e+003;1.017474e-002
2.680682e+003;1.001972e-002
2.682610e+003;9.834155e-003
2.684539e+003;9.855304e-003
2.686467e+003;1.005489e-002
2.688396e+003;1.006679e-002
2.690324e+003;1.013072e-002
2.692253e+003;1.032218e-002
2.694182e+003;1.014120e-002
2.696110e+003;1.005991e-002
2.698039e+003;1.028523e-002
2.699967e+003;1.043043e-002
2.701896e+003;1.026542e-002
2.703824e+003;1.053247e-002
2.705753e+003;1.082496e-002
2.707681e+003;1.088910e-002
2.709610e+003;1.109361e-002
2.711539e+003;1.089518e-002
2.713467e+003;1.080308e-002
2.715396e+003;1.092447e-002
2.717324e+003;1.110632e-002
2.719253e+003;1.137059e-002
2.721181e+003;1.138906e-002
2.723110e+003;1.161239e-002
2.725038e+003;1.184043e-002
2.726967e+003;1.220018e-002
2.728896e+003;1.225835e-002
2.730824e+003;1.203633e-002
2.732752e+003;1.239238e-002
2.734681e+003;1.268319e-002
2.736610e+003;1.274379e-002
2.738538e+003;1.299028e-002
2.740467e+003;1.298960e-002
2.742395e+003;1.297993e-002
2.744324e+003;1.325918e-002
2.746252e+003;1.350090e-002
2.748181e+003;1.365437e-002
2.750109e+003;1.375271e-002
2.752038e+003;1.365813e-002
2.753967e+003;1.339974e-002
2.755895e+003;1.337446e-002
2.757824e+003;1.333564e-002
2.759752e+003;1.307451e-002
2.761681e+003;1.298594e-002
2.763609e+003;1.329505e-002
2.765538e+003;1.352620e-002
2.767466e+003;1.360404e-002
2.769395e+003;1.369236e-002
2.771323e+003;1.388297e-002
2.773252e+003;1.414075e-002
2.775181e+003;1.424880e-002
2.777109e+003;1.406124e-002
2.779038e+003;1.443417e-002
2.780966e+003;1.495435e-002
2.782895e+003;1.485618e-002
2.784823e+003;1.487164e-002
2.786752e+003;1.514974e-002
2.788680e+003;1.529685e-002
2.790609e+003;1.531168e-002
2.792538e+003;1.573863e-002
2.794466e+003;1.645511e-002
2.796395e+003;1.687520e-002
2.798323e+003;1.713773e-002
2.800252e+003;1.742007e-002
2.802180e+003;1.757458e-002
2.804109e+003;1.751618e-002
2.806037e+003;1.750914e-002
2.807966e+003;1.782000e-002
2.809895e+003;1.789730e-002
2.811823e+003;1.762461e-002
2.813751e+003;1.740242e-002
2.815680e+003;1.713945e-002
2.817609e+003;1.693635e-002
2.819537e+003;1.667387e-002
2.821466e+003;1.644276e-002
2.823394e+003;1.649586e-002
2.825323e+003;1.662508e-002
2.827251e+003;1.691102e-002
2.829180e+003;1.713328e-002
2.831108e+003;1.714141e-002
2.833037e+003;1.709919e-002
2.834966e+003;1.744153e-002
2.836894e+003;1.800483e-002
2.838823e+003;1.817817e-002
2.840751e+003;1.815319e-002
2.842680e+003;1.849470e-002
2.844608e+003;1.899135e-002
2.846537e+003;1.936300e-002
2.848465e+003;1.969232e-002
2.850394e+003;2.017042e-002
2.852323e+003;2.047604e-002
2.854251e+003;2.101411e-002
2.856180e+003;2.168380e-002
2.858108e+003;2.223929e-002
2.860037e+003;2.308041e-002
2.861965e+003;2.394250e-002
2.863894e+003;2.444896e-002
2.865822e+003;2.494689e-002
2.867751e+003;2.563147e-002
2.869679e+003;2.614620e-002
2.871608e+003;2.623299e-002
2.873536e+003;2.629561e-002
2.875465e+003;2.643362e-002
2.877394e+003;2.647306e-002
2.879322e+003;2.685910e-002
2.881251e+003;2.730448e-002
2.883179e+003;2.801346e-002
2.885108e+003;2.844905e-002
2.887036e+003;2.833221e-002
2.888965e+003;2.855629e-002
2.890893e+003;2.898318e-002
2.892822e+003;2.930294e-002
2.894750e+003;2.957384e-002
2.896679e+003;2.989346e-002
2.898608e+003;3.036967e-002
2.900536e+003;3.125829e-002
2.902465e+003;3.209821e-002
2.904393e+003;3.330408e-002
2.906322e+003;3.415525e-002
2.908250e+003;3.411052e-002
2.910179e+003;3.358332e-002
2.912107e+003;3.253789e-002
2.914036e+003;3.107972e-002
2.915965e+003;2.965230e-002
2.917893e+003;2.788932e-002
2.919822e+003;2.626843e-002
2.921750e+003;2.540629e-002
2.923679e+003;2.476104e-002
2.925607e+003;2.451907e-002
2.927536e+003;2.467792e-002
2.929464e+003;2.466557e-002
2.931393e+003;2.510203e-002
2.933322e+003;2.612632e-002
2.935250e+003;2.712781e-002
2.937178e+003;2.822464e-002
2.939107e+003;2.950131e-002
2.941036e+003;3.038040e-002
2.942964e+003;3.138600e-002
2.944893e+003;3.270573e-002
2.946821e+003;3.355007e-002
2.948750e+003;3.478884e-002
2.950678e+003;3.593858e-002
2.952607e+003;3.679140e-002
2.954535e+003;3.809137e-002
2.956464e+003;3.954862e-002
2.958393e+003;4.090144e-002
2.960321e+003;4.219171e-002
2.962250e+003;4.350247e-002
2.964178e+003;4.483514e-002
2.966107e+003;4.584917e-002
2.968035e+003;4.647699e-002
2.969964e+003;4.683067e-002
2.971892e+003;4.664078e-002
2.973821e+003;4.616475e-002
2.975750e+003;4.563925e-002
2.977678e+003;4.505073e-002
2.979607e+003;4.431154e-002
2.981535e+003;4.350273e-002
2.983464e+003;4.259476e-002
2.985392e+003;4.143728e-002
2.987321e+003;4.075031e-002
2.989249e+003;4.053041e-002
2.991178e+003;3.978499e-002
2.993106e+003;3.878656e-002
2.995035e+003;3.822862e-002
2.996964e+003;3.760596e-002
2.998892e+003;3.683507e-002
3.000821e+003;3.649801e-002
3.002749e+003;3.637719e-002
3.004678e+003;3.551666e-002
3.006606e+003;3.459669e-002
3.008535e+003;3.415661e-002
3.010463e+003;3.391118e-002
3.012392e+003;3.350128e-002
3.014321e+003;3.287314e-002
3.016249e+003;3.224451e-002
3.018177e+003;3.161743e-002
3.020106e+003;3.090767e-002
3.022035e+003;2.998149e-002
3.023963e+003;2.864597e-002
3.025892e+003;2.712785e-002
3.027820e+003;2.617984e-002
3.029749e+003;2.579553e-002
3.031677e+003;2.542568e-002
3.033606e+003;2.507472e-002
3.035534e+003;2.456742e-002
3.037463e+003;2.394362e-002
3.039392e+003;2.374266e-002
3.041320e+003;2.426981e-002
3.043249e+003;2.495707e-002
3.045177e+003;2.570866e-002
3.047106e+003;2.690412e-002
3.049034e+003;2.813706e-002
3.050963e+003;2.905761e-002
3.052891e+003;2.984327e-002
3.054820e+003;3.039394e-002
3.056749e+003;3.052388e-002
3.058677e+003;3.025633e-002
3.060606e+003;3.014370e-002
3.062534e+003;3.002772e-002
3.064463e+003;2.955199e-002
3.066391e+003;2.922833e-002
3.068320e+003;2.936419e-002
3.070248e+003;2.938618e-002
3.072177e+003;2.931605e-002
3.074105e+003;2.923726e-002
3.076034e+003;2.923294e-002
3.077963e+003;2.952390e-002
3.079891e+003;2.963694e-002
3.081820e+003;2.931375e-002
3.083748e+003;2.879974e-002
3.085677e+003;2.837098e-002
3.087605e+003;2.790285e-002
3.089534e+003;2.732720e-002
3.091462e+003;2.692044e-002
3.093391e+003;2.685837e-002
3.095320e+003;2.681808e-002
3.097248e+003;2.693549e-002
3.099177e+003;2.728352e-002
3.101105e+003;2.752947e-002
3.103034e+003;2.762289e-002
3.104962e+003;2.779648e-002
3.106891e+003;2.763702e-002
3.108819e+003;2.710633e-002
3.110748e+003;2.684479e-002
3.112677e+003;2.649131e-002
3.114605e+003;2.518454e-002
3.116533e+003;2.446179e-002
3.118462e+003;2.415469e-002
3.120391e+003;2.360049e-002
3.122319e+003;2.342701e-002
3.124248e+003;2.328176e-002
3.126176e+003;2.329320e-002
3.128105e+003;2.332693e-002
3.130033e+003;2.316722e-002
3.131962e+003;2.265132e-002
3.133890e+003;2.210839e-002
3.135819e+003;2.181200e-002
3.137748e+003;2.166743e-002
3.139676e+003;2.105794e-002
3.141605e+003;1.998507e-002
3.143533e+003;1.922465e-002
3.145462e+003;1.913631e-002
3.147390e+003;1.946095e-002
3.149319e+003;1.945998e-002
3.151247e+003;1.901333e-002
3.153176e+003;1.867031e-002
3.155104e+003;1.846172e-002
3.157033e+003;1.825847e-002
3.158962e+003;1.804093e-002
3.160890e+003;1.765419e-002
3.162819e+003;1.735551e-002
3.164747e+003;1.731013e-002
3.166676e+003;1.736310e-002
3.168604e+003;1.769412e-002
3.170533e+003;1.775320e-002
3.172461e+003;1.747302e-002
3.174390e+003;1.729993e-002
3.176319e+003;1.713704e-002
3.178247e+003;1.690844e-002
3.180176e+003;1.691457e-002
3.182104e+003;1.715527e-002
3.184033e+003;1.731686e-002
3.185961e+003;1.727531e-002
3.187890e+003;1.707338e-002
3.189818e+003;1.705698e-002
3.191747e+003;1.704381e-002
3.193676e+003;1.671701e-002
3.195604e+003;1.650305e-002
3.197532e+003;1.643333e-002
3.199461e+003;1.644837e-002
3.201390e+003;1.638894e-002
3.203318e+003;1.602945e-002
3.205247e+003;1.593269e-002
3.207175e+003;1.597662e-002
3.209104e+003;1.616909e-002
3.211032e+003;1.625804e-002
3.212961e+003;1.606033e-002
3.214889e+003;1.579701e-002
3.216818e+003;1.576230e-002
3.218747e+003;1.563399e-002
3.220675e+003;1.599549e-002
3.222604e+003;1.653135e-002
3.224532e+003;1.649934e-002
3.226461e+003;1.634026e-002
3.228389e+003;1.631095e-002
3.230318e+003;1.624854e-002
3.232246e+003;1.614488e-002
3.234175e+003;1.605397e-002
3.236104e+003;1.587948e-002
3.238032e+003;1.570118e-002
3.239961e+003;1.554720e-002
3.241889e+003;1.533121e-002
3.243818e+003;1.516439e-002
3.245746e+003;1.532040e-002
3.247675e+003;1.545600e-002
3.249603e+003;1.509454e-002
3.251532e+003;1.479426e-002
3.253460e+003;1.499012e-002
3.255389e+003;1.494530e-002
3.257318e+003;1.465674e-002
3.259246e+003;1.460236e-002
3.261175e+003;1.462213e-002
3.263103e+003;1.455589e-002
3.265032e+003;1.465996e-002
3.266960e+003;1.472745e-002
3.268889e+003;1.470589e-002
3.270817e+003;1.458612e-002
3.272746e+003;1.448621e-002
3.274675e+003;1.453623e-002
3.276603e+003;1.459403e-002
3.278531e+003;1.472872e-002
3.280460e+003;1.490631e-002
3.282389e+003;1.489266e-002
3.284317e+003;1.477523e-002
3.286246e+003;1.474126e-002
3.288174e+003;1.457258e-002
3.290103e+003;1.443366e-002
3.292031e+003;1.457100e-002
3.293960e+003;1.487216e-002
3.295888e+003;1.493148e-002
3.297817e+003;1.482097e-002
3.299746e+003;1.463632e-002
3.301674e+003;1.437005e-002
3.303603e+003;1.444133e-002
3.305531e+003;1.449241e-002
3.307460e+003;1.439605e-002
3.309388e+003;1.423223e-002
3.311317e+003;1.419491e-002
3.313245e+003;1.416999e-002
3.315174e+003;1.409163e-002
3.317103e+003;1.425047e-002
3.319031e+003;1.435016e-002
3.320960e+003;1.395420e-002
3.322888e+003;1.400957e-002
3.324817e+003;1.434070e-002
3.326745e+003;1.434814e-002
3.328674e+003;1.448021e-002
3.330602e+003;1.489016e-002
3.332531e+003;1.521826e-002
3.334459e+003;1.557825e-002
3.336388e+003;1.538315e-002
3.338317e+003;1.510164e-002
3.340245e+003;1.498597e-002
3.342174e+003;1.448497e-002
3.344102e+003;1.409495e-002
3.346031e+003;1.388793e-002
3.347959e+003;1.388461e-002
3.349888e+003;1.368367e-002
3.351816e+003;1.354483e-002
3.353745e+003;1.339373e-002
3.355674e+003;1.319168e-002
3.357602e+003;1.321477e-002
3.359531e+003;1.300612e-002
3.361459e+003;1.273557e-002
3.363388e+003;1.238291e-002
3.365316e+003;1.217363e-002
3.367245e+003;1.243470e-002
3.369173e+003;1.252956e-002
3.371102e+003;1.254951e-002
3.373031e+003;1.265539e-002
3.374959e+003;1.286084e-002
3.376887e+003;1.273045e-002
3.378816e+003;1.237817e-002
3.380745e+003;1.237203e-002
3.382673e+003;1.200458e-002
3.384602e+003;1.223439e-002
3.386530e+003;1.294894e-002
3.388459e+003;1.316569e-002
3.390387e+003;1.300069e-002
3.392316e+003;1.309189e-002
3.394244e+003;1.364048e-002
3.396173e+003;1.398079e-002
3.398102e+003;1.420911e-002
3.400030e+003;1.437869e-002
3.401959e+003;1.461051e-002
3.403887e+003;1.531745e-002
3.405816e+003;1.570822e-002
3.407744e+003;1.594774e-002
3.409673e+003;1.694082e-002
3.411601e+003;1.810808e-002
3.413530e+003;1.904404e-002
3.415458e+003;1.996304e-002
3.417387e+003;2.084103e-002
3.419316e+003;2.171428e-002
3.421244e+003;2.228114e-002
3.423173e+003;2.305739e-002
3.425101e+003;2.379694e-002
3.427030e+003;2.407651e-002
3.428958e+003;2.447812e-002
3.430887e+003;2.488303e-002
3.432815e+003;2.465873e-002
3.434744e+003;2.385519e-002
3.436673e+003;2.288439e-002
3.438601e+003;2.231058e-002
3.440530e+003;2.221801e-002
3.442458e+003;2.209726e-002
3.444387e+003;2.129228e-002
3.446315e+003;2.007619e-002
3.448244e+003;1.914597e-002
3.450172e+003;1.869390e-002
3.452101e+003;1.830748e-002
3.454030e+003;1.755112e-002
3.455958e+003;1.709943e-002
3.457886e+003;1.678230e-002
3.459815e+003;1.616803e-002
3.461744e+003;1.573567e-002
3.463672e+003;1.554816e-002
3.465601e+003;1.486417e-002
3.467529e+003;1.397884e-002
3.469458e+003;1.399290e-002
3.471386e+003;1.376694e-002
3.473315e+003;1.356667e-002
3.475243e+003;1.367481e-002
3.477172e+003;1.322690e-002
3.479101e+003;1.286855e-002
3.481029e+003;1.265041e-002
3.482958e+003;1.253864e-002
3.484886e+003;1.249948e-002
3.486815e+003;1.235236e-002
3.488743e+003;1.233078e-002
3.490672e+003;1.248182e-002
3.492600e+003;1.274392e-002
3.494529e+003;1.269701e-002
3.496458e+003;1.256445e-002
3.498386e+003;1.261909e-002
3.500315e+003;1.245464e-002
3.502243e+003;1.235908e-002
3.504172e+003;1.234452e-002
3.506100e+003;1.264587e-002
3.508029e+003;1.293057e-002
3.509957e+003;1.260545e-002
3.511886e+003;1.255132e-002
3.513814e+003;1.293204e-002
3.515743e+003;1.347681e-002
3.517672e+003;1.377406e-002
3.519600e+003;1.375282e-002
3.521529e+003;1.365338e-002
3.523457e+003;1.326021e-002
3.525386e+003;1.327893e-002
3.527314e+003;1.403872e-002
3.529243e+003;1.449080e-002
3.531171e+003;1.412494e-002
3.533100e+003;1.417183e-002
3.535029e+003;1.460044e-002
3.536957e+003;1.453928e-002
3.538885e+003;1.449700e-002
3.540814e+003;1.432355e-002
3.542743e+003;1.468197e-002
3.544671e+003;1.516546e-002
3.546600e+003;1.506010e-002
3.548528e+003;1.455247e-002
3.550457e+003;1.432557e-002
3.552385e+003;1.409115e-002
3.554314e+003;1.405912e-002
3.556242e+003;1.430550e-002
3.558171e+003;1.436190e-002
3.560100e+003;1.398198e-002
3.562028e+003;1.371554e-002
3.563957e+003;1.351239e-002
3.565885e+003;1.313137e-002
3.567814e+003;1.307096e-002
3.569742e+003;1.280879e-002
3.571671e+003;1.262090e-002
3.573599e+003;1.248339e-002
3.575528e+003;1.227921e-002
3.577457e+003;1.181571e-002
3.579385e+003;1.133223e-002
3.581314e+003;1.106410e-002
3.583242e+003;1.096833e-002
3.585171e+003;1.100510e-002
3.587099e+003;1.052941e-002
3.589028e+003;1.026006e-002
3.590956e+003;1.050596e-002
3.592885e+003;1.045307e-002
3.594813e+003;1.031370e-002
3.596742e+003;1.003610e-002
3.598671e+003;1.012787e-002
3.600599e+003;1.047513e-002
3.602528e+003;1.008015e-002
3.604456e+003;9.595715e-003
3.606385e+003;9.676954e-003
3.608313e+003;9.921743e-003
3.610242e+003;9.934726e-003
3.612170e+003;9.950016e-003
3.614099e+003;1.052483e-002
3.616028e+003;1.100765e-002
3.617956e+003;1.082611e-002
3.619885e+003;1.015510e-002
3.621813e+003;9.938252e-003
3.623742e+003;1.025612e-002
3.625670e+003;1.044768e-002
3.627599e+003;1.019808e-002
3.629527e+003;1.033983e-002
3.631456e+003;1.050348e-002
3.633385e+003;1.025324e-002
3.635313e+003;1.025755e-002
3.637241e+003;1.042368e-002
3.639170e+003;1.030233e-002
3.641099e+003;1.026437e-002
3.643027e+003;1.031875e-002
3.644956e+003;1.054201e-002
3.646884e+003;1.061246e-002
3.648813e+003;9.730387e-003
3.650741e+003;8.884295e-003
3.652670e+003;8.820179e-003
3.654598e+003;8.764998e-003
3.656527e+003;8.653306e-003
3.658456e+003;8.529478e-003
3.660384e+003;8.006806e-003
3.662313e+003;7.329285e-003
3.664241e+003;7.494774e-003
3.666170e+003;7.493290e-003
3.668098e+003;7.097572e-003
3.670027e+003;7.117511e-003
3.671955e+003;7.153822e-003
3.673884e+003;6.876789e-003
3.675813e+003;6.697369e-003
3.677741e+003;6.810646e-003
3.679669e+003;6.909544e-003
3.681598e+003;6.962738e-003
3.683527e+003;7.290029e-003
3.685455e+003;7.585162e-003
3.687384e+003;7.293196e-003
3.689312e+003;6.391641e-003
3.691241e+003;6.114725e-003
3.693169e+003;5.966153e-003
3.695098e+003;5.634489e-003
3.697026e+003;5.498598e-003
3.698955e+003;5.143718e-003
3.700884e+003;4.896916e-003
3.702812e+003;4.986161e-003
3.704741e+003;4.939911e-003
3.706669e+003;4.926372e-003
3.708598e+003;5.051725e-003
3.710526e+003;4.860459e-003
3.712455e+003;4.829600e-003
3.714383e+003;4.658492e-003
3.716312e+003;4.634748e-003
3.718240e+003;4.768928e-003
3.720169e+003;4.787956e-003
3.722098e+003;4.848865e-003
3.724026e+003;4.294660e-003
3.725955e+003;4.283149e-003
3.727883e+003;4.812312e-003
3.729812e+003;5.257329e-003
3.731740e+003;5.093428e-003
3.733669e+003;4.591749e-003
3.735597e+003;4.290812e-003
3.737526e+003;4.366144e-003
3.739455e+003;4.417221e-003
3.741383e+003;4.459164e-003
3.743312e+003;4.637360e-003
3.745240e+003;4.475066e-003
3.747169e+003;4.690913e-003
3.749097e+003;4.751039e-003
3.751026e+003;4.602800e-003
3.752954e+003;4.786984e-003
3.754883e+003;5.219366e-003
3.756812e+003;5.474002e-003
3.758740e+003;5.509068e-003
3.760668e+003;5.495276e-003
3.762597e+003;5.412132e-003
3.764526e+003;5.028026e-003
3.766454e+003;4.789664e-003
3.768383e+003;4.534960e-003
3.770311e+003;4.532751e-003
3.772240e+003;4.727590e-003
3.774168e+003;4.895408e-003
3.776097e+003;5.208031e-003
3.778025e+003;4.908979e-003
3.779954e+003;4.602733e-003
3.781883e+003;4.203516e-003
3.783811e+003;4.046434e-003
3.785740e+003;4.349176e-003
3.787668e+003;4.766583e-003
3.789597e+003;4.701162e-003
3.791525e+003;4.544904e-003
3.793454e+003;4.716905e-003
3.795382e+003;4.740587e-003
3.797311e+003;4.211144e-003
3.799240e+003;4.049711e-003
3.801168e+003;4.618505e-003
3.803097e+003;5.329810e-003
3.805025e+003;5.431088e-003
3.806954e+003;5.225302e-003
3.808882e+003;5.012908e-003
3.810811e+003;4.636522e-003
3.812739e+003;4.715097e-003
3.814668e+003;5.034160e-003
3.816596e+003;4.888170e-003
3.818525e+003;4.712350e-003
3.820454e+003;4.675875e-003
3.822382e+003;4.505631e-003
3.824311e+003;4.433723e-003
3.826239e+003;4.666262e-003
3.828168e+003;4.512629e-003
3.830096e+003;4.066367e-003
3.832025e+003;3.975337e-003
3.833953e+003;4.430844e-003
3.835882e+003;4.824708e-003
3.837811e+003;4.253335e-003
3.839739e+003;4.314036e-003
3.841667e+003;4.973894e-003
3.843596e+003;4.950870e-003
3.845525e+003;4.467868e-003
3.847453e+003;4.188461e-003
3.849382e+003;4.148417e-003
3.851310e+003;4.178291e-003
3.853239e+003;3.970088e-003
3.855167e+003;4.190770e-003
3.857096e+003;4.384318e-003
3.859024e+003;3.968549e-003
3.860953e+003;4.135204e-003
3.862882e+003;4.565932e-003
3.864810e+003;4.783433e-003
3.866739e+003;4.924328e-003
3.868667e+003;4.754556e-003
3.870596e+003;4.825445e-003
3.872524e+003;4.607622e-003
3.874453e+003;4.261600e-003
3.876381e+003;4.323875e-003
3.878310e+003;4.708632e-003
3.880239e+003;4.887299e-003
3.882167e+003;5.015959e-003
3.884096e+003;4.823301e-003
3.886024e+003;4.359116e-003
3.887953e+003;4.520965e-003
3.889881e+003;4.694195e-003
3.891810e+003;4.669947e-003
3.893738e+003;4.836636e-003
3.895667e+003;4.816734e-003
3.897595e+003;5.012440e-003
3.899524e+003;5.488263e-003
3.901453e+003;5.689844e-003
3.903381e+003;4.897955e-003
3.905310e+003;4.706656e-003
3.907238e+003;5.536887e-003
3.909167e+003;5.710457e-003
3.911095e+003;5.646036e-003
3.913024e+003;5.636838e-003
3.914952e+003;5.892995e-003
3.916881e+003;6.103030e-003
3.918810e+003;5.631434e-003
3.920738e+003;5.721670e-003
3.922667e+003;5.923493e-003
3.924595e+003;5.682156e-003
3.926524e+003;5.358691e-003
3.928452e+003;5.110895e-003
3.930381e+003;5.383381e-003
3.932309e+003;6.193365e-003
3.934238e+003;6.565989e-003
3.936167e+003;6.152396e-003
3.938095e+003;5.962257e-003
3.940023e+003;6.032336e-003
3.941952e+003;6.118018e-003
3.943881e+003;6.321303e-003
3.945809e+003;5.945764e-003
3.947738e+003;5.961383e-003
3.949666e+003;6.745591e-003
3.951595e+003;6.719612e-003
3.953523e+003;6.509043e-003
3.955452e+003;6.470769e-003
3.957380e+003;6.129376e-003
3.959309e+003;6.006466e-003
3.961238e+003;6.033814e-003
3.963166e+003;6.232589e-003
3.965095e+003;6.482035e-003
3.967023e+003;6.041004e-003
3.968952e+003;5.624217e-003
3.970880e+003;5.689071e-003
3.972809e+003;5.657549e-003
3.974737e+003;5.559540e-003
3.976666e+003;5.592264e-003
3.978594e+003;5.995581e-003
3.980523e+003;6.565250e-003
3.982452e+003;6.768879e-003
3.984380e+003;6.508303e-003
3.986309e+003;6.363834e-003
3.988237e+003;6.189701e-003
3.990166e+003;5.799097e-003
3.992094e+003;6.165973e-003
3.994023e+003;6.759792e-003
3.995951e+003;6.609823e-003
3.997880e+003;6.109449e-003
3.999809e+003;5.464842e-003
4.001737e+003;0.000000e+000
