3.992094e+002;0.000000e+000
4.011380e+002;0.000000e+000
4.030665e+002;0.000000e+000
4.049951e+002;0.000000e+000
4.069236e+002;0.000000e+000
4.088522e+002;0.000000e+000
4.107807e+002;0.000000e+000
4.127093e+002;0.000000e+000
4.146378e+002;0.000000e+000
4.165664e+002;0.000000e+000
4.184949e+002;0.000000e+000
4.204235e+002;0.000000e+000
4.223520e+002;0.000000e+000
4.242806e+002;0.000000e+000
4.262091e+002;0.000000e+000
4.281377e+002;0.000000e+000
4.300662e+002;0.000000e+000
4.319948e+002;0.000000e+000
4.339233e+002;0.000000e+000
4.358519e+002;0.000000e+000
4.377804e+002;0.000000e+000
4.397090e+002;0.000000e+000
4.416375e+002;0.000000e+000
4.435660e+002;0.000000e+000
4.454946e+002;0.000000e+000
4.474232e+002;0.000000e+000
4.493517e+002;0.000000e+000
4.512802e+002;0.000000e+000
4.532088e+002;0.000000e+000
4.551373e+002;0.000000e+000
4.570659e+002;0.000000e+000
4.589944e+002;0.000000e+000
4.609230e+002;0.000000e+000
4.628515e+002;0.000000e+000
4.647801e+002;0.000000e+000
4.667086e+002;0.000000e+000
4.686372e+002;0.000000e+000
4.705657e+002;0.000000e+000
4.724943e+002;0.000000e+000
4.744228e+002;0.000000e+000
4.763513e+002;0.000000e+000
4.782799e+002;0.000000e+000
4.802085e+002;0.000000e+000
4.821370e+002;0.000000e+000
4.840656e+002;0.000000e+000
4.859941e+002;0.000000e+000
4.879226e+002;0.000000e+000
4.898512e+002;0.000000e+000
4.917798e+002;0.000000e+000
4.937083e+002;0.000000e+000
4.956368e+002;0.000000e+000
4.975654e+002;0.000000e+000
4.994939e+002;0.000000e+000
5.014225e+002;0.000000e+000
5.033510e+002;0.000000e+000
5.052796e+002;0.000000e+000
5.072081e+002;0.000000e+000
5.091367e+002;0.000000e+000
5.110652e+002;0.000000e+000
5.129938e+002;0.000000e+000
5.149223e+002;0.000000e+000
5.168509e+002;0.000000e+000
5.187794e+002;0.000000e+000
5.207079e+002;0.000000e+000
5.226365e+002;0.000000e+000
5.245651e+002;0.000000e+000
5.264936e+002;0.000000e+000
5.284222e+002;0.000000e+000
5.303507e+002;0.000000e+000
5.322792e+002;0.000000e+000
5.342078e+002;0.000000e+000
5.361364e+002;0.000000e+000
5.380649e+002;0.000000e+000
5.399935e+002;0.000000e+000
5.419220e+002;0.000000e+000
5.438505e+002;0.000000e+000
5.457791e+002;0.000000e+000
5.477076e+002;0.000000e+000
5.496362e+002;0.000000e+000
5.515648e+002;0.000000e+000
5.534933e+002;0.000000e+000
5.554218e+002;0.000000e+000
5.573504e+002;0.000000e+000
5.592789e+002;0.000000e+000
5.612075e+002;0.000000e+000
5.631360e+002;0.000000e+000
5.650646e+002;0.000000e+000
5.669931e+002;0.000000e+000
5.689217e+002;0.000000e+000
5.708502e+002;0.000000e+000
5.727787e+002;0.000000e+000
5.747073e+002;0.000000e+000
5.766359e+002;0.000000e+000
5.785644e+002;0.000000e+000
5.804930e+002;0.000000e+000
5.824215e+002;0.000000e+000
5.843500e+002;0.000000e+000
5.862786e+002;0.000000e+000
5.882072e+002;0.000000e+000
5.901357e+002;0.000000e+000
5.920643e+002;0.000000e+000
5.939928e+002;0.000000e+000
5.959213e+002;0.000000e+000
5.978499e+002;0.000000e+000
5.997784e+002;4.497480e-002
6.017070e+002;4.853433e-002
6.036355e+002;4.682354e-002
6.055641e+002;4.521572e-002
6.074926e+002;4.160936e-002
6.094211e+002;4.586269e-002
6.113497e+002;5.061759e-002
6.132783e+002;4.781216e-002
6.152068e+002;4.583868e-002
6.171354e+002;4.695144e-002
6.190639e+002;4.755575e-002
6.209924e+002;4.658018e-002
6.229210e+002;5.010393e-002
6.248495e+002;5.674630e-002
6.267781e+002;5.660209e-002
6.287067e+002;5.877260e-002
6.306352e+002;6.281684e-002
6.325637e+002;6.144262e-002
6.344923e+002;6.123041e-002
6.364208e+002;6.058725e-002
6.383494e+002;5.830412e-002
6.402780e+002;5.451163e-002
6.422065e+002;5.474903e-002
6.441350e+002;5.651630e-002
6.460636e+002;5.555736e-002
6.479921e+002;5.539001e-002
6.499207e+002;5.751761e-002
6.518492e+002;5.782517e-002
6.537778e+002;5.716499e-002
6.557063e+002;5.805307e-002
6.576349e+002;5.948615e-002
6.595634e+002;5.907851e-002
6.614919e+002;5.739065e-002
6.634205e+002;5.822058e-002
6.653491e+002;5.866374e-002
6.672776e+002;5.675314e-002
6.692062e+002;5.773044e-002
6.711347e+002;5.926081e-002
6.730632e+002;5.952005e-002
6.749918e+002;6.096409e-002
6.769203e+002;6.408273e-002
6.788489e+002;6.602199e-002
6.807775e+002;6.547732e-002
6.827060e+002;6.492813e-002
6.846345e+002;6.449444e-002
6.865631e+002;6.388608e-002
6.884916e+002;6.471413e-002
6.904202e+002;6.649069e-002
6.923488e+002;6.923033e-002
6.942773e+002;7.159656e-002
6.962058e+002;7.427485e-002
6.981344e+002;7.897357e-002
7.000629e+002;8.519048e-002
7.019915e+002;9.088519e-002
7.039200e+002;9.538889e-002
7.058486e+002;9.956127e-002
7.077771e+002;1.048168e-001
7.097057e+002;1.102705e-001
7.116342e+002;1.171668e-001
7.135627e+002;1.251024e-001
7.154913e+002;1.349591e-001
7.174199e+002;1.485335e-001
7.193484e+002;1.617420e-001
7.212770e+002;1.718643e-001
7.232055e+002;1.781142e-001
7.251340e+002;1.777501e-001
7.270626e+002;1.689852e-001
7.289911e+002;1.541067e-001
7.309197e+002;1.372345e-001
7.328483e+002;1.219084e-001
7.347768e+002;1.080175e-001
7.367053e+002;9.379473e-002
7.386339e+002;8.060361e-002
7.405624e+002;7.003237e-002
7.424910e+002;6.286451e-002
7.444196e+002;5.776189e-002
7.463481e+002;5.391678e-002
7.482766e+002;5.151702e-002
7.502052e+002;5.089485e-002
7.521337e+002;5.029894e-002
7.540623e+002;5.045716e-002
7.559908e+002;5.156303e-002
7.579194e+002;5.204375e-002
7.598479e+002;5.104989e-002
7.617765e+002;4.996458e-002
7.637050e+002;4.996309e-002
7.656335e+002;5.121304e-002
7.675621e+002;5.276936e-002
7.694907e+002;5.396191e-002
7.714192e+002;5.473599e-002
7.733478e+002;5.577853e-002
7.752763e+002;5.610390e-002
7.772048e+002;5.606525e-002
7.791334e+002;5.690103e-002
7.810620e+002;5.832311e-002
7.829905e+002;5.902465e-002
7.849191e+002;5.988573e-002
7.868476e+002;6.180103e-002
7.887761e+002;6.395767e-002
7.907047e+002;6.521484e-002
7.926332e+002;6.561391e-002
7.945618e+002;6.412201e-002
7.964903e+002;6.081031e-002
7.984189e+002;5.831765e-002
8.003474e+002;5.706647e-002
8.022759e+002;5.693208e-002
8.042045e+002;5.788404e-002
8.061331e+002;5.859385e-002
8.080616e+002;5.855214e-002
8.099902e+002;5.820663e-002
8.119187e+002;5.841828e-002
8.138472e+002;5.922727e-002
8.157758e+002;5.974727e-002
8.177043e+002;6.033936e-002
8.196329e+002;6.139186e-002
8.215615e+002;6.205686e-002
8.234900e+002;6.234895e-002
8.254185e+002;6.295015e-002
8.273471e+002;6.399640e-002
8.292756e+002;6.523275e-002
8.312042e+002;6.619920e-002
8.331328e+002;6.726547e-002
8.350613e+002;6.891638e-002
8.369898e+002;7.014295e-002
8.389184e+002;7.153662e-002
8.408469e+002;7.315952e-002
8.427755e+002;7.462493e-002
8.447040e+002;7.588500e-002
8.466326e+002;7.681089e-002
8.485611e+002;7.666586e-002
8.504897e+002;7.557452e-002
8.524182e+002;7.452952e-002
8.543467e+002;7.438710e-002
8.562753e+002;7.407227e-002
8.582039e+002;7.344498e-002
8.601324e+002;7.334485e-002
8.620610e+002;7.385785e-002
8.639895e+002;7.569886e-002
8.659180e+002;7.893021e-002
8.678466e+002;8.440686e-002
8.697751e+002;9.248599e-002
8.717037e+002;9.852353e-002
8.736323e+002;9.723900e-002
8.755608e+002;9.130723e-002
8.774893e+002;8.491328e-002
8.794179e+002;7.847526e-002
8.813464e+002;7.255355e-002
8.832750e+002;6.780762e-002
8.852036e+002;6.439713e-002
8.871321e+002;6.170451e-002
8.890606e+002;5.962141e-002
8.909892e+002;5.847131e-002
8.929177e+002;5.825377e-002
8.948463e+002;5.820129e-002
8.967748e+002;5.786636e-002
8.987034e+002;5.765222e-002
9.006319e+002;5.737537e-002
9.025605e+002;5.659850e-002
9.044890e+002;5.586526e-002
9.064175e+002;5.497461e-002
9.083461e+002;5.344856e-002
9.102747e+002;5.197069e-002
9.122032e+002;5.067638e-002
9.141318e+002;4.979276e-002
9.160603e+002;4.952344e-002
9.179888e+002;4.906742e-002
9.199174e+002;4.837274e-002
9.218459e+002;4.802694e-002
9.237745e+002;4.821328e-002
9.257031e+002;4.841671e-002
9.276316e+002;4.823961e-002
9.295601e+002;4.768915e-002
9.314887e+002;4.742664e-002
9.334172e+002;4.759080e-002
9.353458e+002;4.760839e-002
9.372744e+002;4.760133e-002
9.392029e+002;4.792707e-002
9.411314e+002;4.823602e-002
9.430600e+002;4.814453e-002
9.449885e+002;4.794971e-002
9.469171e+002;4.841030e-002
9.488456e+002;4.932080e-002
9.507742e+002;4.985345e-002
9.527027e+002;5.061156e-002
9.546313e+002;5.159646e-002
9.565598e+002;5.270116e-002
9.584883e+002;5.398041e-002
9.604169e+002;5.512513e-002
9.623455e+002;5.640525e-002
9.642740e+002;5.770633e-002
9.662026e+002;5.884048e-002
9.681311e+002;5.968827e-002
9.700596e+002;5.997265e-002
9.719882e+002;5.969443e-002
9.739167e+002;5.877591e-002
9.758453e+002;5.731586e-002
9.777739e+002;5.604297e-002
9.797024e+002;5.485763e-002
9.816309e+002;5.361393e-002
9.835595e+002;5.281075e-002
9.854880e+002;5.211357e-002
9.874166e+002;5.169427e-002
9.893452e+002;5.130230e-002
9.912737e+002;5.042325e-002
9.932022e+002;4.966674e-002
9.951307e+002;4.934426e-002
9.970593e+002;4.924605e-002
9.989879e+002;4.992023e-002
1.000916e+003;5.049947e-002
1.002845e+003;5.083685e-002
1.004773e+003;5.177366e-002
1.006702e+003;5.343728e-002
1.008631e+003;5.592202e-002
1.010559e+003;6.046662e-002
1.012488e+003;6.812586e-002
1.014416e+003;7.896256e-002
1.016345e+003;8.902574e-002
1.018273e+003;9.207412e-002
1.020202e+003;8.714595e-002
1.022130e+003;7.836222e-002
1.024059e+003;6.953472e-002
1.025988e+003;6.207842e-002
1.027916e+003;5.695992e-002
1.029845e+003;5.472847e-002
1.031773e+003;5.418764e-002
1.033702e+003;5.402063e-002
1.035630e+003;5.403290e-002
1.037559e+003;5.440703e-002
1.039487e+003;5.481861e-002
1.041416e+003;5.508044e-002
1.043344e+003;5.504287e-002
1.045273e+003;5.482173e-002
1.047202e+003;5.443854e-002
1.049130e+003;5.455487e-002
1.051059e+003;5.492275e-002
1.052987e+003;5.489177e-002
1.054916e+003;5.491309e-002
1.056844e+003;5.533874e-002
1.058773e+003;5.637401e-002
1.060701e+003;5.746148e-002
1.062630e+003;5.900889e-002
1.064558e+003;6.135930e-002
1.066487e+003;6.380022e-002
1.068416e+003;6.656765e-002
1.070344e+003;7.015210e-002
1.072273e+003;7.434385e-002
1.074201e+003;7.888953e-002
1.076130e+003;8.402120e-002
1.078058e+003;8.995460e-002
1.079987e+003;9.635947e-002
1.081915e+003;1.026295e-001
1.083844e+003;1.078870e-001
1.085773e+003;1.124796e-001
1.087701e+003;1.170391e-001
1.089630e+003;1.215818e-001
1.091558e+003;1.255101e-001
1.093487e+003;1.288624e-001
1.095415e+003;1.318849e-001
1.097344e+003;1.333210e-001
1.099272e+003;1.324847e-001
1.101201e+003;1.303018e-001
1.103129e+003;1.267725e-001
1.105058e+003;1.217028e-001
1.106987e+003;1.159206e-001
1.108915e+003;1.111457e-001
1.110844e+003;1.083354e-001
1.112772e+003;1.075280e-001
1.114701e+003;1.077026e-001
1.116629e+003;1.075393e-001
1.118558e+003;1.068053e-001
1.120486e+003;1.049587e-001
1.122415e+003;1.024473e-001
1.124344e+003;9.930512e-002
1.126272e+003;9.522758e-002
1.128201e+003;9.131328e-002
1.130129e+003;8.766928e-002
1.132058e+003;8.347136e-002
1.133986e+003;7.893415e-002
1.135915e+003;7.501210e-002
1.137843e+003;7.134816e-002
1.139772e+003;6.803036e-002
1.141700e+003;6.512799e-002
1.143629e+003;6.235239e-002
1.145557e+003;6.050029e-002
1.147486e+003;5.930369e-002
1.149415e+003;5.809901e-002
1.151343e+003;5.699714e-002
1.153272e+003;5.600083e-002
1.155200e+003;5.516463e-002
1.157129e+003;5.441300e-002
1.159057e+003;5.405467e-002
1.160986e+003;5.411858e-002
1.162914e+003;5.430736e-002
1.164843e+003;5.472088e-002
1.166771e+003;5.572443e-002
1.168700e+003;5.701996e-002
1.170629e+003;5.794783e-002
1.172557e+003;5.834081e-002
1.174486e+003;5.824028e-002
1.176414e+003;5.794435e-002
1.178343e+003;5.718551e-002
1.180271e+003;5.598062e-002
1.182200e+003;5.487820e-002
1.184128e+003;5.384003e-002
1.186057e+003;5.332248e-002
1.187986e+003;5.372813e-002
1.189914e+003;5.434829e-002
1.191843e+003;5.511403e-002
1.193771e+003;5.631426e-002
1.195700e+003;5.742366e-002
1.197628e+003;5.865984e-002
1.199557e+003;5.997679e-002
1.201485e+003;6.155367e-002
1.203414e+003;6.332993e-002
1.205343e+003;6.469033e-002
1.207271e+003;6.621011e-002
1.209200e+003;6.824169e-002
1.211128e+003;7.026279e-002
1.213057e+003;7.235815e-002
1.214985e+003;7.470335e-002
1.216914e+003;7.753111e-002
1.218842e+003;8.045007e-002
1.220771e+003;8.338338e-002
1.222699e+003;8.647326e-002
1.224628e+003;8.991286e-002
1.226557e+003;9.431156e-002
1.228485e+003;9.941029e-002
1.230414e+003;1.056165e-001
1.232342e+003;1.132343e-001
1.234271e+003;1.218212e-001
1.236199e+003;1.304571e-001
1.238128e+003;1.380366e-001
1.240056e+003;1.443611e-001
1.241985e+003;1.489309e-001
1.243913e+003;1.509567e-001
1.245842e+003;1.508808e-001
1.247771e+003;1.497889e-001
1.249699e+003;1.482679e-001
1.251628e+003;1.466743e-001
1.253556e+003;1.448505e-001
1.255485e+003;1.430944e-001
1.257413e+003;1.418915e-001
1.259342e+003;1.411161e-001
1.261270e+003;1.402510e-001
1.263199e+003;1.380650e-001
1.265127e+003;1.344710e-001
1.267056e+003;1.302191e-001
1.268985e+003;1.253561e-001
1.270913e+003;1.202052e-001
1.272842e+003;1.155416e-001
1.274770e+003;1.115510e-001
1.276699e+003;1.082652e-001
1.278627e+003;1.052461e-001
1.280556e+003;1.020313e-001
1.282484e+003;9.876068e-002
1.284413e+003;9.569751e-002
1.286342e+003;9.283839e-002
1.288270e+003;8.976344e-002
1.290199e+003;8.656125e-002
1.292127e+003;8.320111e-002
1.294056e+003;7.969297e-002
1.295984e+003;7.626449e-002
1.297913e+003;7.313812e-002
1.299841e+003;7.031219e-002
1.301770e+003;6.768130e-002
1.303698e+003;6.540832e-002
1.305627e+003;6.386143e-002
1.307556e+003;6.224760e-002
1.309484e+003;6.045142e-002
1.311413e+003;5.905881e-002
1.313341e+003;5.804193e-002
1.315270e+003;5.697364e-002
1.317198e+003;5.584035e-002
1.319127e+003;5.487523e-002
1.321055e+003;5.418520e-002
1.322984e+003;5.363136e-002
1.324912e+003;5.363271e-002
1.326841e+003;5.422263e-002
1.328770e+003;5.592122e-002
1.330698e+003;5.920411e-002
1.332627e+003;6.441031e-002
1.334555e+003;7.044014e-002
1.336484e+003;7.493103e-002
1.338412e+003;7.681413e-002
1.340341e+003;7.567062e-002
1.342269e+003;7.187957e-002
1.344198e+003;6.666549e-002
1.346126e+003;6.113363e-002
1.348055e+003;5.617946e-002
1.349984e+003;5.262923e-002
1.351912e+003;5.011892e-002
1.353841e+003;4.824039e-002
1.355769e+003;4.695343e-002
1.357698e+003;4.608583e-002
1.359626e+003;4.534771e-002
1.361555e+003;4.512443e-002
1.363483e+003;4.564599e-002
1.365412e+003;4.652747e-002
1.367341e+003;4.699153e-002
1.369269e+003;4.731873e-002
1.371198e+003;4.699984e-002
1.373126e+003;4.583514e-002
1.375055e+003;4.534601e-002
1.376983e+003;4.545479e-002
1.378912e+003;4.540759e-002
1.380840e+003;4.578676e-002
1.382769e+003;4.619560e-002
1.384698e+003;4.630488e-002
1.386626e+003;4.583636e-002
1.388555e+003;4.631660e-002
1.390483e+003;4.750540e-002
1.392412e+003;4.792700e-002
1.394340e+003;4.849743e-002
1.396269e+003;5.045738e-002
1.398197e+003;5.256333e-002
1.400126e+003;5.561320e-002
1.402054e+003;5.943797e-002
1.403983e+003;6.320217e-002
1.405911e+003;6.757823e-002
1.407840e+003;7.058423e-002
1.409769e+003;6.956011e-002
1.411697e+003;6.468664e-002
1.413626e+003;5.798740e-002
1.415554e+003;5.119485e-002
1.417483e+003;4.477114e-002
1.419411e+003;4.103231e-002
1.421340e+003;4.102754e-002
1.423268e+003;4.076931e-002
1.425197e+003;4.048087e-002
1.427125e+003;4.062859e-002
1.429054e+003;4.057701e-002
1.430983e+003;4.103322e-002
1.432911e+003;4.156524e-002
1.434840e+003;4.074442e-002
1.436768e+003;4.036657e-002
1.438697e+003;4.254871e-002
1.440625e+003;4.391976e-002
1.442554e+003;4.450884e-002
1.444482e+003;4.497715e-002
1.446411e+003;4.503595e-002
1.448340e+003;4.538681e-002
1.450268e+003;4.617231e-002
1.452197e+003;4.608000e-002
1.454125e+003;4.421611e-002
1.456054e+003;4.011847e-002
1.457982e+003;4.026280e-002
1.459911e+003;4.356782e-002
1.461839e+003;4.427151e-002
1.463768e+003;4.288176e-002
1.465697e+003;4.276156e-002
1.467625e+003;4.445969e-002
1.469554e+003;4.593881e-002
1.471482e+003;4.587712e-002
1.473411e+003;4.622221e-002
1.475339e+003;4.746541e-002
1.477268e+003;4.816530e-002
1.479196e+003;4.821184e-002
1.481125e+003;4.743251e-002
1.483053e+003;4.660508e-002
1.484982e+003;4.491200e-002
1.486911e+003;4.284244e-002
1.488839e+003;4.124023e-002
1.490768e+003;4.099954e-002
1.492696e+003;4.178133e-002
1.494625e+003;4.095555e-002
1.496553e+003;4.053277e-002
1.498482e+003;4.326711e-002
1.500410e+003;4.694099e-002
1.502339e+003;5.008281e-002
1.504267e+003;4.881679e-002
1.506196e+003;4.441745e-002
1.508125e+003;4.389450e-002
1.510053e+003;4.455173e-002
1.511982e+003;4.383999e-002
1.513910e+003;4.349346e-002
1.515839e+003;4.260108e-002
1.517767e+003;4.220934e-002
1.519696e+003;4.074227e-002
1.521624e+003;3.987865e-002
1.523553e+003;4.211178e-002
1.525481e+003;4.307245e-002
1.527410e+003;4.358697e-002
1.529339e+003;4.434856e-002
1.531267e+003;4.403676e-002
1.533196e+003;4.241867e-002
1.535124e+003;4.223348e-002
1.537053e+003;3.981953e-002
1.538981e+003;3.467122e-002
1.540910e+003;3.433390e-002
1.542838e+003;3.695779e-002
1.544767e+003;3.849186e-002
1.546695e+003;3.998156e-002
1.548624e+003;4.045933e-002
1.550553e+003;4.020435e-002
1.552481e+003;3.926625e-002
1.554410e+003;3.783264e-002
1.556338e+003;3.558761e-002
1.558267e+003;3.136206e-002
1.560195e+003;3.321562e-002
1.562124e+003;3.885953e-002
1.564052e+003;4.058737e-002
1.565981e+003;4.070275e-002
1.567910e+003;4.044046e-002
1.569838e+003;4.085001e-002
1.571767e+003;4.307029e-002
1.573695e+003;4.319259e-002
1.575624e+003;4.140833e-002
1.577552e+003;4.360152e-002
1.579481e+003;4.627941e-002
1.581409e+003;4.607286e-002
1.583338e+003;4.506683e-002
1.585266e+003;4.409646e-002
1.587195e+003;4.334692e-002
1.589124e+003;4.261559e-002
1.591052e+003;4.261439e-002
1.592981e+003;4.293728e-002
1.594909e+003;4.351936e-002
1.596838e+003;4.432486e-002
1.598766e+003;4.510484e-002
1.600695e+003;4.564404e-002
1.602623e+003;4.601483e-002
1.604552e+003;4.629861e-002
1.606480e+003;4.656000e-002
1.608409e+003;4.682351e-002
1.610338e+003;4.711125e-002
1.612266e+003;4.729564e-002
1.614195e+003;4.592732e-002
1.616123e+003;4.307348e-002
1.618052e+003;4.365713e-002
1.619980e+003;4.493831e-002
1.621909e+003;4.355441e-002
1.623837e+003;4.276061e-002
1.625766e+003;4.346900e-002
1.627694e+003;4.374177e-002
1.629623e+003;4.413970e-002
1.631552e+003;4.424949e-002
1.633480e+003;4.200154e-002
1.635409e+003;3.971528e-002
1.637337e+003;4.187487e-002
1.639266e+003;4.439018e-002
1.641194e+003;4.520653e-002
1.643123e+003;4.470676e-002
1.645051e+003;4.262125e-002
1.646980e+003;4.250299e-002
1.648909e+003;4.447155e-002
1.650837e+003;4.185170e-002
1.652766e+003;3.782884e-002
1.654694e+003;4.251173e-002
1.656623e+003;4.792662e-002
1.658551e+003;4.980841e-002
1.660480e+003;5.017872e-002
1.662408e+003;5.054916e-002
1.664337e+003;5.261434e-002
1.666266e+003;5.406604e-002
1.668194e+003;5.371276e-002
1.670123e+003;5.463362e-002
1.672051e+003;5.664218e-002
1.673980e+003;5.691976e-002
1.675908e+003;5.828219e-002
1.677837e+003;6.123678e-002
1.679765e+003;6.261949e-002
1.681694e+003;6.205522e-002
1.683622e+003;5.928876e-002
1.685551e+003;6.177028e-002
1.687479e+003;6.681012e-002
1.689408e+003;6.907255e-002
1.691337e+003;7.108871e-002
1.693265e+003;7.195167e-002
1.695194e+003;7.165454e-002
1.697122e+003;7.540471e-002
1.699051e+003;7.836178e-002
1.700979e+003;8.364835e-002
1.702908e+003;9.321456e-002
1.704836e+003;1.012051e-001
1.706765e+003;1.107742e-001
1.708693e+003;1.213492e-001
1.710622e+003;1.308764e-001
1.712551e+003;1.374108e-001
1.714479e+003;1.395475e-001
1.716408e+003;1.369025e-001
1.718336e+003;1.341203e-001
1.720265e+003;1.318654e-001
1.722193e+003;1.259478e-001
1.724122e+003;1.179394e-001
1.726050e+003;1.094982e-001
1.727979e+003;1.003487e-001
1.729908e+003;9.081645e-002
1.731836e+003;7.991962e-002
1.733765e+003;6.888912e-002
1.735693e+003;6.332280e-002
1.737622e+003;5.800266e-002
1.739550e+003;5.060124e-002
1.741479e+003;4.535929e-002
1.743407e+003;4.123342e-002
1.745336e+003;3.796435e-002
1.747265e+003;3.558261e-002
1.749193e+003;3.404085e-002
1.751122e+003;3.395506e-002
1.753050e+003;3.623331e-002
1.754979e+003;3.783083e-002
1.756907e+003;3.849990e-002
1.758836e+003;3.914549e-002
1.760764e+003;3.889642e-002
1.762693e+003;3.956318e-002
1.764621e+003;4.079231e-002
1.766550e+003;4.029651e-002
1.768479e+003;3.974759e-002
1.770407e+003;3.891110e-002
1.772336e+003;3.792140e-002
1.774264e+003;3.944560e-002
1.776193e+003;4.072801e-002
1.778121e+003;4.082045e-002
1.780050e+003;4.049964e-002
1.781978e+003;4.037904e-002
1.783907e+003;4.019596e-002
1.785835e+003;4.029243e-002
1.787764e+003;4.035417e-002
1.789693e+003;3.949067e-002
1.791621e+003;3.824223e-002
1.793550e+003;3.882102e-002
1.795478e+003;4.016208e-002
1.797407e+003;4.027284e-002
1.799335e+003;3.992220e-002
1.801264e+003;3.986714e-002
1.803192e+003;4.022082e-002
1.805121e+003;4.037373e-002
1.807049e+003;4.043842e-002
1.808978e+003;4.027880e-002
1.810907e+003;4.017437e-002
1.812835e+003;4.051586e-002
1.814764e+003;4.083356e-002
1.816692e+003;4.071083e-002
1.818621e+003;4.081470e-002
1.820549e+003;4.079923e-002
1.822478e+003;4.043788e-002
1.824406e+003;3.990386e-002
1.826335e+003;3.986750e-002
1.828264e+003;3.932291e-002
1.830192e+003;3.877432e-002
1.832121e+003;3.940416e-002
1.834049e+003;3.953044e-002
1.835978e+003;3.927800e-002
1.837906e+003;3.915031e-002
1.839835e+003;3.883529e-002
1.841763e+003;3.754935e-002
1.843692e+003;3.586883e-002
1.845620e+003;3.624556e-002
1.847549e+003;3.673997e-002
1.849478e+003;3.655867e-002
1.851406e+003;3.629865e-002
1.853335e+003;3.583166e-002
1.855263e+003;3.550509e-002
1.857192e+003;3.523100e-002
1.859120e+003;3.474577e-002
1.861049e+003;3.446596e-002
1.862977e+003;3.436783e-002
1.864906e+003;3.394453e-002
1.866834e+003;3.306371e-002
1.868763e+003;3.245519e-002
1.870692e+003;3.278412e-002
1.872620e+003;3.299256e-002
1.874549e+003;3.296753e-002
1.876477e+003;3.281514e-002
1.878406e+003;3.266608e-002
1.880334e+003;3.274960e-002
1.882263e+003;3.274496e-002
1.884191e+003;3.260971e-002
1.886120e+003;3.226606e-002
1.888048e+003;3.169074e-002
1.889977e+003;3.159045e-002
1.891906e+003;3.202262e-002
1.893834e+003;3.208879e-002
1.895763e+003;3.230461e-002
1.897691e+003;3.277404e-002
1.899620e+003;3.308709e-002
1.901548e+003;3.303982e-002
1.903477e+003;3.287696e-002
1.905405e+003;3.298720e-002
1.907334e+003;3.317424e-002
1.909262e+003;3.311466e-002
1.911191e+003;3.300650e-002
1.913120e+003;3.316387e-002
1.915048e+003;3.330472e-002
1.916977e+003;3.304204e-002
1.918905e+003;3.330362e-002
1.920834e+003;3.390820e-002
1.922762e+003;3.426054e-002
1.924691e+003;3.457958e-002
1.926619e+003;3.490039e-002
1.928548e+003;3.544292e-002
1.930477e+003;3.577401e-002
1.932405e+003;3.590676e-002
1.934334e+003;3.636606e-002
1.936262e+003;3.695047e-002
1.938191e+003;3.743441e-002
1.940119e+003;3.783007e-002
1.942048e+003;3.804395e-002
1.943976e+003;3.842170e-002
1.945905e+003;3.888106e-002
1.947833e+003;3.918791e-002
1.949762e+003;3.951262e-002
1.951691e+003;3.997004e-002
1.953619e+003;4.006273e-002
1.955548e+003;3.977548e-002
1.957476e+003;3.968990e-002
1.959405e+003;3.987673e-002
1.961333e+003;3.980431e-002
1.963262e+003;3.946338e-002
1.965190e+003;3.913207e-002
1.967119e+003;3.862454e-002
1.969047e+003;3.818803e-002
1.970976e+003;3.778113e-002
1.972905e+003;3.749314e-002
1.974833e+003;3.702652e-002
1.976762e+003;3.644432e-002
1.978690e+003;3.621412e-002
1.980619e+003;3.615823e-002
1.982547e+003;3.608797e-002
1.984476e+003;3.604340e-002
1.986404e+003;3.582979e-002
1.988333e+003;3.567843e-002
1.990261e+003;3.521487e-002
1.992190e+003;3.462594e-002
1.994119e+003;3.446040e-002
1.996047e+003;3.434240e-002
1.997976e+003;3.414693e-002
1.999904e+003;3.388603e-002
2.001833e+003;3.365342e-002
2.003761e+003;3.344660e-002
2.005690e+003;3.333027e-002
2.007618e+003;3.326706e-002
2.009547e+003;3.313483e-002
2.011476e+003;3.305952e-002
2.013404e+003;3.275257e-002
2.015333e+003;3.234541e-002
2.017261e+003;3.213863e-002
2.019190e+003;3.211612e-002
2.021118e+003;3.211487e-002
2.023047e+003;3.202476e-002
2.024975e+003;3.193410e-002
2.026904e+003;3.185693e-002
2.028833e+003;3.171718e-002
2.030761e+003;3.169088e-002
2.032690e+003;3.168675e-002
2.034618e+003;3.158970e-002
2.036547e+003;3.148759e-002
2.038475e+003;3.154406e-002
2.040404e+003;3.162612e-002
2.042332e+003;3.183340e-002
2.044261e+003;3.200475e-002
2.046189e+003;3.204941e-002
2.048118e+003;3.198346e-002
2.050047e+003;3.218120e-002
2.051975e+003;3.236743e-002
2.053904e+003;3.260950e-002
2.055832e+003;3.290245e-002
2.057761e+003;3.318454e-002
2.059689e+003;3.330018e-002
2.061618e+003;3.367462e-002
2.063546e+003;3.416600e-002
2.065475e+003;3.428524e-002
2.067404e+003;3.437812e-002
2.069332e+003;3.469348e-002
2.071260e+003;3.492150e-002
2.073189e+003;3.504875e-002
2.075118e+003;3.533512e-002
2.077046e+003;3.552062e-002
2.078975e+003;3.562221e-002
2.080903e+003;3.591547e-002
2.082832e+003;3.615718e-002
2.084760e+003;3.618095e-002
2.086689e+003;3.595467e-002
2.088617e+003;3.601496e-002
2.090546e+003;3.624153e-002
2.092475e+003;3.635204e-002
2.094403e+003;3.651819e-002
2.096332e+003;3.668052e-002
2.098260e+003;3.670377e-002
2.100189e+003;3.679021e-002
2.102117e+003;3.686638e-002
2.104046e+003;3.692121e-002
2.105974e+003;3.685156e-002
2.107903e+003;3.687049e-002
2.109832e+003;3.697889e-002
2.111760e+003;3.703384e-002
2.113688e+003;3.699841e-002
2.115617e+003;3.679435e-002
2.117546e+003;3.675768e-002
2.119474e+003;3.682422e-002
2.121403e+003;3.664050e-002
2.123331e+003;3.647833e-002
2.125260e+003;3.626814e-002
2.127188e+003;3.597191e-002
2.129117e+003;3.591403e-002
2.131045e+003;3.597569e-002
2.132974e+003;3.578416e-002
2.134903e+003;3.557866e-002
2.136831e+003;3.545809e-002
2.138760e+003;3.525310e-002
2.140688e+003;3.501340e-002
2.142617e+003;3.481627e-002
2.144545e+003;3.463986e-002
2.146474e+003;3.456892e-002
2.148402e+003;3.440039e-002
2.150331e+003;3.418486e-002
2.152260e+003;3.407568e-002
2.154188e+003;3.392196e-002
2.156117e+003;3.369907e-002
2.158045e+003;3.348439e-002
2.159974e+003;3.326216e-002
2.161902e+003;3.301901e-002
2.163831e+003;3.284823e-002
2.165759e+003;3.273956e-002
2.167688e+003;3.260325e-002
2.169616e+003;3.239099e-002
2.171545e+003;3.211141e-002
2.173474e+003;3.213952e-002
2.175402e+003;3.236900e-002
2.177331e+003;3.226199e-002
2.179259e+003;3.208412e-002
2.181188e+003;3.199444e-002
2.183116e+003;3.185102e-002
2.185045e+003;3.195635e-002
2.186973e+003;3.210866e-002
2.188902e+003;3.234237e-002
2.190831e+003;3.236090e-002
2.192759e+003;3.237607e-002
2.194688e+003;3.236169e-002
2.196616e+003;3.226542e-002
2.198545e+003;3.235469e-002
2.200473e+003;3.248490e-002
2.202402e+003;3.249889e-002
2.204330e+003;3.253871e-002
2.206259e+003;3.281756e-002
2.208188e+003;3.312843e-002
2.210116e+003;3.323379e-002
2.212044e+003;3.327267e-002
2.213973e+003;3.313708e-002
2.215902e+003;3.321480e-002
2.217830e+003;3.344592e-002
2.219759e+003;3.361186e-002
2.221687e+003;3.376206e-002
2.223616e+003;3.368729e-002
2.225544e+003;3.359532e-002
2.227473e+003;3.367043e-002
2.229401e+003;3.385383e-002
2.231330e+003;3.421562e-002
2.233259e+003;3.440520e-002
2.235187e+003;3.433921e-002
2.237116e+003;3.432648e-002
2.239044e+003;3.453832e-002
2.240973e+003;3.457236e-002
2.242901e+003;3.466412e-002
2.244830e+003;3.487669e-002
2.246758e+003;3.501340e-002
2.248687e+003;3.519715e-002
2.250615e+003;3.521340e-002
2.252544e+003;3.511570e-002
2.254473e+003;3.500342e-002
2.256401e+003;3.506003e-002
2.258330e+003;3.541042e-002
2.260258e+003;3.554475e-002
2.262187e+003;3.542998e-002
2.264115e+003;3.534428e-002
2.266044e+003;3.541455e-002
2.267972e+003;3.537329e-002
2.269901e+003;3.516686e-002
2.271830e+003;3.497828e-002
2.273758e+003;3.500145e-002
2.275687e+003;3.519715e-002
2.277615e+003;3.536469e-002
2.279544e+003;3.564872e-002
2.281472e+003;3.571523e-002
2.283401e+003;3.550282e-002
2.285329e+003;3.533267e-002
2.287258e+003;3.510475e-002
2.289187e+003;3.500385e-002
2.291115e+003;3.492836e-002
2.293043e+003;3.460168e-002
2.294972e+003;3.447364e-002
2.296901e+003;3.434265e-002
2.298829e+003;3.386314e-002
2.300758e+003;3.349112e-002
2.302686e+003;3.324502e-002
2.304615e+003;3.265857e-002
2.306543e+003;3.225839e-002
2.308472e+003;3.229490e-002
2.310400e+003;3.230290e-002
2.312329e+003;3.225643e-002
2.314258e+003;3.195036e-002
2.316186e+003;3.163571e-002
2.318115e+003;3.164170e-002
2.320043e+003;3.171023e-002
2.321972e+003;3.142104e-002
2.323900e+003;3.112439e-002
2.325829e+003;3.092624e-002
2.327757e+003;3.092368e-002
2.329686e+003;3.084662e-002
2.331615e+003;3.083332e-002
2.333543e+003;3.091005e-002
2.335472e+003;3.065653e-002
2.337400e+003;3.049370e-002
2.339329e+003;3.063811e-002
2.341257e+003;3.086167e-002
2.343186e+003;3.130369e-002
2.345114e+003;3.203611e-002
2.347043e+003;3.289619e-002
2.348971e+003;3.316562e-002
2.350900e+003;3.269048e-002
2.352829e+003;3.219087e-002
2.354757e+003;3.174873e-002
2.356686e+003;3.155008e-002
2.358614e+003;3.155022e-002
2.360543e+003;3.143059e-002
2.362471e+003;3.149607e-002
2.364400e+003;3.183180e-002
2.366328e+003;3.242330e-002
2.368257e+003;3.310318e-002
2.370186e+003;3.355125e-002
2.372114e+003;3.392382e-002
2.374042e+003;3.447371e-002
2.375971e+003;3.512817e-002
2.377900e+003;3.546784e-002
2.379828e+003;3.571070e-002
2.381757e+003;3.596748e-002
2.383685e+003;3.610032e-002
2.385614e+003;3.616229e-002
2.387542e+003;3.611001e-002
2.389471e+003;3.608264e-002
2.391399e+003;3.611613e-002
2.393328e+003;3.607026e-002
2.395257e+003;3.606317e-002
2.397185e+003;3.589568e-002
2.399114e+003;3.583241e-002
2.401042e+003;3.610446e-002
2.402971e+003;3.609150e-002
2.404899e+003;3.579481e-002
2.406828e+003;3.568383e-002
2.408756e+003;3.558100e-002
2.410685e+003;3.552558e-002
2.412614e+003;3.563847e-002
2.414542e+003;3.541495e-002
2.416471e+003;3.470399e-002
2.418399e+003;3.430507e-002
2.420328e+003;3.438336e-002
2.422256e+003;3.460136e-002
2.424185e+003;3.452630e-002
2.426113e+003;3.434391e-002
2.428042e+003;3.413145e-002
2.429970e+003;3.383406e-002
2.431899e+003;3.371275e-002
2.433828e+003;3.368328e-002
2.435756e+003;3.351095e-002
2.437685e+003;3.330136e-002
2.439613e+003;3.320675e-002
2.441542e+003;3.318833e-002
2.443470e+003;3.318229e-002
2.445399e+003;3.290291e-002
2.447327e+003;3.270219e-002
2.449256e+003;3.270819e-002
2.451185e+003;3.280034e-002
2.453113e+003;3.277958e-002
2.455042e+003;3.252542e-002
2.456970e+003;3.226520e-002
2.458899e+003;3.224740e-002
2.460827e+003;3.244869e-002
2.462756e+003;3.263986e-002
2.464684e+003;3.282228e-002
2.466613e+003;3.277561e-002
2.468542e+003;3.267451e-002
2.470470e+003;3.273539e-002
2.472398e+003;3.278365e-002
2.474327e+003;3.278412e-002
2.476256e+003;3.270119e-002
2.478184e+003;3.273378e-002
2.480113e+003;3.296303e-002
2.482041e+003;3.327124e-002
2.483970e+003;3.341672e-002
2.485898e+003;3.349577e-002
2.487827e+003;3.371812e-002
2.489755e+003;3.387428e-002
2.491684e+003;3.380525e-002
2.493613e+003;3.375293e-002
2.495541e+003;3.372170e-002
2.497470e+003;3.405683e-002
2.499398e+003;3.425857e-002
2.501327e+003;3.412948e-002
2.503255e+003;3.437765e-002
2.505184e+003;3.450893e-002
2.507112e+003;3.444257e-002
2.509041e+003;3.423803e-002
2.510969e+003;3.417317e-002
2.512898e+003;3.405790e-002
2.514827e+003;3.439160e-002
2.516755e+003;3.479896e-002
2.518684e+003;3.489580e-002
2.520612e+003;3.507281e-002
2.522541e+003;3.520358e-002
2.524469e+003;3.531035e-002
2.526398e+003;3.533519e-002
2.528326e+003;3.539860e-002
2.530255e+003;3.543188e-002
2.532184e+003;3.534525e-002
2.534112e+003;3.531136e-002
2.536041e+003;3.535398e-002
2.537969e+003;3.523438e-002
2.539898e+003;3.501854e-002
2.541826e+003;3.505414e-002
2.543755e+003;3.526259e-002
2.545683e+003;3.535927e-002
2.547612e+003;3.523945e-002
2.549541e+003;3.517527e-002
2.551469e+003;3.526266e-002
2.553397e+003;3.542415e-002
2.555326e+003;3.557035e-002
2.557255e+003;3.576545e-002
2.559183e+003;3.578189e-002
2.561112e+003;3.577035e-002
2.563040e+003;3.577783e-002
2.564969e+003;3.565847e-002
2.566897e+003;3.536204e-002
2.568826e+003;3.512109e-002
2.570754e+003;3.508036e-002
2.572683e+003;3.527455e-002
2.574612e+003;3.561246e-002
2.576540e+003;3.557502e-002
2.578469e+003;3.541243e-002
2.580397e+003;3.544346e-002
2.582326e+003;3.557186e-002
2.584254e+003;3.557967e-002
2.586183e+003;3.535488e-002
2.588111e+003;3.517570e-002
2.590040e+003;3.518030e-002
2.591969e+003;3.518727e-002
2.593897e+003;3.493418e-002
2.595826e+003;3.468874e-002
2.597754e+003;3.461786e-002
2.599683e+003;3.436811e-002
2.601611e+003;3.414493e-002
2.603540e+003;3.414708e-002
2.605468e+003;3.424706e-002
2.607397e+003;3.411374e-002
2.609325e+003;3.390452e-002
2.611254e+003;3.385257e-002
2.613183e+003;3.377324e-002
2.615111e+003;3.378427e-002
2.617040e+003;3.380508e-002
2.618968e+003;3.376335e-002
2.620897e+003;3.368640e-002
2.622825e+003;3.360036e-002
2.624754e+003;3.374770e-002
2.626682e+003;3.386235e-002
2.628611e+003;3.370090e-002
2.630540e+003;3.359535e-002
2.632468e+003;3.377933e-002
2.634396e+003;3.389943e-002
2.636325e+003;3.372170e-002
2.638254e+003;3.330448e-002
2.640182e+003;3.292857e-002
2.642111e+003;3.265029e-002
2.644039e+003;3.263164e-002
2.645968e+003;3.268658e-002
2.647896e+003;3.242952e-002
2.649825e+003;3.242530e-002
2.651753e+003;3.256457e-002
2.653682e+003;3.243177e-002
2.655611e+003;3.219137e-002
2.657539e+003;3.204260e-002
2.659468e+003;3.202423e-002
2.661396e+003;3.212875e-002
2.663325e+003;3.201984e-002
2.665253e+003;3.168208e-002
2.667182e+003;3.176534e-002
2.669110e+003;3.179326e-002
2.671039e+003;3.187744e-002
2.672968e+003;3.228662e-002
2.674896e+003;3.240949e-002
2.676825e+003;3.228030e-002
2.678753e+003;3.234776e-002
2.680682e+003;3.244908e-002
2.682610e+003;3.229044e-002
2.684539e+003;3.221735e-002
2.686467e+003;3.226360e-002
2.688396e+003;3.227841e-002
2.690324e+003;3.250853e-002
2.692253e+003;3.277054e-002
2.694182e+003;3.274707e-002
2.696110e+003;3.261478e-002
2.698039e+003;3.244512e-002
2.699967e+003;3.245023e-002
2.701896e+003;3.251871e-002
2.703824e+003;3.245915e-002
2.705753e+003;3.256214e-002
2.707681e+003;3.282071e-002
2.709610e+003;3.298813e-002
2.711539e+003;3.295971e-002
2.713467e+003;3.269469e-002
2.715396e+003;3.265036e-002
2.717324e+003;3.322785e-002
2.719253e+003;3.342985e-002
2.721181e+003;3.309764e-002
2.723110e+003;3.313440e-002
2.725038e+003;3.330777e-002
2.726967e+003;3.346149e-002
2.728896e+003;3.364830e-002
2.730824e+003;3.372002e-002
2.732752e+003;3.363702e-002
2.734681e+003;3.373853e-002
2.736610e+003;3.389993e-002
2.738538e+003;3.395872e-002
2.740467e+003;3.415507e-002
2.742395e+003;3.443246e-002
2.744324e+003;3.438981e-002
2.746252e+003;3.396890e-002
2.748181e+003;3.385469e-002
2.750109e+003;3.388116e-002
2.752038e+003;3.396965e-002
2.753967e+003;3.393314e-002
2.755895e+003;3.378087e-002
2.757824e+003;3.381439e-002
2.759752e+003;3.409640e-002
2.761681e+003;3.425093e-002
2.763609e+003;3.413801e-002
2.765538e+003;3.410568e-002
2.767466e+003;3.414708e-002
2.769395e+003;3.434229e-002
2.771323e+003;3.440312e-002
2.773252e+003;3.442371e-002
2.775181e+003;3.460401e-002
2.777109e+003;3.470356e-002
2.779038e+003;3.471705e-002
2.780966e+003;3.468170e-002
2.782895e+003;3.473856e-002
2.784823e+003;3.476641e-002
2.786752e+003;3.476153e-002
2.788680e+003;3.512591e-002
2.790609e+003;3.567261e-002
2.792538e+003;3.585426e-002
2.794466e+003;3.583965e-002
2.796395e+003;3.604185e-002
2.798323e+003;3.633893e-002
2.800252e+003;3.633853e-002
2.802180e+003;3.626429e-002
2.804109e+003;3.622197e-002
2.806037e+003;3.598624e-002
2.807966e+003;3.584429e-002
2.809895e+003;3.598678e-002
2.811823e+003;3.584450e-002
2.813751e+003;3.546349e-002
2.815680e+003;3.523449e-002
2.817609e+003;3.483038e-002
2.819537e+003;3.459511e-002
2.821466e+003;3.439863e-002
2.823394e+003;3.418342e-002
2.825323e+003;3.403458e-002
2.827251e+003;3.390272e-002
2.829180e+003;3.377016e-002
2.831108e+003;3.372618e-002
2.833037e+003;3.355562e-002
2.834966e+003;3.314094e-002
2.836894e+003;3.279855e-002
2.838823e+003;3.221021e-002
2.840751e+003;3.125719e-002
2.842680e+003;2.947780e-002
2.844608e+003;2.675112e-002
2.846537e+003;2.335574e-002
2.848465e+003;1.996141e-002
2.850394e+003;1.774913e-002
2.852323e+003;1.714610e-002
2.854251e+003;1.787738e-002
2.856180e+003;1.967027e-002
2.858108e+003;2.198805e-002
2.860037e+003;2.468802e-002
2.861965e+003;2.702741e-002
2.863894e+003;2.878048e-002
2.865822e+003;3.025644e-002
2.867751e+003;3.107410e-002
2.869679e+003;3.146033e-002
2.871608e+003;3.176456e-002
2.873536e+003;3.231914e-002
2.875465e+003;3.290763e-002
2.877394e+003;3.349692e-002
2.879322e+003;3.403880e-002
2.881251e+003;3.422307e-002
2.883179e+003;3.408583e-002
2.885108e+003;3.378577e-002
2.887036e+003;3.352623e-002
2.888965e+003;3.337718e-002
2.890893e+003;3.295370e-002
2.892822e+003;3.228873e-002
2.894750e+003;3.197665e-002
2.896679e+003;3.159879e-002
2.898608e+003;3.097150e-002
2.900536e+003;3.031108e-002
2.902465e+003;2.980778e-002
2.904393e+003;2.925286e-002
2.906322e+003;2.833246e-002
2.908250e+003;2.694618e-002
2.910179e+003;2.453327e-002
2.912107e+003;2.115947e-002
2.914036e+003;1.765070e-002
2.915965e+003;1.398677e-002
2.917893e+003;1.100565e-002
2.919822e+003;8.898262e-003
2.921750e+003;7.664810e-003
2.923679e+003;7.344584e-003
2.925607e+003;7.999009e-003
2.927536e+003;9.452993e-003
2.929464e+003;1.149190e-002
2.931393e+003;1.392228e-002
2.933322e+003;1.649232e-002
2.935250e+003;1.921492e-002
2.937178e+003;2.182144e-002
2.939107e+003;2.408544e-002
2.941036e+003;2.628445e-002
2.942964e+003;2.852759e-002
2.944893e+003;3.024426e-002
2.946821e+003;3.141225e-002
2.948750e+003;3.223298e-002
2.950678e+003;3.251493e-002
2.952607e+003;3.271216e-002
2.954535e+003;3.299163e-002
2.956464e+003;3.348081e-002
2.958393e+003;3.451066e-002
2.960321e+003;3.582684e-002
2.962250e+003;3.720686e-002
2.964178e+003;3.832893e-002
2.966107e+003;3.943983e-002
2.968035e+003;4.071618e-002
2.969964e+003;4.160859e-002
2.971892e+003;4.219276e-002
2.973821e+003;4.264180e-002
2.975750e+003;4.322853e-002
2.977678e+003;4.350808e-002
2.979607e+003;4.360712e-002
2.981535e+003;4.381474e-002
2.983464e+003;4.389366e-002
2.985392e+003;4.408575e-002
2.987321e+003;4.461855e-002
2.989249e+003;4.447713e-002
2.991178e+003;4.405971e-002
2.993106e+003;4.412162e-002
2.995035e+003;4.409807e-002
2.996964e+003;4.399444e-002
2.998892e+003;4.382412e-002
3.000821e+003;4.369231e-002
3.002749e+003;4.349918e-002
3.004678e+003;4.329164e-002
3.006606e+003;4.301073e-002
3.008535e+003;4.287357e-002
3.010463e+003;4.288157e-002
3.012392e+003;4.287726e-002
3.014321e+003;4.294042e-002
3.016249e+003;4.275070e-002
3.018177e+003;4.223304e-002
3.020106e+003;4.164302e-002
3.022035e+003;4.129332e-002
3.023963e+003;4.092781e-002
3.025892e+003;4.058453e-002
3.027820e+003;4.035337e-002
3.029749e+003;3.985247e-002
3.031677e+003;3.953897e-002
3.033606e+003;3.940928e-002
3.035534e+003;3.924884e-002
3.037463e+003;3.912156e-002
3.039392e+003;3.909995e-002
3.041320e+003;3.932084e-002
3.043249e+003;3.960612e-002
3.045177e+003;3.998472e-002
3.047106e+003;4.076101e-002
3.049034e+003;4.170309e-002
3.050963e+003;4.227997e-002
3.052891e+003;4.262846e-002
3.054820e+003;4.293358e-002
3.056749e+003;4.269392e-002
3.058677e+003;4.219152e-002
3.060606e+003;4.225594e-002
3.062534e+003;4.247698e-002
3.064463e+003;4.251147e-002
3.066391e+003;4.262294e-002
3.068320e+003;4.271831e-002
3.070248e+003;4.281549e-002
3.072177e+003;4.308870e-002
3.074105e+003;4.329984e-002
3.076034e+003;4.311819e-002
3.077963e+003;4.293538e-002
3.079891e+003;4.274865e-002
3.081820e+003;4.258248e-002
3.083748e+003;4.266760e-002
3.085677e+003;4.256208e-002
3.087605e+003;4.232384e-002
3.089534e+003;4.198935e-002
3.091462e+003;4.160943e-002
3.093391e+003;4.134062e-002
3.095320e+003;4.140079e-002
3.097248e+003;4.153078e-002
3.099177e+003;4.164415e-002
3.101105e+003;4.172030e-002
3.103034e+003;4.186003e-002
3.104962e+003;4.196045e-002
3.106891e+003;4.184236e-002
3.108819e+003;4.157811e-002
3.110748e+003;4.149342e-002
3.112677e+003;4.095570e-002
3.114605e+003;3.993325e-002
3.116533e+003;3.926099e-002
3.118462e+003;3.914976e-002
3.120391e+003;3.917018e-002
3.122319e+003;3.911318e-002
3.124248e+003;3.926679e-002
3.126176e+003;3.951981e-002
3.128105e+003;3.951357e-002
3.130033e+003;3.929672e-002
3.131962e+003;3.903422e-002
3.133890e+003;3.867118e-002
3.135819e+003;3.836067e-002
3.137748e+003;3.805234e-002
3.139676e+003;3.763628e-002
3.141605e+003;3.748942e-002
3.143533e+003;3.737497e-002
3.145462e+003;3.717037e-002
3.147390e+003;3.696450e-002
3.149319e+003;3.666930e-002
3.151247e+003;3.659919e-002
3.153176e+003;3.683428e-002
3.155104e+003;3.674509e-002
3.157033e+003;3.645203e-002
3.158962e+003;3.608668e-002
3.160890e+003;3.554130e-002
3.162819e+003;3.537990e-002
3.164747e+003;3.541621e-002
3.166676e+003;3.553687e-002
3.168604e+003;3.574401e-002
3.170533e+003;3.558006e-002
3.172461e+003;3.518443e-002
3.174390e+003;3.505097e-002
3.176319e+003;3.518185e-002
3.178247e+003;3.539823e-002
3.180176e+003;3.531840e-002
3.182104e+003;3.508797e-002
3.184033e+003;3.524563e-002
3.185961e+003;3.550192e-002
3.187890e+003;3.569246e-002
3.189818e+003;3.532847e-002
3.191747e+003;3.496901e-002
3.193676e+003;3.536042e-002
3.195604e+003;3.522547e-002
3.197532e+003;3.490851e-002
3.199461e+003;3.506922e-002
3.201390e+003;3.510680e-002
3.203318e+003;3.473001e-002
3.205247e+003;3.445347e-002
3.207175e+003;3.449781e-002
3.209104e+003;3.467130e-002
3.211032e+003;3.449272e-002
3.212961e+003;3.427861e-002
3.214889e+003;3.436697e-002
3.216818e+003;3.457635e-002
3.218747e+003;3.474886e-002
3.220675e+003;3.445882e-002
3.222604e+003;3.417991e-002
3.224532e+003;3.429037e-002
3.226461e+003;3.442015e-002
3.228389e+003;3.448716e-002
3.230318e+003;3.459106e-002
3.232246e+003;3.467033e-002
3.234175e+003;3.463656e-002
3.236104e+003;3.422713e-002
3.238032e+003;3.387442e-002
3.239961e+003;3.392472e-002
3.241889e+003;3.391562e-002
3.243818e+003;3.397932e-002
3.245746e+003;3.395299e-002
3.247675e+003;3.354241e-002
3.249603e+003;3.335059e-002
3.251532e+003;3.362847e-002
3.253460e+003;3.376690e-002
3.255389e+003;3.363480e-002
3.257318e+003;3.347100e-002
3.259246e+003;3.368135e-002
3.261175e+003;3.389413e-002
3.263103e+003;3.351821e-002
3.265032e+003;3.306814e-002
3.266960e+003;3.280931e-002
3.268889e+003;3.274911e-002
3.270817e+003;3.277655e-002
3.272746e+003;3.327911e-002
3.274675e+003;3.375297e-002
3.276603e+003;3.312360e-002
3.278531e+003;3.281474e-002
3.280460e+003;3.288765e-002
3.282389e+003;3.305820e-002
3.284317e+003;3.331302e-002
3.286246e+003;3.351692e-002
3.288174e+003;3.376937e-002
3.290103e+003;3.391680e-002
3.292031e+003;3.361941e-002
3.293960e+003;3.356865e-002
3.295888e+003;3.347677e-002
3.297817e+003;3.324992e-002
3.299746e+003;3.325371e-002
3.301674e+003;3.342176e-002
3.303603e+003;3.368436e-002
3.305531e+003;3.377109e-002
3.307460e+003;3.383595e-002
3.309388e+003;3.367050e-002
3.311317e+003;3.337614e-002
3.313245e+003;3.303092e-002
3.315174e+003;3.309456e-002
3.317103e+003;3.347469e-002
3.319031e+003;3.331245e-002
3.320960e+003;3.306256e-002
3.322888e+003;3.306828e-002
3.324817e+003;3.307550e-002
3.326745e+003;3.306306e-002
3.328674e+003;3.311334e-002
3.330602e+003;3.324685e-002
3.332531e+003;3.349277e-002
3.334459e+003;3.367447e-002
3.336388e+003;3.400458e-002
3.338317e+003;3.385114e-002
3.340245e+003;3.356718e-002
3.342174e+003;3.361887e-002
3.344102e+003;3.324148e-002
3.346031e+003;3.283383e-002
3.347959e+003;3.313014e-002
3.349888e+003;3.313923e-002
3.351816e+003;3.311566e-002
3.353745e+003;3.295327e-002
3.355674e+003;3.246344e-002
3.357602e+003;3.205951e-002
3.359531e+003;3.199519e-002
3.361459e+003;3.207196e-002
3.363388e+003;3.217396e-002
3.365316e+003;3.245858e-002
3.367245e+003;3.258457e-002
3.369173e+003;3.223344e-002
3.371102e+003;3.188767e-002
3.373031e+003;3.185169e-002
3.374959e+003;3.217057e-002
3.376887e+003;3.253350e-002
3.378816e+003;3.270398e-002
3.380745e+003;3.248714e-002
3.382673e+003;3.263050e-002
3.384602e+003;3.299835e-002
3.386530e+003;3.272827e-002
3.388459e+003;3.196969e-002
3.390387e+003;3.186538e-002
3.392316e+003;3.265893e-002
3.394244e+003;3.316394e-002
3.396173e+003;3.281274e-002
3.398102e+003;3.284162e-002
3.400030e+003;3.295928e-002
3.401959e+003;3.324384e-002
3.403887e+003;3.383058e-002
3.405816e+003;3.433935e-002
3.407744e+003;3.474168e-002
3.409673e+003;3.499214e-002
3.411601e+003;3.537969e-002
3.413530e+003;3.589064e-002
3.415458e+003;3.634995e-002
3.417387e+003;3.689700e-002
3.419316e+003;3.765409e-002
3.421244e+003;3.820160e-002
3.423173e+003;3.849946e-002
3.425101e+003;3.886769e-002
3.427030e+003;3.893745e-002
3.428958e+003;3.915339e-002
3.430887e+003;3.930593e-002
3.432815e+003;3.924148e-002
3.434744e+003;3.936720e-002
3.436673e+003;3.935323e-002
3.438601e+003;3.902367e-002
3.440530e+003;3.847742e-002
3.442458e+003;3.814244e-002
3.444387e+003;3.769301e-002
3.446315e+003;3.718791e-002
3.448244e+003;3.704698e-002
3.450172e+003;3.623598e-002
3.452101e+003;3.561146e-002
3.454030e+003;3.549084e-002
3.455958e+003;3.528530e-002
3.457886e+003;3.483027e-002
3.459815e+003;3.423293e-002
3.461744e+003;3.394353e-002
3.463672e+003;3.365199e-002
3.465601e+003;3.325575e-002
3.467529e+003;3.322188e-002
3.469458e+003;3.313873e-002
3.471386e+003;3.271391e-002
3.473315e+003;3.234873e-002
3.475243e+003;3.209807e-002
3.477172e+003;3.203311e-002
3.479101e+003;3.200112e-002
3.481029e+003;3.191195e-002
3.482958e+003;3.195667e-002
3.484886e+003;3.182463e-002
3.486815e+003;3.210595e-002
3.488743e+003;3.225650e-002
3.490672e+003;3.162826e-002
3.492600e+003;3.134101e-002
3.494529e+003;3.185686e-002
3.496458e+003;3.214877e-002
3.498386e+003;3.188621e-002
3.500315e+003;3.176302e-002
3.502243e+003;3.193931e-002
3.504172e+003;3.194943e-002
3.506100e+003;3.188089e-002
3.508029e+003;3.159077e-002
3.509957e+003;3.167659e-002
3.511886e+003;3.191491e-002
3.513814e+003;3.247925e-002
3.515743e+003;3.291749e-002
3.517672e+003;3.295599e-002
3.519600e+003;3.279663e-002
3.521529e+003;3.250964e-002
3.523457e+003;3.247104e-002
3.525386e+003;3.251114e-002
3.527314e+003;3.269037e-002
3.529243e+003;3.298498e-002
3.531171e+003;3.299313e-002
3.533100e+003;3.288743e-002
3.535029e+003;3.269201e-002
3.536957e+003;3.309549e-002
3.538885e+003;3.368565e-002
3.540814e+003;3.371193e-002
3.542743e+003;3.329618e-002
3.544671e+003;3.324774e-002
3.546600e+003;3.376686e-002
3.548528e+003;3.409181e-002
3.550457e+003;3.383681e-002
3.552385e+003;3.378373e-002
3.554314e+003;3.381898e-002
3.556242e+003;3.357599e-002
3.558171e+003;3.339643e-002
3.560100e+003;3.339310e-002
3.562028e+003;3.338806e-002
3.563957e+003;3.259724e-002
3.565885e+003;3.150960e-002
3.567814e+003;3.172934e-002
3.569742e+003;3.255696e-002
3.571671e+003;3.288483e-002
3.573599e+003;3.303789e-002
3.575528e+003;3.279420e-002
3.577457e+003;3.254314e-002
3.579385e+003;3.242784e-002
3.581314e+003;3.215569e-002
3.583242e+003;3.193585e-002
3.585171e+003;3.126225e-002
3.587099e+003;3.036598e-002
3.589028e+003;3.045336e-002
3.590956e+003;3.102203e-002
3.592885e+003;3.078999e-002
3.594813e+003;3.046374e-002
3.596742e+003;3.080885e-002
3.598671e+003;3.091254e-002
3.600599e+003;3.079145e-002
3.602528e+003;3.110418e-002
3.604456e+003;3.093902e-002
3.606385e+003;2.986222e-002
3.608313e+003;2.926909e-002
3.610242e+003;2.999960e-002
3.612170e+003;3.006724e-002
3.614099e+003;2.995991e-002
3.616028e+003;2.996634e-002
3.617956e+003;2.959210e-002
3.619885e+003;3.008567e-002
3.621813e+003;3.144067e-002
3.623742e+003;3.193710e-002
3.625670e+003;3.088800e-002
3.627599e+003;2.802144e-002
3.629527e+003;2.773671e-002
3.631456e+003;3.019097e-002
3.633385e+003;3.142236e-002
3.635313e+003;3.199584e-002
3.637241e+003;3.206393e-002
3.639170e+003;3.166461e-002
3.641099e+003;3.122849e-002
3.643027e+003;3.115928e-002
3.644956e+003;3.037458e-002
3.646884e+003;2.803360e-002
3.648813e+003;2.662033e-002
3.650741e+003;2.823535e-002
3.652670e+003;3.009920e-002
3.654598e+003;2.928096e-002
3.656527e+003;2.886943e-002
3.658456e+003;3.004128e-002
3.660384e+003;3.052097e-002
3.662313e+003;3.064838e-002
3.664241e+003;3.052648e-002
3.666170e+003;2.998945e-002
3.668098e+003;2.788306e-002
3.670027e+003;2.600645e-002
3.671955e+003;2.723332e-002
3.673884e+003;2.639426e-002
3.675813e+003;2.528328e-002
3.677741e+003;2.747529e-002
3.679669e+003;2.913545e-002
3.681598e+003;2.989559e-002
3.683527e+003;3.005045e-002
3.685455e+003;2.937139e-002
3.687384e+003;2.714199e-002
3.689312e+003;2.708944e-002
3.691241e+003;2.864551e-002
3.693169e+003;2.936618e-002
3.695098e+003;2.963197e-002
3.697026e+003;2.969934e-002
3.698955e+003;2.926062e-002
3.700884e+003;2.825706e-002
3.702812e+003;2.800883e-002
3.704741e+003;2.840688e-002
3.706669e+003;2.851687e-002
3.708598e+003;2.726472e-002
3.710526e+003;2.540545e-002
3.712455e+003;2.573203e-002
3.714383e+003;2.777122e-002
3.716312e+003;2.838912e-002
3.718240e+003;2.798854e-002
3.720169e+003;2.768119e-002
3.722098e+003;2.775949e-002
3.724026e+003;2.813353e-002
3.725955e+003;2.841859e-002
3.727883e+003;2.874735e-002
3.729812e+003;2.796843e-002
3.731740e+003;2.646229e-002
3.733669e+003;2.585345e-002
3.735597e+003;2.540180e-002
3.737526e+003;2.679267e-002
3.739455e+003;2.801236e-002
3.741383e+003;2.697121e-002
3.743312e+003;2.322021e-002
3.745240e+003;2.380685e-002
3.747169e+003;2.577609e-002
3.749097e+003;2.403921e-002
3.751026e+003;2.356177e-002
3.752954e+003;2.596441e-002
3.754883e+003;2.885353e-002
3.756812e+003;2.900206e-002
3.758740e+003;2.871549e-002
3.760668e+003;2.917198e-002
3.762597e+003;2.954379e-002
3.764526e+003;2.883508e-002
3.766454e+003;2.839662e-002
3.768383e+003;2.775356e-002
3.770311e+003;2.833497e-002
3.772240e+003;2.932414e-002
3.774168e+003;2.948241e-002
3.776097e+003;2.926958e-002
3.778025e+003;2.866597e-002
3.779954e+003;2.862512e-002
3.781883e+003;2.918038e-002
3.783811e+003;2.906338e-002
3.785740e+003;2.876997e-002
3.787668e+003;2.861302e-002
3.789597e+003;2.879132e-002
3.791525e+003;2.905308e-002
3.793454e+003;2.915841e-002
3.795382e+003;2.840455e-002
3.797311e+003;2.820303e-002
3.799240e+003;2.682160e-002
3.801168e+003;2.532908e-002
3.803097e+003;2.705206e-002
3.805025e+003;2.729844e-002
3.806954e+003;2.678703e-002
3.808882e+003;2.856567e-002
3.810811e+003;2.961622e-002
3.812739e+003;2.897018e-002
3.814668e+003;2.665901e-002
3.816596e+003;2.702611e-002
3.818525e+003;2.773530e-002
3.820454e+003;2.643810e-002
3.822382e+003;2.785240e-002
3.824311e+003;2.953847e-002
3.826239e+003;2.944166e-002
3.828168e+003;2.895704e-002
3.830096e+003;2.805583e-002
3.832025e+003;2.754102e-002
3.833953e+003;2.727579e-002
3.835882e+003;2.554033e-002
3.837811e+003;2.474357e-002
3.839739e+003;2.662946e-002
3.841667e+003;2.783788e-002
3.843596e+003;2.846904e-002
3.845525e+003;2.918832e-002
3.847453e+003;2.897762e-002
3.849382e+003;2.762180e-002
3.851310e+003;2.357219e-002
3.853239e+003;2.068087e-002
3.855167e+003;2.461528e-002
3.857096e+003;2.862657e-002
3.859024e+003;2.932052e-002
3.860953e+003;2.830724e-002
3.862882e+003;2.714132e-002
3.864810e+003;2.698401e-002
3.866739e+003;2.754578e-002
3.868667e+003;2.602794e-002
3.870596e+003;2.608934e-002
3.872524e+003;2.761057e-002
3.874453e+003;2.836115e-002
3.876381e+003;2.895435e-002
3.878310e+003;2.855265e-002
3.880239e+003;2.825614e-002
3.882167e+003;2.862781e-002
3.884096e+003;2.757689e-002
3.886024e+003;2.735000e-002
3.887953e+003;2.866565e-002
3.889881e+003;2.824476e-002
3.891810e+003;2.842153e-002
3.893738e+003;2.939288e-002
3.895667e+003;2.922727e-002
3.897595e+003;2.826046e-002
3.899524e+003;2.767438e-002
3.901453e+003;2.783420e-002
3.903381e+003;2.803371e-002
3.905310e+003;2.836723e-002
3.907238e+003;2.910554e-002
3.909167e+003;2.974632e-002
3.911095e+003;2.983128e-002
3.913024e+003;2.956185e-002
3.914952e+003;2.946259e-002
3.916881e+003;2.961371e-002
3.918810e+003;2.976119e-002
3.920738e+003;2.980317e-002
3.922667e+003;3.002066e-002
3.924595e+003;2.989410e-002
3.926524e+003;2.992945e-002
3.928452e+003;3.010900e-002
3.930381e+003;3.005247e-002
3.932309e+003;2.995221e-002
3.934238e+003;3.013400e-002
3.936167e+003;2.988696e-002
3.938095e+003;2.977262e-002
3.940023e+003;2.993027e-002
3.941952e+003;2.994354e-002
3.943881e+003;3.016391e-002
3.945809e+003;3.029751e-002
3.947738e+003;3.043119e-002
3.949666e+003;3.062168e-002
3.951595e+003;3.056409e-002
3.953523e+003;3.002225e-002
3.955452e+003;2.998274e-002
3.957380e+003;3.039082e-002
3.959309e+003;3.070051e-002
3.961238e+003;3.094112e-002
3.963166e+003;3.114205e-002
3.965095e+003;3.094158e-002
3.967023e+003;3.083574e-002
3.968952e+003;3.078775e-002
3.970880e+003;3.022756e-002
3.972809e+003;3.020412e-002
3.974737e+003;3.030678e-002
3.976666e+003;3.048247e-002
3.978594e+003;3.075791e-002
3.980523e+003;3.069539e-002
3.982452e+003;3.079234e-002
3.984380e+003;3.114052e-002
3.986309e+003;3.119403e-002
3.988237e+003;3.105122e-002
3.990166e+003;3.078043e-002
3.992094e+003;3.068476e-002
3.994023e+003;3.055548e-002
3.995951e+003;3.038623e-002
3.997880e+003;3.058311e-002
3.999809e+003;3.105780e-002
4.001737e+003;0.000000e+000
