3.992094e+002;0.000000e+000
4.011380e+002;0.000000e+000
4.030665e+002;0.000000e+000
4.049951e+002;0.000000e+000
4.069236e+002;0.000000e+000
4.088522e+002;0.000000e+000
4.107807e+002;0.000000e+000
4.127093e+002;0.000000e+000
4.146378e+002;0.000000e+000
4.165664e+002;0.000000e+000
4.184949e+002;0.000000e+000
4.204235e+002;0.000000e+000
4.223520e+002;0.000000e+000
4.242806e+002;0.000000e+000
4.262091e+002;0.000000e+000
4.281377e+002;0.000000e+000
4.300662e+002;0.000000e+000
4.319948e+002;0.000000e+000
4.339233e+002;0.000000e+000
4.358519e+002;0.000000e+000
4.377804e+002;0.000000e+000
4.397090e+002;0.000000e+000
4.416375e+002;0.000000e+000
4.435660e+002;0.000000e+000
4.454946e+002;0.000000e+000
4.474232e+002;0.000000e+000
4.493517e+002;0.000000e+000
4.512802e+002;0.000000e+000
4.532088e+002;0.000000e+000
4.551373e+002;0.000000e+000
4.570659e+002;0.000000e+000
4.589944e+002;0.000000e+000
4.609230e+002;0.000000e+000
4.628515e+002;0.000000e+000
4.647801e+002;0.000000e+000
4.667086e+002;0.000000e+000
4.686372e+002;0.000000e+000
4.705657e+002;0.000000e+000
4.724943e+002;0.000000e+000
4.744228e+002;0.000000e+000
4.763513e+002;0.000000e+000
4.782799e+002;0.000000e+000
4.802085e+002;0.000000e+000
4.821370e+002;0.000000e+000
4.840656e+002;0.000000e+000
4.859941e+002;0.000000e+000
4.879226e+002;0.000000e+000
4.898512e+002;0.000000e+000
4.917798e+002;0.000000e+000
4.937083e+002;0.000000e+000
4.956368e+002;0.000000e+000
4.975654e+002;0.000000e+000
4.994939e+002;0.000000e+000
5.014225e+002;0.000000e+000
5.033510e+002;0.000000e+000
5.052796e+002;0.000000e+000
5.072081e+002;0.000000e+000
5.091367e+002;0.000000e+000
5.110652e+002;0.000000e+000
5.129938e+002;0.000000e+000
5.149223e+002;0.000000e+000
5.168509e+002;0.000000e+000
5.187794e+002;0.000000e+000
5.207079e+002;0.000000e+000
5.226365e+002;0.000000e+000
5.245651e+002;0.000000e+000
5.264936e+002;0.000000e+000
5.284222e+002;0.000000e+000
5.303507e+002;0.000000e+000
5.322792e+002;0.000000e+000
5.342078e+002;0.000000e+000
5.361364e+002;0.000000e+000
5.380649e+002;0.000000e+000
5.399935e+002;0.000000e+000
5.419220e+002;0.000000e+000
5.438505e+002;0.000000e+000
5.457791e+002;0.000000e+000
5.477076e+002;0.000000e+000
5.496362e+002;0.000000e+000
5.515648e+002;0.000000e+000
5.534933e+002;0.000000e+000
5.554218e+002;0.000000e+000
5.573504e+002;0.000000e+000
5.592789e+002;0.000000e+000
5.612075e+002;0.000000e+000
5.631360e+002;0.000000e+000
5.650646e+002;0.000000e+000
5.669931e+002;0.000000e+000
5.689217e+002;0.000000e+000
5.708502e+002;0.000000e+000
5.727787e+002;0.000000e+000
5.747073e+002;0.000000e+000
5.766359e+002;0.000000e+000
5.785644e+002;0.000000e+000
5.804930e+002;0.000000e+000
5.824215e+002;0.000000e+000
5.843500e+002;0.000000e+000
5.862786e+002;0.000000e+000
5.882072e+002;0.000000e+000
5.901357e+002;0.000000e+000
5.920643e+002;0.000000e+000
5.939928e+002;0.000000e+000
5.959213e+002;0.000000e+000
5.978499e+002;0.000000e+000
5.997784e+002;8.245172e-002
6.017070e+002;7.832166e-002
6.036355e+002;8.498940e-002
6.055641e+002;8.769389e-002
6.074926e+002;8.818902e-002
6.094211e+002;9.191060e-002
6.113497e+002;9.135118e-002
6.132783e+002;8.544514e-002
6.152068e+002;8.462672e-002
6.171354e+002;8.466832e-002
6.190639e+002;8.628108e-002
6.209924e+002;8.957016e-002
6.229210e+002;8.946421e-002
6.248495e+002;8.734836e-002
6.267781e+002;8.954092e-002
6.287067e+002;9.488203e-002
6.306352e+002;1.013153e-001
6.325637e+002;1.058629e-001
6.344923e+002;1.029210e-001
6.364208e+002;9.603169e-002
6.383494e+002;9.093131e-002
6.402780e+002;9.127955e-002
6.422065e+002;9.166497e-002
6.441350e+002;9.288180e-002
6.460636e+002;9.439930e-002
6.479921e+002;9.390433e-002
6.499207e+002;9.651631e-002
6.518492e+002;9.825186e-002
6.537778e+002;9.938229e-002
6.557063e+002;1.032182e-001
6.576349e+002;1.047834e-001
6.595634e+002;1.042498e-001
6.614919e+002;1.051451e-001
6.634205e+002;1.077846e-001
6.653491e+002;1.111728e-001
6.672776e+002;1.153427e-001
6.692062e+002;1.175471e-001
6.711347e+002;1.191637e-001
6.730632e+002;1.231013e-001
6.749918e+002;1.269051e-001
6.769203e+002;1.316905e-001
6.788489e+002;1.369685e-001
6.807775e+002;1.411621e-001
6.827060e+002;1.440271e-001
6.846345e+002;1.445387e-001
6.865631e+002;1.448013e-001
6.884916e+002;1.457806e-001
6.904202e+002;1.483712e-001
6.923488e+002;1.543602e-001
6.942773e+002;1.623745e-001
6.962058e+002;1.720053e-001
6.981344e+002;1.866725e-001
7.000629e+002;2.052025e-001
7.019915e+002;2.223942e-001
7.039200e+002;2.372413e-001
7.058486e+002;2.513495e-001
7.077771e+002;2.665482e-001
7.097057e+002;2.839125e-001
7.116342e+002;3.046463e-001
7.135627e+002;3.306420e-001
7.154913e+002;3.665883e-001
7.174199e+002;4.137726e-001
7.193484e+002;4.654100e-001
7.212770e+002;5.127102e-001
7.232055e+002;5.450877e-001
7.251340e+002;5.414794e-001
7.270626e+002;4.964651e-001
7.289911e+002;4.329681e-001
7.309197e+002;3.701420e-001
7.328483e+002;3.143051e-001
7.347768e+002;2.654183e-001
7.367053e+002;2.214042e-001
7.386339e+002;1.817249e-001
7.405624e+002;1.493022e-001
7.424910e+002;1.253063e-001
7.444196e+002;1.088566e-001
7.463481e+002;9.853721e-002
7.482766e+002;9.404642e-002
7.502052e+002;9.259412e-002
7.521337e+002;9.154370e-002
7.540623e+002;9.060365e-002
7.559908e+002;8.974987e-002
7.579194e+002;8.968909e-002
7.598479e+002;8.988719e-002
7.617765e+002;8.998986e-002
7.637050e+002;9.111114e-002
7.656335e+002;9.312394e-002
7.675621e+002;9.654755e-002
7.694907e+002;9.983447e-002
7.714192e+002;1.020595e-001
7.733478e+002;1.039963e-001
7.752763e+002;1.060645e-001
7.772048e+002;1.086114e-001
7.791334e+002;1.112197e-001
7.810620e+002;1.136646e-001
7.829905e+002;1.171748e-001
7.849191e+002;1.214200e-001
7.868476e+002;1.272184e-001
7.887761e+002;1.337968e-001
7.907047e+002;1.386505e-001
7.926332e+002;1.397145e-001
7.945618e+002;1.337954e-001
7.964903e+002;1.223195e-001
7.984189e+002;1.135709e-001
8.003474e+002;1.104496e-001
8.022759e+002;1.105678e-001
8.042045e+002;1.117577e-001
8.061331e+002;1.126421e-001
8.080616e+002;1.135601e-001
8.099902e+002;1.144767e-001
8.119187e+002;1.156477e-001
8.138472e+002;1.160024e-001
8.157758e+002;1.159502e-001
8.177043e+002;1.171807e-001
8.196329e+002;1.183066e-001
8.215615e+002;1.193232e-001
8.234900e+002;1.210962e-001
8.254185e+002;1.227939e-001
8.273471e+002;1.248076e-001
8.292756e+002;1.273543e-001
8.312042e+002;1.307344e-001
8.331328e+002;1.346617e-001
8.350613e+002;1.390634e-001
8.369898e+002;1.445013e-001
8.389184e+002;1.498867e-001
8.408469e+002;1.552254e-001
8.427755e+002;1.603968e-001
8.447040e+002;1.650949e-001
8.466326e+002;1.681595e-001
8.485611e+002;1.688440e-001
8.504897e+002;1.667383e-001
8.524182e+002;1.633931e-001
8.543467e+002;1.621383e-001
8.562753e+002;1.625610e-001
8.582039e+002;1.628833e-001
8.601324e+002;1.633247e-001
8.620610e+002;1.661992e-001
8.639895e+002;1.720936e-001
8.659180e+002;1.814769e-001
8.678466e+002;1.979520e-001
8.697751e+002;2.224359e-001
8.717037e+002;2.441342e-001
8.736323e+002;2.454439e-001
8.755608e+002;2.294371e-001
8.774893e+002;2.097256e-001
8.794179e+002;1.910696e-001
8.813464e+002;1.743412e-001
8.832750e+002;1.596529e-001
8.852036e+002;1.475524e-001
8.871321e+002;1.384384e-001
8.890606e+002;1.318573e-001
8.909892e+002;1.279775e-001
8.929177e+002;1.259256e-001
8.948463e+002;1.250360e-001
8.967748e+002;1.248742e-001
8.987034e+002;1.247206e-001
9.006319e+002;1.240501e-001
9.025605e+002;1.229448e-001
9.044890e+002;1.216747e-001
9.064175e+002;1.196165e-001
9.083461e+002;1.169353e-001
9.102747e+002;1.146624e-001
9.122032e+002;1.126398e-001
9.141318e+002;1.108123e-001
9.160603e+002;1.097560e-001
9.179888e+002;1.091620e-001
9.199174e+002;1.086619e-001
9.218459e+002;1.086749e-001
9.237745e+002;1.093112e-001
9.257031e+002;1.101581e-001
9.276316e+002;1.108029e-001
9.295601e+002;1.114347e-001
9.314887e+002;1.125248e-001
9.334172e+002;1.138400e-001
9.353458e+002;1.153421e-001
9.372744e+002;1.171805e-001
9.392029e+002;1.189529e-001
9.411314e+002;1.204318e-001
9.430600e+002;1.228947e-001
9.449885e+002;1.255908e-001
9.469171e+002;1.278668e-001
9.488456e+002;1.301958e-001
9.507742e+002;1.330637e-001
9.527027e+002;1.365142e-001
9.546313e+002;1.396603e-001
9.565598e+002;1.432868e-001
9.584883e+002;1.468819e-001
9.604169e+002;1.503906e-001
9.623455e+002;1.545110e-001
9.642740e+002;1.582974e-001
9.662026e+002;1.610151e-001
9.681311e+002;1.627076e-001
9.700596e+002;1.635291e-001
9.719882e+002;1.631553e-001
9.739167e+002;1.614268e-001
9.758453e+002;1.584057e-001
9.777739e+002;1.551759e-001
9.797024e+002;1.522647e-001
9.816309e+002;1.493896e-001
9.835595e+002;1.468963e-001
9.854880e+002;1.452008e-001
9.874166e+002;1.443569e-001
9.893452e+002;1.438266e-001
9.912737e+002;1.433866e-001
9.932022e+002;1.435066e-001
9.951307e+002;1.437328e-001
9.970593e+002;1.447174e-001
9.989879e+002;1.468446e-001
1.000916e+003;1.492323e-001
1.002845e+003;1.525640e-001
1.004773e+003;1.577781e-001
1.006702e+003;1.651689e-001
1.008631e+003;1.760366e-001
1.010559e+003;1.934114e-001
1.012488e+003;2.202053e-001
1.014416e+003;2.565176e-001
1.016345e+003;2.913020e-001
1.018273e+003;3.041201e-001
1.020202e+003;2.883772e-001
1.022130e+003;2.572645e-001
1.024059e+003;2.252320e-001
1.025988e+003;1.981649e-001
1.027916e+003;1.777594e-001
1.029845e+003;1.656186e-001
1.031773e+003;1.613017e-001
1.033702e+003;1.615761e-001
1.035630e+003;1.641026e-001
1.037559e+003;1.672034e-001
1.039487e+003;1.698715e-001
1.041416e+003;1.727532e-001
1.043344e+003;1.755608e-001
1.045273e+003;1.776282e-001
1.047202e+003;1.787103e-001
1.049130e+003;1.790510e-001
1.051059e+003;1.796127e-001
1.052987e+003;1.810998e-001
1.054916e+003;1.828792e-001
1.056844e+003;1.851860e-001
1.058773e+003;1.887038e-001
1.060701e+003;1.932605e-001
1.062630e+003;1.995775e-001
1.064558e+003;2.077471e-001
1.066487e+003;2.166522e-001
1.068416e+003;2.272676e-001
1.070344e+003;2.404020e-001
1.072273e+003;2.561859e-001
1.074201e+003;2.756109e-001
1.076130e+003;2.995166e-001
1.078058e+003;3.277721e-001
1.079987e+003;3.581246e-001
1.081915e+003;3.880795e-001
1.083844e+003;4.153735e-001
1.085773e+003;4.384935e-001
1.087701e+003;4.579820e-001
1.089630e+003;4.753914e-001
1.091558e+003;4.901354e-001
1.093487e+003;5.025594e-001
1.095415e+003;5.115367e-001
1.097344e+003;5.142505e-001
1.099272e+003;5.098364e-001
1.101201e+003;4.971122e-001
1.103129e+003;4.759458e-001
1.105058e+003;4.488969e-001
1.106987e+003;4.207589e-001
1.108915e+003;3.951528e-001
1.110844e+003;3.768695e-001
1.112772e+003;3.684825e-001
1.114701e+003;3.663045e-001
1.116629e+003;3.634201e-001
1.118558e+003;3.565573e-001
1.120486e+003;3.453061e-001
1.122415e+003;3.303301e-001
1.124344e+003;3.137206e-001
1.126272e+003;2.963636e-001
1.128201e+003;2.782009e-001
1.130129e+003;2.596507e-001
1.132058e+003;2.412937e-001
1.133986e+003;2.239306e-001
1.135915e+003;2.078265e-001
1.137843e+003;1.930142e-001
1.139772e+003;1.795863e-001
1.141700e+003;1.683631e-001
1.143629e+003;1.596367e-001
1.145557e+003;1.521533e-001
1.147486e+003;1.454078e-001
1.149415e+003;1.390005e-001
1.151343e+003;1.333428e-001
1.153272e+003;1.286469e-001
1.155200e+003;1.251024e-001
1.157129e+003;1.224033e-001
1.159057e+003;1.207701e-001
1.160986e+003;1.199297e-001
1.162914e+003;1.196405e-001
1.164843e+003;1.209105e-001
1.166771e+003;1.243778e-001
1.168700e+003;1.297719e-001
1.170629e+003;1.358106e-001
1.172557e+003;1.403797e-001
1.174486e+003;1.427033e-001
1.176414e+003;1.428876e-001
1.178343e+003;1.411764e-001
1.180271e+003;1.383878e-001
1.182200e+003;1.359064e-001
1.184128e+003;1.345832e-001
1.186057e+003;1.342873e-001
1.187986e+003;1.348896e-001
1.189914e+003;1.363900e-001
1.191843e+003;1.389604e-001
1.193771e+003;1.422795e-001
1.195700e+003;1.464491e-001
1.197628e+003;1.512159e-001
1.199557e+003;1.565158e-001
1.201485e+003;1.624084e-001
1.203414e+003;1.685162e-001
1.205343e+003;1.746893e-001
1.207271e+003;1.813252e-001
1.209200e+003;1.886275e-001
1.211128e+003;1.967041e-001
1.213057e+003;2.057537e-001
1.214985e+003;2.160004e-001
1.216914e+003;2.272676e-001
1.218842e+003;2.386495e-001
1.220771e+003;2.500470e-001
1.222699e+003;2.622663e-001
1.224628e+003;2.758173e-001
1.226557e+003;2.920530e-001
1.228485e+003;3.121947e-001
1.230414e+003;3.378631e-001
1.232342e+003;3.697274e-001
1.234271e+003;4.071957e-001
1.236199e+003;4.493448e-001
1.238128e+003;4.924823e-001
1.240056e+003;5.318680e-001
1.241985e+003;5.622100e-001
1.243913e+003;5.796377e-001
1.245842e+003;5.846615e-001
1.247771e+003;5.795159e-001
1.249699e+003;5.681230e-001
1.251628e+003;5.522708e-001
1.253556e+003;5.349196e-001
1.255485e+003;5.193063e-001
1.257413e+003;5.063385e-001
1.259342e+003;4.941433e-001
1.261270e+003;4.797184e-001
1.263199e+003;4.620244e-001
1.265127e+003;4.403136e-001
1.267056e+003;4.159127e-001
1.268985e+003;3.907044e-001
1.270913e+003;3.658846e-001
1.272842e+003;3.427397e-001
1.274770e+003;3.232368e-001
1.276699e+003;3.067178e-001
1.278627e+003;2.918480e-001
1.280556e+003;2.788489e-001
1.282484e+003;2.671260e-001
1.284413e+003;2.559020e-001
1.286342e+003;2.451362e-001
1.288270e+003;2.339640e-001
1.290199e+003;2.221746e-001
1.292127e+003;2.101212e-001
1.294056e+003;1.981592e-001
1.295984e+003;1.862511e-001
1.297913e+003;1.744538e-001
1.299841e+003;1.632178e-001
1.301770e+003;1.534660e-001
1.303698e+003;1.457199e-001
1.305627e+003;1.392953e-001
1.307556e+003;1.331354e-001
1.309484e+003;1.269781e-001
1.311413e+003;1.214120e-001
1.313341e+003;1.166882e-001
1.315270e+003;1.127660e-001
1.317198e+003;1.095368e-001
1.319127e+003;1.069305e-001
1.321055e+003;1.047226e-001
1.322984e+003;1.036037e-001
1.324912e+003;1.043628e-001
1.326841e+003;1.076392e-001
1.328770e+003;1.151577e-001
1.330698e+003;1.284092e-001
1.332627e+003;1.470293e-001
1.334555e+003;1.676527e-001
1.336484e+003;1.845050e-001
1.338412e+003;1.917728e-001
1.340341e+003;1.871237e-001
1.342269e+003;1.732645e-001
1.344198e+003;1.546936e-001
1.346126e+003;1.363349e-001
1.348055e+003;1.209909e-001
1.349984e+003;1.095391e-001
1.351912e+003;1.013291e-001
1.353841e+003;9.588540e-002
1.355769e+003;9.239572e-002
1.357698e+003;9.037356e-002
1.359626e+003;8.978446e-002
1.361555e+003;9.064039e-002
1.363483e+003;9.263845e-002
1.365412e+003;9.525498e-002
1.367341e+003;9.768841e-002
1.369269e+003;9.935651e-002
1.371198e+003;1.001681e-001
1.373126e+003;1.001418e-001
1.375055e+003;9.950856e-002
1.376983e+003;9.881009e-002
1.378912e+003;9.842784e-002
1.380840e+003;9.845785e-002
1.382769e+003;9.888393e-002
1.384698e+003;9.974792e-002
1.386626e+003;1.009181e-001
1.388555e+003;1.022688e-001
1.390483e+003;1.039791e-001
1.392412e+003;1.060953e-001
1.394340e+003;1.090902e-001
1.396269e+003;1.135505e-001
1.398197e+003;1.194972e-001
1.400126e+003;1.279008e-001
1.402054e+003;1.396178e-001
1.403983e+003;1.539979e-001
1.405911e+003;1.694230e-001
1.407840e+003;1.812420e-001
1.409769e+003;1.823496e-001
1.411697e+003;1.699889e-001
1.413626e+003;1.490941e-001
1.415554e+003;1.269582e-001
1.417483e+003;1.085444e-001
1.419411e+003;9.577198e-002
1.421340e+003;8.810175e-002
1.423268e+003;8.381245e-002
1.425197e+003;8.182349e-002
1.427125e+003;8.161392e-002
1.429054e+003;8.277578e-002
1.430983e+003;8.501728e-002
1.432911e+003;8.751450e-002
1.434840e+003;9.003066e-002
1.436768e+003;9.257550e-002
1.438697e+003;9.511166e-002
1.440625e+003;9.715420e-002
1.442554e+003;9.890690e-002
1.444482e+003;1.006533e-001
1.446411e+003;1.025170e-001
1.448340e+003;1.043939e-001
1.450268e+003;1.061385e-001
1.452197e+003;1.077341e-001
1.454125e+003;1.090096e-001
1.456054e+003;1.093201e-001
1.457982e+003;1.088553e-001
1.459911e+003;1.085015e-001
1.461839e+003;1.080046e-001
1.463768e+003;1.071272e-001
1.465697e+003;1.067406e-001
1.467625e+003;1.074892e-001
1.469554e+003;1.092210e-001
1.471482e+003;1.100339e-001
1.473411e+003;1.085447e-001
1.475339e+003;1.058564e-001
1.477268e+003;1.024709e-001
1.479196e+003;9.847044e-002
1.481125e+003;9.452484e-002
1.483053e+003;9.070452e-002
1.484982e+003;8.672827e-002
1.486911e+003;8.291881e-002
1.488839e+003;8.006152e-002
1.490768e+003;7.808895e-002
1.492696e+003;7.698603e-002
1.494625e+003;7.745044e-002
1.496553e+003;7.966264e-002
1.498482e+003;8.394987e-002
1.500410e+003;9.104179e-002
1.502339e+003;1.004000e-001
1.504267e+003;1.077840e-001
1.506196e+003;1.077894e-001
1.508125e+003;1.003770e-001
1.510053e+003;9.083349e-002
1.511982e+003;8.341205e-002
1.513910e+003;7.903891e-002
1.515839e+003;7.695299e-002
1.517767e+003;7.613240e-002
1.519696e+003;7.595275e-002
1.521624e+003;7.615301e-002
1.523553e+003;7.682813e-002
1.525481e+003;7.703655e-002
1.527410e+003;7.659930e-002
1.529339e+003;7.611772e-002
1.531267e+003;7.566916e-002
1.533196e+003;7.509588e-002
1.535124e+003;7.426553e-002
1.537053e+003;7.357892e-002
1.538981e+003;7.318199e-002
1.540910e+003;7.306801e-002
1.542838e+003;7.286047e-002
1.544767e+003;7.287669e-002
1.546695e+003;7.349799e-002
1.548624e+003;7.375652e-002
1.550553e+003;7.394851e-002
1.552481e+003;7.421750e-002
1.554410e+003;7.464409e-002
1.556338e+003;7.495517e-002
1.558267e+003;7.511407e-002
1.560195e+003;7.593886e-002
1.562124e+003;7.701625e-002
1.564052e+003;7.793953e-002
1.565981e+003;7.915642e-002
1.567910e+003;8.068221e-002
1.569838e+003;8.271063e-002
1.571767e+003;8.560867e-002
1.573695e+003;8.881621e-002
1.575624e+003;9.178513e-002
1.577552e+003;9.401186e-002
1.579481e+003;9.464579e-002
1.581409e+003;9.286330e-002
1.583338e+003;8.933582e-002
1.585266e+003;8.574440e-002
1.587195e+003;8.286098e-002
1.589124e+003;8.077698e-002
1.591052e+003;7.952669e-002
1.592981e+003;7.907246e-002
1.594909e+003;7.895414e-002
1.596838e+003;7.915813e-002
1.598766e+003;7.985658e-002
1.600695e+003;8.101354e-002
1.602623e+003;8.250360e-002
1.604552e+003;8.402541e-002
1.606480e+003;8.581222e-002
1.608409e+003;8.824038e-002
1.610338e+003;9.048581e-002
1.612266e+003;9.222885e-002
1.614195e+003;9.312361e-002
1.616123e+003;9.269677e-002
1.618052e+003;9.143355e-002
1.619980e+003;9.017818e-002
1.621909e+003;8.903270e-002
1.623837e+003;8.844139e-002
1.625766e+003;8.871577e-002
1.627694e+003;8.927290e-002
1.629623e+003;9.002671e-002
1.631552e+003;9.108821e-002
1.633480e+003;9.187490e-002
1.635409e+003;9.250182e-002
1.637337e+003;9.358033e-002
1.639266e+003;9.465770e-002
1.641194e+003;9.564134e-002
1.643123e+003;9.697972e-002
1.645051e+003;9.827263e-002
1.646980e+003;9.948453e-002
1.648909e+003;1.010028e-001
1.650837e+003;1.026539e-001
1.652766e+003;1.044356e-001
1.654694e+003;1.067216e-001
1.656623e+003;1.091753e-001
1.658551e+003;1.118355e-001
1.660480e+003;1.147536e-001
1.662408e+003;1.179849e-001
1.664337e+003;1.217206e-001
1.666266e+003;1.258064e-001
1.668194e+003;1.298883e-001
1.670123e+003;1.340129e-001
1.672051e+003;1.382825e-001
1.673980e+003;1.425399e-001
1.675908e+003;1.471766e-001
1.677837e+003;1.523680e-001
1.679765e+003;1.576894e-001
1.681694e+003;1.628727e-001
1.683622e+003;1.677446e-001
1.685551e+003;1.728050e-001
1.687479e+003;1.787446e-001
1.689408e+003;1.861153e-001
1.691337e+003;1.952363e-001
1.693265e+003;2.065252e-001
1.695194e+003;2.207181e-001
1.697122e+003;2.386461e-001
1.699051e+003;2.609805e-001
1.700979e+003;2.898438e-001
1.702908e+003;3.255834e-001
1.704836e+003;3.694495e-001
1.706765e+003;4.217451e-001
1.708693e+003;4.784278e-001
1.710622e+003;5.311670e-001
1.712551e+003;5.696002e-001
1.714479e+003;5.839919e-001
1.716408e+003;5.737948e-001
1.718336e+003;5.452031e-001
1.720265e+003;5.078074e-001
1.722193e+003;4.681257e-001
1.724122e+003;4.293860e-001
1.726050e+003;3.918772e-001
1.727979e+003;3.554934e-001
1.729908e+003;3.208955e-001
1.731836e+003;2.889818e-001
1.733765e+003;2.585373e-001
1.735693e+003;2.305919e-001
1.737622e+003;2.050966e-001
1.739550e+003;1.808816e-001
1.741479e+003;1.582291e-001
1.743407e+003;1.377353e-001
1.745336e+003;1.200687e-001
1.747265e+003;1.055683e-001
1.749193e+003;9.424944e-002
1.751122e+003;8.570980e-002
1.753050e+003;7.955928e-002
1.754979e+003;7.518289e-002
1.756907e+003;7.220029e-002
1.758836e+003;7.005425e-002
1.760764e+003;6.840906e-002
1.762693e+003;6.739009e-002
1.764621e+003;6.648459e-002
1.766550e+003;6.551145e-002
1.768479e+003;6.499593e-002
1.770407e+003;6.459616e-002
1.772336e+003;6.409106e-002
1.774264e+003;6.379680e-002
1.776193e+003;6.388408e-002
1.778121e+003;6.398677e-002
1.780050e+003;6.368959e-002
1.781978e+003;6.328331e-002
1.783907e+003;6.321056e-002
1.785835e+003;6.330869e-002
1.787764e+003;6.343230e-002
1.789693e+003;6.315937e-002
1.791621e+003;6.279451e-002
1.793550e+003;6.285325e-002
1.795478e+003;6.301060e-002
1.797407e+003;6.298899e-002
1.799335e+003;6.318328e-002
1.801264e+003;6.343675e-002
1.803192e+003;6.349035e-002
1.805121e+003;6.354512e-002
1.807049e+003;6.369753e-002
1.808978e+003;6.362487e-002
1.810907e+003;6.346884e-002
1.812835e+003;6.353707e-002
1.814764e+003;6.376817e-002
1.816692e+003;6.364355e-002
1.818621e+003;6.356273e-002
1.820549e+003;6.363150e-002
1.822478e+003;6.355812e-002
1.824406e+003;6.360135e-002
1.826335e+003;6.356522e-002
1.828264e+003;6.327289e-002
1.830192e+003;6.284361e-002
1.832121e+003;6.239003e-002
1.834049e+003;6.219858e-002
1.835978e+003;6.170432e-002
1.837906e+003;6.108215e-002
1.839835e+003;6.064119e-002
1.841763e+003;6.006334e-002
1.843692e+003;5.912965e-002
1.845620e+003;5.826259e-002
1.847549e+003;5.771083e-002
1.849478e+003;5.705732e-002
1.851406e+003;5.634145e-002
1.853335e+003;5.573249e-002
1.855263e+003;5.504369e-002
1.857192e+003;5.440639e-002
1.859120e+003;5.378561e-002
1.861049e+003;5.320689e-002
1.862977e+003;5.256344e-002
1.864906e+003;5.206044e-002
1.866834e+003;5.153848e-002
1.868763e+003;5.114467e-002
1.870692e+003;5.093140e-002
1.872620e+003;5.054131e-002
1.874549e+003;5.010129e-002
1.876477e+003;5.000964e-002
1.878406e+003;4.989377e-002
1.880334e+003;4.981056e-002
1.882263e+003;4.979261e-002
1.884191e+003;4.966748e-002
1.886120e+003;4.960314e-002
1.888048e+003;4.973796e-002
1.889977e+003;4.958962e-002
1.891906e+003;4.946024e-002
1.893834e+003;4.953109e-002
1.895763e+003;4.989243e-002
1.897691e+003;5.022600e-002
1.899620e+003;5.040960e-002
1.901548e+003;5.065370e-002
1.903477e+003;5.070028e-002
1.905405e+003;5.063162e-002
1.907334e+003;5.079111e-002
1.909262e+003;5.106137e-002
1.911191e+003;5.137961e-002
1.913120e+003;5.165120e-002
1.915048e+003;5.210142e-002
1.916977e+003;5.261651e-002
1.918905e+003;5.301203e-002
1.920834e+003;5.351306e-002
1.922762e+003;5.410619e-002
1.924691e+003;5.475178e-002
1.926619e+003;5.543179e-002
1.928548e+003;5.597659e-002
1.930477e+003;5.650249e-002
1.932405e+003;5.730028e-002
1.934334e+003;5.822834e-002
1.936262e+003;5.903455e-002
1.938191e+003;5.976621e-002
1.940119e+003;6.066775e-002
1.942048e+003;6.155077e-002
1.943976e+003;6.213504e-002
1.945905e+003;6.264288e-002
1.947833e+003;6.319056e-002
1.949762e+003;6.357937e-002
1.951691e+003;6.369933e-002
1.953619e+003;6.389905e-002
1.955548e+003;6.403423e-002
1.957476e+003;6.412920e-002
1.959405e+003;6.403051e-002
1.961333e+003;6.381200e-002
1.963262e+003;6.343521e-002
1.965190e+003;6.272384e-002
1.967119e+003;6.191798e-002
1.969047e+003;6.113169e-002
1.970976e+003;6.013926e-002
1.972905e+003;5.910634e-002
1.974833e+003;5.854236e-002
1.976762e+003;5.828597e-002
1.978690e+003;5.765975e-002
1.980619e+003;5.691493e-002
1.982547e+003;5.652332e-002
1.984476e+003;5.616996e-002
1.986404e+003;5.554685e-002
1.988333e+003;5.497491e-002
1.990261e+003;5.466425e-002
1.992190e+003;5.417863e-002
1.994119e+003;5.377467e-002
1.996047e+003;5.343174e-002
1.997976e+003;5.283544e-002
1.999904e+003;5.215216e-002
2.001833e+003;5.154512e-002
2.003761e+003;5.093639e-002
2.005690e+003;5.037112e-002
2.007618e+003;5.001168e-002
2.009547e+003;4.983100e-002
2.011476e+003;4.969839e-002
2.013404e+003;4.924976e-002
2.015333e+003;4.887972e-002
2.017261e+003;4.873527e-002
2.019190e+003;4.859588e-002
2.021118e+003;4.823261e-002
2.023047e+003;4.788800e-002
2.024975e+003;4.770579e-002
2.026904e+003;4.751324e-002
2.028833e+003;4.723897e-002
2.030761e+003;4.701103e-002
2.032690e+003;4.697872e-002
2.034618e+003;4.712059e-002
2.036547e+003;4.712783e-002
2.038475e+003;4.703946e-002
2.040404e+003;4.711372e-002
2.042332e+003;4.728774e-002
2.044261e+003;4.778535e-002
2.046189e+003;4.817930e-002
2.048118e+003;4.829738e-002
2.050047e+003;4.859825e-002
2.051975e+003;4.883819e-002
2.053904e+003;4.917539e-002
2.055832e+003;4.956400e-002
2.057761e+003;5.000741e-002
2.059689e+003;5.054797e-002
2.061618e+003;5.074843e-002
2.063546e+003;5.096251e-002
2.065475e+003;5.159926e-002
2.067404e+003;5.221452e-002
2.069332e+003;5.251569e-002
2.071260e+003;5.282549e-002
2.073189e+003;5.326565e-002
2.075118e+003;5.361175e-002
2.077046e+003;5.413866e-002
2.078975e+003;5.452249e-002
2.080903e+003;5.483297e-002
2.082832e+003;5.532019e-002
2.084760e+003;5.565297e-002
2.086689e+003;5.576975e-002
2.088617e+003;5.584028e-002
2.090546e+003;5.568073e-002
2.092475e+003;5.575762e-002
2.094403e+003;5.604659e-002
2.096332e+003;5.603754e-002
2.098260e+003;5.599841e-002
2.100189e+003;5.606747e-002
2.102117e+003;5.611249e-002
2.104046e+003;5.613753e-002
2.105974e+003;5.609930e-002
2.107903e+003;5.601828e-002
2.109832e+003;5.586055e-002
2.111760e+003;5.573226e-002
2.113688e+003;5.563169e-002
2.115617e+003;5.552117e-002
2.117546e+003;5.542219e-002
2.119474e+003;5.517467e-002
2.121403e+003;5.490328e-002
2.123331e+003;5.465177e-002
2.125260e+003;5.422634e-002
2.127188e+003;5.373979e-002
2.129117e+003;5.330042e-002
2.131045e+003;5.286018e-002
2.132974e+003;5.236170e-002
2.134903e+003;5.212440e-002
2.136831e+003;5.207117e-002
2.138760e+003;5.184090e-002
2.140688e+003;5.150893e-002
2.142617e+003;5.121677e-002
2.144545e+003;5.068885e-002
2.146474e+003;5.027379e-002
2.148402e+003;5.007448e-002
2.150331e+003;4.958970e-002
2.152260e+003;4.929496e-002
2.154188e+003;4.907373e-002
2.156117e+003;4.873753e-002
2.158045e+003;4.848765e-002
2.159974e+003;4.813976e-002
2.161902e+003;4.762026e-002
2.163831e+003;4.716003e-002
2.165759e+003;4.680679e-002
2.167688e+003;4.640961e-002
2.169616e+003;4.602272e-002
2.171545e+003;4.581055e-002
2.173474e+003;4.565394e-002
2.175402e+003;4.558884e-002
2.177331e+003;4.539265e-002
2.179259e+003;4.504951e-002
2.181188e+003;4.493184e-002
2.183116e+003;4.509425e-002
2.185045e+003;4.492508e-002
2.186973e+003;4.470962e-002
2.188902e+003;4.472820e-002
2.190831e+003;4.494136e-002
2.192759e+003;4.532108e-002
2.194688e+003;4.544493e-002
2.196616e+003;4.510256e-002
2.198545e+003;4.500868e-002
2.200473e+003;4.533377e-002
2.202402e+003;4.564087e-002
2.204330e+003;4.580263e-002
2.206259e+003;4.604508e-002
2.208188e+003;4.625239e-002
2.210116e+003;4.662787e-002
2.212044e+003;4.705752e-002
2.213973e+003;4.716838e-002
2.215902e+003;4.706519e-002
2.217830e+003;4.715542e-002
2.219759e+003;4.752769e-002
2.221687e+003;4.772343e-002
2.223616e+003;4.772107e-002
2.225544e+003;4.770953e-002
2.227473e+003;4.781953e-002
2.229401e+003;4.791826e-002
2.231330e+003;4.779119e-002
2.233259e+003;4.783595e-002
2.235187e+003;4.813887e-002
2.237116e+003;4.821854e-002
2.239044e+003;4.825627e-002
2.240973e+003;4.845271e-002
2.242901e+003;4.872674e-002
2.244830e+003;4.879696e-002
2.246758e+003;4.877049e-002
2.248687e+003;4.881787e-002
2.250615e+003;4.908638e-002
2.252544e+003;4.951338e-002
2.254473e+003;4.981290e-002
2.256401e+003;4.981346e-002
2.258330e+003;4.986025e-002
2.260258e+003;4.985155e-002
2.262187e+003;4.966547e-002
2.264115e+003;4.965819e-002
2.266044e+003;4.971020e-002
2.267972e+003;4.971161e-002
2.269901e+003;4.978325e-002
2.271830e+003;4.983189e-002
2.273758e+003;4.992447e-002
2.275687e+003;5.024035e-002
2.277615e+003;5.025047e-002
2.279544e+003;5.027685e-002
2.281472e+003;5.055423e-002
2.283401e+003;5.062976e-002
2.285329e+003;5.068424e-002
2.287258e+003;5.063483e-002
2.289187e+003;5.054287e-002
2.291115e+003;5.020650e-002
2.293043e+003;4.965102e-002
2.294972e+003;4.895096e-002
2.296901e+003;4.824157e-002
2.298829e+003;4.780306e-002
2.300758e+003;4.734020e-002
2.302686e+003;4.674228e-002
2.304615e+003;4.639656e-002
2.306543e+003;4.596518e-002
2.308472e+003;4.549820e-002
2.310400e+003;4.529320e-002
2.312329e+003;4.533417e-002
2.314258e+003;4.558092e-002
2.316186e+003;4.560481e-002
2.318115e+003;4.559281e-002
2.320043e+003;4.585149e-002
2.321972e+003;4.591225e-002
2.323900e+003;4.605900e-002
2.325829e+003;4.639889e-002
2.327757e+003;4.647651e-002
2.329686e+003;4.654407e-002
2.331615e+003;4.671885e-002
2.333543e+003;4.661113e-002
2.335472e+003;4.661548e-002
2.337400e+003;4.694502e-002
2.339329e+003;4.706893e-002
2.341257e+003;4.707063e-002
2.343186e+003;4.719764e-002
2.345114e+003;4.725752e-002
2.347043e+003;4.745676e-002
2.348971e+003;4.791693e-002
2.350900e+003;4.849706e-002
2.352829e+003;4.875351e-002
2.354757e+003;4.895084e-002
2.356686e+003;4.915075e-002
2.358614e+003;4.937151e-002
2.360543e+003;4.991455e-002
2.362471e+003;5.035125e-002
2.364400e+003;5.058137e-002
2.366328e+003;5.079722e-002
2.368257e+003;5.116920e-002
2.370186e+003;5.148871e-002
2.372114e+003;5.156702e-002
2.374042e+003;5.162161e-002
2.375971e+003;5.153516e-002
2.377900e+003;5.168483e-002
2.379828e+003;5.196569e-002
2.381757e+003;5.193137e-002
2.383685e+003;5.189074e-002
2.385614e+003;5.202111e-002
2.387542e+003;5.187588e-002
2.389471e+003;5.161459e-002
2.391399e+003;5.160471e-002
2.393328e+003;5.163027e-002
2.395257e+003;5.168923e-002
2.397185e+003;5.152654e-002
2.399114e+003;5.125111e-002
2.401042e+003;5.098349e-002
2.402971e+003;5.075153e-002
2.404899e+003;5.045876e-002
2.406828e+003;5.019549e-002
2.408756e+003;5.006783e-002
2.410685e+003;4.983052e-002
2.412614e+003;4.958598e-002
2.414542e+003;4.938220e-002
2.416471e+003;4.899413e-002
2.418399e+003;4.869105e-002
2.420328e+003;4.853544e-002
2.422256e+003;4.815594e-002
2.424185e+003;4.787679e-002
2.426113e+003;4.761727e-002
2.428042e+003;4.706132e-002
2.429970e+003;4.667096e-002
2.431899e+003;4.657114e-002
2.433828e+003;4.635314e-002
2.435756e+003;4.600894e-002
2.437685e+003;4.559619e-002
2.439613e+003;4.530184e-002
2.441542e+003;4.522307e-002
2.443470e+003;4.515035e-002
2.445399e+003;4.489237e-002
2.447327e+003;4.459108e-002
2.449256e+003;4.448476e-002
2.451185e+003;4.435400e-002
2.453113e+003;4.424333e-002
2.455042e+003;4.426388e-002
2.456970e+003;4.413691e-002
2.458899e+003;4.395473e-002
2.460827e+003;4.383307e-002
2.462756e+003;4.377805e-002
2.464684e+003;4.374152e-002
2.466613e+003;4.387064e-002
2.468542e+003;4.392518e-002
2.470470e+003;4.408062e-002
2.472398e+003;4.431884e-002
2.474327e+003;4.472795e-002
2.476256e+003;4.498417e-002
2.478184e+003;4.503871e-002
2.480113e+003;4.516903e-002
2.482041e+003;4.529033e-002
2.483970e+003;4.543904e-002
2.485898e+003;4.572329e-002
2.487827e+003;4.602887e-002
2.489755e+003;4.607757e-002
2.491684e+003;4.624015e-002
2.493613e+003;4.656886e-002
2.495541e+003;4.670255e-002
2.497470e+003;4.681801e-002
2.499398e+003;4.704792e-002
2.501327e+003;4.724710e-002
2.503255e+003;4.726106e-002
2.505184e+003;4.748984e-002
2.507112e+003;4.773904e-002
2.509041e+003;4.773967e-002
2.510969e+003;4.782933e-002
2.512898e+003;4.788815e-002
2.514827e+003;4.806058e-002
2.516755e+003;4.838589e-002
2.518684e+003;4.869483e-002
2.520612e+003;4.907592e-002
2.522541e+003;4.959891e-002
2.524469e+003;4.975256e-002
2.526398e+003;4.964203e-002
2.528326e+003;4.971700e-002
2.530255e+003;4.985951e-002
2.532184e+003;4.988184e-002
2.534112e+003;5.000592e-002
2.536041e+003;5.023384e-002
2.537969e+003;4.994890e-002
2.539898e+003;4.969987e-002
2.541826e+003;4.990622e-002
2.543755e+003;4.983828e-002
2.545683e+003;4.992016e-002
2.547612e+003;4.998098e-002
2.549541e+003;4.965886e-002
2.551469e+003;4.948311e-002
2.553397e+003;4.950621e-002
2.555326e+003;4.982193e-002
2.557255e+003;5.024378e-002
2.559183e+003;5.004388e-002
2.561112e+003;4.994024e-002
2.563040e+003;4.990812e-002
2.564969e+003;4.968799e-002
2.566897e+003;4.985382e-002
2.568826e+003;4.972450e-002
2.570754e+003;4.956975e-002
2.572683e+003;4.975672e-002
2.574612e+003;4.973134e-002
2.576540e+003;4.967294e-002
2.578469e+003;4.967127e-002
2.580397e+003;4.967439e-002
2.582326e+003;4.962981e-002
2.584254e+003;4.959679e-002
2.586183e+003;4.933223e-002
2.588111e+003;4.905084e-002
2.590040e+003;4.892451e-002
2.591969e+003;4.874280e-002
2.593897e+003;4.837174e-002
2.595826e+003;4.781945e-002
2.597754e+003;4.776870e-002
2.599683e+003;4.772118e-002
2.601611e+003;4.709179e-002
2.603540e+003;4.663425e-002
2.605468e+003;4.639546e-002
2.607397e+003;4.657531e-002
2.609325e+003;4.689179e-002
2.611254e+003;4.654429e-002
2.613183e+003;4.608789e-002
2.615111e+003;4.589266e-002
2.617040e+003;4.596024e-002
2.618968e+003;4.612440e-002
2.620897e+003;4.602511e-002
2.622825e+003;4.593608e-002
2.624754e+003;4.579118e-002
2.626682e+003;4.588556e-002
2.628611e+003;4.627668e-002
2.630540e+003;4.640969e-002
2.632468e+003;4.606689e-002
2.634396e+003;4.566322e-002
2.636325e+003;4.520914e-002
2.638254e+003;4.477232e-002
2.640182e+003;4.442303e-002
2.642111e+003;4.396368e-002
2.644039e+003;4.342590e-002
2.645968e+003;4.332352e-002
2.647896e+003;4.332733e-002
2.649825e+003;4.314538e-002
2.651753e+003;4.297737e-002
2.653682e+003;4.265656e-002
2.655611e+003;4.234436e-002
2.657539e+003;4.234798e-002
2.659468e+003;4.237256e-002
2.661396e+003;4.223951e-002
2.663325e+003;4.221204e-002
2.665253e+003;4.216114e-002
2.667182e+003;4.239609e-002
2.669110e+003;4.263087e-002
2.671039e+003;4.266589e-002
2.672968e+003;4.263481e-002
2.674896e+003;4.261782e-002
2.676825e+003;4.260364e-002
2.678753e+003;4.283367e-002
2.680682e+003;4.284434e-002
2.682610e+003;4.273001e-002
2.684539e+003;4.271322e-002
2.686467e+003;4.276244e-002
2.688396e+003;4.285327e-002
2.690324e+003;4.290242e-002
2.692253e+003;4.285799e-002
2.694182e+003;4.283941e-002
2.696110e+003;4.287986e-002
2.698039e+003;4.304882e-002
2.699967e+003;4.326616e-002
2.701896e+003;4.322370e-002
2.703824e+003;4.325390e-002
2.705753e+003;4.357056e-002
2.707681e+003;4.366614e-002
2.709610e+003;4.361207e-002
2.711539e+003;4.354536e-002
2.713467e+003;4.363302e-002
2.715396e+003;4.369088e-002
2.717324e+003;4.385968e-002
2.719253e+003;4.425349e-002
2.721181e+003;4.445745e-002
2.723110e+003;4.468483e-002
2.725038e+003;4.489987e-002
2.726967e+003;4.491207e-002
2.728896e+003;4.515520e-002
2.730824e+003;4.554254e-002
2.732752e+003;4.594989e-002
2.734681e+003;4.626558e-002
2.736610e+003;4.626400e-002
2.738538e+003;4.633293e-002
2.740467e+003;4.655399e-002
2.742395e+003;4.654366e-002
2.744324e+003;4.648901e-002
2.746252e+003;4.673018e-002
2.748181e+003;4.688891e-002
2.750109e+003;4.690818e-002
2.752038e+003;4.701841e-002
2.753967e+003;4.702646e-002
2.755895e+003;4.687233e-002
2.757824e+003;4.674856e-002
2.759752e+003;4.661533e-002
2.761681e+003;4.653721e-002
2.763609e+003;4.669605e-002
2.765538e+003;4.701786e-002
2.767466e+003;4.720425e-002
2.769395e+003;4.726686e-002
2.771323e+003;4.743307e-002
2.773252e+003;4.775221e-002
2.775181e+003;4.795771e-002
2.777109e+003;4.803971e-002
2.779038e+003;4.793695e-002
2.780966e+003;4.830375e-002
2.782895e+003;4.888958e-002
2.784823e+003;4.908772e-002
2.786752e+003;4.936987e-002
2.788680e+003;4.987623e-002
2.790609e+003;5.025657e-002
2.792538e+003;5.058866e-002
2.794466e+003;5.111243e-002
2.796395e+003;5.184374e-002
2.798323e+003;5.215814e-002
2.800252e+003;5.232017e-002
2.802180e+003;5.264625e-002
2.804109e+003;5.266854e-002
2.806037e+003;5.268736e-002
2.807966e+003;5.271691e-002
2.809895e+003;5.249561e-002
2.811823e+003;5.201872e-002
2.813751e+003;5.193645e-002
2.815680e+003;5.189661e-002
2.817609e+003;5.165057e-002
2.819537e+003;5.141646e-002
2.821466e+003;5.123314e-002
2.823394e+003;5.148703e-002
2.825323e+003;5.181450e-002
2.827251e+003;5.204124e-002
2.829180e+003;5.232921e-002
2.831108e+003;5.286486e-002
2.833037e+003;5.347138e-002
2.834966e+003;5.366244e-002
2.836894e+003;5.383974e-002
2.838823e+003;5.435261e-002
2.840751e+003;5.503625e-002
2.842680e+003;5.566536e-002
2.844608e+003;5.635884e-002
2.846537e+003;5.702543e-002
2.848465e+003;5.743773e-002
2.850394e+003;5.797245e-002
2.852323e+003;5.849652e-002
2.854251e+003;5.911651e-002
2.856180e+003;5.992479e-002
2.858108e+003;6.060911e-002
2.860037e+003;6.121973e-002
2.861965e+003;6.176921e-002
2.863894e+003;6.204773e-002
2.865822e+003;6.243552e-002
2.867751e+003;6.284808e-002
2.869679e+003;6.315649e-002
2.871608e+003;6.335822e-002
2.873536e+003;6.349802e-002
2.875465e+003;6.387932e-002
2.877394e+003;6.438164e-002
2.879322e+003;6.474590e-002
2.881251e+003;6.488904e-002
2.883179e+003;6.516606e-002
2.885108e+003;6.553561e-002
2.887036e+003;6.582616e-002
2.888965e+003;6.624095e-002
2.890893e+003;6.661207e-002
2.892822e+003;6.707019e-002
2.894750e+003;6.759980e-002
2.896679e+003;6.806908e-002
2.898608e+003;6.857025e-002
2.900536e+003;6.945100e-002
2.902465e+003;7.025570e-002
2.904393e+003;7.101203e-002
2.906322e+003;7.163387e-002
2.908250e+003;7.193884e-002
2.910179e+003;7.183809e-002
2.912107e+003;7.156663e-002
2.914036e+003;7.057394e-002
2.915965e+003;6.948592e-002
2.917893e+003;6.861557e-002
2.919822e+003;6.763863e-002
2.921750e+003;6.650861e-002
2.923679e+003;6.562794e-002
2.925607e+003;6.529647e-002
2.927536e+003;6.496569e-002
2.929464e+003;6.483664e-002
2.931393e+003;6.539276e-002
2.933322e+003;6.584408e-002
2.935250e+003;6.590343e-002
2.937178e+003;6.651772e-002
2.939107e+003;6.783880e-002
2.941036e+003;6.874454e-002
2.942964e+003;6.948366e-002
2.944893e+003;7.100981e-002
2.946821e+003;7.229370e-002
2.948750e+003;7.311063e-002
2.950678e+003;7.408457e-002
2.952607e+003;7.509863e-002
2.954535e+003;7.618061e-002
2.956464e+003;7.723794e-002
2.958393e+003;7.849026e-002
2.960321e+003;7.959455e-002
2.962250e+003;8.029513e-002
2.964178e+003;8.079714e-002
2.966107e+003;8.147860e-002
2.968035e+003;8.216742e-002
2.969964e+003;8.229195e-002
2.971892e+003;8.218431e-002
2.973821e+003;8.146784e-002
2.975750e+003;8.047219e-002
2.977678e+003;7.974409e-002
2.979607e+003;7.882993e-002
2.981535e+003;7.786341e-002
2.983464e+003;7.711125e-002
2.985392e+003;7.623085e-002
2.987321e+003;7.556394e-002
2.989249e+003;7.486627e-002
2.991178e+003;7.405565e-002
2.993106e+003;7.335383e-002
2.995035e+003;7.300874e-002
2.996964e+003;7.253887e-002
2.998892e+003;7.185154e-002
3.000821e+003;7.165610e-002
3.002749e+003;7.168689e-002
3.004678e+003;7.106030e-002
3.006606e+003;7.023140e-002
3.008535e+003;6.973853e-002
3.010463e+003;6.920500e-002
3.012392e+003;6.845929e-002
3.014321e+003;6.782296e-002
3.016249e+003;6.712545e-002
3.018177e+003;6.623790e-002
3.020106e+003;6.556161e-002
3.022035e+003;6.483610e-002
3.023963e+003;6.406710e-002
3.025892e+003;6.317067e-002
3.027820e+003;6.207464e-002
3.029749e+003;6.120588e-002
3.031677e+003;6.054706e-002
3.033606e+003;5.982496e-002
3.035534e+003;5.937912e-002
3.037463e+003;5.901402e-002
3.039392e+003;5.878861e-002
3.041320e+003;5.902297e-002
3.043249e+003;5.959039e-002
3.045177e+003;6.049781e-002
3.047106e+003;6.189245e-002
3.049034e+003;6.339043e-002
3.050963e+003;6.479121e-002
3.052891e+003;6.589988e-002
3.054820e+003;6.608255e-002
3.056749e+003;6.580861e-002
3.058677e+003;6.579778e-002
3.060606e+003;6.595364e-002
3.062534e+003;6.560894e-002
3.064463e+003;6.541148e-002
3.066391e+003;6.548583e-002
3.068320e+003;6.565214e-002
3.070248e+003;6.569724e-002
3.072177e+003;6.563788e-002
3.074105e+003;6.562269e-002
3.076034e+003;6.554651e-002
3.077963e+003;6.549076e-002
3.079891e+003;6.509873e-002
3.081820e+003;6.472575e-002
3.083748e+003;6.464203e-002
3.085677e+003;6.452323e-002
3.087605e+003;6.410128e-002
3.089534e+003;6.346585e-002
3.091462e+003;6.286604e-002
3.093391e+003;6.234910e-002
3.095320e+003;6.214249e-002
3.097248e+003;6.252233e-002
3.099177e+003;6.298757e-002
3.101105e+003;6.321218e-002
3.103034e+003;6.349181e-002
3.104962e+003;6.380317e-002
3.106891e+003;6.390531e-002
3.108819e+003;6.385107e-002
3.110748e+003;6.336401e-002
3.112677e+003;6.254881e-002
3.114605e+003;6.158448e-002
3.116533e+003;6.044708e-002
3.118462e+003;5.967276e-002
3.120391e+003;5.929951e-002
3.122319e+003;5.887971e-002
3.124248e+003;5.846073e-002
3.126176e+003;5.809746e-002
3.128105e+003;5.800391e-002
3.130033e+003;5.779989e-002
3.131962e+003;5.728017e-002
3.133890e+003;5.686368e-002
3.135819e+003;5.680529e-002
3.137748e+003;5.637533e-002
3.139676e+003;5.543183e-002
3.141605e+003;5.467853e-002
3.143533e+003;5.430766e-002
3.145462e+003;5.388974e-002
3.147390e+003;5.331859e-002
3.149319e+003;5.280308e-002
3.151247e+003;5.253442e-002
3.153176e+003;5.215746e-002
3.155104e+003;5.180547e-002
3.157033e+003;5.150274e-002
3.158962e+003;5.117371e-002
3.160890e+003;5.114531e-002
3.162819e+003;5.129674e-002
3.164747e+003;5.135525e-002
3.166676e+003;5.093591e-002
3.168604e+003;5.082389e-002
3.170533e+003;5.092600e-002
3.172461e+003;5.074534e-002
3.174390e+003;5.066141e-002
3.176319e+003;5.028380e-002
3.178247e+003;4.996384e-002
3.180176e+003;4.975902e-002
3.182104e+003;4.953960e-002
3.184033e+003;4.971878e-002
3.185961e+003;4.979239e-002
3.187890e+003;4.990221e-002
3.189818e+003;5.003410e-002
3.191747e+003;4.982754e-002
3.193676e+003;4.986980e-002
3.195604e+003;4.990396e-002
3.197532e+003;4.955508e-002
3.199461e+003;4.937841e-002
3.201390e+003;4.937544e-002
3.203318e+003;4.910430e-002
3.205247e+003;4.873827e-002
3.207175e+003;4.862738e-002
3.209104e+003;4.900128e-002
3.211032e+003;4.923658e-002
3.212961e+003;4.911606e-002
3.214889e+003;4.921517e-002
3.216818e+003;4.930361e-002
3.218747e+003;4.924326e-002
3.220675e+003;4.928086e-002
3.222604e+003;4.941253e-002
3.224532e+003;4.950368e-002
3.226461e+003;4.945526e-002
3.228389e+003;4.917064e-002
3.230318e+003;4.902283e-002
3.232246e+003;4.905214e-002
3.234175e+003;4.924872e-002
3.236104e+003;4.955456e-002
3.238032e+003;4.941123e-002
3.239961e+003;4.912111e-002
3.241889e+003;4.867626e-002
3.243818e+003;4.838081e-002
3.245746e+003;4.831060e-002
3.247675e+003;4.831278e-002
3.249603e+003;4.827808e-002
3.251532e+003;4.833263e-002
3.253460e+003;4.824579e-002
3.255389e+003;4.803050e-002
3.257318e+003;4.795508e-002
3.259246e+003;4.787231e-002
3.261175e+003;4.795841e-002
3.263103e+003;4.781804e-002
3.265032e+003;4.781631e-002
3.266960e+003;4.787956e-002
3.268889e+003;4.771907e-002
3.270817e+003;4.781793e-002
3.272746e+003;4.811363e-002
3.274675e+003;4.760488e-002
3.276603e+003;4.731685e-002
3.278531e+003;4.789832e-002
3.280460e+003;4.832678e-002
3.282389e+003;4.830441e-002
3.284317e+003;4.811329e-002
3.286246e+003;4.810041e-002
3.288174e+003;4.814972e-002
3.290103e+003;4.833126e-002
3.292031e+003;4.844601e-002
3.293960e+003;4.838011e-002
3.295888e+003;4.835326e-002
3.297817e+003;4.839563e-002
3.299746e+003;4.864798e-002
3.301674e+003;4.847587e-002
3.303603e+003;4.778313e-002
3.305531e+003;4.772384e-002
3.307460e+003;4.798646e-002
3.309388e+003;4.804016e-002
3.311317e+003;4.796348e-002
3.313245e+003;4.771470e-002
3.315174e+003;4.737246e-002
3.317103e+003;4.728168e-002
3.319031e+003;4.738380e-002
3.320960e+003;4.728179e-002
3.322888e+003;4.719069e-002
3.324817e+003;4.746012e-002
3.326745e+003;4.807509e-002
3.328674e+003;4.834644e-002
3.330602e+003;4.820444e-002
3.332531e+003;4.802594e-002
3.334459e+003;4.806850e-002
3.336388e+003;4.811426e-002
3.338317e+003;4.790861e-002
3.340245e+003;4.816874e-002
3.342174e+003;4.844782e-002
3.344102e+003;4.807476e-002
3.346031e+003;4.733566e-002
3.347959e+003;4.675760e-002
3.349888e+003;4.635251e-002
3.351816e+003;4.625596e-002
3.353745e+003;4.594474e-002
3.355674e+003;4.569141e-002
3.357602e+003;4.555877e-002
3.359531e+003;4.494217e-002
3.361459e+003;4.454703e-002
3.363388e+003;4.457364e-002
3.365316e+003;4.409459e-002
3.367245e+003;4.370436e-002
3.369173e+003;4.393127e-002
3.371102e+003;4.430434e-002
3.373031e+003;4.436570e-002
3.374959e+003;4.402337e-002
3.376887e+003;4.398773e-002
3.378816e+003;4.428435e-002
3.380745e+003;4.438680e-002
3.382673e+003;4.456234e-002
3.384602e+003;4.439572e-002
3.386530e+003;4.405528e-002
3.388459e+003;4.440321e-002
3.390387e+003;4.490120e-002
3.392316e+003;4.525245e-002
3.394244e+003;4.550479e-002
3.396173e+003;4.551443e-002
3.398102e+003;4.578613e-002
3.400030e+003;4.652939e-002
3.401959e+003;4.718685e-002
3.403887e+003;4.749080e-002
3.405816e+003;4.808675e-002
3.407744e+003;4.894435e-002
3.409673e+003;5.001656e-002
3.411601e+003;5.133064e-002
3.413530e+003;5.242012e-002
3.415458e+003;5.304475e-002
3.417387e+003;5.368265e-002
3.419316e+003;5.466677e-002
3.421244e+003;5.577679e-002
3.423173e+003;5.672799e-002
3.425101e+003;5.787741e-002
3.427030e+003;5.860671e-002
3.428958e+003;5.879150e-002
3.430887e+003;5.860530e-002
3.432815e+003;5.830359e-002
3.434744e+003;5.797214e-002
3.436673e+003;5.777900e-002
3.438601e+003;5.758298e-002
3.440530e+003;5.680827e-002
3.442458e+003;5.574138e-002
3.444387e+003;5.447471e-002
3.446315e+003;5.380478e-002
3.448244e+003;5.354252e-002
3.450172e+003;5.295779e-002
3.452101e+003;5.199194e-002
3.454030e+003;5.087787e-002
3.455958e+003;5.014190e-002
3.457886e+003;4.973428e-002
3.459815e+003;4.899338e-002
3.461744e+003;4.815945e-002
3.463672e+003;4.755516e-002
3.465601e+003;4.673678e-002
3.467529e+003;4.588136e-002
3.469458e+003;4.533483e-002
3.471386e+003;4.501195e-002
3.473315e+003;4.448814e-002
3.475243e+003;4.449871e-002
3.477172e+003;4.411238e-002
3.479101e+003;4.326341e-002
3.481029e+003;4.303751e-002
3.482958e+003;4.313473e-002
3.484886e+003;4.314223e-002
3.486815e+003;4.309422e-002
3.488743e+003;4.297448e-002
3.490672e+003;4.255196e-002
3.492600e+003;4.207940e-002
3.494529e+003;4.227719e-002
3.496458e+003;4.263792e-002
3.498386e+003;4.295593e-002
3.500315e+003;4.334076e-002
3.502243e+003;4.325902e-002
3.504172e+003;4.316971e-002
3.506100e+003;4.352599e-002
3.508029e+003;4.351687e-002
3.509957e+003;4.322981e-002
3.511886e+003;4.325166e-002
3.513814e+003;4.341938e-002
3.515743e+003;4.380338e-002
3.517672e+003;4.368369e-002
3.519600e+003;4.353976e-002
3.521529e+003;4.393570e-002
3.523457e+003;4.438493e-002
3.525386e+003;4.479554e-002
3.527314e+003;4.489495e-002
3.529243e+003;4.492493e-002
3.531171e+003;4.517208e-002
3.533100e+003;4.510237e-002
3.535029e+003;4.507473e-002
3.536957e+003;4.512719e-002
3.538885e+003;4.500225e-002
3.540814e+003;4.500218e-002
3.542743e+003;4.494121e-002
3.544671e+003;4.502338e-002
3.546600e+003;4.473548e-002
3.548528e+003;4.421332e-002
3.550457e+003;4.434930e-002
3.552385e+003;4.494499e-002
3.554314e+003;4.491258e-002
3.556242e+003;4.462556e-002
3.558171e+003;4.448377e-002
3.560100e+003;4.384989e-002
3.562028e+003;4.360855e-002
3.563957e+003;4.359357e-002
3.565885e+003;4.332777e-002
3.567814e+003;4.266029e-002
3.569742e+003;4.190242e-002
3.571671e+003;4.175721e-002
3.573599e+003;4.204830e-002
3.575528e+003;4.207593e-002
3.577457e+003;4.180825e-002
3.579385e+003;4.158558e-002
3.581314e+003;4.059330e-002
3.583242e+003;3.939695e-002
3.585171e+003;3.947158e-002
3.587099e+003;3.975184e-002
3.589028e+003;3.985610e-002
3.590956e+003;3.942430e-002
3.592885e+003;3.868368e-002
3.594813e+003;3.875703e-002
3.596742e+003;3.892114e-002
3.598671e+003;3.857699e-002
3.600599e+003;3.828670e-002
3.602528e+003;3.841841e-002
3.604456e+003;3.827758e-002
3.606385e+003;3.794439e-002
3.608313e+003;3.794106e-002
3.610242e+003;3.835297e-002
3.612170e+003;3.859868e-002
3.614099e+003;3.860545e-002
3.616028e+003;3.857648e-002
3.617956e+003;3.836603e-002
3.619885e+003;3.800695e-002
3.621813e+003;3.795795e-002
3.623742e+003;3.797657e-002
3.625670e+003;3.836114e-002
3.627599e+003;3.856171e-002
3.629527e+003;3.813890e-002
3.631456e+003;3.817269e-002
3.633385e+003;3.873932e-002
3.635313e+003;3.870589e-002
3.637241e+003;3.845443e-002
3.639170e+003;3.840747e-002
3.641099e+003;3.825913e-002
3.643027e+003;3.781944e-002
3.644956e+003;3.739050e-002
3.646884e+003;3.689285e-002
3.648813e+003;3.685924e-002
3.650741e+003;3.709985e-002
3.652670e+003;3.705012e-002
3.654598e+003;3.672522e-002
3.656527e+003;3.632481e-002
3.658456e+003;3.612333e-002
3.660384e+003;3.623180e-002
3.662313e+003;3.624924e-002
3.664241e+003;3.608239e-002
3.666170e+003;3.585116e-002
3.668098e+003;3.556172e-002
3.670027e+003;3.535258e-002
3.671955e+003;3.527308e-002
3.673884e+003;3.524962e-002
3.675813e+003;3.525551e-002
3.677741e+003;3.590648e-002
3.679669e+003;3.667439e-002
3.681598e+003;3.723250e-002
3.683527e+003;3.749581e-002
3.685455e+003;3.784887e-002
3.687384e+003;3.774177e-002
3.689312e+003;3.719845e-002
3.691241e+003;3.651574e-002
3.693169e+003;3.612110e-002
3.695098e+003;3.596359e-002
3.697026e+003;3.608531e-002
3.698955e+003;3.597061e-002
3.700884e+003;3.525562e-002
3.702812e+003;3.457746e-002
3.704741e+003;3.439419e-002
3.706669e+003;3.415113e-002
3.708598e+003;3.386264e-002
3.710526e+003;3.383402e-002
3.712455e+003;3.378695e-002
3.714383e+003;3.405987e-002
3.716312e+003;3.445904e-002
3.718240e+003;3.437622e-002
3.720169e+003;3.398445e-002
3.722098e+003;3.367118e-002
3.724026e+003;3.372840e-002
3.725955e+003;3.404755e-002
3.727883e+003;3.428825e-002
3.729812e+003;3.444282e-002
3.731740e+003;3.457757e-002
3.733669e+003;3.431906e-002
3.735597e+003;3.418507e-002
3.737526e+003;3.399215e-002
3.739455e+003;3.406869e-002
3.741383e+003;3.405067e-002
3.743312e+003;3.355394e-002
3.745240e+003;3.361544e-002
3.747169e+003;3.413001e-002
3.749097e+003;3.446664e-002
3.751026e+003;3.444307e-002
3.752954e+003;3.467510e-002
3.754883e+003;3.529130e-002
3.756812e+003;3.566300e-002
3.758740e+003;3.566073e-002
3.760668e+003;3.590503e-002
3.762597e+003;3.573509e-002
3.764526e+003;3.541150e-002
3.766454e+003;3.522899e-002
3.768383e+003;3.503197e-002
3.770311e+003;3.515167e-002
3.772240e+003;3.522205e-002
3.774168e+003;3.456523e-002
3.776097e+003;3.416676e-002
3.778025e+003;3.415141e-002
3.779954e+003;3.405844e-002
3.781883e+003;3.413837e-002
3.783811e+003;3.435649e-002
3.785740e+003;3.445860e-002
3.787668e+003;3.429507e-002
3.789597e+003;3.436445e-002
3.791525e+003;3.480410e-002
3.793454e+003;3.512027e-002
3.795382e+003;3.460649e-002
3.797311e+003;3.437705e-002
3.799240e+003;3.470679e-002
3.801168e+003;3.531582e-002
3.803097e+003;3.547697e-002
3.805025e+003;3.525321e-002
3.806954e+003;3.501121e-002
3.808882e+003;3.482783e-002
3.810811e+003;3.482758e-002
3.812739e+003;3.504221e-002
3.814668e+003;3.513378e-002
3.816596e+003;3.472649e-002
3.818525e+003;3.460527e-002
3.820454e+003;3.477014e-002
3.822382e+003;3.515864e-002
3.824311e+003;3.504110e-002
3.826239e+003;3.446280e-002
3.828168e+003;3.473575e-002
3.830096e+003;3.496014e-002
3.832025e+003;3.472072e-002
3.833953e+003;3.480518e-002
3.835882e+003;3.467244e-002
3.837811e+003;3.431092e-002
3.839739e+003;3.444817e-002
3.841667e+003;3.493221e-002
3.843596e+003;3.497149e-002
3.845525e+003;3.505051e-002
3.847453e+003;3.493530e-002
3.849382e+003;3.420250e-002
3.851310e+003;3.373137e-002
3.853239e+003;3.355641e-002
3.855167e+003;3.422888e-002
3.857096e+003;3.529371e-002
3.859024e+003;3.527887e-002
3.860953e+003;3.481412e-002
3.862882e+003;3.486273e-002
3.864810e+003;3.505083e-002
3.866739e+003;3.500069e-002
3.868667e+003;3.458858e-002
3.870596e+003;3.468239e-002
3.872524e+003;3.522281e-002
3.874453e+003;3.524980e-002
3.876381e+003;3.517337e-002
3.878310e+003;3.485436e-002
3.880239e+003;3.481142e-002
3.882167e+003;3.560808e-002
3.884096e+003;3.579067e-002
3.886024e+003;3.562286e-002
3.887953e+003;3.580748e-002
3.889881e+003;3.575829e-002
3.891810e+003;3.572958e-002
3.893738e+003;3.569800e-002
3.895667e+003;3.557200e-002
3.897595e+003;3.583605e-002
3.899524e+003;3.628179e-002
3.901453e+003;3.621916e-002
3.903381e+003;3.610194e-002
3.905310e+003;3.617710e-002
3.907238e+003;3.639978e-002
3.909167e+003;3.682696e-002
3.911095e+003;3.667453e-002
3.913024e+003;3.646756e-002
3.914952e+003;3.648972e-002
3.916881e+003;3.672198e-002
3.918810e+003;3.737529e-002
3.920738e+003;3.744373e-002
3.922667e+003;3.716073e-002
3.924595e+003;3.741032e-002
3.926524e+003;3.753234e-002
3.928452e+003;3.766052e-002
3.930381e+003;3.773692e-002
3.932309e+003;3.757356e-002
3.934238e+003;3.727210e-002
3.936167e+003;3.692665e-002
3.938095e+003;3.708079e-002
3.940023e+003;3.734897e-002
3.941952e+003;3.738714e-002
3.943881e+003;3.714684e-002
3.945809e+003;3.736749e-002
3.947738e+003;3.805274e-002
3.949666e+003;3.814461e-002
3.951595e+003;3.783571e-002
3.953523e+003;3.789685e-002
3.955452e+003;3.789399e-002
3.957380e+003;3.803852e-002
3.959309e+003;3.780517e-002
3.961238e+003;3.743676e-002
3.963166e+003;3.805400e-002
3.965095e+003;3.874834e-002
3.967023e+003;3.855855e-002
3.968952e+003;3.842156e-002
3.970880e+003;3.844248e-002
3.972809e+003;3.806912e-002
3.974737e+003;3.774195e-002
3.976666e+003;3.795296e-002
3.978594e+003;3.808804e-002
3.980523e+003;3.772688e-002
3.982452e+003;3.749740e-002
3.984380e+003;3.770855e-002
3.986309e+003;3.786658e-002
3.988237e+003;3.807994e-002
3.990166e+003;3.841095e-002
3.992094e+003;3.845388e-002
3.994023e+003;3.848574e-002
3.995951e+003;3.855816e-002
3.997880e+003;3.863000e-002
3.999809e+003;3.874062e-002
4.001737e+003;0.000000e+000
