3.992094e+002;0.000000e+000
4.011380e+002;0.000000e+000
4.030665e+002;0.000000e+000
4.049951e+002;0.000000e+000
4.069236e+002;0.000000e+000
4.088522e+002;0.000000e+000
4.107807e+002;0.000000e+000
4.127093e+002;0.000000e+000
4.146378e+002;0.000000e+000
4.165664e+002;0.000000e+000
4.184949e+002;0.000000e+000
4.204235e+002;0.000000e+000
4.223520e+002;0.000000e+000
4.242806e+002;0.000000e+000
4.262091e+002;0.000000e+000
4.281377e+002;0.000000e+000
4.300662e+002;0.000000e+000
4.319948e+002;0.000000e+000
4.339233e+002;0.000000e+000
4.358519e+002;0.000000e+000
4.377804e+002;0.000000e+000
4.397090e+002;0.000000e+000
4.416375e+002;0.000000e+000
4.435660e+002;0.000000e+000
4.454946e+002;0.000000e+000
4.474232e+002;0.000000e+000
4.493517e+002;0.000000e+000
4.512802e+002;0.000000e+000
4.532088e+002;0.000000e+000
4.551373e+002;0.000000e+000
4.570659e+002;0.000000e+000
4.589944e+002;0.000000e+000
4.609230e+002;0.000000e+000
4.628515e+002;0.000000e+000
4.647801e+002;0.000000e+000
4.667086e+002;0.000000e+000
4.686372e+002;0.000000e+000
4.705657e+002;0.000000e+000
4.724943e+002;0.000000e+000
4.744228e+002;0.000000e+000
4.763513e+002;0.000000e+000
4.782799e+002;0.000000e+000
4.802085e+002;0.000000e+000
4.821370e+002;0.000000e+000
4.840656e+002;0.000000e+000
4.859941e+002;0.000000e+000
4.879226e+002;0.000000e+000
4.898512e+002;0.000000e+000
4.917798e+002;0.000000e+000
4.937083e+002;0.000000e+000
4.956368e+002;0.000000e+000
4.975654e+002;0.000000e+000
4.994939e+002;0.000000e+000
5.014225e+002;0.000000e+000
5.033510e+002;0.000000e+000
5.052796e+002;0.000000e+000
5.072081e+002;0.000000e+000
5.091367e+002;0.000000e+000
5.110652e+002;0.000000e+000
5.129938e+002;0.000000e+000
5.149223e+002;0.000000e+000
5.168509e+002;0.000000e+000
5.187794e+002;0.000000e+000
5.207079e+002;0.000000e+000
5.226365e+002;0.000000e+000
5.245651e+002;0.000000e+000
5.264936e+002;0.000000e+000
5.284222e+002;0.000000e+000
5.303507e+002;0.000000e+000
5.322792e+002;0.000000e+000
5.342078e+002;0.000000e+000
5.361364e+002;0.000000e+000
5.380649e+002;0.000000e+000
5.399935e+002;0.000000e+000
5.419220e+002;0.000000e+000
5.438505e+002;0.000000e+000
5.457791e+002;0.000000e+000
5.477076e+002;0.000000e+000
5.496362e+002;0.000000e+000
5.515648e+002;0.000000e+000
5.534933e+002;0.000000e+000
5.554218e+002;0.000000e+000
5.573504e+002;0.000000e+000
5.592789e+002;0.000000e+000
5.612075e+002;0.000000e+000
5.631360e+002;0.000000e+000
5.650646e+002;0.000000e+000
5.669931e+002;0.000000e+000
5.689217e+002;0.000000e+000
5.708502e+002;0.000000e+000
5.727787e+002;0.000000e+000
5.747073e+002;0.000000e+000
5.766359e+002;0.000000e+000
5.785644e+002;0.000000e+000
5.804930e+002;0.000000e+000
5.824215e+002;0.000000e+000
5.843500e+002;0.000000e+000
5.862786e+002;0.000000e+000
5.882072e+002;0.000000e+000
5.901357e+002;0.000000e+000
5.920643e+002;0.000000e+000
5.939928e+002;0.000000e+000
5.959213e+002;0.000000e+000
5.978499e+002;0.000000e+000
5.997784e+002;7.833547e-002
6.017070e+002;7.492875e-002
6.036355e+002;7.521453e-002
6.055641e+002;7.874572e-002
6.074926e+002;8.474196e-002
6.094211e+002;8.686342e-002
6.113497e+002;8.740630e-002
6.132783e+002;8.482981e-002
6.152068e+002;8.214908e-002
6.171354e+002;8.384954e-002
6.190639e+002;8.397781e-002
6.209924e+002;8.030390e-002
6.229210e+002;8.106876e-002
6.248495e+002;8.265652e-002
6.267781e+002;8.186101e-002
6.287067e+002;8.319417e-002
6.306352e+002;9.078709e-002
6.325637e+002;9.423565e-002
6.344923e+002;8.833759e-002
6.364208e+002;8.552220e-002
6.383494e+002;8.487932e-002
6.402780e+002;8.559753e-002
6.422065e+002;8.802550e-002
6.441350e+002;9.018393e-002
6.460636e+002;9.032881e-002
6.479921e+002;8.901440e-002
6.499207e+002;8.932902e-002
6.518492e+002;8.958454e-002
6.537778e+002;9.085317e-002
6.557063e+002;9.423022e-002
6.576349e+002;9.685969e-002
6.595634e+002;9.710642e-002
6.614919e+002;9.960974e-002
6.634205e+002;1.009342e-001
6.653491e+002;9.977327e-002
6.672776e+002;1.004806e-001
6.692062e+002;1.027431e-001
6.711347e+002;1.050892e-001
6.730632e+002;1.080784e-001
6.749918e+002;1.118760e-001
6.769203e+002;1.163761e-001
6.788489e+002;1.201570e-001
6.807775e+002;1.222310e-001
6.827060e+002;1.217809e-001
6.846345e+002;1.210119e-001
6.865631e+002;1.223468e-001
6.884916e+002;1.249456e-001
6.904202e+002;1.270281e-001
6.923488e+002;1.303353e-001
6.942773e+002;1.368343e-001
6.962058e+002;1.462054e-001
6.981344e+002;1.566709e-001
7.000629e+002;1.691967e-001
7.019915e+002;1.815799e-001
7.039200e+002;1.928787e-001
7.058486e+002;2.039161e-001
7.077771e+002;2.164108e-001
7.097057e+002;2.306722e-001
7.116342e+002;2.474064e-001
7.135627e+002;2.699940e-001
7.154913e+002;2.982566e-001
7.174199e+002;3.317795e-001
7.193484e+002;3.672449e-001
7.212770e+002;3.973361e-001
7.232055e+002;4.136246e-001
7.251340e+002;4.042186e-001
7.270626e+002;3.696862e-001
7.289911e+002;3.248156e-001
7.309197e+002;2.816172e-001
7.328483e+002;2.420450e-001
7.347768e+002;2.041417e-001
7.367053e+002;1.693531e-001
7.386339e+002;1.394288e-001
7.405624e+002;1.156739e-001
7.424910e+002;9.903587e-002
7.444196e+002;8.858622e-002
7.463481e+002;8.217490e-002
7.482766e+002;7.836495e-002
7.502052e+002;7.650872e-002
7.521337e+002;7.564980e-002
7.540623e+002;7.570647e-002
7.559908e+002;7.569996e-002
7.579194e+002;7.614776e-002
7.598479e+002;7.617019e-002
7.617765e+002;7.601807e-002
7.637050e+002;7.721712e-002
7.656335e+002;7.890753e-002
7.675621e+002;8.067044e-002
7.694907e+002;8.242849e-002
7.714192e+002;8.414810e-002
7.733478e+002;8.600286e-002
7.752763e+002;8.775541e-002
7.772048e+002;8.933004e-002
7.791334e+002;9.049153e-002
7.810620e+002;9.232868e-002
7.829905e+002;9.566930e-002
7.849191e+002;9.911225e-002
7.868476e+002;1.025276e-001
7.887761e+002;1.060330e-001
7.907047e+002;1.097119e-001
7.926332e+002;1.112657e-001
7.945618e+002;1.082296e-001
7.964903e+002;1.018851e-001
7.984189e+002;9.578656e-002
8.003474e+002;9.423285e-002
8.022759e+002;9.517197e-002
8.042045e+002;9.558415e-002
8.061331e+002;9.589320e-002
8.080616e+002;9.654846e-002
8.099902e+002;9.662242e-002
8.119187e+002;9.635041e-002
8.138472e+002;9.684495e-002
8.157758e+002;9.791306e-002
8.177043e+002;9.907703e-002
8.196329e+002;9.970973e-002
8.215615e+002;1.002174e-001
8.234900e+002;1.017239e-001
8.254185e+002;1.036416e-001
8.273471e+002;1.056685e-001
8.292756e+002;1.082515e-001
8.312042e+002;1.107496e-001
8.331328e+002;1.127565e-001
8.350613e+002;1.157962e-001
8.369898e+002;1.192456e-001
8.389184e+002;1.226905e-001
8.408469e+002;1.273420e-001
8.427755e+002;1.329277e-001
8.447040e+002;1.384561e-001
8.466326e+002;1.421437e-001
8.485611e+002;1.422549e-001
8.504897e+002;1.390212e-001
8.524182e+002;1.350918e-001
8.543467e+002;1.331788e-001
8.562753e+002;1.325954e-001
8.582039e+002;1.314740e-001
8.601324e+002;1.312941e-001
8.620610e+002;1.331976e-001
8.639895e+002;1.368258e-001
8.659180e+002;1.440158e-001
8.678466e+002;1.581954e-001
8.697751e+002;1.791082e-001
8.717037e+002;1.956012e-001
8.736323e+002;1.932312e-001
8.755608e+002;1.780106e-001
8.774893e+002;1.620815e-001
8.794179e+002;1.481970e-001
8.813464e+002;1.355702e-001
8.832750e+002;1.243942e-001
8.852036e+002;1.158618e-001
8.871321e+002;1.100241e-001
8.890606e+002;1.060230e-001
8.909892e+002;1.037222e-001
8.929177e+002;1.027444e-001
8.948463e+002;1.021667e-001
8.967748e+002;1.020789e-001
8.987034e+002;1.022496e-001
9.006319e+002;1.018382e-001
9.025605e+002;1.010332e-001
9.044890e+002;1.001447e-001
9.064175e+002;9.880564e-002
9.083461e+002;9.703942e-002
9.102747e+002;9.573072e-002
9.122032e+002;9.488136e-002
9.141318e+002;9.415983e-002
9.160603e+002;9.363167e-002
9.179888e+002;9.356233e-002
9.199174e+002;9.351585e-002
9.218459e+002;9.371085e-002
9.237745e+002;9.421030e-002
9.257031e+002;9.497096e-002
9.276316e+002;9.559191e-002
9.295601e+002;9.604868e-002
9.314887e+002;9.696759e-002
9.334172e+002;9.798297e-002
9.353458e+002;9.893133e-002
9.372744e+002;9.964796e-002
9.392029e+002;1.005231e-001
9.411314e+002;1.019062e-001
9.430600e+002;1.030628e-001
9.449885e+002;1.041431e-001
9.469171e+002;1.057758e-001
9.488456e+002;1.073779e-001
9.507742e+002;1.092439e-001
9.527027e+002;1.118492e-001
9.546313e+002;1.142182e-001
9.565598e+002;1.169397e-001
9.584883e+002;1.203459e-001
9.604169e+002;1.236244e-001
9.623455e+002;1.268156e-001
9.642740e+002;1.296331e-001
9.662026e+002;1.320546e-001
9.681311e+002;1.338666e-001
9.700596e+002;1.347365e-001
9.719882e+002;1.342454e-001
9.739167e+002;1.323480e-001
9.758453e+002;1.298016e-001
9.777739e+002;1.270426e-001
9.797024e+002;1.244177e-001
9.816309e+002;1.226854e-001
9.835595e+002;1.212281e-001
9.854880e+002;1.201302e-001
9.874166e+002;1.197861e-001
9.893452e+002;1.193942e-001
9.912737e+002;1.194281e-001
9.932022e+002;1.197835e-001
9.951307e+002;1.203234e-001
9.970593e+002;1.217514e-001
9.989879e+002;1.234441e-001
1.000916e+003;1.254735e-001
1.002845e+003;1.284926e-001
1.004773e+003;1.326942e-001
1.006702e+003;1.377052e-001
1.008631e+003;1.447060e-001
1.010559e+003;1.562091e-001
1.012488e+003;1.749119e-001
1.014416e+003;2.004121e-001
1.016345e+003;2.244968e-001
1.018273e+003;2.337021e-001
1.020202e+003;2.239094e-001
1.022130e+003;2.041073e-001
1.024059e+003;1.817546e-001
1.025988e+003;1.609050e-001
1.027916e+003;1.447873e-001
1.029845e+003;1.346639e-001
1.031773e+003;1.306538e-001
1.033702e+003;1.305154e-001
1.035630e+003;1.317072e-001
1.037559e+003;1.334301e-001
1.039487e+003;1.355200e-001
1.041416e+003;1.374832e-001
1.043344e+003;1.391121e-001
1.045273e+003;1.406611e-001
1.047202e+003;1.415918e-001
1.049130e+003;1.424075e-001
1.051059e+003;1.437040e-001
1.052987e+003;1.449499e-001
1.054916e+003;1.467588e-001
1.056844e+003;1.500670e-001
1.058773e+003;1.534103e-001
1.060701e+003;1.565114e-001
1.062630e+003;1.614116e-001
1.064558e+003;1.677798e-001
1.066487e+003;1.747095e-001
1.068416e+003;1.825690e-001
1.070344e+003;1.913791e-001
1.072273e+003;2.019881e-001
1.074201e+003;2.138038e-001
1.076130e+003;2.273529e-001
1.078058e+003;2.433944e-001
1.079987e+003;2.605873e-001
1.081915e+003;2.769473e-001
1.083844e+003;2.915214e-001
1.085773e+003;3.048171e-001
1.087701e+003;3.154880e-001
1.089630e+003;3.248276e-001
1.091558e+003;3.331658e-001
1.093487e+003;3.404996e-001
1.095415e+003;3.467492e-001
1.097344e+003;3.500606e-001
1.099272e+003;3.494621e-001
1.101201e+003;3.443975e-001
1.103129e+003;3.345593e-001
1.105058e+003;3.210490e-001
1.106987e+003;3.061456e-001
1.108915e+003;2.922117e-001
1.110844e+003;2.815722e-001
1.112772e+003;2.763998e-001
1.114701e+003;2.755186e-001
1.116629e+003;2.753821e-001
1.118558e+003;2.737707e-001
1.120486e+003;2.691821e-001
1.122415e+003;2.615033e-001
1.124344e+003;2.516043e-001
1.126272e+003;2.403645e-001
1.128201e+003;2.280010e-001
1.130129e+003;2.150778e-001
1.132058e+003;2.014458e-001
1.133986e+003;1.874932e-001
1.135915e+003;1.746254e-001
1.137843e+003;1.638462e-001
1.139772e+003;1.543173e-001
1.141700e+003;1.459094e-001
1.143629e+003;1.392951e-001
1.145557e+003;1.342065e-001
1.147486e+003;1.306850e-001
1.149415e+003;1.282267e-001
1.151343e+003;1.256257e-001
1.153272e+003;1.232355e-001
1.155200e+003;1.211662e-001
1.157129e+003;1.192654e-001
1.159057e+003;1.180865e-001
1.160986e+003;1.179833e-001
1.162914e+003;1.185500e-001
1.164843e+003;1.196439e-001
1.166771e+003;1.215568e-001
1.168700e+003;1.244960e-001
1.170629e+003;1.270020e-001
1.172557e+003;1.279995e-001
1.174486e+003;1.281547e-001
1.176414e+003;1.272551e-001
1.178343e+003;1.251745e-001
1.180271e+003;1.225763e-001
1.182200e+003;1.201684e-001
1.184128e+003;1.177606e-001
1.186057e+003;1.162720e-001
1.187986e+003;1.163015e-001
1.189914e+003;1.174940e-001
1.191843e+003;1.197739e-001
1.193771e+003;1.226649e-001
1.195700e+003;1.258603e-001
1.197628e+003;1.294782e-001
1.199557e+003;1.334373e-001
1.201485e+003;1.377130e-001
1.203414e+003;1.421634e-001
1.205343e+003;1.469282e-001
1.207271e+003;1.523526e-001
1.209200e+003;1.580654e-001
1.211128e+003;1.637618e-001
1.213057e+003;1.701006e-001
1.214985e+003;1.772340e-001
1.216914e+003;1.849801e-001
1.218842e+003;1.930782e-001
1.220771e+003;2.014164e-001
1.222699e+003;2.098324e-001
1.224628e+003;2.188522e-001
1.226557e+003;2.295990e-001
1.228485e+003;2.426857e-001
1.230414e+003;2.587935e-001
1.232342e+003;2.780758e-001
1.234271e+003;3.004887e-001
1.236199e+003;3.242853e-001
1.238128e+003;3.472236e-001
1.240056e+003;3.671311e-001
1.241985e+003;3.816598e-001
1.243913e+003;3.896516e-001
1.245842e+003;3.911696e-001
1.247771e+003;3.878184e-001
1.249699e+003;3.816623e-001
1.251628e+003;3.736937e-001
1.253556e+003;3.656328e-001
1.255485e+003;3.582308e-001
1.257413e+003;3.512246e-001
1.259342e+003;3.441943e-001
1.261270e+003;3.358800e-001
1.263199e+003;3.251418e-001
1.265127e+003;3.125069e-001
1.267056e+003;2.981464e-001
1.268985e+003;2.829570e-001
1.270913e+003;2.682974e-001
1.272842e+003;2.548995e-001
1.274770e+003;2.430974e-001
1.276699e+003;2.325577e-001
1.278627e+003;2.226087e-001
1.280556e+003;2.131373e-001
1.282484e+003;2.044311e-001
1.284413e+003;1.960069e-001
1.286342e+003;1.877390e-001
1.288270e+003;1.797239e-001
1.290199e+003;1.715027e-001
1.292127e+003;1.631102e-001
1.294056e+003;1.548387e-001
1.295984e+003;1.470369e-001
1.297913e+003;1.392860e-001
1.299841e+003;1.316410e-001
1.301770e+003;1.252036e-001
1.303698e+003;1.200063e-001
1.305627e+003;1.156860e-001
1.307556e+003;1.117026e-001
1.309484e+003;1.079139e-001
1.311413e+003;1.045861e-001
1.313341e+003;1.017841e-001
1.315270e+003;9.944674e-002
1.317198e+003;9.772749e-002
1.319127e+003;9.628717e-002
1.321055e+003;9.503128e-002
1.322984e+003;9.477757e-002
1.324912e+003;9.576550e-002
1.326841e+003;9.857716e-002
1.328770e+003;1.047714e-001
1.330698e+003;1.151106e-001
1.332627e+003;1.295806e-001
1.334555e+003;1.458034e-001
1.336484e+003;1.595584e-001
1.338412e+003;1.663418e-001
1.340341e+003;1.637417e-001
1.342269e+003;1.528467e-001
1.344198e+003;1.373497e-001
1.346126e+003;1.215153e-001
1.348055e+003;1.080212e-001
1.349984e+003;9.801852e-002
1.351912e+003;9.097384e-002
1.353841e+003;8.601659e-002
1.355769e+003;8.315822e-002
1.357698e+003;8.195308e-002
1.359626e+003;8.160620e-002
1.361555e+003;8.231878e-002
1.363483e+003;8.382214e-002
1.365412e+003;8.556496e-002
1.367341e+003;8.736189e-002
1.369269e+003;8.845036e-002
1.371198e+003;8.883682e-002
1.373126e+003;8.885020e-002
1.375055e+003;8.852763e-002
1.376983e+003;8.803382e-002
1.378912e+003;8.776036e-002
1.380840e+003;8.789920e-002
1.382769e+003;8.828264e-002
1.384698e+003;8.869658e-002
1.386626e+003;8.909469e-002
1.388555e+003;8.963031e-002
1.390483e+003;9.055336e-002
1.392412e+003;9.229888e-002
1.394340e+003;9.474476e-002
1.396269e+003;9.807337e-002
1.398197e+003;1.026692e-001
1.400126e+003;1.089609e-001
1.402054e+003;1.173675e-001
1.403983e+003;1.276230e-001
1.405911e+003;1.382616e-001
1.407840e+003;1.453087e-001
1.409769e+003;1.444170e-001
1.411697e+003;1.346762e-001
1.413626e+003;1.192113e-001
1.415554e+003;1.031155e-001
1.417483e+003;9.002964e-002
1.419411e+003;8.099074e-002
1.421340e+003;7.561478e-002
1.423268e+003;7.274947e-002
1.425197e+003;7.157206e-002
1.427125e+003;7.153947e-002
1.429054e+003;7.221320e-002
1.430983e+003;7.369629e-002
1.432911e+003;7.547445e-002
1.434840e+003;7.708933e-002
1.436768e+003;7.862375e-002
1.438697e+003;8.011778e-002
1.440625e+003;8.151629e-002
1.442554e+003;8.271717e-002
1.444482e+003;8.401890e-002
1.446411e+003;8.574597e-002
1.448340e+003;8.752578e-002
1.450268e+003;8.917939e-002
1.452197e+003;9.052552e-002
1.454125e+003;9.122105e-002
1.456054e+003;9.152234e-002
1.457982e+003;9.166968e-002
1.459911e+003;9.138737e-002
1.461839e+003;9.112667e-002
1.463768e+003;9.131978e-002
1.465697e+003;9.180821e-002
1.467625e+003;9.313141e-002
1.469554e+003;9.525931e-002
1.471482e+003;9.627608e-002
1.473411e+003;9.499520e-002
1.475339e+003;9.219181e-002
1.477268e+003;8.899557e-002
1.479196e+003;8.584540e-002
1.481125e+003;8.265159e-002
1.483053e+003;7.927571e-002
1.484982e+003;7.597947e-002
1.486911e+003;7.324953e-002
1.488839e+003;7.107560e-002
1.490768e+003;6.961845e-002
1.492696e+003;6.893241e-002
1.494625e+003;6.917962e-002
1.496553e+003;7.106733e-002
1.498482e+003;7.464138e-002
1.500410e+003;8.005841e-002
1.502339e+003;8.731927e-002
1.504267e+003;9.329498e-002
1.506196e+003;9.313937e-002
1.508125e+003;8.717597e-002
1.510053e+003;8.044361e-002
1.511982e+003;7.609687e-002
1.513910e+003;7.424505e-002
1.515839e+003;7.380620e-002
1.517767e+003;7.419560e-002
1.519696e+003;7.473519e-002
1.521624e+003;7.505739e-002
1.523553e+003;7.527805e-002
1.525481e+003;7.566404e-002
1.527410e+003;7.605033e-002
1.529339e+003;7.605526e-002
1.531267e+003;7.594131e-002
1.533196e+003;7.554194e-002
1.535124e+003;7.488902e-002
1.537053e+003;7.409593e-002
1.538981e+003;7.286020e-002
1.540910e+003;7.189576e-002
1.542838e+003;7.144037e-002
1.544767e+003;7.080586e-002
1.546695e+003;7.008540e-002
1.548624e+003;6.990664e-002
1.550553e+003;6.994054e-002
1.552481e+003;6.973515e-002
1.554410e+003;6.940629e-002
1.556338e+003;6.918308e-002
1.558267e+003;6.920554e-002
1.560195e+003;6.938028e-002
1.562124e+003;6.976717e-002
1.564052e+003;7.011425e-002
1.565981e+003;7.044825e-002
1.567910e+003;7.124114e-002
1.569838e+003;7.265906e-002
1.571767e+003;7.452913e-002
1.573695e+003;7.661902e-002
1.575624e+003;7.877368e-002
1.577552e+003;8.026662e-002
1.579481e+003;8.049580e-002
1.581409e+003;7.958802e-002
1.583338e+003;7.783757e-002
1.585266e+003;7.584956e-002
1.587195e+003;7.432227e-002
1.589124e+003;7.357264e-002
1.591052e+003;7.332142e-002
1.592981e+003;7.347617e-002
1.594909e+003;7.430945e-002
1.596838e+003;7.573988e-002
1.598766e+003;7.716990e-002
1.600695e+003;7.845093e-002
1.602623e+003;7.958642e-002
1.604552e+003;8.029827e-002
1.606480e+003;8.063445e-002
1.608409e+003;8.099609e-002
1.610338e+003;8.153009e-002
1.612266e+003;8.238354e-002
1.614195e+003;8.290742e-002
1.616123e+003;8.232434e-002
1.618052e+003;8.105642e-002
1.619980e+003;7.956752e-002
1.621909e+003;7.854040e-002
1.623837e+003;7.831364e-002
1.625766e+003;7.820310e-002
1.627694e+003;7.812099e-002
1.629623e+003;7.831110e-002
1.631552e+003;7.876550e-002
1.633480e+003;7.891841e-002
1.635409e+003;7.924036e-002
1.637337e+003;8.013117e-002
1.639266e+003;8.099768e-002
1.641194e+003;8.188586e-002
1.643123e+003;8.292514e-002
1.645051e+003;8.396675e-002
1.646980e+003;8.493194e-002
1.648909e+003;8.602976e-002
1.650837e+003;8.751900e-002
1.652766e+003;8.898259e-002
1.654694e+003;9.050969e-002
1.656623e+003;9.242105e-002
1.658551e+003;9.468621e-002
1.660480e+003;9.724927e-002
1.662408e+003;9.991938e-002
1.664337e+003;1.026671e-001
1.666266e+003;1.060796e-001
1.668194e+003;1.098511e-001
1.670123e+003;1.132663e-001
1.672051e+003;1.164571e-001
1.673980e+003;1.198678e-001
1.675908e+003;1.235274e-001
1.677837e+003;1.276692e-001
1.679765e+003;1.321799e-001
1.681694e+003;1.362455e-001
1.683622e+003;1.397738e-001
1.685551e+003;1.437695e-001
1.687479e+003;1.485890e-001
1.689408e+003;1.546643e-001
1.691337e+003;1.623052e-001
1.693265e+003;1.715072e-001
1.695194e+003;1.825202e-001
1.697122e+003;1.959189e-001
1.699051e+003;2.120176e-001
1.700979e+003;2.312185e-001
1.702908e+003;2.531681e-001
1.704836e+003;2.790267e-001
1.706765e+003;3.074676e-001
1.708693e+003;3.357805e-001
1.710622e+003;3.600543e-001
1.712551e+003;3.756637e-001
1.714479e+003;3.794519e-001
1.716408e+003;3.716141e-001
1.718336e+003;3.546751e-001
1.720265e+003;3.337746e-001
1.722193e+003;3.112764e-001
1.724122e+003;2.883769e-001
1.726050e+003;2.657731e-001
1.727979e+003;2.442637e-001
1.729908e+003;2.237747e-001
1.731836e+003;2.044077e-001
1.733765e+003;1.853971e-001
1.735693e+003;1.669507e-001
1.737622e+003;1.496555e-001
1.739550e+003;1.331872e-001
1.741479e+003;1.173669e-001
1.743407e+003;1.030243e-001
1.745336e+003;9.085628e-002
1.747265e+003;8.091668e-002
1.749193e+003;7.319243e-002
1.751122e+003;6.736761e-002
1.753050e+003;6.316347e-002
1.754979e+003;6.029539e-002
1.756907e+003;5.846574e-002
1.758836e+003;5.738671e-002
1.760764e+003;5.627337e-002
1.762693e+003;5.514255e-002
1.764621e+003;5.450296e-002
1.766550e+003;5.414684e-002
1.768479e+003;5.384390e-002
1.770407e+003;5.347273e-002
1.772336e+003;5.310582e-002
1.774264e+003;5.306452e-002
1.776193e+003;5.313023e-002
1.778121e+003;5.299193e-002
1.780050e+003;5.273801e-002
1.781978e+003;5.255664e-002
1.783907e+003;5.260152e-002
1.785835e+003;5.260189e-002
1.787764e+003;5.247538e-002
1.789693e+003;5.238143e-002
1.791621e+003;5.231068e-002
1.793550e+003;5.226456e-002
1.795478e+003;5.215373e-002
1.797407e+003;5.204076e-002
1.799335e+003;5.211476e-002
1.801264e+003;5.222491e-002
1.803192e+003;5.220753e-002
1.805121e+003;5.219068e-002
1.807049e+003;5.233736e-002
1.808978e+003;5.233647e-002
1.810907e+003;5.224524e-002
1.812835e+003;5.220473e-002
1.814764e+003;5.232660e-002
1.816692e+003;5.245632e-002
1.818621e+003;5.243396e-002
1.820549e+003;5.231139e-002
1.822478e+003;5.222035e-002
1.824406e+003;5.203792e-002
1.826335e+003;5.183813e-002
1.828264e+003;5.156239e-002
1.830192e+003;5.114359e-002
1.832121e+003;5.091892e-002
1.834049e+003;5.073708e-002
1.835978e+003;5.044610e-002
1.837906e+003;5.008958e-002
1.839835e+003;4.967907e-002
1.841763e+003;4.920897e-002
1.843692e+003;4.859184e-002
1.845620e+003;4.801961e-002
1.847549e+003;4.761457e-002
1.849478e+003;4.700191e-002
1.851406e+003;4.627332e-002
1.853335e+003;4.586626e-002
1.855263e+003;4.543974e-002
1.857192e+003;4.493070e-002
1.859120e+003;4.436376e-002
1.861049e+003;4.376750e-002
1.862977e+003;4.338935e-002
1.864906e+003;4.314619e-002
1.866834e+003;4.288560e-002
1.868763e+003;4.249627e-002
1.870692e+003;4.207772e-002
1.872620e+003;4.183551e-002
1.874549e+003;4.164667e-002
1.876477e+003;4.142324e-002
1.878406e+003;4.120474e-002
1.880334e+003;4.110322e-002
1.882263e+003;4.111659e-002
1.884191e+003;4.113928e-002
1.886120e+003;4.119243e-002
1.888048e+003;4.095646e-002
1.889977e+003;4.082482e-002
1.891906e+003;4.112478e-002
1.893834e+003;4.128373e-002
1.895763e+003;4.132852e-002
1.897691e+003;4.148671e-002
1.899620e+003;4.166552e-002
1.901548e+003;4.172431e-002
1.903477e+003;4.172723e-002
1.905405e+003;4.187579e-002
1.907334e+003;4.222344e-002
1.909262e+003;4.238929e-002
1.911191e+003;4.236745e-002
1.913120e+003;4.245495e-002
1.915048e+003;4.264056e-002
1.916977e+003;4.298282e-002
1.918905e+003;4.347003e-002
1.920834e+003;4.397002e-002
1.922762e+003;4.451446e-002
1.924691e+003;4.492309e-002
1.926619e+003;4.527573e-002
1.928548e+003;4.561773e-002
1.930477e+003;4.610793e-002
1.932405e+003;4.677564e-002
1.934334e+003;4.734704e-002
1.936262e+003;4.779319e-002
1.938191e+003;4.838400e-002
1.940119e+003;4.917925e-002
1.942048e+003;4.952723e-002
1.943976e+003;4.968784e-002
1.945905e+003;5.016224e-002
1.947833e+003;5.077238e-002
1.949762e+003;5.123798e-002
1.951691e+003;5.143977e-002
1.953619e+003;5.166486e-002
1.955548e+003;5.187570e-002
1.957476e+003;5.199878e-002
1.959405e+003;5.202137e-002
1.961333e+003;5.168016e-002
1.963262e+003;5.097786e-002
1.965190e+003;5.056156e-002
1.967119e+003;5.008761e-002
1.969047e+003;4.938457e-002
1.970976e+003;4.880519e-002
1.972905e+003;4.826919e-002
1.974833e+003;4.786728e-002
1.976762e+003;4.738151e-002
1.978690e+003;4.676741e-002
1.980619e+003;4.652105e-002
1.982547e+003;4.624226e-002
1.984476e+003;4.612754e-002
1.986404e+003;4.600095e-002
1.988333e+003;4.546803e-002
1.990261e+003;4.500071e-002
1.992190e+003;4.477614e-002
1.994119e+003;4.460122e-002
1.996047e+003;4.426549e-002
1.997976e+003;4.378615e-002
1.999904e+003;4.340718e-002
2.001833e+003;4.298300e-002
2.003761e+003;4.251987e-002
2.005690e+003;4.221131e-002
2.007618e+003;4.190136e-002
2.009547e+003;4.164342e-002
2.011476e+003;4.166005e-002
2.013404e+003;4.149400e-002
2.015333e+003;4.114515e-002
2.017261e+003;4.089340e-002
2.019190e+003;4.073397e-002
2.021118e+003;4.047501e-002
2.023047e+003;4.028360e-002
2.024975e+003;4.016299e-002
2.026904e+003;4.003464e-002
2.028833e+003;3.977083e-002
2.030761e+003;3.956401e-002
2.032690e+003;3.943795e-002
2.034618e+003;3.938875e-002
2.036547e+003;3.959781e-002
2.038475e+003;3.984836e-002
2.040404e+003;4.000819e-002
2.042332e+003;4.010735e-002
2.044261e+003;4.012912e-002
2.046189e+003;4.037122e-002
2.048118e+003;4.071032e-002
2.050047e+003;4.097263e-002
2.051975e+003;4.115625e-002
2.053904e+003;4.138337e-002
2.055832e+003;4.167766e-002
2.057761e+003;4.203213e-002
2.059689e+003;4.252050e-002
2.061618e+003;4.289342e-002
2.063546e+003;4.325360e-002
2.065475e+003;4.365233e-002
2.067404e+003;4.399301e-002
2.069332e+003;4.428842e-002
2.071260e+003;4.474183e-002
2.073189e+003;4.497233e-002
2.075118e+003;4.510730e-002
2.077046e+003;4.550917e-002
2.078975e+003;4.583823e-002
2.080903e+003;4.594393e-002
2.082832e+003;4.617783e-002
2.084760e+003;4.640040e-002
2.086689e+003;4.635033e-002
2.088617e+003;4.658320e-002
2.090546e+003;4.672225e-002
2.092475e+003;4.654322e-002
2.094403e+003;4.659711e-002
2.096332e+003;4.694911e-002
2.098260e+003;4.694579e-002
2.100189e+003;4.690577e-002
2.102117e+003;4.705822e-002
2.104046e+003;4.716557e-002
2.105974e+003;4.695373e-002
2.107903e+003;4.676597e-002
2.109832e+003;4.687769e-002
2.111760e+003;4.703661e-002
2.113688e+003;4.687658e-002
2.115617e+003;4.661563e-002
2.117546e+003;4.635844e-002
2.119474e+003;4.615362e-002
2.121403e+003;4.604091e-002
2.123331e+003;4.588913e-002
2.125260e+003;4.556234e-002
2.127188e+003;4.530265e-002
2.129117e+003;4.511881e-002
2.131045e+003;4.504474e-002
2.132974e+003;4.473349e-002
2.134903e+003;4.434185e-002
2.136831e+003;4.410398e-002
2.138760e+003;4.389105e-002
2.140688e+003;4.376105e-002
2.142617e+003;4.365889e-002
2.144545e+003;4.342439e-002
2.146474e+003;4.324050e-002
2.148402e+003;4.287697e-002
2.150331e+003;4.253340e-002
2.152260e+003;4.237234e-002
2.154188e+003;4.200997e-002
2.156117e+003;4.172887e-002
2.158045e+003;4.157075e-002
2.159974e+003;4.142962e-002
2.161902e+003;4.110438e-002
2.163831e+003;4.066280e-002
2.165759e+003;4.028833e-002
2.167688e+003;4.000169e-002
2.169616e+003;3.995660e-002
2.171545e+003;3.991799e-002
2.173474e+003;3.965178e-002
2.175402e+003;3.929370e-002
2.177331e+003;3.913319e-002
2.179259e+003;3.920909e-002
2.181188e+003;3.932798e-002
2.183116e+003;3.922671e-002
2.185045e+003;3.917682e-002
2.186973e+003;3.922719e-002
2.188902e+003;3.924830e-002
2.190831e+003;3.918548e-002
2.192759e+003;3.921696e-002
2.194688e+003;3.924431e-002
2.196616e+003;3.928181e-002
2.198545e+003;3.949745e-002
2.200473e+003;3.969153e-002
2.202402e+003;3.961555e-002
2.204330e+003;3.956173e-002
2.206259e+003;3.976469e-002
2.208188e+003;4.010746e-002
2.210116e+003;4.060076e-002
2.212044e+003;4.071152e-002
2.213973e+003;4.070588e-002
2.215902e+003;4.073507e-002
2.217830e+003;4.069827e-002
2.219759e+003;4.072615e-002
2.221687e+003;4.084091e-002
2.223616e+003;4.105139e-002
2.225544e+003;4.105594e-002
2.227473e+003;4.122555e-002
2.229401e+003;4.150158e-002
2.231330e+003;4.138923e-002
2.233259e+003;4.119134e-002
2.235187e+003;4.135060e-002
2.237116e+003;4.174824e-002
2.239044e+003;4.213956e-002
2.240973e+003;4.240913e-002
2.242901e+003;4.255562e-002
2.244830e+003;4.251143e-002
2.246758e+003;4.300572e-002
2.248687e+003;4.364332e-002
2.250615e+003;4.366970e-002
2.252544e+003;4.337914e-002
2.254473e+003;4.318772e-002
2.256401e+003;4.310253e-002
2.258330e+003;4.331357e-002
2.260258e+003;4.337489e-002
2.262187e+003;4.319127e-002
2.264115e+003;4.316309e-002
2.266044e+003;4.332513e-002
2.267972e+003;4.336043e-002
2.269901e+003;4.322278e-002
2.271830e+003;4.314984e-002
2.273758e+003;4.328450e-002
2.275687e+003;4.339246e-002
2.277615e+003;4.347987e-002
2.279544e+003;4.354272e-002
2.281472e+003;4.365101e-002
2.283401e+003;4.382112e-002
2.285329e+003;4.379784e-002
2.287258e+003;4.354917e-002
2.289187e+003;4.311212e-002
2.291115e+003;4.280467e-002
2.293043e+003;4.264066e-002
2.294972e+003;4.237486e-002
2.296901e+003;4.188312e-002
2.298829e+003;4.133093e-002
2.300758e+003;4.100467e-002
2.302686e+003;4.071967e-002
2.304615e+003;4.027694e-002
2.306543e+003;3.992442e-002
2.308472e+003;3.981128e-002
2.310400e+003;3.973205e-002
2.312329e+003;3.963439e-002
2.314258e+003;3.958880e-002
2.316186e+003;3.938668e-002
2.318115e+003;3.939502e-002
2.320043e+003;3.957251e-002
2.321972e+003;3.972149e-002
2.323900e+003;3.993615e-002
2.325829e+003;4.007399e-002
2.327757e+003;4.034686e-002
2.329686e+003;4.058890e-002
2.331615e+003;4.055664e-002
2.333543e+003;4.034963e-002
2.335472e+003;4.036773e-002
2.337400e+003;4.052401e-002
2.339329e+003;4.048418e-002
2.341257e+003;4.072106e-002
2.343186e+003;4.091590e-002
2.345114e+003;4.099815e-002
2.347043e+003;4.134579e-002
2.348971e+003;4.153534e-002
2.350900e+003;4.159164e-002
2.352829e+003;4.193395e-002
2.354757e+003;4.222216e-002
2.356686e+003;4.243288e-002
2.358614e+003;4.281330e-002
2.360543e+003;4.306294e-002
2.362471e+003;4.324277e-002
2.364400e+003;4.381698e-002
2.366328e+003;4.422341e-002
2.368257e+003;4.425650e-002
2.370186e+003;4.439289e-002
2.372114e+003;4.455316e-002
2.374042e+003;4.456446e-002
2.375971e+003;4.467539e-002
2.377900e+003;4.466026e-002
2.379828e+003;4.474352e-002
2.381757e+003;4.491968e-002
2.383685e+003;4.495749e-002
2.385614e+003;4.490571e-002
2.387542e+003;4.480119e-002
2.389471e+003;4.472560e-002
2.391399e+003;4.463173e-002
2.393328e+003;4.455437e-002
2.395257e+003;4.443716e-002
2.397185e+003;4.449666e-002
2.399114e+003;4.442993e-002
2.401042e+003;4.412147e-002
2.402971e+003;4.400133e-002
2.404899e+003;4.398762e-002
2.406828e+003;4.380583e-002
2.408756e+003;4.348940e-002
2.410685e+003;4.322443e-002
2.412614e+003;4.299050e-002
2.414542e+003;4.288779e-002
2.416471e+003;4.267879e-002
2.418399e+003;4.236730e-002
2.420328e+003;4.211244e-002
2.422256e+003;4.191687e-002
2.424185e+003;4.182127e-002
2.426113e+003;4.157880e-002
2.428042e+003;4.112358e-002
2.429970e+003;4.066836e-002
2.431899e+003;4.055132e-002
2.433828e+003;4.048301e-002
2.435756e+003;4.025990e-002
2.437685e+003;3.996776e-002
2.439613e+003;3.971495e-002
2.441542e+003;3.959621e-002
2.443470e+003;3.950750e-002
2.445399e+003;3.939832e-002
2.447327e+003;3.939325e-002
2.449256e+003;3.923386e-002
2.451185e+003;3.901171e-002
2.453113e+003;3.897684e-002
2.455042e+003;3.901624e-002
2.456970e+003;3.909313e-002
2.458899e+003;3.907707e-002
2.460827e+003;3.886457e-002
2.462756e+003;3.868756e-002
2.464684e+003;3.874225e-002
2.466613e+003;3.905510e-002
2.468542e+003;3.924420e-002
2.470470e+003;3.937220e-002
2.472398e+003;3.944720e-002
2.474327e+003;3.948860e-002
2.476256e+003;3.948896e-002
2.478184e+003;3.954928e-002
2.480113e+003;3.978942e-002
2.482041e+003;3.993986e-002
2.483970e+003;4.024434e-002
2.485898e+003;4.066695e-002
2.487827e+003;4.084513e-002
2.489755e+003;4.097980e-002
2.491684e+003;4.115330e-002
2.493613e+003;4.136802e-002
2.495541e+003;4.152193e-002
2.497470e+003;4.165071e-002
2.499398e+003;4.174076e-002
2.501327e+003;4.195045e-002
2.503255e+003;4.215289e-002
2.505184e+003;4.203414e-002
2.507112e+003;4.186867e-002
2.509041e+003;4.191377e-002
2.510969e+003;4.207327e-002
2.512898e+003;4.239547e-002
2.514827e+003;4.264041e-002
2.516755e+003;4.255679e-002
2.518684e+003;4.249064e-002
2.520612e+003;4.279739e-002
2.522541e+003;4.298630e-002
2.524469e+003;4.308592e-002
2.526398e+003;4.333154e-002
2.528326e+003;4.363647e-002
2.530255e+003;4.350569e-002
2.532184e+003;4.311116e-002
2.534112e+003;4.342103e-002
2.536041e+003;4.364940e-002
2.537969e+003;4.344798e-002
2.539898e+003;4.342392e-002
2.541826e+003;4.334051e-002
2.543755e+003;4.329270e-002
2.545683e+003;4.351145e-002
2.547612e+003;4.374320e-002
2.549541e+003;4.380301e-002
2.551469e+003;4.387921e-002
2.553397e+003;4.390777e-002
2.555326e+003;4.384490e-002
2.557255e+003;4.374507e-002
2.559183e+003;4.355947e-002
2.561112e+003;4.351950e-002
2.563040e+003;4.343600e-002
2.564969e+003;4.315610e-002
2.566897e+003;4.334293e-002
2.568826e+003;4.356433e-002
2.570754e+003;4.335611e-002
2.572683e+003;4.332048e-002
2.574612e+003;4.325770e-002
2.576540e+003;4.327136e-002
2.578469e+003;4.336171e-002
2.580397e+003;4.341158e-002
2.582326e+003;4.346113e-002
2.584254e+003;4.340667e-002
2.586183e+003;4.323314e-002
2.588111e+003;4.308526e-002
2.590040e+003;4.296581e-002
2.591969e+003;4.264337e-002
2.593897e+003;4.230035e-002
2.595826e+003;4.222442e-002
2.597754e+003;4.215793e-002
2.599683e+003;4.191417e-002
2.601611e+003;4.152021e-002
2.603540e+003;4.127266e-002
2.605468e+003;4.113877e-002
2.607397e+003;4.108013e-002
2.609325e+003;4.082700e-002
2.611254e+003;4.054939e-002
2.613183e+003;4.058778e-002
2.615111e+003;4.067015e-002
2.617040e+003;4.069151e-002
2.618968e+003;4.057366e-002
2.620897e+003;4.053754e-002
2.622825e+003;4.055227e-002
2.624754e+003;4.060393e-002
2.626682e+003;4.067393e-002
2.628611e+003;4.086446e-002
2.630540e+003;4.084320e-002
2.632468e+003;4.064300e-002
2.634396e+003;4.047072e-002
2.636325e+003;4.025015e-002
2.638254e+003;3.990044e-002
2.640182e+003;3.932980e-002
2.642111e+003;3.893168e-002
2.644039e+003;3.894832e-002
2.645968e+003;3.889341e-002
2.647896e+003;3.867270e-002
2.649825e+003;3.820623e-002
2.651753e+003;3.809213e-002
2.653682e+003;3.817273e-002
2.655611e+003;3.787664e-002
2.657539e+003;3.764874e-002
2.659468e+003;3.761984e-002
2.661396e+003;3.762266e-002
2.663325e+003;3.764051e-002
2.665253e+003;3.768221e-002
2.667182e+003;3.777639e-002
2.669110e+003;3.772554e-002
2.671039e+003;3.757778e-002
2.672968e+003;3.768980e-002
2.674896e+003;3.772474e-002
2.676825e+003;3.772232e-002
2.678753e+003;3.805219e-002
2.680682e+003;3.814986e-002
2.682610e+003;3.819975e-002
2.684539e+003;3.806829e-002
2.686467e+003;3.780900e-002
2.688396e+003;3.779458e-002
2.690324e+003;3.788451e-002
2.692253e+003;3.796439e-002
2.694182e+003;3.821375e-002
2.696110e+003;3.846167e-002
2.698039e+003;3.850634e-002
2.699967e+003;3.852398e-002
2.701896e+003;3.849925e-002
2.703824e+003;3.838927e-002
2.705753e+003;3.850786e-002
2.707681e+003;3.872342e-002
2.709610e+003;3.865163e-002
2.711539e+003;3.841902e-002
2.713467e+003;3.850605e-002
2.715396e+003;3.888450e-002
2.717324e+003;3.897162e-002
2.719253e+003;3.875815e-002
2.721181e+003;3.861976e-002
2.723110e+003;3.875855e-002
2.725038e+003;3.902436e-002
2.726967e+003;3.944861e-002
2.728896e+003;3.968471e-002
2.730824e+003;3.972464e-002
2.732752e+003;3.993201e-002
2.734681e+003;4.026262e-002
2.736610e+003;4.042900e-002
2.738538e+003;4.027615e-002
2.740467e+003;4.032930e-002
2.742395e+003;4.055263e-002
2.744324e+003;4.048516e-002
2.746252e+003;4.028734e-002
2.748181e+003;4.023013e-002
2.750109e+003;4.034740e-002
2.752038e+003;4.037031e-002
2.753967e+003;4.034537e-002
2.755895e+003;4.022976e-002
2.757824e+003;4.007254e-002
2.759752e+003;3.998262e-002
2.761681e+003;4.012218e-002
2.763609e+003;4.042900e-002
2.765538e+003;4.055125e-002
2.767466e+003;4.036490e-002
2.769395e+003;4.033682e-002
2.771323e+003;4.043769e-002
2.773252e+003;4.072236e-002
2.775181e+003;4.083836e-002
2.777109e+003;4.082213e-002
2.779038e+003;4.102659e-002
2.780966e+003;4.138136e-002
2.782895e+003;4.169758e-002
2.784823e+003;4.193866e-002
2.786752e+003;4.221226e-002
2.788680e+003;4.263785e-002
2.790609e+003;4.281878e-002
2.792538e+003;4.288834e-002
2.794466e+003;4.323933e-002
2.796395e+003;4.374023e-002
2.798323e+003;4.399147e-002
2.800252e+003;4.406397e-002
2.802180e+003;4.432064e-002
2.804109e+003;4.456542e-002
2.806037e+003;4.462266e-002
2.807966e+003;4.464616e-002
2.809895e+003;4.455290e-002
2.811823e+003;4.424872e-002
2.813751e+003;4.410622e-002
2.815680e+003;4.409771e-002
2.817609e+003;4.394516e-002
2.819537e+003;4.361013e-002
2.821466e+003;4.338811e-002
2.823394e+003;4.337031e-002
2.825323e+003;4.358628e-002
2.827251e+003;4.412547e-002
2.829180e+003;4.467852e-002
2.831108e+003;4.475057e-002
2.833037e+003;4.463423e-002
2.834966e+003;4.508179e-002
2.836894e+003;4.574177e-002
2.838823e+003;4.644199e-002
2.840751e+003;4.695199e-002
2.842680e+003;4.735613e-002
2.844608e+003;4.764337e-002
2.846537e+003;4.757327e-002
2.848465e+003;4.785962e-002
2.850394e+003;4.837941e-002
2.852323e+003;4.856086e-002
2.854251e+003;4.902009e-002
2.856180e+003;4.941450e-002
2.858108e+003;4.990693e-002
2.860037e+003;5.020141e-002
2.861965e+003;5.020037e-002
2.863894e+003;5.051637e-002
2.865822e+003;5.092052e-002
2.867751e+003;5.130260e-002
2.869679e+003;5.157023e-002
2.871608e+003;5.169879e-002
2.873536e+003;5.207400e-002
2.875465e+003;5.253420e-002
2.877394e+003;5.266675e-002
2.879322e+003;5.273229e-002
2.881251e+003;5.286725e-002
2.883179e+003;5.305819e-002
2.885108e+003;5.351834e-002
2.887036e+003;5.392076e-002
2.888965e+003;5.419706e-002
2.890893e+003;5.429407e-002
2.892822e+003;5.467425e-002
2.894750e+003;5.495445e-002
2.896679e+003;5.509586e-002
2.898608e+003;5.576029e-002
2.900536e+003;5.640906e-002
2.902465e+003;5.693661e-002
2.904393e+003;5.768767e-002
2.906322e+003;5.797710e-002
2.908250e+003;5.811401e-002
2.910179e+003;5.838667e-002
2.912107e+003;5.813094e-002
2.914036e+003;5.755207e-002
2.915965e+003;5.669605e-002
2.917893e+003;5.572853e-002
2.919822e+003;5.510963e-002
2.921750e+003;5.450829e-002
2.923679e+003;5.377643e-002
2.925607e+003;5.337823e-002
2.927536e+003;5.334863e-002
2.929464e+003;5.358022e-002
2.931393e+003;5.372179e-002
2.933322e+003;5.376387e-002
2.935250e+003;5.382844e-002
2.937178e+003;5.403909e-002
2.939107e+003;5.476670e-002
2.941036e+003;5.545234e-002
2.942964e+003;5.594127e-002
2.944893e+003;5.660398e-002
2.946821e+003;5.727310e-002
2.948750e+003;5.761752e-002
2.950678e+003;5.838310e-002
2.952607e+003;5.958572e-002
2.954535e+003;6.052116e-002
2.956464e+003;6.110736e-002
2.958393e+003;6.169194e-002
2.960321e+003;6.244990e-002
2.962250e+003;6.328806e-002
2.964178e+003;6.366315e-002
2.966107e+003;6.410431e-002
2.968035e+003;6.433591e-002
2.969964e+003;6.418704e-002
2.971892e+003;6.423929e-002
2.973821e+003;6.419583e-002
2.975750e+003;6.378441e-002
2.977678e+003;6.333188e-002
2.979607e+003;6.263676e-002
2.981535e+003;6.153202e-002
2.983464e+003;6.082647e-002
2.985392e+003;6.028869e-002
2.987321e+003;5.977910e-002
2.989249e+003;5.943957e-002
2.991178e+003;5.897075e-002
2.993106e+003;5.836165e-002
2.995035e+003;5.787355e-002
2.996964e+003;5.763054e-002
2.998892e+003;5.747135e-002
3.000821e+003;5.728191e-002
3.002749e+003;5.703503e-002
3.004678e+003;5.672384e-002
3.006606e+003;5.639114e-002
3.008535e+003;5.590445e-002
3.010463e+003;5.533268e-002
3.012392e+003;5.495757e-002
3.014321e+003;5.460785e-002
3.016249e+003;5.409002e-002
3.018177e+003;5.342155e-002
3.020106e+003;5.282635e-002
3.022035e+003;5.240569e-002
3.023963e+003;5.181215e-002
3.025892e+003;5.073905e-002
3.027820e+003;5.007236e-002
3.029749e+003;4.984761e-002
3.031677e+003;4.918923e-002
3.033606e+003;4.864261e-002
3.035534e+003;4.842767e-002
3.037463e+003;4.829026e-002
3.039392e+003;4.837589e-002
3.041320e+003;4.867715e-002
3.043249e+003;4.938212e-002
3.045177e+003;5.002682e-002
3.047106e+003;5.084457e-002
3.049034e+003;5.187793e-002
3.050963e+003;5.257070e-002
3.052891e+003;5.265758e-002
3.054820e+003;5.253850e-002
3.056749e+003;5.268107e-002
3.058677e+003;5.296864e-002
3.060606e+003;5.296591e-002
3.062534e+003;5.269435e-002
3.064463e+003;5.284753e-002
3.066391e+003;5.313038e-002
3.068320e+003;5.312881e-002
3.070248e+003;5.332739e-002
3.072177e+003;5.359451e-002
3.074105e+003;5.356099e-002
3.076034e+003;5.337932e-002
3.077963e+003;5.344920e-002
3.079891e+003;5.329877e-002
3.081820e+003;5.315790e-002
3.083748e+003;5.298826e-002
3.085677e+003;5.277744e-002
3.087605e+003;5.262100e-002
3.089534e+003;5.223533e-002
3.091462e+003;5.196711e-002
3.093391e+003;5.166266e-002
3.095320e+003;5.144417e-002
3.097248e+003;5.149886e-002
3.099177e+003;5.150087e-002
3.101105e+003;5.151203e-002
3.103034e+003;5.152437e-002
3.104962e+003;5.159694e-002
3.106891e+003;5.164258e-002
3.108819e+003;5.138244e-002
3.110748e+003;5.091668e-002
3.112677e+003;5.030612e-002
3.114605e+003;4.961213e-002
3.116533e+003;4.889414e-002
3.118462e+003;4.860181e-002
3.120391e+003;4.850391e-002
3.122319e+003;4.833445e-002
3.124248e+003;4.819877e-002
3.126176e+003;4.803383e-002
3.128105e+003;4.793018e-002
3.130033e+003;4.790886e-002
3.131962e+003;4.773283e-002
3.133890e+003;4.717289e-002
3.135819e+003;4.680074e-002
3.137748e+003;4.631730e-002
3.139676e+003;4.575024e-002
3.141605e+003;4.511763e-002
3.143533e+003;4.459637e-002
3.145462e+003;4.477037e-002
3.147390e+003;4.487357e-002
3.149319e+003;4.452302e-002
3.151247e+003;4.433451e-002
3.153176e+003;4.412951e-002
3.155104e+003;4.392375e-002
3.157033e+003;4.377376e-002
3.158962e+003;4.363954e-002
3.160890e+003;4.352628e-002
3.162819e+003;4.315376e-002
3.164747e+003;4.272262e-002
3.166676e+003;4.243284e-002
3.168604e+003;4.230893e-002
3.170533e+003;4.238243e-002
3.172461e+003;4.252470e-002
3.174390e+003;4.236694e-002
3.176319e+003;4.204764e-002
3.178247e+003;4.180369e-002
3.180176e+003;4.187965e-002
3.182104e+003;4.212650e-002
3.184033e+003;4.200567e-002
3.185961e+003;4.202107e-002
3.187890e+003;4.201282e-002
3.189818e+003;4.205031e-002
3.191747e+003;4.245220e-002
3.193676e+003;4.228943e-002
3.195604e+003;4.167511e-002
3.197532e+003;4.161713e-002
3.199461e+003;4.178903e-002
3.201390e+003;4.148226e-002
3.203318e+003;4.118879e-002
3.205247e+003;4.110923e-002
3.207175e+003;4.109116e-002
3.209104e+003;4.095129e-002
3.211032e+003;4.071356e-002
3.212961e+003;4.076265e-002
3.214889e+003;4.117819e-002
3.216818e+003;4.164904e-002
3.218747e+003;4.140451e-002
3.220675e+003;4.090374e-002
3.222604e+003;4.115779e-002
3.224532e+003;4.141690e-002
3.226461e+003;4.127393e-002
3.228389e+003;4.111874e-002
3.230318e+003;4.091193e-002
3.232246e+003;4.085569e-002
3.234175e+003;4.093043e-002
3.236104e+003;4.087585e-002
3.238032e+003;4.066258e-002
3.239961e+003;4.029996e-002
3.241889e+003;4.020574e-002
3.243818e+003;4.026248e-002
3.245746e+003;4.025724e-002
3.247675e+003;4.008864e-002
3.249603e+003;3.998534e-002
3.251532e+003;4.005241e-002
3.253460e+003;4.013137e-002
3.255389e+003;4.005902e-002
3.257318e+003;4.020017e-002
3.259246e+003;4.010931e-002
3.261175e+003;3.982672e-002
3.263103e+003;3.953646e-002
3.265032e+003;3.932744e-002
3.266960e+003;3.927717e-002
3.268889e+003;3.949437e-002
3.270817e+003;3.967429e-002
3.272746e+003;3.954220e-002
3.274675e+003;3.956020e-002
3.276603e+003;3.967915e-002
3.278531e+003;3.954558e-002
3.280460e+003;3.936774e-002
3.282389e+003;3.962800e-002
3.284317e+003;3.988726e-002
3.286246e+003;3.978906e-002
3.288174e+003;3.972962e-002
3.290103e+003;4.007490e-002
3.292031e+003;4.014896e-002
3.293960e+003;3.971303e-002
3.295888e+003;3.990862e-002
3.297817e+003;4.034715e-002
3.299746e+003;4.031523e-002
3.301674e+003;3.996340e-002
3.303603e+003;3.970329e-002
3.305531e+003;3.960916e-002
3.307460e+003;3.941832e-002
3.309388e+003;3.953367e-002
3.311317e+003;3.962960e-002
3.313245e+003;3.945017e-002
3.315174e+003;3.930118e-002
3.317103e+003;3.911369e-002
3.319031e+003;3.916296e-002
3.320960e+003;3.931804e-002
3.322888e+003;3.945438e-002
3.324817e+003;3.947898e-002
3.326745e+003;3.973732e-002
3.328674e+003;3.997528e-002
3.330602e+003;4.001538e-002
3.332531e+003;4.019668e-002
3.334459e+003;4.022522e-002
3.336388e+003;4.020788e-002
3.338317e+003;4.029062e-002
3.340245e+003;4.003293e-002
3.342174e+003;3.966057e-002
3.344102e+003;3.948243e-002
3.346031e+003;3.944226e-002
3.347959e+003;3.930110e-002
3.349888e+003;3.894183e-002
3.351816e+003;3.874388e-002
3.353745e+003;3.867944e-002
3.355674e+003;3.837656e-002
3.357602e+003;3.808630e-002
3.359531e+003;3.800782e-002
3.361459e+003;3.782038e-002
3.363388e+003;3.764166e-002
3.365316e+003;3.778948e-002
3.367245e+003;3.787443e-002
3.369173e+003;3.786818e-002
3.371102e+003;3.829958e-002
3.373031e+003;3.838858e-002
3.374959e+003;3.790147e-002
3.376887e+003;3.761406e-002
3.378816e+003;3.797419e-002
3.380745e+003;3.832539e-002
3.382673e+003;3.799650e-002
3.384602e+003;3.771506e-002
3.386530e+003;3.776840e-002
3.388459e+003;3.817540e-002
3.390387e+003;3.823756e-002
3.392316e+003;3.830798e-002
3.394244e+003;3.865825e-002
3.396173e+003;3.891755e-002
3.398102e+003;3.922980e-002
3.400030e+003;3.938940e-002
3.401959e+003;3.944938e-002
3.403887e+003;3.977072e-002
3.405816e+003;4.040606e-002
3.407744e+003;4.092653e-002
3.409673e+003;4.134514e-002
3.411601e+003;4.198242e-002
3.413530e+003;4.279666e-002
3.415458e+003;4.365340e-002
3.417387e+003;4.489256e-002
3.419316e+003;4.591262e-002
3.421244e+003;4.631775e-002
3.423173e+003;4.676712e-002
3.425101e+003;4.729199e-002
3.427030e+003;4.759109e-002
3.428958e+003;4.782948e-002
3.430887e+003;4.767066e-002
3.432815e+003;4.732572e-002
3.434744e+003;4.726014e-002
3.436673e+003;4.726128e-002
3.438601e+003;4.672619e-002
3.440530e+003;4.586239e-002
3.442458e+003;4.542230e-002
3.444387e+003;4.507532e-002
3.446315e+003;4.473963e-002
3.448244e+003;4.435906e-002
3.450172e+003;4.358503e-002
3.452101e+003;4.292773e-002
3.454030e+003;4.230167e-002
3.455958e+003;4.157308e-002
3.457886e+003;4.124457e-002
3.459815e+003;4.059880e-002
3.461744e+003;3.980903e-002
3.463672e+003;3.949676e-002
3.465601e+003;3.941788e-002
3.467529e+003;3.889834e-002
3.469458e+003;3.770306e-002
3.471386e+003;3.768333e-002
3.473315e+003;3.791879e-002
3.475243e+003;3.735084e-002
3.477172e+003;3.729759e-002
3.479101e+003;3.733720e-002
3.481029e+003;3.743896e-002
3.482958e+003;3.752273e-002
3.484886e+003;3.735280e-002
3.486815e+003;3.736327e-002
3.488743e+003;3.706773e-002
3.490672e+003;3.642947e-002
3.492600e+003;3.627618e-002
3.494529e+003;3.657662e-002
3.496458e+003;3.697240e-002
3.498386e+003;3.704536e-002
3.500315e+003;3.707870e-002
3.502243e+003;3.742567e-002
3.504172e+003;3.740584e-002
3.506100e+003;3.711667e-002
3.508029e+003;3.739794e-002
3.509957e+003;3.758569e-002
3.511886e+003;3.724286e-002
3.513814e+003;3.721679e-002
3.515743e+003;3.746060e-002
3.517672e+003;3.759599e-002
3.519600e+003;3.765456e-002
3.521529e+003;3.767671e-002
3.523457e+003;3.783354e-002
3.525386e+003;3.818933e-002
3.527314e+003;3.834327e-002
3.529243e+003;3.811441e-002
3.531171e+003;3.776533e-002
3.533100e+003;3.775369e-002
3.535029e+003;3.829828e-002
3.536957e+003;3.877413e-002
3.538885e+003;3.881435e-002
3.540814e+003;3.871425e-002
3.542743e+003;3.902045e-002
3.544671e+003;3.902715e-002
3.546600e+003;3.876906e-002
3.548528e+003;3.897822e-002
3.550457e+003;3.922951e-002
3.552385e+003;3.869328e-002
3.554314e+003;3.795698e-002
3.556242e+003;3.776584e-002
3.558171e+003;3.758631e-002
3.560100e+003;3.756282e-002
3.562028e+003;3.782663e-002
3.563957e+003;3.789088e-002
3.565885e+003;3.754671e-002
3.567814e+003;3.700321e-002
3.569742e+003;3.669184e-002
3.571671e+003;3.655178e-002
3.573599e+003;3.624181e-002
3.575528e+003;3.631692e-002
3.577457e+003;3.638047e-002
3.579385e+003;3.588132e-002
3.581314e+003;3.536142e-002
3.583242e+003;3.477499e-002
3.585171e+003;3.441592e-002
3.587099e+003;3.451005e-002
3.589028e+003;3.412346e-002
3.590956e+003;3.390129e-002
3.592885e+003;3.379652e-002
3.594813e+003;3.391422e-002
3.596742e+003;3.400870e-002
3.598671e+003;3.374867e-002
3.600599e+003;3.331814e-002
3.602528e+003;3.347015e-002
3.604456e+003;3.387693e-002
3.606385e+003;3.371322e-002
3.608313e+003;3.330759e-002
3.610242e+003;3.342817e-002
3.612170e+003;3.334133e-002
3.614099e+003;3.370176e-002
3.616028e+003;3.403253e-002
3.617956e+003;3.371891e-002
3.619885e+003;3.361934e-002
3.621813e+003;3.360570e-002
3.623742e+003;3.388642e-002
3.625670e+003;3.447098e-002
3.627599e+003;3.480065e-002
3.629527e+003;3.453753e-002
3.631456e+003;3.426488e-002
3.633385e+003;3.433710e-002
3.635313e+003;3.412808e-002
3.637241e+003;3.381213e-002
3.639170e+003;3.387979e-002
3.641099e+003;3.372568e-002
3.643027e+003;3.352222e-002
3.644956e+003;3.348002e-002
3.646884e+003;3.325021e-002
3.648813e+003;3.287810e-002
3.650741e+003;3.262225e-002
3.652670e+003;3.264907e-002
3.654598e+003;3.251771e-002
3.656527e+003;3.201420e-002
3.658456e+003;3.190225e-002
3.660384e+003;3.186271e-002
3.662313e+003;3.145884e-002
3.664241e+003;3.096353e-002
3.666170e+003;3.079768e-002
3.668098e+003;3.097246e-002
3.670027e+003;3.090472e-002
3.671955e+003;3.062613e-002
3.673884e+003;3.025598e-002
3.675813e+003;2.966096e-002
3.677741e+003;2.977166e-002
3.679669e+003;3.049022e-002
3.681598e+003;3.098186e-002
3.683527e+003;3.106182e-002
3.685455e+003;3.104940e-002
3.687384e+003;3.076375e-002
3.689312e+003;3.054496e-002
3.691241e+003;3.037149e-002
3.693169e+003;3.012047e-002
3.695098e+003;2.992707e-002
3.697026e+003;2.936643e-002
3.698955e+003;2.904500e-002
3.700884e+003;2.892343e-002
3.702812e+003;2.851861e-002
3.704741e+003;2.819823e-002
3.706669e+003;2.802851e-002
3.708598e+003;2.814498e-002
3.710526e+003;2.807082e-002
3.712455e+003;2.781326e-002
3.714383e+003;2.769465e-002
3.716312e+003;2.733758e-002
3.718240e+003;2.723857e-002
3.720169e+003;2.744557e-002
3.722098e+003;2.768667e-002
3.724026e+003;2.803406e-002
3.725955e+003;2.793578e-002
3.727883e+003;2.791320e-002
3.729812e+003;2.796621e-002
3.731740e+003;2.798172e-002
3.733669e+003;2.812699e-002
3.735597e+003;2.829129e-002
3.737526e+003;2.819027e-002
3.739455e+003;2.791228e-002
3.741383e+003;2.753830e-002
3.743312e+003;2.703831e-002
3.745240e+003;2.694942e-002
3.747169e+003;2.768324e-002
3.749097e+003;2.820919e-002
3.751026e+003;2.842786e-002
3.752954e+003;2.857037e-002
3.754883e+003;2.899824e-002
3.756812e+003;2.942986e-002
3.758740e+003;2.924591e-002
3.760668e+003;2.876264e-002
3.762597e+003;2.871460e-002
3.764526e+003;2.899165e-002
3.766454e+003;2.873364e-002
3.768383e+003;2.847834e-002
3.770311e+003;2.843316e-002
3.772240e+003;2.851450e-002
3.774168e+003;2.840900e-002
3.776097e+003;2.824253e-002
3.778025e+003;2.815743e-002
3.779954e+003;2.797115e-002
3.781883e+003;2.791893e-002
3.783811e+003;2.792553e-002
3.785740e+003;2.775748e-002
3.787668e+003;2.804922e-002
3.789597e+003;2.856988e-002
3.791525e+003;2.828638e-002
3.793454e+003;2.807736e-002
3.795382e+003;2.853966e-002
3.797311e+003;2.873258e-002
3.799240e+003;2.882258e-002
3.801168e+003;2.890410e-002
3.803097e+003;2.896816e-002
3.805025e+003;2.870352e-002
3.806954e+003;2.858092e-002
3.808882e+003;2.897174e-002
3.810811e+003;2.915646e-002
3.812739e+003;2.873535e-002
3.814668e+003;2.827796e-002
3.816596e+003;2.826216e-002
3.818525e+003;2.831181e-002
3.820454e+003;2.842910e-002
3.822382e+003;2.840685e-002
3.824311e+003;2.843554e-002
3.826239e+003;2.872370e-002
3.828168e+003;2.903936e-002
3.830096e+003;2.860222e-002
3.832025e+003;2.847024e-002
3.833953e+003;2.873134e-002
3.835882e+003;2.878275e-002
3.837811e+003;2.841862e-002
3.839739e+003;2.797359e-002
3.841667e+003;2.792299e-002
3.843596e+003;2.820275e-002
3.845525e+003;2.837717e-002
3.847453e+003;2.821035e-002
3.849382e+003;2.800391e-002
3.851310e+003;2.805322e-002
3.853239e+003;2.820607e-002
3.855167e+003;2.835152e-002
3.857096e+003;2.814056e-002
3.859024e+003;2.792048e-002
3.860953e+003;2.813141e-002
3.862882e+003;2.832677e-002
3.864810e+003;2.811720e-002
3.866739e+003;2.833335e-002
3.868667e+003;2.882049e-002
3.870596e+003;2.848913e-002
3.872524e+003;2.848397e-002
3.874453e+003;2.847187e-002
3.876381e+003;2.843996e-002
3.878310e+003;2.824854e-002
3.880239e+003;2.812890e-002
3.882167e+003;2.823765e-002
3.884096e+003;2.843058e-002
3.886024e+003;2.843041e-002
3.887953e+003;2.840210e-002
3.889881e+003;2.863846e-002
3.891810e+003;2.933849e-002
3.893738e+003;2.946670e-002
3.895667e+003;2.936788e-002
3.897595e+003;2.949266e-002
3.899524e+003;2.947978e-002
3.901453e+003;2.967980e-002
3.903381e+003;2.943372e-002
3.905310e+003;2.899321e-002
3.907238e+003;2.913906e-002
3.909167e+003;2.956369e-002
3.911095e+003;2.964049e-002
3.913024e+003;2.958352e-002
3.914952e+003;2.970296e-002
3.916881e+003;2.984281e-002
3.918810e+003;2.986797e-002
3.920738e+003;2.962126e-002
3.922667e+003;2.974558e-002
3.924595e+003;3.005730e-002
3.926524e+003;2.997375e-002
3.928452e+003;3.007832e-002
3.930381e+003;3.039142e-002
3.932309e+003;3.050696e-002
3.934238e+003;3.084097e-002
3.936167e+003;3.111105e-002
3.938095e+003;3.038417e-002
3.940023e+003;2.968664e-002
3.941952e+003;2.979210e-002
3.943881e+003;2.977907e-002
3.945809e+003;2.996130e-002
3.947738e+003;3.051933e-002
3.949666e+003;3.086608e-002
3.951595e+003;3.100922e-002
3.953523e+003;3.109969e-002
3.955452e+003;3.112831e-002
3.957380e+003;3.082848e-002
3.959309e+003;3.078199e-002
3.961238e+003;3.086306e-002
3.963166e+003;3.077658e-002
3.965095e+003;3.056330e-002
3.967023e+003;3.038975e-002
3.968952e+003;3.063388e-002
3.970880e+003;3.072573e-002
3.972809e+003;3.119723e-002
3.974737e+003;3.190414e-002
3.976666e+003;3.165485e-002
3.978594e+003;3.134714e-002
3.980523e+003;3.135790e-002
3.982452e+003;3.167698e-002
3.984380e+003;3.156547e-002
3.986309e+003;3.081482e-002
3.988237e+003;3.063615e-002
3.990166e+003;3.110446e-002
3.992094e+003;3.137061e-002
3.994023e+003;3.142439e-002
3.995951e+003;3.160977e-002
3.997880e+003;3.161279e-002
3.999809e+003;3.142457e-002
4.001737e+003;0.000000e+000
