3.992094e+002;0.000000e+000
4.011380e+002;0.000000e+000
4.030665e+002;0.000000e+000
4.049951e+002;0.000000e+000
4.069236e+002;0.000000e+000
4.088522e+002;0.000000e+000
4.107807e+002;0.000000e+000
4.127093e+002;0.000000e+000
4.146378e+002;0.000000e+000
4.165664e+002;0.000000e+000
4.184949e+002;0.000000e+000
4.204235e+002;0.000000e+000
4.223520e+002;0.000000e+000
4.242806e+002;0.000000e+000
4.262091e+002;0.000000e+000
4.281377e+002;0.000000e+000
4.300662e+002;0.000000e+000
4.319948e+002;0.000000e+000
4.339233e+002;0.000000e+000
4.358519e+002;0.000000e+000
4.377804e+002;0.000000e+000
4.397090e+002;0.000000e+000
4.416375e+002;0.000000e+000
4.435660e+002;0.000000e+000
4.454946e+002;0.000000e+000
4.474232e+002;0.000000e+000
4.493517e+002;0.000000e+000
4.512802e+002;0.000000e+000
4.532088e+002;0.000000e+000
4.551373e+002;0.000000e+000
4.570659e+002;0.000000e+000
4.589944e+002;0.000000e+000
4.609230e+002;0.000000e+000
4.628515e+002;0.000000e+000
4.647801e+002;0.000000e+000
4.667086e+002;0.000000e+000
4.686372e+002;0.000000e+000
4.705657e+002;0.000000e+000
4.724943e+002;0.000000e+000
4.744228e+002;0.000000e+000
4.763513e+002;0.000000e+000
4.782799e+002;0.000000e+000
4.802085e+002;0.000000e+000
4.821370e+002;0.000000e+000
4.840656e+002;0.000000e+000
4.859941e+002;0.000000e+000
4.879226e+002;0.000000e+000
4.898512e+002;0.000000e+000
4.917798e+002;0.000000e+000
4.937083e+002;0.000000e+000
4.956368e+002;0.000000e+000
4.975654e+002;0.000000e+000
4.994939e+002;0.000000e+000
5.014225e+002;0.000000e+000
5.033510e+002;0.000000e+000
5.052796e+002;0.000000e+000
5.072081e+002;0.000000e+000
5.091367e+002;0.000000e+000
5.110652e+002;0.000000e+000
5.129938e+002;0.000000e+000
5.149223e+002;0.000000e+000
5.168509e+002;0.000000e+000
5.187794e+002;0.000000e+000
5.207079e+002;0.000000e+000
5.226365e+002;0.000000e+000
5.245651e+002;0.000000e+000
5.264936e+002;0.000000e+000
5.284222e+002;0.000000e+000
5.303507e+002;0.000000e+000
5.322792e+002;0.000000e+000
5.342078e+002;0.000000e+000
5.361364e+002;0.000000e+000
5.380649e+002;0.000000e+000
5.399935e+002;0.000000e+000
5.419220e+002;0.000000e+000
5.438505e+002;0.000000e+000
5.457791e+002;0.000000e+000
5.477076e+002;0.000000e+000
5.496362e+002;0.000000e+000
5.515648e+002;0.000000e+000
5.534933e+002;0.000000e+000
5.554218e+002;0.000000e+000
5.573504e+002;0.000000e+000
5.592789e+002;0.000000e+000
5.612075e+002;0.000000e+000
5.631360e+002;0.000000e+000
5.650646e+002;0.000000e+000
5.669931e+002;0.000000e+000
5.689217e+002;0.000000e+000
5.708502e+002;0.000000e+000
5.727787e+002;0.000000e+000
5.747073e+002;0.000000e+000
5.766359e+002;0.000000e+000
5.785644e+002;0.000000e+000
5.804930e+002;0.000000e+000
5.824215e+002;0.000000e+000
5.843500e+002;0.000000e+000
5.862786e+002;0.000000e+000
5.882072e+002;0.000000e+000
5.901357e+002;0.000000e+000
5.920643e+002;0.000000e+000
5.939928e+002;0.000000e+000
5.959213e+002;0.000000e+000
5.978499e+002;0.000000e+000
5.997784e+002;6.875149e-002
6.017070e+002;7.328518e-002
6.036355e+002;7.101192e-002
6.055641e+002;6.518900e-002
6.074926e+002;6.449744e-002
6.094211e+002;6.652718e-002
6.113497e+002;7.080056e-002
6.132783e+002;6.913292e-002
6.152068e+002;6.570603e-002
6.171354e+002;6.777571e-002
6.190639e+002;7.121783e-002
6.209924e+002;7.084654e-002
6.229210e+002;6.975001e-002
6.248495e+002;7.225112e-002
6.267781e+002;7.495363e-002
6.287067e+002;7.652468e-002
6.306352e+002;7.991795e-002
6.325637e+002;8.300869e-002
6.344923e+002;7.904611e-002
6.364208e+002;7.099931e-002
6.383494e+002;6.911066e-002
6.402780e+002;7.273310e-002
6.422065e+002;7.653456e-002
6.441350e+002;7.553879e-002
6.460636e+002;7.619621e-002
6.479921e+002;7.936803e-002
6.499207e+002;7.805452e-002
6.518492e+002;7.727693e-002
6.537778e+002;7.828603e-002
6.557063e+002;7.783931e-002
6.576349e+002;7.833150e-002
6.595634e+002;8.168710e-002
6.614919e+002;8.544800e-002
6.634205e+002;8.763377e-002
6.653491e+002;8.901745e-002
6.672776e+002;8.812290e-002
6.692062e+002;9.080625e-002
6.711347e+002;9.594527e-002
6.730632e+002;1.001250e-001
6.749918e+002;1.048120e-001
6.769203e+002;1.092924e-001
6.788489e+002;1.150692e-001
6.807775e+002;1.192419e-001
6.827060e+002;1.192622e-001
6.846345e+002;1.182523e-001
6.865631e+002;1.185825e-001
6.884916e+002;1.189623e-001
6.904202e+002;1.210575e-001
6.923488e+002;1.251581e-001
6.942773e+002;1.319866e-001
6.962058e+002;1.441186e-001
6.981344e+002;1.606212e-001
7.000629e+002;1.783513e-001
7.019915e+002;1.956201e-001
7.039200e+002;2.120478e-001
7.058486e+002;2.268292e-001
7.077771e+002;2.428632e-001
7.097057e+002;2.615614e-001
7.116342e+002;2.841437e-001
7.135627e+002;3.136784e-001
7.154913e+002;3.526142e-001
7.174199e+002;4.020308e-001
7.193484e+002;4.580942e-001
7.212770e+002;5.104383e-001
7.232055e+002;5.445023e-001
7.251340e+002;5.374077e-001
7.270626e+002;4.862700e-001
7.289911e+002;4.173406e-001
7.309197e+002;3.515729e-001
7.328483e+002;2.956711e-001
7.347768e+002;2.456458e-001
7.367053e+002;1.992086e-001
7.386339e+002;1.590718e-001
7.405624e+002;1.291088e-001
7.424910e+002;1.080389e-001
7.444196e+002;9.314799e-002
7.463481e+002;8.357770e-002
7.482766e+002;7.831345e-002
7.502052e+002;7.566944e-002
7.521337e+002;7.446183e-002
7.540623e+002;7.294744e-002
7.559908e+002;7.176479e-002
7.579194e+002;7.186557e-002
7.598479e+002;7.186116e-002
7.617765e+002;7.213374e-002
7.637050e+002;7.346059e-002
7.656335e+002;7.561726e-002
7.675621e+002;7.760880e-002
7.694907e+002;7.994536e-002
7.714192e+002;8.204184e-002
7.733478e+002;8.372296e-002
7.752763e+002;8.658908e-002
7.772048e+002;8.924600e-002
7.791334e+002;9.162597e-002
7.810620e+002;9.537663e-002
7.829905e+002;9.984790e-002
7.849191e+002;1.042775e-001
7.868476e+002;1.093236e-001
7.887761e+002;1.146404e-001
7.907047e+002;1.197721e-001
7.926332e+002;1.212480e-001
7.945618e+002;1.152695e-001
7.964903e+002;1.052026e-001
7.984189e+002;9.726610e-002
8.003474e+002;9.410119e-002
8.022759e+002;9.387994e-002
8.042045e+002;9.460628e-002
8.061331e+002;9.526438e-002
8.080616e+002;9.593370e-002
8.099902e+002;9.634764e-002
8.119187e+002;9.736776e-002
8.138472e+002;9.793597e-002
8.157758e+002;9.797077e-002
8.177043e+002;9.854203e-002
8.196329e+002;9.977268e-002
8.215615e+002;1.011672e-001
8.234900e+002;1.018003e-001
8.254185e+002;1.022389e-001
8.273471e+002;1.040525e-001
8.292756e+002;1.069897e-001
8.312042e+002;1.113054e-001
8.331328e+002;1.162484e-001
8.350613e+002;1.201890e-001
8.369898e+002;1.241203e-001
8.389184e+002;1.293446e-001
8.408469e+002;1.352688e-001
8.427755e+002;1.415684e-001
8.447040e+002;1.473362e-001
8.466326e+002;1.518310e-001
8.485611e+002;1.527716e-001
8.504897e+002;1.501500e-001
8.524182e+002;1.467755e-001
8.543467e+002;1.440714e-001
8.562753e+002;1.429000e-001
8.582039e+002;1.432434e-001
8.601324e+002;1.442470e-001
8.620610e+002;1.466012e-001
8.639895e+002;1.520536e-001
8.659180e+002;1.621398e-001
8.678466e+002;1.796712e-001
8.697751e+002;2.055306e-001
8.717037e+002;2.279464e-001
8.736323e+002;2.275364e-001
8.755608e+002;2.083823e-001
8.774893e+002;1.869456e-001
8.794179e+002;1.682561e-001
8.813464e+002;1.515318e-001
8.832750e+002;1.369707e-001
8.852036e+002;1.256202e-001
8.871321e+002;1.170055e-001
8.890606e+002;1.112366e-001
8.909892e+002;1.083111e-001
8.929177e+002;1.065341e-001
8.948463e+002;1.056819e-001
8.967748e+002;1.057947e-001
8.987034e+002;1.055689e-001
9.006319e+002;1.046357e-001
9.025605e+002;1.031851e-001
9.044890e+002;1.014159e-001
9.064175e+002;9.969189e-002
9.083461e+002;9.711810e-002
9.102747e+002;9.454732e-002
9.122032e+002;9.274489e-002
9.141318e+002;9.147604e-002
9.160603e+002;9.028088e-002
9.179888e+002;8.930151e-002
9.199174e+002;8.911694e-002
9.218459e+002;8.928499e-002
9.237745e+002;8.920734e-002
9.257031e+002;8.944455e-002
9.276316e+002;9.033790e-002
9.295601e+002;9.132963e-002
9.314887e+002;9.245102e-002
9.334172e+002;9.369612e-002
9.353458e+002;9.482938e-002
9.372744e+002;9.613557e-002
9.392029e+002;9.784814e-002
9.411314e+002;9.964146e-002
9.430600e+002;1.018804e-001
9.449885e+002;1.042701e-001
9.469171e+002;1.062692e-001
9.488456e+002;1.085845e-001
9.507742e+002;1.114536e-001
9.527027e+002;1.143207e-001
9.546313e+002;1.174678e-001
9.565598e+002;1.210227e-001
9.584883e+002;1.246711e-001
9.604169e+002;1.285384e-001
9.623455e+002;1.326675e-001
9.642740e+002;1.365618e-001
9.662026e+002;1.403142e-001
9.681311e+002;1.434155e-001
9.700596e+002;1.445747e-001
9.719882e+002;1.439647e-001
9.739167e+002;1.419190e-001
9.758453e+002;1.386066e-001
9.777739e+002;1.349611e-001
9.797024e+002;1.317361e-001
9.816309e+002;1.287959e-001
9.835595e+002;1.260705e-001
9.854880e+002;1.246923e-001
9.874166e+002;1.238980e-001
9.893452e+002;1.226510e-001
9.912737e+002;1.215868e-001
9.932022e+002;1.213066e-001
9.951307e+002;1.216696e-001
9.970593e+002;1.225204e-001
9.989879e+002;1.238809e-001
1.000916e+003;1.262914e-001
1.002845e+003;1.298758e-001
1.004773e+003;1.346724e-001
1.006702e+003;1.418311e-001
1.008631e+003;1.524785e-001
1.010559e+003;1.684474e-001
1.012488e+003;1.946792e-001
1.014416e+003;2.319910e-001
1.016345e+003;2.684447e-001
1.018273e+003;2.836246e-001
1.020202e+003;2.704360e-001
1.022130e+003;2.417233e-001
1.024059e+003;2.107245e-001
1.025988e+003;1.828653e-001
1.027916e+003;1.605673e-001
1.029845e+003;1.468159e-001
1.031773e+003;1.416240e-001
1.033702e+003;1.411777e-001
1.035630e+003;1.424843e-001
1.037559e+003;1.446364e-001
1.039487e+003;1.466800e-001
1.041416e+003;1.485289e-001
1.043344e+003;1.501852e-001
1.045273e+003;1.518336e-001
1.047202e+003;1.531507e-001
1.049130e+003;1.537190e-001
1.051059e+003;1.540598e-001
1.052987e+003;1.546284e-001
1.054916e+003;1.552816e-001
1.056844e+003;1.572927e-001
1.058773e+003;1.602411e-001
1.060701e+003;1.641529e-001
1.062630e+003;1.698990e-001
1.064558e+003;1.767195e-001
1.066487e+003;1.841894e-001
1.068416e+003;1.940876e-001
1.070344e+003;2.066000e-001
1.072273e+003;2.219679e-001
1.074201e+003;2.408664e-001
1.076130e+003;2.641544e-001
1.078058e+003;2.912613e-001
1.079987e+003;3.197294e-001
1.081915e+003;3.491855e-001
1.083844e+003;3.775845e-001
1.085773e+003;4.019249e-001
1.087701e+003;4.224271e-001
1.089630e+003;4.398077e-001
1.091558e+003;4.551183e-001
1.093487e+003;4.690186e-001
1.095415e+003;4.796650e-001
1.097344e+003;4.856739e-001
1.099272e+003;4.844117e-001
1.101201e+003;4.737088e-001
1.103129e+003;4.542332e-001
1.105058e+003;4.304359e-001
1.106987e+003;4.046469e-001
1.108915e+003;3.806624e-001
1.110844e+003;3.639920e-001
1.112772e+003;3.561899e-001
1.114701e+003;3.543171e-001
1.116629e+003;3.519429e-001
1.118558e+003;3.471279e-001
1.120486e+003;3.391321e-001
1.122415e+003;3.273112e-001
1.124344e+003;3.131250e-001
1.126272e+003;2.972329e-001
1.128201e+003;2.795984e-001
1.130129e+003;2.609863e-001
1.132058e+003;2.422098e-001
1.133986e+003;2.230877e-001
1.135915e+003;2.045950e-001
1.137843e+003;1.877006e-001
1.139772e+003;1.733043e-001
1.141700e+003;1.615839e-001
1.143629e+003;1.515356e-001
1.145557e+003;1.422689e-001
1.147486e+003;1.342400e-001
1.149415e+003;1.276059e-001
1.151343e+003;1.222015e-001
1.153272e+003;1.175301e-001
1.155200e+003;1.134913e-001
1.157129e+003;1.107717e-001
1.159057e+003;1.088332e-001
1.160986e+003;1.078630e-001
1.162914e+003;1.075064e-001
1.164843e+003;1.076998e-001
1.166771e+003;1.102267e-001
1.168700e+003;1.147235e-001
1.170629e+003;1.199615e-001
1.172557e+003;1.242998e-001
1.174486e+003;1.265358e-001
1.176414e+003;1.265376e-001
1.178343e+003;1.247997e-001
1.180271e+003;1.219781e-001
1.182200e+003;1.191598e-001
1.184128e+003;1.173725e-001
1.186057e+003;1.162205e-001
1.187986e+003;1.162529e-001
1.189914e+003;1.178464e-001
1.191843e+003;1.200660e-001
1.193771e+003;1.230805e-001
1.195700e+003;1.268043e-001
1.197628e+003;1.310241e-001
1.199557e+003;1.360895e-001
1.201485e+003;1.416323e-001
1.203414e+003;1.471306e-001
1.205343e+003;1.529201e-001
1.207271e+003;1.593280e-001
1.209200e+003;1.660778e-001
1.211128e+003;1.738621e-001
1.213057e+003;1.827163e-001
1.214985e+003;1.923430e-001
1.216914e+003;2.028508e-001
1.218842e+003;2.142450e-001
1.220771e+003;2.264264e-001
1.222699e+003;2.393738e-001
1.224628e+003;2.527661e-001
1.226557e+003;2.677745e-001
1.228485e+003;2.869639e-001
1.230414e+003;3.117051e-001
1.232342e+003;3.431151e-001
1.234271e+003;3.804899e-001
1.236199e+003;4.220996e-001
1.238128e+003;4.654624e-001
1.240056e+003;5.055234e-001
1.241985e+003;5.372729e-001
1.243913e+003;5.581828e-001
1.245842e+003;5.676462e-001
1.247771e+003;5.661535e-001
1.249699e+003;5.573274e-001
1.251628e+003;5.453633e-001
1.253556e+003;5.320432e-001
1.255485e+003;5.190318e-001
1.257413e+003;5.063892e-001
1.259342e+003;4.934098e-001
1.261270e+003;4.783518e-001
1.263199e+003;4.599221e-001
1.265127e+003;4.381807e-001
1.267056e+003;4.136842e-001
1.268985e+003;3.881811e-001
1.270913e+003;3.638043e-001
1.272842e+003;3.415256e-001
1.274770e+003;3.217605e-001
1.276699e+003;3.046157e-001
1.278627e+003;2.899079e-001
1.280556e+003;2.766199e-001
1.282484e+003;2.638675e-001
1.284413e+003;2.511025e-001
1.286342e+003;2.383469e-001
1.288270e+003;2.263421e-001
1.290199e+003;2.145420e-001
1.292127e+003;2.019432e-001
1.294056e+003;1.893853e-001
1.295984e+003;1.777142e-001
1.297913e+003;1.664646e-001
1.299841e+003;1.555109e-001
1.301770e+003;1.459352e-001
1.303698e+003;1.382215e-001
1.305627e+003;1.314743e-001
1.307556e+003;1.251739e-001
1.309484e+003;1.194437e-001
1.311413e+003;1.141922e-001
1.313341e+003;1.093332e-001
1.315270e+003;1.049014e-001
1.317198e+003;1.012092e-001
1.319127e+003;9.847963e-002
1.321055e+003;9.646339e-002
1.322984e+003;9.525019e-002
1.324912e+003;9.528337e-002
1.326841e+003;9.769953e-002
1.328770e+003;1.044236e-001
1.330698e+003;1.170248e-001
1.332627e+003;1.351057e-001
1.334555e+003;1.559589e-001
1.336484e+003;1.746589e-001
1.338412e+003;1.852041e-001
1.340341e+003;1.837365e-001
1.342269e+003;1.709229e-001
1.344198e+003;1.518919e-001
1.346126e+003;1.322658e-001
1.348055e+003;1.154444e-001
1.349984e+003;1.027662e-001
1.351912e+003;9.399293e-002
1.353841e+003;8.825772e-002
1.355769e+003;8.475280e-002
1.357698e+003;8.277253e-002
1.359626e+003;8.206178e-002
1.361555e+003;8.265652e-002
1.363483e+003;8.442296e-002
1.365412e+003;8.678503e-002
1.367341e+003;8.926606e-002
1.369269e+003;9.119472e-002
1.371198e+003;9.186257e-002
1.373126e+003;9.180559e-002
1.375055e+003;9.119779e-002
1.376983e+003;9.044913e-002
1.378912e+003;9.002899e-002
1.380840e+003;9.019779e-002
1.382769e+003;9.071886e-002
1.384698e+003;9.142430e-002
1.386626e+003;9.227700e-002
1.388555e+003;9.346670e-002
1.390483e+003;9.485671e-002
1.392412e+003;9.656895e-002
1.394340e+003;9.918569e-002
1.396269e+003;1.033060e-001
1.398197e+003;1.092956e-001
1.400126e+003;1.177791e-001
1.402054e+003;1.289898e-001
1.403983e+003;1.431552e-001
1.405911e+003;1.590693e-001
1.407840e+003;1.712153e-001
1.409769e+003;1.729202e-001
1.411697e+003;1.613560e-001
1.413626e+003;1.407550e-001
1.415554e+003;1.182705e-001
1.417483e+003;9.961674e-002
1.419411e+003;8.688410e-002
1.421340e+003;7.927945e-002
1.423268e+003;7.499332e-002
1.425197e+003;7.317094e-002
1.427125e+003;7.313450e-002
1.429054e+003;7.418809e-002
1.430983e+003;7.607310e-002
1.432911e+003;7.856470e-002
1.434840e+003;8.125234e-002
1.436768e+003;8.360903e-002
1.438697e+003;8.602826e-002
1.440625e+003;8.802956e-002
1.442554e+003;8.929601e-002
1.444482e+003;9.067925e-002
1.446411e+003;9.246337e-002
1.448340e+003;9.419992e-002
1.450268e+003;9.608100e-002
1.452197e+003;9.761605e-002
1.454125e+003;9.831260e-002
1.456054e+003;9.818655e-002
1.457982e+003;9.810153e-002
1.459911e+003;9.809925e-002
1.461839e+003;9.753969e-002
1.463768e+003;9.670517e-002
1.465697e+003;9.664536e-002
1.467625e+003;9.832453e-002
1.469554e+003;1.010571e-001
1.471482e+003;1.018253e-001
1.473411e+003;9.948636e-002
1.475339e+003;9.622972e-002
1.477268e+003;9.286149e-002
1.479196e+003;8.926985e-002
1.481125e+003;8.527176e-002
1.483053e+003;8.119365e-002
1.484982e+003;7.738003e-002
1.486911e+003;7.377283e-002
1.488839e+003;7.053668e-002
1.490768e+003;6.816931e-002
1.492696e+003;6.707429e-002
1.494625e+003;6.703702e-002
1.496553e+003;6.893785e-002
1.498482e+003;7.376901e-002
1.500410e+003;8.125633e-002
1.502339e+003;9.062496e-002
1.504267e+003;9.814651e-002
1.506196e+003;9.805232e-002
1.508125e+003;9.043428e-002
1.510053e+003;8.071616e-002
1.511982e+003;7.305421e-002
1.513910e+003;6.857409e-002
1.515839e+003;6.622293e-002
1.517767e+003;6.519251e-002
1.519696e+003;6.486553e-002
1.521624e+003;6.518254e-002
1.523553e+003;6.598017e-002
1.525481e+003;6.621124e-002
1.527410e+003;6.587755e-002
1.529339e+003;6.536873e-002
1.531267e+003;6.440635e-002
1.533196e+003;6.318612e-002
1.535124e+003;6.255814e-002
1.537053e+003;6.189990e-002
1.538981e+003;6.061296e-002
1.540910e+003;6.002728e-002
1.542838e+003;6.047919e-002
1.544767e+003;6.097297e-002
1.546695e+003;6.141816e-002
1.548624e+003;6.197217e-002
1.550553e+003;6.236670e-002
1.552481e+003;6.258746e-002
1.554410e+003;6.294280e-002
1.556338e+003;6.308476e-002
1.558267e+003;6.275661e-002
1.560195e+003;6.342106e-002
1.562124e+003;6.478413e-002
1.564052e+003;6.598480e-002
1.565981e+003;6.746931e-002
1.567910e+003;6.927203e-002
1.569838e+003;7.161226e-002
1.571767e+003;7.472039e-002
1.573695e+003;7.801174e-002
1.575624e+003;8.125214e-002
1.577552e+003;8.399989e-002
1.579481e+003;8.482087e-002
1.581409e+003;8.298924e-002
1.583338e+003;7.947835e-002
1.585266e+003;7.568115e-002
1.587195e+003;7.228243e-002
1.589124e+003;7.002427e-002
1.591052e+003;6.870111e-002
1.592981e+003;6.763739e-002
1.594909e+003;6.722733e-002
1.596838e+003;6.770132e-002
1.598766e+003;6.856792e-002
1.600695e+003;6.979188e-002
1.602623e+003;7.138456e-002
1.604552e+003;7.326040e-002
1.606480e+003;7.525141e-002
1.608409e+003;7.715241e-002
1.610338e+003;7.950131e-002
1.612266e+003;8.159865e-002
1.614195e+003;8.258197e-002
1.616123e+003;8.184789e-002
1.618052e+003;8.030609e-002
1.619980e+003;7.872283e-002
1.621909e+003;7.733830e-002
1.623837e+003;7.677257e-002
1.625766e+003;7.676700e-002
1.627694e+003;7.716586e-002
1.629623e+003;7.781617e-002
1.631552e+003;7.823969e-002
1.633480e+003;7.862879e-002
1.635409e+003;7.943956e-002
1.637337e+003;8.105654e-002
1.639266e+003;8.250348e-002
1.641194e+003;8.347774e-002
1.643123e+003;8.440280e-002
1.645051e+003;8.524825e-002
1.646980e+003;8.640885e-002
1.648909e+003;8.809709e-002
1.650837e+003;8.941185e-002
1.652766e+003;9.057406e-002
1.654694e+003;9.310411e-002
1.656623e+003;9.607951e-002
1.658551e+003;9.885806e-002
1.660480e+003;1.019080e-001
1.662408e+003;1.051962e-001
1.664337e+003;1.091832e-001
1.666266e+003;1.135641e-001
1.668194e+003;1.175268e-001
1.670123e+003;1.215911e-001
1.672051e+003;1.259313e-001
1.673980e+003;1.302489e-001
1.675908e+003;1.351543e-001
1.677837e+003;1.407358e-001
1.679765e+003;1.461978e-001
1.681694e+003;1.512466e-001
1.683622e+003;1.555273e-001
1.685551e+003;1.600424e-001
1.687479e+003;1.656085e-001
1.689408e+003;1.726489e-001
1.691337e+003;1.815273e-001
1.693265e+003;1.923937e-001
1.695194e+003;2.061821e-001
1.697122e+003;2.238880e-001
1.699051e+003;2.460856e-001
1.700979e+003;2.757256e-001
1.702908e+003;3.134246e-001
1.704836e+003;3.598211e-001
1.706765e+003;4.152308e-001
1.708693e+003;4.761751e-001
1.710622e+003;5.330468e-001
1.712551e+003;5.724143e-001
1.714479e+003;5.845426e-001
1.716408e+003;5.695655e-001
1.718336e+003;5.352261e-001
1.720265e+003;4.943010e-001
1.722193e+003;4.521665e-001
1.724122e+003;4.112329e-001
1.726050e+003;3.722340e-001
1.727979e+003;3.357949e-001
1.729908e+003;3.023377e-001
1.731836e+003;2.714447e-001
1.733765e+003;2.420100e-001
1.735693e+003;2.153895e-001
1.737622e+003;1.909991e-001
1.739550e+003;1.675251e-001
1.741479e+003;1.457669e-001
1.743407e+003;1.261234e-001
1.745336e+003;1.091471e-001
1.747265e+003;9.518430e-002
1.749193e+003;8.445045e-002
1.751122e+003;7.656100e-002
1.753050e+003;7.096899e-002
1.754979e+003;6.698421e-002
1.756907e+003;6.422231e-002
1.758836e+003;6.233166e-002
1.760764e+003;6.075474e-002
1.762693e+003;5.962065e-002
1.764621e+003;5.884917e-002
1.766550e+003;5.790956e-002
1.768479e+003;5.710339e-002
1.770407e+003;5.655982e-002
1.772336e+003;5.597011e-002
1.774264e+003;5.575980e-002
1.776193e+003;5.568684e-002
1.778121e+003;5.558063e-002
1.780050e+003;5.551447e-002
1.781978e+003;5.530792e-002
1.783907e+003;5.503854e-002
1.785835e+003;5.479786e-002
1.787764e+003;5.457798e-002
1.789693e+003;5.418712e-002
1.791621e+003;5.397936e-002
1.793550e+003;5.422623e-002
1.795478e+003;5.435790e-002
1.797407e+003;5.431942e-002
1.799335e+003;5.435332e-002
1.801264e+003;5.457711e-002
1.803192e+003;5.488842e-002
1.805121e+003;5.489008e-002
1.807049e+003;5.486226e-002
1.808978e+003;5.500939e-002
1.810907e+003;5.512156e-002
1.812835e+003;5.511008e-002
1.814764e+003;5.522167e-002
1.816692e+003;5.522837e-002
1.818621e+003;5.522445e-002
1.820549e+003;5.520033e-002
1.822478e+003;5.503045e-002
1.824406e+003;5.477174e-002
1.826335e+003;5.457565e-002
1.828264e+003;5.421482e-002
1.830192e+003;5.379450e-002
1.832121e+003;5.348090e-002
1.834049e+003;5.305141e-002
1.835978e+003;5.253065e-002
1.837906e+003;5.187013e-002
1.839835e+003;5.095931e-002
1.841763e+003;5.017258e-002
1.843692e+003;4.937875e-002
1.845620e+003;4.854811e-002
1.847549e+003;4.788153e-002
1.849478e+003;4.705401e-002
1.851406e+003;4.624034e-002
1.853335e+003;4.545600e-002
1.855263e+003;4.460070e-002
1.857192e+003;4.381485e-002
1.859120e+003;4.300341e-002
1.861049e+003;4.227409e-002
1.862977e+003;4.174040e-002
1.864906e+003;4.131871e-002
1.866834e+003;4.058650e-002
1.868763e+003;3.989732e-002
1.870692e+003;3.961309e-002
1.872620e+003;3.941872e-002
1.874549e+003;3.899312e-002
1.876477e+003;3.873142e-002
1.878406e+003;3.877826e-002
1.880334e+003;3.865289e-002
1.882263e+003;3.846866e-002
1.884191e+003;3.829430e-002
1.886120e+003;3.809162e-002
1.888048e+003;3.802890e-002
1.889977e+003;3.818553e-002
1.891906e+003;3.842648e-002
1.893834e+003;3.835123e-002
1.895763e+003;3.845211e-002
1.897691e+003;3.868853e-002
1.899620e+003;3.868901e-002
1.901548e+003;3.881623e-002
1.903477e+003;3.914520e-002
1.905405e+003;3.933622e-002
1.907334e+003;3.945061e-002
1.909262e+003;3.982755e-002
1.911191e+003;4.032228e-002
1.913120e+003;4.076906e-002
1.915048e+003;4.100088e-002
1.916977e+003;4.117298e-002
1.918905e+003;4.172796e-002
1.920834e+003;4.227055e-002
1.922762e+003;4.285685e-002
1.924691e+003;4.363016e-002
1.926619e+003;4.419432e-002
1.928548e+003;4.472582e-002
1.930477e+003;4.548102e-002
1.932405e+003;4.623201e-002
1.934334e+003;4.712709e-002
1.936262e+003;4.815749e-002
1.938191e+003;4.903704e-002
1.940119e+003;4.975586e-002
1.942048e+003;5.064760e-002
1.943976e+003;5.171170e-002
1.945905e+003;5.235729e-002
1.947833e+003;5.284281e-002
1.949762e+003;5.333136e-002
1.951691e+003;5.369119e-002
1.953619e+003;5.424192e-002
1.955548e+003;5.470273e-002
1.957476e+003;5.457208e-002
1.959405e+003;5.420453e-002
1.961333e+003;5.389656e-002
1.963262e+003;5.339281e-002
1.965190e+003;5.244708e-002
1.967119e+003;5.144779e-002
1.969047e+003;5.059090e-002
1.970976e+003;4.964694e-002
1.972905e+003;4.864657e-002
1.974833e+003;4.773556e-002
1.976762e+003;4.708440e-002
1.978690e+003;4.647499e-002
1.980619e+003;4.588195e-002
1.982547e+003;4.527558e-002
1.984476e+003;4.464759e-002
1.986404e+003;4.421435e-002
1.988333e+003;4.379722e-002
1.990261e+003;4.317671e-002
1.992190e+003;4.253621e-002
1.994119e+003;4.202534e-002
1.996047e+003;4.141351e-002
1.997976e+003;4.075210e-002
1.999904e+003;4.027716e-002
2.001833e+003;3.982174e-002
2.003761e+003;3.944426e-002
2.005690e+003;3.905764e-002
2.007618e+003;3.832427e-002
2.009547e+003;3.779891e-002
2.011476e+003;3.752565e-002
2.013404e+003;3.737952e-002
2.015333e+003;3.718582e-002
2.017261e+003;3.679609e-002
2.019190e+003;3.676824e-002
2.021118e+003;3.655088e-002
2.023047e+003;3.585368e-002
2.024975e+003;3.532264e-002
2.026904e+003;3.520247e-002
2.028833e+003;3.509077e-002
2.030761e+003;3.484528e-002
2.032690e+003;3.463849e-002
2.034618e+003;3.472962e-002
2.036547e+003;3.498794e-002
2.038475e+003;3.501667e-002
2.040404e+003;3.486786e-002
2.042332e+003;3.508930e-002
2.044261e+003;3.549045e-002
2.046189e+003;3.582842e-002
2.048118e+003;3.602752e-002
2.050047e+003;3.622010e-002
2.051975e+003;3.647895e-002
2.053904e+003;3.679103e-002
2.055832e+003;3.726888e-002
2.057761e+003;3.780997e-002
2.059689e+003;3.833766e-002
2.061618e+003;3.911819e-002
2.063546e+003;3.979454e-002
2.065475e+003;4.000438e-002
2.067404e+003;4.022864e-002
2.069332e+003;4.062601e-002
2.071260e+003;4.109958e-002
2.073189e+003;4.190447e-002
2.075118e+003;4.258372e-002
2.077046e+003;4.290067e-002
2.078975e+003;4.311384e-002
2.080903e+003;4.330317e-002
2.082832e+003;4.363910e-002
2.084760e+003;4.389916e-002
2.086689e+003;4.408993e-002
2.088617e+003;4.432423e-002
2.090546e+003;4.446116e-002
2.092475e+003;4.456729e-002
2.094403e+003;4.461186e-002
2.096332e+003;4.451634e-002
2.098260e+003;4.453594e-002
2.100189e+003;4.466673e-002
2.102117e+003;4.471649e-002
2.104046e+003;4.460559e-002
2.105974e+003;4.448829e-002
2.107903e+003;4.449589e-002
2.109832e+003;4.443268e-002
2.111760e+003;4.440339e-002
2.113688e+003;4.436181e-002
2.115617e+003;4.414913e-002
2.117546e+003;4.401134e-002
2.119474e+003;4.382240e-002
2.121403e+003;4.334256e-002
2.123331e+003;4.286025e-002
2.125260e+003;4.252569e-002
2.127188e+003;4.221701e-002
2.129117e+003;4.199205e-002
2.131045e+003;4.162570e-002
2.132974e+003;4.100452e-002
2.134903e+003;4.056016e-002
2.136831e+003;4.027709e-002
2.138760e+003;4.007396e-002
2.140688e+003;4.013006e-002
2.142617e+003;3.983954e-002
2.144545e+003;3.910147e-002
2.146474e+003;3.873649e-002
2.148402e+003;3.847770e-002
2.150331e+003;3.806286e-002
2.152260e+003;3.768691e-002
2.154188e+003;3.710606e-002
2.156117e+003;3.661436e-002
2.158045e+003;3.630010e-002
2.159974e+003;3.598678e-002
2.161902e+003;3.538271e-002
2.163831e+003;3.478012e-002
2.165759e+003;3.478726e-002
2.167688e+003;3.478296e-002
2.169616e+003;3.447213e-002
2.171545e+003;3.416289e-002
2.173474e+003;3.383721e-002
2.175402e+003;3.360488e-002
2.177331e+003;3.343014e-002
2.179259e+003;3.321651e-002
2.181188e+003;3.303546e-002
2.183116e+003;3.294137e-002
2.185045e+003;3.308709e-002
2.186973e+003;3.310486e-002
2.188902e+003;3.284948e-002
2.190831e+003;3.285126e-002
2.192759e+003;3.294834e-002
2.194688e+003;3.312671e-002
2.196616e+003;3.308727e-002
2.198545e+003;3.271788e-002
2.200473e+003;3.290537e-002
2.202402e+003;3.341811e-002
2.204330e+003;3.362399e-002
2.206259e+003;3.389667e-002
2.208188e+003;3.426900e-002
2.210116e+003;3.437977e-002
2.212044e+003;3.443988e-002
2.213973e+003;3.463559e-002
2.215902e+003;3.475158e-002
2.217830e+003;3.462665e-002
2.219759e+003;3.470001e-002
2.221687e+003;3.520509e-002
2.223616e+003;3.553116e-002
2.225544e+003;3.532764e-002
2.227473e+003;3.518045e-002
2.229401e+003;3.535481e-002
2.231330e+003;3.557837e-002
2.233259e+003;3.580039e-002
2.235187e+003;3.588099e-002
2.237116e+003;3.583461e-002
2.239044e+003;3.596903e-002
2.240973e+003;3.628324e-002
2.242901e+003;3.654933e-002
2.244830e+003;3.667532e-002
2.246758e+003;3.672555e-002
2.248687e+003;3.675494e-002
2.250615e+003;3.692092e-002
2.252544e+003;3.716167e-002
2.254473e+003;3.737414e-002
2.256401e+003;3.760893e-002
2.258330e+003;3.779732e-002
2.260258e+003;3.785766e-002
2.262187e+003;3.782364e-002
2.264115e+003;3.781218e-002
2.266044e+003;3.760582e-002
2.267972e+003;3.732059e-002
2.269901e+003;3.740722e-002
2.271830e+003;3.780538e-002
2.273758e+003;3.786496e-002
2.275687e+003;3.788498e-002
2.277615e+003;3.797115e-002
2.279544e+003;3.802901e-002
2.281472e+003;3.816578e-002
2.283401e+003;3.829582e-002
2.285329e+003;3.838196e-002
2.287258e+003;3.822837e-002
2.289187e+003;3.760994e-002
2.291115e+003;3.715492e-002
2.293043e+003;3.707971e-002
2.294972e+003;3.671170e-002
2.296901e+003;3.594387e-002
2.298829e+003;3.531186e-002
2.300758e+003;3.449372e-002
2.302686e+003;3.363309e-002
2.304615e+003;3.322370e-002
2.306543e+003;3.287167e-002
2.308472e+003;3.251903e-002
2.310400e+003;3.226503e-002
2.312329e+003;3.201913e-002
2.314258e+003;3.179700e-002
2.316186e+003;3.172275e-002
2.318115e+003;3.158019e-002
2.320043e+003;3.138468e-002
2.321972e+003;3.132093e-002
2.323900e+003;3.127168e-002
2.325829e+003;3.113045e-002
2.327757e+003;3.081062e-002
2.329686e+003;3.079394e-002
2.331615e+003;3.073462e-002
2.333543e+003;3.048724e-002
2.335472e+003;3.034416e-002
2.337400e+003;3.040059e-002
2.339329e+003;3.061393e-002
2.341257e+003;3.108784e-002
2.343186e+003;3.185016e-002
2.345114e+003;3.259064e-002
2.347043e+003;3.332140e-002
2.348971e+003;3.389319e-002
2.350900e+003;3.382818e-002
2.352829e+003;3.337442e-002
2.354757e+003;3.290527e-002
2.356686e+003;3.255053e-002
2.358614e+003;3.244519e-002
2.360543e+003;3.250439e-002
2.362471e+003;3.289029e-002
2.364400e+003;3.341271e-002
2.366328e+003;3.390437e-002
2.368257e+003;3.476702e-002
2.370186e+003;3.569498e-002
2.372114e+003;3.651791e-002
2.374042e+003;3.732145e-002
2.375971e+003;3.794967e-002
2.377900e+003;3.856529e-002
2.379828e+003;3.926244e-002
2.381757e+003;3.946019e-002
2.383685e+003;3.926781e-002
2.385614e+003;3.914077e-002
2.387542e+003;3.924144e-002
2.389471e+003;3.943700e-002
2.391399e+003;3.932929e-002
2.393328e+003;3.893745e-002
2.395257e+003;3.882743e-002
2.397185e+003;3.884504e-002
2.399114e+003;3.860933e-002
2.401042e+003;3.842927e-002
2.402971e+003;3.816910e-002
2.404899e+003;3.791322e-002
2.406828e+003;3.768091e-002
2.408756e+003;3.754162e-002
2.410685e+003;3.742221e-002
2.412614e+003;3.701093e-002
2.414542e+003;3.676680e-002
2.416471e+003;3.663415e-002
2.418399e+003;3.626973e-002
2.420328e+003;3.595445e-002
2.422256e+003;3.559279e-002
2.424185e+003;3.516004e-002
2.426113e+003;3.486054e-002
2.428042e+003;3.474491e-002
2.429970e+003;3.424150e-002
2.431899e+003;3.375078e-002
2.433828e+003;3.350268e-002
2.435756e+003;3.324145e-002
2.437685e+003;3.288597e-002
2.439613e+003;3.275636e-002
2.441542e+003;3.272120e-002
2.443470e+003;3.254935e-002
2.445399e+003;3.213389e-002
2.447327e+003;3.193552e-002
2.449256e+003;3.171672e-002
2.451185e+003;3.156283e-002
2.453113e+003;3.171886e-002
2.455042e+003;3.181754e-002
2.456970e+003;3.173358e-002
2.458899e+003;3.168878e-002
2.460827e+003;3.164034e-002
2.462756e+003;3.160271e-002
2.464684e+003;3.157599e-002
2.466613e+003;3.145196e-002
2.468542e+003;3.130145e-002
2.470470e+003;3.138033e-002
2.472398e+003;3.187854e-002
2.474327e+003;3.223858e-002
2.476256e+003;3.228152e-002
2.478184e+003;3.231407e-002
2.480113e+003;3.247668e-002
2.482041e+003;3.280388e-002
2.483970e+003;3.298555e-002
2.485898e+003;3.319563e-002
2.487827e+003;3.354527e-002
2.489755e+003;3.382754e-002
2.491684e+003;3.393758e-002
2.493613e+003;3.403465e-002
2.495541e+003;3.408980e-002
2.497470e+003;3.435040e-002
2.499398e+003;3.468342e-002
2.501327e+003;3.477754e-002
2.503255e+003;3.490678e-002
2.505184e+003;3.512418e-002
2.507112e+003;3.523754e-002
2.509041e+003;3.541078e-002
2.510969e+003;3.551832e-002
2.512898e+003;3.567922e-002
2.514827e+003;3.587250e-002
2.516755e+003;3.604085e-002
2.518684e+003;3.627153e-002
2.520612e+003;3.656516e-002
2.522541e+003;3.671231e-002
2.524469e+003;3.682317e-002
2.526398e+003;3.711085e-002
2.528326e+003;3.729657e-002
2.530255e+003;3.722394e-002
2.532184e+003;3.719744e-002
2.534112e+003;3.731748e-002
2.536041e+003;3.767151e-002
2.537969e+003;3.792501e-002
2.539898e+003;3.782855e-002
2.541826e+003;3.757413e-002
2.543755e+003;3.745417e-002
2.545683e+003;3.760105e-002
2.547612e+003;3.777017e-002
2.549541e+003;3.779938e-002
2.551469e+003;3.772702e-002
2.553397e+003;3.781091e-002
2.555326e+003;3.799068e-002
2.557255e+003;3.768582e-002
2.559183e+003;3.709721e-002
2.561112e+003;3.705993e-002
2.563040e+003;3.734623e-002
2.564969e+003;3.748408e-002
2.566897e+003;3.776276e-002
2.568826e+003;3.760571e-002
2.570754e+003;3.719383e-002
2.572683e+003;3.740971e-002
2.574612e+003;3.758537e-002
2.576540e+003;3.752489e-002
2.578469e+003;3.767335e-002
2.580397e+003;3.793000e-002
2.582326e+003;3.776851e-002
2.584254e+003;3.719835e-002
2.586183e+003;3.682609e-002
2.588111e+003;3.664886e-002
2.590040e+003;3.648677e-002
2.591969e+003;3.645163e-002
2.593897e+003;3.621473e-002
2.595826e+003;3.567142e-002
2.597754e+003;3.530014e-002
2.599683e+003;3.513852e-002
2.601611e+003;3.491375e-002
2.603540e+003;3.460107e-002
2.605468e+003;3.463128e-002
2.607397e+003;3.468138e-002
2.609325e+003;3.419375e-002
2.611254e+003;3.366295e-002
2.613183e+003;3.356313e-002
2.615111e+003;3.372525e-002
2.617040e+003;3.386955e-002
2.618968e+003;3.388417e-002
2.620897e+003;3.377259e-002
2.622825e+003;3.355866e-002
2.624754e+003;3.362349e-002
2.626682e+003;3.398265e-002
2.628611e+003;3.399165e-002
2.630540e+003;3.364580e-002
2.632468e+003;3.334988e-002
2.634396e+003;3.322578e-002
2.636325e+003;3.297122e-002
2.638254e+003;3.244001e-002
2.640182e+003;3.186973e-002
2.642111e+003;3.153415e-002
2.644039e+003;3.138272e-002
2.645968e+003;3.105837e-002
2.647896e+003;3.072324e-002
2.649825e+003;3.044615e-002
2.651753e+003;3.029374e-002
2.653682e+003;3.015265e-002
2.655611e+003;2.999232e-002
2.657539e+003;2.994234e-002
2.659468e+003;2.999491e-002
2.661396e+003;2.990727e-002
2.663325e+003;2.971183e-002
2.665253e+003;2.977368e-002
2.667182e+003;2.971715e-002
2.669110e+003;2.979511e-002
2.671039e+003;3.003088e-002
2.672968e+003;2.998096e-002
2.674896e+003;2.975984e-002
2.676825e+003;2.968079e-002
2.678753e+003;2.985630e-002
2.680682e+003;3.021825e-002
2.682610e+003;3.048930e-002
2.684539e+003;3.071765e-002
2.686467e+003;3.064988e-002
2.688396e+003;3.021417e-002
2.690324e+003;3.007605e-002
2.692253e+003;3.025338e-002
2.694182e+003;3.037404e-002
2.696110e+003;3.023875e-002
2.698039e+003;3.022077e-002
2.699967e+003;3.075318e-002
2.701896e+003;3.102837e-002
2.703824e+003;3.073394e-002
2.705753e+003;3.060238e-002
2.707681e+003;3.090489e-002
2.709610e+003;3.110752e-002
2.711539e+003;3.124501e-002
2.713467e+003;3.141171e-002
2.715396e+003;3.137477e-002
2.717324e+003;3.134126e-002
2.719253e+003;3.155436e-002
2.721181e+003;3.194191e-002
2.723110e+003;3.220036e-002
2.725038e+003;3.220579e-002
2.726967e+003;3.228223e-002
2.728896e+003;3.277333e-002
2.730824e+003;3.332147e-002
2.732752e+003;3.346717e-002
2.734681e+003;3.335514e-002
2.736610e+003;3.348267e-002
2.738538e+003;3.383463e-002
2.740467e+003;3.402641e-002
2.742395e+003;3.408590e-002
2.744324e+003;3.426097e-002
2.746252e+003;3.429349e-002
2.748181e+003;3.419024e-002
2.750109e+003;3.412690e-002
2.752038e+003;3.409238e-002
2.753967e+003;3.414052e-002
2.755895e+003;3.435506e-002
2.757824e+003;3.451920e-002
2.759752e+003;3.430539e-002
2.761681e+003;3.426742e-002
2.763609e+003;3.430790e-002
2.765538e+003;3.421845e-002
2.767466e+003;3.432107e-002
2.769395e+003;3.450667e-002
2.771323e+003;3.468206e-002
2.773252e+003;3.478654e-002
2.775181e+003;3.531218e-002
2.777109e+003;3.570620e-002
2.779038e+003;3.565983e-002
2.780966e+003;3.566357e-002
2.782895e+003;3.587031e-002
2.784823e+003;3.629865e-002
2.786752e+003;3.702684e-002
2.788680e+003;3.778156e-002
2.790609e+003;3.788003e-002
2.792538e+003;3.801646e-002
2.794466e+003;3.864572e-002
2.796395e+003;3.935675e-002
2.798323e+003;3.953138e-002
2.800252e+003;3.966576e-002
2.802180e+003;4.009125e-002
2.804109e+003;4.034424e-002
2.806037e+003;4.034373e-002
2.807966e+003;4.039140e-002
2.809895e+003;4.036279e-002
2.811823e+003;4.036435e-002
2.813751e+003;4.026760e-002
2.815680e+003;3.952950e-002
2.817609e+003;3.890019e-002
2.819537e+003;3.874638e-002
2.821466e+003;3.870516e-002
2.823394e+003;3.886587e-002
2.825323e+003;3.907943e-002
2.827251e+003;3.947884e-002
2.829180e+003;3.970903e-002
2.831108e+003;3.982080e-002
2.833037e+003;4.032508e-002
2.834966e+003;4.093170e-002
2.836894e+003;4.130687e-002
2.838823e+003;4.189669e-002
2.840751e+003;4.285488e-002
2.842680e+003;4.360804e-002
2.844608e+003;4.415023e-002
2.846537e+003;4.482779e-002
2.848465e+003;4.540936e-002
2.850394e+003;4.578352e-002
2.852323e+003;4.684192e-002
2.854251e+003;4.781223e-002
2.856180e+003;4.833578e-002
2.858108e+003;4.879822e-002
2.860037e+003;4.928305e-002
2.861965e+003;4.978213e-002
2.863894e+003;4.997997e-002
2.865822e+003;5.012625e-002
2.867751e+003;5.056614e-002
2.869679e+003;5.110412e-002
2.871608e+003;5.126546e-002
2.873536e+003;5.135596e-002
2.875465e+003;5.167535e-002
2.877394e+003;5.221579e-002
2.879322e+003;5.267512e-002
2.881251e+003;5.312371e-002
2.883179e+003;5.393291e-002
2.885108e+003;5.456787e-002
2.887036e+003;5.473178e-002
2.888965e+003;5.483726e-002
2.890893e+003;5.541429e-002
2.892822e+003;5.605138e-002
2.894750e+003;5.624896e-002
2.896679e+003;5.690379e-002
2.898608e+003;5.790827e-002
2.900536e+003;5.895781e-002
2.902465e+003;5.994141e-002
2.904393e+003;6.060930e-002
2.906322e+003;6.136755e-002
2.908250e+003;6.193208e-002
2.910179e+003;6.188363e-002
2.912107e+003;6.142728e-002
2.914036e+003;6.051262e-002
2.915965e+003;5.911120e-002
2.917893e+003;5.748202e-002
2.919822e+003;5.597780e-002
2.921750e+003;5.521140e-002
2.923679e+003;5.457437e-002
2.925607e+003;5.401748e-002
2.927536e+003;5.386250e-002
2.929464e+003;5.374414e-002
2.931393e+003;5.357254e-002
2.933322e+003;5.337733e-002
2.935250e+003;5.372089e-002
2.937178e+003;5.477174e-002
2.939107e+003;5.568318e-002
2.941036e+003;5.652577e-002
2.942964e+003;5.760792e-002
2.944893e+003;5.920099e-002
2.946821e+003;6.069781e-002
2.948750e+003;6.201467e-002
2.950678e+003;6.339295e-002
2.952607e+003;6.466841e-002
2.954535e+003;6.594145e-002
2.956464e+003;6.723769e-002
2.958393e+003;6.834875e-002
2.960321e+003;6.918716e-002
2.962250e+003;6.990653e-002
2.964178e+003;7.048628e-002
2.966107e+003;7.136429e-002
2.968035e+003;7.208445e-002
2.969964e+003;7.204369e-002
2.971892e+003;7.219618e-002
2.973821e+003;7.212368e-002
2.975750e+003;7.129911e-002
2.977678e+003;7.042031e-002
2.979607e+003;6.980550e-002
2.981535e+003;6.886803e-002
2.983464e+003;6.770639e-002
2.985392e+003;6.699862e-002
2.987321e+003;6.605791e-002
2.989249e+003;6.487323e-002
2.991178e+003;6.375973e-002
2.993106e+003;6.315079e-002
2.995035e+003;6.291877e-002
2.996964e+003;6.235243e-002
2.998892e+003;6.198547e-002
3.000821e+003;6.172402e-002
3.002749e+003;6.096771e-002
3.004678e+003;6.022752e-002
3.006606e+003;5.969911e-002
3.008535e+003;5.900354e-002
3.010463e+003;5.842609e-002
3.012392e+003;5.773551e-002
3.014321e+003;5.702581e-002
3.016249e+003;5.637027e-002
3.018177e+003;5.551578e-002
3.020106e+003;5.453060e-002
3.022035e+003;5.336883e-002
3.023963e+003;5.217715e-002
3.025892e+003;5.089485e-002
3.027820e+003;4.963394e-002
3.029749e+003;4.849447e-002
3.031677e+003;4.780221e-002
3.033606e+003;4.729383e-002
3.035534e+003;4.678826e-002
3.037463e+003;4.643679e-002
3.039392e+003;4.627019e-002
3.041320e+003;4.653802e-002
3.043249e+003;4.752225e-002
3.045177e+003;4.864828e-002
3.047106e+003;5.021762e-002
3.049034e+003;5.212414e-002
3.050963e+003;5.362697e-002
3.052891e+003;5.449612e-002
3.054820e+003;5.471386e-002
3.056749e+003;5.472100e-002
3.058677e+003;5.446314e-002
3.060606e+003;5.399080e-002
3.062534e+003;5.404949e-002
3.064463e+003;5.405133e-002
3.066391e+003;5.404930e-002
3.068320e+003;5.422807e-002
3.070248e+003;5.427515e-002
3.072177e+003;5.390819e-002
3.074105e+003;5.366555e-002
3.076034e+003;5.382406e-002
3.077963e+003;5.363927e-002
3.079891e+003;5.304845e-002
3.081820e+003;5.270180e-002
3.083748e+003;5.293926e-002
3.085677e+003;5.283473e-002
3.087605e+003;5.219894e-002
3.089534e+003;5.161206e-002
3.091462e+003;5.090145e-002
3.093391e+003;5.037503e-002
3.095320e+003;5.019721e-002
3.097248e+003;5.057042e-002
3.099177e+003;5.128045e-002
3.101105e+003;5.159325e-002
3.103034e+003;5.172667e-002
3.104962e+003;5.165165e-002
3.106891e+003;5.142082e-002
3.108819e+003;5.108515e-002
3.110748e+003;5.057262e-002
3.112677e+003;4.986233e-002
3.114605e+003;4.871970e-002
3.116533e+003;4.762477e-002
3.118462e+003;4.702554e-002
3.120391e+003;4.626621e-002
3.122319e+003;4.556149e-002
3.124248e+003;4.544151e-002
3.126176e+003;4.531861e-002
3.128105e+003;4.526713e-002
3.130033e+003;4.523304e-002
3.131962e+003;4.502797e-002
3.133890e+003;4.456560e-002
3.135819e+003;4.383992e-002
3.137748e+003;4.294339e-002
3.139676e+003;4.210116e-002
3.141605e+003;4.141150e-002
3.143533e+003;4.079403e-002
3.145462e+003;4.028138e-002
3.147390e+003;3.989946e-002
3.149319e+003;3.979759e-002
3.151247e+003;3.945249e-002
3.153176e+003;3.897771e-002
3.155104e+003;3.855139e-002
3.157033e+003;3.824498e-002
3.158962e+003;3.805126e-002
3.160890e+003;3.789645e-002
3.162819e+003;3.752334e-002
3.164747e+003;3.728390e-002
3.166676e+003;3.725491e-002
3.168604e+003;3.701259e-002
3.170533e+003;3.712125e-002
3.172461e+003;3.728784e-002
3.174390e+003;3.738169e-002
3.176319e+003;3.741845e-002
3.178247e+003;3.716535e-002
3.180176e+003;3.674718e-002
3.182104e+003;3.700242e-002
3.184033e+003;3.726719e-002
3.185961e+003;3.707542e-002
3.187890e+003;3.685949e-002
3.189818e+003;3.650075e-002
3.191747e+003;3.631310e-002
3.193676e+003;3.662838e-002
3.195604e+003;3.660261e-002
3.197532e+003;3.632279e-002
3.199461e+003;3.613334e-002
3.201390e+003;3.576844e-002
3.203318e+003;3.554442e-002
3.205247e+003;3.553727e-002
3.207175e+003;3.541172e-002
3.209104e+003;3.555553e-002
3.211032e+003;3.583961e-002
3.212961e+003;3.568419e-002
3.214889e+003;3.524009e-002
3.216818e+003;3.512810e-002
3.218747e+003;3.526093e-002
3.220675e+003;3.550940e-002
3.222604e+003;3.583925e-002
3.224532e+003;3.570660e-002
3.226461e+003;3.548617e-002
3.228389e+003;3.570289e-002
3.230318e+003;3.587822e-002
3.232246e+003;3.586854e-002
3.234175e+003;3.539514e-002
3.236104e+003;3.525091e-002
3.238032e+003;3.555363e-002
3.239961e+003;3.526870e-002
3.241889e+003;3.517976e-002
3.243818e+003;3.536520e-002
3.245746e+003;3.524969e-002
3.247675e+003;3.522148e-002
3.249603e+003;3.504756e-002
3.251532e+003;3.481950e-002
3.253460e+003;3.470514e-002
3.255389e+003;3.435445e-002
3.257318e+003;3.402254e-002
3.259246e+003;3.379644e-002
3.261175e+003;3.373098e-002
3.263103e+003;3.402404e-002
3.265032e+003;3.406898e-002
3.266960e+003;3.386120e-002
3.268889e+003;3.354520e-002
3.270817e+003;3.355633e-002
3.272746e+003;3.361093e-002
3.274675e+003;3.360606e-002
3.276603e+003;3.363953e-002
3.278531e+003;3.366821e-002
3.280460e+003;3.370864e-002
3.282389e+003;3.400828e-002
3.284317e+003;3.425702e-002
3.286246e+003;3.423573e-002
3.288174e+003;3.407073e-002
3.290103e+003;3.439656e-002
3.292031e+003;3.468091e-002
3.293960e+003;3.442912e-002
3.295888e+003;3.435775e-002
3.297817e+003;3.429360e-002
3.299746e+003;3.422422e-002
3.301674e+003;3.414794e-002
3.303603e+003;3.384054e-002
3.305531e+003;3.353192e-002
3.307460e+003;3.388947e-002
3.309388e+003;3.432777e-002
3.311317e+003;3.429123e-002
3.313245e+003;3.409597e-002
3.315174e+003;3.377614e-002
3.317103e+003;3.359972e-002
3.319031e+003;3.377292e-002
3.320960e+003;3.398699e-002
3.322888e+003;3.387933e-002
3.324817e+003;3.386561e-002
3.326745e+003;3.432293e-002
3.328674e+003;3.444386e-002
3.330602e+003;3.389900e-002
3.332531e+003;3.386077e-002
3.334459e+003;3.444627e-002
3.336388e+003;3.448669e-002
3.338317e+003;3.399731e-002
3.340245e+003;3.366094e-002
3.342174e+003;3.363319e-002
3.344102e+003;3.381539e-002
3.346031e+003;3.374745e-002
3.347959e+003;3.332898e-002
3.349888e+003;3.315882e-002
3.351816e+003;3.281846e-002
3.353745e+003;3.204823e-002
3.355674e+003;3.191356e-002
3.357602e+003;3.209536e-002
3.359531e+003;3.166422e-002
3.361459e+003;3.126833e-002
3.363388e+003;3.122012e-002
3.365316e+003;3.112393e-002
3.367245e+003;3.069226e-002
3.369173e+003;3.022710e-002
3.371102e+003;3.019882e-002
3.373031e+003;3.021932e-002
3.374959e+003;3.033574e-002
3.376887e+003;3.054951e-002
3.378816e+003;3.081439e-002
3.380745e+003;3.079711e-002
3.382673e+003;3.087804e-002
3.384602e+003;3.100399e-002
3.386530e+003;3.089817e-002
3.388459e+003;3.073743e-002
3.390387e+003;3.090525e-002
3.392316e+003;3.129091e-002
3.394244e+003;3.169911e-002
3.396173e+003;3.235494e-002
3.398102e+003;3.289072e-002
3.400030e+003;3.311480e-002
3.401959e+003;3.357180e-002
3.403887e+003;3.458119e-002
3.405816e+003;3.548567e-002
3.407744e+003;3.625943e-002
3.409673e+003;3.711753e-002
3.411601e+003;3.786886e-002
3.413530e+003;3.886903e-002
3.415458e+003;4.011898e-002
3.417387e+003;4.143527e-002
3.419316e+003;4.280240e-002
3.421244e+003;4.402300e-002
3.423173e+003;4.518818e-002
3.425101e+003;4.601487e-002
3.427030e+003;4.666303e-002
3.428958e+003;4.723997e-002
3.430887e+003;4.751172e-002
3.432815e+003;4.726524e-002
3.434744e+003;4.684373e-002
3.436673e+003;4.625490e-002
3.438601e+003;4.537717e-002
3.440530e+003;4.459623e-002
3.442458e+003;4.382515e-002
3.444387e+003;4.296113e-002
3.446315e+003;4.193278e-002
3.448244e+003;4.106024e-002
3.450172e+003;4.021249e-002
3.452101e+003;3.931260e-002
3.454030e+003;3.842362e-002
3.455958e+003;3.775651e-002
3.457886e+003;3.709025e-002
3.459815e+003;3.651845e-002
3.461744e+003;3.595244e-002
3.463672e+003;3.509189e-002
3.465601e+003;3.418579e-002
3.467529e+003;3.362199e-002
3.469458e+003;3.318139e-002
3.471386e+003;3.277283e-002
3.473315e+003;3.221985e-002
3.475243e+003;3.163239e-002
3.477172e+003;3.093236e-002
3.479101e+003;3.081713e-002
3.481029e+003;3.067680e-002
3.482958e+003;3.052477e-002
3.484886e+003;3.026145e-002
3.486815e+003;3.037646e-002
3.488743e+003;3.068952e-002
3.490672e+003;3.075855e-002
3.492600e+003;3.073725e-002
3.494529e+003;3.061706e-002
3.496458e+003;3.050060e-002
3.498386e+003;3.040133e-002
3.500315e+003;3.050931e-002
3.502243e+003;3.054215e-002
3.504172e+003;3.041697e-002
3.506100e+003;3.069639e-002
3.508029e+003;3.147163e-002
3.509957e+003;3.193299e-002
3.511886e+003;3.174135e-002
3.513814e+003;3.183557e-002
3.515743e+003;3.217021e-002
3.517672e+003;3.204388e-002
3.519600e+003;3.210834e-002
3.521529e+003;3.216893e-002
3.523457e+003;3.171187e-002
3.525386e+003;3.197030e-002
3.527314e+003;3.263921e-002
3.529243e+003;3.290606e-002
3.531171e+003;3.317806e-002
3.533100e+003;3.337657e-002
3.535029e+003;3.358780e-002
3.536957e+003;3.379093e-002
3.538885e+003;3.398008e-002
3.540814e+003;3.371250e-002
3.542743e+003;3.330995e-002
3.544671e+003;3.311123e-002
3.546600e+003;3.336712e-002
3.548528e+003;3.378391e-002
3.550457e+003;3.399290e-002
3.552385e+003;3.365707e-002
3.554314e+003;3.314692e-002
3.556242e+003;3.277458e-002
3.558171e+003;3.265779e-002
3.560100e+003;3.289162e-002
3.562028e+003;3.258331e-002
3.563957e+003;3.188728e-002
3.565885e+003;3.149746e-002
3.567814e+003;3.180759e-002
3.569742e+003;3.183504e-002
3.571671e+003;3.136267e-002
3.573599e+003;3.114906e-002
3.575528e+003;3.076307e-002
3.577457e+003;3.019357e-002
3.579385e+003;2.985005e-002
3.581314e+003;2.946801e-002
3.583242e+003;2.893668e-002
3.585171e+003;2.847265e-002
3.587099e+003;2.827775e-002
3.589028e+003;2.827291e-002
3.590956e+003;2.817825e-002
3.592885e+003;2.813091e-002
3.594813e+003;2.773996e-002
3.596742e+003;2.771146e-002
3.598671e+003;2.801529e-002
3.600599e+003;2.753844e-002
3.602528e+003;2.681431e-002
3.604456e+003;2.668089e-002
3.606385e+003;2.677691e-002
3.608313e+003;2.695386e-002
3.610242e+003;2.715532e-002
3.612170e+003;2.730374e-002
3.614099e+003;2.747539e-002
3.616028e+003;2.748972e-002
3.617956e+003;2.714358e-002
3.619885e+003;2.735600e-002
3.621813e+003;2.770680e-002
3.623742e+003;2.744507e-002
3.625670e+003;2.731048e-002
3.627599e+003;2.715176e-002
3.629527e+003;2.713215e-002
3.631456e+003;2.777867e-002
3.633385e+003;2.800416e-002
3.635313e+003;2.746293e-002
3.637241e+003;2.721525e-002
3.639170e+003;2.723268e-002
3.641099e+003;2.721490e-002
3.643027e+003;2.718149e-002
3.644956e+003;2.686975e-002
3.646884e+003;2.680613e-002
3.648813e+003;2.670158e-002
3.650741e+003;2.628297e-002
3.652670e+003;2.604993e-002
3.654598e+003;2.572124e-002
3.656527e+003;2.559621e-002
3.658456e+003;2.544132e-002
3.660384e+003;2.499122e-002
3.662313e+003;2.473828e-002
3.664241e+003;2.416127e-002
3.666170e+003;2.340120e-002
3.668098e+003;2.280917e-002
3.670027e+003;2.270390e-002
3.671955e+003;2.324467e-002
3.673884e+003;2.324404e-002
3.675813e+003;2.285995e-002
3.677741e+003;2.298171e-002
3.679669e+003;2.349734e-002
3.681598e+003;2.454919e-002
3.683527e+003;2.518236e-002
3.685455e+003;2.508332e-002
3.687384e+003;2.455273e-002
3.689312e+003;2.442404e-002
3.691241e+003;2.426448e-002
3.693169e+003;2.383212e-002
3.695098e+003;2.334162e-002
3.697026e+003;2.283934e-002
3.698955e+003;2.257373e-002
3.700884e+003;2.229048e-002
3.702812e+003;2.193263e-002
3.704741e+003;2.157612e-002
3.706669e+003;2.118275e-002
3.708598e+003;2.050084e-002
3.710526e+003;2.028466e-002
3.712455e+003;2.060565e-002
3.714383e+003;2.099391e-002
3.716312e+003;2.114044e-002
3.718240e+003;2.105039e-002
3.720169e+003;2.091612e-002
3.722098e+003;2.061312e-002
3.724026e+003;2.050160e-002
3.725955e+003;2.077460e-002
3.727883e+003;2.110106e-002
3.729812e+003;2.130449e-002
3.731740e+003;2.114382e-002
3.733669e+003;2.073463e-002
3.735597e+003;2.060884e-002
3.737526e+003;2.094467e-002
3.739455e+003;2.101571e-002
3.741383e+003;2.083422e-002
3.743312e+003;2.039067e-002
3.745240e+003;2.040956e-002
3.747169e+003;2.053099e-002
3.749097e+003;2.046225e-002
3.751026e+003;2.115018e-002
3.752954e+003;2.157950e-002
3.754883e+003;2.183545e-002
3.756812e+003;2.237089e-002
3.758740e+003;2.248048e-002
3.760668e+003;2.186339e-002
3.762597e+003;2.163397e-002
3.764526e+003;2.176922e-002
3.766454e+003;2.151595e-002
3.768383e+003;2.129388e-002
3.770311e+003;2.157003e-002
3.772240e+003;2.163459e-002
3.774168e+003;2.137654e-002
3.776097e+003;2.137880e-002
3.778025e+003;2.110879e-002
3.779954e+003;2.088942e-002
3.781883e+003;2.098744e-002
3.783811e+003;2.131490e-002
3.785740e+003;2.170484e-002
3.787668e+003;2.144744e-002
3.789597e+003;2.110371e-002
3.791525e+003;2.093115e-002
3.793454e+003;2.121903e-002
3.795382e+003;2.164776e-002
3.797311e+003;2.155318e-002
3.799240e+003;2.127592e-002
3.801168e+003;2.126284e-002
3.803097e+003;2.176974e-002
3.805025e+003;2.194298e-002
3.806954e+003;2.173846e-002
3.808882e+003;2.210051e-002
3.810811e+003;2.222094e-002
3.812739e+003;2.175922e-002
3.814668e+003;2.132343e-002
3.816596e+003;2.124332e-002
3.818525e+003;2.145259e-002
3.820454e+003;2.141736e-002
3.822382e+003;2.113863e-002
3.824311e+003;2.130188e-002
3.826239e+003;2.127815e-002
3.828168e+003;2.123601e-002
3.830096e+003;2.126023e-002
3.832025e+003;2.106058e-002
3.833953e+003;2.079893e-002
3.835882e+003;2.080703e-002
3.837811e+003;2.082758e-002
3.839739e+003;2.084924e-002
3.841667e+003;2.086210e-002
3.843596e+003;2.089759e-002
3.845525e+003;2.131897e-002
3.847453e+003;2.168241e-002
3.849382e+003;2.129513e-002
3.851310e+003;2.074746e-002
3.853239e+003;2.051289e-002
3.855167e+003;2.087632e-002
3.857096e+003;2.134312e-002
3.859024e+003;2.144027e-002
3.860953e+003;2.143160e-002
3.862882e+003;2.153650e-002
3.864810e+003;2.167774e-002
3.866739e+003;2.181935e-002
3.868667e+003;2.149506e-002
3.870596e+003;2.128845e-002
3.872524e+003;2.141674e-002
3.874453e+003;2.165347e-002
3.876381e+003;2.201747e-002
3.878310e+003;2.199781e-002
3.880239e+003;2.201161e-002
3.882167e+003;2.222565e-002
3.884096e+003;2.206526e-002
3.886024e+003;2.164514e-002
3.887953e+003;2.167249e-002
3.889881e+003;2.159068e-002
3.891810e+003;2.167402e-002
3.893738e+003;2.229485e-002
3.895667e+003;2.256608e-002
3.897595e+003;2.273860e-002
3.899524e+003;2.287200e-002
3.901453e+003;2.281168e-002
3.903381e+003;2.296676e-002
3.905310e+003;2.344621e-002
3.907238e+003;2.353676e-002
3.909167e+003;2.327327e-002
3.911095e+003;2.313084e-002
3.913024e+003;2.315100e-002
3.914952e+003;2.321423e-002
3.916881e+003;2.316428e-002
3.918810e+003;2.359231e-002
3.920738e+003;2.412365e-002
3.922667e+003;2.420194e-002
3.924595e+003;2.366686e-002
3.926524e+003;2.357475e-002
3.928452e+003;2.370371e-002
3.930381e+003;2.343869e-002
3.932309e+003;2.331896e-002
3.934238e+003;2.368569e-002
3.936167e+003;2.392475e-002
3.938095e+003;2.345261e-002
3.940023e+003;2.337504e-002
3.941952e+003;2.369951e-002
3.943881e+003;2.373696e-002
3.945809e+003;2.403091e-002
3.947738e+003;2.409518e-002
3.949666e+003;2.419259e-002
3.951595e+003;2.443480e-002
3.953523e+003;2.437984e-002
3.955452e+003;2.439498e-002
3.957380e+003;2.450323e-002
3.959309e+003;2.487106e-002
3.961238e+003;2.518008e-002
3.963166e+003;2.527208e-002
3.965095e+003;2.495970e-002
3.967023e+003;2.448044e-002
3.968952e+003;2.455862e-002
3.970880e+003;2.480023e-002
3.972809e+003;2.455837e-002
3.974737e+003;2.422209e-002
3.976666e+003;2.419543e-002
3.978594e+003;2.417788e-002
3.980523e+003;2.453134e-002
3.982452e+003;2.497483e-002
3.984380e+003;2.489948e-002
3.986309e+003;2.454740e-002
3.988237e+003;2.472077e-002
3.990166e+003;2.514293e-002
3.992094e+003;2.494549e-002
3.994023e+003;2.490219e-002
3.995951e+003;2.502396e-002
3.997880e+003;2.520912e-002
3.999809e+003;2.539385e-002
4.001737e+003;0.000000e+000
