3.992094e+002;0.000000e+000
4.011380e+002;0.000000e+000
4.030665e+002;0.000000e+000
4.049951e+002;0.000000e+000
4.069236e+002;0.000000e+000
4.088522e+002;0.000000e+000
4.107807e+002;0.000000e+000
4.127093e+002;0.000000e+000
4.146378e+002;0.000000e+000
4.165664e+002;0.000000e+000
4.184949e+002;0.000000e+000
4.204235e+002;0.000000e+000
4.223520e+002;0.000000e+000
4.242806e+002;0.000000e+000
4.262091e+002;0.000000e+000
4.281377e+002;0.000000e+000
4.300662e+002;0.000000e+000
4.319948e+002;0.000000e+000
4.339233e+002;0.000000e+000
4.358519e+002;0.000000e+000
4.377804e+002;0.000000e+000
4.397090e+002;0.000000e+000
4.416375e+002;0.000000e+000
4.435660e+002;0.000000e+000
4.454946e+002;0.000000e+000
4.474232e+002;0.000000e+000
4.493517e+002;0.000000e+000
4.512802e+002;0.000000e+000
4.532088e+002;0.000000e+000
4.551373e+002;0.000000e+000
4.570659e+002;0.000000e+000
4.589944e+002;0.000000e+000
4.609230e+002;0.000000e+000
4.628515e+002;0.000000e+000
4.647801e+002;0.000000e+000
4.667086e+002;0.000000e+000
4.686372e+002;0.000000e+000
4.705657e+002;0.000000e+000
4.724943e+002;0.000000e+000
4.744228e+002;0.000000e+000
4.763513e+002;0.000000e+000
4.782799e+002;0.000000e+000
4.802085e+002;0.000000e+000
4.821370e+002;0.000000e+000
4.840656e+002;0.000000e+000
4.859941e+002;0.000000e+000
4.879226e+002;0.000000e+000
4.898512e+002;0.000000e+000
4.917798e+002;0.000000e+000
4.937083e+002;0.000000e+000
4.956368e+002;0.000000e+000
4.975654e+002;0.000000e+000
4.994939e+002;0.000000e+000
5.014225e+002;0.000000e+000
5.033510e+002;0.000000e+000
5.052796e+002;0.000000e+000
5.072081e+002;0.000000e+000
5.091367e+002;0.000000e+000
5.110652e+002;0.000000e+000
5.129938e+002;0.000000e+000
5.149223e+002;0.000000e+000
5.168509e+002;0.000000e+000
5.187794e+002;0.000000e+000
5.207079e+002;0.000000e+000
5.226365e+002;0.000000e+000
5.245651e+002;0.000000e+000
5.264936e+002;0.000000e+000
5.284222e+002;0.000000e+000
5.303507e+002;0.000000e+000
5.322792e+002;0.000000e+000
5.342078e+002;0.000000e+000
5.361364e+002;0.000000e+000
5.380649e+002;0.000000e+000
5.399935e+002;0.000000e+000
5.419220e+002;0.000000e+000
5.438505e+002;0.000000e+000
5.457791e+002;0.000000e+000
5.477076e+002;0.000000e+000
5.496362e+002;0.000000e+000
5.515648e+002;0.000000e+000
5.534933e+002;0.000000e+000
5.554218e+002;0.000000e+000
5.573504e+002;0.000000e+000
5.592789e+002;0.000000e+000
5.612075e+002;0.000000e+000
5.631360e+002;0.000000e+000
5.650646e+002;0.000000e+000
5.669931e+002;0.000000e+000
5.689217e+002;0.000000e+000
5.708502e+002;0.000000e+000
5.727787e+002;0.000000e+000
5.747073e+002;0.000000e+000
5.766359e+002;0.000000e+000
5.785644e+002;0.000000e+000
5.804930e+002;0.000000e+000
5.824215e+002;0.000000e+000
5.843500e+002;0.000000e+000
5.862786e+002;0.000000e+000
5.882072e+002;0.000000e+000
5.901357e+002;0.000000e+000
5.920643e+002;0.000000e+000
5.939928e+002;0.000000e+000
5.959213e+002;0.000000e+000
5.978499e+002;0.000000e+000
5.997784e+002;8.354509e-002
6.017070e+002;8.389585e-002
6.036355e+002;9.050161e-002
6.055641e+002;9.482522e-002
6.074926e+002;9.555471e-002
6.094211e+002;9.505033e-002
6.113497e+002;9.458733e-002
6.132783e+002;9.275568e-002
6.152068e+002;9.049337e-002
6.171354e+002;9.227294e-002
6.190639e+002;9.487572e-002
6.209924e+002;9.382533e-002
6.229210e+002;9.500658e-002
6.248495e+002;9.347332e-002
6.267781e+002;9.004395e-002
6.287067e+002;9.384013e-002
6.306352e+002;1.027522e-001
6.325637e+002;1.044905e-001
6.344923e+002;9.704663e-002
6.364208e+002;9.493038e-002
6.383494e+002;9.588490e-002
6.402780e+002;9.665558e-002
6.422065e+002;9.642673e-002
6.441350e+002;9.642255e-002
6.460636e+002;9.798127e-002
6.479921e+002;9.906663e-002
6.499207e+002;9.909281e-002
6.518492e+002;9.937996e-002
6.537778e+002;1.018758e-001
6.557063e+002;1.044997e-001
6.576349e+002;1.064308e-001
6.595634e+002;1.080421e-001
6.614919e+002;1.108631e-001
6.634205e+002;1.109477e-001
6.653491e+002;1.094215e-001
6.672776e+002;1.113664e-001
6.692062e+002;1.152260e-001
6.711347e+002;1.178211e-001
6.730632e+002;1.201572e-001
6.749918e+002;1.237623e-001
6.769203e+002;1.288271e-001
6.788489e+002;1.331272e-001
6.807775e+002;1.358540e-001
6.827060e+002;1.368012e-001
6.846345e+002;1.362647e-001
6.865631e+002;1.370791e-001
6.884916e+002;1.397184e-001
6.904202e+002;1.435300e-001
6.923488e+002;1.491364e-001
6.942773e+002;1.566305e-001
6.962058e+002;1.667081e-001
6.981344e+002;1.803317e-001
7.000629e+002;1.959536e-001
7.019915e+002;2.116203e-001
7.039200e+002;2.253761e-001
7.058486e+002;2.392689e-001
7.077771e+002;2.535905e-001
7.097057e+002;2.697551e-001
7.116342e+002;2.915668e-001
7.135627e+002;3.184441e-001
7.154913e+002;3.542380e-001
7.174199e+002;4.026607e-001
7.193484e+002;4.564903e-001
7.212770e+002;5.054142e-001
7.232055e+002;5.378465e-001
7.251340e+002;5.335311e-001
7.270626e+002;4.867817e-001
7.289911e+002;4.214433e-001
7.309197e+002;3.591809e-001
7.328483e+002;3.060383e-001
7.347768e+002;2.568158e-001
7.367053e+002;2.109955e-001
7.386339e+002;1.710761e-001
7.405624e+002;1.396315e-001
7.424910e+002;1.181770e-001
7.444196e+002;1.045460e-001
7.463481e+002;9.550410e-002
7.482766e+002;8.979424e-002
7.502052e+002;8.696614e-002
7.521337e+002;8.524648e-002
7.540623e+002;8.463155e-002
7.559908e+002;8.429685e-002
7.579194e+002;8.432736e-002
7.598479e+002;8.506367e-002
7.617765e+002;8.622251e-002
7.637050e+002;8.800018e-002
7.656335e+002;8.957093e-002
7.675621e+002;9.109716e-002
7.694907e+002;9.295715e-002
7.714192e+002;9.552688e-002
7.733478e+002;9.770986e-002
7.752763e+002;9.969973e-002
7.772048e+002;1.018211e-001
7.791334e+002;1.036409e-001
7.810620e+002;1.061577e-001
7.829905e+002;1.096629e-001
7.849191e+002;1.137594e-001
7.868476e+002;1.184908e-001
7.887761e+002;1.239765e-001
7.907047e+002;1.292432e-001
7.926332e+002;1.302773e-001
7.945618e+002;1.251738e-001
7.964903e+002;1.165920e-001
7.984189e+002;1.096405e-001
8.003474e+002;1.074508e-001
8.022759e+002;1.079712e-001
8.042045e+002;1.086349e-001
8.061331e+002;1.092673e-001
8.080616e+002;1.097022e-001
8.099902e+002;1.094419e-001
8.119187e+002;1.097634e-001
8.138472e+002;1.109628e-001
8.157758e+002;1.126197e-001
8.177043e+002;1.134927e-001
8.196329e+002;1.135970e-001
8.215615e+002;1.139584e-001
8.234900e+002;1.152491e-001
8.254185e+002;1.176193e-001
8.273471e+002;1.199203e-001
8.292756e+002;1.225423e-001
8.312042e+002;1.255636e-001
8.331328e+002;1.287914e-001
8.350613e+002;1.323547e-001
8.369898e+002;1.363398e-001
8.389184e+002;1.411032e-001
8.408469e+002;1.456920e-001
8.427755e+002;1.498104e-001
8.447040e+002;1.546891e-001
8.466326e+002;1.582336e-001
8.485611e+002;1.584185e-001
8.504897e+002;1.564473e-001
8.524182e+002;1.536953e-001
8.543467e+002;1.525931e-001
8.562753e+002;1.530442e-001
8.582039e+002;1.528729e-001
8.601324e+002;1.533424e-001
8.620610e+002;1.561852e-001
8.639895e+002;1.612136e-001
8.659180e+002;1.704603e-001
8.678466e+002;1.870731e-001
8.697751e+002;2.112427e-001
8.717037e+002;2.317955e-001
8.736323e+002;2.322833e-001
8.755608e+002;2.169083e-001
8.774893e+002;1.983481e-001
8.794179e+002;1.803114e-001
8.813464e+002;1.635423e-001
8.832750e+002;1.489309e-001
8.852036e+002;1.373866e-001
8.871321e+002;1.288580e-001
8.890606e+002;1.231971e-001
8.909892e+002;1.198258e-001
8.929177e+002;1.184867e-001
8.948463e+002;1.181743e-001
8.967748e+002;1.181640e-001
8.987034e+002;1.180866e-001
9.006319e+002;1.176106e-001
9.025605e+002;1.167678e-001
9.044890e+002;1.152898e-001
9.064175e+002;1.131007e-001
9.083461e+002;1.105800e-001
9.102747e+002;1.086040e-001
9.122032e+002;1.070779e-001
9.141318e+002;1.055736e-001
9.160603e+002;1.050138e-001
9.179888e+002;1.051809e-001
9.199174e+002;1.050267e-001
9.218459e+002;1.052834e-001
9.237745e+002;1.058348e-001
9.257031e+002;1.066090e-001
9.276316e+002;1.073826e-001
9.295601e+002;1.080272e-001
9.314887e+002;1.088866e-001
9.334172e+002;1.098607e-001
9.353458e+002;1.109937e-001
9.372744e+002;1.120232e-001
9.392029e+002;1.131061e-001
9.411314e+002;1.148216e-001
9.430600e+002;1.163598e-001
9.449885e+002;1.177883e-001
9.469171e+002;1.195662e-001
9.488456e+002;1.213814e-001
9.507742e+002;1.234937e-001
9.527027e+002;1.263612e-001
9.546313e+002;1.294865e-001
9.565598e+002;1.325482e-001
9.584883e+002;1.359751e-001
9.604169e+002;1.396362e-001
9.623455e+002;1.431815e-001
9.642740e+002;1.463289e-001
9.662026e+002;1.490440e-001
9.681311e+002;1.514772e-001
9.700596e+002;1.528476e-001
9.719882e+002;1.523547e-001
9.739167e+002;1.503624e-001
9.758453e+002;1.480289e-001
9.777739e+002;1.451106e-001
9.797024e+002;1.420109e-001
9.816309e+002;1.395782e-001
9.835595e+002;1.378597e-001
9.854880e+002;1.366862e-001
9.874166e+002;1.359951e-001
9.893452e+002;1.357127e-001
9.912737e+002;1.360155e-001
9.932022e+002;1.365626e-001
9.951307e+002;1.373747e-001
9.970593e+002;1.389509e-001
9.989879e+002;1.409914e-001
1.000916e+003;1.434161e-001
1.002845e+003;1.468749e-001
1.004773e+003;1.515828e-001
1.006702e+003;1.581986e-001
1.008631e+003;1.685512e-001
1.010559e+003;1.846025e-001
1.012488e+003;2.109302e-001
1.014416e+003;2.482511e-001
1.016345e+003;2.834159e-001
1.018273e+003;2.944707e-001
1.020202e+003;2.758861e-001
1.022130e+003;2.433429e-001
1.024059e+003;2.106139e-001
1.025988e+003;1.833456e-001
1.027916e+003;1.646524e-001
1.029845e+003;1.549166e-001
1.031773e+003;1.519515e-001
1.033702e+003;1.524417e-001
1.035630e+003;1.544386e-001
1.037559e+003;1.571172e-001
1.039487e+003;1.600093e-001
1.041416e+003;1.628305e-001
1.043344e+003;1.648018e-001
1.045273e+003;1.658678e-001
1.047202e+003;1.668008e-001
1.049130e+003;1.675399e-001
1.051059e+003;1.681165e-001
1.052987e+003;1.693690e-001
1.054916e+003;1.711588e-001
1.056844e+003;1.736200e-001
1.058773e+003;1.772679e-001
1.060701e+003;1.825888e-001
1.062630e+003;1.898432e-001
1.064558e+003;1.987050e-001
1.066487e+003;2.082767e-001
1.068416e+003;2.193430e-001
1.070344e+003;2.319826e-001
1.072273e+003;2.471072e-001
1.074201e+003;2.642338e-001
1.076130e+003;2.849365e-001
1.078058e+003;3.104590e-001
1.079987e+003;3.381170e-001
1.081915e+003;3.650206e-001
1.083844e+003;3.899645e-001
1.085773e+003;4.118694e-001
1.087701e+003;4.305390e-001
1.089630e+003;4.481139e-001
1.091558e+003;4.645652e-001
1.093487e+003;4.778827e-001
1.095415e+003;4.887370e-001
1.097344e+003;4.937499e-001
1.099272e+003;4.897719e-001
1.101201e+003;4.771392e-001
1.103129e+003;4.567556e-001
1.105058e+003;4.304415e-001
1.106987e+003;4.024684e-001
1.108915e+003;3.776575e-001
1.110844e+003;3.610146e-001
1.112772e+003;3.546494e-001
1.114701e+003;3.544961e-001
1.116629e+003;3.534650e-001
1.118558e+003;3.477610e-001
1.120486e+003;3.375020e-001
1.122415e+003;3.243851e-001
1.124344e+003;3.084347e-001
1.126272e+003;2.909370e-001
1.128201e+003;2.734140e-001
1.130129e+003;2.560512e-001
1.132058e+003;2.386621e-001
1.133986e+003;2.217591e-001
1.135915e+003;2.071403e-001
1.137843e+003;1.946803e-001
1.139772e+003;1.829221e-001
1.141700e+003;1.724251e-001
1.143629e+003;1.640826e-001
1.145557e+003;1.576436e-001
1.147486e+003;1.525939e-001
1.149415e+003;1.484022e-001
1.151343e+003;1.447433e-001
1.153272e+003;1.415904e-001
1.155200e+003;1.386409e-001
1.157129e+003;1.359006e-001
1.159057e+003;1.339048e-001
1.160986e+003;1.335456e-001
1.162914e+003;1.347211e-001
1.164843e+003;1.364462e-001
1.166771e+003;1.388325e-001
1.168700e+003;1.421910e-001
1.170629e+003;1.456488e-001
1.172557e+003;1.476263e-001
1.174486e+003;1.480806e-001
1.176414e+003;1.469290e-001
1.178343e+003;1.441080e-001
1.180271e+003;1.401322e-001
1.182200e+003;1.359787e-001
1.184128e+003;1.325341e-001
1.186057e+003;1.308248e-001
1.187986e+003;1.308368e-001
1.189914e+003;1.318340e-001
1.191843e+003;1.341508e-001
1.193771e+003;1.376617e-001
1.195700e+003;1.415558e-001
1.197628e+003;1.454653e-001
1.199557e+003;1.498262e-001
1.201485e+003;1.547301e-001
1.203414e+003;1.600223e-001
1.205343e+003;1.658412e-001
1.207271e+003;1.722459e-001
1.209200e+003;1.788004e-001
1.211128e+003;1.858602e-001
1.213057e+003;1.939288e-001
1.214985e+003;2.031131e-001
1.216914e+003;2.131838e-001
1.218842e+003;2.240888e-001
1.220771e+003;2.354763e-001
1.222699e+003;2.474713e-001
1.224628e+003;2.614104e-001
1.226557e+003;2.779553e-001
1.228485e+003;2.989756e-001
1.230414e+003;3.261115e-001
1.232342e+003;3.592646e-001
1.234271e+003;3.979751e-001
1.236199e+003;4.407637e-001
1.238128e+003;4.837390e-001
1.240056e+003;5.214564e-001
1.241985e+003;5.495130e-001
1.243913e+003;5.652933e-001
1.245842e+003;5.691575e-001
1.247771e+003;5.631847e-001
1.249699e+003;5.509924e-001
1.251628e+003;5.360319e-001
1.253556e+003;5.211212e-001
1.255485e+003;5.080377e-001
1.257413e+003;4.966408e-001
1.259342e+003;4.845913e-001
1.261270e+003;4.696645e-001
1.263199e+003;4.516226e-001
1.265127e+003;4.300978e-001
1.267056e+003;4.060920e-001
1.268985e+003;3.811679e-001
1.270913e+003;3.571386e-001
1.272842e+003;3.355755e-001
1.274770e+003;3.171105e-001
1.276699e+003;3.014296e-001
1.278627e+003;2.876219e-001
1.280556e+003;2.753103e-001
1.282484e+003;2.640441e-001
1.284413e+003;2.530562e-001
1.286342e+003;2.419106e-001
1.288270e+003;2.298849e-001
1.290199e+003;2.176176e-001
1.292127e+003;2.054493e-001
1.294056e+003;1.933688e-001
1.295984e+003;1.815282e-001
1.297913e+003;1.701637e-001
1.299841e+003;1.594342e-001
1.301770e+003;1.502471e-001
1.303698e+003;1.428416e-001
1.305627e+003;1.367253e-001
1.307556e+003;1.313612e-001
1.309484e+003;1.261694e-001
1.311413e+003;1.214263e-001
1.313341e+003;1.173777e-001
1.315270e+003;1.137873e-001
1.317198e+003;1.107781e-001
1.319127e+003;1.084012e-001
1.321055e+003;1.063853e-001
1.322984e+003;1.053708e-001
1.324912e+003;1.060816e-001
1.326841e+003;1.093521e-001
1.328770e+003;1.167858e-001
1.330698e+003;1.295816e-001
1.332627e+003;1.477444e-001
1.334555e+003;1.681420e-001
1.336484e+003;1.848171e-001
1.338412e+003;1.921176e-001
1.340341e+003;1.876872e-001
1.342269e+003;1.737259e-001
1.344198e+003;1.547974e-001
1.346126e+003;1.358496e-001
1.348055e+003;1.201281e-001
1.349984e+003;1.083842e-001
1.351912e+003;1.001552e-001
1.353841e+003;9.462725e-002
1.355769e+003;9.128605e-002
1.357698e+003;8.959220e-002
1.359626e+003;8.910169e-002
1.361555e+003;9.001859e-002
1.363483e+003;9.204336e-002
1.365412e+003;9.462189e-002
1.367341e+003;9.719643e-002
1.369269e+003;9.877785e-002
1.371198e+003;9.898218e-002
1.373126e+003;9.843566e-002
1.375055e+003;9.777368e-002
1.376983e+003;9.690459e-002
1.378912e+003;9.620185e-002
1.380840e+003;9.594556e-002
1.382769e+003;9.608493e-002
1.384698e+003;9.641746e-002
1.386626e+003;9.684160e-002
1.388555e+003;9.758958e-002
1.390483e+003;9.894764e-002
1.392412e+003;1.012907e-001
1.394340e+003;1.044914e-001
1.396269e+003;1.091522e-001
1.398197e+003;1.156360e-001
1.400126e+003;1.239900e-001
1.402054e+003;1.351486e-001
1.403983e+003;1.491258e-001
1.405911e+003;1.640614e-001
1.407840e+003;1.744739e-001
1.409769e+003;1.735045e-001
1.411697e+003;1.595914e-001
1.413626e+003;1.385287e-001
1.415554e+003;1.173664e-001
1.417483e+003;1.006506e-001
1.419411e+003;8.920681e-002
1.421340e+003;8.253089e-002
1.423268e+003;7.902750e-002
1.425197e+003;7.761327e-002
1.427125e+003;7.772319e-002
1.429054e+003;7.877661e-002
1.430983e+003;8.071709e-002
1.432911e+003;8.330996e-002
1.434840e+003;8.580067e-002
1.436768e+003;8.782939e-002
1.438697e+003;8.986661e-002
1.440625e+003;9.161566e-002
1.442554e+003;9.322971e-002
1.444482e+003;9.521599e-002
1.446411e+003;9.723369e-002
1.448340e+003;9.930737e-002
1.450268e+003;1.014454e-001
1.452197e+003;1.029358e-001
1.454125e+003;1.036753e-001
1.456054e+003;1.039199e-001
1.457982e+003;1.038205e-001
1.459911e+003;1.032775e-001
1.461839e+003;1.023569e-001
1.463768e+003;1.017068e-001
1.465697e+003;1.012294e-001
1.467625e+003;1.017321e-001
1.469554e+003;1.033695e-001
1.471482e+003;1.040367e-001
1.473411e+003;1.026586e-001
1.475339e+003;1.000864e-001
1.477268e+003;9.703942e-002
1.479196e+003;9.358629e-002
1.481125e+003;8.962058e-002
1.483053e+003;8.572526e-002
1.484982e+003;8.211329e-002
1.486911e+003;7.882611e-002
1.488839e+003;7.628065e-002
1.490768e+003;7.474751e-002
1.492696e+003;7.426211e-002
1.494625e+003;7.468434e-002
1.496553e+003;7.680045e-002
1.498482e+003;8.123835e-002
1.500410e+003;8.814924e-002
1.502339e+003;9.737223e-002
1.504267e+003;1.045892e-001
1.506196e+003;1.040475e-001
1.508125e+003;9.661787e-002
1.510053e+003;8.845313e-002
1.511982e+003;8.324185e-002
1.513910e+003;8.093612e-002
1.515839e+003;8.038451e-002
1.517767e+003;8.093800e-002
1.519696e+003;8.130771e-002
1.521624e+003;8.138495e-002
1.523553e+003;8.183617e-002
1.525481e+003;8.254179e-002
1.527410e+003;8.318438e-002
1.529339e+003;8.338366e-002
1.531267e+003;8.297608e-002
1.533196e+003;8.235406e-002
1.535124e+003;8.137480e-002
1.537053e+003;7.998554e-002
1.538981e+003;7.859166e-002
1.540910e+003;7.758998e-002
1.542838e+003;7.687595e-002
1.544767e+003;7.619909e-002
1.546695e+003;7.580048e-002
1.548624e+003;7.574201e-002
1.550553e+003;7.557893e-002
1.552481e+003;7.529054e-002
1.554410e+003;7.492012e-002
1.556338e+003;7.472165e-002
1.558267e+003;7.469619e-002
1.560195e+003;7.499639e-002
1.562124e+003;7.565074e-002
1.564052e+003;7.626015e-002
1.565981e+003;7.689295e-002
1.567910e+003;7.798652e-002
1.569838e+003;7.983384e-002
1.571767e+003;8.243049e-002
1.573695e+003;8.531173e-002
1.575624e+003;8.821927e-002
1.577552e+003;9.055308e-002
1.579481e+003;9.121925e-002
1.581409e+003;8.973312e-002
1.583338e+003;8.679329e-002
1.585266e+003;8.392515e-002
1.587195e+003;8.179229e-002
1.589124e+003;8.027870e-002
1.591052e+003;7.961882e-002
1.592981e+003;7.965357e-002
1.594909e+003;8.049365e-002
1.596838e+003;8.226928e-002
1.598766e+003;8.412261e-002
1.600695e+003;8.567856e-002
1.602623e+003;8.702152e-002
1.604552e+003;8.790390e-002
1.606480e+003;8.845739e-002
1.608409e+003;8.891822e-002
1.610338e+003;8.956800e-002
1.612266e+003;9.052855e-002
1.614195e+003;9.100682e-002
1.616123e+003;9.021113e-002
1.618052e+003;8.854388e-002
1.619980e+003;8.680174e-002
1.621909e+003;8.554741e-002
1.623837e+003;8.496534e-002
1.625766e+003;8.472058e-002
1.627694e+003;8.453050e-002
1.629623e+003;8.462857e-002
1.631552e+003;8.511115e-002
1.633480e+003;8.538129e-002
1.635409e+003;8.559075e-002
1.637337e+003;8.637000e-002
1.639266e+003;8.751974e-002
1.641194e+003;8.852267e-002
1.643123e+003;8.947541e-002
1.645051e+003;9.048112e-002
1.646980e+003;9.156334e-002
1.648909e+003;9.277122e-002
1.650837e+003;9.402766e-002
1.652766e+003;9.546050e-002
1.654694e+003;9.752438e-002
1.656623e+003;9.974842e-002
1.658551e+003;1.021180e-001
1.660480e+003;1.049876e-001
1.662408e+003;1.081808e-001
1.664337e+003;1.116459e-001
1.666266e+003;1.155577e-001
1.668194e+003;1.195001e-001
1.670123e+003;1.232421e-001
1.672051e+003;1.271067e-001
1.673980e+003;1.312350e-001
1.675908e+003;1.355769e-001
1.677837e+003;1.403938e-001
1.679765e+003;1.455518e-001
1.681694e+003;1.505881e-001
1.683622e+003;1.550456e-001
1.685551e+003;1.598622e-001
1.687479e+003;1.655204e-001
1.689408e+003;1.723396e-001
1.691337e+003;1.808959e-001
1.693265e+003;1.911526e-001
1.695194e+003;2.040712e-001
1.697122e+003;2.209503e-001
1.699051e+003;2.421450e-001
1.700979e+003;2.691556e-001
1.702908e+003;3.026923e-001
1.704836e+003;3.445591e-001
1.706765e+003;3.950205e-001
1.708693e+003;4.502880e-001
1.710622e+003;5.027112e-001
1.712551e+003;5.407162e-001
1.714479e+003;5.544477e-001
1.716408e+003;5.448904e-001
1.718336e+003;5.179018e-001
1.720265e+003;4.827427e-001
1.722193e+003;4.446709e-001
1.724122e+003;4.061209e-001
1.726050e+003;3.688655e-001
1.727979e+003;3.338765e-001
1.729908e+003;3.013593e-001
1.731836e+003;2.716001e-001
1.733765e+003;2.432165e-001
1.735693e+003;2.162973e-001
1.737622e+003;1.913461e-001
1.739550e+003;1.674674e-001
1.741479e+003;1.450546e-001
1.743407e+003;1.250946e-001
1.745336e+003;1.083132e-001
1.747265e+003;9.499767e-002
1.749193e+003;8.458827e-002
1.751122e+003;7.677463e-002
1.753050e+003;7.125964e-002
1.754979e+003;6.755620e-002
1.756907e+003;6.493360e-002
1.758836e+003;6.314342e-002
1.760764e+003;6.181749e-002
1.762693e+003;6.070848e-002
1.764621e+003;5.988942e-002
1.766550e+003;5.914878e-002
1.768479e+003;5.861945e-002
1.770407e+003;5.825543e-002
1.772336e+003;5.789611e-002
1.774264e+003;5.786333e-002
1.776193e+003;5.771757e-002
1.778121e+003;5.736751e-002
1.780050e+003;5.722611e-002
1.781978e+003;5.724894e-002
1.783907e+003;5.712319e-002
1.785835e+003;5.699619e-002
1.787764e+003;5.705283e-002
1.789693e+003;5.708495e-002
1.791621e+003;5.698172e-002
1.793550e+003;5.676352e-002
1.795478e+003;5.659043e-002
1.797407e+003;5.659820e-002
1.799335e+003;5.686972e-002
1.801264e+003;5.700499e-002
1.803192e+003;5.689688e-002
1.805121e+003;5.678573e-002
1.807049e+003;5.693080e-002
1.808978e+003;5.688736e-002
1.810907e+003;5.684528e-002
1.812835e+003;5.689095e-002
1.814764e+003;5.694715e-002
1.816692e+003;5.714640e-002
1.818621e+003;5.727797e-002
1.820549e+003;5.718226e-002
1.822478e+003;5.722116e-002
1.824406e+003;5.707104e-002
1.826335e+003;5.674189e-002
1.828264e+003;5.654721e-002
1.830192e+003;5.600328e-002
1.832121e+003;5.552776e-002
1.834049e+003;5.543480e-002
1.835978e+003;5.517366e-002
1.837906e+003;5.465531e-002
1.839835e+003;5.413145e-002
1.841763e+003;5.371264e-002
1.843692e+003;5.323048e-002
1.845620e+003;5.270255e-002
1.847549e+003;5.215025e-002
1.849478e+003;5.139281e-002
1.851406e+003;5.052638e-002
1.853335e+003;5.004872e-002
1.855263e+003;4.965333e-002
1.857192e+003;4.914726e-002
1.859120e+003;4.860877e-002
1.861049e+003;4.784871e-002
1.862977e+003;4.720587e-002
1.864906e+003;4.701483e-002
1.866834e+003;4.682417e-002
1.868763e+003;4.646190e-002
1.870692e+003;4.609209e-002
1.872620e+003;4.570437e-002
1.874549e+003;4.531277e-002
1.876477e+003;4.509403e-002
1.878406e+003;4.509068e-002
1.880334e+003;4.504588e-002
1.882263e+003;4.492177e-002
1.884191e+003;4.482981e-002
1.886120e+003;4.481629e-002
1.888048e+003;4.487375e-002
1.889977e+003;4.499769e-002
1.891906e+003;4.516833e-002
1.893834e+003;4.521760e-002
1.895763e+003;4.522554e-002
1.897691e+003;4.545332e-002
1.899620e+003;4.574656e-002
1.901548e+003;4.596525e-002
1.903477e+003;4.603988e-002
1.905405e+003;4.598787e-002
1.907334e+003;4.612311e-002
1.909262e+003;4.642064e-002
1.911191e+003;4.672627e-002
1.913120e+003;4.704241e-002
1.915048e+003;4.735469e-002
1.916977e+003;4.763516e-002
1.918905e+003;4.799393e-002
1.920834e+003;4.820914e-002
1.922762e+003;4.864791e-002
1.924691e+003;4.924226e-002
1.926619e+003;4.974732e-002
1.928548e+003;5.033622e-002
1.930477e+003;5.101460e-002
1.932405e+003;5.163560e-002
1.934334e+003;5.203762e-002
1.936262e+003;5.257350e-002
1.938191e+003;5.337021e-002
1.940119e+003;5.428356e-002
1.942048e+003;5.496167e-002
1.943976e+003;5.532783e-002
1.945905e+003;5.571904e-002
1.947833e+003;5.623859e-002
1.949762e+003;5.674668e-002
1.951691e+003;5.703764e-002
1.953619e+003;5.716461e-002
1.955548e+003;5.728902e-002
1.957476e+003;5.731722e-002
1.959405e+003;5.714900e-002
1.961333e+003;5.683392e-002
1.963262e+003;5.634070e-002
1.965190e+003;5.577137e-002
1.967119e+003;5.513450e-002
1.969047e+003;5.436053e-002
1.970976e+003;5.364673e-002
1.972905e+003;5.306336e-002
1.974833e+003;5.256120e-002
1.976762e+003;5.199030e-002
1.978690e+003;5.154874e-002
1.980619e+003;5.118217e-002
1.982547e+003;5.069157e-002
1.984476e+003;5.028912e-002
1.986404e+003;5.004039e-002
1.988333e+003;4.969649e-002
1.990261e+003;4.933197e-002
1.992190e+003;4.894739e-002
1.994119e+003;4.840856e-002
1.996047e+003;4.795955e-002
1.997976e+003;4.765313e-002
1.999904e+003;4.725386e-002
2.001833e+003;4.687879e-002
2.003761e+003;4.638440e-002
2.005690e+003;4.593148e-002
2.007618e+003;4.550497e-002
2.009547e+003;4.531420e-002
2.011476e+003;4.532751e-002
2.013404e+003;4.507991e-002
2.015333e+003;4.454380e-002
2.017261e+003;4.414986e-002
2.019190e+003;4.396089e-002
2.021118e+003;4.370685e-002
2.023047e+003;4.367673e-002
2.024975e+003;4.371037e-002
2.026904e+003;4.351126e-002
2.028833e+003;4.307512e-002
2.030761e+003;4.268226e-002
2.032690e+003;4.256892e-002
2.034618e+003;4.273348e-002
2.036547e+003;4.300905e-002
2.038475e+003;4.329522e-002
2.040404e+003;4.344911e-002
2.042332e+003;4.358185e-002
2.044261e+003;4.373173e-002
2.046189e+003;4.383329e-002
2.048118e+003;4.400669e-002
2.050047e+003;4.426230e-002
2.051975e+003;4.444912e-002
2.053904e+003;4.471528e-002
2.055832e+003;4.506113e-002
2.057761e+003;4.549243e-002
2.059689e+003;4.594783e-002
2.061618e+003;4.644457e-002
2.063546e+003;4.693841e-002
2.065475e+003;4.722615e-002
2.067404e+003;4.770228e-002
2.069332e+003;4.831859e-002
2.071260e+003;4.870996e-002
2.073189e+003;4.885761e-002
2.075118e+003;4.900600e-002
2.077046e+003;4.938672e-002
2.078975e+003;4.972124e-002
2.080903e+003;4.981405e-002
2.082832e+003;4.991842e-002
2.084760e+003;5.011390e-002
2.086689e+003;5.008467e-002
2.088617e+003;5.029269e-002
2.090546e+003;5.045641e-002
2.092475e+003;5.038359e-002
2.094403e+003;5.034512e-002
2.096332e+003;5.049478e-002
2.098260e+003;5.052091e-002
2.100189e+003;5.056071e-002
2.102117e+003;5.067329e-002
2.104046e+003;5.069693e-002
2.105974e+003;5.056715e-002
2.107903e+003;5.055251e-002
2.109832e+003;5.069254e-002
2.111760e+003;5.070367e-002
2.113688e+003;5.054697e-002
2.115617e+003;5.026449e-002
2.117546e+003;4.991949e-002
2.119474e+003;4.961774e-002
2.121403e+003;4.951104e-002
2.123331e+003;4.934726e-002
2.125260e+003;4.916815e-002
2.127188e+003;4.884445e-002
2.129117e+003;4.845971e-002
2.131045e+003;4.818726e-002
2.132974e+003;4.799175e-002
2.134903e+003;4.772750e-002
2.136831e+003;4.732165e-002
2.138760e+003;4.719826e-002
2.140688e+003;4.696728e-002
2.142617e+003;4.665513e-002
2.144545e+003;4.642263e-002
2.146474e+003;4.614076e-002
2.148402e+003;4.583179e-002
2.150331e+003;4.559969e-002
2.152260e+003;4.541826e-002
2.154188e+003;4.497160e-002
2.156117e+003;4.443492e-002
2.158045e+003;4.399818e-002
2.159974e+003;4.381833e-002
2.161902e+003;4.354225e-002
2.163831e+003;4.303861e-002
2.165759e+003;4.273542e-002
2.167688e+003;4.248757e-002
2.169616e+003;4.224560e-002
2.171545e+003;4.219583e-002
2.173474e+003;4.210901e-002
2.175402e+003;4.179322e-002
2.177331e+003;4.162015e-002
2.179259e+003;4.166512e-002
2.181188e+003;4.172698e-002
2.183116e+003;4.164809e-002
2.185045e+003;4.145091e-002
2.186973e+003;4.130735e-002
2.188902e+003;4.131649e-002
2.190831e+003;4.140447e-002
2.192759e+003;4.142142e-002
2.194688e+003;4.142740e-002
2.196616e+003;4.162643e-002
2.198545e+003;4.181540e-002
2.200473e+003;4.182354e-002
2.202402e+003;4.171607e-002
2.204330e+003;4.190965e-002
2.206259e+003;4.243248e-002
2.208188e+003;4.272237e-002
2.210116e+003;4.280284e-002
2.212044e+003;4.277575e-002
2.213973e+003;4.284295e-002
2.215902e+003;4.298673e-002
2.217830e+003;4.308511e-002
2.219759e+003;4.309785e-002
2.221687e+003;4.303974e-002
2.223616e+003;4.310227e-002
2.225544e+003;4.320199e-002
2.227473e+003;4.352928e-002
2.229401e+003;4.369648e-002
2.231330e+003;4.367369e-002
2.233259e+003;4.380199e-002
2.235187e+003;4.404977e-002
2.237116e+003;4.418511e-002
2.239044e+003;4.437605e-002
2.240973e+003;4.473908e-002
2.242901e+003;4.498160e-002
2.244830e+003;4.510973e-002
2.246758e+003;4.565195e-002
2.248687e+003;4.597155e-002
2.250615e+003;4.589966e-002
2.252544e+003;4.585790e-002
2.254473e+003;4.579346e-002
2.256401e+003;4.570625e-002
2.258330e+003;4.575716e-002
2.260258e+003;4.588412e-002
2.262187e+003;4.583371e-002
2.264115e+003;4.566778e-002
2.266044e+003;4.560466e-002
2.267972e+003;4.554714e-002
2.269901e+003;4.552216e-002
2.271830e+003;4.571059e-002
2.273758e+003;4.588430e-002
2.275687e+003;4.570470e-002
2.277615e+003;4.561611e-002
2.279544e+003;4.580421e-002
2.281472e+003;4.614379e-002
2.283401e+003;4.648208e-002
2.285329e+003;4.641323e-002
2.287258e+003;4.619044e-002
2.289187e+003;4.574052e-002
2.291115e+003;4.519653e-002
2.293043e+003;4.497597e-002
2.294972e+003;4.482863e-002
2.296901e+003;4.438343e-002
2.298829e+003;4.377549e-002
2.300758e+003;4.307340e-002
2.302686e+003;4.259330e-002
2.304615e+003;4.213197e-002
2.306543e+003;4.179494e-002
2.308472e+003;4.181077e-002
2.310400e+003;4.186112e-002
2.312329e+003;4.161023e-002
2.314258e+003;4.145689e-002
2.316186e+003;4.137834e-002
2.318115e+003;4.131478e-002
2.320043e+003;4.151868e-002
2.321972e+003;4.192158e-002
2.323900e+003;4.220620e-002
2.325829e+003;4.237943e-002
2.327757e+003;4.248388e-002
2.329686e+003;4.255624e-002
2.331615e+003;4.272452e-002
2.333543e+003;4.256870e-002
2.335472e+003;4.252934e-002
2.337400e+003;4.279897e-002
2.339329e+003;4.285872e-002
2.341257e+003;4.283001e-002
2.343186e+003;4.304962e-002
2.345114e+003;4.339902e-002
2.347043e+003;4.361855e-002
2.348971e+003;4.372781e-002
2.350900e+003;4.390869e-002
2.352829e+003;4.427474e-002
2.354757e+003;4.460085e-002
2.356686e+003;4.489554e-002
2.358614e+003;4.525756e-002
2.360543e+003;4.546741e-002
2.362471e+003;4.569999e-002
2.364400e+003;4.601469e-002
2.366328e+003;4.628966e-002
2.368257e+003;4.636692e-002
2.370186e+003;4.660685e-002
2.372114e+003;4.672073e-002
2.374042e+003;4.670033e-002
2.375971e+003;4.685783e-002
2.377900e+003;4.708772e-002
2.379828e+003;4.724821e-002
2.381757e+003;4.741001e-002
2.383685e+003;4.750196e-002
2.385614e+003;4.736792e-002
2.387542e+003;4.719172e-002
2.389471e+003;4.720022e-002
2.391399e+003;4.699822e-002
2.393328e+003;4.684583e-002
2.395257e+003;4.688647e-002
2.397185e+003;4.681029e-002
2.399114e+003;4.662219e-002
2.401042e+003;4.646858e-002
2.402971e+003;4.650564e-002
2.404899e+003;4.650073e-002
2.406828e+003;4.632648e-002
2.408756e+003;4.598606e-002
2.410685e+003;4.554243e-002
2.412614e+003;4.512266e-002
2.414542e+003;4.501530e-002
2.416471e+003;4.497766e-002
2.418399e+003;4.483242e-002
2.420328e+003;4.450506e-002
2.422256e+003;4.413944e-002
2.424185e+003;4.389069e-002
2.426113e+003;4.360515e-002
2.428042e+003;4.323614e-002
2.429970e+003;4.267937e-002
2.431899e+003;4.250654e-002
2.433828e+003;4.254918e-002
2.435756e+003;4.223710e-002
2.437685e+003;4.200946e-002
2.439613e+003;4.200753e-002
2.441542e+003;4.182124e-002
2.443470e+003;4.162727e-002
2.445399e+003;4.148018e-002
2.447327e+003;4.130698e-002
2.449256e+003;4.098606e-002
2.451185e+003;4.078023e-002
2.453113e+003;4.095912e-002
2.455042e+003;4.095835e-002
2.456970e+003;4.090101e-002
2.458899e+003;4.100259e-002
2.460827e+003;4.088390e-002
2.462756e+003;4.066778e-002
2.464684e+003;4.073175e-002
2.466613e+003;4.089285e-002
2.468542e+003;4.099295e-002
2.470470e+003;4.117531e-002
2.472398e+003;4.126158e-002
2.474327e+003;4.123870e-002
2.476256e+003;4.127725e-002
2.478184e+003;4.136664e-002
2.480113e+003;4.154912e-002
2.482041e+003;4.173292e-002
2.483970e+003;4.209488e-002
2.485898e+003;4.258898e-002
2.487827e+003;4.274343e-002
2.489755e+003;4.270065e-002
2.491684e+003;4.280650e-002
2.493613e+003;4.312108e-002
2.495541e+003;4.359122e-002
2.497470e+003;4.382621e-002
2.499398e+003;4.365731e-002
2.501327e+003;4.350943e-002
2.503255e+003;4.386737e-002
2.505184e+003;4.399059e-002
2.507112e+003;4.379212e-002
2.509041e+003;4.381639e-002
2.510969e+003;4.410471e-002
2.512898e+003;4.452625e-002
2.514827e+003;4.478701e-002
2.516755e+003;4.465127e-002
2.518684e+003;4.465075e-002
2.520612e+003;4.503717e-002
2.522541e+003;4.517502e-002
2.524469e+003;4.517531e-002
2.526398e+003;4.540652e-002
2.528326e+003;4.578160e-002
2.530255e+003;4.581088e-002
2.532184e+003;4.555943e-002
2.534112e+003;4.564706e-002
2.536041e+003;4.583311e-002
2.537969e+003;4.580535e-002
2.539898e+003;4.584479e-002
2.541826e+003;4.573960e-002
2.543755e+003;4.561401e-002
2.545683e+003;4.572712e-002
2.547612e+003;4.591137e-002
2.549541e+003;4.600666e-002
2.551469e+003;4.607794e-002
2.553397e+003;4.594617e-002
2.555326e+003;4.599815e-002
2.557255e+003;4.611663e-002
2.559183e+003;4.595568e-002
2.561112e+003;4.574854e-002
2.563040e+003;4.558015e-002
2.564969e+003;4.564963e-002
2.566897e+003;4.581250e-002
2.568826e+003;4.574891e-002
2.570754e+003;4.575208e-002
2.572683e+003;4.584225e-002
2.574612e+003;4.582873e-002
2.576540e+003;4.582457e-002
2.578469e+003;4.567941e-002
2.580397e+003;4.578271e-002
2.582326e+003;4.597874e-002
2.584254e+003;4.582980e-002
2.586183e+003;4.568383e-002
2.588111e+003;4.553963e-002
2.590040e+003;4.517182e-002
2.591969e+003;4.479935e-002
2.593897e+003;4.472292e-002
2.595826e+003;4.472464e-002
2.597754e+003;4.457754e-002
2.599683e+003;4.408604e-002
2.601611e+003;4.349434e-002
2.603540e+003;4.351719e-002
2.605468e+003;4.361049e-002
2.607397e+003;4.329742e-002
2.609325e+003;4.275487e-002
2.611254e+003;4.251359e-002
2.613183e+003;4.250965e-002
2.615111e+003;4.275227e-002
2.617040e+003;4.299903e-002
2.618968e+003;4.312489e-002
2.620897e+003;4.306254e-002
2.622825e+003;4.270266e-002
2.624754e+003;4.263727e-002
2.626682e+003;4.284990e-002
2.628611e+003;4.298776e-002
2.630540e+003;4.280097e-002
2.632468e+003;4.247595e-002
2.634396e+003;4.210766e-002
2.636325e+003;4.184528e-002
2.638254e+003;4.165848e-002
2.640182e+003;4.119746e-002
2.642111e+003;4.082274e-002
2.644039e+003;4.070195e-002
2.645968e+003;4.060349e-002
2.647896e+003;4.028698e-002
2.649825e+003;3.988446e-002
2.651753e+003;3.985054e-002
2.653682e+003;3.998567e-002
2.655611e+003;3.982904e-002
2.657539e+003;3.964550e-002
2.659468e+003;3.956075e-002
2.661396e+003;3.944034e-002
2.663325e+003;3.940790e-002
2.665253e+003;3.954583e-002
2.667182e+003;3.957341e-002
2.669110e+003;3.951095e-002
2.671039e+003;3.949916e-002
2.672968e+003;3.958485e-002
2.674896e+003;3.988755e-002
2.676825e+003;4.012687e-002
2.678753e+003;4.033192e-002
2.680682e+003;4.012468e-002
2.682610e+003;4.006414e-002
2.684539e+003;3.996525e-002
2.686467e+003;3.971982e-002
2.688396e+003;3.977839e-002
2.690324e+003;3.991966e-002
2.692253e+003;4.007530e-002
2.694182e+003;4.017419e-002
2.696110e+003;4.022376e-002
2.698039e+003;4.019327e-002
2.699967e+003;4.019763e-002
2.701896e+003;4.018916e-002
2.703824e+003;4.006367e-002
2.705753e+003;4.033384e-002
2.707681e+003;4.059363e-002
2.709610e+003;4.068299e-002
2.711539e+003;4.087760e-002
2.713467e+003;4.095700e-002
2.715396e+003;4.123269e-002
2.717324e+003;4.131737e-002
2.719253e+003;4.105533e-002
2.721181e+003;4.089806e-002
2.723110e+003;4.101636e-002
2.725038e+003;4.133308e-002
2.726967e+003;4.186247e-002
2.728896e+003;4.227128e-002
2.730824e+003;4.243017e-002
2.732752e+003;4.239945e-002
2.734681e+003;4.246368e-002
2.736610e+003;4.261018e-002
2.738538e+003;4.258503e-002
2.740467e+003;4.255160e-002
2.742395e+003;4.266040e-002
2.744324e+003;4.289554e-002
2.746252e+003;4.295019e-002
2.748181e+003;4.269111e-002
2.750109e+003;4.255295e-002
2.752038e+003;4.247975e-002
2.753967e+003;4.249119e-002
2.755895e+003;4.251158e-002
2.757824e+003;4.254188e-002
2.759752e+003;4.251776e-002
2.761681e+003;4.251341e-002
2.763609e+003;4.274668e-002
2.765538e+003;4.295355e-002
2.767466e+003;4.297251e-002
2.769395e+003;4.289536e-002
2.771323e+003;4.284862e-002
2.773252e+003;4.305720e-002
2.775181e+003;4.324486e-002
2.777109e+003;4.338606e-002
2.779038e+003;4.370689e-002
2.780966e+003;4.387163e-002
2.782895e+003;4.404827e-002
2.784823e+003;4.434232e-002
2.786752e+003;4.466085e-002
2.788680e+003;4.494356e-002
2.790609e+003;4.514961e-002
2.792538e+003;4.558688e-002
2.794466e+003;4.614194e-002
2.796395e+003;4.642577e-002
2.798323e+003;4.662588e-002
2.800252e+003;4.689777e-002
2.802180e+003;4.715767e-002
2.804109e+003;4.744504e-002
2.806037e+003;4.769762e-002
2.807966e+003;4.764596e-002
2.809895e+003;4.719860e-002
2.811823e+003;4.672815e-002
2.813751e+003;4.668941e-002
2.815680e+003;4.658833e-002
2.817609e+003;4.627930e-002
2.819537e+003;4.606542e-002
2.821466e+003;4.594588e-002
2.823394e+003;4.590552e-002
2.825323e+003;4.596168e-002
2.827251e+003;4.639590e-002
2.829180e+003;4.701727e-002
2.831108e+003;4.745391e-002
2.833037e+003;4.769947e-002
2.834966e+003;4.787690e-002
2.836894e+003;4.808901e-002
2.838823e+003;4.861485e-002
2.840751e+003;4.910104e-002
2.842680e+003;4.952047e-002
2.844608e+003;4.979871e-002
2.846537e+003;5.001157e-002
2.848465e+003;5.040190e-002
2.850394e+003;5.069637e-002
2.852323e+003;5.075692e-002
2.854251e+003;5.113524e-002
2.856180e+003;5.173066e-002
2.858108e+003;5.252167e-002
2.860037e+003;5.311353e-002
2.861965e+003;5.355508e-002
2.863894e+003;5.408840e-002
2.865822e+003;5.432261e-002
2.867751e+003;5.441904e-002
2.869679e+003;5.484609e-002
2.871608e+003;5.532971e-002
2.873536e+003;5.568514e-002
2.875465e+003;5.618304e-002
2.877394e+003;5.628955e-002
2.879322e+003;5.640936e-002
2.881251e+003;5.683913e-002
2.883179e+003;5.724183e-002
2.885108e+003;5.753066e-002
2.887036e+003;5.788945e-002
2.888965e+003;5.836461e-002
2.890893e+003;5.843420e-002
2.892822e+003;5.851499e-002
2.894750e+003;5.883243e-002
2.896679e+003;5.917772e-002
2.898608e+003;5.995268e-002
2.900536e+003;6.077677e-002
2.902465e+003;6.144175e-002
2.904393e+003;6.209635e-002
2.906322e+003;6.204868e-002
2.908250e+003;6.179354e-002
2.910179e+003;6.169694e-002
2.912107e+003;6.140235e-002
2.914036e+003;6.079415e-002
2.915965e+003;5.963714e-002
2.917893e+003;5.853360e-002
2.919822e+003;5.782877e-002
2.921750e+003;5.715811e-002
2.923679e+003;5.643211e-002
2.925607e+003;5.588064e-002
2.927536e+003;5.560202e-002
2.929464e+003;5.559113e-002
2.931393e+003;5.576289e-002
2.933322e+003;5.643630e-002
2.935250e+003;5.687486e-002
2.937178e+003;5.708869e-002
2.939107e+003;5.812962e-002
2.941036e+003;5.939060e-002
2.942964e+003;6.048376e-002
2.944893e+003;6.132802e-002
2.946821e+003;6.206799e-002
2.948750e+003;6.273766e-002
2.950678e+003;6.370658e-002
2.952607e+003;6.470302e-002
2.954535e+003;6.570437e-002
2.956464e+003;6.687106e-002
2.958393e+003;6.796902e-002
2.960321e+003;6.876655e-002
2.962250e+003;6.958329e-002
2.964178e+003;7.026462e-002
2.966107e+003;7.076101e-002
2.968035e+003;7.097071e-002
2.969964e+003;7.090263e-002
2.971892e+003;7.091320e-002
2.973821e+003;7.076713e-002
2.975750e+003;7.046208e-002
2.977678e+003;7.011671e-002
2.979607e+003;6.951391e-002
2.981535e+003;6.860758e-002
2.983464e+003;6.751928e-002
2.985392e+003;6.656452e-002
2.987321e+003;6.605701e-002
2.989249e+003;6.546444e-002
2.991178e+003;6.464834e-002
2.993106e+003;6.415731e-002
2.995035e+003;6.374883e-002
2.996964e+003;6.328826e-002
2.998892e+003;6.268843e-002
3.000821e+003;6.206844e-002
3.002749e+003;6.171516e-002
3.004678e+003;6.127578e-002
3.006606e+003;6.088879e-002
3.008535e+003;6.070314e-002
3.010463e+003;6.003119e-002
3.012392e+003;5.925541e-002
3.014321e+003;5.882553e-002
3.016249e+003;5.841544e-002
3.018177e+003;5.796082e-002
3.020106e+003;5.738010e-002
3.022035e+003;5.651966e-002
3.023963e+003;5.569380e-002
3.025892e+003;5.495276e-002
3.027820e+003;5.428739e-002
3.029749e+003;5.357666e-002
3.031677e+003;5.264774e-002
3.033606e+003;5.199870e-002
3.035534e+003;5.177374e-002
3.037463e+003;5.166908e-002
3.039392e+003;5.161377e-002
3.041320e+003;5.191158e-002
3.043249e+003;5.276229e-002
3.045177e+003;5.346456e-002
3.047106e+003;5.427545e-002
3.049034e+003;5.562782e-002
3.050963e+003;5.679022e-002
3.052891e+003;5.701236e-002
3.054820e+003;5.713691e-002
3.056749e+003;5.743285e-002
3.058677e+003;5.734051e-002
3.060606e+003;5.711733e-002
3.062534e+003;5.713166e-002
3.064463e+003;5.736664e-002
3.066391e+003;5.745146e-002
3.068320e+003;5.728399e-002
3.070248e+003;5.750910e-002
3.072177e+003;5.778948e-002
3.074105e+003;5.758820e-002
3.076034e+003;5.722789e-002
3.077963e+003;5.728353e-002
3.079891e+003;5.754965e-002
3.081820e+003;5.774395e-002
3.083748e+003;5.767458e-002
3.085677e+003;5.731835e-002
3.087605e+003;5.681065e-002
3.089534e+003;5.644317e-002
3.091462e+003;5.614530e-002
3.093391e+003;5.572902e-002
3.095320e+003;5.560627e-002
3.097248e+003;5.580113e-002
3.099177e+003;5.574745e-002
3.101105e+003;5.560465e-002
3.103034e+003;5.559396e-002
3.104962e+003;5.577227e-002
3.106891e+003;5.584981e-002
3.108819e+003;5.575347e-002
3.110748e+003;5.524297e-002
3.112677e+003;5.446937e-002
3.114605e+003;5.395535e-002
3.116533e+003;5.309016e-002
3.118462e+003;5.256636e-002
3.120391e+003;5.245803e-002
3.122319e+003;5.207979e-002
3.124248e+003;5.185307e-002
3.126176e+003;5.156851e-002
3.128105e+003;5.134989e-002
3.130033e+003;5.132524e-002
3.131962e+003;5.110140e-002
3.133890e+003;5.041109e-002
3.135819e+003;4.970125e-002
3.137748e+003;4.913090e-002
3.139676e+003;4.850091e-002
3.141605e+003;4.800259e-002
3.143533e+003;4.771929e-002
3.145462e+003;4.752148e-002
3.147390e+003;4.727547e-002
3.149319e+003;4.668694e-002
3.151247e+003;4.606014e-002
3.153176e+003;4.599538e-002
3.155104e+003;4.612580e-002
3.157033e+003;4.594706e-002
3.158962e+003;4.597881e-002
3.160890e+003;4.594743e-002
3.162819e+003;4.564275e-002
3.164747e+003;4.527753e-002
3.166676e+003;4.500431e-002
3.168604e+003;4.497718e-002
3.170533e+003;4.523958e-002
3.172461e+003;4.514759e-002
3.174390e+003;4.446480e-002
3.176319e+003;4.406844e-002
3.178247e+003;4.400925e-002
3.180176e+003;4.405979e-002
3.182104e+003;4.435972e-002
3.184033e+003;4.444160e-002
3.185961e+003;4.414051e-002
3.187890e+003;4.396328e-002
3.189818e+003;4.408876e-002
3.191747e+003;4.414722e-002
3.193676e+003;4.390366e-002
3.195604e+003;4.368981e-002
3.197532e+003;4.379960e-002
3.199461e+003;4.351445e-002
3.201390e+003;4.316463e-002
3.203318e+003;4.322341e-002
3.205247e+003;4.331005e-002
3.207175e+003;4.322502e-002
3.209104e+003;4.273023e-002
3.211032e+003;4.260178e-002
3.212961e+003;4.306268e-002
3.214889e+003;4.319032e-002
3.216818e+003;4.302906e-002
3.218747e+003;4.309298e-002
3.220675e+003;4.323398e-002
3.222604e+003;4.322344e-002
3.224532e+003;4.326696e-002
3.226461e+003;4.333458e-002
3.228389e+003;4.316763e-002
3.230318e+003;4.311234e-002
3.232246e+003;4.327502e-002
3.234175e+003;4.313089e-002
3.236104e+003;4.276558e-002
3.238032e+003;4.249784e-002
3.239961e+003;4.241713e-002
3.241889e+003;4.231931e-002
3.243818e+003;4.196884e-002
3.245746e+003;4.172931e-002
3.247675e+003;4.168715e-002
3.249603e+003;4.187192e-002
3.251532e+003;4.187232e-002
3.253460e+003;4.170684e-002
3.255389e+003;4.167442e-002
3.257318e+003;4.156331e-002
3.259246e+003;4.123673e-002
3.261175e+003;4.116868e-002
3.263103e+003;4.124245e-002
3.265032e+003;4.133173e-002
3.266960e+003;4.147336e-002
3.268889e+003;4.149265e-002
3.270817e+003;4.114649e-002
3.272746e+003;4.092649e-002
3.274675e+003;4.074238e-002
3.276603e+003;4.075879e-002
3.278531e+003;4.109331e-002
3.280460e+003;4.123400e-002
3.282389e+003;4.132553e-002
3.284317e+003;4.143520e-002
3.286246e+003;4.147978e-002
3.288174e+003;4.124063e-002
3.290103e+003;4.129251e-002
3.292031e+003;4.122999e-002
3.293960e+003;4.106290e-002
3.295888e+003;4.160137e-002
3.297817e+003;4.189589e-002
3.299746e+003;4.185316e-002
3.301674e+003;4.176014e-002
3.303603e+003;4.152951e-002
3.305531e+003;4.110610e-002
3.307460e+003;4.102106e-002
3.309388e+003;4.139835e-002
3.311317e+003;4.105427e-002
3.313245e+003;4.083971e-002
3.315174e+003;4.112795e-002
3.317103e+003;4.114343e-002
3.319031e+003;4.087997e-002
3.320960e+003;4.078474e-002
3.322888e+003;4.128934e-002
3.324817e+003;4.159273e-002
3.326745e+003;4.157851e-002
3.328674e+003;4.132506e-002
3.330602e+003;4.115174e-002
3.332531e+003;4.167394e-002
3.334459e+003;4.174773e-002
3.336388e+003;4.164568e-002
3.338317e+003;4.172771e-002
3.340245e+003;4.137309e-002
3.342174e+003;4.112304e-002
3.344102e+003;4.115527e-002
3.346031e+003;4.121108e-002
3.347959e+003;4.100008e-002
3.349888e+003;4.079479e-002
3.351816e+003;4.054394e-002
3.353745e+003;4.009896e-002
3.355674e+003;3.972628e-002
3.357602e+003;3.942281e-002
3.359531e+003;3.904361e-002
3.361459e+003;3.884308e-002
3.363388e+003;3.912602e-002
3.365316e+003;3.952279e-002
3.367245e+003;3.940134e-002
3.369173e+003;3.920612e-002
3.371102e+003;3.947053e-002
3.373031e+003;3.930792e-002
3.374959e+003;3.864463e-002
3.376887e+003;3.845906e-002
3.378816e+003;3.867777e-002
3.380745e+003;3.922421e-002
3.382673e+003;3.954910e-002
3.384602e+003;3.960720e-002
3.386530e+003;3.934231e-002
3.388459e+003;3.929273e-002
3.390387e+003;3.922320e-002
3.392316e+003;3.950170e-002
3.394244e+003;4.038747e-002
3.396173e+003;4.090964e-002
3.398102e+003;4.105012e-002
3.400030e+003;4.105121e-002
3.401959e+003;4.101676e-002
3.403887e+003;4.137036e-002
3.405816e+003;4.223552e-002
3.407744e+003;4.244651e-002
3.409673e+003;4.251809e-002
3.411601e+003;4.371312e-002
3.413530e+003;4.522241e-002
3.415458e+003;4.629235e-002
3.417387e+003;4.724045e-002
3.419316e+003;4.819226e-002
3.421244e+003;4.858658e-002
3.423173e+003;4.902966e-002
3.425101e+003;4.974334e-002
3.427030e+003;5.020446e-002
3.428958e+003;5.053896e-002
3.430887e+003;5.068152e-002
3.432815e+003;5.051384e-002
3.434744e+003;5.037332e-002
3.436673e+003;5.026219e-002
3.438601e+003;4.978425e-002
3.440530e+003;4.906464e-002
3.442458e+003;4.838633e-002
3.444387e+003;4.769802e-002
3.446315e+003;4.719091e-002
3.448244e+003;4.674966e-002
3.450172e+003;4.581371e-002
3.452101e+003;4.474870e-002
3.454030e+003;4.414785e-002
3.455958e+003;4.375328e-002
3.457886e+003;4.340766e-002
3.459815e+003;4.262904e-002
3.461744e+003;4.154905e-002
3.463672e+003;4.100780e-002
3.465601e+003;4.109404e-002
3.467529e+003;4.071087e-002
3.469458e+003;3.959105e-002
3.471386e+003;3.928170e-002
3.473315e+003;3.925979e-002
3.475243e+003;3.879112e-002
3.477172e+003;3.875033e-002
3.479101e+003;3.865420e-002
3.481029e+003;3.856790e-002
3.482958e+003;3.814320e-002
3.484886e+003;3.785252e-002
3.486815e+003;3.822106e-002
3.488743e+003;3.826792e-002
3.490672e+003;3.778579e-002
3.492600e+003;3.756680e-002
3.494529e+003;3.733716e-002
3.496458e+003;3.740751e-002
3.498386e+003;3.750914e-002
3.500315e+003;3.744803e-002
3.502243e+003;3.790169e-002
3.504172e+003;3.806858e-002
3.506100e+003;3.797191e-002
3.508029e+003;3.838286e-002
3.509957e+003;3.855703e-002
3.511886e+003;3.827461e-002
3.513814e+003;3.829538e-002
3.515743e+003;3.837595e-002
3.517672e+003;3.843158e-002
3.519600e+003;3.858220e-002
3.521529e+003;3.865561e-002
3.523457e+003;3.862120e-002
3.525386e+003;3.897141e-002
3.527314e+003;3.946109e-002
3.529243e+003;3.937336e-002
3.531171e+003;3.907265e-002
3.533100e+003;3.905133e-002
3.535029e+003;3.915481e-002
3.536957e+003;3.939673e-002
3.538885e+003;3.962281e-002
3.540814e+003;3.952467e-002
3.542743e+003;3.956630e-002
3.544671e+003;3.983482e-002
3.546600e+003;3.967970e-002
3.548528e+003;3.976331e-002
3.550457e+003;4.033203e-002
3.552385e+003;4.002570e-002
3.554314e+003;3.922642e-002
3.556242e+003;3.895799e-002
3.558171e+003;3.868571e-002
3.560100e+003;3.847148e-002
3.562028e+003;3.839104e-002
3.563957e+003;3.832719e-002
3.565885e+003;3.834359e-002
3.567814e+003;3.811325e-002
3.569742e+003;3.755741e-002
3.571671e+003;3.737078e-002
3.573599e+003;3.730235e-002
3.575528e+003;3.730712e-002
3.577457e+003;3.703980e-002
3.579385e+003;3.652526e-002
3.581314e+003;3.630683e-002
3.583242e+003;3.585321e-002
3.585171e+003;3.536333e-002
3.587099e+003;3.522094e-002
3.589028e+003;3.483232e-002
3.590956e+003;3.426792e-002
3.592885e+003;3.419314e-002
3.594813e+003;3.457531e-002
3.596742e+003;3.442259e-002
3.598671e+003;3.410708e-002
3.600599e+003;3.404282e-002
3.602528e+003;3.412274e-002
3.604456e+003;3.420680e-002
3.606385e+003;3.402648e-002
3.608313e+003;3.416134e-002
3.610242e+003;3.430457e-002
3.612170e+003;3.403210e-002
3.614099e+003;3.399502e-002
3.616028e+003;3.421895e-002
3.617956e+003;3.424452e-002
3.619885e+003;3.423469e-002
3.621813e+003;3.424903e-002
3.623742e+003;3.460146e-002
3.625670e+003;3.502637e-002
3.627599e+003;3.510123e-002
3.629527e+003;3.471271e-002
3.631456e+003;3.462594e-002
3.633385e+003;3.461697e-002
3.635313e+003;3.424674e-002
3.637241e+003;3.400473e-002
3.639170e+003;3.402400e-002
3.641099e+003;3.383796e-002
3.643027e+003;3.374982e-002
3.644956e+003;3.365940e-002
3.646884e+003;3.350014e-002
3.648813e+003;3.332161e-002
3.650741e+003;3.278326e-002
3.652670e+003;3.243252e-002
3.654598e+003;3.260078e-002
3.656527e+003;3.265647e-002
3.658456e+003;3.252189e-002
3.660384e+003;3.232099e-002
3.662313e+003;3.164116e-002
3.664241e+003;3.105431e-002
3.666170e+003;3.117765e-002
3.668098e+003;3.120115e-002
3.670027e+003;3.102143e-002
3.671955e+003;3.100282e-002
3.673884e+003;3.072011e-002
3.675813e+003;2.991536e-002
3.677741e+003;2.996985e-002
3.679669e+003;3.100456e-002
3.681598e+003;3.157887e-002
3.683527e+003;3.131740e-002
3.685455e+003;3.116540e-002
3.687384e+003;3.113109e-002
3.689312e+003;3.085228e-002
3.691241e+003;3.061283e-002
3.693169e+003;3.048524e-002
3.695098e+003;3.036583e-002
3.697026e+003;2.997503e-002
3.698955e+003;2.975838e-002
3.700884e+003;2.972280e-002
3.702812e+003;2.950000e-002
3.704741e+003;2.894426e-002
3.706669e+003;2.858782e-002
3.708598e+003;2.868536e-002
3.710526e+003;2.864760e-002
3.712455e+003;2.841901e-002
3.714383e+003;2.808262e-002
3.716312e+003;2.793932e-002
3.718240e+003;2.799154e-002
3.720169e+003;2.783827e-002
3.722098e+003;2.794317e-002
3.724026e+003;2.863231e-002
3.725955e+003;2.863899e-002
3.727883e+003;2.837009e-002
3.729812e+003;2.841371e-002
3.731740e+003;2.841803e-002
3.733669e+003;2.877754e-002
3.735597e+003;2.889046e-002
3.737526e+003;2.835655e-002
3.739455e+003;2.814809e-002
3.741383e+003;2.794737e-002
3.743312e+003;2.766767e-002
3.745240e+003;2.793857e-002
3.747169e+003;2.817220e-002
3.749097e+003;2.807167e-002
3.751026e+003;2.825728e-002
3.752954e+003;2.861061e-002
3.754883e+003;2.932364e-002
3.756812e+003;2.984551e-002
3.758740e+003;2.942386e-002
3.760668e+003;2.917772e-002
3.762597e+003;2.950798e-002
3.764526e+003;2.929943e-002
3.766454e+003;2.877616e-002
3.768383e+003;2.876976e-002
3.770311e+003;2.913658e-002
3.772240e+003;2.911107e-002
3.774168e+003;2.847180e-002
3.776097e+003;2.825370e-002
3.778025e+003;2.838506e-002
3.779954e+003;2.839956e-002
3.781883e+003;2.829041e-002
3.783811e+003;2.813706e-002
3.785740e+003;2.809097e-002
3.787668e+003;2.852147e-002
3.789597e+003;2.913920e-002
3.791525e+003;2.901485e-002
3.793454e+003;2.851938e-002
3.795382e+003;2.861744e-002
3.797311e+003;2.885555e-002
3.799240e+003;2.902006e-002
3.801168e+003;2.890318e-002
3.803097e+003;2.903331e-002
3.805025e+003;2.926125e-002
3.806954e+003;2.927660e-002
3.808882e+003;2.927192e-002
3.810811e+003;2.946741e-002
3.812739e+003;2.954450e-002
3.814668e+003;2.896041e-002
3.816596e+003;2.844021e-002
3.818525e+003;2.847594e-002
3.820454e+003;2.867920e-002
3.822382e+003;2.863811e-002
3.824311e+003;2.868851e-002
3.826239e+003;2.922921e-002
3.828168e+003;2.954638e-002
3.830096e+003;2.894231e-002
3.832025e+003;2.850559e-002
3.833953e+003;2.882800e-002
3.835882e+003;2.893972e-002
3.837811e+003;2.850399e-002
3.839739e+003;2.795211e-002
3.841667e+003;2.772523e-002
3.843596e+003;2.801282e-002
3.845525e+003;2.838449e-002
3.847453e+003;2.852108e-002
3.849382e+003;2.833642e-002
3.851310e+003;2.803950e-002
3.853239e+003;2.809171e-002
3.855167e+003;2.811133e-002
3.857096e+003;2.798624e-002
3.859024e+003;2.805566e-002
3.860953e+003;2.854957e-002
3.862882e+003;2.877372e-002
3.864810e+003;2.859185e-002
3.866739e+003;2.870168e-002
3.868667e+003;2.892010e-002
3.870596e+003;2.876940e-002
3.872524e+003;2.867333e-002
3.874453e+003;2.858297e-002
3.876381e+003;2.870483e-002
3.878310e+003;2.897447e-002
3.880239e+003;2.908595e-002
3.882167e+003;2.904248e-002
3.884096e+003;2.902881e-002
3.886024e+003;2.878877e-002
3.887953e+003;2.873828e-002
3.889881e+003;2.870841e-002
3.891810e+003;2.883777e-002
3.893738e+003;2.933959e-002
3.895667e+003;2.992438e-002
3.897595e+003;2.997067e-002
3.899524e+003;3.010968e-002
3.901453e+003;3.053551e-002
3.903381e+003;3.026838e-002
3.905310e+003;2.972382e-002
3.907238e+003;2.973976e-002
3.909167e+003;2.999765e-002
3.911095e+003;3.008841e-002
3.913024e+003;3.012118e-002
3.914952e+003;3.004413e-002
3.916881e+003;3.025971e-002
3.918810e+003;3.016398e-002
3.920738e+003;3.000219e-002
3.922667e+003;3.027545e-002
3.924595e+003;3.025523e-002
3.926524e+003;3.018540e-002
3.928452e+003;3.017524e-002
3.930381e+003;3.044529e-002
3.932309e+003;3.058673e-002
3.934238e+003;3.057212e-002
3.936167e+003;3.063071e-002
3.938095e+003;3.058997e-002
3.940023e+003;3.040066e-002
3.941952e+003;3.062474e-002
3.943881e+003;3.088309e-002
3.945809e+003;3.115529e-002
3.947738e+003;3.119773e-002
3.949666e+003;3.071328e-002
3.951595e+003;3.064828e-002
3.953523e+003;3.072402e-002
3.955452e+003;3.077698e-002
3.957380e+003;3.115857e-002
3.959309e+003;3.143159e-002
3.961238e+003;3.152856e-002
3.963166e+003;3.158022e-002
3.965095e+003;3.146653e-002
3.967023e+003;3.132887e-002
3.968952e+003;3.129376e-002
3.970880e+003;3.131644e-002
3.972809e+003;3.166693e-002
3.974737e+003;3.211794e-002
3.976666e+003;3.192625e-002
3.978594e+003;3.175593e-002
3.980523e+003;3.180085e-002
3.982452e+003;3.192322e-002
3.984380e+003;3.168165e-002
3.986309e+003;3.115348e-002
3.988237e+003;3.127848e-002
3.990166e+003;3.151826e-002
3.992094e+003;3.168150e-002
3.994023e+003;3.178499e-002
3.995951e+003;3.178153e-002
3.997880e+003;3.149589e-002
3.999809e+003;3.146443e-002
4.001737e+003;0.000000e+000
