3.992094e+002;0.000000e+000
4.011380e+002;0.000000e+000
4.030665e+002;0.000000e+000
4.049951e+002;0.000000e+000
4.069236e+002;0.000000e+000
4.088522e+002;0.000000e+000
4.107807e+002;0.000000e+000
4.127093e+002;0.000000e+000
4.146378e+002;0.000000e+000
4.165664e+002;0.000000e+000
4.184949e+002;0.000000e+000
4.204235e+002;0.000000e+000
4.223520e+002;0.000000e+000
4.242806e+002;0.000000e+000
4.262091e+002;0.000000e+000
4.281377e+002;0.000000e+000
4.300662e+002;0.000000e+000
4.319948e+002;0.000000e+000
4.339233e+002;0.000000e+000
4.358519e+002;0.000000e+000
4.377804e+002;0.000000e+000
4.397090e+002;0.000000e+000
4.416375e+002;0.000000e+000
4.435660e+002;0.000000e+000
4.454946e+002;0.000000e+000
4.474232e+002;0.000000e+000
4.493517e+002;0.000000e+000
4.512802e+002;0.000000e+000
4.532088e+002;0.000000e+000
4.551373e+002;0.000000e+000
4.570659e+002;0.000000e+000
4.589944e+002;0.000000e+000
4.609230e+002;0.000000e+000
4.628515e+002;0.000000e+000
4.647801e+002;0.000000e+000
4.667086e+002;0.000000e+000
4.686372e+002;0.000000e+000
4.705657e+002;0.000000e+000
4.724943e+002;0.000000e+000
4.744228e+002;0.000000e+000
4.763513e+002;0.000000e+000
4.782799e+002;0.000000e+000
4.802085e+002;0.000000e+000
4.821370e+002;0.000000e+000
4.840656e+002;0.000000e+000
4.859941e+002;0.000000e+000
4.879226e+002;0.000000e+000
4.898512e+002;0.000000e+000
4.917798e+002;0.000000e+000
4.937083e+002;0.000000e+000
4.956368e+002;0.000000e+000
4.975654e+002;0.000000e+000
4.994939e+002;0.000000e+000
5.014225e+002;0.000000e+000
5.033510e+002;0.000000e+000
5.052796e+002;0.000000e+000
5.072081e+002;0.000000e+000
5.091367e+002;0.000000e+000
5.110652e+002;0.000000e+000
5.129938e+002;0.000000e+000
5.149223e+002;0.000000e+000
5.168509e+002;0.000000e+000
5.187794e+002;0.000000e+000
5.207079e+002;0.000000e+000
5.226365e+002;0.000000e+000
5.245651e+002;0.000000e+000
5.264936e+002;0.000000e+000
5.284222e+002;0.000000e+000
5.303507e+002;0.000000e+000
5.322792e+002;0.000000e+000
5.342078e+002;0.000000e+000
5.361364e+002;0.000000e+000
5.380649e+002;0.000000e+000
5.399935e+002;0.000000e+000
5.419220e+002;0.000000e+000
5.438505e+002;0.000000e+000
5.457791e+002;0.000000e+000
5.477076e+002;0.000000e+000
5.496362e+002;0.000000e+000
5.515648e+002;0.000000e+000
5.534933e+002;0.000000e+000
5.554218e+002;0.000000e+000
5.573504e+002;0.000000e+000
5.592789e+002;0.000000e+000
5.612075e+002;0.000000e+000
5.631360e+002;0.000000e+000
5.650646e+002;0.000000e+000
5.669931e+002;0.000000e+000
5.689217e+002;0.000000e+000
5.708502e+002;0.000000e+000
5.727787e+002;0.000000e+000
5.747073e+002;0.000000e+000
5.766359e+002;0.000000e+000
5.785644e+002;0.000000e+000
5.804930e+002;0.000000e+000
5.824215e+002;0.000000e+000
5.843500e+002;0.000000e+000
5.862786e+002;0.000000e+000
5.882072e+002;0.000000e+000
5.901357e+002;0.000000e+000
5.920643e+002;0.000000e+000
5.939928e+002;0.000000e+000
5.959213e+002;0.000000e+000
5.978499e+002;0.000000e+000
5.997784e+002;9.825992e-002
6.017070e+002;1.050290e-001
6.036355e+002;9.884753e-002
6.055641e+002;9.174506e-002
6.074926e+002;8.905841e-002
6.094211e+002;9.176183e-002
6.113497e+002;9.699600e-002
6.132783e+002;9.747353e-002
6.152068e+002;9.563395e-002
6.171354e+002;9.471876e-002
6.190639e+002;9.736323e-002
6.209924e+002;9.908760e-002
6.229210e+002;1.039624e-001
6.248495e+002;1.110086e-001
6.267781e+002;1.101654e-001
6.287067e+002;1.078079e-001
6.306352e+002;1.129200e-001
6.325637e+002;1.158282e-001
6.344923e+002;1.152231e-001
6.364208e+002;1.089440e-001
6.383494e+002;1.042069e-001
6.402780e+002;1.064734e-001
6.422065e+002;1.115704e-001
6.441350e+002;1.118204e-001
6.460636e+002;1.098095e-001
6.479921e+002;1.107512e-001
6.499207e+002;1.137429e-001
6.518492e+002;1.144895e-001
6.537778e+002;1.120990e-001
6.557063e+002;1.111497e-001
6.576349e+002;1.133030e-001
6.595634e+002;1.156163e-001
6.614919e+002;1.156236e-001
6.634205e+002;1.161491e-001
6.653491e+002;1.188250e-001
6.672776e+002;1.194025e-001
6.692062e+002;1.217621e-001
6.711347e+002;1.260793e-001
6.730632e+002;1.296365e-001
6.749918e+002;1.344942e-001
6.769203e+002;1.389160e-001
6.788489e+002;1.425250e-001
6.807775e+002;1.459117e-001
6.827060e+002;1.462296e-001
6.846345e+002;1.462336e-001
6.865631e+002;1.471293e-001
6.884916e+002;1.487000e-001
6.904202e+002;1.522960e-001
6.923488e+002;1.588202e-001
6.942773e+002;1.663054e-001
6.962058e+002;1.761771e-001
6.981344e+002;1.905028e-001
7.000629e+002;2.079930e-001
7.019915e+002;2.237549e-001
7.039200e+002;2.359607e-001
7.058486e+002;2.493715e-001
7.077771e+002;2.665236e-001
7.097057e+002;2.852842e-001
7.116342e+002;3.061538e-001
7.135627e+002;3.328292e-001
7.154913e+002;3.685341e-001
7.174199e+002;4.145862e-001
7.193484e+002;4.678464e-001
7.212770e+002;5.178981e-001
7.232055e+002;5.511383e-001
7.251340e+002;5.444399e-001
7.270626e+002;4.977770e-001
7.289911e+002;4.338719e-001
7.309197e+002;3.709981e-001
7.328483e+002;3.164226e-001
7.347768e+002;2.678105e-001
7.367053e+002;2.234603e-001
7.386339e+002;1.851929e-001
7.405624e+002;1.547210e-001
7.424910e+002;1.322695e-001
7.444196e+002;1.164210e-001
7.463481e+002;1.062861e-001
7.482766e+002;1.009637e-001
7.502052e+002;9.814103e-002
7.521337e+002;9.586589e-002
7.540623e+002;9.536970e-002
7.559908e+002;9.561058e-002
7.579194e+002;9.565084e-002
7.598479e+002;9.598593e-002
7.617765e+002;9.624317e-002
7.637050e+002;9.746026e-002
7.656335e+002;9.941957e-002
7.675621e+002;1.019492e-001
7.694907e+002;1.049426e-001
7.714192e+002;1.080286e-001
7.733478e+002;1.113122e-001
7.752763e+002;1.133205e-001
7.772048e+002;1.151224e-001
7.791334e+002;1.173712e-001
7.810620e+002;1.199230e-001
7.829905e+002;1.227333e-001
7.849191e+002;1.273916e-001
7.868476e+002;1.334183e-001
7.887761e+002;1.394657e-001
7.907047e+002;1.447080e-001
7.926332e+002;1.455735e-001
7.945618e+002;1.393096e-001
7.964903e+002;1.294082e-001
7.984189e+002;1.214961e-001
8.003474e+002;1.180611e-001
8.022759e+002;1.186683e-001
8.042045e+002;1.208841e-001
8.061331e+002;1.223685e-001
8.080616e+002;1.229709e-001
8.099902e+002;1.226867e-001
8.119187e+002;1.228750e-001
8.138472e+002;1.238507e-001
8.157758e+002;1.247677e-001
8.177043e+002;1.257526e-001
8.196329e+002;1.279388e-001
8.215615e+002;1.299852e-001
8.234900e+002;1.310778e-001
8.254185e+002;1.326923e-001
8.273471e+002;1.352054e-001
8.292756e+002;1.388158e-001
8.312042e+002;1.423967e-001
8.331328e+002;1.450299e-001
8.350613e+002;1.480915e-001
8.369898e+002;1.519409e-001
8.389184e+002;1.565589e-001
8.408469e+002;1.610382e-001
8.427755e+002;1.652548e-001
8.447040e+002;1.698297e-001
8.466326e+002;1.729521e-001
8.485611e+002;1.733964e-001
8.504897e+002;1.713436e-001
8.524182e+002;1.689551e-001
8.543467e+002;1.686266e-001
8.562753e+002;1.684567e-001
8.582039e+002;1.680079e-001
8.601324e+002;1.683497e-001
8.620610e+002;1.705184e-001
8.639895e+002;1.758257e-001
8.659180e+002;1.860058e-001
8.678466e+002;2.032342e-001
8.697751e+002;2.282812e-001
8.717037e+002;2.497561e-001
8.736323e+002;2.491562e-001
8.755608e+002;2.305367e-001
8.774893e+002;2.099462e-001
8.794179e+002;1.917467e-001
8.813464e+002;1.751395e-001
8.832750e+002;1.606044e-001
8.852036e+002;1.490037e-001
8.871321e+002;1.403389e-001
8.890606e+002;1.344925e-001
8.909892e+002;1.309638e-001
8.929177e+002;1.292028e-001
8.948463e+002;1.282460e-001
8.967748e+002;1.280958e-001
8.987034e+002;1.287561e-001
9.006319e+002;1.286291e-001
9.025605e+002;1.277315e-001
9.044890e+002;1.261420e-001
9.064175e+002;1.236338e-001
9.083461e+002;1.206526e-001
9.102747e+002;1.177531e-001
9.122032e+002;1.153867e-001
9.141318e+002;1.137336e-001
9.160603e+002;1.127732e-001
9.179888e+002;1.121888e-001
9.199174e+002;1.119196e-001
9.218459e+002;1.122270e-001
9.237745e+002;1.129336e-001
9.257031e+002;1.136392e-001
9.276316e+002;1.142790e-001
9.295601e+002;1.147084e-001
9.314887e+002;1.153077e-001
9.334172e+002;1.162572e-001
9.353458e+002;1.172754e-001
9.372744e+002;1.178374e-001
9.392029e+002;1.181867e-001
9.411314e+002;1.189798e-001
9.430600e+002;1.202734e-001
9.449885e+002;1.220381e-001
9.469171e+002;1.243351e-001
9.488456e+002;1.266088e-001
9.507742e+002;1.287395e-001
9.527027e+002;1.311338e-001
9.546313e+002;1.338762e-001
9.565598e+002;1.370023e-001
9.584883e+002;1.405617e-001
9.604169e+002;1.439237e-001
9.623455e+002;1.470902e-001
9.642740e+002;1.499729e-001
9.662026e+002;1.529050e-001
9.681311e+002;1.554603e-001
9.700596e+002;1.567739e-001
9.719882e+002;1.562708e-001
9.739167e+002;1.540138e-001
9.758453e+002;1.503659e-001
9.777739e+002;1.465771e-001
9.797024e+002;1.433474e-001
9.816309e+002;1.406526e-001
9.835595e+002;1.387792e-001
9.854880e+002;1.376645e-001
9.874166e+002;1.372405e-001
9.893452e+002;1.369991e-001
9.912737e+002;1.367722e-001
9.932022e+002;1.368438e-001
9.951307e+002;1.374240e-001
9.970593e+002;1.386952e-001
9.989879e+002;1.410670e-001
1.000916e+003;1.436449e-001
1.002845e+003;1.466387e-001
1.004773e+003;1.512385e-001
1.006702e+003;1.579285e-001
1.008631e+003;1.674978e-001
1.010559e+003;1.819424e-001
1.012488e+003;2.058031e-001
1.014416e+003;2.402069e-001
1.016345e+003;2.731206e-001
1.018273e+003;2.847274e-001
1.020202e+003;2.693610e-001
1.022130e+003;2.400492e-001
1.024059e+003;2.092723e-001
1.025988e+003;1.822299e-001
1.027916e+003;1.621355e-001
1.029845e+003;1.513516e-001
1.031773e+003;1.482521e-001
1.033702e+003;1.492839e-001
1.035630e+003;1.516467e-001
1.037559e+003;1.541731e-001
1.039487e+003;1.572273e-001
1.041416e+003;1.602761e-001
1.043344e+003;1.622956e-001
1.045273e+003;1.630921e-001
1.047202e+003;1.638136e-001
1.049130e+003;1.651664e-001
1.051059e+003;1.663670e-001
1.052987e+003;1.669969e-001
1.054916e+003;1.687133e-001
1.056844e+003;1.715261e-001
1.058773e+003;1.757581e-001
1.060701e+003;1.812588e-001
1.062630e+003;1.881743e-001
1.064558e+003;1.971241e-001
1.066487e+003;2.068070e-001
1.068416e+003;2.171228e-001
1.070344e+003;2.296901e-001
1.072273e+003;2.442927e-001
1.074201e+003;2.616486e-001
1.076130e+003;2.823828e-001
1.078058e+003;3.066529e-001
1.079987e+003;3.336200e-001
1.081915e+003;3.609755e-001
1.083844e+003;3.856947e-001
1.085773e+003;4.073710e-001
1.087701e+003;4.270326e-001
1.089630e+003;4.446365e-001
1.091558e+003;4.593967e-001
1.093487e+003;4.725709e-001
1.095415e+003;4.831017e-001
1.097344e+003;4.875028e-001
1.099272e+003;4.842887e-001
1.101201e+003;4.730527e-001
1.103129e+003;4.541086e-001
1.105058e+003;4.299128e-001
1.106987e+003;4.032329e-001
1.108915e+003;3.791472e-001
1.110844e+003;3.625506e-001
1.112772e+003;3.543890e-001
1.114701e+003;3.530088e-001
1.116629e+003;3.525507e-001
1.118558e+003;3.484476e-001
1.120486e+003;3.403944e-001
1.122415e+003;3.285363e-001
1.124344e+003;3.138512e-001
1.126272e+003;2.979832e-001
1.128201e+003;2.812781e-001
1.130129e+003;2.639317e-001
1.132058e+003;2.459452e-001
1.133986e+003;2.273673e-001
1.135915e+003;2.099084e-001
1.137843e+003;1.954672e-001
1.139772e+003;1.831099e-001
1.141700e+003;1.718362e-001
1.143629e+003;1.628362e-001
1.145557e+003;1.559843e-001
1.147486e+003;1.506145e-001
1.149415e+003;1.465348e-001
1.151343e+003;1.431842e-001
1.153272e+003;1.403181e-001
1.155200e+003;1.373991e-001
1.157129e+003;1.346315e-001
1.159057e+003;1.329416e-001
1.160986e+003;1.327683e-001
1.162914e+003;1.335678e-001
1.164843e+003;1.350816e-001
1.166771e+003;1.379355e-001
1.168700e+003;1.417881e-001
1.170629e+003;1.455172e-001
1.172557e+003;1.478768e-001
1.174486e+003;1.482426e-001
1.176414e+003;1.466999e-001
1.178343e+003;1.437771e-001
1.180271e+003;1.399180e-001
1.182200e+003;1.363442e-001
1.184128e+003;1.335531e-001
1.186057e+003;1.321173e-001
1.187986e+003;1.322659e-001
1.189914e+003;1.334730e-001
1.191843e+003;1.359105e-001
1.193771e+003;1.396539e-001
1.195700e+003;1.438225e-001
1.197628e+003;1.480508e-001
1.199557e+003;1.525835e-001
1.201485e+003;1.575182e-001
1.203414e+003;1.629488e-001
1.205343e+003;1.691388e-001
1.207271e+003;1.752908e-001
1.209200e+003;1.818403e-001
1.211128e+003;1.892283e-001
1.213057e+003;1.973128e-001
1.214985e+003;2.062676e-001
1.216914e+003;2.162078e-001
1.218842e+003;2.271108e-001
1.220771e+003;2.383597e-001
1.222699e+003;2.501213e-001
1.224628e+003;2.629585e-001
1.226557e+003;2.781367e-001
1.228485e+003;2.970164e-001
1.230414e+003;3.216039e-001
1.232342e+003;3.524089e-001
1.234271e+003;3.891401e-001
1.236199e+003;4.307186e-001
1.238128e+003;4.737671e-001
1.240056e+003;5.126629e-001
1.241985e+003;5.433509e-001
1.243913e+003;5.632840e-001
1.245842e+003;5.704037e-001
1.247771e+003;5.660843e-001
1.249699e+003;5.547311e-001
1.251628e+003;5.406822e-001
1.253556e+003;5.258833e-001
1.255485e+003;5.106114e-001
1.257413e+003;4.971545e-001
1.259342e+003;4.851906e-001
1.261270e+003;4.722981e-001
1.263199e+003;4.555910e-001
1.265127e+003;4.344772e-001
1.267056e+003;4.113583e-001
1.268985e+003;3.874713e-001
1.270913e+003;3.636077e-001
1.272842e+003;3.419858e-001
1.274770e+003;3.239682e-001
1.276699e+003;3.086699e-001
1.278627e+003;2.942842e-001
1.280556e+003;2.810051e-001
1.282484e+003;2.693097e-001
1.284413e+003;2.576825e-001
1.286342e+003;2.457060e-001
1.288270e+003;2.338993e-001
1.290199e+003;2.222261e-001
1.292127e+003;2.105822e-001
1.294056e+003;1.987041e-001
1.295984e+003;1.870440e-001
1.297913e+003;1.755695e-001
1.299841e+003;1.647416e-001
1.301770e+003;1.555524e-001
1.303698e+003;1.484201e-001
1.305627e+003;1.428204e-001
1.307556e+003;1.375600e-001
1.309484e+003;1.326711e-001
1.311413e+003;1.283049e-001
1.313341e+003;1.245602e-001
1.315270e+003;1.212275e-001
1.317198e+003;1.180707e-001
1.319127e+003;1.155592e-001
1.321055e+003;1.139432e-001
1.322984e+003;1.131611e-001
1.324912e+003;1.138453e-001
1.326841e+003;1.168132e-001
1.328770e+003;1.236257e-001
1.330698e+003;1.358740e-001
1.332627e+003;1.535168e-001
1.334555e+003;1.736474e-001
1.336484e+003;1.908919e-001
1.338412e+003;1.994721e-001
1.340341e+003;1.962823e-001
1.342269e+003;1.831385e-001
1.344198e+003;1.640753e-001
1.346126e+003;1.440061e-001
1.348055e+003;1.269414e-001
1.349984e+003;1.143830e-001
1.351912e+003;1.058624e-001
1.353841e+003;1.003494e-001
1.355769e+003;9.681186e-002
1.357698e+003;9.471485e-002
1.359626e+003;9.366497e-002
1.361555e+003;9.385695e-002
1.363483e+003;9.581024e-002
1.365412e+003;9.851679e-002
1.367341e+003;1.006122e-001
1.369269e+003;1.019745e-001
1.371198e+003;1.019993e-001
1.373126e+003;1.006617e-001
1.375055e+003;9.965517e-002
1.376983e+003;9.933223e-002
1.378912e+003;9.914285e-002
1.380840e+003;9.973250e-002
1.382769e+003;1.006654e-001
1.384698e+003;1.012421e-001
1.386626e+003;1.013636e-001
1.388555e+003;1.029654e-001
1.390483e+003;1.055238e-001
1.392412e+003;1.075860e-001
1.394340e+003;1.101364e-001
1.396269e+003;1.149220e-001
1.398197e+003;1.210856e-001
1.400126e+003;1.297100e-001
1.402054e+003;1.410011e-001
1.403983e+003;1.542386e-001
1.405911e+003;1.690938e-001
1.407840e+003;1.803765e-001
1.409769e+003;1.808532e-001
1.411697e+003;1.683517e-001
1.413626e+003;1.472815e-001
1.415554e+003;1.248348e-001
1.417483e+003;1.052397e-001
1.419411e+003;9.212758e-002
1.421340e+003;8.669282e-002
1.423268e+003;8.390389e-002
1.425197e+003;8.282601e-002
1.427125e+003;8.313181e-002
1.429054e+003;8.379565e-002
1.430983e+003;8.563571e-002
1.432911e+003;8.800071e-002
1.434840e+003;8.880901e-002
1.436768e+003;8.973540e-002
1.438697e+003;9.349929e-002
1.440625e+003;9.617543e-002
1.442554e+003;9.773239e-002
1.444482e+003;9.948898e-002
1.446411e+003;1.008800e-001
1.448340e+003;1.024498e-001
1.450268e+003;1.045361e-001
1.452197e+003;1.056014e-001
1.454125e+003;1.043107e-001
1.456054e+003;1.002563e-001
1.457982e+003;1.004363e-001
1.459911e+003;1.035921e-001
1.461839e+003;1.038319e-001
1.463768e+003;1.017367e-001
1.465697e+003;1.014159e-001
1.467625e+003;1.036754e-001
1.469554e+003;1.063046e-001
1.471482e+003;1.067367e-001
1.473411e+003;1.059474e-001
1.475339e+003;1.051009e-001
1.477268e+003;1.033782e-001
1.479196e+003;1.010364e-001
1.481125e+003;9.783137e-002
1.483053e+003;9.470133e-002
1.484982e+003;9.091898e-002
1.486911e+003;8.678386e-002
1.488839e+003;8.363639e-002
1.490768e+003;8.245965e-002
1.492696e+003;8.274522e-002
1.494625e+003;8.204801e-002
1.496553e+003;8.294752e-002
1.498482e+003;8.832695e-002
1.500410e+003;9.644224e-002
1.502339e+003;1.059161e-001
1.504267e+003;1.102946e-001
1.506196e+003;1.066837e-001
1.508125e+003;1.014975e-001
1.510053e+003;9.624912e-002
1.511982e+003;9.140463e-002
1.513910e+003;8.904169e-002
1.515839e+003;8.769690e-002
1.517767e+003;8.767046e-002
1.519696e+003;8.648563e-002
1.521624e+003;8.580172e-002
1.523553e+003;8.837584e-002
1.525481e+003;8.971622e-002
1.527410e+003;9.088369e-002
1.529339e+003;9.197624e-002
1.531267e+003;9.143395e-002
1.533196e+003;8.946344e-002
1.535124e+003;8.881702e-002
1.537053e+003;8.550505e-002
1.538981e+003;7.929385e-002
1.540910e+003;7.803287e-002
1.542838e+003;8.017030e-002
1.544767e+003;8.124742e-002
1.546695e+003;8.230232e-002
1.548624e+003;8.256158e-002
1.550553e+003;8.217955e-002
1.552481e+003;8.101996e-002
1.554410e+003;7.940630e-002
1.556338e+003;7.683810e-002
1.558267e+003;7.221911e-002
1.560195e+003;7.438640e-002
1.562124e+003;8.085692e-002
1.564052e+003;8.325766e-002
1.565981e+003;8.409337e-002
1.567910e+003;8.445890e-002
1.569838e+003;8.578553e-002
1.571767e+003;8.944959e-002
1.573695e+003;9.103864e-002
1.575624e+003;9.097384e-002
1.577552e+003;9.530288e-002
1.579481e+003;9.890753e-002
1.581409e+003;9.785689e-002
1.583338e+003;9.511711e-002
1.585266e+003;9.229716e-002
1.587195e+003;9.017847e-002
1.589124e+003;8.880727e-002
1.591052e+003;8.833487e-002
1.592981e+003;8.834684e-002
1.594909e+003;8.908037e-002
1.596838e+003;9.092515e-002
1.598766e+003;9.309384e-002
1.600695e+003;9.466071e-002
1.602623e+003;9.600044e-002
1.604552e+003;9.697417e-002
1.606480e+003;9.744318e-002
1.608409e+003;9.775173e-002
1.610338e+003;9.868373e-002
1.612266e+003;9.991546e-002
1.614195e+003;9.884117e-002
1.616123e+003;9.528930e-002
1.618052e+003;9.504700e-002
1.619980e+003;9.527470e-002
1.621909e+003;9.276286e-002
1.623837e+003;9.140930e-002
1.625766e+003;9.180195e-002
1.627694e+003;9.165605e-002
1.629623e+003;9.204533e-002
1.631552e+003;9.252404e-002
1.633480e+003;9.038295e-002
1.635409e+003;8.820567e-002
1.637337e+003;9.087711e-002
1.639266e+003;9.391799e-002
1.641194e+003;9.533301e-002
1.643123e+003;9.550665e-002
1.645051e+003;9.399602e-002
1.646980e+003;9.457571e-002
1.648909e+003;9.749576e-002
1.650837e+003;9.563965e-002
1.652766e+003;9.210410e-002
1.654694e+003;9.815976e-002
1.656623e+003;1.053724e-001
1.658551e+003;1.090850e-001
1.660480e+003;1.111837e-001
1.662408e+003;1.134884e-001
1.664337e+003;1.180599e-001
1.666266e+003;1.222577e-001
1.668194e+003;1.248061e-001
1.670123e+003;1.287221e-001
1.672051e+003;1.335234e-001
1.673980e+003;1.368058e-001
1.675908e+003;1.415451e-001
1.677837e+003;1.483077e-001
1.679765e+003;1.536898e-001
1.681694e+003;1.568835e-001
1.683622e+003;1.575715e-001
1.685551e+003;1.640877e-001
1.687479e+003;1.738684e-001
1.689408e+003;1.815819e-001
1.691337e+003;1.903790e-001
1.693265e+003;1.994912e-001
1.695194e+003;2.095626e-001
1.697122e+003;2.269861e-001
1.699051e+003;2.471504e-001
1.700979e+003;2.753607e-001
1.702908e+003;3.141945e-001
1.704836e+003;3.589549e-001
1.706765e+003;4.128199e-001
1.708693e+003;4.722696e-001
1.710622e+003;5.286419e-001
1.712551e+003;5.680324e-001
1.714479e+003;5.789244e-001
1.716408e+003;5.629045e-001
1.718336e+003;5.319709e-001
1.720265e+003;4.956284e-001
1.722193e+003;4.552069e-001
1.724122e+003;4.146433e-001
1.726050e+003;3.758401e-001
1.727979e+003;3.384763e-001
1.729908e+003;3.027518e-001
1.731836e+003;2.680707e-001
1.733765e+003;2.347155e-001
1.735693e+003;2.083560e-001
1.737622e+003;1.840916e-001
1.739550e+003;1.592955e-001
1.741479e+003;1.380515e-001
1.743407e+003;1.193710e-001
1.745336e+003;1.035157e-001
1.747265e+003;9.083941e-002
1.749193e+003;8.156962e-002
1.751122e+003;7.572778e-002
1.753050e+003;7.386539e-002
1.754979e+003;7.274540e-002
1.756907e+003;7.150420e-002
1.758836e+003;7.087607e-002
1.760764e+003;6.975351e-002
1.762693e+003;6.983947e-002
1.764621e+003;7.064002e-002
1.766550e+003;6.970324e-002
1.768479e+003;6.872009e-002
1.770407e+003;6.759956e-002
1.772336e+003;6.653486e-002
1.774264e+003;6.812861e-002
1.776193e+003;6.945477e-002
1.778121e+003;6.949120e-002
1.780050e+003;6.913292e-002
1.781978e+003;6.910421e-002
1.783907e+003;6.911645e-002
1.785835e+003;6.945757e-002
1.787764e+003;6.961503e-002
1.789693e+003;6.850127e-002
1.791621e+003;6.708570e-002
1.793550e+003;6.759147e-002
1.795478e+003;6.909178e-002
1.797407e+003;6.955377e-002
1.799335e+003;6.928925e-002
1.801264e+003;6.910200e-002
1.803192e+003;6.955545e-002
1.805121e+003;6.984390e-002
1.807049e+003;7.001458e-002
1.808978e+003;7.000169e-002
1.810907e+003;6.996576e-002
1.812835e+003;7.026057e-002
1.814764e+003;7.055352e-002
1.816692e+003;7.037943e-002
1.818621e+003;7.043001e-002
1.820549e+003;7.043075e-002
1.822478e+003;7.013610e-002
1.824406e+003;6.956065e-002
1.826335e+003;6.950279e-002
1.828264e+003;6.889844e-002
1.830192e+003;6.823964e-002
1.832121e+003;6.868748e-002
1.834049e+003;6.874283e-002
1.835978e+003;6.845119e-002
1.837906e+003;6.817090e-002
1.839835e+003;6.747743e-002
1.841763e+003;6.588423e-002
1.843692e+003;6.404191e-002
1.845620e+003;6.423660e-002
1.847549e+003;6.462773e-002
1.849478e+003;6.428000e-002
1.851406e+003;6.362479e-002
1.853335e+003;6.289335e-002
1.855263e+003;6.241662e-002
1.857192e+003;6.194095e-002
1.859120e+003;6.119017e-002
1.861049e+003;6.063738e-002
1.862977e+003;6.010760e-002
1.864906e+003;5.933798e-002
1.866834e+003;5.824418e-002
1.868763e+003;5.738831e-002
1.870692e+003;5.768563e-002
1.872620e+003;5.801315e-002
1.874549e+003;5.794499e-002
1.876477e+003;5.794617e-002
1.878406e+003;5.788120e-002
1.880334e+003;5.777911e-002
1.882263e+003;5.763863e-002
1.884191e+003;5.761824e-002
1.886120e+003;5.744991e-002
1.888048e+003;5.699649e-002
1.889977e+003;5.704644e-002
1.891906e+003;5.745539e-002
1.893834e+003;5.749628e-002
1.895763e+003;5.762104e-002
1.897691e+003;5.802989e-002
1.899620e+003;5.834445e-002
1.901548e+003;5.843643e-002
1.903477e+003;5.838000e-002
1.905405e+003;5.843681e-002
1.907334e+003;5.882375e-002
1.909262e+003;5.915828e-002
1.911191e+003;5.948646e-002
1.913120e+003;5.987527e-002
1.915048e+003;6.008652e-002
1.916977e+003;5.992179e-002
1.918905e+003;6.040081e-002
1.920834e+003;6.119123e-002
1.922762e+003;6.158834e-002
1.924691e+003;6.213538e-002
1.926619e+003;6.275883e-002
1.928548e+003;6.357070e-002
1.930477e+003;6.419291e-002
1.932405e+003;6.457240e-002
1.934334e+003;6.538309e-002
1.936262e+003;6.635115e-002
1.938191e+003;6.713106e-002
1.940119e+003;6.755849e-002
1.942048e+003;6.813024e-002
1.943976e+003;6.889930e-002
1.945905e+003;6.953795e-002
1.947833e+003;7.008310e-002
1.949762e+003;7.059640e-002
1.951691e+003;7.095417e-002
1.953619e+003;7.108844e-002
1.955548e+003;7.104434e-002
1.957476e+003;7.085700e-002
1.959405e+003;7.076670e-002
1.961333e+003;7.056275e-002
1.963262e+003;6.995537e-002
1.965190e+003;6.928070e-002
1.967119e+003;6.851190e-002
1.969047e+003;6.796553e-002
1.970976e+003;6.751533e-002
1.972905e+003;6.674764e-002
1.974833e+003;6.599155e-002
1.976762e+003;6.547793e-002
1.978690e+003;6.505978e-002
1.980619e+003;6.461477e-002
1.982547e+003;6.428535e-002
1.984476e+003;6.394481e-002
1.986404e+003;6.344852e-002
1.988333e+003;6.305522e-002
1.990261e+003;6.240311e-002
1.992190e+003;6.156036e-002
1.994119e+003;6.119120e-002
1.996047e+003;6.098273e-002
1.997976e+003;6.055231e-002
1.999904e+003;6.020434e-002
2.001833e+003;5.980321e-002
2.003761e+003;5.910812e-002
2.005690e+003;5.858733e-002
2.007618e+003;5.851768e-002
2.009547e+003;5.846377e-002
2.011476e+003;5.807481e-002
2.013404e+003;5.759482e-002
2.015333e+003;5.737878e-002
2.017261e+003;5.728731e-002
2.019190e+003;5.708941e-002
2.021118e+003;5.676435e-002
2.023047e+003;5.652502e-002
2.024975e+003;5.642407e-002
2.026904e+003;5.630490e-002
2.028833e+003;5.601900e-002
2.030761e+003;5.589971e-002
2.032690e+003;5.601930e-002
2.034618e+003;5.605153e-002
2.036547e+003;5.593977e-002
2.038475e+003;5.609556e-002
2.040404e+003;5.617358e-002
2.042332e+003;5.612007e-002
2.044261e+003;5.620620e-002
2.046189e+003;5.637126e-002
2.048118e+003;5.659888e-002
2.050047e+003;5.706345e-002
2.051975e+003;5.755366e-002
2.053904e+003;5.796321e-002
2.055832e+003;5.834865e-002
2.057761e+003;5.878482e-002
2.059689e+003;5.908709e-002
2.061618e+003;5.938802e-002
2.063546e+003;5.997162e-002
2.065475e+003;6.054070e-002
2.067404e+003;6.084095e-002
2.069332e+003;6.129825e-002
2.071260e+003;6.171780e-002
2.073189e+003;6.194798e-002
2.075118e+003;6.220967e-002
2.077046e+003;6.256890e-002
2.078975e+003;6.294463e-002
2.080903e+003;6.342448e-002
2.082832e+003;6.380110e-002
2.084760e+003;6.384523e-002
2.086689e+003;6.371975e-002
2.088617e+003;6.375881e-002
2.090546e+003;6.386554e-002
2.092475e+003;6.392043e-002
2.094403e+003;6.396650e-002
2.096332e+003;6.409644e-002
2.098260e+003;6.420363e-002
2.100189e+003;6.426441e-002
2.102117e+003;6.427774e-002
2.104046e+003;6.436162e-002
2.105974e+003;6.427608e-002
2.107903e+003;6.427924e-002
2.109832e+003;6.435047e-002
2.111760e+003;6.414180e-002
2.113688e+003;6.381991e-002
2.115617e+003;6.370647e-002
2.117546e+003;6.364843e-002
2.119474e+003;6.347609e-002
2.121403e+003;6.321313e-002
2.123331e+003;6.301527e-002
2.125260e+003;6.265391e-002
2.127188e+003;6.215182e-002
2.129117e+003;6.177410e-002
2.131045e+003;6.186173e-002
2.132974e+003;6.162881e-002
2.134903e+003;6.126883e-002
2.136831e+003;6.099108e-002
2.138760e+003;6.074068e-002
2.140688e+003;6.032101e-002
2.142617e+003;5.979405e-002
2.144545e+003;5.957690e-002
2.146474e+003;5.964467e-002
2.148402e+003;5.934752e-002
2.150331e+003;5.883198e-002
2.152260e+003;5.854607e-002
2.154188e+003;5.830003e-002
2.156117e+003;5.798649e-002
2.158045e+003;5.750214e-002
2.159974e+003;5.706144e-002
2.161902e+003;5.680351e-002
2.163831e+003;5.637967e-002
2.165759e+003;5.597305e-002
2.167688e+003;5.576018e-002
2.169616e+003;5.546289e-002
2.171545e+003;5.517287e-002
2.173474e+003;5.529463e-002
2.175402e+003;5.535240e-002
2.177331e+003;5.495930e-002
2.179259e+003;5.467376e-002
2.181188e+003;5.469533e-002
2.183116e+003;5.447328e-002
2.185045e+003;5.436309e-002
2.186973e+003;5.450040e-002
2.188902e+003;5.467199e-002
2.190831e+003;5.463708e-002
2.192759e+003;5.477862e-002
2.194688e+003;5.478362e-002
2.196616e+003;5.459109e-002
2.198545e+003;5.467748e-002
2.200473e+003;5.483226e-002
2.202402e+003;5.483805e-002
2.204330e+003;5.506856e-002
2.206259e+003;5.565689e-002
2.208188e+003;5.624010e-002
2.210116e+003;5.648396e-002
2.212044e+003;5.640555e-002
2.213973e+003;5.627465e-002
2.215902e+003;5.650675e-002
2.217830e+003;5.669477e-002
2.219759e+003;5.683603e-002
2.221687e+003;5.698387e-002
2.223616e+003;5.699169e-002
2.225544e+003;5.697526e-002
2.227473e+003;5.716911e-002
2.229401e+003;5.749409e-002
2.231330e+003;5.765358e-002
2.233259e+003;5.762335e-002
2.235187e+003;5.765161e-002
2.237116e+003;5.778024e-002
2.239044e+003;5.808337e-002
2.240973e+003;5.821902e-002
2.242901e+003;5.842271e-002
2.244830e+003;5.886738e-002
2.246758e+003;5.924881e-002
2.248687e+003;5.952393e-002
2.250615e+003;5.971215e-002
2.252544e+003;5.970074e-002
2.254473e+003;5.932188e-002
2.256401e+003;5.909366e-002
2.258330e+003;5.936781e-002
2.260258e+003;5.943714e-002
2.262187e+003;5.937248e-002
2.264115e+003;5.935527e-002
2.266044e+003;5.928929e-002
2.267972e+003;5.903247e-002
2.269901e+003;5.895283e-002
2.271830e+003;5.898901e-002
2.273758e+003;5.901550e-002
2.275687e+003;5.910372e-002
2.277615e+003;5.925431e-002
2.279544e+003;5.955991e-002
2.281472e+003;5.966885e-002
2.283401e+003;5.951530e-002
2.285329e+003;5.950215e-002
2.287258e+003;5.944675e-002
2.289187e+003;5.915353e-002
2.291115e+003;5.885125e-002
2.293043e+003;5.844152e-002
2.294972e+003;5.792977e-002
2.296901e+003;5.739980e-002
2.298829e+003;5.665237e-002
2.300758e+003;5.600953e-002
2.302686e+003;5.556112e-002
2.304615e+003;5.508225e-002
2.306543e+003;5.459406e-002
2.308472e+003;5.444778e-002
2.310400e+003;5.441964e-002
2.312329e+003;5.429328e-002
2.314258e+003;5.395523e-002
2.316186e+003;5.360497e-002
2.318115e+003;5.354863e-002
2.320043e+003;5.360242e-002
2.321972e+003;5.357483e-002
2.323900e+003;5.369014e-002
2.325829e+003;5.369164e-002
2.327757e+003;5.359548e-002
2.329686e+003;5.353273e-002
2.331615e+003;5.337804e-002
2.333543e+003;5.315071e-002
2.335472e+003;5.315378e-002
2.337400e+003;5.319389e-002
2.339329e+003;5.333061e-002
2.341257e+003;5.361516e-002
2.343186e+003;5.423231e-002
2.345114e+003;5.519808e-002
2.347043e+003;5.596144e-002
2.348971e+003;5.621167e-002
2.350900e+003;5.598469e-002
2.352829e+003;5.572025e-002
2.354757e+003;5.533208e-002
2.356686e+003;5.501116e-002
2.358614e+003;5.497254e-002
2.360543e+003;5.510850e-002
2.362471e+003;5.555423e-002
2.364400e+003;5.613199e-002
2.366328e+003;5.660428e-002
2.368257e+003;5.713041e-002
2.370186e+003;5.799611e-002
2.372114e+003;5.860963e-002
2.374042e+003;5.897022e-002
2.375971e+003;5.942300e-002
2.377900e+003;5.990741e-002
2.379828e+003;6.042857e-002
2.381757e+003;6.069015e-002
2.383685e+003;6.071702e-002
2.385614e+003;6.084896e-002
2.387542e+003;6.089009e-002
2.389471e+003;6.073534e-002
2.391399e+003;6.065030e-002
2.393328e+003;6.049408e-002
2.395257e+003;6.021252e-002
2.397185e+003;6.000924e-002
2.399114e+003;6.002827e-002
2.401042e+003;5.996595e-002
2.402971e+003;5.971333e-002
2.404899e+003;5.939318e-002
2.406828e+003;5.921573e-002
2.408756e+003;5.899914e-002
2.410685e+003;5.883797e-002
2.412614e+003;5.883877e-002
2.414542e+003;5.859416e-002
2.416471e+003;5.806269e-002
2.418399e+003;5.753354e-002
2.420328e+003;5.741572e-002
2.422256e+003;5.750694e-002
2.424185e+003;5.721171e-002
2.426113e+003;5.683006e-002
2.428042e+003;5.636748e-002
2.429970e+003;5.598899e-002
2.431899e+003;5.592902e-002
2.433828e+003;5.589473e-002
2.435756e+003;5.557697e-002
2.437685e+003;5.508149e-002
2.439613e+003;5.483899e-002
2.441542e+003;5.471773e-002
2.443470e+003;5.455758e-002
2.445399e+003;5.434187e-002
2.447327e+003;5.420926e-002
2.449256e+003;5.413625e-002
2.451185e+003;5.432730e-002
2.453113e+003;5.428671e-002
2.455042e+003;5.408004e-002
2.456970e+003;5.403958e-002
2.458899e+003;5.414838e-002
2.460827e+003;5.416422e-002
2.462756e+003;5.405106e-002
2.464684e+003;5.401418e-002
2.466613e+003;5.412507e-002
2.468542e+003;5.410784e-002
2.470470e+003;5.407846e-002
2.472398e+003;5.413869e-002
2.474327e+003;5.410353e-002
2.476256e+003;5.424098e-002
2.478184e+003;5.460398e-002
2.480113e+003;5.493648e-002
2.482041e+003;5.521136e-002
2.483970e+003;5.527627e-002
2.485898e+003;5.516407e-002
2.487827e+003;5.535440e-002
2.489755e+003;5.577046e-002
2.491684e+003;5.583986e-002
2.493613e+003;5.583625e-002
2.495541e+003;5.595974e-002
2.497470e+003;5.630245e-002
2.499398e+003;5.656797e-002
2.501327e+003;5.674140e-002
2.503255e+003;5.693971e-002
2.505184e+003;5.709738e-002
2.507112e+003;5.725779e-002
2.509041e+003;5.742733e-002
2.510969e+003;5.739243e-002
2.512898e+003;5.717297e-002
2.514827e+003;5.747438e-002
2.516755e+003;5.792485e-002
2.518684e+003;5.801955e-002
2.520612e+003;5.810212e-002
2.522541e+003;5.831549e-002
2.524469e+003;5.848977e-002
2.526398e+003;5.875060e-002
2.528326e+003;5.873467e-002
2.530255e+003;5.860417e-002
2.532184e+003;5.855154e-002
2.534112e+003;5.847184e-002
2.536041e+003;5.863067e-002
2.537969e+003;5.885850e-002
2.539898e+003;5.886533e-002
2.541826e+003;5.879339e-002
2.543755e+003;5.868790e-002
2.545683e+003;5.866909e-002
2.547612e+003;5.844546e-002
2.549541e+003;5.837056e-002
2.551469e+003;5.848344e-002
2.553397e+003;5.852086e-002
2.555326e+003;5.882132e-002
2.557255e+003;5.902912e-002
2.559183e+003;5.905076e-002
2.561112e+003;5.922313e-002
2.563040e+003;5.936795e-002
2.564969e+003;5.900540e-002
2.566897e+003;5.846828e-002
2.568826e+003;5.837617e-002
2.570754e+003;5.839057e-002
2.572683e+003;5.841202e-002
2.574612e+003;5.868635e-002
2.576540e+003;5.867053e-002
2.578469e+003;5.871772e-002
2.580397e+003;5.881320e-002
2.582326e+003;5.871548e-002
2.584254e+003;5.851590e-002
2.586183e+003;5.840615e-002
2.588111e+003;5.829405e-002
2.590040e+003;5.819754e-002
2.591969e+003;5.804868e-002
2.593897e+003;5.765324e-002
2.595826e+003;5.726603e-002
2.597754e+003;5.687708e-002
2.599683e+003;5.655819e-002
2.601611e+003;5.652970e-002
2.603540e+003;5.638042e-002
2.605468e+003;5.628347e-002
2.607397e+003;5.647551e-002
2.609325e+003;5.628480e-002
2.611254e+003;5.606020e-002
2.613183e+003;5.596781e-002
2.615111e+003;5.579329e-002
2.617040e+003;5.579439e-002
2.618968e+003;5.602861e-002
2.620897e+003;5.607196e-002
2.622825e+003;5.598669e-002
2.624754e+003;5.582897e-002
2.626682e+003;5.581093e-002
2.628611e+003;5.576214e-002
2.630540e+003;5.550170e-002
2.632468e+003;5.533818e-002
2.634396e+003;5.534920e-002
2.636325e+003;5.492486e-002
2.638254e+003;5.450130e-002
2.640182e+003;5.436489e-002
2.642111e+003;5.396608e-002
2.644039e+003;5.357933e-002
2.645968e+003;5.348570e-002
2.647896e+003;5.328630e-002
2.649825e+003;5.304677e-002
2.651753e+003;5.316940e-002
2.653682e+003;5.320929e-002
2.655611e+003;5.294521e-002
2.657539e+003;5.260017e-002
2.659468e+003;5.257197e-002
2.661396e+003;5.280981e-002
2.663325e+003;5.265265e-002
2.665253e+003;5.236600e-002
2.667182e+003;5.242255e-002
2.669110e+003;5.240977e-002
2.671039e+003;5.246981e-002
2.672968e+003;5.282156e-002
2.674896e+003;5.300143e-002
2.676825e+003;5.306235e-002
2.678753e+003;5.310795e-002
2.680682e+003;5.312072e-002
2.682610e+003;5.312978e-002
2.684539e+003;5.312959e-002
2.686467e+003;5.313566e-002
2.688396e+003;5.310413e-002
2.690324e+003;5.314734e-002
2.692253e+003;5.331870e-002
2.694182e+003;5.331956e-002
2.696110e+003;5.313158e-002
2.698039e+003;5.302648e-002
2.699967e+003;5.326273e-002
2.701896e+003;5.346486e-002
2.703824e+003;5.358075e-002
2.705753e+003;5.367957e-002
2.707681e+003;5.381528e-002
2.709610e+003;5.403347e-002
2.711539e+003;5.427376e-002
2.713467e+003;5.419432e-002
2.715396e+003;5.422691e-002
2.717324e+003;5.470100e-002
2.719253e+003;5.487350e-002
2.721181e+003;5.463671e-002
2.723110e+003;5.465842e-002
2.725038e+003;5.500684e-002
2.726967e+003;5.517486e-002
2.728896e+003;5.514104e-002
2.730824e+003;5.516997e-002
2.732752e+003;5.535105e-002
2.734681e+003;5.569147e-002
2.736610e+003;5.592556e-002
2.738538e+003;5.615420e-002
2.740467e+003;5.640883e-002
2.742395e+003;5.650366e-002
2.744324e+003;5.631161e-002
2.746252e+003;5.602314e-002
2.748181e+003;5.590016e-002
2.750109e+003;5.583131e-002
2.752038e+003;5.606107e-002
2.753967e+003;5.627042e-002
2.755895e+003;5.635152e-002
2.757824e+003;5.632946e-002
2.759752e+003;5.616694e-002
2.761681e+003;5.599596e-002
2.763609e+003;5.603788e-002
2.765538e+003;5.625896e-002
2.767466e+003;5.650098e-002
2.769395e+003;5.665086e-002
2.771323e+003;5.668604e-002
2.773252e+003;5.664210e-002
2.775181e+003;5.658896e-002
2.777109e+003;5.665758e-002
2.779038e+003;5.704240e-002
2.780966e+003;5.736116e-002
2.782895e+003;5.755188e-002
2.784823e+003;5.781787e-002
2.786752e+003;5.823141e-002
2.788680e+003;5.863712e-002
2.790609e+003;5.896612e-002
2.792538e+003;5.929882e-002
2.794466e+003;5.941016e-002
2.796395e+003;5.979477e-002
2.798323e+003;6.027902e-002
2.800252e+003;6.027574e-002
2.802180e+003;6.025275e-002
2.804109e+003;6.043482e-002
2.806037e+003;6.027514e-002
2.807966e+003;6.009348e-002
2.809895e+003;6.000392e-002
2.811823e+003;6.002146e-002
2.813751e+003;5.994670e-002
2.815680e+003;5.945412e-002
2.817609e+003;5.884712e-002
2.819537e+003;5.853629e-002
2.821466e+003;5.826896e-002
2.823394e+003;5.804747e-002
2.825323e+003;5.789687e-002
2.827251e+003;5.787177e-002
2.829180e+003;5.783937e-002
2.831108e+003;5.787965e-002
2.833037e+003;5.776446e-002
2.834966e+003;5.760629e-002
2.836894e+003;5.742332e-002
2.838823e+003;5.674525e-002
2.840751e+003;5.565904e-002
2.842680e+003;5.379863e-002
2.844608e+003;5.106733e-002
2.846537e+003;4.758965e-002
2.848465e+003;4.417535e-002
2.850394e+003;4.197548e-002
2.852323e+003;4.121371e-002
2.854251e+003;4.241216e-002
2.856180e+003;4.496535e-002
2.858108e+003;4.778945e-002
2.860037e+003;5.067299e-002
2.861965e+003;5.325139e-002
2.863894e+003;5.555314e-002
2.865822e+003;5.747415e-002
2.867751e+003;5.835574e-002
2.869679e+003;5.885531e-002
2.871608e+003;5.942570e-002
2.873536e+003;6.001023e-002
2.875465e+003;6.079213e-002
2.877394e+003;6.177024e-002
2.879322e+003;6.257632e-002
2.881251e+003;6.281760e-002
2.883179e+003;6.287631e-002
2.885108e+003;6.289059e-002
2.887036e+003;6.269517e-002
2.888965e+003;6.235354e-002
2.890893e+003;6.175813e-002
2.892822e+003;6.100858e-002
2.894750e+003;6.059448e-002
2.896679e+003;6.033609e-002
2.898608e+003;6.012765e-002
2.900536e+003;5.999726e-002
2.902465e+003;5.991011e-002
2.904393e+003;5.949558e-002
2.906322e+003;5.858213e-002
2.908250e+003;5.703046e-002
2.910179e+003;5.422612e-002
2.912107e+003;5.034813e-002
2.914036e+003;4.635273e-002
2.915965e+003;4.207133e-002
2.917893e+003;3.822059e-002
2.919822e+003;3.536161e-002
2.921750e+003;3.325407e-002
2.923679e+003;3.229744e-002
2.925607e+003;3.297983e-002
2.927536e+003;3.487141e-002
2.929464e+003;3.732311e-002
2.931393e+003;4.021315e-002
2.933322e+003;4.320456e-002
2.935250e+003;4.626455e-002
2.937178e+003;4.935974e-002
2.939107e+003;5.264558e-002
2.941036e+003;5.580290e-002
2.942964e+003;5.839629e-002
2.944893e+003;6.039034e-002
2.946821e+003;6.197561e-002
2.948750e+003;6.307197e-002
2.950678e+003;6.374335e-002
2.952607e+003;6.443460e-002
2.954535e+003;6.565442e-002
2.956464e+003;6.722671e-002
2.958393e+003;6.874202e-002
2.960321e+003;7.011370e-002
2.962250e+003;7.191038e-002
2.964178e+003;7.372641e-002
2.966107e+003;7.530890e-002
2.968035e+003;7.687393e-002
2.969964e+003;7.823627e-002
2.971892e+003;7.890482e-002
2.973821e+003;7.918465e-002
2.975750e+003;7.943283e-002
2.977678e+003;7.938645e-002
2.979607e+003;7.925587e-002
2.981535e+003;7.903840e-002
2.983464e+003;7.874364e-002
2.985392e+003;7.833344e-002
2.987321e+003;7.820802e-002
2.989249e+003;7.791047e-002
2.991178e+003;7.726419e-002
2.993106e+003;7.670733e-002
2.995035e+003;7.619277e-002
2.996964e+003;7.570754e-002
2.998892e+003;7.549313e-002
3.000821e+003;7.519010e-002
3.002749e+003;7.454301e-002
3.004678e+003;7.402748e-002
3.006606e+003;7.373741e-002
3.008535e+003;7.347628e-002
3.010463e+003;7.323043e-002
3.012392e+003;7.308279e-002
3.014321e+003;7.250727e-002
3.016249e+003;7.191605e-002
3.018177e+003;7.136374e-002
3.020106e+003;7.049279e-002
3.022035e+003;6.991228e-002
3.023963e+003;6.916004e-002
3.025892e+003;6.820839e-002
3.027820e+003;6.745146e-002
3.029749e+003;6.668705e-002
3.031677e+003;6.599321e-002
3.033606e+003;6.554289e-002
3.035534e+003;6.536984e-002
3.037463e+003;6.545459e-002
3.039392e+003;6.538409e-002
3.041320e+003;6.553237e-002
3.043249e+003;6.613931e-002
3.045177e+003;6.692440e-002
3.047106e+003;6.822839e-002
3.049034e+003;6.973001e-002
3.050963e+003;7.068282e-002
3.052891e+003;7.119417e-002
3.054820e+003;7.167478e-002
3.056749e+003;7.174826e-002
3.058677e+003;7.139967e-002
3.060606e+003;7.133812e-002
3.062534e+003;7.144517e-002
3.064463e+003;7.134945e-002
3.066391e+003;7.139725e-002
3.068320e+003;7.164454e-002
3.070248e+003;7.179426e-002
3.072177e+003;7.187945e-002
3.074105e+003;7.223848e-002
3.076034e+003;7.251749e-002
3.077963e+003;7.230051e-002
3.079891e+003;7.208054e-002
3.081820e+003;7.206833e-002
3.083748e+003;7.196184e-002
3.085677e+003;7.158686e-002
3.087605e+003;7.084923e-002
3.089534e+003;7.030892e-002
3.091462e+003;6.989527e-002
3.093391e+003;6.945660e-002
3.095320e+003;6.939871e-002
3.097248e+003;6.956486e-002
3.099177e+003;6.975507e-002
3.101105e+003;7.003903e-002
3.103034e+003;7.041501e-002
3.104962e+003;7.059581e-002
3.106891e+003;7.050425e-002
3.108819e+003;6.995529e-002
3.110748e+003;6.957691e-002
3.112677e+003;6.884614e-002
3.114605e+003;6.748495e-002
3.116533e+003;6.642967e-002
3.118462e+003;6.604652e-002
3.120391e+003;6.591550e-002
3.122319e+003;6.560983e-002
3.124248e+003;6.557561e-002
3.126176e+003;6.557618e-002
3.128105e+003;6.570715e-002
3.130033e+003;6.550976e-002
3.131962e+003;6.485495e-002
3.133890e+003;6.425657e-002
3.135819e+003;6.379197e-002
3.137748e+003;6.317244e-002
3.139676e+003;6.232891e-002
3.141605e+003;6.183518e-002
3.143533e+003;6.135350e-002
3.145462e+003;6.089859e-002
3.147390e+003;6.081221e-002
3.149319e+003;6.032973e-002
3.151247e+003;5.975990e-002
3.153176e+003;5.957941e-002
3.155104e+003;5.936982e-002
3.157033e+003;5.921189e-002
3.158962e+003;5.905399e-002
3.160890e+003;5.852939e-002
3.162819e+003;5.843860e-002
3.164747e+003;5.830860e-002
3.166676e+003;5.817947e-002
3.168604e+003;5.812519e-002
3.170533e+003;5.793413e-002
3.172461e+003;5.761385e-002
3.174390e+003;5.742937e-002
3.176319e+003;5.756596e-002
3.178247e+003;5.760765e-002
3.180176e+003;5.736664e-002
3.182104e+003;5.726765e-002
3.184033e+003;5.744946e-002
3.185961e+003;5.737507e-002
3.187890e+003;5.733412e-002
3.189818e+003;5.714598e-002
3.191747e+003;5.691607e-002
3.193676e+003;5.714931e-002
3.195604e+003;5.706250e-002
3.197532e+003;5.688554e-002
3.199461e+003;5.698512e-002
3.201390e+003;5.673634e-002
3.203318e+003;5.617109e-002
3.205247e+003;5.564755e-002
3.207175e+003;5.573023e-002
3.209104e+003;5.581387e-002
3.211032e+003;5.549831e-002
3.212961e+003;5.531424e-002
3.214889e+003;5.564992e-002
3.216818e+003;5.596197e-002
3.218747e+003;5.585222e-002
3.220675e+003;5.600000e-002
3.222604e+003;5.594915e-002
3.224532e+003;5.584126e-002
3.226461e+003;5.601025e-002
3.228389e+003;5.597075e-002
3.230318e+003;5.606589e-002
3.232246e+003;5.611295e-002
3.234175e+003;5.576651e-002
3.236104e+003;5.543081e-002
3.238032e+003;5.545061e-002
3.239961e+003;5.552490e-002
3.241889e+003;5.524458e-002
3.243818e+003;5.486790e-002
3.245746e+003;5.483763e-002
3.247675e+003;5.475125e-002
3.249603e+003;5.453725e-002
3.251532e+003;5.458219e-002
3.253460e+003;5.468240e-002
3.255389e+003;5.461938e-002
3.257318e+003;5.433744e-002
3.259246e+003;5.432238e-002
3.261175e+003;5.442532e-002
3.263103e+003;5.426531e-002
3.265032e+003;5.378055e-002
3.266960e+003;5.321730e-002
3.268889e+003;5.310480e-002
3.270817e+003;5.332874e-002
3.272746e+003;5.376191e-002
3.274675e+003;5.386794e-002
3.276603e+003;5.350013e-002
3.278531e+003;5.337265e-002
3.280460e+003;5.336837e-002
3.282389e+003;5.352329e-002
3.284317e+003;5.363188e-002
3.286246e+003;5.366330e-002
3.288174e+003;5.370822e-002
3.290103e+003;5.396788e-002
3.292031e+003;5.409358e-002
3.293960e+003;5.401594e-002
3.295888e+003;5.380388e-002
3.297817e+003;5.364422e-002
3.299746e+003;5.402731e-002
3.301674e+003;5.441908e-002
3.303603e+003;5.417480e-002
3.305531e+003;5.387203e-002
3.307460e+003;5.394676e-002
3.309388e+003;5.400982e-002
3.311317e+003;5.383415e-002
3.313245e+003;5.349199e-002
3.315174e+003;5.346392e-002
3.317103e+003;5.378689e-002
3.319031e+003;5.375269e-002
3.320960e+003;5.342814e-002
3.322888e+003;5.359597e-002
3.324817e+003;5.399155e-002
3.326745e+003;5.392736e-002
3.328674e+003;5.359454e-002
3.330602e+003;5.367387e-002
3.332531e+003;5.442043e-002
3.334459e+003;5.474768e-002
3.336388e+003;5.445837e-002
3.338317e+003;5.422706e-002
3.340245e+003;5.425972e-002
3.342174e+003;5.440443e-002
3.344102e+003;5.407283e-002
3.346031e+003;5.358435e-002
3.347959e+003;5.351909e-002
3.349888e+003;5.317161e-002
3.351816e+003;5.274819e-002
3.353745e+003;5.258794e-002
3.355674e+003;5.243403e-002
3.357602e+003;5.210957e-002
3.359531e+003;5.186322e-002
3.361459e+003;5.161508e-002
3.363388e+003;5.138998e-002
3.365316e+003;5.123948e-002
3.367245e+003;5.117770e-002
3.369173e+003;5.139986e-002
3.371102e+003;5.149822e-002
3.373031e+003;5.170054e-002
3.374959e+003;5.207781e-002
3.376887e+003;5.219688e-002
3.378816e+003;5.217084e-002
3.380745e+003;5.208301e-002
3.382673e+003;5.215007e-002
3.384602e+003;5.223765e-002
3.386530e+003;5.228952e-002
3.388459e+003;5.211850e-002
3.390387e+003;5.203519e-002
3.392316e+003;5.267176e-002
3.394244e+003;5.282497e-002
3.396173e+003;5.239037e-002
3.398102e+003;5.271433e-002
3.400030e+003;5.318239e-002
3.401959e+003;5.377718e-002
3.403887e+003;5.460856e-002
3.405816e+003;5.539520e-002
3.407744e+003;5.602902e-002
3.409673e+003;5.655231e-002
3.411601e+003;5.752427e-002
3.413530e+003;5.882705e-002
3.415458e+003;5.966314e-002
3.417387e+003;6.023486e-002
3.419316e+003;6.100393e-002
3.421244e+003;6.193292e-002
3.423173e+003;6.290296e-002
3.425101e+003;6.355210e-002
3.427030e+003;6.379879e-002
3.428958e+003;6.399445e-002
3.430887e+003;6.448633e-002
3.432815e+003;6.467110e-002
3.434744e+003;6.439532e-002
3.436673e+003;6.406821e-002
3.438601e+003;6.353741e-002
3.440530e+003;6.280872e-002
3.442458e+003;6.213473e-002
3.444387e+003;6.142556e-002
3.446315e+003;6.058119e-002
3.448244e+003;5.988756e-002
3.450172e+003;5.857940e-002
3.452101e+003;5.779334e-002
3.454030e+003;5.757178e-002
3.455958e+003;5.691788e-002
3.457886e+003;5.609168e-002
3.459815e+003;5.522404e-002
3.461744e+003;5.457899e-002
3.463672e+003;5.407839e-002
3.465601e+003;5.348281e-002
3.467529e+003;5.305040e-002
3.469458e+003;5.287167e-002
3.471386e+003;5.240319e-002
3.473315e+003;5.171233e-002
3.475243e+003;5.147950e-002
3.477172e+003;5.140419e-002
3.479101e+003;5.142873e-002
3.481029e+003;5.114345e-002
3.482958e+003;5.091709e-002
3.484886e+003;5.107930e-002
3.486815e+003;5.146286e-002
3.488743e+003;5.126397e-002
3.490672e+003;5.079801e-002
3.492600e+003;5.048195e-002
3.494529e+003;5.047911e-002
3.496458e+003;5.053297e-002
3.498386e+003;5.053640e-002
3.500315e+003;5.051849e-002
3.502243e+003;5.051347e-002
3.504172e+003;5.065095e-002
3.506100e+003;5.090294e-002
3.508029e+003;5.108280e-002
3.509957e+003;5.147215e-002
3.511886e+003;5.155452e-002
3.513814e+003;5.172114e-002
3.515743e+003;5.202261e-002
3.517672e+003;5.227767e-002
3.519600e+003;5.226388e-002
3.521529e+003;5.222278e-002
3.523457e+003;5.221650e-002
3.525386e+003;5.210609e-002
3.527314e+003;5.247067e-002
3.529243e+003;5.298594e-002
3.531171e+003;5.295382e-002
3.533100e+003;5.305329e-002
3.535029e+003;5.306965e-002
3.536957e+003;5.299043e-002
3.538885e+003;5.327607e-002
3.540814e+003;5.351692e-002
3.542743e+003;5.354466e-002
3.544671e+003;5.362874e-002
3.546600e+003;5.358319e-002
3.548528e+003;5.347603e-002
3.550457e+003;5.319569e-002
3.552385e+003;5.327832e-002
3.554314e+003;5.394758e-002
3.556242e+003;5.410691e-002
3.558171e+003;5.334507e-002
3.560100e+003;5.296370e-002
3.562028e+003;5.297119e-002
3.563957e+003;5.215724e-002
3.565885e+003;5.066126e-002
3.567814e+003;5.053442e-002
3.569742e+003;5.143037e-002
3.571671e+003;5.167005e-002
3.573599e+003;5.157709e-002
3.575528e+003;5.116741e-002
3.577457e+003;5.063203e-002
3.579385e+003;5.055989e-002
3.581314e+003;5.035579e-002
3.583242e+003;4.993287e-002
3.585171e+003;4.881690e-002
3.587099e+003;4.779955e-002
3.589028e+003;4.822402e-002
3.590956e+003;4.907232e-002
3.592885e+003;4.887742e-002
3.594813e+003;4.850191e-002
3.596742e+003;4.873953e-002
3.598671e+003;4.890612e-002
3.600599e+003;4.887523e-002
3.602528e+003;4.930543e-002
3.604456e+003;4.910623e-002
3.606385e+003;4.779618e-002
3.608313e+003;4.677007e-002
3.610242e+003;4.720569e-002
3.612170e+003;4.729365e-002
3.614099e+003;4.757009e-002
3.616028e+003;4.769699e-002
3.617956e+003;4.694254e-002
3.619885e+003;4.730111e-002
3.621813e+003;4.891528e-002
3.623742e+003;4.961763e-002
3.625670e+003;4.835492e-002
3.627599e+003;4.539460e-002
3.629527e+003;4.545501e-002
3.631456e+003;4.793095e-002
3.633385e+003;4.891791e-002
3.635313e+003;4.961064e-002
3.637241e+003;4.982818e-002
3.639170e+003;4.946644e-002
3.641099e+003;4.915458e-002
3.643027e+003;4.901998e-002
3.644956e+003;4.799245e-002
3.646884e+003;4.559222e-002
3.648813e+003;4.378853e-002
3.650741e+003;4.499920e-002
3.652670e+003;4.696399e-002
3.654598e+003;4.635011e-002
3.656527e+003;4.597026e-002
3.658456e+003;4.714172e-002
3.660384e+003;4.762015e-002
3.662313e+003;4.720214e-002
3.664241e+003;4.640242e-002
3.666170e+003;4.562126e-002
3.668098e+003;4.364035e-002
3.670027e+003;4.176944e-002
3.671955e+003;4.278262e-002
3.673884e+003;4.144704e-002
3.675813e+003;4.058774e-002
3.677741e+003;4.341520e-002
3.679669e+003;4.532659e-002
3.681598e+003;4.622751e-002
3.683527e+003;4.657070e-002
3.685455e+003;4.587977e-002
3.687384e+003;4.328541e-002
3.689312e+003;4.283224e-002
3.691241e+003;4.435436e-002
3.693169e+003;4.535028e-002
3.695098e+003;4.557503e-002
3.697026e+003;4.539858e-002
3.698955e+003;4.463412e-002
3.700884e+003;4.329676e-002
3.702812e+003;4.312357e-002
3.704741e+003;4.348486e-002
3.706669e+003;4.342509e-002
3.708598e+003;4.206754e-002
3.710526e+003;3.995820e-002
3.712455e+003;3.999726e-002
3.714383e+003;4.214957e-002
3.716312e+003;4.286263e-002
3.718240e+003;4.277746e-002
3.720169e+003;4.289101e-002
3.722098e+003;4.300590e-002
3.724026e+003;4.286435e-002
3.725955e+003;4.248772e-002
3.727883e+003;4.281030e-002
3.729812e+003;4.231098e-002
3.731740e+003;4.096509e-002
3.733669e+003;4.034933e-002
3.735597e+003;3.968275e-002
3.737526e+003;4.116784e-002
3.739455e+003;4.266230e-002
3.741383e+003;4.140170e-002
3.743312e+003;3.711038e-002
3.745240e+003;3.772840e-002
3.747169e+003;3.985109e-002
3.749097e+003;3.832904e-002
3.751026e+003;3.822891e-002
3.752954e+003;4.074012e-002
3.754883e+003;4.343421e-002
3.756812e+003;4.360544e-002
3.758740e+003;4.368230e-002
3.760668e+003;4.430684e-002
3.762597e+003;4.483374e-002
3.764526e+003;4.394260e-002
3.766454e+003;4.327571e-002
3.768383e+003;4.235791e-002
3.770311e+003;4.264290e-002
3.772240e+003;4.409360e-002
3.774168e+003;4.443037e-002
3.776097e+003;4.390953e-002
3.778025e+003;4.328922e-002
3.779954e+003;4.306316e-002
3.781883e+003;4.342535e-002
3.783811e+003;4.360258e-002
3.785740e+003;4.329548e-002
3.787668e+003;4.269699e-002
3.789597e+003;4.301812e-002
3.791525e+003;4.380034e-002
3.793454e+003;4.358899e-002
3.795382e+003;4.259954e-002
3.797311e+003;4.242959e-002
3.799240e+003;4.069318e-002
3.801168e+003;3.950627e-002
3.803097e+003;4.185233e-002
3.805025e+003;4.203819e-002
3.806954e+003;4.154938e-002
3.808882e+003;4.370604e-002
3.810811e+003;4.496135e-002
3.812739e+003;4.433924e-002
3.814668e+003;4.126246e-002
3.816596e+003;4.071614e-002
3.818525e+003;4.168722e-002
3.820454e+003;4.058636e-002
3.822382e+003;4.191986e-002
3.824311e+003;4.366358e-002
3.826239e+003;4.342333e-002
3.828168e+003;4.311691e-002
3.830096e+003;4.258884e-002
3.832025e+003;4.219130e-002
3.833953e+003;4.203341e-002
3.835882e+003;4.026800e-002
3.837811e+003;3.946269e-002
3.839739e+003;4.133482e-002
3.841667e+003;4.228421e-002
3.843596e+003;4.284219e-002
3.845525e+003;4.375548e-002
3.847453e+003;4.392119e-002
3.849382e+003;4.213927e-002
3.851310e+003;3.756817e-002
3.853239e+003;3.444587e-002
3.855167e+003;3.866618e-002
3.857096e+003;4.324852e-002
3.859024e+003;4.398692e-002
3.860953e+003;4.289474e-002
3.862882e+003;4.203994e-002
3.864810e+003;4.213734e-002
3.866739e+003;4.270438e-002
3.868667e+003;4.081859e-002
3.870596e+003;4.070497e-002
3.872524e+003;4.225722e-002
3.874453e+003;4.307296e-002
3.876381e+003;4.377622e-002
3.878310e+003;4.313927e-002
3.880239e+003;4.243573e-002
3.882167e+003;4.290480e-002
3.884096e+003;4.196176e-002
3.886024e+003;4.219258e-002
3.887953e+003;4.408322e-002
3.889881e+003;4.339210e-002
3.891810e+003;4.321462e-002
3.893738e+003;4.404303e-002
3.895667e+003;4.341982e-002
3.897595e+003;4.242941e-002
3.899524e+003;4.214997e-002
3.901453e+003;4.251703e-002
3.903381e+003;4.280449e-002
3.905310e+003;4.334380e-002
3.907238e+003;4.442024e-002
3.909167e+003;4.512362e-002
3.911095e+003;4.537051e-002
3.913024e+003;4.542793e-002
3.914952e+003;4.492875e-002
3.916881e+003;4.449937e-002
3.918810e+003;4.466489e-002
3.920738e+003;4.526032e-002
3.922667e+003;4.572620e-002
3.924595e+003;4.590971e-002
3.926524e+003;4.600736e-002
3.928452e+003;4.600264e-002
3.930381e+003;4.578260e-002
3.932309e+003;4.547171e-002
3.934238e+003;4.593947e-002
3.936167e+003;4.622972e-002
3.938095e+003;4.561971e-002
3.940023e+003;4.476104e-002
3.941952e+003;4.476960e-002
3.943881e+003;4.577299e-002
3.945809e+003;4.595999e-002
3.947738e+003;4.576077e-002
3.949666e+003;4.603207e-002
3.951595e+003;4.621911e-002
3.953523e+003;4.618454e-002
3.955452e+003;4.629065e-002
3.957380e+003;4.646360e-002
3.959309e+003;4.703680e-002
3.961238e+003;4.701158e-002
3.963166e+003;4.664702e-002
3.965095e+003;4.658800e-002
3.967023e+003;4.695657e-002
3.968952e+003;4.701406e-002
3.970880e+003;4.657346e-002
3.972809e+003;4.663418e-002
3.974737e+003;4.643532e-002
3.976666e+003;4.630219e-002
3.978594e+003;4.658730e-002
3.980523e+003;4.686307e-002
3.982452e+003;4.707694e-002
3.984380e+003;4.676808e-002
3.986309e+003;4.644505e-002
3.988237e+003;4.644582e-002
3.990166e+003;4.662913e-002
3.992094e+003;4.659888e-002
3.994023e+003;4.632858e-002
3.995951e+003;4.629231e-002
3.997880e+003;4.611645e-002
3.999809e+003;4.610661e-002
4.001737e+003;0.000000e+000
