3.992094e+002;0.000000e+000
4.011380e+002;0.000000e+000
4.030665e+002;0.000000e+000
4.049951e+002;0.000000e+000
4.069236e+002;0.000000e+000
4.088522e+002;0.000000e+000
4.107807e+002;0.000000e+000
4.127093e+002;0.000000e+000
4.146378e+002;0.000000e+000
4.165664e+002;0.000000e+000
4.184949e+002;0.000000e+000
4.204235e+002;0.000000e+000
4.223520e+002;0.000000e+000
4.242806e+002;0.000000e+000
4.262091e+002;0.000000e+000
4.281377e+002;0.000000e+000
4.300662e+002;0.000000e+000
4.319948e+002;0.000000e+000
4.339233e+002;0.000000e+000
4.358519e+002;0.000000e+000
4.377804e+002;0.000000e+000
4.397090e+002;0.000000e+000
4.416375e+002;0.000000e+000
4.435660e+002;0.000000e+000
4.454946e+002;0.000000e+000
4.474232e+002;0.000000e+000
4.493517e+002;0.000000e+000
4.512802e+002;0.000000e+000
4.532088e+002;0.000000e+000
4.551373e+002;0.000000e+000
4.570659e+002;0.000000e+000
4.589944e+002;0.000000e+000
4.609230e+002;0.000000e+000
4.628515e+002;0.000000e+000
4.647801e+002;0.000000e+000
4.667086e+002;0.000000e+000
4.686372e+002;0.000000e+000
4.705657e+002;0.000000e+000
4.724943e+002;0.000000e+000
4.744228e+002;0.000000e+000
4.763513e+002;0.000000e+000
4.782799e+002;0.000000e+000
4.802085e+002;0.000000e+000
4.821370e+002;0.000000e+000
4.840656e+002;0.000000e+000
4.859941e+002;0.000000e+000
4.879226e+002;0.000000e+000
4.898512e+002;0.000000e+000
4.917798e+002;0.000000e+000
4.937083e+002;0.000000e+000
4.956368e+002;0.000000e+000
4.975654e+002;0.000000e+000
4.994939e+002;0.000000e+000
5.014225e+002;0.000000e+000
5.033510e+002;0.000000e+000
5.052796e+002;0.000000e+000
5.072081e+002;0.000000e+000
5.091367e+002;0.000000e+000
5.110652e+002;0.000000e+000
5.129938e+002;0.000000e+000
5.149223e+002;0.000000e+000
5.168509e+002;0.000000e+000
5.187794e+002;0.000000e+000
5.207079e+002;0.000000e+000
5.226365e+002;0.000000e+000
5.245651e+002;0.000000e+000
5.264936e+002;0.000000e+000
5.284222e+002;0.000000e+000
5.303507e+002;0.000000e+000
5.322792e+002;0.000000e+000
5.342078e+002;0.000000e+000
5.361364e+002;0.000000e+000
5.380649e+002;0.000000e+000
5.399935e+002;0.000000e+000
5.419220e+002;0.000000e+000
5.438505e+002;0.000000e+000
5.457791e+002;0.000000e+000
5.477076e+002;0.000000e+000
5.496362e+002;0.000000e+000
5.515648e+002;0.000000e+000
5.534933e+002;0.000000e+000
5.554218e+002;0.000000e+000
5.573504e+002;0.000000e+000
5.592789e+002;0.000000e+000
5.612075e+002;0.000000e+000
5.631360e+002;0.000000e+000
5.650646e+002;0.000000e+000
5.669931e+002;0.000000e+000
5.689217e+002;0.000000e+000
5.708502e+002;0.000000e+000
5.727787e+002;0.000000e+000
5.747073e+002;0.000000e+000
5.766359e+002;0.000000e+000
5.785644e+002;0.000000e+000
5.804930e+002;0.000000e+000
5.824215e+002;0.000000e+000
5.843500e+002;0.000000e+000
5.862786e+002;0.000000e+000
5.882072e+002;0.000000e+000
5.901357e+002;0.000000e+000
5.920643e+002;0.000000e+000
5.939928e+002;0.000000e+000
5.959213e+002;0.000000e+000
5.978499e+002;0.000000e+000
5.997784e+002;6.997222e-002
6.017070e+002;6.870914e-002
6.036355e+002;7.926195e-002
6.055641e+002;8.194860e-002
6.074926e+002;7.519928e-002
6.094211e+002;7.258657e-002
6.113497e+002;7.237483e-002
6.132783e+002;6.930549e-002
6.152068e+002;6.679764e-002
6.171354e+002;6.657785e-002
6.190639e+002;7.132653e-002
6.209924e+002;7.653796e-002
6.229210e+002;7.726917e-002
6.248495e+002;7.695743e-002
6.267781e+002;7.939118e-002
6.287067e+002;8.373787e-002
6.306352e+002;9.112025e-002
6.325637e+002;9.317649e-002
6.344923e+002;8.844236e-002
6.364208e+002;8.345059e-002
6.383494e+002;7.974071e-002
6.402780e+002;7.954126e-002
6.422065e+002;7.888190e-002
6.441350e+002;7.905688e-002
6.460636e+002;7.984594e-002
6.479921e+002;7.933322e-002
6.499207e+002;8.041458e-002
6.518492e+002;8.084387e-002
6.537778e+002;8.159165e-002
6.557063e+002;8.418639e-002
6.576349e+002;8.722926e-002
6.595634e+002;8.807947e-002
6.614919e+002;8.788569e-002
6.634205e+002;9.095983e-002
6.653491e+002;9.501520e-002
6.672776e+002;9.857953e-002
6.692062e+002;1.010921e-001
6.711347e+002;1.033267e-001
6.730632e+002;1.065157e-001
6.749918e+002;1.111063e-001
6.769203e+002;1.163169e-001
6.788489e+002;1.216136e-001
6.807775e+002;1.261046e-001
6.827060e+002;1.278379e-001
6.846345e+002;1.275642e-001
6.865631e+002;1.281094e-001
6.884916e+002;1.295593e-001
6.904202e+002;1.306647e-001
6.923488e+002;1.356009e-001
6.942773e+002;1.441876e-001
6.962058e+002;1.543939e-001
6.981344e+002;1.699234e-001
7.000629e+002;1.891413e-001
7.019915e+002;2.061803e-001
7.039200e+002;2.216029e-001
7.058486e+002;2.368640e-001
7.077771e+002;2.524155e-001
7.097057e+002;2.696421e-001
7.116342e+002;2.914237e-001
7.135627e+002;3.183145e-001
7.154913e+002;3.525611e-001
7.174199e+002;3.956062e-001
7.193484e+002;4.412262e-001
7.212770e+002;4.822937e-001
7.232055e+002;5.098330e-001
7.251340e+002;5.022144e-001
7.270626e+002;4.593365e-001
7.289911e+002;4.026628e-001
7.309197e+002;3.463693e-001
7.328483e+002;2.946057e-001
7.347768e+002;2.481402e-001
7.367053e+002;2.067215e-001
7.386339e+002;1.699841e-001
7.405624e+002;1.405904e-001
7.424910e+002;1.192566e-001
7.444196e+002;1.047492e-001
7.463481e+002;9.586597e-002
7.482766e+002;9.011693e-002
7.502052e+002;8.724721e-002
7.521337e+002;8.611811e-002
7.540623e+002;8.541461e-002
7.559908e+002;8.408911e-002
7.579194e+002;8.330414e-002
7.598479e+002;8.312760e-002
7.617765e+002;8.362868e-002
7.637050e+002;8.508797e-002
7.656335e+002;8.731478e-002
7.675621e+002;9.013239e-002
7.694907e+002;9.268156e-002
7.714192e+002;9.518393e-002
7.733478e+002;9.765431e-002
7.752763e+002;1.000247e-001
7.772048e+002;1.026832e-001
7.791334e+002;1.054372e-001
7.810620e+002;1.081117e-001
7.829905e+002;1.117238e-001
7.849191e+002;1.164083e-001
7.868476e+002;1.220967e-001
7.887761e+002;1.275946e-001
7.907047e+002;1.323542e-001
7.926332e+002;1.333586e-001
7.945618e+002;1.272006e-001
7.964903e+002;1.159940e-001
7.984189e+002;1.072048e-001
8.003474e+002;1.037660e-001
8.022759e+002;1.034199e-001
8.042045e+002;1.050747e-001
8.061331e+002;1.066981e-001
8.080616e+002;1.072566e-001
8.099902e+002;1.078896e-001
8.119187e+002;1.087427e-001
8.138472e+002;1.092264e-001
8.157758e+002;1.098165e-001
8.177043e+002;1.109290e-001
8.196329e+002;1.120609e-001
8.215615e+002;1.134903e-001
8.234900e+002;1.151047e-001
8.254185e+002;1.166853e-001
8.273471e+002;1.192975e-001
8.292756e+002;1.231694e-001
8.312042e+002;1.266483e-001
8.331328e+002;1.304605e-001
8.350613e+002;1.351909e-001
8.369898e+002;1.398140e-001
8.389184e+002;1.443916e-001
8.408469e+002;1.494370e-001
8.427755e+002;1.553468e-001
8.447040e+002;1.604224e-001
8.466326e+002;1.633888e-001
8.485611e+002;1.634720e-001
8.504897e+002;1.611644e-001
8.524182e+002;1.584334e-001
8.543467e+002;1.568475e-001
8.562753e+002;1.562655e-001
8.582039e+002;1.564270e-001
8.601324e+002;1.576396e-001
8.620610e+002;1.604317e-001
8.639895e+002;1.652062e-001
8.659180e+002;1.742036e-001
8.678466e+002;1.901830e-001
8.697751e+002;2.138099e-001
8.717037e+002;2.346045e-001
8.736323e+002;2.348479e-001
8.755608e+002;2.181564e-001
8.774893e+002;1.993063e-001
8.794179e+002;1.820462e-001
8.813464e+002;1.663486e-001
8.832750e+002;1.526336e-001
8.852036e+002;1.411145e-001
8.871321e+002;1.326696e-001
8.890606e+002;1.266196e-001
8.909892e+002;1.228843e-001
8.929177e+002;1.210156e-001
8.948463e+002;1.199418e-001
8.967748e+002;1.194397e-001
8.987034e+002;1.190652e-001
9.006319e+002;1.184745e-001
9.025605e+002;1.177392e-001
9.044890e+002;1.165182e-001
9.064175e+002;1.144342e-001
9.083461e+002;1.117541e-001
9.102747e+002;1.092327e-001
9.122032e+002;1.075504e-001
9.141318e+002;1.058975e-001
9.160603e+002;1.045017e-001
9.179888e+002;1.037951e-001
9.199174e+002;1.036042e-001
9.218459e+002;1.033659e-001
9.237745e+002;1.035627e-001
9.257031e+002;1.046946e-001
9.276316e+002;1.058221e-001
9.295601e+002;1.066053e-001
9.314887e+002;1.075633e-001
9.334172e+002;1.087742e-001
9.353458e+002;1.103196e-001
9.372744e+002;1.121976e-001
9.392029e+002;1.144078e-001
9.411314e+002;1.165001e-001
9.430600e+002;1.186289e-001
9.449885e+002;1.209220e-001
9.469171e+002;1.234307e-001
9.488456e+002;1.262142e-001
9.507742e+002;1.292650e-001
9.527027e+002;1.323444e-001
9.546313e+002;1.353853e-001
9.565598e+002;1.388727e-001
9.584883e+002;1.421618e-001
9.604169e+002;1.457108e-001
9.623455e+002;1.494538e-001
9.642740e+002;1.526460e-001
9.662026e+002;1.552411e-001
9.681311e+002;1.569137e-001
9.700596e+002;1.571086e-001
9.719882e+002;1.562486e-001
9.739167e+002;1.544104e-001
9.758453e+002;1.515223e-001
9.777739e+002;1.480578e-001
9.797024e+002;1.446940e-001
9.816309e+002;1.419770e-001
9.835595e+002;1.400093e-001
9.854880e+002;1.387181e-001
9.874166e+002;1.379207e-001
9.893452e+002;1.372265e-001
9.912737e+002;1.369118e-001
9.932022e+002;1.371703e-001
9.951307e+002;1.377762e-001
9.970593e+002;1.388912e-001
9.989879e+002;1.409139e-001
1.000916e+003;1.432550e-001
1.002845e+003;1.463670e-001
1.004773e+003;1.516112e-001
1.006702e+003;1.586936e-001
1.008631e+003;1.688068e-001
1.010559e+003;1.842548e-001
1.012488e+003;2.082324e-001
1.014416e+003;2.407095e-001
1.016345e+003;2.708870e-001
1.018273e+003;2.811543e-001
1.020202e+003;2.665218e-001
1.022130e+003;2.385749e-001
1.024059e+003;2.092446e-001
1.025988e+003;1.838758e-001
1.027916e+003;1.647987e-001
1.029845e+003;1.538592e-001
1.031773e+003;1.499299e-001
1.033702e+003;1.504189e-001
1.035630e+003;1.526338e-001
1.037559e+003;1.553983e-001
1.039487e+003;1.585314e-001
1.041416e+003;1.614026e-001
1.043344e+003;1.635956e-001
1.045273e+003;1.653948e-001
1.047202e+003;1.667482e-001
1.049130e+003;1.678227e-001
1.051059e+003;1.693752e-001
1.052987e+003;1.712528e-001
1.054916e+003;1.728233e-001
1.056844e+003;1.751810e-001
1.058773e+003;1.790388e-001
1.060701e+003;1.839669e-001
1.062630e+003;1.897318e-001
1.064558e+003;1.970756e-001
1.066487e+003;2.056467e-001
1.068416e+003;2.158768e-001
1.070344e+003;2.281782e-001
1.072273e+003;2.431550e-001
1.074201e+003;2.609945e-001
1.076130e+003;2.814288e-001
1.078058e+003;3.053448e-001
1.079987e+003;3.311964e-001
1.081915e+003;3.564762e-001
1.083844e+003;3.794204e-001
1.085773e+003;3.985948e-001
1.087701e+003;4.149360e-001
1.089630e+003;4.296088e-001
1.091558e+003;4.416087e-001
1.093487e+003;4.513218e-001
1.095415e+003;4.591038e-001
1.097344e+003;4.625019e-001
1.099272e+003;4.591815e-001
1.101201e+003;4.483722e-001
1.103129e+003;4.307434e-001
1.105058e+003;4.079712e-001
1.106987e+003;3.831439e-001
1.108915e+003;3.607108e-001
1.110844e+003;3.456447e-001
1.112772e+003;3.387692e-001
1.114701e+003;3.364292e-001
1.116629e+003;3.333237e-001
1.118558e+003;3.277875e-001
1.120486e+003;3.186536e-001
1.122415e+003;3.062138e-001
1.124344e+003;2.918584e-001
1.126272e+003;2.756181e-001
1.128201e+003;2.590373e-001
1.130129e+003;2.421823e-001
1.132058e+003;2.247157e-001
1.133986e+003;2.069426e-001
1.135915e+003;1.904918e-001
1.137843e+003;1.764100e-001
1.139772e+003;1.642552e-001
1.141700e+003;1.539002e-001
1.143629e+003;1.456801e-001
1.145557e+003;1.387948e-001
1.147486e+003;1.326124e-001
1.149415e+003;1.269696e-001
1.151343e+003;1.224032e-001
1.153272e+003;1.182911e-001
1.155200e+003;1.147973e-001
1.157129e+003;1.123964e-001
1.159057e+003;1.107614e-001
1.160986e+003;1.100656e-001
1.162914e+003;1.103218e-001
1.164843e+003;1.119346e-001
1.166771e+003;1.152284e-001
1.168700e+003;1.200736e-001
1.170629e+003;1.255898e-001
1.172557e+003;1.300437e-001
1.174486e+003;1.323406e-001
1.176414e+003;1.325385e-001
1.178343e+003;1.311953e-001
1.180271e+003;1.288821e-001
1.182200e+003;1.263161e-001
1.184128e+003;1.247989e-001
1.186057e+003;1.244867e-001
1.187986e+003;1.250024e-001
1.189914e+003;1.266000e-001
1.191843e+003;1.288758e-001
1.193771e+003;1.322710e-001
1.195700e+003;1.366421e-001
1.197628e+003;1.415949e-001
1.199557e+003;1.468273e-001
1.201485e+003;1.522713e-001
1.203414e+003;1.582613e-001
1.205343e+003;1.648414e-001
1.207271e+003;1.720130e-001
1.209200e+003;1.795000e-001
1.211128e+003;1.875963e-001
1.213057e+003;1.963999e-001
1.214985e+003;2.060806e-001
1.216914e+003;2.167178e-001
1.218842e+003;2.276514e-001
1.220771e+003;2.386147e-001
1.222699e+003;2.499145e-001
1.224628e+003;2.621761e-001
1.226557e+003;2.767407e-001
1.228485e+003;2.946319e-001
1.230414e+003;3.168198e-001
1.232342e+003;3.444932e-001
1.234271e+003;3.774629e-001
1.236199e+003;4.142049e-001
1.238128e+003;4.513230e-001
1.240056e+003;4.846439e-001
1.241985e+003;5.100581e-001
1.243913e+003;5.248791e-001
1.245842e+003;5.293075e-001
1.247771e+003;5.248117e-001
1.249699e+003;5.140158e-001
1.251628e+003;5.003347e-001
1.253556e+003;4.861811e-001
1.255485e+003;4.728092e-001
1.257413e+003;4.610080e-001
1.259342e+003;4.494694e-001
1.261270e+003;4.364859e-001
1.263199e+003;4.206867e-001
1.265127e+003;4.017136e-001
1.267056e+003;3.802863e-001
1.268985e+003;3.574103e-001
1.270913e+003;3.349455e-001
1.272842e+003;3.144998e-001
1.274770e+003;2.966201e-001
1.276699e+003;2.811659e-001
1.278627e+003;2.673878e-001
1.280556e+003;2.551074e-001
1.282484e+003;2.437387e-001
1.284413e+003;2.328150e-001
1.286342e+003;2.223913e-001
1.288270e+003;2.122369e-001
1.290199e+003;2.014910e-001
1.292127e+003;1.902113e-001
1.294056e+003;1.789730e-001
1.295984e+003;1.683838e-001
1.297913e+003;1.583129e-001
1.299841e+003;1.484871e-001
1.301770e+003;1.397414e-001
1.303698e+003;1.329035e-001
1.305627e+003;1.270194e-001
1.307556e+003;1.213396e-001
1.309484e+003;1.158291e-001
1.311413e+003;1.108811e-001
1.313341e+003;1.066145e-001
1.315270e+003;1.029986e-001
1.317198e+003;9.997977e-002
1.319127e+003;9.759145e-002
1.321055e+003;9.576843e-002
1.322984e+003;9.492271e-002
1.324912e+003;9.573089e-002
1.326841e+003;9.915908e-002
1.328770e+003;1.067457e-001
1.330698e+003;1.198884e-001
1.332627e+003;1.381823e-001
1.334555e+003;1.581718e-001
1.336484e+003;1.739279e-001
1.338412e+003;1.803347e-001
1.340341e+003;1.754628e-001
1.342269e+003;1.615467e-001
1.344198e+003;1.433071e-001
1.346126e+003;1.253868e-001
1.348055e+003;1.105965e-001
1.349984e+003;9.969468e-002
1.351912e+003;9.208059e-002
1.353841e+003;8.715523e-002
1.355769e+003;8.392354e-002
1.357698e+003;8.208151e-002
1.359626e+003;8.149347e-002
1.361555e+003;8.213447e-002
1.363483e+003;8.383913e-002
1.365412e+003;8.609302e-002
1.367341e+003;8.838473e-002
1.369269e+003;8.993752e-002
1.371198e+003;9.066349e-002
1.373126e+003;9.072074e-002
1.375055e+003;9.023304e-002
1.376983e+003;8.986473e-002
1.378912e+003;8.970066e-002
1.380840e+003;8.976486e-002
1.382769e+003;9.035932e-002
1.384698e+003;9.125898e-002
1.386626e+003;9.214339e-002
1.388555e+003;9.322549e-002
1.390483e+003;9.464978e-002
1.392412e+003;9.664883e-002
1.394340e+003;9.949419e-002
1.396269e+003;1.036955e-001
1.398197e+003;1.094082e-001
1.400126e+003;1.173809e-001
1.402054e+003;1.282278e-001
1.403983e+003;1.416352e-001
1.405911e+003;1.558197e-001
1.407840e+003;1.661203e-001
1.409769e+003;1.664259e-001
1.411697e+003;1.549008e-001
1.413626e+003;1.359062e-001
1.415554e+003;1.157779e-001
1.417483e+003;9.898406e-002
1.419411e+003;8.722432e-002
1.421340e+003;8.008638e-002
1.423268e+003;7.589392e-002
1.425197e+003;7.386044e-002
1.427125e+003;7.348873e-002
1.429054e+003;7.428692e-002
1.430983e+003;7.620671e-002
1.432911e+003;7.864622e-002
1.434840e+003;8.123296e-002
1.436768e+003;8.359806e-002
1.438697e+003;8.567796e-002
1.440625e+003;8.732098e-002
1.442554e+003;8.892078e-002
1.444482e+003;9.053809e-002
1.446411e+003;9.237847e-002
1.448340e+003;9.452232e-002
1.450268e+003;9.660297e-002
1.452197e+003;9.811590e-002
1.454125e+003;9.913873e-002
1.456054e+003;9.959770e-002
1.457982e+003;9.982213e-002
1.459911e+003;9.990853e-002
1.461839e+003;9.954248e-002
1.463768e+003;9.883376e-002
1.465697e+003;9.878884e-002
1.467625e+003;1.000509e-001
1.469554e+003;1.020689e-001
1.471482e+003;1.031036e-001
1.473411e+003;1.018470e-001
1.475339e+003;9.923083e-002
1.477268e+003;9.581995e-002
1.479196e+003;9.189959e-002
1.481125e+003;8.776636e-002
1.483053e+003;8.362626e-002
1.484982e+003;7.948730e-002
1.486911e+003;7.557309e-002
1.488839e+003;7.227890e-002
1.490768e+003;6.971336e-002
1.492696e+003;6.823657e-002
1.494625e+003;6.837738e-002
1.496553e+003;7.073956e-002
1.498482e+003;7.554569e-002
1.500410e+003;8.263969e-002
1.502339e+003;9.155413e-002
1.504267e+003;9.857458e-002
1.506196e+003;9.829175e-002
1.508125e+003;9.076210e-002
1.510053e+003;8.125965e-002
1.511982e+003;7.376273e-002
1.513910e+003;6.899685e-002
1.515839e+003;6.622100e-002
1.517767e+003;6.513695e-002
1.519696e+003;6.512144e-002
1.521624e+003;6.548483e-002
1.523553e+003;6.605949e-002
1.525481e+003;6.616478e-002
1.527410e+003;6.586197e-002
1.529339e+003;6.531665e-002
1.531267e+003;6.461620e-002
1.533196e+003;6.374526e-002
1.535124e+003;6.278211e-002
1.537053e+003;6.199865e-002
1.538981e+003;6.156024e-002
1.540910e+003;6.133462e-002
1.542838e+003;6.104546e-002
1.544767e+003;6.089035e-002
1.546695e+003;6.116690e-002
1.548624e+003;6.153760e-002
1.550553e+003;6.197167e-002
1.552481e+003;6.222053e-002
1.554410e+003;6.247374e-002
1.556338e+003;6.295275e-002
1.558267e+003;6.336531e-002
1.560195e+003;6.413907e-002
1.562124e+003;6.527036e-002
1.564052e+003;6.652185e-002
1.565981e+003;6.807815e-002
1.567910e+003;7.000193e-002
1.569838e+003;7.248644e-002
1.571767e+003;7.584948e-002
1.573695e+003;7.967996e-002
1.575624e+003;8.314698e-002
1.577552e+003;8.552292e-002
1.579481e+003;8.617633e-002
1.581409e+003;8.439229e-002
1.583338e+003;8.082432e-002
1.585266e+003;7.685146e-002
1.587195e+003;7.323239e-002
1.589124e+003;7.032652e-002
1.591052e+003;6.831691e-002
1.592981e+003;6.753716e-002
1.594909e+003;6.744841e-002
1.596838e+003;6.770957e-002
1.598766e+003;6.857374e-002
1.600695e+003;6.979168e-002
1.602623e+003;7.133481e-002
1.604552e+003;7.313270e-002
1.606480e+003;7.529531e-002
1.608409e+003;7.792629e-002
1.610338e+003;8.042131e-002
1.612266e+003;8.243405e-002
1.614195e+003;8.342064e-002
1.616123e+003;8.294443e-002
1.618052e+003;8.148020e-002
1.619980e+003;7.975695e-002
1.621909e+003;7.821953e-002
1.623837e+003;7.719721e-002
1.625766e+003;7.679100e-002
1.627694e+003;7.707829e-002
1.629623e+003;7.790087e-002
1.631552e+003;7.878798e-002
1.633480e+003;7.942221e-002
1.635409e+003;8.027452e-002
1.637337e+003;8.123931e-002
1.639266e+003;8.214016e-002
1.641194e+003;8.335909e-002
1.643123e+003;8.468873e-002
1.645051e+003;8.582352e-002
1.646980e+003;8.700537e-002
1.648909e+003;8.848908e-002
1.650837e+003;9.026350e-002
1.652766e+003;9.227937e-002
1.654694e+003;9.460928e-002
1.656623e+003;9.704547e-002
1.658551e+003;9.987071e-002
1.660480e+003;1.029588e-001
1.662408e+003;1.064003e-001
1.664337e+003;1.105384e-001
1.666266e+003;1.148289e-001
1.668194e+003;1.187909e-001
1.670123e+003;1.229239e-001
1.672051e+003;1.272541e-001
1.673980e+003;1.314765e-001
1.675908e+003;1.359591e-001
1.677837e+003;1.409332e-001
1.679765e+003;1.459083e-001
1.681694e+003;1.506295e-001
1.683622e+003;1.547229e-001
1.685551e+003;1.591330e-001
1.687479e+003;1.646253e-001
1.689408e+003;1.713108e-001
1.691337e+003;1.794861e-001
1.693265e+003;1.896978e-001
1.695194e+003;2.027641e-001
1.697122e+003;2.191177e-001
1.699051e+003;2.392967e-001
1.700979e+003;2.654233e-001
1.702908e+003;2.979822e-001
1.704836e+003;3.383338e-001
1.706765e+003;3.863381e-001
1.708693e+003;4.384850e-001
1.710622e+003;4.868619e-001
1.712551e+003;5.209612e-001
1.714479e+003;5.327640e-001
1.716408e+003;5.219716e-001
1.718336e+003;4.947923e-001
1.720265e+003;4.608248e-001
1.722193e+003;4.252377e-001
1.724122e+003;3.904035e-001
1.726050e+003;3.564422e-001
1.727979e+003;3.240973e-001
1.729908e+003;2.933191e-001
1.731836e+003;2.646611e-001
1.733765e+003;2.371955e-001
1.735693e+003;2.114447e-001
1.737622e+003;1.879275e-001
1.739550e+003;1.657698e-001
1.741479e+003;1.447502e-001
1.743407e+003;1.258009e-001
1.745336e+003;1.096966e-001
1.747265e+003;9.659006e-002
1.749193e+003;8.639349e-002
1.751122e+003;7.865293e-002
1.753050e+003;7.300619e-002
1.754979e+003;6.909096e-002
1.756907e+003;6.632004e-002
1.758836e+003;6.417701e-002
1.760764e+003;6.270535e-002
1.762693e+003;6.163252e-002
1.764621e+003;6.057464e-002
1.766550e+003;5.951332e-002
1.768479e+003;5.891261e-002
1.770407e+003;5.836575e-002
1.772336e+003;5.765343e-002
1.774264e+003;5.719746e-002
1.776193e+003;5.708105e-002
1.778121e+003;5.698954e-002
1.780050e+003;5.660409e-002
1.781978e+003;5.609009e-002
1.783907e+003;5.576756e-002
1.785835e+003;5.584363e-002
1.787764e+003;5.593340e-002
1.789693e+003;5.552817e-002
1.791621e+003;5.511937e-002
1.793550e+003;5.499454e-002
1.795478e+003;5.501609e-002
1.797407e+003;5.513506e-002
1.799335e+003;5.524654e-002
1.801264e+003;5.527228e-002
1.803192e+003;5.529170e-002
1.805121e+003;5.528839e-002
1.807049e+003;5.546131e-002
1.808978e+003;5.558168e-002
1.810907e+003;5.538752e-002
1.812835e+003;5.539896e-002
1.814764e+003;5.547772e-002
1.816692e+003;5.527277e-002
1.818621e+003;5.512363e-002
1.820549e+003;5.506111e-002
1.822478e+003;5.499488e-002
1.824406e+003;5.491328e-002
1.826335e+003;5.471964e-002
1.828264e+003;5.432907e-002
1.830192e+003;5.387196e-002
1.832121e+003;5.328821e-002
1.834049e+003;5.269402e-002
1.835978e+003;5.220323e-002
1.837906e+003;5.169237e-002
1.839835e+003;5.103923e-002
1.841763e+003;5.025196e-002
1.843692e+003;4.917762e-002
1.845620e+003;4.818041e-002
1.847549e+003;4.737320e-002
1.849478e+003;4.646091e-002
1.851406e+003;4.539357e-002
1.853335e+003;4.453803e-002
1.855263e+003;4.376039e-002
1.857192e+003;4.295184e-002
1.859120e+003;4.220810e-002
1.861049e+003;4.149381e-002
1.862977e+003;4.073550e-002
1.864906e+003;4.011029e-002
1.866834e+003;3.961530e-002
1.868763e+003;3.915031e-002
1.870692e+003;3.879138e-002
1.872620e+003;3.839206e-002
1.874549e+003;3.785332e-002
1.876477e+003;3.752995e-002
1.878406e+003;3.720113e-002
1.880334e+003;3.704810e-002
1.882263e+003;3.704384e-002
1.884191e+003;3.693679e-002
1.886120e+003;3.684178e-002
1.888048e+003;3.686782e-002
1.889977e+003;3.674809e-002
1.891906e+003;3.667575e-002
1.893834e+003;3.675137e-002
1.895763e+003;3.702782e-002
1.897691e+003;3.717936e-002
1.899620e+003;3.715637e-002
1.901548e+003;3.740577e-002
1.903477e+003;3.773082e-002
1.905405e+003;3.795383e-002
1.907334e+003;3.819212e-002
1.909262e+003;3.822063e-002
1.911191e+003;3.836133e-002
1.913120e+003;3.869465e-002
1.915048e+003;3.918461e-002
1.916977e+003;3.969179e-002
1.918905e+003;4.014275e-002
1.920834e+003;4.067549e-002
1.922762e+003;4.129437e-002
1.924691e+003;4.210598e-002
1.926619e+003;4.301823e-002
1.928548e+003;4.374045e-002
1.930477e+003;4.449207e-002
1.932405e+003;4.543121e-002
1.934334e+003;4.636393e-002
1.936262e+003;4.720780e-002
1.938191e+003;4.822313e-002
1.940119e+003;4.943406e-002
1.942048e+003;5.040893e-002
1.943976e+003;5.107043e-002
1.945905e+003;5.162191e-002
1.947833e+003;5.234394e-002
1.949762e+003;5.293795e-002
1.951691e+003;5.307605e-002
1.953619e+003;5.339981e-002
1.955548e+003;5.382837e-002
1.957476e+003;5.397910e-002
1.959405e+003;5.359241e-002
1.961333e+003;5.328154e-002
1.963262e+003;5.294225e-002
1.965190e+003;5.195777e-002
1.967119e+003;5.075223e-002
1.969047e+003;4.970225e-002
1.970976e+003;4.875685e-002
1.972905e+003;4.779248e-002
1.974833e+003;4.702196e-002
1.976762e+003;4.646120e-002
1.978690e+003;4.554221e-002
1.980619e+003;4.460103e-002
1.982547e+003;4.404105e-002
1.984476e+003;4.343132e-002
1.986404e+003;4.290856e-002
1.988333e+003;4.247621e-002
1.990261e+003;4.197041e-002
1.992190e+003;4.133351e-002
1.994119e+003;4.062532e-002
1.996047e+003;3.991904e-002
1.997976e+003;3.913341e-002
1.999904e+003;3.856069e-002
2.001833e+003;3.811321e-002
2.003761e+003;3.752366e-002
2.005690e+003;3.688496e-002
2.007618e+003;3.646641e-002
2.009547e+003;3.637168e-002
2.011476e+003;3.626152e-002
2.013404e+003;3.565300e-002
2.015333e+003;3.509836e-002
2.017261e+003;3.506620e-002
2.019190e+003;3.493303e-002
2.021118e+003;3.451163e-002
2.023047e+003;3.413191e-002
2.024975e+003;3.390301e-002
2.026904e+003;3.373503e-002
2.028833e+003;3.349173e-002
2.030761e+003;3.318597e-002
2.032690e+003;3.300193e-002
2.034618e+003;3.300904e-002
2.036547e+003;3.304801e-002
2.038475e+003;3.311069e-002
2.040404e+003;3.321830e-002
2.042332e+003;3.339278e-002
2.044261e+003;3.390133e-002
2.046189e+003;3.438260e-002
2.048118e+003;3.453853e-002
2.050047e+003;3.484273e-002
2.051975e+003;3.511279e-002
2.053904e+003;3.545101e-002
2.055832e+003;3.576142e-002
2.057761e+003;3.615354e-002
2.059689e+003;3.666310e-002
2.061618e+003;3.721888e-002
2.063546e+003;3.776884e-002
2.065475e+003;3.819136e-002
2.067404e+003;3.879797e-002
2.069332e+003;3.935167e-002
2.071260e+003;3.969869e-002
2.073189e+003;4.013043e-002
2.075118e+003;4.069667e-002
2.077046e+003;4.124318e-002
2.078975e+003;4.160954e-002
2.080903e+003;4.200830e-002
2.082832e+003;4.237110e-002
2.084760e+003;4.263372e-002
2.086689e+003;4.295816e-002
2.088617e+003;4.315446e-002
2.090546e+003;4.311186e-002
2.092475e+003;4.314205e-002
2.094403e+003;4.335889e-002
2.096332e+003;4.337247e-002
2.098260e+003;4.318348e-002
2.100189e+003;4.337430e-002
2.102117e+003;4.363709e-002
2.104046e+003;4.363350e-002
2.105974e+003;4.361020e-002
2.107903e+003;4.341597e-002
2.109832e+003;4.311457e-002
2.111760e+003;4.308892e-002
2.113688e+003;4.314073e-002
2.115617e+003;4.290941e-002
2.117546e+003;4.250153e-002
2.119474e+003;4.227351e-002
2.121403e+003;4.209941e-002
2.123331e+003;4.175134e-002
2.125260e+003;4.123928e-002
2.127188e+003;4.086315e-002
2.129117e+003;4.055565e-002
2.131045e+003;4.008813e-002
2.132974e+003;3.956278e-002
2.134903e+003;3.908541e-002
2.136831e+003;3.870976e-002
2.138760e+003;3.854798e-002
2.140688e+003;3.840585e-002
2.142617e+003;3.809198e-002
2.144545e+003;3.767017e-002
2.146474e+003;3.735431e-002
2.148402e+003;3.709682e-002
2.150331e+003;3.651989e-002
2.152260e+003;3.595902e-002
2.154188e+003;3.544540e-002
2.156117e+003;3.509523e-002
2.158045e+003;3.485038e-002
2.159974e+003;3.445502e-002
2.161902e+003;3.398516e-002
2.163831e+003;3.349999e-002
2.165759e+003;3.319108e-002
2.167688e+003;3.301876e-002
2.169616e+003;3.278869e-002
2.171545e+003;3.242887e-002
2.173474e+003;3.209579e-002
2.175402e+003;3.179875e-002
2.177331e+003;3.160517e-002
2.179259e+003;3.136320e-002
2.181188e+003;3.124565e-002
2.183116e+003;3.151773e-002
2.185045e+003;3.143885e-002
2.186973e+003;3.131163e-002
2.188902e+003;3.136826e-002
2.190831e+003;3.150105e-002
2.192759e+003;3.159679e-002
2.194688e+003;3.165998e-002
2.196616e+003;3.151823e-002
2.198545e+003;3.140334e-002
2.200473e+003;3.178527e-002
2.202402e+003;3.213671e-002
2.204330e+003;3.223776e-002
2.206259e+003;3.241363e-002
2.208188e+003;3.274510e-002
2.210116e+003;3.331378e-002
2.212044e+003;3.375533e-002
2.213973e+003;3.376915e-002
2.215902e+003;3.376020e-002
2.217830e+003;3.388990e-002
2.219759e+003;3.411923e-002
2.221687e+003;3.432458e-002
2.223616e+003;3.452633e-002
2.225544e+003;3.454922e-002
2.227473e+003;3.448038e-002
2.229401e+003;3.434678e-002
2.231330e+003;3.422311e-002
2.233259e+003;3.446320e-002
2.235187e+003;3.480073e-002
2.237116e+003;3.492348e-002
2.239044e+003;3.503280e-002
2.240973e+003;3.506599e-002
2.242901e+003;3.512810e-002
2.244830e+003;3.518145e-002
2.246758e+003;3.530902e-002
2.248687e+003;3.546125e-002
2.250615e+003;3.573347e-002
2.252544e+003;3.608178e-002
2.254473e+003;3.632618e-002
2.256401e+003;3.634314e-002
2.258330e+003;3.635694e-002
2.260258e+003;3.636469e-002
2.262187e+003;3.641394e-002
2.264115e+003;3.646122e-002
2.266044e+003;3.642727e-002
2.267972e+003;3.628190e-002
2.269901e+003;3.624088e-002
2.271830e+003;3.640382e-002
2.273758e+003;3.654209e-002
2.275687e+003;3.683431e-002
2.277615e+003;3.709368e-002
2.279544e+003;3.717662e-002
2.281472e+003;3.732857e-002
2.283401e+003;3.753273e-002
2.285329e+003;3.778966e-002
2.287258e+003;3.782273e-002
2.289187e+003;3.750239e-002
2.291115e+003;3.697882e-002
2.293043e+003;3.635896e-002
2.294972e+003;3.552403e-002
2.296901e+003;3.470295e-002
2.298829e+003;3.420544e-002
2.300758e+003;3.377070e-002
2.302686e+003;3.311795e-002
2.304615e+003;3.250653e-002
2.306543e+003;3.210307e-002
2.308472e+003;3.184588e-002
2.310400e+003;3.159587e-002
2.312329e+003;3.147630e-002
2.314258e+003;3.149290e-002
2.316186e+003;3.161832e-002
2.318115e+003;3.176780e-002
2.320043e+003;3.204039e-002
2.321972e+003;3.216297e-002
2.323900e+003;3.244855e-002
2.325829e+003;3.280806e-002
2.327757e+003;3.297823e-002
2.329686e+003;3.312446e-002
2.331615e+003;3.322285e-002
2.333543e+003;3.306714e-002
2.335472e+003;3.298258e-002
2.337400e+003;3.334505e-002
2.339329e+003;3.366330e-002
2.341257e+003;3.372095e-002
2.343186e+003;3.376747e-002
2.345114e+003;3.390308e-002
2.347043e+003;3.412141e-002
2.348971e+003;3.457025e-002
2.350900e+003;3.515889e-002
2.352829e+003;3.541696e-002
2.354757e+003;3.559161e-002
2.356686e+003;3.590644e-002
2.358614e+003;3.648677e-002
2.360543e+003;3.706055e-002
2.362471e+003;3.723260e-002
2.364400e+003;3.745677e-002
2.366328e+003;3.785028e-002
2.368257e+003;3.811553e-002
2.370186e+003;3.837993e-002
2.372114e+003;3.848762e-002
2.374042e+003;3.842829e-002
2.375971e+003;3.824581e-002
2.377900e+003;3.825804e-002
2.379828e+003;3.843180e-002
2.381757e+003;3.845341e-002
2.383685e+003;3.831087e-002
2.385614e+003;3.830621e-002
2.387542e+003;3.823970e-002
2.389471e+003;3.811358e-002
2.391399e+003;3.811253e-002
2.393328e+003;3.807415e-002
2.395257e+003;3.796312e-002
2.397185e+003;3.800572e-002
2.399114e+003;3.790154e-002
2.401042e+003;3.749874e-002
2.402971e+003;3.723946e-002
2.404899e+003;3.699174e-002
2.406828e+003;3.666343e-002
2.408756e+003;3.629426e-002
2.410685e+003;3.598908e-002
2.412614e+003;3.575117e-002
2.414542e+003;3.540463e-002
2.416471e+003;3.512555e-002
2.418399e+003;3.505313e-002
2.420328e+003;3.483986e-002
2.422256e+003;3.447841e-002
2.424185e+003;3.409579e-002
2.426113e+003;3.362478e-002
2.428042e+003;3.325586e-002
2.429970e+003;3.287474e-002
2.431899e+003;3.232720e-002
2.433828e+003;3.194622e-002
2.435756e+003;3.175911e-002
2.437685e+003;3.160620e-002
2.439613e+003;3.129739e-002
2.441542e+003;3.097969e-002
2.443470e+003;3.079853e-002
2.445399e+003;3.062822e-002
2.447327e+003;3.055154e-002
2.449256e+003;3.032895e-002
2.451185e+003;3.007743e-002
2.453113e+003;2.994788e-002
2.455042e+003;3.006270e-002
2.456970e+003;3.007974e-002
2.458899e+003;2.977740e-002
2.460827e+003;2.969001e-002
2.462756e+003;2.963385e-002
2.464684e+003;2.955617e-002
2.466613e+003;2.964645e-002
2.468542e+003;2.958653e-002
2.470470e+003;2.954823e-002
2.472398e+003;2.974071e-002
2.474327e+003;3.016181e-002
2.476256e+003;3.053056e-002
2.478184e+003;3.081987e-002
2.480113e+003;3.099100e-002
2.482041e+003;3.096392e-002
2.483970e+003;3.107994e-002
2.485898e+003;3.139280e-002
2.487827e+003;3.180980e-002
2.489755e+003;3.188681e-002
2.491684e+003;3.182028e-002
2.493613e+003;3.213300e-002
2.495541e+003;3.237396e-002
2.497470e+003;3.247197e-002
2.499398e+003;3.291471e-002
2.501327e+003;3.320467e-002
2.503255e+003;3.314452e-002
2.505184e+003;3.327979e-002
2.507112e+003;3.355361e-002
2.509041e+003;3.358204e-002
2.510969e+003;3.354169e-002
2.512898e+003;3.371340e-002
2.514827e+003;3.388549e-002
2.516755e+003;3.398366e-002
2.518684e+003;3.428478e-002
2.520612e+003;3.463552e-002
2.522541e+003;3.509250e-002
2.524469e+003;3.526381e-002
2.526398e+003;3.525332e-002
2.528326e+003;3.548901e-002
2.530255e+003;3.578362e-002
2.532184e+003;3.577945e-002
2.534112e+003;3.570656e-002
2.536041e+003;3.593955e-002
2.537969e+003;3.599469e-002
2.539898e+003;3.583677e-002
2.541826e+003;3.579017e-002
2.543755e+003;3.601568e-002
2.545683e+003;3.633190e-002
2.547612e+003;3.606727e-002
2.549541e+003;3.566001e-002
2.551469e+003;3.554338e-002
2.553397e+003;3.563210e-002
2.555326e+003;3.591889e-002
2.557255e+003;3.592782e-002
2.559183e+003;3.584871e-002
2.561112e+003;3.588765e-002
2.563040e+003;3.590119e-002
2.564969e+003;3.594787e-002
2.566897e+003;3.592595e-002
2.568826e+003;3.580096e-002
2.570754e+003;3.580557e-002
2.572683e+003;3.571354e-002
2.574612e+003;3.556158e-002
2.576540e+003;3.565124e-002
2.578469e+003;3.584583e-002
2.580397e+003;3.599520e-002
2.582326e+003;3.603487e-002
2.584254e+003;3.591428e-002
2.586183e+003;3.553604e-002
2.588111e+003;3.519338e-002
2.590040e+003;3.489346e-002
2.591969e+003;3.453796e-002
2.593897e+003;3.421598e-002
2.595826e+003;3.367490e-002
2.597754e+003;3.343092e-002
2.599683e+003;3.339582e-002
2.601611e+003;3.315843e-002
2.603540e+003;3.274617e-002
2.605468e+003;3.239592e-002
2.607397e+003;3.223266e-002
2.609325e+003;3.210282e-002
2.611254e+003;3.180360e-002
2.613183e+003;3.153829e-002
2.615111e+003;3.145471e-002
2.617040e+003;3.149593e-002
2.618968e+003;3.141891e-002
2.620897e+003;3.133478e-002
2.622825e+003;3.145923e-002
2.624754e+003;3.174495e-002
2.626682e+003;3.169929e-002
2.628611e+003;3.151420e-002
2.630540e+003;3.164269e-002
2.632468e+003;3.164529e-002
2.634396e+003;3.114974e-002
2.636325e+003;3.039615e-002
2.638254e+003;2.979398e-002
2.640182e+003;2.951432e-002
2.642111e+003;2.920529e-002
2.644039e+003;2.893693e-002
2.645968e+003;2.866239e-002
2.647896e+003;2.828666e-002
2.649825e+003;2.812427e-002
2.651753e+003;2.818218e-002
2.653682e+003;2.799748e-002
2.655611e+003;2.757279e-002
2.657539e+003;2.743473e-002
2.659468e+003;2.760008e-002
2.661396e+003;2.750388e-002
2.663325e+003;2.736560e-002
2.665253e+003;2.741521e-002
2.667182e+003;2.767855e-002
2.669110e+003;2.780820e-002
2.671039e+003;2.744754e-002
2.672968e+003;2.728342e-002
2.674896e+003;2.755083e-002
2.676825e+003;2.769161e-002
2.678753e+003;2.768981e-002
2.680682e+003;2.767826e-002
2.682610e+003;2.776518e-002
2.684539e+003;2.771835e-002
2.686467e+003;2.765143e-002
2.688396e+003;2.763370e-002
2.690324e+003;2.767448e-002
2.692253e+003;2.767674e-002
2.694182e+003;2.772460e-002
2.696110e+003;2.797596e-002
2.698039e+003;2.822082e-002
2.699967e+003;2.834565e-002
2.701896e+003;2.818203e-002
2.703824e+003;2.810550e-002
2.705753e+003;2.827839e-002
2.707681e+003;2.851068e-002
2.709610e+003;2.842506e-002
2.711539e+003;2.832578e-002
2.713467e+003;2.847176e-002
2.715396e+003;2.868303e-002
2.717324e+003;2.879688e-002
2.719253e+003;2.900256e-002
2.721181e+003;2.926944e-002
2.723110e+003;2.963187e-002
2.725038e+003;2.987301e-002
2.726967e+003;2.987159e-002
2.728896e+003;2.998292e-002
2.730824e+003;3.032526e-002
2.732752e+003;3.086014e-002
2.734681e+003;3.122553e-002
2.736610e+003;3.108111e-002
2.738538e+003;3.125665e-002
2.740467e+003;3.165987e-002
2.742395e+003;3.155364e-002
2.744324e+003;3.144908e-002
2.746252e+003;3.184973e-002
2.748181e+003;3.183394e-002
2.750109e+003;3.142315e-002
2.752038e+003;3.153291e-002
2.753967e+003;3.184627e-002
2.755895e+003;3.182017e-002
2.757824e+003;3.156127e-002
2.759752e+003;3.140003e-002
2.761681e+003;3.133834e-002
2.763609e+003;3.155033e-002
2.765538e+003;3.189034e-002
2.767466e+003;3.205037e-002
2.769395e+003;3.222987e-002
2.771323e+003;3.243127e-002
2.773252e+003;3.249371e-002
2.775181e+003;3.255925e-002
2.777109e+003;3.268805e-002
2.779038e+003;3.291278e-002
2.780966e+003;3.355597e-002
2.782895e+003;3.412360e-002
2.784823e+003;3.420820e-002
2.786752e+003;3.446162e-002
2.788680e+003;3.507895e-002
2.790609e+003;3.574110e-002
2.792538e+003;3.624257e-002
2.794466e+003;3.652075e-002
2.796395e+003;3.698701e-002
2.798323e+003;3.761998e-002
2.800252e+003;3.811376e-002
2.802180e+003;3.833748e-002
2.804109e+003;3.853505e-002
2.806037e+003;3.880051e-002
2.807966e+003;3.887182e-002
2.809895e+003;3.860722e-002
2.811823e+003;3.797050e-002
2.813751e+003;3.752305e-002
2.815680e+003;3.747371e-002
2.817609e+003;3.744575e-002
2.819537e+003;3.720336e-002
2.821466e+003;3.682018e-002
2.823394e+003;3.659226e-002
2.825323e+003;3.679572e-002
2.827251e+003;3.710050e-002
2.829180e+003;3.758526e-002
2.831108e+003;3.821824e-002
2.833037e+003;3.882688e-002
2.834966e+003;3.942804e-002
2.836894e+003;3.991912e-002
2.838823e+003;4.058610e-002
2.840751e+003;4.133701e-002
2.842680e+003;4.213493e-002
2.844608e+003;4.296032e-002
2.846537e+003;4.387086e-002
2.848465e+003;4.483062e-002
2.850394e+003;4.566156e-002
2.852323e+003;4.631056e-002
2.854251e+003;4.719701e-002
2.856180e+003;4.806603e-002
2.858108e+003;4.869420e-002
2.860037e+003;4.913105e-002
2.861965e+003;4.950223e-002
2.863894e+003;4.987244e-002
2.865822e+003;5.035073e-002
2.867751e+003;5.077894e-002
2.869679e+003;5.116264e-002
2.871608e+003;5.156016e-002
2.873536e+003;5.180599e-002
2.875465e+003;5.211543e-002
2.877394e+003;5.273906e-002
2.879322e+003;5.339378e-002
2.881251e+003;5.393231e-002
2.883179e+003;5.437022e-002
2.885108e+003;5.478083e-002
2.887036e+003;5.525076e-002
2.888965e+003;5.564955e-002
2.890893e+003;5.604931e-002
2.892822e+003;5.657231e-002
2.894750e+003;5.738452e-002
2.896679e+003;5.823232e-002
2.898608e+003;5.884150e-002
2.900536e+003;5.985592e-002
2.902465e+003;6.107211e-002
2.904393e+003;6.243724e-002
2.906322e+003;6.356648e-002
2.908250e+003;6.419207e-002
2.910179e+003;6.433602e-002
2.912107e+003;6.386742e-002
2.914036e+003;6.294291e-002
2.915965e+003;6.177001e-002
2.917893e+003;6.083897e-002
2.919822e+003;5.985287e-002
2.921750e+003;5.846635e-002
2.923679e+003;5.711363e-002
2.925607e+003;5.585818e-002
2.927536e+003;5.511095e-002
2.929464e+003;5.511967e-002
2.931393e+003;5.548837e-002
2.933322e+003;5.568777e-002
2.935250e+003;5.550046e-002
2.937178e+003;5.595220e-002
2.939107e+003;5.716480e-002
2.941036e+003;5.816068e-002
2.942964e+003;5.891963e-002
2.944893e+003;6.032116e-002
2.946821e+003;6.200855e-002
2.948750e+003;6.363711e-002
2.950678e+003;6.501702e-002
2.952607e+003;6.613441e-002
2.954535e+003;6.750917e-002
2.956464e+003;6.907889e-002
2.958393e+003;7.055948e-002
2.960321e+003;7.162406e-002
2.962250e+003;7.246060e-002
2.964178e+003;7.323118e-002
2.966107e+003;7.406890e-002
2.968035e+003;7.483481e-002
2.969964e+003;7.482717e-002
2.971892e+003;7.429160e-002
2.973821e+003;7.364526e-002
2.975750e+003;7.293771e-002
2.977678e+003;7.229217e-002
2.979607e+003;7.158100e-002
2.981535e+003;7.084639e-002
2.983464e+003;7.007858e-002
2.985392e+003;6.910343e-002
2.987321e+003;6.815951e-002
2.989249e+003;6.701312e-002
2.991178e+003;6.603113e-002
2.993106e+003;6.518419e-002
2.995035e+003;6.449098e-002
2.996964e+003;6.391870e-002
2.998892e+003;6.320915e-002
3.000821e+003;6.278012e-002
3.002749e+003;6.247094e-002
3.004678e+003;6.178648e-002
3.006606e+003;6.099185e-002
3.008535e+003;6.024179e-002
3.010463e+003;5.950318e-002
3.012392e+003;5.880015e-002
3.014321e+003;5.821789e-002
3.016249e+003;5.761578e-002
3.018177e+003;5.673947e-002
3.020106e+003;5.574157e-002
3.022035e+003;5.444320e-002
3.023963e+003;5.318962e-002
3.025892e+003;5.201753e-002
3.027820e+003;5.095920e-002
3.029749e+003;4.984323e-002
3.031677e+003;4.888824e-002
3.033606e+003;4.803816e-002
3.035534e+003;4.755346e-002
3.037463e+003;4.696539e-002
3.039392e+003;4.644771e-002
3.041320e+003;4.666631e-002
3.043249e+003;4.764023e-002
3.045177e+003;4.901252e-002
3.047106e+003;5.064313e-002
3.049034e+003;5.212582e-002
3.050963e+003;5.348979e-002
3.052891e+003;5.469631e-002
3.054820e+003;5.527277e-002
3.056749e+003;5.545675e-002
3.058677e+003;5.543428e-002
3.060606e+003;5.510474e-002
3.062534e+003;5.488827e-002
3.064463e+003;5.472381e-002
3.066391e+003;5.449627e-002
3.068320e+003;5.463167e-002
3.070248e+003;5.504911e-002
3.072177e+003;5.512438e-002
3.074105e+003;5.497476e-002
3.076034e+003;5.474152e-002
3.077963e+003;5.475347e-002
3.079891e+003;5.445758e-002
3.081820e+003;5.382961e-002
3.083748e+003;5.351328e-002
3.085677e+003;5.337797e-002
3.087605e+003;5.290296e-002
3.089534e+003;5.236274e-002
3.091462e+003;5.170774e-002
3.093391e+003;5.127781e-002
3.095320e+003;5.114960e-002
3.097248e+003;5.144503e-002
3.099177e+003;5.182626e-002
3.101105e+003;5.232847e-002
3.103034e+003;5.292893e-002
3.104962e+003;5.295532e-002
3.106891e+003;5.260080e-002
3.108819e+003;5.260095e-002
3.110748e+003;5.211222e-002
3.112677e+003;5.140183e-002
3.114605e+003;5.068055e-002
3.116533e+003;4.930413e-002
3.118462e+003;4.817323e-002
3.120391e+003;4.770350e-002
3.122319e+003;4.714087e-002
3.124248e+003;4.640976e-002
3.126176e+003;4.616987e-002
3.128105e+003;4.608240e-002
3.130033e+003;4.547940e-002
3.131962e+003;4.491681e-002
3.133890e+003;4.447092e-002
3.135819e+003;4.394443e-002
3.137748e+003;4.291200e-002
3.139676e+003;4.206418e-002
3.141605e+003;4.157315e-002
3.143533e+003;4.106618e-002
3.145462e+003;4.025597e-002
3.147390e+003;3.956532e-002
3.149319e+003;3.913302e-002
3.151247e+003;3.875874e-002
3.153176e+003;3.822182e-002
3.155104e+003;3.758580e-002
3.157033e+003;3.733507e-002
3.158962e+003;3.721213e-002
3.160890e+003;3.703980e-002
3.162819e+003;3.705203e-002
3.164747e+003;3.689780e-002
3.166676e+003;3.643365e-002
3.168604e+003;3.628680e-002
3.170533e+003;3.641149e-002
3.172461e+003;3.651863e-002
3.174390e+003;3.626267e-002
3.176319e+003;3.610331e-002
3.178247e+003;3.610184e-002
3.180176e+003;3.598523e-002
3.182104e+003;3.578621e-002
3.184033e+003;3.563645e-002
3.185961e+003;3.538899e-002
3.187890e+003;3.537347e-002
3.189818e+003;3.548761e-002
3.191747e+003;3.548250e-002
3.193676e+003;3.558355e-002
3.195604e+003;3.535431e-002
3.197532e+003;3.496298e-002
3.199461e+003;3.492183e-002
3.201390e+003;3.508934e-002
3.203318e+003;3.499211e-002
3.205247e+003;3.466100e-002
3.207175e+003;3.440954e-002
3.209104e+003;3.428854e-002
3.211032e+003;3.441574e-002
3.212961e+003;3.435954e-002
3.214889e+003;3.432504e-002
3.216818e+003;3.427990e-002
3.218747e+003;3.442507e-002
3.220675e+003;3.458424e-002
3.222604e+003;3.455159e-002
3.224532e+003;3.434373e-002
3.226461e+003;3.444730e-002
3.228389e+003;3.471835e-002
3.230318e+003;3.451123e-002
3.232246e+003;3.420655e-002
3.234175e+003;3.405382e-002
3.236104e+003;3.391838e-002
3.238032e+003;3.380318e-002
3.239961e+003;3.387374e-002
3.241889e+003;3.368088e-002
3.243818e+003;3.332555e-002
3.245746e+003;3.307640e-002
3.247675e+003;3.298948e-002
3.249603e+003;3.307218e-002
3.251532e+003;3.303932e-002
3.253460e+003;3.267001e-002
3.255389e+003;3.241138e-002
3.257318e+003;3.250146e-002
3.259246e+003;3.237829e-002
3.261175e+003;3.227052e-002
3.263103e+003;3.211416e-002
3.265032e+003;3.198171e-002
3.266960e+003;3.208979e-002
3.268889e+003;3.206711e-002
3.270817e+003;3.199726e-002
3.272746e+003;3.199145e-002
3.274675e+003;3.151976e-002
3.276603e+003;3.143187e-002
3.278531e+003;3.200307e-002
3.280460e+003;3.237336e-002
3.282389e+003;3.219911e-002
3.284317e+003;3.192048e-002
3.286246e+003;3.220151e-002
3.288174e+003;3.243384e-002
3.290103e+003;3.265093e-002
3.292031e+003;3.266697e-002
3.293960e+003;3.244819e-002
3.295888e+003;3.259228e-002
3.297817e+003;3.260428e-002
3.299746e+003;3.273292e-002
3.301674e+003;3.263550e-002
3.303603e+003;3.209911e-002
3.305531e+003;3.203935e-002
3.307460e+003;3.234430e-002
3.309388e+003;3.223123e-002
3.311317e+003;3.205080e-002
3.313245e+003;3.210314e-002
3.315174e+003;3.193670e-002
3.317103e+003;3.150284e-002
3.319031e+003;3.134568e-002
3.320960e+003;3.157075e-002
3.322888e+003;3.187462e-002
3.324817e+003;3.224426e-002
3.326745e+003;3.256596e-002
3.328674e+003;3.269773e-002
3.330602e+003;3.262950e-002
3.332531e+003;3.248236e-002
3.334459e+003;3.251239e-002
3.336388e+003;3.277897e-002
3.338317e+003;3.248650e-002
3.340245e+003;3.245129e-002
3.342174e+003;3.289162e-002
3.344102e+003;3.257775e-002
3.346031e+003;3.180377e-002
3.347959e+003;3.147804e-002
3.349888e+003;3.120015e-002
3.351816e+003;3.099250e-002
3.353745e+003;3.042703e-002
3.355674e+003;3.001274e-002
3.357602e+003;2.980966e-002
3.359531e+003;2.952432e-002
3.361459e+003;2.937206e-002
3.363388e+003;2.922415e-002
3.365316e+003;2.880031e-002
3.367245e+003;2.870979e-002
3.369173e+003;2.841636e-002
3.371102e+003;2.823761e-002
3.373031e+003;2.853021e-002
3.374959e+003;2.837101e-002
3.376887e+003;2.842896e-002
3.378816e+003;2.852894e-002
3.380745e+003;2.824423e-002
3.382673e+003;2.860060e-002
3.384602e+003;2.908007e-002
3.386530e+003;2.916539e-002
3.388459e+003;2.924506e-002
3.390387e+003;2.947496e-002
3.392316e+003;2.979852e-002
3.394244e+003;3.009203e-002
3.396173e+003;3.032234e-002
3.398102e+003;3.077196e-002
3.400030e+003;3.145435e-002
3.401959e+003;3.225750e-002
3.403887e+003;3.295413e-002
3.405816e+003;3.398208e-002
3.407744e+003;3.502087e-002
3.409673e+003;3.605161e-002
3.411601e+003;3.748122e-002
3.413530e+003;3.885174e-002
3.415458e+003;3.976622e-002
3.417387e+003;4.070024e-002
3.419316e+003;4.214296e-002
3.421244e+003;4.346109e-002
3.423173e+003;4.438478e-002
3.425101e+003;4.530287e-002
3.427030e+003;4.621004e-002
3.428958e+003;4.694413e-002
3.430887e+003;4.728523e-002
3.432815e+003;4.708211e-002
3.434744e+003;4.650195e-002
3.436673e+003;4.598735e-002
3.438601e+003;4.544989e-002
3.440530e+003;4.432574e-002
3.442458e+003;4.313832e-002
3.444387e+003;4.207159e-002
3.446315e+003;4.121291e-002
3.448244e+003;4.036122e-002
3.450172e+003;3.948309e-002
3.452101e+003;3.837841e-002
3.454030e+003;3.732507e-002
3.455958e+003;3.653676e-002
3.457886e+003;3.582079e-002
3.459815e+003;3.500008e-002
3.461744e+003;3.423666e-002
3.463672e+003;3.330838e-002
3.465601e+003;3.258203e-002
3.467529e+003;3.187034e-002
3.469458e+003;3.106193e-002
3.471386e+003;3.054418e-002
3.473315e+003;2.990283e-002
3.475243e+003;2.959820e-002
3.477172e+003;2.906151e-002
3.479101e+003;2.837328e-002
3.481029e+003;2.847526e-002
3.482958e+003;2.829225e-002
3.484886e+003;2.799861e-002
3.486815e+003;2.809772e-002
3.488743e+003;2.810952e-002
3.490672e+003;2.784487e-002
3.492600e+003;2.762010e-002
3.494529e+003;2.759970e-002
3.496458e+003;2.774247e-002
3.498386e+003;2.778701e-002
3.500315e+003;2.805580e-002
3.502243e+003;2.811691e-002
3.504172e+003;2.822630e-002
3.506100e+003;2.890059e-002
3.508029e+003;2.905343e-002
3.509957e+003;2.888306e-002
3.511886e+003;2.914112e-002
3.513814e+003;2.917747e-002
3.515743e+003;2.921816e-002
3.517672e+003;2.916110e-002
3.519600e+003;2.924516e-002
3.521529e+003;2.963953e-002
3.523457e+003;2.979259e-002
3.525386e+003;3.011699e-002
3.527314e+003;3.040428e-002
3.529243e+003;3.040421e-002
3.531171e+003;3.070506e-002
3.533100e+003;3.093101e-002
3.535029e+003;3.097897e-002
3.536957e+003;3.076410e-002
3.538885e+003;3.075315e-002
3.540814e+003;3.104883e-002
3.542743e+003;3.119207e-002
3.544671e+003;3.105292e-002
3.546600e+003;3.086573e-002
3.548528e+003;3.044718e-002
3.550457e+003;3.043040e-002
3.552385e+003;3.102200e-002
3.554314e+003;3.097819e-002
3.556242e+003;3.038072e-002
3.558171e+003;3.009505e-002
3.560100e+003;2.993169e-002
3.562028e+003;2.959941e-002
3.563957e+003;2.948220e-002
3.565885e+003;2.919477e-002
3.567814e+003;2.865517e-002
3.569742e+003;2.800247e-002
3.571671e+003;2.755909e-002
3.573599e+003;2.779874e-002
3.575528e+003;2.801190e-002
3.577457e+003;2.746258e-002
3.579385e+003;2.689594e-002
3.581314e+003;2.626868e-002
3.583242e+003;2.566595e-002
3.585171e+003;2.581223e-002
3.587099e+003;2.556669e-002
3.589028e+003;2.512380e-002
3.590956e+003;2.476150e-002
3.592885e+003;2.410715e-002
3.594813e+003;2.398000e-002
3.596742e+003;2.428323e-002
3.598671e+003;2.433568e-002
3.600599e+003;2.408575e-002
3.602528e+003;2.392982e-002
3.604456e+003;2.386681e-002
3.606385e+003;2.382977e-002
3.608313e+003;2.363835e-002
3.610242e+003;2.373157e-002
3.612170e+003;2.410460e-002
3.614099e+003;2.446354e-002
3.616028e+003;2.452510e-002
3.617956e+003;2.442169e-002
3.619885e+003;2.450284e-002
3.621813e+003;2.454565e-002
3.623742e+003;2.450715e-002
3.625670e+003;2.467862e-002
3.627599e+003;2.468104e-002
3.629527e+003;2.439249e-002
3.631456e+003;2.448237e-002
3.633385e+003;2.522846e-002
3.635313e+003;2.555696e-002
3.637241e+003;2.524451e-002
3.639170e+003;2.481903e-002
3.641099e+003;2.440269e-002
3.643027e+003;2.415812e-002
3.644956e+003;2.406859e-002
3.646884e+003;2.353557e-002
3.648813e+003;2.300728e-002
3.650741e+003;2.297462e-002
3.652670e+003;2.303562e-002
3.654598e+003;2.270421e-002
3.656527e+003;2.195794e-002
3.658456e+003;2.153959e-002
3.660384e+003;2.146457e-002
3.662313e+003;2.138405e-002
3.664241e+003;2.107053e-002
3.666170e+003;2.056250e-002
3.668098e+003;2.004038e-002
3.670027e+003;1.994608e-002
3.671955e+003;2.012700e-002
3.673884e+003;1.987330e-002
3.675813e+003;1.974031e-002
3.677741e+003;2.006599e-002
3.679669e+003;2.025303e-002
3.681598e+003;2.067674e-002
3.683527e+003;2.106058e-002
3.685455e+003;2.155746e-002
3.687384e+003;2.147045e-002
3.689312e+003;2.096261e-002
3.691241e+003;2.063918e-002
3.693169e+003;2.038351e-002
3.695098e+003;1.995489e-002
3.697026e+003;1.990001e-002
3.698955e+003;1.974946e-002
3.700884e+003;1.903140e-002
3.702812e+003;1.847147e-002
3.704741e+003;1.852343e-002
3.706669e+003;1.857845e-002
3.708598e+003;1.809847e-002
3.710526e+003;1.758780e-002
3.712455e+003;1.744639e-002
3.714383e+003;1.768438e-002
3.716312e+003;1.776635e-002
3.718240e+003;1.778879e-002
3.720169e+003;1.765733e-002
3.722098e+003;1.719950e-002
3.724026e+003;1.719246e-002
3.725955e+003;1.725073e-002
3.727883e+003;1.747626e-002
3.729812e+003;1.766461e-002
3.731740e+003;1.772483e-002
3.733669e+003;1.784772e-002
3.735597e+003;1.802552e-002
3.737526e+003;1.791374e-002
3.739455e+003;1.771348e-002
3.741383e+003;1.769032e-002
3.743312e+003;1.772435e-002
3.745240e+003;1.787520e-002
3.747169e+003;1.773312e-002
3.749097e+003;1.782518e-002
3.751026e+003;1.823940e-002
3.752954e+003;1.873095e-002
3.754883e+003;1.892881e-002
3.756812e+003;1.913780e-002
3.758740e+003;1.937842e-002
3.760668e+003;1.944376e-002
3.762597e+003;1.939013e-002
3.764526e+003;1.922645e-002
3.766454e+003;1.867377e-002
3.768383e+003;1.834491e-002
3.770311e+003;1.865464e-002
3.772240e+003;1.881655e-002
3.774168e+003;1.844948e-002
3.776097e+003;1.797655e-002
3.778025e+003;1.767686e-002
3.779954e+003;1.769163e-002
3.781883e+003;1.772580e-002
3.783811e+003;1.766923e-002
3.785740e+003;1.766768e-002
3.787668e+003;1.785566e-002
3.789597e+003;1.805923e-002
3.791525e+003;1.803167e-002
3.793454e+003;1.837702e-002
3.795382e+003;1.843040e-002
3.797311e+003;1.822395e-002
3.799240e+003;1.799796e-002
3.801168e+003;1.840205e-002
3.803097e+003;1.891787e-002
3.805025e+003;1.877579e-002
3.806954e+003;1.825616e-002
3.808882e+003;1.816539e-002
3.810811e+003;1.845971e-002
3.812739e+003;1.881160e-002
3.814668e+003;1.876326e-002
3.816596e+003;1.825257e-002
3.818525e+003;1.797807e-002
3.820454e+003;1.817869e-002
3.822382e+003;1.856126e-002
3.824311e+003;1.851261e-002
3.826239e+003;1.830281e-002
3.828168e+003;1.840806e-002
3.830096e+003;1.823646e-002
3.832025e+003;1.761226e-002
3.833953e+003;1.744574e-002
3.835882e+003;1.745198e-002
3.837811e+003;1.734851e-002
3.839739e+003;1.762213e-002
3.841667e+003;1.783892e-002
3.843596e+003;1.775814e-002
3.845525e+003;1.791936e-002
3.847453e+003;1.800311e-002
3.849382e+003;1.773415e-002
3.851310e+003;1.737896e-002
3.853239e+003;1.740631e-002
3.855167e+003;1.781482e-002
3.857096e+003;1.847240e-002
3.859024e+003;1.857039e-002
3.860953e+003;1.844084e-002
3.862882e+003;1.858239e-002
3.864810e+003;1.837502e-002
3.866739e+003;1.805036e-002
3.868667e+003;1.773001e-002
3.870596e+003;1.763245e-002
3.872524e+003;1.809785e-002
3.874453e+003;1.805381e-002
3.876381e+003;1.813696e-002
3.878310e+003;1.859342e-002
3.880239e+003;1.860297e-002
3.882167e+003;1.834578e-002
3.884096e+003;1.841508e-002
3.886024e+003;1.880461e-002
3.887953e+003;1.882744e-002
3.889881e+003;1.851866e-002
3.891810e+003;1.883025e-002
3.893738e+003;1.909708e-002
3.895667e+003;1.885762e-002
3.897595e+003;1.845190e-002
3.899524e+003;1.857613e-002
3.901453e+003;1.913555e-002
3.903381e+003;1.942613e-002
3.905310e+003;1.962652e-002
3.907238e+003;1.990206e-002
3.909167e+003;2.042658e-002
3.911095e+003;2.039734e-002
3.913024e+003;1.985489e-002
3.914952e+003;1.983304e-002
3.916881e+003;2.030115e-002
3.918810e+003;2.067837e-002
3.920738e+003;2.027275e-002
3.922667e+003;1.987369e-002
3.924595e+003;2.023085e-002
3.926524e+003;2.022932e-002
3.928452e+003;2.044908e-002
3.930381e+003;2.087799e-002
3.932309e+003;2.106402e-002
3.934238e+003;2.101032e-002
3.936167e+003;2.050466e-002
3.938095e+003;2.070395e-002
3.940023e+003;2.119444e-002
3.941952e+003;2.118194e-002
3.943881e+003;2.089321e-002
3.945809e+003;2.085640e-002
3.947738e+003;2.115937e-002
3.949666e+003;2.119137e-002
3.951595e+003;2.114416e-002
3.953523e+003;2.110785e-002
3.955452e+003;2.087830e-002
3.957380e+003;2.079817e-002
3.959309e+003;2.098369e-002
3.961238e+003;2.097631e-002
3.963166e+003;2.105894e-002
3.965095e+003;2.149799e-002
3.967023e+003;2.172020e-002
3.968952e+003;2.150903e-002
3.970880e+003;2.145959e-002
3.972809e+003;2.152807e-002
3.974737e+003;2.120070e-002
3.976666e+003;2.092085e-002
3.978594e+003;2.134058e-002
3.980523e+003;2.171815e-002
3.982452e+003;2.166106e-002
3.984380e+003;2.144681e-002
3.986309e+003;2.129534e-002
3.988237e+003;2.131800e-002
3.990166e+003;2.127338e-002
3.992094e+003;2.103495e-002
3.994023e+003;2.105818e-002
3.995951e+003;2.124464e-002
3.997880e+003;2.123692e-002
3.999809e+003;2.107501e-002
4.001737e+003;0.000000e+000
