3.992094e+002;0.000000e+000
4.011380e+002;0.000000e+000
4.030665e+002;0.000000e+000
4.049951e+002;0.000000e+000
4.069236e+002;0.000000e+000
4.088522e+002;0.000000e+000
4.107807e+002;0.000000e+000
4.127093e+002;0.000000e+000
4.146378e+002;0.000000e+000
4.165664e+002;0.000000e+000
4.184949e+002;0.000000e+000
4.204235e+002;0.000000e+000
4.223520e+002;0.000000e+000
4.242806e+002;0.000000e+000
4.262091e+002;0.000000e+000
4.281377e+002;0.000000e+000
4.300662e+002;0.000000e+000
4.319948e+002;0.000000e+000
4.339233e+002;0.000000e+000
4.358519e+002;0.000000e+000
4.377804e+002;0.000000e+000
4.397090e+002;0.000000e+000
4.416375e+002;0.000000e+000
4.435660e+002;0.000000e+000
4.454946e+002;0.000000e+000
4.474232e+002;0.000000e+000
4.493517e+002;0.000000e+000
4.512802e+002;0.000000e+000
4.532088e+002;0.000000e+000
4.551373e+002;0.000000e+000
4.570659e+002;0.000000e+000
4.589944e+002;0.000000e+000
4.609230e+002;0.000000e+000
4.628515e+002;0.000000e+000
4.647801e+002;0.000000e+000
4.667086e+002;0.000000e+000
4.686372e+002;0.000000e+000
4.705657e+002;0.000000e+000
4.724943e+002;0.000000e+000
4.744228e+002;0.000000e+000
4.763513e+002;0.000000e+000
4.782799e+002;0.000000e+000
4.802085e+002;0.000000e+000
4.821370e+002;0.000000e+000
4.840656e+002;0.000000e+000
4.859941e+002;0.000000e+000
4.879226e+002;0.000000e+000
4.898512e+002;0.000000e+000
4.917798e+002;0.000000e+000
4.937083e+002;0.000000e+000
4.956368e+002;0.000000e+000
4.975654e+002;0.000000e+000
4.994939e+002;0.000000e+000
5.014225e+002;0.000000e+000
5.033510e+002;0.000000e+000
5.052796e+002;0.000000e+000
5.072081e+002;0.000000e+000
5.091367e+002;0.000000e+000
5.110652e+002;0.000000e+000
5.129938e+002;0.000000e+000
5.149223e+002;0.000000e+000
5.168509e+002;0.000000e+000
5.187794e+002;0.000000e+000
5.207079e+002;0.000000e+000
5.226365e+002;0.000000e+000
5.245651e+002;0.000000e+000
5.264936e+002;0.000000e+000
5.284222e+002;0.000000e+000
5.303507e+002;0.000000e+000
5.322792e+002;0.000000e+000
5.342078e+002;0.000000e+000
5.361364e+002;0.000000e+000
5.380649e+002;0.000000e+000
5.399935e+002;0.000000e+000
5.419220e+002;0.000000e+000
5.438505e+002;0.000000e+000
5.457791e+002;0.000000e+000
5.477076e+002;0.000000e+000
5.496362e+002;0.000000e+000
5.515648e+002;0.000000e+000
5.534933e+002;0.000000e+000
5.554218e+002;0.000000e+000
5.573504e+002;0.000000e+000
5.592789e+002;0.000000e+000
5.612075e+002;0.000000e+000
5.631360e+002;0.000000e+000
5.650646e+002;0.000000e+000
5.669931e+002;0.000000e+000
5.689217e+002;0.000000e+000
5.708502e+002;0.000000e+000
5.727787e+002;0.000000e+000
5.747073e+002;0.000000e+000
5.766359e+002;0.000000e+000
5.785644e+002;0.000000e+000
5.804930e+002;0.000000e+000
5.824215e+002;0.000000e+000
5.843500e+002;0.000000e+000
5.862786e+002;0.000000e+000
5.882072e+002;0.000000e+000
5.901357e+002;0.000000e+000
5.920643e+002;0.000000e+000
5.939928e+002;0.000000e+000
5.959213e+002;0.000000e+000
5.978499e+002;0.000000e+000
5.997784e+002;8.806113e-002
6.017070e+002;8.526216e-002
6.036355e+002;8.807643e-002
6.055641e+002;8.622361e-002
6.074926e+002;8.045729e-002
6.094211e+002;7.793318e-002
6.113497e+002;7.706306e-002
6.132783e+002;7.814796e-002
6.152068e+002;8.082595e-002
6.171354e+002;7.994527e-002
6.190639e+002;7.832543e-002
6.209924e+002;7.981353e-002
6.229210e+002;8.197877e-002
6.248495e+002;8.271095e-002
6.267781e+002;8.265384e-002
6.287067e+002;8.455027e-002
6.306352e+002;8.947252e-002
6.325637e+002;9.325403e-002
6.344923e+002;9.115667e-002
6.364208e+002;8.617241e-002
6.383494e+002;8.192027e-002
6.402780e+002;8.042470e-002
6.422065e+002;7.648481e-002
6.441350e+002;7.514831e-002
6.460636e+002;7.736566e-002
6.479921e+002;7.734974e-002
6.499207e+002;7.812948e-002
6.518492e+002;7.970400e-002
6.537778e+002;8.025829e-002
6.557063e+002;8.249102e-002
6.576349e+002;8.430237e-002
6.595634e+002;8.484383e-002
6.614919e+002;8.596720e-002
6.634205e+002;8.850358e-002
6.653491e+002;9.046582e-002
6.672776e+002;9.025913e-002
6.692062e+002;8.933455e-002
6.711347e+002;9.017337e-002
6.730632e+002;9.186229e-002
6.749918e+002;9.283055e-002
6.769203e+002;9.395838e-002
6.788489e+002;9.710008e-002
6.807775e+002;1.013644e-001
6.827060e+002;1.026255e-001
6.846345e+002;1.019262e-001
6.865631e+002;1.015958e-001
6.884916e+002;1.013673e-001
6.904202e+002;1.019988e-001
6.923488e+002;1.047819e-001
6.942773e+002;1.082339e-001
6.962058e+002;1.132272e-001
6.981344e+002;1.211523e-001
7.000629e+002;1.305014e-001
7.019915e+002;1.390197e-001
7.039200e+002;1.465003e-001
7.058486e+002;1.535796e-001
7.077771e+002;1.612277e-001
7.097057e+002;1.699827e-001
7.116342e+002;1.812485e-001
7.135627e+002;1.944099e-001
7.154913e+002;2.109452e-001
7.174199e+002;2.314521e-001
7.193484e+002;2.520337e-001
7.212770e+002;2.680093e-001
7.232055e+002;2.772941e-001
7.251340e+002;2.745830e-001
7.270626e+002;2.584663e-001
7.289911e+002;2.357682e-001
7.309197e+002;2.107842e-001
7.328483e+002;1.863967e-001
7.347768e+002;1.645140e-001
7.367053e+002;1.441795e-001
7.386339e+002;1.259504e-001
7.405624e+002;1.116971e-001
7.424910e+002;1.012843e-001
7.444196e+002;9.386814e-002
7.463481e+002;8.900028e-002
7.482766e+002;8.669793e-002
7.502052e+002;8.572817e-002
7.521337e+002;8.447987e-002
7.540623e+002;8.339222e-002
7.559908e+002;8.168218e-002
7.579194e+002;8.093568e-002
7.598479e+002;8.153600e-002
7.617765e+002;8.264831e-002
7.637050e+002;8.362020e-002
7.656335e+002;8.453067e-002
7.675621e+002;8.562779e-002
7.694907e+002;8.610009e-002
7.714192e+002;8.691701e-002
7.733478e+002;8.853783e-002
7.752763e+002;8.962013e-002
7.772048e+002;9.034035e-002
7.791334e+002;9.121438e-002
7.810620e+002;9.229945e-002
7.829905e+002;9.455585e-002
7.849191e+002;9.676851e-002
7.868476e+002;1.000640e-001
7.887761e+002;1.035634e-001
7.907047e+002;1.063225e-001
7.926332e+002;1.072901e-001
7.945618e+002;1.042328e-001
7.964903e+002;9.918227e-002
7.984189e+002;9.539986e-002
8.003474e+002;9.345129e-002
8.022759e+002;9.295046e-002
8.042045e+002;9.374510e-002
8.061331e+002;9.410860e-002
8.080616e+002;9.414259e-002
8.099902e+002;9.451969e-002
8.119187e+002;9.477543e-002
8.138472e+002;9.444794e-002
8.157758e+002;9.415633e-002
8.177043e+002;9.451783e-002
8.196329e+002;9.500716e-002
8.215615e+002;9.542248e-002
8.234900e+002;9.606240e-002
8.254185e+002;9.705906e-002
8.273471e+002;9.843137e-002
8.292756e+002;9.965058e-002
8.312042e+002;1.009526e-001
8.331328e+002;1.025780e-001
8.350613e+002;1.052036e-001
8.369898e+002;1.079555e-001
8.389184e+002;1.105130e-001
8.408469e+002;1.134878e-001
8.427755e+002;1.166876e-001
8.447040e+002;1.197234e-001
8.466326e+002;1.216891e-001
8.485611e+002;1.216928e-001
8.504897e+002;1.202071e-001
8.524182e+002;1.178881e-001
8.543467e+002;1.160522e-001
8.562753e+002;1.149379e-001
8.582039e+002;1.144865e-001
8.601324e+002;1.147559e-001
8.620610e+002;1.160175e-001
8.639895e+002;1.187035e-001
8.659180e+002;1.233376e-001
8.678466e+002;1.320904e-001
8.697751e+002;1.463072e-001
8.717037e+002;1.573188e-001
8.736323e+002;1.540232e-001
8.755608e+002;1.419821e-001
8.774893e+002;1.311867e-001
8.794179e+002;1.228712e-001
8.813464e+002;1.157765e-001
8.832750e+002;1.095561e-001
8.852036e+002;1.047150e-001
8.871321e+002;1.015661e-001
8.890606e+002;9.934764e-002
8.909892e+002;9.805738e-002
8.929177e+002;9.735502e-002
8.948463e+002;9.684259e-002
8.967748e+002;9.656266e-002
8.987034e+002;9.649429e-002
9.006319e+002;9.648246e-002
9.025605e+002;9.636890e-002
9.044890e+002;9.531794e-002
9.064175e+002;9.336990e-002
9.083461e+002;9.166292e-002
9.102747e+002;9.012631e-002
9.122032e+002;8.887073e-002
9.141318e+002;8.758240e-002
9.160603e+002;8.637271e-002
9.179888e+002;8.543679e-002
9.199174e+002;8.502699e-002
9.218459e+002;8.455132e-002
9.237745e+002;8.460401e-002
9.257031e+002;8.523156e-002
9.276316e+002;8.550013e-002
9.295601e+002;8.539916e-002
9.314887e+002;8.541731e-002
9.334172e+002;8.577657e-002
9.353458e+002;8.649711e-002
9.372744e+002;8.744241e-002
9.392029e+002;8.831830e-002
9.411314e+002;8.891606e-002
9.430600e+002;8.986086e-002
9.449885e+002;9.066284e-002
9.469171e+002;9.135307e-002
9.488456e+002;9.249132e-002
9.507742e+002;9.414366e-002
9.527027e+002;9.620520e-002
9.546313e+002;9.797762e-002
9.565598e+002;9.973766e-002
9.584883e+002;1.017064e-001
9.604169e+002;1.036953e-001
9.623455e+002;1.060880e-001
9.642740e+002;1.087714e-001
9.662026e+002;1.107597e-001
9.681311e+002;1.119638e-001
9.700596e+002;1.124309e-001
9.719882e+002;1.121201e-001
9.739167e+002;1.108544e-001
9.758453e+002;1.087752e-001
9.777739e+002;1.065067e-001
9.797024e+002;1.040897e-001
9.816309e+002;1.021926e-001
9.835595e+002;1.010700e-001
9.854880e+002;1.003588e-001
9.874166e+002;9.962166e-002
9.893452e+002;9.830072e-002
9.912737e+002;9.730125e-002
9.932022e+002;9.694928e-002
9.951307e+002;9.680147e-002
9.970593e+002;9.711852e-002
9.989879e+002;9.783307e-002
1.000916e+003;9.866427e-002
1.002845e+003;1.001863e-001
1.004773e+003;1.027413e-001
1.006702e+003;1.060785e-001
1.008631e+003;1.110090e-001
1.010559e+003;1.188085e-001
1.012488e+003;1.299772e-001
1.014416e+003;1.444295e-001
1.016345e+003;1.575771e-001
1.018273e+003;1.627810e-001
1.020202e+003;1.583834e-001
1.022130e+003;1.486710e-001
1.024059e+003;1.370960e-001
1.025988e+003;1.257685e-001
1.027916e+003;1.169911e-001
1.029845e+003;1.115068e-001
1.031773e+003;1.090192e-001
1.033702e+003;1.087867e-001
1.035630e+003;1.093532e-001
1.037559e+003;1.097326e-001
1.039487e+003;1.102467e-001
1.041416e+003;1.111989e-001
1.043344e+003;1.117327e-001
1.045273e+003;1.119918e-001
1.047202e+003;1.119891e-001
1.049130e+003;1.115090e-001
1.051059e+003;1.112863e-001
1.052987e+003;1.115748e-001
1.054916e+003;1.120118e-001
1.056844e+003;1.126504e-001
1.058773e+003;1.133785e-001
1.060701e+003;1.145765e-001
1.062630e+003;1.165209e-001
1.064558e+003;1.193733e-001
1.066487e+003;1.224941e-001
1.068416e+003;1.256112e-001
1.070344e+003;1.300296e-001
1.072273e+003;1.363510e-001
1.074201e+003;1.436018e-001
1.076130e+003;1.512138e-001
1.078058e+003;1.599409e-001
1.079987e+003;1.695804e-001
1.081915e+003;1.798005e-001
1.083844e+003;1.891912e-001
1.085773e+003;1.967950e-001
1.087701e+003;2.034784e-001
1.089630e+003;2.098460e-001
1.091558e+003;2.151428e-001
1.093487e+003;2.202340e-001
1.095415e+003;2.245371e-001
1.097344e+003;2.271863e-001
1.099272e+003;2.277268e-001
1.101201e+003;2.254908e-001
1.103129e+003;2.205817e-001
1.105058e+003;2.141288e-001
1.106987e+003;2.068851e-001
1.108915e+003;1.994024e-001
1.110844e+003;1.940362e-001
1.112772e+003;1.917958e-001
1.114701e+003;1.909636e-001
1.116629e+003;1.899791e-001
1.118558e+003;1.887877e-001
1.120486e+003;1.871411e-001
1.122415e+003;1.840238e-001
1.124344e+003;1.796776e-001
1.126272e+003;1.742236e-001
1.128201e+003;1.676926e-001
1.130129e+003;1.605014e-001
1.132058e+003;1.528106e-001
1.133986e+003;1.439531e-001
1.135915e+003;1.349798e-001
1.137843e+003;1.272491e-001
1.139772e+003;1.203815e-001
1.141700e+003;1.145679e-001
1.143629e+003;1.101273e-001
1.145557e+003;1.065117e-001
1.147486e+003;1.033613e-001
1.149415e+003;1.005439e-001
1.151343e+003;9.793498e-002
1.153272e+003;9.564799e-002
1.155200e+003;9.401877e-002
1.157129e+003;9.287659e-002
1.159057e+003;9.215990e-002
1.160986e+003;9.189938e-002
1.162914e+003;9.170667e-002
1.164843e+003;9.192927e-002
1.166771e+003;9.315054e-002
1.168700e+003;9.523918e-002
1.170629e+003;9.752073e-002
1.172557e+003;9.928387e-002
1.174486e+003;9.994006e-002
1.176414e+003;9.986667e-002
1.178343e+003;9.940241e-002
1.180271e+003;9.863749e-002
1.182200e+003;9.765343e-002
1.184128e+003;9.696742e-002
1.186057e+003;9.699079e-002
1.187986e+003;9.732290e-002
1.189914e+003;9.764712e-002
1.191843e+003;9.818505e-002
1.193771e+003;9.959420e-002
1.195700e+003;1.016355e-001
1.197628e+003;1.034150e-001
1.199557e+003;1.050051e-001
1.201485e+003;1.076331e-001
1.203414e+003;1.106794e-001
1.205343e+003;1.131977e-001
1.207271e+003;1.161760e-001
1.209200e+003;1.194647e-001
1.211128e+003;1.229445e-001
1.213057e+003;1.268720e-001
1.214985e+003;1.309425e-001
1.216914e+003;1.353761e-001
1.218842e+003;1.400774e-001
1.220771e+003;1.447205e-001
1.222699e+003;1.492852e-001
1.224628e+003;1.538335e-001
1.226557e+003;1.590203e-001
1.228485e+003;1.654827e-001
1.230414e+003;1.733379e-001
1.232342e+003;1.832075e-001
1.234271e+003;1.950334e-001
1.236199e+003;2.075619e-001
1.238128e+003;2.199086e-001
1.240056e+003;2.305711e-001
1.241985e+003;2.387978e-001
1.243913e+003;2.442247e-001
1.245842e+003;2.463668e-001
1.247771e+003;2.464544e-001
1.249699e+003;2.452086e-001
1.251628e+003;2.423157e-001
1.253556e+003;2.389652e-001
1.255485e+003;2.366939e-001
1.257413e+003;2.349091e-001
1.259342e+003;2.328514e-001
1.261270e+003;2.304899e-001
1.263199e+003;2.267866e-001
1.265127e+003;2.202060e-001
1.267056e+003;2.116920e-001
1.268985e+003;2.028883e-001
1.270913e+003;1.941206e-001
1.272842e+003;1.860460e-001
1.274770e+003;1.791084e-001
1.276699e+003;1.728608e-001
1.278627e+003;1.671665e-001
1.280556e+003;1.619545e-001
1.282484e+003;1.574130e-001
1.284413e+003;1.531262e-001
1.286342e+003;1.487628e-001
1.288270e+003;1.441144e-001
1.290199e+003;1.389606e-001
1.292127e+003;1.339038e-001
1.294056e+003;1.288517e-001
1.295984e+003;1.234882e-001
1.297913e+003;1.183867e-001
1.299841e+003;1.134570e-001
1.301770e+003;1.089640e-001
1.303698e+003;1.054590e-001
1.305627e+003;1.027197e-001
1.307556e+003;9.987430e-002
1.309484e+003;9.692339e-002
1.311413e+003;9.431012e-002
1.313341e+003;9.211487e-002
1.315270e+003;9.032579e-002
1.317198e+003;8.871675e-002
1.319127e+003;8.722594e-002
1.321055e+003;8.590738e-002
1.322984e+003;8.502462e-002
1.324912e+003;8.478309e-002
1.326841e+003;8.557497e-002
1.328770e+003;8.801170e-002
1.330698e+003;9.273857e-002
1.332627e+003;1.001663e-001
1.334555e+003;1.093713e-001
1.336484e+003;1.180497e-001
1.338412e+003;1.231313e-001
1.340341e+003;1.223981e-001
1.342269e+003;1.163615e-001
1.344198e+003;1.072764e-001
1.346126e+003;9.811988e-002
1.348055e+003;9.058573e-002
1.349984e+003;8.503610e-002
1.351912e+003;8.142672e-002
1.353841e+003;7.950234e-002
1.355769e+003;7.812591e-002
1.357698e+003;7.733224e-002
1.359626e+003;7.734440e-002
1.361555e+003;7.807320e-002
1.363483e+003;7.945459e-002
1.365412e+003;8.083940e-002
1.367341e+003;8.198077e-002
1.369269e+003;8.270033e-002
1.371198e+003;8.275773e-002
1.373126e+003;8.249675e-002
1.375055e+003;8.204024e-002
1.376983e+003;8.181117e-002
1.378912e+003;8.175201e-002
1.380840e+003;8.179153e-002
1.382769e+003;8.204541e-002
1.384698e+003;8.251306e-002
1.386626e+003;8.298185e-002
1.388555e+003;8.328355e-002
1.390483e+003;8.354031e-002
1.392412e+003;8.416266e-002
1.394340e+003;8.526245e-002
1.396269e+003;8.691259e-002
1.398197e+003;8.932158e-002
1.400126e+003;9.296511e-002
1.402054e+003;9.800374e-002
1.403983e+003;1.044617e-001
1.405911e+003;1.117431e-001
1.407840e+003;1.175358e-001
1.409769e+003;1.181132e-001
1.411697e+003;1.123643e-001
1.413626e+003;1.028617e-001
1.415554e+003;9.276384e-002
1.417483e+003;8.434715e-002
1.419411e+003;7.873872e-002
1.421340e+003;7.560973e-002
1.423268e+003;7.359128e-002
1.425197e+003;7.251079e-002
1.427125e+003;7.246154e-002
1.429054e+003;7.291914e-002
1.430983e+003;7.374644e-002
1.432911e+003;7.510100e-002
1.434840e+003;7.661124e-002
1.436768e+003;7.786012e-002
1.438697e+003;7.897910e-002
1.440625e+003;7.996013e-002
1.442554e+003;8.083573e-002
1.444482e+003;8.140206e-002
1.446411e+003;8.183817e-002
1.448340e+003;8.254924e-002
1.450268e+003;8.354079e-002
1.452197e+003;8.426696e-002
1.454125e+003;8.431102e-002
1.456054e+003;8.402333e-002
1.457982e+003;8.398557e-002
1.459911e+003;8.388942e-002
1.461839e+003;8.343124e-002
1.463768e+003;8.306774e-002
1.465697e+003;8.346111e-002
1.467625e+003;8.470085e-002
1.469554e+003;8.678483e-002
1.471482e+003;8.788983e-002
1.473411e+003;8.661840e-002
1.475339e+003;8.464532e-002
1.477268e+003;8.269945e-002
1.479196e+003;8.066888e-002
1.481125e+003;7.880200e-002
1.483053e+003;7.692724e-002
1.484982e+003;7.478435e-002
1.486911e+003;7.261986e-002
1.488839e+003;7.082103e-002
1.490768e+003;6.944805e-002
1.492696e+003;6.849010e-002
1.494625e+003;6.859434e-002
1.496553e+003;7.026357e-002
1.498482e+003;7.296625e-002
1.500410e+003;7.692946e-002
1.502339e+003;8.197245e-002
1.504267e+003;8.574428e-002
1.506196e+003;8.542796e-002
1.508125e+003;8.141924e-002
1.510053e+003;7.659318e-002
1.511982e+003;7.254470e-002
1.513910e+003;6.982008e-002
1.515839e+003;6.845374e-002
1.517767e+003;6.795999e-002
1.519696e+003;6.801478e-002
1.521624e+003;6.825111e-002
1.523553e+003;6.865127e-002
1.525481e+003;6.858993e-002
1.527410e+003;6.808028e-002
1.529339e+003;6.749652e-002
1.531267e+003;6.678639e-002
1.533196e+003;6.627738e-002
1.535124e+003;6.574260e-002
1.537053e+003;6.521507e-002
1.538981e+003;6.486999e-002
1.540910e+003;6.460109e-002
1.542838e+003;6.437296e-002
1.544767e+003;6.437814e-002
1.546695e+003;6.485391e-002
1.548624e+003;6.509724e-002
1.550553e+003;6.530634e-002
1.552481e+003;6.540794e-002
1.554410e+003;6.540759e-002
1.556338e+003;6.567322e-002
1.558267e+003;6.591700e-002
1.560195e+003;6.630398e-002
1.562124e+003;6.673403e-002
1.564052e+003;6.731015e-002
1.565981e+003;6.813477e-002
1.567910e+003;6.898291e-002
1.569838e+003;7.024433e-002
1.571767e+003;7.233604e-002
1.573695e+003;7.462811e-002
1.575624e+003;7.646161e-002
1.577552e+003;7.787851e-002
1.579481e+003;7.829595e-002
1.581409e+003;7.686056e-002
1.583338e+003;7.442883e-002
1.585266e+003;7.220992e-002
1.587195e+003;7.031694e-002
1.589124e+003;6.876209e-002
1.591052e+003;6.782037e-002
1.592981e+003;6.751900e-002
1.594909e+003;6.754564e-002
1.596838e+003;6.761350e-002
1.598766e+003;6.786855e-002
1.600695e+003;6.856129e-002
1.602623e+003;6.954370e-002
1.604552e+003;7.046648e-002
1.606480e+003;7.158866e-002
1.608409e+003;7.297789e-002
1.610338e+003;7.437645e-002
1.612266e+003;7.546246e-002
1.614195e+003;7.574932e-002
1.616123e+003;7.532376e-002
1.618052e+003;7.460785e-002
1.619980e+003;7.381767e-002
1.621909e+003;7.313913e-002
1.623837e+003;7.272275e-002
1.625766e+003;7.254674e-002
1.627694e+003;7.265620e-002
1.629623e+003;7.313376e-002
1.631552e+003;7.365664e-002
1.633480e+003;7.407573e-002
1.635409e+003;7.448248e-002
1.637337e+003;7.498513e-002
1.639266e+003;7.551576e-002
1.641194e+003;7.612415e-002
1.643123e+003;7.683976e-002
1.645051e+003;7.755199e-002
1.646980e+003;7.818882e-002
1.648909e+003;7.900310e-002
1.650837e+003;7.987653e-002
1.652766e+003;8.050350e-002
1.654694e+003;8.154751e-002
1.656623e+003;8.292779e-002
1.658551e+003;8.440775e-002
1.660480e+003;8.591606e-002
1.662408e+003;8.760827e-002
1.664337e+003;8.953025e-002
1.666266e+003;9.154309e-002
1.668194e+003;9.327021e-002
1.670123e+003;9.509806e-002
1.672051e+003;9.702782e-002
1.673980e+003;9.895576e-002
1.675908e+003;1.010967e-001
1.677837e+003;1.033951e-001
1.679765e+003;1.055921e-001
1.681694e+003;1.075481e-001
1.683622e+003;1.091375e-001
1.685551e+003;1.105677e-001
1.687479e+003;1.124165e-001
1.689408e+003;1.147601e-001
1.691337e+003;1.178456e-001
1.693265e+003;1.218083e-001
1.695194e+003;1.265426e-001
1.697122e+003;1.327015e-001
1.699051e+003;1.406248e-001
1.700979e+003;1.505944e-001
1.702908e+003;1.629422e-001
1.704836e+003;1.781707e-001
1.706765e+003;1.961427e-001
1.708693e+003;2.157157e-001
1.710622e+003;2.347415e-001
1.712551e+003;2.498791e-001
1.714479e+003;2.572996e-001
1.716408e+003;2.559229e-001
1.718336e+003;2.478190e-001
1.720265e+003;2.364662e-001
1.722193e+003;2.241651e-001
1.724122e+003;2.122119e-001
1.726050e+003;2.001465e-001
1.727979e+003;1.873092e-001
1.729908e+003;1.743447e-001
1.731836e+003;1.618980e-001
1.733765e+003;1.493190e-001
1.735693e+003;1.374308e-001
1.737622e+003;1.268628e-001
1.739550e+003;1.165983e-001
1.741479e+003;1.065049e-001
1.743407e+003;9.746578e-002
1.745336e+003;8.996858e-002
1.747265e+003;8.397323e-002
1.749193e+003;7.915626e-002
1.751122e+003;7.560196e-002
1.753050e+003;7.329648e-002
1.754979e+003;7.164950e-002
1.756907e+003;7.036190e-002
1.758836e+003;6.937799e-002
1.760764e+003;6.859734e-002
1.762693e+003;6.804497e-002
1.764621e+003;6.759720e-002
1.766550e+003;6.714989e-002
1.768479e+003;6.673878e-002
1.770407e+003;6.614822e-002
1.772336e+003;6.555719e-002
1.774264e+003;6.525920e-002
1.776193e+003;6.520136e-002
1.778121e+003;6.524984e-002
1.780050e+003;6.500094e-002
1.781978e+003;6.459509e-002
1.783907e+003;6.430118e-002
1.785835e+003;6.426033e-002
1.787764e+003;6.426679e-002
1.789693e+003;6.392193e-002
1.791621e+003;6.342578e-002
1.793550e+003;6.325100e-002
1.795478e+003;6.343716e-002
1.797407e+003;6.356821e-002
1.799335e+003;6.352418e-002
1.801264e+003;6.336397e-002
1.803192e+003;6.317668e-002
1.805121e+003;6.327572e-002
1.807049e+003;6.355283e-002
1.808978e+003;6.367490e-002
1.810907e+003;6.344679e-002
1.812835e+003;6.326418e-002
1.814764e+003;6.334215e-002
1.816692e+003;6.327430e-002
1.818621e+003;6.306940e-002
1.820549e+003;6.295582e-002
1.822478e+003;6.287833e-002
1.824406e+003;6.283035e-002
1.826335e+003;6.268854e-002
1.828264e+003;6.237790e-002
1.830192e+003;6.192486e-002
1.832121e+003;6.146400e-002
1.834049e+003;6.102559e-002
1.835978e+003;6.052249e-002
1.837906e+003;6.011901e-002
1.839835e+003;5.975005e-002
1.841763e+003;5.928234e-002
1.843692e+003;5.838716e-002
1.845620e+003;5.753732e-002
1.847549e+003;5.699906e-002
1.849478e+003;5.644071e-002
1.851406e+003;5.558353e-002
1.853335e+003;5.486042e-002
1.855263e+003;5.424140e-002
1.857192e+003;5.353892e-002
1.859120e+003;5.320838e-002
1.861049e+003;5.297774e-002
1.862977e+003;5.243347e-002
1.864906e+003;5.189761e-002
1.866834e+003;5.148875e-002
1.868763e+003;5.121155e-002
1.870692e+003;5.106610e-002
1.872620e+003;5.080754e-002
1.874549e+003;5.049471e-002
1.876477e+003;5.031795e-002
1.878406e+003;5.001117e-002
1.880334e+003;4.987582e-002
1.882263e+003;4.980930e-002
1.884191e+003;4.962755e-002
1.886120e+003;4.947123e-002
1.888048e+003;4.953521e-002
1.889977e+003;4.962131e-002
1.891906e+003;4.962469e-002
1.893834e+003;4.958219e-002
1.895763e+003;4.957362e-002
1.897691e+003;4.981684e-002
1.899620e+003;5.004749e-002
1.901548e+003;5.010992e-002
1.903477e+003;5.005281e-002
1.905405e+003;5.007723e-002
1.907334e+003;5.040736e-002
1.909262e+003;5.062090e-002
1.911191e+003;5.063051e-002
1.913120e+003;5.059015e-002
1.915048e+003;5.091281e-002
1.916977e+003;5.130939e-002
1.918905e+003;5.156486e-002
1.920834e+003;5.188320e-002
1.922762e+003;5.221183e-002
1.924691e+003;5.278085e-002
1.926619e+003;5.340348e-002
1.928548e+003;5.367567e-002
1.930477e+003;5.417968e-002
1.932405e+003;5.498077e-002
1.934334e+003;5.553868e-002
1.936262e+003;5.593871e-002
1.938191e+003;5.652347e-002
1.940119e+003;5.729869e-002
1.942048e+003;5.803289e-002
1.943976e+003;5.864175e-002
1.945905e+003;5.915038e-002
1.947833e+003;5.958405e-002
1.949762e+003;6.004421e-002
1.951691e+003;6.024476e-002
1.953619e+003;6.046788e-002
1.955548e+003;6.084751e-002
1.957476e+003;6.132615e-002
1.959405e+003;6.134599e-002
1.961333e+003;6.104741e-002
1.963262e+003;6.060271e-002
1.965190e+003;5.969504e-002
1.967119e+003;5.874108e-002
1.969047e+003;5.797885e-002
1.970976e+003;5.714685e-002
1.972905e+003;5.637654e-002
1.974833e+003;5.587272e-002
1.976762e+003;5.568936e-002
1.978690e+003;5.525512e-002
1.980619e+003;5.449743e-002
1.982547e+003;5.410191e-002
1.984476e+003;5.382811e-002
1.986404e+003;5.338572e-002
1.988333e+003;5.294435e-002
1.990261e+003;5.270045e-002
1.992190e+003;5.238570e-002
1.994119e+003;5.185994e-002
1.996047e+003;5.134075e-002
1.997976e+003;5.091765e-002
1.999904e+003;5.071458e-002
2.001833e+003;5.042660e-002
2.003761e+003;4.991161e-002
2.005690e+003;4.929961e-002
2.007618e+003;4.904309e-002
2.009547e+003;4.892314e-002
2.011476e+003;4.871603e-002
2.013404e+003;4.846898e-002
2.015333e+003;4.832852e-002
2.017261e+003;4.829452e-002
2.019190e+003;4.822610e-002
2.021118e+003;4.805263e-002
2.023047e+003;4.778339e-002
2.024975e+003;4.748769e-002
2.026904e+003;4.716904e-002
2.028833e+003;4.697381e-002
2.030761e+003;4.691958e-002
2.032690e+003;4.688747e-002
2.034618e+003;4.680365e-002
2.036547e+003;4.675841e-002
2.038475e+003;4.688127e-002
2.040404e+003;4.701007e-002
2.042332e+003;4.715955e-002
2.044261e+003;4.750877e-002
2.046189e+003;4.771256e-002
2.048118e+003;4.754129e-002
2.050047e+003;4.766582e-002
2.051975e+003;4.805677e-002
2.053904e+003;4.832800e-002
2.055832e+003;4.842601e-002
2.057761e+003;4.875392e-002
2.059689e+003;4.916563e-002
2.061618e+003;4.933765e-002
2.063546e+003;4.953844e-002
2.065475e+003;4.993748e-002
2.067404e+003;5.050308e-002
2.069332e+003;5.090420e-002
2.071260e+003;5.099597e-002
2.073189e+003;5.111079e-002
2.075118e+003;5.142187e-002
2.077046e+003;5.192174e-002
2.078975e+003;5.226082e-002
2.080903e+003;5.260963e-002
2.082832e+003;5.290265e-002
2.084760e+003;5.300338e-002
2.086689e+003;5.318468e-002
2.088617e+003;5.325262e-002
2.090546e+003;5.323071e-002
2.092475e+003;5.337740e-002
2.094403e+003;5.356133e-002
2.096332e+003;5.346160e-002
2.098260e+003;5.354930e-002
2.100189e+003;5.369536e-002
2.102117e+003;5.362011e-002
2.104046e+003;5.377077e-002
2.105974e+003;5.394353e-002
2.107903e+003;5.380988e-002
2.109832e+003;5.356568e-002
2.111760e+003;5.346295e-002
2.113688e+003;5.339479e-002
2.115617e+003;5.345040e-002
2.117546e+003;5.335489e-002
2.119474e+003;5.309825e-002
2.121403e+003;5.288013e-002
2.123331e+003;5.267228e-002
2.125260e+003;5.229834e-002
2.127188e+003;5.204905e-002
2.129117e+003;5.212115e-002
2.131045e+003;5.192857e-002
2.132974e+003;5.156694e-002
2.134903e+003;5.127355e-002
2.136831e+003;5.102183e-002
2.138760e+003;5.081249e-002
2.140688e+003;5.055832e-002
2.142617e+003;5.032104e-002
2.144545e+003;4.995432e-002
2.146474e+003;4.970533e-002
2.148402e+003;4.955791e-002
2.150331e+003;4.905867e-002
2.152260e+003;4.872734e-002
2.154188e+003;4.864320e-002
2.156117e+003;4.830852e-002
2.158045e+003;4.813965e-002
2.159974e+003;4.804922e-002
2.161902e+003;4.766785e-002
2.163831e+003;4.728434e-002
2.165759e+003;4.714607e-002
2.167688e+003;4.706664e-002
2.169616e+003;4.688710e-002
2.171545e+003;4.664296e-002
2.173474e+003;4.660242e-002
2.175402e+003;4.654425e-002
2.177331e+003;4.614213e-002
2.179259e+003;4.574435e-002
2.181188e+003;4.571335e-002
2.183116e+003;4.592153e-002
2.185045e+003;4.582177e-002
2.186973e+003;4.587300e-002
2.188902e+003;4.597513e-002
2.190831e+003;4.593236e-002
2.192759e+003;4.593604e-002
2.194688e+003;4.599060e-002
2.196616e+003;4.593126e-002
2.198545e+003;4.596971e-002
2.200473e+003;4.610579e-002
2.202402e+003;4.641087e-002
2.204330e+003;4.665602e-002
2.206259e+003;4.667439e-002
2.208188e+003;4.656369e-002
2.210116e+003;4.682838e-002
2.212044e+003;4.742368e-002
2.213973e+003;4.783588e-002
2.215902e+003;4.775261e-002
2.217830e+003;4.748743e-002
2.219759e+003;4.766918e-002
2.221687e+003;4.791397e-002
2.223616e+003;4.798553e-002
2.225544e+003;4.816023e-002
2.227473e+003;4.822243e-002
2.229401e+003;4.794487e-002
2.231330e+003;4.776286e-002
2.233259e+003;4.785341e-002
2.235187e+003;4.801903e-002
2.237116e+003;4.807561e-002
2.239044e+003;4.846594e-002
2.240973e+003;4.872990e-002
2.242901e+003;4.861652e-002
2.244830e+003;4.854552e-002
2.246758e+003;4.864895e-002
2.248687e+003;4.873327e-002
2.250615e+003;4.886930e-002
2.252544e+003;4.919754e-002
2.254473e+003;4.939178e-002
2.256401e+003;4.945582e-002
2.258330e+003;4.955794e-002
2.260258e+003;4.960611e-002
2.262187e+003;4.959404e-002
2.264115e+003;4.944520e-002
2.266044e+003;4.934437e-002
2.267972e+003;4.950587e-002
2.269901e+003;4.965574e-002
2.271830e+003;4.966989e-002
2.273758e+003;4.955256e-002
2.275687e+003;4.967888e-002
2.277615e+003;4.979161e-002
2.279544e+003;4.996090e-002
2.281472e+003;5.020595e-002
2.283401e+003;5.029437e-002
2.285329e+003;5.028819e-002
2.287258e+003;5.024429e-002
2.289187e+003;5.004998e-002
2.291115e+003;4.979376e-002
2.293043e+003;4.937618e-002
2.294972e+003;4.875381e-002
2.296901e+003;4.822076e-002
2.298829e+003;4.788922e-002
2.300758e+003;4.756033e-002
2.302686e+003;4.705888e-002
2.304615e+003;4.664351e-002
2.306543e+003;4.629625e-002
2.308472e+003;4.604552e-002
2.310400e+003;4.605341e-002
2.312329e+003;4.613185e-002
2.314258e+003;4.625877e-002
2.316186e+003;4.627690e-002
2.318115e+003;4.619129e-002
2.320043e+003;4.629352e-002
2.321972e+003;4.652227e-002
2.323900e+003;4.690803e-002
2.325829e+003;4.714803e-002
2.327757e+003;4.730813e-002
2.329686e+003;4.742579e-002
2.331615e+003;4.735199e-002
2.333543e+003;4.716029e-002
2.335472e+003;4.716244e-002
2.337400e+003;4.748884e-002
2.339329e+003;4.751409e-002
2.341257e+003;4.745550e-002
2.343186e+003;4.750895e-002
2.345114e+003;4.739157e-002
2.347043e+003;4.721267e-002
2.348971e+003;4.754850e-002
2.350900e+003;4.810552e-002
2.352829e+003;4.826308e-002
2.354757e+003;4.861055e-002
2.356686e+003;4.900062e-002
2.358614e+003;4.929563e-002
2.360543e+003;4.966703e-002
2.362471e+003;4.992960e-002
2.364400e+003;5.019620e-002
2.366328e+003;5.048868e-002
2.368257e+003;5.057262e-002
2.370186e+003;5.075037e-002
2.372114e+003;5.103391e-002
2.374042e+003;5.098394e-002
2.375971e+003;5.068498e-002
2.377900e+003;5.068286e-002
2.379828e+003;5.073663e-002
2.381757e+003;5.077123e-002
2.383685e+003;5.068059e-002
2.385614e+003;5.059436e-002
2.387542e+003;5.079614e-002
2.389471e+003;5.095514e-002
2.391399e+003;5.073019e-002
2.393328e+003;5.039002e-002
2.395257e+003;5.045265e-002
2.397185e+003;5.065862e-002
2.399114e+003;5.077376e-002
2.401042e+003;5.062429e-002
2.402971e+003;5.034716e-002
2.404899e+003;5.009635e-002
2.406828e+003;4.997614e-002
2.408756e+003;4.980948e-002
2.410685e+003;4.933045e-002
2.412614e+003;4.884512e-002
2.414542e+003;4.854585e-002
2.416471e+003;4.842304e-002
2.418399e+003;4.847123e-002
2.420328e+003;4.841667e-002
2.422256e+003;4.822639e-002
2.424185e+003;4.805278e-002
2.426113e+003;4.785163e-002
2.428042e+003;4.762644e-002
2.429970e+003;4.730000e-002
2.431899e+003;4.703628e-002
2.433828e+003;4.675391e-002
2.435756e+003;4.642717e-002
2.437685e+003;4.628490e-002
2.439613e+003;4.605989e-002
2.441542e+003;4.605830e-002
2.443470e+003;4.601402e-002
2.445399e+003;4.576787e-002
2.447327e+003;4.574019e-002
2.449256e+003;4.580322e-002
2.451185e+003;4.562505e-002
2.453113e+003;4.542080e-002
2.455042e+003;4.537930e-002
2.456970e+003;4.535565e-002
2.458899e+003;4.527238e-002
2.460827e+003;4.517178e-002
2.462756e+003;4.495569e-002
2.464684e+003;4.502419e-002
2.466613e+003;4.532865e-002
2.468542e+003;4.529993e-002
2.470470e+003;4.521285e-002
2.472398e+003;4.525970e-002
2.474327e+003;4.546373e-002
2.476256e+003;4.563771e-002
2.478184e+003;4.582413e-002
2.480113e+003;4.605212e-002
2.482041e+003;4.617544e-002
2.483970e+003;4.624303e-002
2.485898e+003;4.638141e-002
2.487827e+003;4.653444e-002
2.489755e+003;4.664418e-002
2.491684e+003;4.685886e-002
2.493613e+003;4.695199e-002
2.495541e+003;4.694616e-002
2.497470e+003;4.717813e-002
2.499398e+003;4.739112e-002
2.501327e+003;4.746101e-002
2.503255e+003;4.745724e-002
2.505184e+003;4.736422e-002
2.507112e+003;4.751464e-002
2.509041e+003;4.771145e-002
2.510969e+003;4.771604e-002
2.512898e+003;4.769599e-002
2.514827e+003;4.784357e-002
2.516755e+003;4.805274e-002
2.518684e+003;4.816545e-002
2.520612e+003;4.842886e-002
2.522541e+003;4.870903e-002
2.524469e+003;4.881142e-002
2.526398e+003;4.876256e-002
2.528326e+003;4.888798e-002
2.530255e+003;4.931501e-002
2.532184e+003;4.944383e-002
2.534112e+003;4.943325e-002
2.536041e+003;4.962097e-002
2.537969e+003;4.958030e-002
2.539898e+003;4.949722e-002
2.541826e+003;4.959081e-002
2.543755e+003;4.964121e-002
2.545683e+003;4.960374e-002
2.547612e+003;4.929114e-002
2.549541e+003;4.904891e-002
2.551469e+003;4.892255e-002
2.553397e+003;4.898011e-002
2.555326e+003;4.934752e-002
2.557255e+003;4.944769e-002
2.559183e+003;4.936360e-002
2.561112e+003;4.944602e-002
2.563040e+003;4.956076e-002
2.564969e+003;4.964029e-002
2.566897e+003;4.971927e-002
2.568826e+003;4.950302e-002
2.570754e+003;4.928060e-002
2.572683e+003;4.923254e-002
2.574612e+003;4.915239e-002
2.576540e+003;4.918534e-002
2.578469e+003;4.929478e-002
2.580397e+003;4.944294e-002
2.582326e+003;4.950339e-002
2.584254e+003;4.947060e-002
2.586183e+003;4.917079e-002
2.588111e+003;4.893871e-002
2.590040e+003;4.886310e-002
2.591969e+003;4.871266e-002
2.593897e+003;4.847731e-002
2.595826e+003;4.811225e-002
2.597754e+003;4.781179e-002
2.599683e+003;4.755690e-002
2.601611e+003;4.733026e-002
2.603540e+003;4.714814e-002
2.605468e+003;4.686414e-002
2.607397e+003;4.688293e-002
2.609325e+003;4.702613e-002
2.611254e+003;4.687023e-002
2.613183e+003;4.653404e-002
2.615111e+003;4.639933e-002
2.617040e+003;4.636795e-002
2.618968e+003;4.622928e-002
2.620897e+003;4.632736e-002
2.622825e+003;4.636541e-002
2.624754e+003;4.629902e-002
2.626682e+003;4.637109e-002
2.628611e+003;4.654657e-002
2.630540e+003;4.684332e-002
2.632468e+003;4.683192e-002
2.634396e+003;4.634480e-002
2.636325e+003;4.586872e-002
2.638254e+003;4.540829e-002
2.640182e+003;4.517468e-002
2.642111e+003;4.507679e-002
2.644039e+003;4.473842e-002
2.645968e+003;4.445103e-002
2.647896e+003;4.438871e-002
2.649825e+003;4.424660e-002
2.651753e+003;4.421193e-002
2.653682e+003;4.427899e-002
2.655611e+003;4.396170e-002
2.657539e+003;4.367626e-002
2.659468e+003;4.368175e-002
2.661396e+003;4.362928e-002
2.663325e+003;4.368806e-002
2.665253e+003;4.375093e-002
2.667182e+003;4.376490e-002
2.669110e+003;4.386939e-002
2.671039e+003;4.378311e-002
2.672968e+003;4.377556e-002
2.674896e+003;4.396163e-002
2.676825e+003;4.395407e-002
2.678753e+003;4.400152e-002
2.680682e+003;4.388196e-002
2.682610e+003;4.368930e-002
2.684539e+003;4.367094e-002
2.686467e+003;4.363101e-002
2.688396e+003;4.374137e-002
2.690324e+003;4.382017e-002
2.692253e+003;4.383405e-002
2.694182e+003;4.402785e-002
2.696110e+003;4.418713e-002
2.698039e+003;4.427246e-002
2.699967e+003;4.424403e-002
2.701896e+003;4.425184e-002
2.703824e+003;4.448998e-002
2.705753e+003;4.447265e-002
2.707681e+003;4.426531e-002
2.709610e+003;4.424186e-002
2.711539e+003;4.435326e-002
2.713467e+003;4.450760e-002
2.715396e+003;4.448935e-002
2.717324e+003;4.456667e-002
2.719253e+003;4.465332e-002
2.721181e+003;4.485453e-002
2.723110e+003;4.526242e-002
2.725038e+003;4.535491e-002
2.726967e+003;4.537117e-002
2.728896e+003;4.570356e-002
2.730824e+003;4.612986e-002
2.732752e+003;4.643240e-002
2.734681e+003;4.648193e-002
2.736610e+003;4.644417e-002
2.738538e+003;4.648878e-002
2.740467e+003;4.661153e-002
2.742395e+003;4.665226e-002
2.744324e+003;4.669834e-002
2.746252e+003;4.689518e-002
2.748181e+003;4.676254e-002
2.750109e+003;4.658353e-002
2.752038e+003;4.674435e-002
2.753967e+003;4.680391e-002
2.755895e+003;4.672686e-002
2.757824e+003;4.661360e-002
2.759752e+003;4.654267e-002
2.761681e+003;4.652806e-002
2.763609e+003;4.660235e-002
2.765538e+003;4.659681e-002
2.767466e+003;4.649026e-002
2.769395e+003;4.654012e-002
2.771323e+003;4.682771e-002
2.773252e+003;4.714367e-002
2.775181e+003;4.725944e-002
2.777109e+003;4.725670e-002
2.779038e+003;4.723373e-002
2.780966e+003;4.766966e-002
2.782895e+003;4.803424e-002
2.784823e+003;4.792067e-002
2.786752e+003;4.808731e-002
2.788680e+003;4.847283e-002
2.790609e+003;4.890490e-002
2.792538e+003;4.936115e-002
2.794466e+003;4.969541e-002
2.796395e+003;4.998481e-002
2.798323e+003;5.021483e-002
2.800252e+003;5.046996e-002
2.802180e+003;5.072769e-002
2.804109e+003;5.088494e-002
2.806037e+003;5.112578e-002
2.807966e+003;5.126997e-002
2.809895e+003;5.091422e-002
2.811823e+003;5.034656e-002
2.813751e+003;5.020398e-002
2.815680e+003;5.032160e-002
2.817609e+003;5.039873e-002
2.819537e+003;5.006786e-002
2.821466e+003;4.970504e-002
2.823394e+003;4.986103e-002
2.825323e+003;4.986069e-002
2.827251e+003;5.002399e-002
2.829180e+003;5.070680e-002
2.831108e+003;5.121558e-002
2.833037e+003;5.142216e-002
2.834966e+003;5.154672e-002
2.836894e+003;5.207599e-002
2.838823e+003;5.280323e-002
2.840751e+003;5.315543e-002
2.842680e+003;5.366484e-002
2.844608e+003;5.443347e-002
2.846537e+003;5.498777e-002
2.848465e+003;5.528722e-002
2.850394e+003;5.555863e-002
2.852323e+003;5.576583e-002
2.854251e+003;5.632889e-002
2.856180e+003;5.684411e-002
2.858108e+003;5.740703e-002
2.860037e+003;5.808329e-002
2.861965e+003;5.833403e-002
2.863894e+003;5.832766e-002
2.865822e+003;5.861456e-002
2.867751e+003;5.890908e-002
2.869679e+003;5.912027e-002
2.871608e+003;5.950261e-002
2.873536e+003;5.977990e-002
2.875465e+003;6.022291e-002
2.877394e+003;6.047374e-002
2.879322e+003;6.040329e-002
2.881251e+003;6.073957e-002
2.883179e+003;6.134442e-002
2.885108e+003;6.167708e-002
2.887036e+003;6.182521e-002
2.888965e+003;6.214264e-002
2.890893e+003;6.238024e-002
2.892822e+003;6.256989e-002
2.894750e+003;6.301389e-002
2.896679e+003;6.355368e-002
2.898608e+003;6.394024e-002
2.900536e+003;6.452285e-002
2.902465e+003;6.530949e-002
2.904393e+003;6.625145e-002
2.906322e+003;6.698950e-002
2.908250e+003;6.709804e-002
2.910179e+003;6.703841e-002
2.912107e+003;6.675667e-002
2.914036e+003;6.570996e-002
2.915965e+003;6.460908e-002
2.917893e+003;6.392876e-002
2.919822e+003;6.324632e-002
2.921750e+003;6.225647e-002
2.923679e+003;6.147106e-002
2.925607e+003;6.103802e-002
2.927536e+003;6.060580e-002
2.929464e+003;6.043116e-002
2.931393e+003;6.059205e-002
2.933322e+003;6.115065e-002
2.935250e+003;6.142476e-002
2.937178e+003;6.179729e-002
2.939107e+003;6.261203e-002
2.941036e+003;6.336600e-002
2.942964e+003;6.399441e-002
2.944893e+003;6.515759e-002
2.946821e+003;6.622698e-002
2.948750e+003;6.682789e-002
2.950678e+003;6.744728e-002
2.952607e+003;6.824506e-002
2.954535e+003;6.923570e-002
2.956464e+003;7.005799e-002
2.958393e+003;7.063795e-002
2.960321e+003;7.111435e-002
2.962250e+003;7.165899e-002
2.964178e+003;7.228684e-002
2.966107e+003;7.284785e-002
2.968035e+003;7.302618e-002
2.969964e+003;7.267277e-002
2.971892e+003;7.237628e-002
2.973821e+003;7.204479e-002
2.975750e+003;7.163441e-002
2.977678e+003;7.101148e-002
2.979607e+003;7.031316e-002
2.981535e+003;6.977157e-002
2.983464e+003;6.941632e-002
2.985392e+003;6.903674e-002
2.987321e+003;6.839867e-002
2.989249e+003;6.761908e-002
2.991178e+003;6.711605e-002
2.993106e+003;6.680884e-002
2.995035e+003;6.664823e-002
2.996964e+003;6.633818e-002
2.998892e+003;6.590705e-002
3.000821e+003;6.589328e-002
3.002749e+003;6.591002e-002
3.004678e+003;6.530710e-002
3.006606e+003;6.469921e-002
3.008535e+003;6.428331e-002
3.010463e+003;6.403957e-002
3.012392e+003;6.388738e-002
3.014321e+003;6.346692e-002
3.016249e+003;6.289802e-002
3.018177e+003;6.219736e-002
3.020106e+003;6.152225e-002
3.022035e+003;6.057875e-002
3.023963e+003;5.954167e-002
3.025892e+003;5.881255e-002
3.027820e+003;5.782124e-002
3.029749e+003;5.701319e-002
3.031677e+003;5.681103e-002
3.033606e+003;5.636435e-002
3.035534e+003;5.593351e-002
3.037463e+003;5.575517e-002
3.039392e+003;5.569757e-002
3.041320e+003;5.582385e-002
3.043249e+003;5.635145e-002
3.045177e+003;5.755336e-002
3.047106e+003;5.855059e-002
3.049034e+003;5.928436e-002
3.050963e+003;6.031050e-002
3.052891e+003;6.114142e-002
3.054820e+003;6.130756e-002
3.056749e+003;6.113714e-002
3.058677e+003;6.114252e-002
3.060606e+003;6.103265e-002
3.062534e+003;6.071058e-002
3.064463e+003;6.077833e-002
3.066391e+003;6.084164e-002
3.068320e+003;6.085917e-002
3.070248e+003;6.099337e-002
3.072177e+003;6.094541e-002
3.074105e+003;6.063144e-002
3.076034e+003;6.044061e-002
3.077963e+003;6.042625e-002
3.079891e+003;6.023947e-002
3.081820e+003;6.006125e-002
3.083748e+003;5.990616e-002
3.085677e+003;5.962745e-002
3.087605e+003;5.922161e-002
3.089534e+003;5.871995e-002
3.091462e+003;5.814375e-002
3.093391e+003;5.772680e-002
3.095320e+003;5.795226e-002
3.097248e+003;5.843056e-002
3.099177e+003;5.852742e-002
3.101105e+003;5.877807e-002
3.103034e+003;5.901808e-002
3.104962e+003;5.909092e-002
3.106891e+003;5.897212e-002
3.108819e+003;5.874806e-002
3.110748e+003;5.838549e-002
3.112677e+003;5.793924e-002
3.114605e+003;5.742782e-002
3.116533e+003;5.659616e-002
3.118462e+003;5.597957e-002
3.120391e+003;5.577257e-002
3.122319e+003;5.530427e-002
3.124248e+003;5.489410e-002
3.126176e+003;5.501955e-002
3.128105e+003;5.533509e-002
3.130033e+003;5.522919e-002
3.131962e+003;5.481218e-002
3.133890e+003;5.428938e-002
3.135819e+003;5.396469e-002
3.137748e+003;5.359844e-002
3.139676e+003;5.338550e-002
3.141605e+003;5.300656e-002
3.143533e+003;5.222528e-002
3.145462e+003;5.152464e-002
3.147390e+003;5.132695e-002
3.149319e+003;5.135678e-002
3.151247e+003;5.114471e-002
3.153176e+003;5.100954e-002
3.155104e+003;5.095443e-002
3.157033e+003;5.078523e-002
3.158962e+003;5.055970e-002
3.160890e+003;5.069060e-002
3.162819e+003;5.079350e-002
3.164747e+003;5.061577e-002
3.166676e+003;5.033934e-002
3.168604e+003;5.015198e-002
3.170533e+003;5.020688e-002
3.172461e+003;5.036256e-002
3.174390e+003;4.988247e-002
3.176319e+003;4.985590e-002
3.178247e+003;5.017868e-002
3.180176e+003;5.013056e-002
3.182104e+003;4.957209e-002
3.184033e+003;4.915517e-002
3.185961e+003;4.939215e-002
3.187890e+003;4.984096e-002
3.189818e+003;4.978942e-002
3.191747e+003;4.948927e-002
3.193676e+003;4.971804e-002
3.195604e+003;4.988062e-002
3.197532e+003;4.952236e-002
3.199461e+003;4.934002e-002
3.201390e+003;4.942166e-002
3.203318e+003;4.953235e-002
3.205247e+003;4.943005e-002
3.207175e+003;4.925284e-002
3.209104e+003;4.947431e-002
3.211032e+003;4.973580e-002
3.212961e+003;4.955779e-002
3.214889e+003;4.931909e-002
3.216818e+003;4.944412e-002
3.218747e+003;4.950350e-002
3.220675e+003;4.948248e-002
3.222604e+003;4.930424e-002
3.224532e+003;4.911179e-002
3.226461e+003;4.931764e-002
3.228389e+003;4.932908e-002
3.230318e+003;4.929556e-002
3.232246e+003;4.939070e-002
3.234175e+003;4.931564e-002
3.236104e+003;4.926037e-002
3.238032e+003;4.932318e-002
3.239961e+003;4.943581e-002
3.241889e+003;4.928182e-002
3.243818e+003;4.909840e-002
3.245746e+003;4.898879e-002
3.247675e+003;4.904417e-002
3.249603e+003;4.887808e-002
3.251532e+003;4.881861e-002
3.253460e+003;4.871303e-002
3.255389e+003;4.859732e-002
3.257318e+003;4.852244e-002
3.259246e+003;4.834570e-002
3.261175e+003;4.841652e-002
3.263103e+003;4.821428e-002
3.265032e+003;4.815923e-002
3.266960e+003;4.867504e-002
3.268889e+003;4.882836e-002
3.270817e+003;4.882091e-002
3.272746e+003;4.888305e-002
3.274675e+003;4.849013e-002
3.276603e+003;4.830863e-002
3.278531e+003;4.841067e-002
3.280460e+003;4.851573e-002
3.282389e+003;4.848987e-002
3.284317e+003;4.838170e-002
3.286246e+003;4.860470e-002
3.288174e+003;4.882962e-002
3.290103e+003;4.917302e-002
3.292031e+003;4.926965e-002
3.293960e+003;4.899027e-002
3.295888e+003;4.878929e-002
3.297817e+003;4.865121e-002
3.299746e+003;4.893193e-002
3.301674e+003;4.910731e-002
3.303603e+003;4.864513e-002
3.305531e+003;4.847290e-002
3.307460e+003;4.889585e-002
3.309388e+003;4.880612e-002
3.311317e+003;4.834252e-002
3.313245e+003;4.824998e-002
3.315174e+003;4.825590e-002
3.317103e+003;4.819640e-002
3.319031e+003;4.822595e-002
3.320960e+003;4.818552e-002
3.322888e+003;4.815819e-002
3.324817e+003;4.828749e-002
3.326745e+003;4.843175e-002
3.328674e+003;4.836944e-002
3.330602e+003;4.867978e-002
3.332531e+003;4.895937e-002
3.334459e+003;4.883092e-002
3.336388e+003;4.884534e-002
3.338317e+003;4.879722e-002
3.340245e+003;4.884579e-002
3.342174e+003;4.890156e-002
3.344102e+003;4.888988e-002
3.346031e+003;4.862797e-002
3.347959e+003;4.808176e-002
3.349888e+003;4.757379e-002
3.351816e+003;4.751002e-002
3.353745e+003;4.721884e-002
3.355674e+003;4.702598e-002
3.357602e+003;4.708185e-002
3.359531e+003;4.674258e-002
3.361459e+003;4.664473e-002
3.363388e+003;4.671476e-002
3.365316e+003;4.644911e-002
3.367245e+003;4.631221e-002
3.369173e+003;4.618395e-002
3.371102e+003;4.635785e-002
3.373031e+003;4.648993e-002
3.374959e+003;4.617957e-002
3.376887e+003;4.599248e-002
3.378816e+003;4.596268e-002
3.380745e+003;4.611173e-002
3.382673e+003;4.626194e-002
3.384602e+003;4.605657e-002
3.386530e+003;4.603115e-002
3.388459e+003;4.617135e-002
3.390387e+003;4.652209e-002
3.392316e+003;4.682535e-002
3.394244e+003;4.708045e-002
3.396173e+003;4.714485e-002
3.398102e+003;4.719808e-002
3.400030e+003;4.736366e-002
3.401959e+003;4.804245e-002
3.403887e+003;4.876159e-002
3.405816e+003;4.904175e-002
3.407744e+003;4.949737e-002
3.409673e+003;5.051410e-002
3.411601e+003;5.148726e-002
3.413530e+003;5.214801e-002
3.415458e+003;5.246929e-002
3.417387e+003;5.319910e-002
3.419316e+003;5.442359e-002
3.421244e+003;5.522276e-002
3.423173e+003;5.604131e-002
3.425101e+003;5.713022e-002
3.427030e+003;5.795624e-002
3.428958e+003;5.837370e-002
3.430887e+003;5.807837e-002
3.432815e+003;5.787397e-002
3.434744e+003;5.759369e-002
3.436673e+003;5.703869e-002
3.438601e+003;5.639721e-002
3.440530e+003;5.543262e-002
3.442458e+003;5.492065e-002
3.444387e+003;5.425645e-002
3.446315e+003;5.361573e-002
3.448244e+003;5.309863e-002
3.450172e+003;5.258693e-002
3.452101e+003;5.191296e-002
3.454030e+003;5.109100e-002
3.455958e+003;5.035278e-002
3.457886e+003;4.974145e-002
3.459815e+003;4.954286e-002
3.461744e+003;4.898255e-002
3.463672e+003;4.830271e-002
3.465601e+003;4.789932e-002
3.467529e+003;4.727957e-002
3.469458e+003;4.661843e-002
3.471386e+003;4.633304e-002
3.473315e+003;4.614025e-002
3.475243e+003;4.646489e-002
3.477172e+003;4.615845e-002
3.479101e+003;4.531126e-002
3.481029e+003;4.519049e-002
3.482958e+003;4.525260e-002
3.484886e+003;4.539681e-002
3.486815e+003;4.555623e-002
3.488743e+003;4.542444e-002
3.490672e+003;4.490976e-002
3.492600e+003;4.435040e-002
3.494529e+003;4.450205e-002
3.496458e+003;4.473364e-002
3.498386e+003;4.496837e-002
3.500315e+003;4.531074e-002
3.502243e+003;4.510726e-002
3.504172e+003;4.514204e-002
3.506100e+003;4.577144e-002
3.508029e+003;4.560389e-002
3.509957e+003;4.526194e-002
3.511886e+003;4.551207e-002
3.513814e+003;4.569233e-002
3.515743e+003;4.580940e-002
3.517672e+003;4.556370e-002
3.519600e+003;4.543731e-002
3.521529e+003;4.594515e-002
3.523457e+003;4.624668e-002
3.525386e+003;4.624686e-002
3.527314e+003;4.623009e-002
3.529243e+003;4.603889e-002
3.531171e+003;4.630746e-002
3.533100e+003;4.678911e-002
3.535029e+003;4.702498e-002
3.536957e+003;4.664879e-002
3.538885e+003;4.620842e-002
3.540814e+003;4.634259e-002
3.542743e+003;4.666388e-002
3.544671e+003;4.681915e-002
3.546600e+003;4.673022e-002
3.548528e+003;4.639616e-002
3.550457e+003;4.627237e-002
3.552385e+003;4.670664e-002
3.554314e+003;4.671741e-002
3.556242e+003;4.633854e-002
3.558171e+003;4.620219e-002
3.560100e+003;4.622851e-002
3.562028e+003;4.585849e-002
3.563957e+003;4.550093e-002
3.565885e+003;4.536518e-002
3.567814e+003;4.497990e-002
3.569742e+003;4.463988e-002
3.571671e+003;4.436126e-002
3.573599e+003;4.441282e-002
3.575528e+003;4.465678e-002
3.577457e+003;4.462295e-002
3.579385e+003;4.418464e-002
3.581314e+003;4.364471e-002
3.583242e+003;4.306063e-002
3.585171e+003;4.274094e-002
3.587099e+003;4.250416e-002
3.589028e+003;4.249272e-002
3.590956e+003;4.235178e-002
3.592885e+003;4.190819e-002
3.594813e+003;4.206473e-002
3.596742e+003;4.225083e-002
3.598671e+003;4.193611e-002
3.600599e+003;4.189254e-002
3.602528e+003;4.201662e-002
3.604456e+003;4.182777e-002
3.606385e+003;4.162894e-002
3.608313e+003;4.117815e-002
3.610242e+003;4.116758e-002
3.612170e+003;4.164419e-002
3.614099e+003;4.190808e-002
3.616028e+003;4.189793e-002
3.617956e+003;4.148255e-002
3.619885e+003;4.105449e-002
3.621813e+003;4.130538e-002
3.623742e+003;4.177345e-002
3.625670e+003;4.222541e-002
3.627599e+003;4.199972e-002
3.629527e+003;4.130257e-002
3.631456e+003;4.086934e-002
3.633385e+003;4.142167e-002
3.635313e+003;4.180855e-002
3.637241e+003;4.184338e-002
3.639170e+003;4.181986e-002
3.641099e+003;4.148729e-002
3.643027e+003;4.121815e-002
3.644956e+003;4.143607e-002
3.646884e+003;4.124194e-002
3.648813e+003;4.087137e-002
3.650741e+003;4.087862e-002
3.652670e+003;4.081841e-002
3.654598e+003;4.061866e-002
3.656527e+003;4.040689e-002
3.658456e+003;4.044017e-002
3.660384e+003;4.034417e-002
3.662313e+003;4.021308e-002
3.664241e+003;4.012334e-002
3.666170e+003;3.972831e-002
3.668098e+003;3.894737e-002
3.670027e+003;3.889135e-002
3.671955e+003;3.952663e-002
3.673884e+003;3.963327e-002
3.675813e+003;3.964343e-002
3.677741e+003;4.004213e-002
3.679669e+003;4.034882e-002
3.681598e+003;4.051065e-002
3.683527e+003;4.037489e-002
3.685455e+003;4.068623e-002
3.687384e+003;4.068041e-002
3.689312e+003;4.005950e-002
3.691241e+003;3.945115e-002
3.693169e+003;3.929628e-002
3.695098e+003;3.920387e-002
3.697026e+003;3.946160e-002
3.698955e+003;3.958292e-002
3.700884e+003;3.907047e-002
3.702812e+003;3.880783e-002
3.704741e+003;3.901131e-002
3.706669e+003;3.886616e-002
3.708598e+003;3.837961e-002
3.710526e+003;3.810652e-002
3.712455e+003;3.802084e-002
3.714383e+003;3.821422e-002
3.716312e+003;3.861392e-002
3.718240e+003;3.872407e-002
3.720169e+003;3.836202e-002
3.722098e+003;3.792505e-002
3.724026e+003;3.786477e-002
3.725955e+003;3.788817e-002
3.727883e+003;3.800030e-002
3.729812e+003;3.851608e-002
3.731740e+003;3.882402e-002
3.733669e+003;3.855019e-002
3.735597e+003;3.847083e-002
3.737526e+003;3.832405e-002
3.739455e+003;3.808099e-002
3.741383e+003;3.819899e-002
3.743312e+003;3.822779e-002
3.745240e+003;3.809719e-002
3.747169e+003;3.837139e-002
3.749097e+003;3.858068e-002
3.751026e+003;3.846695e-002
3.752954e+003;3.846912e-002
3.754883e+003;3.874040e-002
3.756812e+003;3.931514e-002
3.758740e+003;3.947401e-002
3.760668e+003;3.964053e-002
3.762597e+003;3.973525e-002
3.764526e+003;3.914560e-002
3.766454e+003;3.874182e-002
3.768383e+003;3.877004e-002
3.770311e+003;3.898670e-002
3.772240e+003;3.907682e-002
3.774168e+003;3.861947e-002
3.776097e+003;3.814089e-002
3.778025e+003;3.783788e-002
3.779954e+003;3.799335e-002
3.781883e+003;3.852850e-002
3.783811e+003;3.859314e-002
3.785740e+003;3.827494e-002
3.787668e+003;3.830436e-002
3.789597e+003;3.845157e-002
3.791525e+003;3.846279e-002
3.793454e+003;3.883779e-002
3.795382e+003;3.898830e-002
3.797311e+003;3.890207e-002
3.799240e+003;3.904125e-002
3.801168e+003;3.919792e-002
3.803097e+003;3.908871e-002
3.805025e+003;3.917917e-002
3.806954e+003;3.901838e-002
3.808882e+003;3.893784e-002
3.810811e+003;3.941298e-002
3.812739e+003;3.956772e-002
3.814668e+003;3.912641e-002
3.816596e+003;3.842586e-002
3.818525e+003;3.823839e-002
3.820454e+003;3.870994e-002
3.822382e+003;3.896651e-002
3.824311e+003;3.873294e-002
3.826239e+003;3.863113e-002
3.828168e+003;3.899402e-002
3.830096e+003;3.862142e-002
3.832025e+003;3.798395e-002
3.833953e+003;3.816248e-002
3.835882e+003;3.823441e-002
3.837811e+003;3.808439e-002
3.839739e+003;3.871211e-002
3.841667e+003;3.919031e-002
3.843596e+003;3.889754e-002
3.845525e+003;3.860907e-002
3.847453e+003;3.852111e-002
3.849382e+003;3.835054e-002
3.851310e+003;3.809419e-002
3.853239e+003;3.761883e-002
3.855167e+003;3.763043e-002
3.857096e+003;3.835021e-002
3.859024e+003;3.858753e-002
3.860953e+003;3.855512e-002
3.862882e+003;3.887203e-002
3.864810e+003;3.912039e-002
3.866739e+003;3.897608e-002
3.868667e+003;3.845352e-002
3.870596e+003;3.809607e-002
3.872524e+003;3.848103e-002
3.874453e+003;3.841432e-002
3.876381e+003;3.828960e-002
3.878310e+003;3.871958e-002
3.880239e+003;3.907852e-002
3.882167e+003;3.903893e-002
3.884096e+003;3.897862e-002
3.886024e+003;3.902635e-002
3.887953e+003;3.892498e-002
3.889881e+003;3.884522e-002
3.891810e+003;3.919458e-002
3.893738e+003;3.918581e-002
3.895667e+003;3.871077e-002
3.897595e+003;3.887066e-002
3.899524e+003;3.937133e-002
3.901453e+003;3.945881e-002
3.903381e+003;3.944273e-002
3.905310e+003;3.938813e-002
3.907238e+003;3.936353e-002
3.909167e+003;3.999544e-002
3.911095e+003;4.007432e-002
3.913024e+003;3.946962e-002
3.914952e+003;3.950831e-002
3.916881e+003;4.004260e-002
3.918810e+003;4.054106e-002
3.920738e+003;4.040395e-002
3.922667e+003;3.976480e-002
3.924595e+003;3.980242e-002
3.926524e+003;4.008188e-002
3.928452e+003;4.003271e-002
3.930381e+003;4.019712e-002
3.932309e+003;4.022209e-002
3.934238e+003;4.007356e-002
3.936167e+003;3.983830e-002
3.938095e+003;3.971306e-002
3.940023e+003;3.965857e-002
3.941952e+003;3.991047e-002
3.943881e+003;3.989540e-002
3.945809e+003;3.966597e-002
3.947738e+003;4.010488e-002
3.949666e+003;4.049243e-002
3.951595e+003;4.043162e-002
3.953523e+003;4.055201e-002
3.955452e+003;4.054263e-002
3.957380e+003;4.041111e-002
3.959309e+003;4.081925e-002
3.961238e+003;4.093043e-002
3.963166e+003;4.077266e-002
3.965095e+003;4.099400e-002
3.967023e+003;4.108049e-002
3.968952e+003;4.111276e-002
3.970880e+003;4.098981e-002
3.972809e+003;4.061881e-002
3.974737e+003;4.038566e-002
3.976666e+003;4.038293e-002
3.978594e+003;4.063944e-002
3.980523e+003;4.065035e-002
3.982452e+003;4.053484e-002
3.984380e+003;4.100074e-002
3.986309e+003;4.132411e-002
3.988237e+003;4.141515e-002
3.990166e+003;4.107361e-002
3.992094e+003;4.053932e-002
3.994023e+003;4.038868e-002
3.995951e+003;4.038784e-002
3.997880e+003;4.066949e-002
3.999809e+003;4.073448e-002
4.001737e+003;0.000000e+000
