3.992094e+002;0.000000e+000
4.011380e+002;0.000000e+000
4.030665e+002;0.000000e+000
4.049951e+002;0.000000e+000
4.069236e+002;0.000000e+000
4.088522e+002;0.000000e+000
4.107807e+002;0.000000e+000
4.127093e+002;0.000000e+000
4.146378e+002;0.000000e+000
4.165664e+002;0.000000e+000
4.184949e+002;0.000000e+000
4.204235e+002;0.000000e+000
4.223520e+002;0.000000e+000
4.242806e+002;0.000000e+000
4.262091e+002;0.000000e+000
4.281377e+002;0.000000e+000
4.300662e+002;0.000000e+000
4.319948e+002;0.000000e+000
4.339233e+002;0.000000e+000
4.358519e+002;0.000000e+000
4.377804e+002;0.000000e+000
4.397090e+002;0.000000e+000
4.416375e+002;0.000000e+000
4.435660e+002;0.000000e+000
4.454946e+002;0.000000e+000
4.474232e+002;0.000000e+000
4.493517e+002;0.000000e+000
4.512802e+002;0.000000e+000
4.532088e+002;0.000000e+000
4.551373e+002;0.000000e+000
4.570659e+002;0.000000e+000
4.589944e+002;0.000000e+000
4.609230e+002;0.000000e+000
4.628515e+002;0.000000e+000
4.647801e+002;0.000000e+000
4.667086e+002;0.000000e+000
4.686372e+002;0.000000e+000
4.705657e+002;0.000000e+000
4.724943e+002;0.000000e+000
4.744228e+002;0.000000e+000
4.763513e+002;0.000000e+000
4.782799e+002;0.000000e+000
4.802085e+002;0.000000e+000
4.821370e+002;0.000000e+000
4.840656e+002;0.000000e+000
4.859941e+002;0.000000e+000
4.879226e+002;0.000000e+000
4.898512e+002;0.000000e+000
4.917798e+002;0.000000e+000
4.937083e+002;0.000000e+000
4.956368e+002;0.000000e+000
4.975654e+002;0.000000e+000
4.994939e+002;0.000000e+000
5.014225e+002;0.000000e+000
5.033510e+002;0.000000e+000
5.052796e+002;0.000000e+000
5.072081e+002;0.000000e+000
5.091367e+002;0.000000e+000
5.110652e+002;0.000000e+000
5.129938e+002;0.000000e+000
5.149223e+002;0.000000e+000
5.168509e+002;0.000000e+000
5.187794e+002;0.000000e+000
5.207079e+002;0.000000e+000
5.226365e+002;0.000000e+000
5.245651e+002;0.000000e+000
5.264936e+002;0.000000e+000
5.284222e+002;0.000000e+000
5.303507e+002;0.000000e+000
5.322792e+002;0.000000e+000
5.342078e+002;0.000000e+000
5.361364e+002;0.000000e+000
5.380649e+002;0.000000e+000
5.399935e+002;0.000000e+000
5.419220e+002;0.000000e+000
5.438505e+002;0.000000e+000
5.457791e+002;0.000000e+000
5.477076e+002;0.000000e+000
5.496362e+002;0.000000e+000
5.515648e+002;0.000000e+000
5.534933e+002;0.000000e+000
5.554218e+002;0.000000e+000
5.573504e+002;0.000000e+000
5.592789e+002;0.000000e+000
5.612075e+002;0.000000e+000
5.631360e+002;0.000000e+000
5.650646e+002;0.000000e+000
5.669931e+002;0.000000e+000
5.689217e+002;0.000000e+000
5.708502e+002;0.000000e+000
5.727787e+002;0.000000e+000
5.747073e+002;0.000000e+000
5.766359e+002;0.000000e+000
5.785644e+002;0.000000e+000
5.804930e+002;0.000000e+000
5.824215e+002;0.000000e+000
5.843500e+002;0.000000e+000
5.862786e+002;0.000000e+000
5.882072e+002;0.000000e+000
5.901357e+002;0.000000e+000
5.920643e+002;0.000000e+000
5.939928e+002;0.000000e+000
5.959213e+002;0.000000e+000
5.978499e+002;0.000000e+000
5.997784e+002;7.630806e-002
6.017070e+002;7.365319e-002
6.036355e+002;7.684011e-002
6.055641e+002;7.755972e-002
6.074926e+002;7.723462e-002
6.094211e+002;7.725797e-002
6.113497e+002;7.446734e-002
6.132783e+002;7.440032e-002
6.152068e+002;7.726938e-002
6.171354e+002;7.761957e-002
6.190639e+002;7.723735e-002
6.209924e+002;7.752090e-002
6.229210e+002;8.234265e-002
6.248495e+002;8.617023e-002
6.267781e+002;8.550852e-002
6.287067e+002;8.435451e-002
6.306352e+002;9.084672e-002
6.325637e+002;9.693719e-002
6.344923e+002;9.399034e-002
6.364208e+002;8.774941e-002
6.383494e+002;8.177717e-002
6.402780e+002;7.938788e-002
6.422065e+002;7.862911e-002
6.441350e+002;7.544658e-002
6.460636e+002;7.621109e-002
6.479921e+002;7.927528e-002
6.499207e+002;8.146333e-002
6.518492e+002;8.449311e-002
6.537778e+002;8.616352e-002
6.557063e+002;8.751349e-002
6.576349e+002;9.093250e-002
6.595634e+002;9.174195e-002
6.614919e+002;9.185263e-002
6.634205e+002;9.293150e-002
6.653491e+002;9.686408e-002
6.672776e+002;1.010803e-001
6.692062e+002;1.031241e-001
6.711347e+002;1.051105e-001
6.730632e+002;1.070544e-001
6.749918e+002;1.110701e-001
6.769203e+002;1.175323e-001
6.788489e+002;1.231896e-001
6.807775e+002;1.258188e-001
6.827060e+002;1.261514e-001
6.846345e+002;1.261867e-001
6.865631e+002;1.260075e-001
6.884916e+002;1.273351e-001
6.904202e+002;1.301551e-001
6.923488e+002;1.352743e-001
6.942773e+002;1.431720e-001
6.962058e+002;1.540543e-001
6.981344e+002;1.694582e-001
7.000629e+002;1.880582e-001
7.019915e+002;2.053861e-001
7.039200e+002;2.199887e-001
7.058486e+002;2.352257e-001
7.077771e+002;2.514515e-001
7.097057e+002;2.704600e-001
7.116342e+002;2.951995e-001
7.135627e+002;3.261033e-001
7.154913e+002;3.665845e-001
7.174199e+002;4.200174e-001
7.193484e+002;4.808827e-001
7.212770e+002;5.351561e-001
7.232055e+002;5.653850e-001
7.251340e+002;5.495468e-001
7.270626e+002;4.920970e-001
7.289911e+002;4.236009e-001
7.309197e+002;3.574678e-001
7.328483e+002;2.988464e-001
7.347768e+002;2.482477e-001
7.367053e+002;2.025487e-001
7.386339e+002;1.624478e-001
7.405624e+002;1.322268e-001
7.424910e+002;1.114189e-001
7.444196e+002;9.707944e-002
7.463481e+002;8.764488e-002
7.482766e+002;8.321436e-002
7.502052e+002;8.157806e-002
7.521337e+002;8.034038e-002
7.540623e+002;7.918795e-002
7.559908e+002;7.789636e-002
7.579194e+002;7.678285e-002
7.598479e+002;7.632942e-002
7.617765e+002;7.728873e-002
7.637050e+002;7.933550e-002
7.656335e+002;8.165731e-002
7.675621e+002;8.441149e-002
7.694907e+002;8.628827e-002
7.714192e+002;8.759420e-002
7.733478e+002;8.963801e-002
7.752763e+002;9.253097e-002
7.772048e+002;9.499792e-002
7.791334e+002;9.682429e-002
7.810620e+002;9.935817e-002
7.829905e+002;1.036181e-001
7.849191e+002;1.084661e-001
7.868476e+002;1.142811e-001
7.887761e+002;1.207361e-001
7.907047e+002;1.261993e-001
7.926332e+002;1.276283e-001
7.945618e+002;1.219450e-001
7.964903e+002;1.115930e-001
7.984189e+002;1.033738e-001
8.003474e+002;1.000520e-001
8.022759e+002;9.976689e-002
8.042045e+002;1.006993e-001
8.061331e+002;1.010869e-001
8.080616e+002;1.012273e-001
8.099902e+002;1.019626e-001
8.119187e+002;1.031119e-001
8.138472e+002;1.038297e-001
8.157758e+002;1.033541e-001
8.177043e+002;1.035844e-001
8.196329e+002;1.048074e-001
8.215615e+002;1.061522e-001
8.234900e+002;1.076416e-001
8.254185e+002;1.095800e-001
8.273471e+002;1.117273e-001
8.292756e+002;1.141706e-001
8.312042e+002;1.172501e-001
8.331328e+002;1.213046e-001
8.350613e+002;1.262372e-001
8.369898e+002;1.313221e-001
8.389184e+002;1.368871e-001
8.408469e+002;1.430112e-001
8.427755e+002;1.503113e-001
8.447040e+002;1.574095e-001
8.466326e+002;1.625321e-001
8.485611e+002;1.632050e-001
8.504897e+002;1.588574e-001
8.524182e+002;1.537176e-001
8.543467e+002;1.503154e-001
8.562753e+002;1.484755e-001
8.582039e+002;1.476902e-001
8.601324e+002;1.480829e-001
8.620610e+002;1.504803e-001
8.639895e+002;1.558576e-001
8.659180e+002;1.661150e-001
8.678466e+002;1.865125e-001
8.697751e+002;2.178548e-001
8.717037e+002;2.422743e-001
8.736323e+002;2.358505e-001
8.755608e+002;2.099629e-001
8.774893e+002;1.863870e-001
8.794179e+002;1.675812e-001
8.813464e+002;1.516642e-001
8.832750e+002;1.380992e-001
8.852036e+002;1.273551e-001
8.871321e+002;1.199299e-001
8.890606e+002;1.147853e-001
8.909892e+002;1.119443e-001
8.929177e+002;1.109576e-001
8.948463e+002;1.106069e-001
8.967748e+002;1.104566e-001
8.987034e+002;1.101865e-001
9.006319e+002;1.095956e-001
9.025605e+002;1.084448e-001
9.044890e+002;1.066704e-001
9.064175e+002;1.043093e-001
9.083461e+002;1.012427e-001
9.102747e+002;9.846338e-002
9.122032e+002;9.620446e-002
9.141318e+002;9.405424e-002
9.160603e+002;9.247333e-002
9.179888e+002;9.140169e-002
9.199174e+002;9.083337e-002
9.218459e+002;9.030160e-002
9.237745e+002;9.044484e-002
9.257031e+002;9.159991e-002
9.276316e+002;9.259670e-002
9.295601e+002;9.298863e-002
9.314887e+002;9.399758e-002
9.334172e+002;9.534527e-002
9.353458e+002;9.670376e-002
9.372744e+002;9.840482e-002
9.392029e+002;1.002798e-001
9.411314e+002;1.021965e-001
9.430600e+002;1.042790e-001
9.449885e+002;1.063550e-001
9.469171e+002;1.087464e-001
9.488456e+002;1.114381e-001
9.507742e+002;1.145110e-001
9.527027e+002;1.181652e-001
9.546313e+002;1.221399e-001
9.565598e+002;1.263676e-001
9.584883e+002;1.306725e-001
9.604169e+002;1.352244e-001
9.623455e+002;1.405102e-001
9.642740e+002;1.456982e-001
9.662026e+002;1.499453e-001
9.681311e+002;1.533944e-001
9.700596e+002;1.555793e-001
9.719882e+002;1.556164e-001
9.739167e+002;1.532715e-001
9.758453e+002;1.492238e-001
9.777739e+002;1.441240e-001
9.797024e+002;1.392090e-001
9.816309e+002;1.357148e-001
9.835595e+002;1.332408e-001
9.854880e+002;1.312826e-001
9.874166e+002;1.300637e-001
9.893452e+002;1.291816e-001
9.912737e+002;1.282872e-001
9.932022e+002;1.278616e-001
9.951307e+002;1.278220e-001
9.970593e+002;1.285346e-001
9.989879e+002;1.300943e-001
1.000916e+003;1.320636e-001
1.002845e+003;1.353939e-001
1.004773e+003;1.406428e-001
1.006702e+003;1.484498e-001
1.008631e+003;1.604207e-001
1.010559e+003;1.785851e-001
1.012488e+003;2.065976e-001
1.014416e+003;2.454340e-001
1.016345e+003;2.838764e-001
1.018273e+003;3.005504e-001
1.020202e+003;2.882217e-001
1.022130e+003;2.617812e-001
1.024059e+003;2.328877e-001
1.025988e+003;2.040150e-001
1.027916e+003;1.789208e-001
1.029845e+003;1.628398e-001
1.031773e+003;1.558706e-001
1.033702e+003;1.548032e-001
1.035630e+003;1.561990e-001
1.037559e+003;1.579893e-001
1.039487e+003;1.600608e-001
1.041416e+003;1.621996e-001
1.043344e+003;1.639590e-001
1.045273e+003;1.651229e-001
1.047202e+003;1.652408e-001
1.049130e+003;1.651805e-001
1.051059e+003;1.653409e-001
1.052987e+003;1.658829e-001
1.054916e+003;1.666724e-001
1.056844e+003;1.683289e-001
1.058773e+003;1.714666e-001
1.060701e+003;1.763006e-001
1.062630e+003;1.826709e-001
1.064558e+003;1.900829e-001
1.066487e+003;1.987688e-001
1.068416e+003;2.093975e-001
1.070344e+003;2.220372e-001
1.072273e+003;2.376465e-001
1.074201e+003;2.567991e-001
1.076130e+003;2.797109e-001
1.078058e+003;3.064367e-001
1.079987e+003;3.358082e-001
1.081915e+003;3.656934e-001
1.083844e+003;3.938151e-001
1.085773e+003;4.183598e-001
1.087701e+003;4.392221e-001
1.089630e+003;4.585809e-001
1.091558e+003;4.751941e-001
1.093487e+003;4.895050e-001
1.095415e+003;5.020847e-001
1.097344e+003;5.090533e-001
1.099272e+003;5.076588e-001
1.101201e+003;4.980821e-001
1.103129e+003;4.810367e-001
1.105058e+003;4.573349e-001
1.106987e+003;4.314488e-001
1.108915e+003;4.082763e-001
1.110844e+003;3.922365e-001
1.112772e+003;3.847272e-001
1.114701e+003;3.821976e-001
1.116629e+003;3.811423e-001
1.118558e+003;3.788888e-001
1.120486e+003;3.731174e-001
1.122415e+003;3.626052e-001
1.124344e+003;3.487878e-001
1.126272e+003;3.332221e-001
1.128201e+003;3.154993e-001
1.130129e+003;2.959342e-001
1.132058e+003;2.749917e-001
1.133986e+003;2.528595e-001
1.135915e+003;2.309285e-001
1.137843e+003;2.114127e-001
1.139772e+003;1.944847e-001
1.141700e+003;1.802466e-001
1.143629e+003;1.684783e-001
1.145557e+003;1.586752e-001
1.147486e+003;1.505775e-001
1.149415e+003;1.436248e-001
1.151343e+003;1.375553e-001
1.153272e+003;1.321835e-001
1.155200e+003;1.279231e-001
1.157129e+003;1.252427e-001
1.159057e+003;1.235734e-001
1.160986e+003;1.222819e-001
1.162914e+003;1.215015e-001
1.164843e+003;1.222283e-001
1.166771e+003;1.250198e-001
1.168700e+003;1.294156e-001
1.170629e+003;1.343523e-001
1.172557e+003;1.381299e-001
1.174486e+003;1.397973e-001
1.176414e+003;1.397267e-001
1.178343e+003;1.379594e-001
1.180271e+003;1.352597e-001
1.182200e+003;1.326220e-001
1.184128e+003;1.308172e-001
1.186057e+003;1.300551e-001
1.187986e+003;1.303106e-001
1.189914e+003;1.314984e-001
1.191843e+003;1.336531e-001
1.193771e+003;1.369902e-001
1.195700e+003;1.415766e-001
1.197628e+003;1.465464e-001
1.199557e+003;1.516912e-001
1.201485e+003;1.574829e-001
1.203414e+003;1.636839e-001
1.205343e+003;1.701673e-001
1.207271e+003;1.772994e-001
1.209200e+003;1.853105e-001
1.211128e+003;1.936878e-001
1.213057e+003;2.027335e-001
1.214985e+003;2.126680e-001
1.216914e+003;2.240739e-001
1.218842e+003;2.368885e-001
1.220771e+003;2.500691e-001
1.222699e+003;2.633847e-001
1.224628e+003;2.768918e-001
1.226557e+003;2.921277e-001
1.228485e+003;3.116996e-001
1.230414e+003;3.372859e-001
1.232342e+003;3.698910e-001
1.234271e+003;4.083412e-001
1.236199e+003;4.510294e-001
1.238128e+003;4.950393e-001
1.240056e+003;5.355730e-001
1.241985e+003;5.683150e-001
1.243913e+003;5.891493e-001
1.245842e+003;5.965966e-001
1.247771e+003;5.939896e-001
1.249699e+003;5.845600e-001
1.251628e+003;5.702807e-001
1.253556e+003;5.547403e-001
1.255485e+003;5.398287e-001
1.257413e+003;5.257102e-001
1.259342e+003;5.125965e-001
1.261270e+003;4.980543e-001
1.263199e+003;4.791789e-001
1.265127e+003;4.563538e-001
1.267056e+003;4.308246e-001
1.268985e+003;4.041967e-001
1.270913e+003;3.787269e-001
1.272842e+003;3.560000e-001
1.274770e+003;3.360318e-001
1.276699e+003;3.180213e-001
1.278627e+003;3.019041e-001
1.280556e+003;2.875055e-001
1.282484e+003;2.742084e-001
1.284413e+003;2.612373e-001
1.286342e+003;2.488143e-001
1.288270e+003;2.364255e-001
1.290199e+003;2.238144e-001
1.292127e+003;2.113013e-001
1.294056e+003;1.988621e-001
1.295984e+003;1.866706e-001
1.297913e+003;1.749795e-001
1.299841e+003;1.640631e-001
1.301770e+003;1.542727e-001
1.303698e+003;1.464008e-001
1.305627e+003;1.400220e-001
1.307556e+003;1.339609e-001
1.309484e+003;1.279809e-001
1.311413e+003;1.225567e-001
1.313341e+003;1.178129e-001
1.315270e+003;1.136571e-001
1.317198e+003;1.102979e-001
1.319127e+003;1.077600e-001
1.321055e+003;1.056239e-001
1.322984e+003;1.041281e-001
1.324912e+003;1.042767e-001
1.326841e+003;1.068911e-001
1.328770e+003;1.130810e-001
1.330698e+003;1.250555e-001
1.332627e+003;1.439060e-001
1.334555e+003;1.674031e-001
1.336484e+003;1.896446e-001
1.338412e+003;2.033313e-001
1.340341e+003;2.033658e-001
1.342269e+003;1.901085e-001
1.344198e+003;1.686523e-001
1.346126e+003;1.462519e-001
1.348055e+003;1.276857e-001
1.349984e+003;1.140294e-001
1.351912e+003;1.047721e-001
1.353841e+003;9.888023e-002
1.355769e+003;9.511096e-002
1.357698e+003;9.312521e-002
1.359626e+003;9.286132e-002
1.361555e+003;9.413321e-002
1.363483e+003;9.649149e-002
1.365412e+003;9.921396e-002
1.367341e+003;1.017985e-001
1.369269e+003;1.037008e-001
1.371198e+003;1.043647e-001
1.373126e+003;1.037929e-001
1.375055e+003;1.029922e-001
1.376983e+003;1.023692e-001
1.378912e+003;1.019249e-001
1.380840e+003;1.022299e-001
1.382769e+003;1.031575e-001
1.384698e+003;1.039753e-001
1.386626e+003;1.047334e-001
1.388555e+003;1.056704e-001
1.390483e+003;1.066372e-001
1.392412e+003;1.081877e-001
1.394340e+003;1.107765e-001
1.396269e+003;1.147059e-001
1.398197e+003;1.204215e-001
1.400126e+003;1.288764e-001
1.402054e+003;1.405297e-001
1.403983e+003;1.554825e-001
1.405911e+003;1.721413e-001
1.407840e+003;1.850391e-001
1.409769e+003;1.862205e-001
1.411697e+003;1.732232e-001
1.413626e+003;1.509296e-001
1.415554e+003;1.276265e-001
1.417483e+003;1.089803e-001
1.419411e+003;9.624089e-002
1.421340e+003;8.875406e-002
1.423268e+003;8.454963e-002
1.425197e+003;8.258306e-002
1.427125e+003;8.241282e-002
1.429054e+003;8.347826e-002
1.430983e+003;8.558264e-002
1.432911e+003;8.821017e-002
1.434840e+003;9.100939e-002
1.436768e+003;9.350163e-002
1.438697e+003;9.574831e-002
1.440625e+003;9.769492e-002
1.442554e+003;9.943128e-002
1.444482e+003;1.008733e-001
1.446411e+003;1.023712e-001
1.448340e+003;1.041210e-001
1.450268e+003;1.058887e-001
1.452197e+003;1.073964e-001
1.454125e+003;1.084107e-001
1.456054e+003;1.085049e-001
1.457982e+003;1.082523e-001
1.459911e+003;1.078291e-001
1.461839e+003;1.073176e-001
1.463768e+003;1.070939e-001
1.465697e+003;1.076382e-001
1.467625e+003;1.099558e-001
1.469554e+003;1.135635e-001
1.471482e+003;1.148371e-001
1.473411e+003;1.120178e-001
1.475339e+003;1.077502e-001
1.477268e+003;1.035117e-001
1.479196e+003;9.944078e-002
1.481125e+003;9.548056e-002
1.483053e+003;9.141653e-002
1.484982e+003;8.724672e-002
1.486911e+003;8.325754e-002
1.488839e+003;7.986785e-002
1.490768e+003;7.737302e-002
1.492696e+003;7.595351e-002
1.494625e+003;7.623728e-002
1.496553e+003;7.874357e-002
1.498482e+003;8.361823e-002
1.500410e+003;9.145215e-002
1.502339e+003;1.017945e-001
1.504267e+003;1.103837e-001
1.506196e+003;1.107195e-001
1.508125e+003;1.019753e-001
1.510053e+003;9.107616e-002
1.511982e+003;8.291447e-002
1.513910e+003;7.798155e-002
1.515839e+003;7.535868e-002
1.517767e+003;7.445774e-002
1.519696e+003;7.436835e-002
1.521624e+003;7.471047e-002
1.523553e+003;7.540633e-002
1.525481e+003;7.566115e-002
1.527410e+003;7.530500e-002
1.529339e+003;7.450132e-002
1.531267e+003;7.348963e-002
1.533196e+003;7.243860e-002
1.535124e+003;7.137144e-002
1.537053e+003;7.051485e-002
1.538981e+003;6.994350e-002
1.540910e+003;6.978324e-002
1.542838e+003;6.963852e-002
1.544767e+003;6.957582e-002
1.546695e+003;7.027966e-002
1.548624e+003;7.104352e-002
1.550553e+003;7.155490e-002
1.552481e+003;7.174763e-002
1.554410e+003;7.205316e-002
1.556338e+003;7.258379e-002
1.558267e+003;7.290263e-002
1.560195e+003;7.354846e-002
1.562124e+003;7.455623e-002
1.564052e+003;7.559317e-002
1.565981e+003;7.713246e-002
1.567910e+003;7.913527e-002
1.569838e+003;8.160488e-002
1.571767e+003;8.482426e-002
1.573695e+003;8.865310e-002
1.575624e+003;9.235019e-002
1.577552e+003;9.508754e-002
1.579481e+003;9.564750e-002
1.581409e+003;9.332188e-002
1.583338e+003;8.903815e-002
1.585266e+003;8.462801e-002
1.587195e+003;8.108374e-002
1.589124e+003;7.852766e-002
1.591052e+003;7.695881e-002
1.592981e+003;7.638046e-002
1.594909e+003;7.625229e-002
1.596838e+003;7.640026e-002
1.598766e+003;7.705985e-002
1.600695e+003;7.829127e-002
1.602623e+003;7.983033e-002
1.604552e+003;8.168162e-002
1.606480e+003;8.387555e-002
1.608409e+003;8.633205e-002
1.610338e+003;8.859516e-002
1.612266e+003;9.071041e-002
1.614195e+003;9.193312e-002
1.616123e+003;9.129974e-002
1.618052e+003;8.951616e-002
1.619980e+003;8.758281e-002
1.621909e+003;8.602349e-002
1.623837e+003;8.529326e-002
1.625766e+003;8.552106e-002
1.627694e+003;8.606490e-002
1.629623e+003;8.680692e-002
1.631552e+003;8.782387e-002
1.633480e+003;8.875085e-002
1.635409e+003;8.964050e-002
1.637337e+003;9.075005e-002
1.639266e+003;9.187371e-002
1.641194e+003;9.313178e-002
1.643123e+003;9.444666e-002
1.645051e+003;9.575253e-002
1.646980e+003;9.724654e-002
1.648909e+003;9.898917e-002
1.650837e+003;1.009098e-001
1.652766e+003;1.029378e-001
1.654694e+003;1.054747e-001
1.656623e+003;1.082987e-001
1.658551e+003;1.112652e-001
1.660480e+003;1.145302e-001
1.662408e+003;1.183584e-001
1.664337e+003;1.228640e-001
1.666266e+003;1.276081e-001
1.668194e+003;1.321955e-001
1.670123e+003;1.366641e-001
1.672051e+003;1.412630e-001
1.673980e+003;1.461184e-001
1.675908e+003;1.514334e-001
1.677837e+003;1.571495e-001
1.679765e+003;1.627271e-001
1.681694e+003;1.677530e-001
1.683622e+003;1.721661e-001
1.685551e+003;1.765228e-001
1.687479e+003;1.819150e-001
1.689408e+003;1.891295e-001
1.691337e+003;1.982370e-001
1.693265e+003;2.094648e-001
1.695194e+003;2.234228e-001
1.697122e+003;2.409967e-001
1.699051e+003;2.631782e-001
1.700979e+003;2.919278e-001
1.702908e+003;3.276625e-001
1.704836e+003;3.718790e-001
1.706765e+003;4.252466e-001
1.708693e+003;4.844365e-001
1.710622e+003;5.405005e-001
1.712551e+003;5.808170e-001
1.714479e+003;5.932278e-001
1.716408e+003;5.761258e-001
1.718336e+003;5.394657e-001
1.720265e+003;4.969555e-001
1.722193e+003;4.543495e-001
1.724122e+003;4.141168e-001
1.726050e+003;3.762119e-001
1.727979e+003;3.400818e-001
1.729908e+003;3.061516e-001
1.731836e+003;2.750851e-001
1.733765e+003;2.455644e-001
1.735693e+003;2.182186e-001
1.737622e+003;1.934258e-001
1.739550e+003;1.701934e-001
1.741479e+003;1.482374e-001
1.743407e+003;1.285073e-001
1.745336e+003;1.117488e-001
1.747265e+003;9.834609e-002
1.749193e+003;8.812907e-002
1.751122e+003;8.048524e-002
1.753050e+003;7.502726e-002
1.754979e+003;7.129639e-002
1.756907e+003;6.884466e-002
1.758836e+003;6.698208e-002
1.760764e+003;6.546911e-002
1.762693e+003;6.436169e-002
1.764621e+003;6.350853e-002
1.766550e+003;6.280570e-002
1.768479e+003;6.231793e-002
1.770407e+003;6.185291e-002
1.772336e+003;6.126593e-002
1.774264e+003;6.085681e-002
1.776193e+003;6.073828e-002
1.778121e+003;6.060188e-002
1.780050e+003;6.019543e-002
1.781978e+003;5.985740e-002
1.783907e+003;5.966546e-002
1.785835e+003;5.973971e-002
1.787764e+003;5.989125e-002
1.789693e+003;5.961594e-002
1.791621e+003;5.923969e-002
1.793550e+003;5.908455e-002
1.795478e+003;5.905881e-002
1.797407e+003;5.907661e-002
1.799335e+003;5.904647e-002
1.801264e+003;5.904738e-002
1.803192e+003;5.913477e-002
1.805121e+003;5.928800e-002
1.807049e+003;5.961270e-002
1.808978e+003;5.973005e-002
1.810907e+003;5.949957e-002
1.812835e+003;5.945591e-002
1.814764e+003;5.949774e-002
1.816692e+003;5.940272e-002
1.818621e+003;5.942331e-002
1.820549e+003;5.929450e-002
1.822478e+003;5.907680e-002
1.824406e+003;5.900339e-002
1.826335e+003;5.878903e-002
1.828264e+003;5.835585e-002
1.830192e+003;5.797320e-002
1.832121e+003;5.750608e-002
1.834049e+003;5.687452e-002
1.835978e+003;5.624900e-002
1.837906e+003;5.573983e-002
1.839835e+003;5.508330e-002
1.841763e+003;5.414797e-002
1.843692e+003;5.311608e-002
1.845620e+003;5.233430e-002
1.847549e+003;5.157832e-002
1.849478e+003;5.060687e-002
1.851406e+003;4.955051e-002
1.853335e+003;4.866473e-002
1.855263e+003;4.787231e-002
1.857192e+003;4.700087e-002
1.859120e+003;4.621067e-002
1.861049e+003;4.564375e-002
1.862977e+003;4.505775e-002
1.864906e+003;4.444424e-002
1.866834e+003;4.399044e-002
1.868763e+003;4.367871e-002
1.870692e+003;4.339861e-002
1.872620e+003;4.297762e-002
1.874549e+003;4.261998e-002
1.876477e+003;4.251600e-002
1.878406e+003;4.214577e-002
1.880334e+003;4.186670e-002
1.882263e+003;4.185959e-002
1.884191e+003;4.178458e-002
1.886120e+003;4.169390e-002
1.888048e+003;4.173624e-002
1.889977e+003;4.170535e-002
1.891906e+003;4.174387e-002
1.893834e+003;4.195384e-002
1.895763e+003;4.215158e-002
1.897691e+003;4.228921e-002
1.899620e+003;4.249079e-002
1.901548e+003;4.292104e-002
1.903477e+003;4.311761e-002
1.905405e+003;4.305796e-002
1.907334e+003;4.310293e-002
1.909262e+003;4.313941e-002
1.911191e+003;4.337302e-002
1.913120e+003;4.370238e-002
1.915048e+003;4.407889e-002
1.916977e+003;4.453605e-002
1.918905e+003;4.490840e-002
1.920834e+003;4.539394e-002
1.922762e+003;4.606457e-002
1.924691e+003;4.688330e-002
1.926619e+003;4.767247e-002
1.928548e+003;4.826660e-002
1.930477e+003;4.885272e-002
1.932405e+003;4.975037e-002
1.934334e+003;5.073197e-002
1.936262e+003;5.161657e-002
1.938191e+003;5.249640e-002
1.940119e+003;5.360605e-002
1.942048e+003;5.459098e-002
1.943976e+003;5.536178e-002
1.945905e+003;5.605070e-002
1.947833e+003;5.664025e-002
1.949762e+003;5.714976e-002
1.951691e+003;5.758135e-002
1.953619e+003;5.807057e-002
1.955548e+003;5.849929e-002
1.957476e+003;5.884127e-002
1.959405e+003;5.875307e-002
1.961333e+003;5.844159e-002
1.963262e+003;5.783293e-002
1.965190e+003;5.678826e-002
1.967119e+003;5.547237e-002
1.969047e+003;5.429344e-002
1.970976e+003;5.321086e-002
1.972905e+003;5.219856e-002
1.974833e+003;5.116335e-002
1.976762e+003;5.046110e-002
1.978690e+003;4.973487e-002
1.980619e+003;4.894684e-002
1.982547e+003;4.847309e-002
1.984476e+003;4.811266e-002
1.986404e+003;4.765458e-002
1.988333e+003;4.716568e-002
1.990261e+003;4.652780e-002
1.992190e+003;4.587392e-002
1.994119e+003;4.528323e-002
1.996047e+003;4.479057e-002
1.997976e+003;4.426248e-002
1.999904e+003;4.369754e-002
2.001833e+003;4.318044e-002
2.003761e+003;4.264991e-002
2.005690e+003;4.205637e-002
2.007618e+003;4.168441e-002
2.009547e+003;4.138475e-002
2.011476e+003;4.102175e-002
2.013404e+003;4.062725e-002
2.015333e+003;4.038893e-002
2.017261e+003;4.017440e-002
2.019190e+003;4.000910e-002
2.021118e+003;3.974632e-002
2.023047e+003;3.936248e-002
2.024975e+003;3.905253e-002
2.026904e+003;3.871537e-002
2.028833e+003;3.836723e-002
2.030761e+003;3.828337e-002
2.032690e+003;3.825952e-002
2.034618e+003;3.814946e-002
2.036547e+003;3.794399e-002
2.038475e+003;3.796862e-002
2.040404e+003;3.831214e-002
2.042332e+003;3.860328e-002
2.044261e+003;3.884069e-002
2.046189e+003;3.901929e-002
2.048118e+003;3.909955e-002
2.050047e+003;3.941966e-002
2.051975e+003;3.978866e-002
2.053904e+003;4.017015e-002
2.055832e+003;4.046370e-002
2.057761e+003;4.086118e-002
2.059689e+003;4.129729e-002
2.061618e+003;4.163230e-002
2.063546e+003;4.209466e-002
2.065475e+003;4.274734e-002
2.067404e+003;4.341510e-002
2.069332e+003;4.372437e-002
2.071260e+003;4.396038e-002
2.073189e+003;4.446120e-002
2.075118e+003;4.475303e-002
2.077046e+003;4.504580e-002
2.078975e+003;4.552687e-002
2.080903e+003;4.609518e-002
2.082832e+003;4.668624e-002
2.084760e+003;4.699286e-002
2.086689e+003;4.714264e-002
2.088617e+003;4.725227e-002
2.090546e+003;4.711564e-002
2.092475e+003;4.715490e-002
2.094403e+003;4.750884e-002
2.096332e+003;4.753804e-002
2.098260e+003;4.741925e-002
2.100189e+003;4.744401e-002
2.102117e+003;4.757113e-002
2.104046e+003;4.761490e-002
2.105974e+003;4.764001e-002
2.107903e+003;4.763923e-002
2.109832e+003;4.740006e-002
2.111760e+003;4.733170e-002
2.113688e+003;4.733170e-002
2.115617e+003;4.711361e-002
2.117546e+003;4.698463e-002
2.119474e+003;4.669432e-002
2.121403e+003;4.631612e-002
2.123331e+003;4.599804e-002
2.125260e+003;4.555362e-002
2.127188e+003;4.506407e-002
2.129117e+003;4.471520e-002
2.131045e+003;4.438695e-002
2.132974e+003;4.383186e-002
2.134903e+003;4.343754e-002
2.136831e+003;4.323366e-002
2.138760e+003;4.290480e-002
2.140688e+003;4.255463e-002
2.142617e+003;4.240836e-002
2.144545e+003;4.207973e-002
2.146474e+003;4.185130e-002
2.148402e+003;4.164878e-002
2.150331e+003;4.110683e-002
2.152260e+003;4.064653e-002
2.154188e+003;4.035562e-002
2.156117e+003;3.994185e-002
2.158045e+003;3.965955e-002
2.159974e+003;3.936937e-002
2.161902e+003;3.877812e-002
2.163831e+003;3.825413e-002
2.165759e+003;3.796757e-002
2.167688e+003;3.763220e-002
2.169616e+003;3.746887e-002
2.171545e+003;3.722304e-002
2.173474e+003;3.686595e-002
2.175402e+003;3.664061e-002
2.177331e+003;3.633115e-002
2.179259e+003;3.601993e-002
2.181188e+003;3.599329e-002
2.183116e+003;3.606940e-002
2.185045e+003;3.586552e-002
2.186973e+003;3.570120e-002
2.188902e+003;3.577236e-002
2.190831e+003;3.596464e-002
2.192759e+003;3.616525e-002
2.194688e+003;3.620000e-002
2.196616e+003;3.603768e-002
2.198545e+003;3.596543e-002
2.200473e+003;3.627729e-002
2.202402e+003;3.655215e-002
2.204330e+003;3.668823e-002
2.206259e+003;3.691987e-002
2.208188e+003;3.712229e-002
2.210116e+003;3.745417e-002
2.212044e+003;3.781847e-002
2.213973e+003;3.804207e-002
2.215902e+003;3.808308e-002
2.217830e+003;3.805259e-002
2.219759e+003;3.836038e-002
2.221687e+003;3.871766e-002
2.223616e+003;3.883283e-002
2.225544e+003;3.894792e-002
2.227473e+003;3.908465e-002
2.229401e+003;3.900917e-002
2.231330e+003;3.873675e-002
2.233259e+003;3.876000e-002
2.235187e+003;3.908740e-002
2.237116e+003;3.926331e-002
2.239044e+003;3.934587e-002
2.240973e+003;3.954053e-002
2.242901e+003;3.961316e-002
2.244830e+003;3.969208e-002
2.246758e+003;4.005023e-002
2.248687e+003;4.015191e-002
2.250615e+003;4.025946e-002
2.252544e+003;4.058897e-002
2.254473e+003;4.089198e-002
2.256401e+003;4.096811e-002
2.258330e+003;4.101093e-002
2.260258e+003;4.099670e-002
2.262187e+003;4.089143e-002
2.264115e+003;4.083566e-002
2.266044e+003;4.074773e-002
2.267972e+003;4.065461e-002
2.269901e+003;4.063718e-002
2.271830e+003;4.064537e-002
2.273758e+003;4.081623e-002
2.275687e+003;4.108993e-002
2.277615e+003;4.116325e-002
2.279544e+003;4.143647e-002
2.281472e+003;4.180402e-002
2.283401e+003;4.176955e-002
2.285329e+003;4.168656e-002
2.287258e+003;4.158996e-002
2.289187e+003;4.137171e-002
2.291115e+003;4.092435e-002
2.293043e+003;4.024892e-002
2.294972e+003;3.957461e-002
2.296901e+003;3.905467e-002
2.298829e+003;3.866608e-002
2.300758e+003;3.809271e-002
2.302686e+003;3.732586e-002
2.304615e+003;3.673024e-002
2.306543e+003;3.631047e-002
2.308472e+003;3.601079e-002
2.310400e+003;3.586350e-002
2.312329e+003;3.572858e-002
2.314258e+003;3.565998e-002
2.316186e+003;3.580964e-002
2.318115e+003;3.592739e-002
2.320043e+003;3.623040e-002
2.321972e+003;3.644025e-002
2.323900e+003;3.662060e-002
2.325829e+003;3.687107e-002
2.327757e+003;3.698979e-002
2.329686e+003;3.713771e-002
2.331615e+003;3.721239e-002
2.333543e+003;3.714727e-002
2.335472e+003;3.726809e-002
2.337400e+003;3.753833e-002
2.339329e+003;3.748765e-002
2.341257e+003;3.740975e-002
2.343186e+003;3.758624e-002
2.345114e+003;3.759462e-002
2.347043e+003;3.770418e-002
2.348971e+003;3.816929e-002
2.350900e+003;3.858872e-002
2.352829e+003;3.875957e-002
2.354757e+003;3.906866e-002
2.356686e+003;3.950468e-002
2.358614e+003;3.989144e-002
2.360543e+003;4.048068e-002
2.362471e+003;4.107667e-002
2.364400e+003;4.154446e-002
2.366328e+003;4.182996e-002
2.368257e+003;4.178421e-002
2.370186e+003;4.203947e-002
2.372114e+003;4.212547e-002
2.374042e+003;4.197932e-002
2.375971e+003;4.214263e-002
2.377900e+003;4.249652e-002
2.379828e+003;4.253716e-002
2.381757e+003;4.243693e-002
2.383685e+003;4.230378e-002
2.385614e+003;4.233665e-002
2.387542e+003;4.246338e-002
2.389471e+003;4.253212e-002
2.391399e+003;4.245535e-002
2.393328e+003;4.227365e-002
2.395257e+003;4.236558e-002
2.397185e+003;4.238528e-002
2.399114e+003;4.204001e-002
2.401042e+003;4.163788e-002
2.402971e+003;4.147537e-002
2.404899e+003;4.135082e-002
2.406828e+003;4.107860e-002
2.408756e+003;4.076800e-002
2.410685e+003;4.037006e-002
2.412614e+003;3.995617e-002
2.414542e+003;3.955788e-002
2.416471e+003;3.921166e-002
2.418399e+003;3.930894e-002
2.420328e+003;3.924917e-002
2.422256e+003;3.873704e-002
2.424185e+003;3.824668e-002
2.426113e+003;3.791434e-002
2.428042e+003;3.749437e-002
2.429970e+003;3.708985e-002
2.431899e+003;3.692027e-002
2.433828e+003;3.682551e-002
2.435756e+003;3.663505e-002
2.437685e+003;3.627088e-002
2.439613e+003;3.578963e-002
2.441542e+003;3.542883e-002
2.443470e+003;3.516313e-002
2.445399e+003;3.495357e-002
2.447327e+003;3.484833e-002
2.449256e+003;3.476203e-002
2.451185e+003;3.470155e-002
2.453113e+003;3.466013e-002
2.455042e+003;3.469839e-002
2.456970e+003;3.467822e-002
2.458899e+003;3.441362e-002
2.460827e+003;3.410772e-002
2.462756e+003;3.400448e-002
2.464684e+003;3.413786e-002
2.466613e+003;3.432132e-002
2.468542e+003;3.430425e-002
2.470470e+003;3.424061e-002
2.472398e+003;3.436654e-002
2.474327e+003;3.483469e-002
2.476256e+003;3.525141e-002
2.478184e+003;3.522622e-002
2.480113e+003;3.533138e-002
2.482041e+003;3.552831e-002
2.483970e+003;3.580928e-002
2.485898e+003;3.612589e-002
2.487827e+003;3.627196e-002
2.489755e+003;3.632084e-002
2.491684e+003;3.639791e-002
2.493613e+003;3.645913e-002
2.495541e+003;3.655593e-002
2.497470e+003;3.683197e-002
2.499398e+003;3.714471e-002
2.501327e+003;3.735644e-002
2.503255e+003;3.737789e-002
2.505184e+003;3.748776e-002
2.507112e+003;3.782118e-002
2.509041e+003;3.793083e-002
2.510969e+003;3.782411e-002
2.512898e+003;3.786351e-002
2.514827e+003;3.818387e-002
2.516755e+003;3.847561e-002
2.518684e+003;3.868078e-002
2.520612e+003;3.903661e-002
2.522541e+003;3.940812e-002
2.524469e+003;3.951063e-002
2.526398e+003;3.954757e-002
2.528326e+003;3.968783e-002
2.530255e+003;4.005757e-002
2.532184e+003;4.015572e-002
2.534112e+003;3.997727e-002
2.536041e+003;4.013977e-002
2.537969e+003;4.003188e-002
2.539898e+003;3.990023e-002
2.541826e+003;4.005699e-002
2.543755e+003;4.025168e-002
2.545683e+003;4.043359e-002
2.547612e+003;4.020672e-002
2.549541e+003;3.980344e-002
2.551469e+003;3.969625e-002
2.553397e+003;3.967298e-002
2.555326e+003;3.980776e-002
2.557255e+003;3.989525e-002
2.559183e+003;3.983111e-002
2.561112e+003;3.981539e-002
2.563040e+003;3.987709e-002
2.564969e+003;3.999115e-002
2.566897e+003;4.001604e-002
2.568826e+003;3.999602e-002
2.570754e+003;4.001753e-002
2.572683e+003;4.000554e-002
2.574612e+003;3.994160e-002
2.576540e+003;3.993510e-002
2.578469e+003;3.985032e-002
2.580397e+003;3.980504e-002
2.582326e+003;3.976586e-002
2.584254e+003;3.971735e-002
2.586183e+003;3.965813e-002
2.588111e+003;3.948468e-002
2.590040e+003;3.911652e-002
2.591969e+003;3.902896e-002
2.593897e+003;3.869614e-002
2.595826e+003;3.798713e-002
2.597754e+003;3.771972e-002
2.599683e+003;3.763350e-002
2.601611e+003;3.745399e-002
2.603540e+003;3.703720e-002
2.605468e+003;3.659781e-002
2.607397e+003;3.657161e-002
2.609325e+003;3.666404e-002
2.611254e+003;3.647711e-002
2.613183e+003;3.625125e-002
2.615111e+003;3.610331e-002
2.617040e+003;3.597238e-002
2.618968e+003;3.598332e-002
2.620897e+003;3.600888e-002
2.622825e+003;3.605283e-002
2.624754e+003;3.615228e-002
2.626682e+003;3.609568e-002
2.628611e+003;3.604603e-002
2.630540e+003;3.627088e-002
2.632468e+003;3.634404e-002
2.634396e+003;3.586235e-002
2.636325e+003;3.527883e-002
2.638254e+003;3.466232e-002
2.640182e+003;3.415823e-002
2.642111e+003;3.377163e-002
2.644039e+003;3.351904e-002
2.645968e+003;3.327968e-002
2.647896e+003;3.292025e-002
2.649825e+003;3.274857e-002
2.651753e+003;3.277915e-002
2.653682e+003;3.264811e-002
2.655611e+003;3.238896e-002
2.657539e+003;3.236097e-002
2.659468e+003;3.238539e-002
2.661396e+003;3.214891e-002
2.663325e+003;3.210106e-002
2.665253e+003;3.218313e-002
2.667182e+003;3.231885e-002
2.669110e+003;3.249657e-002
2.671039e+003;3.242248e-002
2.672968e+003;3.228844e-002
2.674896e+003;3.243198e-002
2.676825e+003;3.259449e-002
2.678753e+003;3.265265e-002
2.680682e+003;3.249829e-002
2.682610e+003;3.263468e-002
2.684539e+003;3.268833e-002
2.686467e+003;3.239260e-002
2.688396e+003;3.214142e-002
2.690324e+003;3.217610e-002
2.692253e+003;3.245940e-002
2.694182e+003;3.283894e-002
2.696110e+003;3.318221e-002
2.698039e+003;3.320714e-002
2.699967e+003;3.306617e-002
2.701896e+003;3.306764e-002
2.703824e+003;3.318282e-002
2.705753e+003;3.338394e-002
2.707681e+003;3.354055e-002
2.709610e+003;3.344499e-002
2.711539e+003;3.318722e-002
2.713467e+003;3.335181e-002
2.715396e+003;3.363463e-002
2.717324e+003;3.373904e-002
2.719253e+003;3.399752e-002
2.721181e+003;3.408672e-002
2.723110e+003;3.413865e-002
2.725038e+003;3.428811e-002
2.726967e+003;3.431895e-002
2.728896e+003;3.476616e-002
2.730824e+003;3.536700e-002
2.732752e+003;3.574656e-002
2.734681e+003;3.581363e-002
2.736610e+003;3.566178e-002
2.738538e+003;3.589665e-002
2.740467e+003;3.643841e-002
2.742395e+003;3.663134e-002
2.744324e+003;3.649837e-002
2.746252e+003;3.673911e-002
2.748181e+003;3.669717e-002
2.750109e+003;3.620295e-002
2.752038e+003;3.602886e-002
2.753967e+003;3.630589e-002
2.755895e+003;3.644507e-002
2.757824e+003;3.630377e-002
2.759752e+003;3.612672e-002
2.761681e+003;3.615963e-002
2.763609e+003;3.641434e-002
2.765538e+003;3.665052e-002
2.767466e+003;3.671798e-002
2.769395e+003;3.681801e-002
2.771323e+003;3.693723e-002
2.773252e+003;3.703915e-002
2.775181e+003;3.710375e-002
2.777109e+003;3.735276e-002
2.779038e+003;3.762089e-002
2.780966e+003;3.812096e-002
2.782895e+003;3.846815e-002
2.784823e+003;3.855598e-002
2.786752e+003;3.907675e-002
2.788680e+003;3.944792e-002
2.790609e+003;3.960521e-002
2.792538e+003;4.001946e-002
2.794466e+003;4.054983e-002
2.796395e+003;4.122030e-002
2.798323e+003;4.173799e-002
2.800252e+003;4.194428e-002
2.802180e+003;4.225788e-002
2.804109e+003;4.246433e-002
2.806037e+003;4.251929e-002
2.807966e+003;4.250519e-002
2.809895e+003;4.222979e-002
2.811823e+003;4.185641e-002
2.813751e+003;4.171297e-002
2.815680e+003;4.161253e-002
2.817609e+003;4.167402e-002
2.819537e+003;4.128424e-002
2.821466e+003;4.073983e-002
2.823394e+003;4.072750e-002
2.825323e+003;4.105853e-002
2.827251e+003;4.145565e-002
2.829180e+003;4.176065e-002
2.831108e+003;4.231978e-002
2.833037e+003;4.298648e-002
2.834966e+003;4.337914e-002
2.836894e+003;4.378241e-002
2.838823e+003;4.455701e-002
2.840751e+003;4.515013e-002
2.842680e+003;4.570385e-002
2.844608e+003;4.668137e-002
2.846537e+003;4.758225e-002
2.848465e+003;4.828930e-002
2.850394e+003;4.900967e-002
2.852323e+003;4.975078e-002
2.854251e+003;5.064942e-002
2.856180e+003;5.125994e-002
2.858108e+003;5.183403e-002
2.860037e+003;5.268590e-002
2.861965e+003;5.343886e-002
2.863894e+003;5.364620e-002
2.865822e+003;5.387720e-002
2.867751e+003;5.426351e-002
2.869679e+003;5.480771e-002
2.871608e+003;5.528617e-002
2.873536e+003;5.540996e-002
2.875465e+003;5.559516e-002
2.877394e+003;5.622177e-002
2.879322e+003;5.681552e-002
2.881251e+003;5.713464e-002
2.883179e+003;5.751602e-002
2.885108e+003;5.800812e-002
2.887036e+003;5.835423e-002
2.888965e+003;5.855851e-002
2.890893e+003;5.884662e-002
2.892822e+003;5.941597e-002
2.894750e+003;6.001453e-002
2.896679e+003;6.051335e-002
2.898608e+003;6.127398e-002
2.900536e+003;6.269639e-002
2.902465e+003;6.418201e-002
2.904393e+003;6.542962e-002
2.906322e+003;6.651080e-002
2.908250e+003;6.717360e-002
2.910179e+003;6.691184e-002
2.912107e+003;6.611226e-002
2.914036e+003;6.501825e-002
2.915965e+003;6.369780e-002
2.917893e+003;6.248257e-002
2.919822e+003;6.134748e-002
2.921750e+003;6.028149e-002
2.923679e+003;5.913269e-002
2.925607e+003;5.815500e-002
2.927536e+003;5.770766e-002
2.929464e+003;5.762146e-002
2.931393e+003;5.785709e-002
2.933322e+003;5.819534e-002
2.935250e+003;5.838856e-002
2.937178e+003;5.903410e-002
2.939107e+003;6.036735e-002
2.941036e+003;6.170069e-002
2.942964e+003;6.270087e-002
2.944893e+003;6.422226e-002
2.946821e+003;6.605964e-002
2.948750e+003;6.742170e-002
2.950678e+003;6.853724e-002
2.952607e+003;6.994307e-002
2.954535e+003;7.135750e-002
2.956464e+003;7.256138e-002
2.958393e+003;7.390231e-002
2.960321e+003;7.519668e-002
2.962250e+003;7.618954e-002
2.964178e+003;7.673635e-002
2.966107e+003;7.737540e-002
2.968035e+003;7.819743e-002
2.969964e+003;7.836381e-002
2.971892e+003;7.784031e-002
2.973821e+003;7.687487e-002
2.975750e+003;7.584415e-002
2.977678e+003;7.480229e-002
2.979607e+003;7.367361e-002
2.981535e+003;7.279280e-002
2.983464e+003;7.186194e-002
2.985392e+003;7.071266e-002
2.987321e+003;6.967298e-002
2.989249e+003;6.862776e-002
2.991178e+003;6.769922e-002
2.993106e+003;6.683145e-002
2.995035e+003;6.614000e-002
2.996964e+003;6.559553e-002
2.998892e+003;6.488696e-002
3.000821e+003;6.458886e-002
3.002749e+003;6.447622e-002
3.004678e+003;6.372792e-002
3.006606e+003;6.300733e-002
3.008535e+003;6.261678e-002
3.010463e+003;6.202896e-002
3.012392e+003;6.110431e-002
3.014321e+003;6.034983e-002
3.016249e+003;5.994332e-002
3.018177e+003;5.914040e-002
3.020106e+003;5.794757e-002
3.022035e+003;5.654540e-002
3.023963e+003;5.512370e-002
3.025892e+003;5.358116e-002
3.027820e+003;5.226516e-002
3.029749e+003;5.118251e-002
3.031677e+003;5.035345e-002
3.033606e+003;4.955820e-002
3.035534e+003;4.913858e-002
3.037463e+003;4.862860e-002
3.039392e+003;4.844479e-002
3.041320e+003;4.898760e-002
3.043249e+003;4.993904e-002
3.045177e+003;5.108548e-002
3.047106e+003;5.250144e-002
3.049034e+003;5.409050e-002
3.050963e+003;5.552794e-002
3.052891e+003;5.666853e-002
3.054820e+003;5.743017e-002
3.056749e+003;5.750487e-002
3.058677e+003;5.709277e-002
3.060606e+003;5.686326e-002
3.062534e+003;5.661640e-002
3.064463e+003;5.648909e-002
3.066391e+003;5.632138e-002
3.068320e+003;5.665577e-002
3.070248e+003;5.698954e-002
3.072177e+003;5.669767e-002
3.074105e+003;5.654751e-002
3.076034e+003;5.634790e-002
3.077963e+003;5.609526e-002
3.079891e+003;5.587261e-002
3.081820e+003;5.557181e-002
3.083748e+003;5.525211e-002
3.085677e+003;5.501052e-002
3.087605e+003;5.457354e-002
3.089534e+003;5.385451e-002
3.091462e+003;5.295543e-002
3.093391e+003;5.217667e-002
3.095320e+003;5.214644e-002
3.097248e+003;5.263316e-002
3.099177e+003;5.294753e-002
3.101105e+003;5.335230e-002
3.103034e+003;5.394315e-002
3.104962e+003;5.432246e-002
3.106891e+003;5.422398e-002
3.108819e+003;5.387781e-002
3.110748e+003;5.303131e-002
3.112677e+003;5.194717e-002
3.114605e+003;5.105574e-002
3.116533e+003;5.034467e-002
3.118462e+003;4.951791e-002
3.120391e+003;4.882428e-002
3.122319e+003;4.829511e-002
3.124248e+003;4.795156e-002
3.126176e+003;4.778727e-002
3.128105e+003;4.764640e-002
3.130033e+003;4.726989e-002
3.131962e+003;4.675712e-002
3.133890e+003;4.627108e-002
3.135819e+003;4.589259e-002
3.137748e+003;4.541818e-002
3.139676e+003;4.474572e-002
3.141605e+003;4.411902e-002
3.143533e+003;4.367076e-002
3.145462e+003;4.323611e-002
3.147390e+003;4.274544e-002
3.149319e+003;4.222051e-002
3.151247e+003;4.196953e-002
3.153176e+003;4.185915e-002
3.155104e+003;4.169929e-002
3.157033e+003;4.126504e-002
3.158962e+003;4.083199e-002
3.160890e+003;4.057773e-002
3.162819e+003;4.036697e-002
3.164747e+003;4.037100e-002
3.166676e+003;4.004278e-002
3.168604e+003;3.986638e-002
3.170533e+003;3.998207e-002
3.172461e+003;4.022394e-002
3.174390e+003;3.996827e-002
3.176319e+003;3.961105e-002
3.178247e+003;3.964067e-002
3.180176e+003;3.958746e-002
3.182104e+003;3.934619e-002
3.184033e+003;3.917620e-002
3.185961e+003;3.933274e-002
3.187890e+003;3.949466e-002
3.189818e+003;3.931554e-002
3.191747e+003;3.919426e-002
3.193676e+003;3.928536e-002
3.195604e+003;3.913051e-002
3.197532e+003;3.898478e-002
3.199461e+003;3.891599e-002
3.201390e+003;3.892041e-002
3.203318e+003;3.872961e-002
3.205247e+003;3.867032e-002
3.207175e+003;3.874928e-002
3.209104e+003;3.871030e-002
3.211032e+003;3.863895e-002
3.212961e+003;3.844548e-002
3.214889e+003;3.834536e-002
3.216818e+003;3.843937e-002
3.218747e+003;3.861650e-002
3.220675e+003;3.861019e-002
3.222604e+003;3.853882e-002
3.224532e+003;3.827335e-002
3.226461e+003;3.828844e-002
3.228389e+003;3.839115e-002
3.230318e+003;3.844523e-002
3.232246e+003;3.838341e-002
3.234175e+003;3.809086e-002
3.236104e+003;3.806095e-002
3.238032e+003;3.812768e-002
3.239961e+003;3.829654e-002
3.241889e+003;3.808941e-002
3.243818e+003;3.766309e-002
3.245746e+003;3.727246e-002
3.247675e+003;3.742307e-002
3.249603e+003;3.784898e-002
3.251532e+003;3.773595e-002
3.253460e+003;3.718362e-002
3.255389e+003;3.707224e-002
3.257318e+003;3.720755e-002
3.259246e+003;3.721524e-002
3.261175e+003;3.717503e-002
3.263103e+003;3.706026e-002
3.265032e+003;3.705373e-002
3.266960e+003;3.700696e-002
3.268889e+003;3.701454e-002
3.270817e+003;3.676961e-002
3.272746e+003;3.666224e-002
3.274675e+003;3.653247e-002
3.276603e+003;3.635629e-002
3.278531e+003;3.664183e-002
3.280460e+003;3.728647e-002
3.282389e+003;3.758201e-002
3.284317e+003;3.733333e-002
3.286246e+003;3.713648e-002
3.288174e+003;3.723600e-002
3.290103e+003;3.770555e-002
3.292031e+003;3.780831e-002
3.293960e+003;3.773917e-002
3.295888e+003;3.764126e-002
3.297817e+003;3.747400e-002
3.299746e+003;3.775666e-002
3.301674e+003;3.777813e-002
3.303603e+003;3.746786e-002
3.305531e+003;3.742004e-002
3.307460e+003;3.732236e-002
3.309388e+003;3.706311e-002
3.311317e+003;3.698243e-002
3.313245e+003;3.677903e-002
3.315174e+003;3.681589e-002
3.317103e+003;3.682530e-002
3.319031e+003;3.658422e-002
3.320960e+003;3.648446e-002
3.322888e+003;3.672558e-002
3.324817e+003;3.706665e-002
3.326745e+003;3.726621e-002
3.328674e+003;3.741271e-002
3.330602e+003;3.777900e-002
3.332531e+003;3.760011e-002
3.334459e+003;3.743510e-002
3.336388e+003;3.779927e-002
3.338317e+003;3.773605e-002
3.340245e+003;3.766305e-002
3.342174e+003;3.768336e-002
3.344102e+003;3.762746e-002
3.346031e+003;3.745586e-002
3.347959e+003;3.695346e-002
3.349888e+003;3.622146e-002
3.351816e+003;3.591950e-002
3.353745e+003;3.567372e-002
3.355674e+003;3.555582e-002
3.357602e+003;3.546233e-002
3.359531e+003;3.485142e-002
3.361459e+003;3.439720e-002
3.363388e+003;3.438759e-002
3.365316e+003;3.426961e-002
3.367245e+003;3.407464e-002
3.369173e+003;3.363889e-002
3.371102e+003;3.365933e-002
3.373031e+003;3.387801e-002
3.374959e+003;3.364078e-002
3.376887e+003;3.375290e-002
3.378816e+003;3.386966e-002
3.380745e+003;3.386994e-002
3.382673e+003;3.417644e-002
3.384602e+003;3.450248e-002
3.386530e+003;3.450233e-002
3.388459e+003;3.460552e-002
3.390387e+003;3.487332e-002
3.392316e+003;3.493838e-002
3.394244e+003;3.517840e-002
3.396173e+003;3.552731e-002
3.398102e+003;3.580352e-002
3.400030e+003;3.627740e-002
3.401959e+003;3.700224e-002
3.403887e+003;3.764723e-002
3.405816e+003;3.847897e-002
3.407744e+003;3.932896e-002
3.409673e+003;4.020108e-002
3.411601e+003;4.120536e-002
3.413530e+003;4.252174e-002
3.415458e+003;4.369348e-002
3.417387e+003;4.473063e-002
3.419316e+003;4.595163e-002
3.421244e+003;4.728637e-002
3.423173e+003;4.878009e-002
3.425101e+003;5.005080e-002
3.427030e+003;5.095793e-002
3.428958e+003;5.137841e-002
3.430887e+003;5.146920e-002
3.432815e+003;5.138076e-002
3.434744e+003;5.105228e-002
3.436673e+003;5.036803e-002
3.438601e+003;4.946532e-002
3.440530e+003;4.827879e-002
3.442458e+003;4.712336e-002
3.444387e+003;4.591336e-002
3.446315e+003;4.507480e-002
3.448244e+003;4.467319e-002
3.450172e+003;4.372411e-002
3.452101e+003;4.213895e-002
3.454030e+003;4.109954e-002
3.455958e+003;4.035184e-002
3.457886e+003;3.996078e-002
3.459815e+003;3.954852e-002
3.461744e+003;3.852861e-002
3.463672e+003;3.753226e-002
3.465601e+003;3.652576e-002
3.467529e+003;3.559315e-002
3.469458e+003;3.498852e-002
3.471386e+003;3.484664e-002
3.473315e+003;3.458090e-002
3.475243e+003;3.443787e-002
3.477172e+003;3.413399e-002
3.479101e+003;3.372593e-002
3.481029e+003;3.360112e-002
3.482958e+003;3.339954e-002
3.484886e+003;3.326219e-002
3.486815e+003;3.314173e-002
3.488743e+003;3.266686e-002
3.490672e+003;3.238946e-002
3.492600e+003;3.231746e-002
3.494529e+003;3.222128e-002
3.496458e+003;3.230714e-002
3.498386e+003;3.274164e-002
3.500315e+003;3.317538e-002
3.502243e+003;3.325937e-002
3.504172e+003;3.328172e-002
3.506100e+003;3.355683e-002
3.508029e+003;3.361522e-002
3.509957e+003;3.338952e-002
3.511886e+003;3.355966e-002
3.513814e+003;3.381059e-002
3.515743e+003;3.413281e-002
3.517672e+003;3.410797e-002
3.519600e+003;3.408518e-002
3.521529e+003;3.438031e-002
3.523457e+003;3.449290e-002
3.525386e+003;3.471041e-002
3.527314e+003;3.491788e-002
3.529243e+003;3.477987e-002
3.531171e+003;3.472506e-002
3.533100e+003;3.482011e-002
3.535029e+003;3.515612e-002
3.536957e+003;3.537872e-002
3.538885e+003;3.541308e-002
3.540814e+003;3.542085e-002
3.542743e+003;3.539396e-002
3.544671e+003;3.548153e-002
3.546600e+003;3.532343e-002
3.548528e+003;3.483031e-002
3.550457e+003;3.473267e-002
3.552385e+003;3.478831e-002
3.554314e+003;3.469972e-002
3.556242e+003;3.508582e-002
3.558171e+003;3.500916e-002
3.560100e+003;3.438619e-002
3.562028e+003;3.408500e-002
3.563957e+003;3.375902e-002
3.565885e+003;3.338247e-002
3.567814e+003;3.284144e-002
3.569742e+003;3.250543e-002
3.571671e+003;3.253660e-002
3.573599e+003;3.266418e-002
3.575528e+003;3.227199e-002
3.577457e+003;3.200600e-002
3.579385e+003;3.172638e-002
3.581314e+003;3.089995e-002
3.583242e+003;3.041580e-002
3.585171e+003;3.018689e-002
3.587099e+003;2.964514e-002
3.589028e+003;2.917397e-002
3.590956e+003;2.883257e-002
3.592885e+003;2.840533e-002
3.594813e+003;2.852834e-002
3.596742e+003;2.874844e-002
3.598671e+003;2.871085e-002
3.600599e+003;2.879712e-002
3.602528e+003;2.893399e-002
3.604456e+003;2.859380e-002
3.606385e+003;2.818154e-002
3.608313e+003;2.799458e-002
3.610242e+003;2.845121e-002
3.612170e+003;2.871064e-002
3.614099e+003;2.877861e-002
3.616028e+003;2.894019e-002
3.617956e+003;2.889092e-002
3.619885e+003;2.832040e-002
3.621813e+003;2.783858e-002
3.623742e+003;2.817956e-002
3.625670e+003;2.865899e-002
3.627599e+003;2.858602e-002
3.629527e+003;2.828723e-002
3.631456e+003;2.817189e-002
3.633385e+003;2.865191e-002
3.635313e+003;2.902470e-002
3.637241e+003;2.896916e-002
3.639170e+003;2.869513e-002
3.641099e+003;2.824886e-002
3.643027e+003;2.806895e-002
3.644956e+003;2.832680e-002
3.646884e+003;2.797444e-002
3.648813e+003;2.754886e-002
3.650741e+003;2.738437e-002
3.652670e+003;2.729301e-002
3.654598e+003;2.689368e-002
3.656527e+003;2.619051e-002
3.658456e+003;2.614406e-002
3.660384e+003;2.662001e-002
3.662313e+003;2.639373e-002
3.664241e+003;2.584023e-002
3.666170e+003;2.560454e-002
3.668098e+003;2.540331e-002
3.670027e+003;2.534823e-002
3.671955e+003;2.534471e-002
3.673884e+003;2.536164e-002
3.675813e+003;2.568313e-002
3.677741e+003;2.620423e-002
3.679669e+003;2.625868e-002
3.681598e+003;2.656069e-002
3.683527e+003;2.701207e-002
3.685455e+003;2.739894e-002
3.687384e+003;2.734972e-002
3.689312e+003;2.704987e-002
3.691241e+003;2.672025e-002
3.693169e+003;2.639500e-002
3.695098e+003;2.576178e-002
3.697026e+003;2.555587e-002
3.698955e+003;2.545674e-002
3.700884e+003;2.482563e-002
3.702812e+003;2.454761e-002
3.704741e+003;2.459182e-002
3.706669e+003;2.438293e-002
3.708598e+003;2.405480e-002
3.710526e+003;2.382946e-002
3.712455e+003;2.341379e-002
3.714383e+003;2.340148e-002
3.716312e+003;2.376758e-002
3.718240e+003;2.395647e-002
3.720169e+003;2.378725e-002
3.722098e+003;2.338130e-002
3.724026e+003;2.348919e-002
3.725955e+003;2.375659e-002
3.727883e+003;2.386660e-002
3.729812e+003;2.421683e-002
3.731740e+003;2.437280e-002
3.733669e+003;2.418663e-002
3.735597e+003;2.401428e-002
3.737526e+003;2.378046e-002
3.739455e+003;2.374021e-002
3.741383e+003;2.390787e-002
3.743312e+003;2.379712e-002
3.745240e+003;2.389898e-002
3.747169e+003;2.406253e-002
3.749097e+003;2.400731e-002
3.751026e+003;2.406520e-002
3.752954e+003;2.446586e-002
3.754883e+003;2.483748e-002
3.756812e+003;2.529705e-002
3.758740e+003;2.557889e-002
3.760668e+003;2.563354e-002
3.762597e+003;2.582932e-002
3.764526e+003;2.542800e-002
3.766454e+003;2.474961e-002
3.768383e+003;2.466448e-002
3.770311e+003;2.475971e-002
3.772240e+003;2.473396e-002
3.774168e+003;2.452051e-002
3.776097e+003;2.423249e-002
3.778025e+003;2.403350e-002
3.779954e+003;2.411013e-002
3.781883e+003;2.413500e-002
3.783811e+003;2.400850e-002
3.785740e+003;2.407921e-002
3.787668e+003;2.415598e-002
3.789597e+003;2.413805e-002
3.791525e+003;2.427128e-002
3.793454e+003;2.454512e-002
3.795382e+003;2.432440e-002
3.797311e+003;2.411297e-002
3.799240e+003;2.442292e-002
3.801168e+003;2.507911e-002
3.803097e+003;2.524110e-002
3.805025e+003;2.506306e-002
3.806954e+003;2.486857e-002
3.808882e+003;2.494468e-002
3.810811e+003;2.545221e-002
3.812739e+003;2.550084e-002
3.814668e+003;2.517442e-002
3.816596e+003;2.459154e-002
3.818525e+003;2.421729e-002
3.820454e+003;2.442067e-002
3.822382e+003;2.459217e-002
3.824311e+003;2.420163e-002
3.826239e+003;2.405325e-002
3.828168e+003;2.477764e-002
3.830096e+003;2.489720e-002
3.832025e+003;2.466452e-002
3.833953e+003;2.491047e-002
3.835882e+003;2.480416e-002
3.837811e+003;2.462566e-002
3.839739e+003;2.480002e-002
3.841667e+003;2.472832e-002
3.843596e+003;2.427846e-002
3.845525e+003;2.419802e-002
3.847453e+003;2.434490e-002
3.849382e+003;2.391463e-002
3.851310e+003;2.371368e-002
3.853239e+003;2.386506e-002
3.855167e+003;2.415920e-002
3.857096e+003;2.478946e-002
3.859024e+003;2.492605e-002
3.860953e+003;2.477132e-002
3.862882e+003;2.487341e-002
3.864810e+003;2.487032e-002
3.866739e+003;2.498848e-002
3.868667e+003;2.483415e-002
3.870596e+003;2.451995e-002
3.872524e+003;2.490089e-002
3.874453e+003;2.510017e-002
3.876381e+003;2.492250e-002
3.878310e+003;2.480444e-002
3.880239e+003;2.494514e-002
3.882167e+003;2.536298e-002
3.884096e+003;2.555847e-002
3.886024e+003;2.557537e-002
3.887953e+003;2.567790e-002
3.889881e+003;2.552979e-002
3.891810e+003;2.550488e-002
3.893738e+003;2.568704e-002
3.895667e+003;2.526298e-002
3.897595e+003;2.515701e-002
3.899524e+003;2.548387e-002
3.901453e+003;2.581329e-002
3.903381e+003;2.589625e-002
3.905310e+003;2.563044e-002
3.907238e+003;2.589635e-002
3.909167e+003;2.683200e-002
3.911095e+003;2.669326e-002
3.913024e+003;2.604005e-002
3.914952e+003;2.615296e-002
3.916881e+003;2.659902e-002
3.918810e+003;2.731827e-002
3.920738e+003;2.712319e-002
3.922667e+003;2.636169e-002
3.924595e+003;2.639183e-002
3.926524e+003;2.665901e-002
3.928452e+003;2.667008e-002
3.930381e+003;2.703552e-002
3.932309e+003;2.745114e-002
3.934238e+003;2.728461e-002
3.936167e+003;2.675538e-002
3.938095e+003;2.682805e-002
3.940023e+003;2.724058e-002
3.941952e+003;2.734400e-002
3.943881e+003;2.709596e-002
3.945809e+003;2.701310e-002
3.947738e+003;2.736637e-002
3.949666e+003;2.737745e-002
3.951595e+003;2.739390e-002
3.953523e+003;2.731898e-002
3.955452e+003;2.693637e-002
3.957380e+003;2.708570e-002
3.959309e+003;2.761227e-002
3.961238e+003;2.783986e-002
3.963166e+003;2.786070e-002
3.965095e+003;2.811847e-002
3.967023e+003;2.841894e-002
3.968952e+003;2.811136e-002
3.970880e+003;2.785236e-002
3.972809e+003;2.768850e-002
3.974737e+003;2.759542e-002
3.976666e+003;2.776076e-002
3.978594e+003;2.808072e-002
3.980523e+003;2.813021e-002
3.982452e+003;2.820226e-002
3.984380e+003;2.830916e-002
3.986309e+003;2.798289e-002
3.988237e+003;2.786077e-002
3.990166e+003;2.799335e-002
3.992094e+003;2.797338e-002
3.994023e+003;2.801314e-002
3.995951e+003;2.774247e-002
3.997880e+003;2.770779e-002
3.999809e+003;2.794423e-002
4.001737e+003;0.000000e+000
