3.992094e+002;0.000000e+000
4.011380e+002;0.000000e+000
4.030665e+002;0.000000e+000
4.049951e+002;0.000000e+000
4.069236e+002;0.000000e+000
4.088522e+002;0.000000e+000
4.107807e+002;0.000000e+000
4.127093e+002;0.000000e+000
4.146378e+002;0.000000e+000
4.165664e+002;0.000000e+000
4.184949e+002;0.000000e+000
4.204235e+002;0.000000e+000
4.223520e+002;0.000000e+000
4.242806e+002;0.000000e+000
4.262091e+002;0.000000e+000
4.281377e+002;0.000000e+000
4.300662e+002;0.000000e+000
4.319948e+002;0.000000e+000
4.339233e+002;0.000000e+000
4.358519e+002;0.000000e+000
4.377804e+002;0.000000e+000
4.397090e+002;0.000000e+000
4.416375e+002;0.000000e+000
4.435660e+002;0.000000e+000
4.454946e+002;0.000000e+000
4.474232e+002;0.000000e+000
4.493517e+002;0.000000e+000
4.512802e+002;0.000000e+000
4.532088e+002;0.000000e+000
4.551373e+002;0.000000e+000
4.570659e+002;0.000000e+000
4.589944e+002;0.000000e+000
4.609230e+002;0.000000e+000
4.628515e+002;0.000000e+000
4.647801e+002;0.000000e+000
4.667086e+002;0.000000e+000
4.686372e+002;0.000000e+000
4.705657e+002;0.000000e+000
4.724943e+002;0.000000e+000
4.744228e+002;0.000000e+000
4.763513e+002;0.000000e+000
4.782799e+002;0.000000e+000
4.802085e+002;0.000000e+000
4.821370e+002;0.000000e+000
4.840656e+002;0.000000e+000
4.859941e+002;0.000000e+000
4.879226e+002;0.000000e+000
4.898512e+002;0.000000e+000
4.917798e+002;0.000000e+000
4.937083e+002;0.000000e+000
4.956368e+002;0.000000e+000
4.975654e+002;0.000000e+000
4.994939e+002;0.000000e+000
5.014225e+002;0.000000e+000
5.033510e+002;0.000000e+000
5.052796e+002;0.000000e+000
5.072081e+002;0.000000e+000
5.091367e+002;0.000000e+000
5.110652e+002;0.000000e+000
5.129938e+002;0.000000e+000
5.149223e+002;0.000000e+000
5.168509e+002;0.000000e+000
5.187794e+002;0.000000e+000
5.207079e+002;0.000000e+000
5.226365e+002;0.000000e+000
5.245651e+002;0.000000e+000
5.264936e+002;0.000000e+000
5.284222e+002;0.000000e+000
5.303507e+002;0.000000e+000
5.322792e+002;0.000000e+000
5.342078e+002;0.000000e+000
5.361364e+002;0.000000e+000
5.380649e+002;0.000000e+000
5.399935e+002;0.000000e+000
5.419220e+002;0.000000e+000
5.438505e+002;0.000000e+000
5.457791e+002;0.000000e+000
5.477076e+002;0.000000e+000
5.496362e+002;0.000000e+000
5.515648e+002;0.000000e+000
5.534933e+002;0.000000e+000
5.554218e+002;0.000000e+000
5.573504e+002;0.000000e+000
5.592789e+002;0.000000e+000
5.612075e+002;0.000000e+000
5.631360e+002;0.000000e+000
5.650646e+002;0.000000e+000
5.669931e+002;0.000000e+000
5.689217e+002;0.000000e+000
5.708502e+002;0.000000e+000
5.727787e+002;0.000000e+000
5.747073e+002;0.000000e+000
5.766359e+002;0.000000e+000
5.785644e+002;0.000000e+000
5.804930e+002;0.000000e+000
5.824215e+002;0.000000e+000
5.843500e+002;0.000000e+000
5.862786e+002;0.000000e+000
5.882072e+002;0.000000e+000
5.901357e+002;0.000000e+000
5.920643e+002;0.000000e+000
5.939928e+002;0.000000e+000
5.959213e+002;0.000000e+000
5.978499e+002;0.000000e+000
5.997784e+002;8.070347e-002
6.017070e+002;7.787447e-002
6.036355e+002;7.511967e-002
6.055641e+002;7.258903e-002
6.074926e+002;7.561998e-002
6.094211e+002;7.547811e-002
6.113497e+002;7.247340e-002
6.132783e+002;7.012122e-002
6.152068e+002;7.152350e-002
6.171354e+002;7.456839e-002
6.190639e+002;7.406009e-002
6.209924e+002;7.501872e-002
6.229210e+002;7.735588e-002
6.248495e+002;7.984037e-002
6.267781e+002;7.980322e-002
6.287067e+002;8.129904e-002
6.306352e+002;8.765882e-002
6.325637e+002;9.036402e-002
6.344923e+002;8.551635e-002
6.364208e+002;7.953927e-002
6.383494e+002;7.813781e-002
6.402780e+002;8.116661e-002
6.422065e+002;8.294448e-002
6.441350e+002;8.053999e-002
6.460636e+002;7.988712e-002
6.479921e+002;8.329266e-002
6.499207e+002;8.438738e-002
6.518492e+002;8.322411e-002
6.537778e+002;8.481604e-002
6.557063e+002;8.779998e-002
6.576349e+002;8.758593e-002
6.595634e+002;8.988018e-002
6.614919e+002;9.466721e-002
6.634205e+002;9.669913e-002
6.653491e+002;9.634065e-002
6.672776e+002;9.616414e-002
6.692062e+002;9.800095e-002
6.711347e+002;9.980799e-002
6.730632e+002;1.020385e-001
6.749918e+002;1.055706e-001
6.769203e+002;1.099470e-001
6.788489e+002;1.156898e-001
6.807775e+002;1.195633e-001
6.827060e+002;1.194273e-001
6.846345e+002;1.194838e-001
6.865631e+002;1.214759e-001
6.884916e+002;1.238873e-001
6.904202e+002;1.266525e-001
6.923488e+002;1.298350e-001
6.942773e+002;1.336017e-001
6.962058e+002;1.427491e-001
6.981344e+002;1.561568e-001
7.000629e+002;1.705501e-001
7.019915e+002;1.835948e-001
7.039200e+002;1.955666e-001
7.058486e+002;2.069919e-001
7.077771e+002;2.205318e-001
7.097057e+002;2.371997e-001
7.116342e+002;2.554290e-001
7.135627e+002;2.782475e-001
7.154913e+002;3.089595e-001
7.174199e+002;3.476155e-001
7.193484e+002;3.903332e-001
7.212770e+002;4.281158e-001
7.232055e+002;4.467003e-001
7.251340e+002;4.327313e-001
7.270626e+002;3.910238e-001
7.289911e+002;3.403551e-001
7.309197e+002;2.916410e-001
7.328483e+002;2.478802e-001
7.347768e+002;2.079924e-001
7.367053e+002;1.718283e-001
7.386339e+002;1.399213e-001
7.405624e+002;1.155007e-001
7.424910e+002;9.949861e-002
7.444196e+002;8.909693e-002
7.463481e+002;8.271115e-002
7.482766e+002;7.922302e-002
7.502052e+002;7.723707e-002
7.521337e+002;7.631154e-002
7.540623e+002;7.562739e-002
7.559908e+002;7.528542e-002
7.579194e+002;7.546877e-002
7.598479e+002;7.577634e-002
7.617765e+002;7.673995e-002
7.637050e+002;7.834587e-002
7.656335e+002;8.017113e-002
7.675621e+002;8.112040e-002
7.694907e+002;8.294190e-002
7.714192e+002;8.439033e-002
7.733478e+002;8.569810e-002
7.752763e+002;8.843591e-002
7.772048e+002;9.058279e-002
7.791334e+002;9.186020e-002
7.810620e+002;9.437431e-002
7.829905e+002;9.799638e-002
7.849191e+002;1.021945e-001
7.868476e+002;1.061920e-001
7.887761e+002;1.102907e-001
7.907047e+002;1.138792e-001
7.926332e+002;1.146121e-001
7.945618e+002;1.104136e-001
7.964903e+002;1.030511e-001
7.984189e+002;9.682329e-002
8.003474e+002;9.417836e-002
8.022759e+002;9.396747e-002
8.042045e+002;9.432033e-002
8.061331e+002;9.453674e-002
8.080616e+002;9.529145e-002
8.099902e+002;9.559704e-002
8.119187e+002;9.602855e-002
8.138472e+002;9.666009e-002
8.157758e+002;9.710447e-002
8.177043e+002;9.792800e-002
8.196329e+002;9.836467e-002
8.215615e+002;9.907778e-002
8.234900e+002;9.993702e-002
8.254185e+002;1.005460e-001
8.273471e+002;1.021570e-001
8.292756e+002;1.046958e-001
8.312042e+002;1.084992e-001
8.331328e+002;1.128013e-001
8.350613e+002;1.166996e-001
8.369898e+002;1.198012e-001
8.389184e+002;1.235253e-001
8.408469e+002;1.286294e-001
8.427755e+002;1.347633e-001
8.447040e+002;1.414662e-001
8.466326e+002;1.465497e-001
8.485611e+002;1.468307e-001
8.504897e+002;1.435305e-001
8.524182e+002;1.391253e-001
8.543467e+002;1.360614e-001
8.562753e+002;1.346009e-001
8.582039e+002;1.340027e-001
8.601324e+002;1.343815e-001
8.620610e+002;1.360044e-001
8.639895e+002;1.404665e-001
8.659180e+002;1.489859e-001
8.678466e+002;1.648886e-001
8.697751e+002;1.892152e-001
8.717037e+002;2.083966e-001
8.736323e+002;2.032187e-001
8.755608e+002;1.827880e-001
8.774893e+002;1.641630e-001
8.794179e+002;1.487293e-001
8.813464e+002;1.354684e-001
8.832750e+002;1.245595e-001
8.852036e+002;1.159019e-001
8.871321e+002;1.096268e-001
8.890606e+002;1.057151e-001
8.909892e+002;1.034613e-001
8.929177e+002;1.022756e-001
8.948463e+002;1.019296e-001
8.967748e+002;1.018496e-001
8.987034e+002;1.012754e-001
9.006319e+002;1.007118e-001
9.025605e+002;1.000394e-001
9.044890e+002;9.893508e-002
9.064175e+002;9.726685e-002
9.083461e+002;9.511418e-002
9.102747e+002;9.339964e-002
9.122032e+002;9.219710e-002
9.141318e+002;9.097989e-002
9.160603e+002;9.008880e-002
9.179888e+002;8.954467e-002
9.199174e+002;8.909693e-002
9.218459e+002;8.897275e-002
9.237745e+002;8.935243e-002
9.257031e+002;9.010584e-002
9.276316e+002;9.080518e-002
9.295601e+002;9.145588e-002
9.314887e+002;9.209194e-002
9.334172e+002;9.302754e-002
9.353458e+002;9.426384e-002
9.372744e+002;9.529327e-002
9.392029e+002;9.638570e-002
9.411314e+002;9.774571e-002
9.430600e+002;9.933668e-002
9.449885e+002;1.011800e-001
9.469171e+002;1.025807e-001
9.488456e+002;1.040540e-001
9.507742e+002;1.062379e-001
9.527027e+002;1.085240e-001
9.546313e+002;1.105753e-001
9.565598e+002;1.130982e-001
9.584883e+002;1.159809e-001
9.604169e+002;1.193795e-001
9.623455e+002;1.230168e-001
9.642740e+002;1.267432e-001
9.662026e+002;1.301441e-001
9.681311e+002;1.327683e-001
9.700596e+002;1.341040e-001
9.719882e+002;1.336019e-001
9.739167e+002;1.310088e-001
9.758453e+002;1.275085e-001
9.777739e+002;1.242403e-001
9.797024e+002;1.215495e-001
9.816309e+002;1.193339e-001
9.835595e+002;1.174774e-001
9.854880e+002;1.166545e-001
9.874166e+002;1.163524e-001
9.893452e+002;1.153678e-001
9.912737e+002;1.142243e-001
9.932022e+002;1.140527e-001
9.951307e+002;1.145401e-001
9.970593e+002;1.152493e-001
9.989879e+002;1.166355e-001
1.000916e+003;1.186195e-001
1.002845e+003;1.211299e-001
1.004773e+003;1.249129e-001
1.006702e+003;1.305579e-001
1.008631e+003;1.383273e-001
1.010559e+003;1.499341e-001
1.012488e+003;1.689688e-001
1.014416e+003;1.950596e-001
1.016345e+003;2.197383e-001
1.018273e+003;2.298747e-001
1.020202e+003;2.217245e-001
1.022130e+003;2.032526e-001
1.024059e+003;1.824754e-001
1.025988e+003;1.622315e-001
1.027916e+003;1.447679e-001
1.029845e+003;1.341332e-001
1.031773e+003;1.301024e-001
1.033702e+003;1.295705e-001
1.035630e+003;1.309823e-001
1.037559e+003;1.330349e-001
1.039487e+003;1.347599e-001
1.041416e+003;1.362617e-001
1.043344e+003;1.375916e-001
1.045273e+003;1.387287e-001
1.047202e+003;1.396308e-001
1.049130e+003;1.401907e-001
1.051059e+003;1.403363e-001
1.052987e+003;1.406016e-001
1.054916e+003;1.413659e-001
1.056844e+003;1.427676e-001
1.058773e+003;1.446073e-001
1.060701e+003;1.475075e-001
1.062630e+003;1.519033e-001
1.064558e+003;1.570353e-001
1.066487e+003;1.626811e-001
1.068416e+003;1.697447e-001
1.070344e+003;1.786371e-001
1.072273e+003;1.902338e-001
1.074201e+003;2.041823e-001
1.076130e+003;2.196270e-001
1.078058e+003;2.381510e-001
1.079987e+003;2.584057e-001
1.081915e+003;2.780834e-001
1.083844e+003;2.965712e-001
1.085773e+003;3.131135e-001
1.087701e+003;3.265670e-001
1.089630e+003;3.378079e-001
1.091558e+003;3.480107e-001
1.093487e+003;3.562879e-001
1.095415e+003;3.621435e-001
1.097344e+003;3.650580e-001
1.099272e+003;3.640817e-001
1.101201e+003;3.576558e-001
1.103129e+003;3.468024e-001
1.105058e+003;3.329675e-001
1.106987e+003;3.173694e-001
1.108915e+003;3.027100e-001
1.110844e+003;2.924923e-001
1.112772e+003;2.869651e-001
1.114701e+003;2.847351e-001
1.116629e+003;2.837172e-001
1.118558e+003;2.818222e-001
1.120486e+003;2.773758e-001
1.122415e+003;2.707352e-001
1.124344e+003;2.622534e-001
1.126272e+003;2.520031e-001
1.128201e+003;2.392197e-001
1.130129e+003;2.249791e-001
1.132058e+003;2.103888e-001
1.133986e+003;1.947785e-001
1.135915e+003;1.792478e-001
1.137843e+003;1.649866e-001
1.139772e+003;1.526799e-001
1.141700e+003;1.427279e-001
1.143629e+003;1.338933e-001
1.145557e+003;1.259955e-001
1.147486e+003;1.195232e-001
1.149415e+003;1.141053e-001
1.151343e+003;1.097342e-001
1.153272e+003;1.061353e-001
1.155200e+003;1.032190e-001
1.157129e+003;1.011304e-001
1.159057e+003;9.947369e-002
1.160986e+003;9.860073e-002
1.162914e+003;9.894127e-002
1.164843e+003;1.000149e-001
1.166771e+003;1.021850e-001
1.168700e+003;1.056226e-001
1.170629e+003;1.096435e-001
1.172557e+003;1.129529e-001
1.174486e+003;1.148330e-001
1.176414e+003;1.150474e-001
1.178343e+003;1.144387e-001
1.180271e+003;1.131980e-001
1.182200e+003;1.114306e-001
1.184128e+003;1.103646e-001
1.186057e+003;1.100762e-001
1.187986e+003;1.106414e-001
1.189914e+003;1.121155e-001
1.191843e+003;1.143172e-001
1.193771e+003;1.172154e-001
1.195700e+003;1.209192e-001
1.197628e+003;1.249016e-001
1.199557e+003;1.291312e-001
1.201485e+003;1.336192e-001
1.203414e+003;1.381763e-001
1.205343e+003;1.430427e-001
1.207271e+003;1.484361e-001
1.209200e+003;1.544870e-001
1.211128e+003;1.610879e-001
1.213057e+003;1.680587e-001
1.214985e+003;1.760965e-001
1.216914e+003;1.848089e-001
1.218842e+003;1.937828e-001
1.220771e+003;2.029704e-001
1.222699e+003;2.120656e-001
1.224628e+003;2.207811e-001
1.226557e+003;2.303715e-001
1.228485e+003;2.427575e-001
1.230414e+003;2.588260e-001
1.232342e+003;2.787974e-001
1.234271e+003;3.023757e-001
1.236199e+003;3.284722e-001
1.238128e+003;3.543327e-001
1.240056e+003;3.771347e-001
1.241985e+003;3.949450e-001
1.243913e+003;4.054966e-001
1.245842e+003;4.091736e-001
1.247771e+003;4.082322e-001
1.249699e+003;4.038268e-001
1.251628e+003;3.964221e-001
1.253556e+003;3.883373e-001
1.255485e+003;3.811726e-001
1.257413e+003;3.743341e-001
1.259342e+003;3.668229e-001
1.261270e+003;3.574732e-001
1.263199e+003;3.454832e-001
1.265127e+003;3.314376e-001
1.267056e+003;3.155295e-001
1.268985e+003;2.991714e-001
1.270913e+003;2.839381e-001
1.272842e+003;2.698045e-001
1.274770e+003;2.569904e-001
1.276699e+003;2.454187e-001
1.278627e+003;2.346563e-001
1.280556e+003;2.250603e-001
1.282484e+003;2.159249e-001
1.284413e+003;2.066534e-001
1.286342e+003;1.975068e-001
1.288270e+003;1.887864e-001
1.290199e+003;1.798772e-001
1.292127e+003;1.704030e-001
1.294056e+003;1.613351e-001
1.295984e+003;1.528435e-001
1.297913e+003;1.442016e-001
1.299841e+003;1.359610e-001
1.301770e+003;1.289048e-001
1.303698e+003;1.230429e-001
1.305627e+003;1.178647e-001
1.307556e+003;1.130544e-001
1.309484e+003;1.084775e-001
1.311413e+003;1.041835e-001
1.313341e+003;1.004137e-001
1.315270e+003;9.723186e-002
1.317198e+003;9.437270e-002
1.319127e+003;9.216469e-002
1.321055e+003;9.072849e-002
1.322984e+003;8.992982e-002
1.324912e+003;9.018601e-002
1.326841e+003;9.254454e-002
1.328770e+003;9.809131e-002
1.330698e+003;1.081626e-001
1.332627e+003;1.225016e-001
1.334555e+003;1.387150e-001
1.336484e+003;1.534766e-001
1.338412e+003;1.624247e-001
1.340341e+003;1.621286e-001
1.342269e+003;1.527826e-001
1.344198e+003;1.372647e-001
1.346126e+003;1.204044e-001
1.348055e+003;1.060143e-001
1.349984e+003;9.528939e-002
1.351912e+003;8.788057e-002
1.353841e+003;8.328066e-002
1.355769e+003;8.068014e-002
1.357698e+003;7.915126e-002
1.359626e+003;7.892887e-002
1.361555e+003;7.978909e-002
1.363483e+003;8.132569e-002
1.365412e+003;8.349581e-002
1.367341e+003;8.573685e-002
1.369269e+003;8.741575e-002
1.371198e+003;8.808536e-002
1.373126e+003;8.800258e-002
1.375055e+003;8.756700e-002
1.376983e+003;8.714943e-002
1.378912e+003;8.693384e-002
1.380840e+003;8.749145e-002
1.382769e+003;8.813090e-002
1.384698e+003;8.857829e-002
1.386626e+003;8.949418e-002
1.388555e+003;9.068309e-002
1.390483e+003;9.162123e-002
1.392412e+003;9.298432e-002
1.394340e+003;9.494452e-002
1.396269e+003;9.804891e-002
1.398197e+003;1.028807e-001
1.400126e+003;1.097255e-001
1.402054e+003;1.188027e-001
1.403983e+003;1.305571e-001
1.405911e+003;1.436223e-001
1.407840e+003;1.531793e-001
1.409769e+003;1.541845e-001
1.411697e+003;1.449078e-001
1.413626e+003;1.284886e-001
1.415554e+003;1.102601e-001
1.417483e+003;9.491979e-002
1.419411e+003;8.412200e-002
1.421340e+003;7.769089e-002
1.423268e+003;7.414395e-002
1.425197e+003;7.266364e-002
1.427125e+003;7.245884e-002
1.429054e+003;7.314360e-002
1.430983e+003;7.490729e-002
1.432911e+003;7.713116e-002
1.434840e+003;7.922409e-002
1.436768e+003;8.100112e-002
1.438697e+003;8.292462e-002
1.440625e+003;8.424528e-002
1.442554e+003;8.537556e-002
1.444482e+003;8.683019e-002
1.446411e+003;8.818464e-002
1.448340e+003;8.912838e-002
1.450268e+003;9.043991e-002
1.452197e+003;9.191068e-002
1.454125e+003;9.260170e-002
1.456054e+003;9.239892e-002
1.457982e+003;9.244069e-002
1.459911e+003;9.263951e-002
1.461839e+003;9.238572e-002
1.463768e+003;9.200650e-002
1.465697e+003;9.268414e-002
1.467625e+003;9.539846e-002
1.469554e+003;9.933410e-002
1.471482e+003;1.007943e-001
1.473411e+003;9.815926e-002
1.475339e+003;9.445469e-002
1.477268e+003;9.110762e-002
1.479196e+003;8.767390e-002
1.481125e+003;8.433359e-002
1.483053e+003;8.119681e-002
1.484982e+003;7.797465e-002
1.486911e+003;7.489090e-002
1.488839e+003;7.240251e-002
1.490768e+003;7.076066e-002
1.492696e+003;7.019708e-002
1.494625e+003;7.028757e-002
1.496553e+003;7.162593e-002
1.498482e+003;7.526650e-002
1.500410e+003;8.115523e-002
1.502339e+003;8.902156e-002
1.504267e+003;9.561479e-002
1.506196e+003;9.562582e-002
1.508125e+003;8.890399e-002
1.510053e+003;8.046446e-002
1.511982e+003;7.421337e-002
1.513910e+003;7.094180e-002
1.515839e+003;6.929411e-002
1.517767e+003;6.867766e-002
1.519696e+003;6.854255e-002
1.521624e+003;6.872288e-002
1.523553e+003;6.941441e-002
1.525481e+003;6.961876e-002
1.527410e+003;6.936477e-002
1.529339e+003;6.904229e-002
1.531267e+003;6.831016e-002
1.533196e+003;6.732981e-002
1.535124e+003;6.670672e-002
1.537053e+003;6.622130e-002
1.538981e+003;6.543270e-002
1.540910e+003;6.514150e-002
1.542838e+003;6.546826e-002
1.544767e+003;6.589930e-002
1.546695e+003;6.645671e-002
1.548624e+003;6.702820e-002
1.550553e+003;6.738494e-002
1.552481e+003;6.746435e-002
1.554410e+003;6.758675e-002
1.556338e+003;6.754661e-002
1.558267e+003;6.716339e-002
1.560195e+003;6.787150e-002
1.562124e+003;6.917489e-002
1.564052e+003;7.025371e-002
1.565981e+003;7.137538e-002
1.567910e+003;7.251232e-002
1.569838e+003;7.400163e-002
1.571767e+003;7.620040e-002
1.573695e+003;7.873610e-002
1.575624e+003;8.113685e-002
1.577552e+003;8.303063e-002
1.579481e+003;8.353276e-002
1.581409e+003;8.223736e-002
1.583338e+003;7.982245e-002
1.585266e+003;7.710488e-002
1.587195e+003;7.481776e-002
1.589124e+003;7.322510e-002
1.591052e+003;7.237267e-002
1.592981e+003;7.197228e-002
1.594909e+003;7.185013e-002
1.596838e+003;7.226556e-002
1.598766e+003;7.307162e-002
1.600695e+003;7.394564e-002
1.602623e+003;7.506783e-002
1.604552e+003;7.662144e-002
1.606480e+003;7.802197e-002
1.608409e+003;7.946864e-002
1.610338e+003;8.127415e-002
1.612266e+003;8.287209e-002
1.614195e+003;8.362755e-002
1.616123e+003;8.286178e-002
1.618052e+003;8.199950e-002
1.619980e+003;8.135294e-002
1.621909e+003;8.034596e-002
1.623837e+003;7.978976e-002
1.625766e+003;7.990911e-002
1.627694e+003;8.022306e-002
1.629623e+003;8.085676e-002
1.631552e+003;8.156066e-002
1.633480e+003;8.200403e-002
1.635409e+003;8.254339e-002
1.637337e+003;8.383339e-002
1.639266e+003;8.516032e-002
1.641194e+003;8.621605e-002
1.643123e+003;8.712672e-002
1.645051e+003;8.785044e-002
1.646980e+003;8.882035e-002
1.648909e+003;9.032714e-002
1.650837e+003;9.147608e-002
1.652766e+003;9.227642e-002
1.654694e+003;9.419758e-002
1.656623e+003;9.672868e-002
1.658551e+003;9.928733e-002
1.660480e+003;1.020935e-001
1.662408e+003;1.048747e-001
1.664337e+003;1.082171e-001
1.666266e+003;1.118728e-001
1.668194e+003;1.154204e-001
1.670123e+003;1.192141e-001
1.672051e+003;1.230033e-001
1.673980e+003;1.267345e-001
1.675908e+003;1.311140e-001
1.677837e+003;1.361310e-001
1.679765e+003;1.410370e-001
1.681694e+003;1.453434e-001
1.683622e+003;1.485703e-001
1.685551e+003;1.520703e-001
1.687479e+003;1.566954e-001
1.689408e+003;1.624815e-001
1.691337e+003;1.702190e-001
1.693265e+003;1.796087e-001
1.695194e+003;1.909077e-001
1.697122e+003;2.057206e-001
1.699051e+003;2.237050e-001
1.700979e+003;2.464176e-001
1.702908e+003;2.742292e-001
1.704836e+003;3.070778e-001
1.706765e+003;3.446488e-001
1.708693e+003;3.836177e-001
1.710622e+003;4.178426e-001
1.712551e+003;4.407985e-001
1.714479e+003;4.460451e-001
1.716408e+003;4.329436e-001
1.718336e+003;4.083526e-001
1.720265e+003;3.799917e-001
1.722193e+003;3.509803e-001
1.724122e+003;3.228466e-001
1.726050e+003;2.956276e-001
1.727979e+003;2.696263e-001
1.729908e+003;2.451511e-001
1.731836e+003;2.222958e-001
1.733765e+003;2.002387e-001
1.735693e+003;1.799865e-001
1.737622e+003;1.613297e-001
1.739550e+003;1.431619e-001
1.741479e+003;1.264648e-001
1.743407e+003;1.115377e-001
1.745336e+003;9.857026e-002
1.747265e+003;8.788983e-002
1.749193e+003;7.961767e-002
1.751122e+003;7.372904e-002
1.753050e+003;6.977425e-002
1.754979e+003;6.678078e-002
1.756907e+003;6.461731e-002
1.758836e+003;6.325419e-002
1.760764e+003;6.229556e-002
1.762693e+003;6.166097e-002
1.764621e+003;6.119196e-002
1.766550e+003;6.054759e-002
1.768479e+003;5.988394e-002
1.770407e+003;5.951784e-002
1.772336e+003;5.920358e-002
1.774264e+003;5.912467e-002
1.776193e+003;5.900886e-002
1.778121e+003;5.891781e-002
1.780050e+003;5.901983e-002
1.781978e+003;5.911583e-002
1.783907e+003;5.916606e-002
1.785835e+003;5.904856e-002
1.787764e+003;5.877344e-002
1.789693e+003;5.852063e-002
1.791621e+003;5.857462e-002
1.793550e+003;5.878797e-002
1.795478e+003;5.899155e-002
1.797407e+003;5.901512e-002
1.799335e+003;5.896456e-002
1.801264e+003;5.897174e-002
1.803192e+003;5.917700e-002
1.805121e+003;5.947213e-002
1.807049e+003;5.949558e-002
1.808978e+003;5.943949e-002
1.810907e+003;5.952647e-002
1.812835e+003;5.975389e-002
1.814764e+003;6.006236e-002
1.816692e+003;6.005855e-002
1.818621e+003;5.992567e-002
1.820549e+003;5.987406e-002
1.822478e+003;5.985740e-002
1.824406e+003;5.968808e-002
1.826335e+003;5.953608e-002
1.828264e+003;5.929415e-002
1.830192e+003;5.903691e-002
1.832121e+003;5.875679e-002
1.834049e+003;5.846684e-002
1.835978e+003;5.801433e-002
1.837906e+003;5.744681e-002
1.839835e+003;5.687251e-002
1.841763e+003;5.618421e-002
1.843692e+003;5.555050e-002
1.845620e+003;5.494449e-002
1.847549e+003;5.445769e-002
1.849478e+003;5.392492e-002
1.851406e+003;5.334912e-002
1.853335e+003;5.273782e-002
1.855263e+003;5.192416e-002
1.857192e+003;5.114169e-002
1.859120e+003;5.052322e-002
1.861049e+003;5.004299e-002
1.862977e+003;4.966908e-002
1.864906e+003;4.940295e-002
1.866834e+003;4.896679e-002
1.868763e+003;4.840515e-002
1.870692e+003;4.813861e-002
1.872620e+003;4.798757e-002
1.874549e+003;4.767051e-002
1.876477e+003;4.746142e-002
1.878406e+003;4.746138e-002
1.880334e+003;4.722918e-002
1.882263e+003;4.686318e-002
1.884191e+003;4.679730e-002
1.886120e+003;4.679058e-002
1.888048e+003;4.678069e-002
1.889977e+003;4.690157e-002
1.891906e+003;4.705622e-002
1.893834e+003;4.703975e-002
1.895763e+003;4.707742e-002
1.897691e+003;4.718138e-002
1.899620e+003;4.735361e-002
1.901548e+003;4.761708e-002
1.903477e+003;4.777518e-002
1.905405e+003;4.789103e-002
1.907334e+003;4.800988e-002
1.909262e+003;4.844049e-002
1.911191e+003;4.901620e-002
1.913120e+003;4.923610e-002
1.915048e+003;4.935276e-002
1.916977e+003;4.947810e-002
1.918905e+003;4.991592e-002
1.920834e+003;5.053431e-002
1.922762e+003;5.105824e-002
1.924691e+003;5.154792e-002
1.926619e+003;5.223526e-002
1.928548e+003;5.275870e-002
1.930477e+003;5.322292e-002
1.932405e+003;5.376371e-002
1.934334e+003;5.436068e-002
1.936262e+003;5.504836e-002
1.938191e+003;5.572850e-002
1.940119e+003;5.642185e-002
1.942048e+003;5.731268e-002
1.943976e+003;5.809731e-002
1.945905e+003;5.855491e-002
1.947833e+003;5.895876e-002
1.949762e+003;5.934858e-002
1.951691e+003;5.961145e-002
1.953619e+003;6.002728e-002
1.955548e+003;6.065506e-002
1.957476e+003;6.072704e-002
1.959405e+003;6.025268e-002
1.961333e+003;5.994781e-002
1.963262e+003;5.970755e-002
1.965190e+003;5.891398e-002
1.967119e+003;5.806163e-002
1.969047e+003;5.756626e-002
1.970976e+003;5.687746e-002
1.972905e+003;5.590351e-002
1.974833e+003;5.503042e-002
1.976762e+003;5.443373e-002
1.978690e+003;5.413198e-002
1.980619e+003;5.381836e-002
1.982547e+003;5.338415e-002
1.984476e+003;5.292459e-002
1.986404e+003;5.244024e-002
1.988333e+003;5.201768e-002
1.990261e+003;5.155900e-002
1.992190e+003;5.108131e-002
1.994119e+003;5.057280e-002
1.996047e+003;4.993800e-002
1.997976e+003;4.941472e-002
1.999904e+003;4.920923e-002
2.001833e+003;4.891546e-002
2.003761e+003;4.862578e-002
2.005690e+003;4.822972e-002
2.007618e+003;4.763860e-002
2.009547e+003;4.724115e-002
2.011476e+003;4.688444e-002
2.013404e+003;4.660508e-002
2.015333e+003;4.636729e-002
2.017261e+003;4.625751e-002
2.019190e+003;4.628103e-002
2.021118e+003;4.597406e-002
2.023047e+003;4.524697e-002
2.024975e+003;4.476824e-002
2.026904e+003;4.470929e-002
2.028833e+003;4.451751e-002
2.030761e+003;4.445378e-002
2.032690e+003;4.445335e-002
2.034618e+003;4.435693e-002
2.036547e+003;4.448554e-002
2.038475e+003;4.468792e-002
2.040404e+003;4.467143e-002
2.042332e+003;4.479098e-002
2.044261e+003;4.512406e-002
2.046189e+003;4.538077e-002
2.048118e+003;4.552797e-002
2.050047e+003;4.582273e-002
2.051975e+003;4.610355e-002
2.053904e+003;4.632339e-002
2.055832e+003;4.660677e-002
2.057761e+003;4.707354e-002
2.059689e+003;4.754151e-002
2.061618e+003;4.817297e-002
2.063546e+003;4.867304e-002
2.065475e+003;4.896609e-002
2.067404e+003;4.940529e-002
2.069332e+003;4.976523e-002
2.071260e+003;5.009571e-002
2.073189e+003;5.081011e-002
2.075118e+003;5.126587e-002
2.077046e+003;5.126874e-002
2.078975e+003;5.163161e-002
2.080903e+003;5.210916e-002
2.082832e+003;5.229259e-002
2.084760e+003;5.241949e-002
2.086689e+003;5.262467e-002
2.088617e+003;5.269682e-002
2.090546e+003;5.263933e-002
2.092475e+003;5.285797e-002
2.094403e+003;5.306437e-002
2.096332e+003;5.300772e-002
2.098260e+003;5.301401e-002
2.100189e+003;5.307590e-002
2.102117e+003;5.321513e-002
2.104046e+003;5.316633e-002
2.105974e+003;5.305842e-002
2.107903e+003;5.304186e-002
2.109832e+003;5.299571e-002
2.111760e+003;5.304834e-002
2.113688e+003;5.309162e-002
2.115617e+003;5.312903e-002
2.117546e+003;5.312989e-002
2.119474e+003;5.285576e-002
2.121403e+003;5.236891e-002
2.123331e+003;5.202806e-002
2.125260e+003;5.169498e-002
2.127188e+003;5.139964e-002
2.129117e+003;5.115164e-002
2.131045e+003;5.085298e-002
2.132974e+003;5.059369e-002
2.134903e+003;5.013662e-002
2.136831e+003;4.968394e-002
2.138760e+003;4.953748e-002
2.140688e+003;4.959404e-002
2.142617e+003;4.935265e-002
2.144545e+003;4.876674e-002
2.146474e+003;4.842152e-002
2.148402e+003;4.820562e-002
2.150331e+003;4.789092e-002
2.152260e+003;4.756758e-002
2.154188e+003;4.716539e-002
2.156117e+003;4.671228e-002
2.158045e+003;4.639686e-002
2.159974e+003;4.624635e-002
2.161902e+003;4.585528e-002
2.163831e+003;4.538824e-002
2.165759e+003;4.535326e-002
2.167688e+003;4.524069e-002
2.169616e+003;4.466265e-002
2.171545e+003;4.439363e-002
2.173474e+003;4.431172e-002
2.175402e+003;4.409037e-002
2.177331e+003;4.396360e-002
2.179259e+003;4.371979e-002
2.181188e+003;4.335190e-002
2.183116e+003;4.329728e-002
2.185045e+003;4.336068e-002
2.186973e+003;4.344611e-002
2.188902e+003;4.362170e-002
2.190831e+003;4.370773e-002
2.192759e+003;4.376021e-002
2.194688e+003;4.376185e-002
2.196616e+003;4.373437e-002
2.198545e+003;4.383512e-002
2.200473e+003;4.415287e-002
2.202402e+003;4.444619e-002
2.204330e+003;4.450888e-002
2.206259e+003;4.474385e-002
2.208188e+003;4.514123e-002
2.210116e+003;4.518388e-002
2.212044e+003;4.524330e-002
2.213973e+003;4.534020e-002
2.215902e+003;4.539949e-002
2.217830e+003;4.541785e-002
2.219759e+003;4.554619e-002
2.221687e+003;4.572568e-002
2.223616e+003;4.579214e-002
2.225544e+003;4.575580e-002
2.227473e+003;4.573106e-002
2.229401e+003;4.591417e-002
2.231330e+003;4.618343e-002
2.233259e+003;4.638447e-002
2.235187e+003;4.641515e-002
2.237116e+003;4.644306e-002
2.239044e+003;4.683487e-002
2.240973e+003;4.726191e-002
2.242901e+003;4.742534e-002
2.244830e+003;4.766145e-002
2.246758e+003;4.783395e-002
2.248687e+003;4.771437e-002
2.250615e+003;4.770524e-002
2.252544e+003;4.781494e-002
2.254473e+003;4.800766e-002
2.256401e+003;4.811770e-002
2.258330e+003;4.821340e-002
2.260258e+003;4.840652e-002
2.262187e+003;4.851365e-002
2.264115e+003;4.848579e-002
2.266044e+003;4.819211e-002
2.267972e+003;4.790865e-002
2.269901e+003;4.818341e-002
2.271830e+003;4.850843e-002
2.273758e+003;4.841267e-002
2.275687e+003;4.840445e-002
2.277615e+003;4.853559e-002
2.279544e+003;4.863571e-002
2.281472e+003;4.867433e-002
2.283401e+003;4.873064e-002
2.285329e+003;4.875822e-002
2.287258e+003;4.860577e-002
2.289187e+003;4.826161e-002
2.291115e+003;4.795042e-002
2.293043e+003;4.772136e-002
2.294972e+003;4.704001e-002
2.296901e+003;4.624557e-002
2.298829e+003;4.590886e-002
2.300758e+003;4.556826e-002
2.302686e+003;4.501772e-002
2.304615e+003;4.450639e-002
2.306543e+003;4.410552e-002
2.308472e+003;4.378890e-002
2.310400e+003;4.363723e-002
2.312329e+003;4.329991e-002
2.314258e+003;4.296939e-002
2.316186e+003;4.303217e-002
2.318115e+003;4.304494e-002
2.320043e+003;4.288644e-002
2.321972e+003;4.254714e-002
2.323900e+003;4.240223e-002
2.325829e+003;4.226185e-002
2.327757e+003;4.206728e-002
2.329686e+003;4.201622e-002
2.331615e+003;4.181474e-002
2.333543e+003;4.163510e-002
2.335472e+003;4.156768e-002
2.337400e+003;4.173562e-002
2.339329e+003;4.213361e-002
2.341257e+003;4.251714e-002
2.343186e+003;4.298747e-002
2.345114e+003;4.382661e-002
2.347043e+003;4.467345e-002
2.348971e+003;4.514425e-002
2.350900e+003;4.496035e-002
2.352829e+003;4.442402e-002
2.354757e+003;4.381840e-002
2.356686e+003;4.340444e-002
2.358614e+003;4.339415e-002
2.360543e+003;4.358837e-002
2.362471e+003;4.392672e-002
2.364400e+003;4.442365e-002
2.366328e+003;4.503283e-002
2.368257e+003;4.570640e-002
2.370186e+003;4.660113e-002
2.372114e+003;4.751878e-002
2.374042e+003;4.813036e-002
2.375971e+003;4.868508e-002
2.377900e+003;4.933865e-002
2.379828e+003;4.990871e-002
2.381757e+003;5.009716e-002
2.383685e+003;5.015644e-002
2.385614e+003;5.019096e-002
2.387542e+003;5.018895e-002
2.389471e+003;5.027971e-002
2.391399e+003;5.019014e-002
2.393328e+003;5.007199e-002
2.395257e+003;5.001856e-002
2.397185e+003;4.988021e-002
2.399114e+003;4.968813e-002
2.401042e+003;4.960886e-002
2.402971e+003;4.942630e-002
2.404899e+003;4.920174e-002
2.406828e+003;4.896423e-002
2.408756e+003;4.891717e-002
2.410685e+003;4.866974e-002
2.412614e+003;4.819896e-002
2.414542e+003;4.813558e-002
2.416471e+003;4.822113e-002
2.418399e+003;4.772894e-002
2.420328e+003;4.712532e-002
2.422256e+003;4.685082e-002
2.424185e+003;4.663252e-002
2.426113e+003;4.629172e-002
2.428042e+003;4.589623e-002
2.429970e+003;4.565044e-002
2.431899e+003;4.575959e-002
2.433828e+003;4.565276e-002
2.435756e+003;4.514391e-002
2.437685e+003;4.476824e-002
2.439613e+003;4.440728e-002
2.441542e+003;4.414872e-002
2.443470e+003;4.419326e-002
2.445399e+003;4.405711e-002
2.447327e+003;4.373316e-002
2.449256e+003;4.353126e-002
2.451185e+003;4.356708e-002
2.453113e+003;4.361302e-002
2.455042e+003;4.355917e-002
2.456970e+003;4.336284e-002
2.458899e+003;4.328758e-002
2.460827e+003;4.335834e-002
2.462756e+003;4.332012e-002
2.464684e+003;4.304545e-002
2.466613e+003;4.312038e-002
2.468542e+003;4.337160e-002
2.470470e+003;4.331078e-002
2.472398e+003;4.342963e-002
2.474327e+003;4.389428e-002
2.476256e+003;4.395539e-002
2.478184e+003;4.382240e-002
2.480113e+003;4.423702e-002
2.482041e+003;4.473555e-002
2.483970e+003;4.483282e-002
2.485898e+003;4.496844e-002
2.487827e+003;4.527466e-002
2.489755e+003;4.565648e-002
2.491684e+003;4.588706e-002
2.493613e+003;4.588795e-002
2.495541e+003;4.579825e-002
2.497470e+003;4.606125e-002
2.499398e+003;4.638207e-002
2.501327e+003;4.630381e-002
2.503255e+003;4.623496e-002
2.505184e+003;4.651995e-002
2.507112e+003;4.676291e-002
2.509041e+003;4.675896e-002
2.510969e+003;4.677774e-002
2.512898e+003;4.707978e-002
2.514827e+003;4.730008e-002
2.516755e+003;4.735192e-002
2.518684e+003;4.764026e-002
2.520612e+003;4.793613e-002
2.522541e+003;4.794483e-002
2.524469e+003;4.811677e-002
2.526398e+003;4.846279e-002
2.528326e+003;4.864854e-002
2.530255e+003;4.851906e-002
2.532184e+003;4.841571e-002
2.534112e+003;4.863761e-002
2.536041e+003;4.903307e-002
2.537969e+003;4.919599e-002
2.539898e+003;4.904476e-002
2.541826e+003;4.890185e-002
2.543755e+003;4.908085e-002
2.545683e+003;4.933598e-002
2.547612e+003;4.939530e-002
2.549541e+003;4.933858e-002
2.551469e+003;4.921205e-002
2.553397e+003;4.906438e-002
2.555326e+003;4.923625e-002
2.557255e+003;4.929641e-002
2.559183e+003;4.904869e-002
2.561112e+003;4.888042e-002
2.563040e+003;4.898159e-002
2.564969e+003;4.904676e-002
2.566897e+003;4.901657e-002
2.568826e+003;4.890252e-002
2.570754e+003;4.879447e-002
2.572683e+003;4.889926e-002
2.574612e+003;4.905095e-002
2.576540e+003;4.912204e-002
2.578469e+003;4.903170e-002
2.580397e+003;4.893034e-002
2.582326e+003;4.875125e-002
2.584254e+003;4.865465e-002
2.586183e+003;4.842682e-002
2.588111e+003;4.813746e-002
2.590040e+003;4.802691e-002
2.591969e+003;4.802857e-002
2.593897e+003;4.797965e-002
2.595826e+003;4.769056e-002
2.597754e+003;4.752348e-002
2.599683e+003;4.709928e-002
2.601611e+003;4.650645e-002
2.603540e+003;4.644110e-002
2.605468e+003;4.645962e-002
2.607397e+003;4.645294e-002
2.609325e+003;4.618296e-002
2.611254e+003;4.572093e-002
2.613183e+003;4.558011e-002
2.615111e+003;4.578989e-002
2.617040e+003;4.572657e-002
2.618968e+003;4.558519e-002
2.620897e+003;4.552087e-002
2.622825e+003;4.527110e-002
2.624754e+003;4.518362e-002
2.626682e+003;4.535054e-002
2.628611e+003;4.545552e-002
2.630540e+003;4.546516e-002
2.632468e+003;4.528537e-002
2.634396e+003;4.506940e-002
2.636325e+003;4.478400e-002
2.638254e+003;4.445286e-002
2.640182e+003;4.403254e-002
2.642111e+003;4.359170e-002
2.644039e+003;4.331730e-002
2.645968e+003;4.296120e-002
2.647896e+003;4.266417e-002
2.649825e+003;4.250442e-002
2.651753e+003;4.234184e-002
2.653682e+003;4.220554e-002
2.655611e+003;4.212930e-002
2.657539e+003;4.206732e-002
2.659468e+003;4.184649e-002
2.661396e+003;4.171417e-002
2.663325e+003;4.171202e-002
2.665253e+003;4.170586e-002
2.667182e+003;4.165381e-002
2.669110e+003;4.188790e-002
2.671039e+003;4.216841e-002
2.672968e+003;4.226200e-002
2.674896e+003;4.221223e-002
2.676825e+003;4.189487e-002
2.678753e+003;4.204731e-002
2.680682e+003;4.265302e-002
2.682610e+003;4.289075e-002
2.684539e+003;4.273732e-002
2.686467e+003;4.243788e-002
2.688396e+003;4.213825e-002
2.690324e+003;4.212014e-002
2.692253e+003;4.226317e-002
2.694182e+003;4.244837e-002
2.696110e+003;4.231620e-002
2.698039e+003;4.230882e-002
2.699967e+003;4.261208e-002
2.701896e+003;4.281981e-002
2.703824e+003;4.267535e-002
2.705753e+003;4.242279e-002
2.707681e+003;4.265986e-002
2.709610e+003;4.304267e-002
2.711539e+003;4.324434e-002
2.713467e+003;4.346127e-002
2.715396e+003;4.337939e-002
2.717324e+003;4.315951e-002
2.719253e+003;4.328724e-002
2.721181e+003;4.351573e-002
2.723110e+003;4.380426e-002
2.725038e+003;4.425158e-002
2.726967e+003;4.458356e-002
2.728896e+003;4.481408e-002
2.730824e+003;4.497612e-002
2.732752e+003;4.514572e-002
2.734681e+003;4.535977e-002
2.736610e+003;4.556388e-002
2.738538e+003;4.571696e-002
2.740467e+003;4.558066e-002
2.742395e+003;4.563889e-002
2.744324e+003;4.592643e-002
2.746252e+003;4.595527e-002
2.748181e+003;4.576195e-002
2.750109e+003;4.577155e-002
2.752038e+003;4.584626e-002
2.753967e+003;4.596912e-002
2.755895e+003;4.599310e-002
2.757824e+003;4.602272e-002
2.759752e+003;4.603229e-002
2.761681e+003;4.623617e-002
2.763609e+003;4.637153e-002
2.765538e+003;4.638683e-002
2.767466e+003;4.638923e-002
2.769395e+003;4.628243e-002
2.771323e+003;4.626382e-002
2.773252e+003;4.648926e-002
2.775181e+003;4.688706e-002
2.777109e+003;4.711985e-002
2.779038e+003;4.718567e-002
2.780966e+003;4.721932e-002
2.782895e+003;4.728837e-002
2.784823e+003;4.764101e-002
2.786752e+003;4.828734e-002
2.788680e+003;4.896883e-002
2.790609e+003;4.917220e-002
2.792538e+003;4.928149e-002
2.794466e+003;4.966116e-002
2.796395e+003;5.003087e-002
2.798323e+003;5.023611e-002
2.800252e+003;5.051943e-002
2.802180e+003;5.088874e-002
2.804109e+003;5.107882e-002
2.806037e+003;5.112600e-002
2.807966e+003;5.117483e-002
2.809895e+003;5.133187e-002
2.811823e+003;5.138819e-002
2.813751e+003;5.114441e-002
2.815680e+003;5.052281e-002
2.817609e+003;4.980380e-002
2.819537e+003;4.963367e-002
2.821466e+003;4.989322e-002
2.823394e+003;5.002745e-002
2.825323e+003;5.000763e-002
2.827251e+003;5.029686e-002
2.829180e+003;5.085320e-002
2.831108e+003;5.112667e-002
2.833037e+003;5.121345e-002
2.834966e+003;5.162247e-002
2.836894e+003;5.187315e-002
2.838823e+003;5.212369e-002
2.840751e+003;5.266338e-002
2.842680e+003;5.331296e-002
2.844608e+003;5.407298e-002
2.846537e+003;5.471739e-002
2.848465e+003;5.547128e-002
2.850394e+003;5.621064e-002
2.852323e+003;5.680544e-002
2.854251e+003;5.726482e-002
2.856180e+003;5.774993e-002
2.858108e+003;5.778626e-002
2.860037e+003;5.800350e-002
2.861965e+003;5.843462e-002
2.863894e+003;5.856242e-002
2.865822e+003;5.867603e-002
2.867751e+003;5.905657e-002
2.869679e+003;5.952765e-002
2.871608e+003;5.964623e-002
2.873536e+003;5.960818e-002
2.875465e+003;5.967177e-002
2.877394e+003;6.014984e-002
2.879322e+003;6.063589e-002
2.881251e+003;6.089539e-002
2.883179e+003;6.128554e-002
2.885108e+003;6.163687e-002
2.887036e+003;6.184783e-002
2.888965e+003;6.208909e-002
2.890893e+003;6.244558e-002
2.892822e+003;6.284678e-002
2.894750e+003;6.325146e-002
2.896679e+003;6.383158e-002
2.898608e+003;6.439374e-002
2.900536e+003;6.497630e-002
2.902465e+003;6.570302e-002
2.904393e+003;6.627364e-002
2.906322e+003;6.685162e-002
2.908250e+003;6.723746e-002
2.910179e+003;6.713628e-002
2.912107e+003;6.677194e-002
2.914036e+003;6.634247e-002
2.915965e+003;6.541753e-002
2.917893e+003;6.415800e-002
2.919822e+003;6.307921e-002
2.921750e+003;6.258394e-002
2.923679e+003;6.177444e-002
2.925607e+003;6.100043e-002
2.927536e+003;6.093439e-002
2.929464e+003;6.095700e-002
2.931393e+003;6.104603e-002
2.933322e+003;6.127299e-002
2.935250e+003;6.170046e-002
2.937178e+003;6.223701e-002
2.939107e+003;6.279723e-002
2.941036e+003;6.371138e-002
2.942964e+003;6.448329e-002
2.944893e+003;6.551719e-002
2.946821e+003;6.655329e-002
2.948750e+003;6.745584e-002
2.950678e+003;6.832952e-002
2.952607e+003;6.894819e-002
2.954535e+003;7.010382e-002
2.956464e+003;7.121209e-002
2.958393e+003;7.187229e-002
2.960321e+003;7.256906e-002
2.962250e+003;7.298627e-002
2.964178e+003;7.308381e-002
2.966107e+003;7.356255e-002
2.968035e+003;7.430740e-002
2.969964e+003;7.459943e-002
2.971892e+003;7.466270e-002
2.973821e+003;7.438872e-002
2.975750e+003;7.372123e-002
2.977678e+003;7.299274e-002
2.979607e+003;7.221762e-002
2.981535e+003;7.152064e-002
2.983464e+003;7.079221e-002
2.985392e+003;7.015896e-002
2.987321e+003;6.952067e-002
2.989249e+003;6.881613e-002
2.991178e+003;6.803489e-002
2.993106e+003;6.757300e-002
2.995035e+003;6.728164e-002
2.996964e+003;6.704406e-002
2.998892e+003;6.677128e-002
3.000821e+003;6.667829e-002
3.002749e+003;6.643523e-002
3.004678e+003;6.587674e-002
3.006606e+003;6.547073e-002
3.008535e+003;6.497265e-002
3.010463e+003;6.440170e-002
3.012392e+003;6.394899e-002
3.014321e+003;6.367865e-002
3.016249e+003;6.350619e-002
3.018177e+003;6.289909e-002
3.020106e+003;6.180603e-002
3.022035e+003;6.093595e-002
3.023963e+003;6.032847e-002
3.025892e+003;5.948562e-002
3.027820e+003;5.851085e-002
3.029749e+003;5.749677e-002
3.031677e+003;5.674317e-002
3.033606e+003;5.627178e-002
3.035534e+003;5.566077e-002
3.037463e+003;5.524504e-002
3.039392e+003;5.532109e-002
3.041320e+003;5.563237e-002
3.043249e+003;5.645679e-002
3.045177e+003;5.740324e-002
3.047106e+003;5.869549e-002
3.049034e+003;6.020274e-002
3.050963e+003;6.129073e-002
3.052891e+003;6.169851e-002
3.054820e+003;6.185555e-002
3.056749e+003;6.183942e-002
3.058677e+003;6.159117e-002
3.060606e+003;6.131027e-002
3.062534e+003;6.132115e-002
3.064463e+003;6.158334e-002
3.066391e+003;6.173487e-002
3.068320e+003;6.142377e-002
3.070248e+003;6.134141e-002
3.072177e+003;6.142342e-002
3.074105e+003;6.138621e-002
3.076034e+003;6.146892e-002
3.077963e+003;6.130512e-002
3.079891e+003;6.102734e-002
3.081820e+003;6.066523e-002
3.083748e+003;6.030456e-002
3.085677e+003;6.026497e-002
3.087605e+003;5.992578e-002
3.089534e+003;5.929062e-002
3.091462e+003;5.880773e-002
3.093391e+003;5.839652e-002
3.095320e+003;5.830250e-002
3.097248e+003;5.877306e-002
3.099177e+003;5.912152e-002
3.101105e+003;5.917441e-002
3.103034e+003;5.923339e-002
3.104962e+003;5.942224e-002
3.106891e+003;5.946450e-002
3.108819e+003;5.914499e-002
3.110748e+003;5.873190e-002
3.112677e+003;5.810503e-002
3.114605e+003;5.709507e-002
3.116533e+003;5.637258e-002
3.118462e+003;5.594414e-002
3.120391e+003;5.551970e-002
3.122319e+003;5.517250e-002
3.124248e+003;5.482154e-002
3.126176e+003;5.485801e-002
3.128105e+003;5.508725e-002
3.130033e+003;5.498194e-002
3.131962e+003;5.449612e-002
3.133890e+003;5.397932e-002
3.135819e+003;5.342615e-002
3.137748e+003;5.295120e-002
3.139676e+003;5.267789e-002
3.141605e+003;5.216647e-002
3.143533e+003;5.127400e-002
3.145462e+003;5.068468e-002
3.147390e+003;5.064607e-002
3.149319e+003;5.050308e-002
3.151247e+003;5.008129e-002
3.153176e+003;4.963527e-002
3.155104e+003;4.934704e-002
3.157033e+003;4.929686e-002
3.158962e+003;4.888913e-002
3.160890e+003;4.873245e-002
3.162819e+003;4.876560e-002
3.164747e+003;4.870784e-002
3.166676e+003;4.866436e-002
3.168604e+003;4.854922e-002
3.170533e+003;4.835429e-002
3.172461e+003;4.819799e-002
3.174390e+003;4.822062e-002
3.176319e+003;4.833822e-002
3.178247e+003;4.832174e-002
3.180176e+003;4.798394e-002
3.182104e+003;4.801743e-002
3.184033e+003;4.808335e-002
3.185961e+003;4.797310e-002
3.187890e+003;4.799978e-002
3.189818e+003;4.808487e-002
3.191747e+003;4.794609e-002
3.193676e+003;4.784534e-002
3.195604e+003;4.760059e-002
3.197532e+003;4.726967e-002
3.199461e+003;4.709776e-002
3.201390e+003;4.701287e-002
3.203318e+003;4.687241e-002
3.205247e+003;4.679439e-002
3.207175e+003;4.698426e-002
3.209104e+003;4.725955e-002
3.211032e+003;4.723790e-002
3.212961e+003;4.690773e-002
3.214889e+003;4.648713e-002
3.216818e+003;4.646570e-002
3.218747e+003;4.640678e-002
3.220675e+003;4.655001e-002
3.222604e+003;4.706280e-002
3.224532e+003;4.722667e-002
3.226461e+003;4.679376e-002
3.228389e+003;4.685820e-002
3.230318e+003;4.717436e-002
3.232246e+003;4.735336e-002
3.234175e+003;4.707376e-002
3.236104e+003;4.684753e-002
3.238032e+003;4.708340e-002
3.239961e+003;4.717943e-002
3.241889e+003;4.724643e-002
3.243818e+003;4.725833e-002
3.245746e+003;4.694254e-002
3.247675e+003;4.682428e-002
3.249603e+003;4.643362e-002
3.251532e+003;4.573599e-002
3.253460e+003;4.562862e-002
3.255389e+003;4.567647e-002
3.257318e+003;4.568133e-002
3.259246e+003;4.576680e-002
3.261175e+003;4.588758e-002
3.263103e+003;4.583860e-002
3.265032e+003;4.550681e-002
3.266960e+003;4.507219e-002
3.268889e+003;4.480879e-002
3.270817e+003;4.475513e-002
3.272746e+003;4.485490e-002
3.274675e+003;4.506106e-002
3.276603e+003;4.488227e-002
3.278531e+003;4.490924e-002
3.280460e+003;4.525025e-002
3.282389e+003;4.554052e-002
3.284317e+003;4.554478e-002
3.286246e+003;4.554939e-002
3.288174e+003;4.575432e-002
3.290103e+003;4.607665e-002
3.292031e+003;4.624749e-002
3.293960e+003;4.609342e-002
3.295888e+003;4.613722e-002
3.297817e+003;4.647057e-002
3.299746e+003;4.649480e-002
3.301674e+003;4.597914e-002
3.303603e+003;4.564562e-002
3.305531e+003;4.560628e-002
3.307460e+003;4.587922e-002
3.309388e+003;4.604976e-002
3.311317e+003;4.577744e-002
3.313245e+003;4.570536e-002
3.315174e+003;4.566833e-002
3.317103e+003;4.545593e-002
3.319031e+003;4.569462e-002
3.320960e+003;4.589634e-002
3.322888e+003;4.572988e-002
3.324817e+003;4.559546e-002
3.326745e+003;4.552348e-002
3.328674e+003;4.562420e-002
3.330602e+003;4.546019e-002
3.332531e+003;4.540487e-002
3.334459e+003;4.575403e-002
3.336388e+003;4.591041e-002
3.338317e+003;4.551943e-002
3.340245e+003;4.520917e-002
3.342174e+003;4.544125e-002
3.344102e+003;4.566723e-002
3.346031e+003;4.564065e-002
3.347959e+003;4.560746e-002
3.349888e+003;4.506378e-002
3.351816e+003;4.430688e-002
3.353745e+003;4.392570e-002
3.355674e+003;4.404581e-002
3.357602e+003;4.408747e-002
3.359531e+003;4.353331e-002
3.361459e+003;4.294408e-002
3.363388e+003;4.310813e-002
3.365316e+003;4.302061e-002
3.367245e+003;4.246017e-002
3.369173e+003;4.263416e-002
3.371102e+003;4.320225e-002
3.373031e+003;4.307403e-002
3.374959e+003;4.258452e-002
3.376887e+003;4.236957e-002
3.378816e+003;4.243094e-002
3.380745e+003;4.220098e-002
3.382673e+003;4.217542e-002
3.384602e+003;4.238652e-002
3.386530e+003;4.263905e-002
3.388459e+003;4.287196e-002
3.390387e+003;4.313707e-002
3.392316e+003;4.365999e-002
3.394244e+003;4.413658e-002
3.396173e+003;4.464723e-002
3.398102e+003;4.503896e-002
3.400030e+003;4.517436e-002
3.401959e+003;4.557341e-002
3.403887e+003;4.644682e-002
3.405816e+003;4.724754e-002
3.407744e+003;4.795578e-002
3.409673e+003;4.895348e-002
3.411601e+003;4.989775e-002
3.413530e+003;5.057098e-002
3.415458e+003;5.157247e-002
3.417387e+003;5.238655e-002
3.419316e+003;5.306257e-002
3.421244e+003;5.410751e-002
3.423173e+003;5.548164e-002
3.425101e+003;5.636548e-002
3.427030e+003;5.652804e-002
3.428958e+003;5.654627e-002
3.430887e+003;5.695535e-002
3.432815e+003;5.711465e-002
3.434744e+003;5.668820e-002
3.436673e+003;5.597218e-002
3.438601e+003;5.519274e-002
3.440530e+003;5.449770e-002
3.442458e+003;5.380230e-002
3.444387e+003;5.342102e-002
3.446315e+003;5.299900e-002
3.448244e+003;5.221411e-002
3.450172e+003;5.136756e-002
3.452101e+003;5.063643e-002
3.454030e+003;4.964775e-002
3.455958e+003;4.896186e-002
3.457886e+003;4.852414e-002
3.459815e+003;4.772487e-002
3.461744e+003;4.703278e-002
3.463672e+003;4.628129e-002
3.465601e+003;4.570529e-002
3.467529e+003;4.528904e-002
3.469458e+003;4.487610e-002
3.471386e+003;4.466816e-002
3.473315e+003;4.465303e-002
3.475243e+003;4.416545e-002
3.477172e+003;4.345995e-002
3.479101e+003;4.349694e-002
3.481029e+003;4.354796e-002
3.482958e+003;4.313597e-002
3.484886e+003;4.254107e-002
3.486815e+003;4.239857e-002
3.488743e+003;4.238663e-002
3.490672e+003;4.269590e-002
3.492600e+003;4.326162e-002
3.494529e+003;4.311135e-002
3.496458e+003;4.250157e-002
3.498386e+003;4.245670e-002
3.500315e+003;4.288238e-002
3.502243e+003;4.310055e-002
3.504172e+003;4.307311e-002
3.506100e+003;4.306642e-002
3.508029e+003;4.355514e-002
3.509957e+003;4.397204e-002
3.511886e+003;4.392709e-002
3.513814e+003;4.391352e-002
3.515743e+003;4.386554e-002
3.517672e+003;4.386891e-002
3.519600e+003;4.410537e-002
3.521529e+003;4.426799e-002
3.523457e+003;4.420800e-002
3.525386e+003;4.434045e-002
3.527314e+003;4.462174e-002
3.529243e+003;4.511259e-002
3.531171e+003;4.552304e-002
3.533100e+003;4.548525e-002
3.535029e+003;4.541473e-002
3.536957e+003;4.546012e-002
3.538885e+003;4.559137e-002
3.540814e+003;4.527503e-002
3.542743e+003;4.507179e-002
3.544671e+003;4.492548e-002
3.546600e+003;4.519980e-002
3.548528e+003;4.582461e-002
3.550457e+003;4.608026e-002
3.552385e+003;4.577678e-002
3.554314e+003;4.523822e-002
3.556242e+003;4.483844e-002
3.558171e+003;4.470330e-002
3.560100e+003;4.487151e-002
3.562028e+003;4.481155e-002
3.563957e+003;4.413266e-002
3.565885e+003;4.347837e-002
3.567814e+003;4.342231e-002
3.569742e+003;4.357778e-002
3.571671e+003;4.373030e-002
3.573599e+003;4.335984e-002
3.575528e+003;4.267598e-002
3.577457e+003;4.223954e-002
3.579385e+003;4.205578e-002
3.581314e+003;4.179494e-002
3.583242e+003;4.136988e-002
3.585171e+003;4.085820e-002
3.587099e+003;4.065126e-002
3.589028e+003;4.086548e-002
3.590956e+003;4.070424e-002
3.592885e+003;4.019403e-002
3.594813e+003;4.005081e-002
3.596742e+003;4.011927e-002
3.598671e+003;3.989413e-002
3.600599e+003;3.947089e-002
3.602528e+003;3.927579e-002
3.604456e+003;3.944462e-002
3.606385e+003;3.901486e-002
3.608313e+003;3.882381e-002
3.610242e+003;3.929058e-002
3.612170e+003;3.948976e-002
3.614099e+003;3.972348e-002
3.616028e+003;3.986794e-002
3.617956e+003;3.958194e-002
3.619885e+003;3.941534e-002
3.621813e+003;3.950170e-002
3.623742e+003;3.933194e-002
3.625670e+003;3.905931e-002
3.627599e+003;3.915191e-002
3.629527e+003;3.961258e-002
3.631456e+003;4.011161e-002
3.633385e+003;3.989166e-002
3.635313e+003;3.954191e-002
3.637241e+003;3.950718e-002
3.639170e+003;3.956960e-002
3.641099e+003;3.957505e-002
3.643027e+003;3.938577e-002
3.644956e+003;3.925203e-002
3.646884e+003;3.940409e-002
3.648813e+003;3.884573e-002
3.650741e+003;3.835716e-002
3.652670e+003;3.839821e-002
3.654598e+003;3.830139e-002
3.656527e+003;3.824707e-002
3.658456e+003;3.814950e-002
3.660384e+003;3.764759e-002
3.662313e+003;3.703897e-002
3.664241e+003;3.683558e-002
3.666170e+003;3.674026e-002
3.668098e+003;3.660989e-002
3.670027e+003;3.634754e-002
3.671955e+003;3.608077e-002
3.673884e+003;3.570667e-002
3.675813e+003;3.545867e-002
3.677741e+003;3.562066e-002
3.679669e+003;3.599124e-002
3.681598e+003;3.680377e-002
3.683527e+003;3.758667e-002
3.685455e+003;3.772514e-002
3.687384e+003;3.714279e-002
3.689312e+003;3.695126e-002
3.691241e+003;3.717492e-002
3.693169e+003;3.700062e-002
3.695098e+003;3.657493e-002
3.697026e+003;3.573534e-002
3.698955e+003;3.493106e-002
3.700884e+003;3.463505e-002
3.702812e+003;3.449340e-002
3.704741e+003;3.432497e-002
3.706669e+003;3.408984e-002
3.708598e+003;3.360810e-002
3.710526e+003;3.330101e-002
3.712455e+003;3.310955e-002
3.714383e+003;3.307325e-002
3.716312e+003;3.322564e-002
3.718240e+003;3.349180e-002
3.720169e+003;3.370931e-002
3.722098e+003;3.387972e-002
3.724026e+003;3.371383e-002
3.725955e+003;3.355855e-002
3.727883e+003;3.405063e-002
3.729812e+003;3.401953e-002
3.731740e+003;3.356965e-002
3.733669e+003;3.366452e-002
3.735597e+003;3.376264e-002
3.737526e+003;3.391426e-002
3.739455e+003;3.393550e-002
3.741383e+003;3.367938e-002
3.743312e+003;3.321197e-002
3.745240e+003;3.347712e-002
3.747169e+003;3.373073e-002
3.749097e+003;3.353178e-002
3.751026e+003;3.373094e-002
3.752954e+003;3.386049e-002
3.754883e+003;3.432153e-002
3.756812e+003;3.482155e-002
3.758740e+003;3.492219e-002
3.760668e+003;3.483508e-002
3.762597e+003;3.471896e-002
3.764526e+003;3.449935e-002
3.766454e+003;3.413704e-002
3.768383e+003;3.404486e-002
3.770311e+003;3.433383e-002
3.772240e+003;3.454018e-002
3.774168e+003;3.414414e-002
3.776097e+003;3.393389e-002
3.778025e+003;3.391419e-002
3.779954e+003;3.412869e-002
3.781883e+003;3.439211e-002
3.783811e+003;3.450291e-002
3.785740e+003;3.421845e-002
3.787668e+003;3.383975e-002
3.789597e+003;3.414561e-002
3.791525e+003;3.420138e-002
3.793454e+003;3.406622e-002
3.795382e+003;3.405461e-002
3.797311e+003;3.405174e-002
3.799240e+003;3.381378e-002
3.801168e+003;3.388248e-002
3.803097e+003;3.446334e-002
3.805025e+003;3.458564e-002
3.806954e+003;3.445398e-002
3.808882e+003;3.478583e-002
3.810811e+003;3.496018e-002
3.812739e+003;3.497106e-002
3.814668e+003;3.492614e-002
3.816596e+003;3.465784e-002
3.818525e+003;3.449667e-002
3.820454e+003;3.399419e-002
3.822382e+003;3.348428e-002
3.824311e+003;3.394303e-002
3.826239e+003;3.407522e-002
3.828168e+003;3.383043e-002
3.830096e+003;3.401616e-002
3.832025e+003;3.409783e-002
3.833953e+003;3.383670e-002
3.835882e+003;3.335059e-002
3.837811e+003;3.299424e-002
3.839739e+003;3.320968e-002
3.841667e+003;3.375526e-002
3.843596e+003;3.407332e-002
3.845525e+003;3.426466e-002
3.847453e+003;3.445477e-002
3.849382e+003;3.421877e-002
3.851310e+003;3.369342e-002
3.853239e+003;3.338401e-002
3.855167e+003;3.380458e-002
3.857096e+003;3.417697e-002
3.859024e+003;3.425806e-002
3.860953e+003;3.437288e-002
3.862882e+003;3.458209e-002
3.864810e+003;3.438533e-002
3.866739e+003;3.444659e-002
3.868667e+003;3.418536e-002
3.870596e+003;3.375709e-002
3.872524e+003;3.407980e-002
3.874453e+003;3.419590e-002
3.876381e+003;3.441273e-002
3.878310e+003;3.455288e-002
3.880239e+003;3.422702e-002
3.882167e+003;3.435022e-002
3.884096e+003;3.430898e-002
3.886024e+003;3.387489e-002
3.887953e+003;3.425717e-002
3.889881e+003;3.463401e-002
3.891810e+003;3.475463e-002
3.893738e+003;3.516668e-002
3.895667e+003;3.538123e-002
3.897595e+003;3.543871e-002
3.899524e+003;3.554608e-002
3.901453e+003;3.560783e-002
3.903381e+003;3.556427e-002
3.905310e+003;3.563422e-002
3.907238e+003;3.582090e-002
3.909167e+003;3.582881e-002
3.911095e+003;3.569667e-002
3.913024e+003;3.542861e-002
3.914952e+003;3.565606e-002
3.916881e+003;3.597367e-002
3.918810e+003;3.625500e-002
3.920738e+003;3.642616e-002
3.922667e+003;3.633904e-002
3.924595e+003;3.602576e-002
3.926524e+003;3.595053e-002
3.928452e+003;3.583490e-002
3.930381e+003;3.568476e-002
3.932309e+003;3.597097e-002
3.934238e+003;3.642454e-002
3.936167e+003;3.649632e-002
3.938095e+003;3.619060e-002
3.940023e+003;3.647012e-002
3.941952e+003;3.696190e-002
3.943881e+003;3.689761e-002
3.945809e+003;3.698698e-002
3.947738e+003;3.699910e-002
3.949666e+003;3.691883e-002
3.951595e+003;3.710179e-002
3.953523e+003;3.680092e-002
3.955452e+003;3.660697e-002
3.957380e+003;3.713980e-002
3.959309e+003;3.777871e-002
3.961238e+003;3.780419e-002
3.963166e+003;3.775742e-002
3.965095e+003;3.760304e-002
3.967023e+003;3.730744e-002
3.968952e+003;3.714655e-002
3.970880e+003;3.693509e-002
3.972809e+003;3.682631e-002
3.974737e+003;3.676752e-002
3.976666e+003;3.683035e-002
3.978594e+003;3.713904e-002
3.980523e+003;3.732431e-002
3.982452e+003;3.760257e-002
3.984380e+003;3.777021e-002
3.986309e+003;3.739909e-002
3.988237e+003;3.702605e-002
3.990166e+003;3.729672e-002
3.992094e+003;3.731080e-002
3.994023e+003;3.705936e-002
3.995951e+003;3.730585e-002
3.997880e+003;3.804785e-002
3.999809e+003;3.812385e-002
4.001737e+003;0.000000e+000
