3.992094e+002;0.000000e+000
4.011380e+002;0.000000e+000
4.030665e+002;0.000000e+000
4.049951e+002;0.000000e+000
4.069236e+002;0.000000e+000
4.088522e+002;0.000000e+000
4.107807e+002;0.000000e+000
4.127093e+002;0.000000e+000
4.146378e+002;0.000000e+000
4.165664e+002;0.000000e+000
4.184949e+002;0.000000e+000
4.204235e+002;0.000000e+000
4.223520e+002;0.000000e+000
4.242806e+002;0.000000e+000
4.262091e+002;0.000000e+000
4.281377e+002;0.000000e+000
4.300662e+002;0.000000e+000
4.319948e+002;0.000000e+000
4.339233e+002;0.000000e+000
4.358519e+002;0.000000e+000
4.377804e+002;0.000000e+000
4.397090e+002;0.000000e+000
4.416375e+002;0.000000e+000
4.435660e+002;0.000000e+000
4.454946e+002;0.000000e+000
4.474232e+002;0.000000e+000
4.493517e+002;0.000000e+000
4.512802e+002;0.000000e+000
4.532088e+002;0.000000e+000
4.551373e+002;0.000000e+000
4.570659e+002;0.000000e+000
4.589944e+002;0.000000e+000
4.609230e+002;0.000000e+000
4.628515e+002;0.000000e+000
4.647801e+002;0.000000e+000
4.667086e+002;0.000000e+000
4.686372e+002;0.000000e+000
4.705657e+002;0.000000e+000
4.724943e+002;0.000000e+000
4.744228e+002;0.000000e+000
4.763513e+002;0.000000e+000
4.782799e+002;0.000000e+000
4.802085e+002;0.000000e+000
4.821370e+002;0.000000e+000
4.840656e+002;0.000000e+000
4.859941e+002;0.000000e+000
4.879226e+002;0.000000e+000
4.898512e+002;0.000000e+000
4.917798e+002;0.000000e+000
4.937083e+002;0.000000e+000
4.956368e+002;0.000000e+000
4.975654e+002;0.000000e+000
4.994939e+002;0.000000e+000
5.014225e+002;0.000000e+000
5.033510e+002;0.000000e+000
5.052796e+002;0.000000e+000
5.072081e+002;0.000000e+000
5.091367e+002;0.000000e+000
5.110652e+002;0.000000e+000
5.129938e+002;0.000000e+000
5.149223e+002;0.000000e+000
5.168509e+002;0.000000e+000
5.187794e+002;0.000000e+000
5.207079e+002;0.000000e+000
5.226365e+002;0.000000e+000
5.245651e+002;0.000000e+000
5.264936e+002;0.000000e+000
5.284222e+002;0.000000e+000
5.303507e+002;0.000000e+000
5.322792e+002;0.000000e+000
5.342078e+002;0.000000e+000
5.361364e+002;0.000000e+000
5.380649e+002;0.000000e+000
5.399935e+002;0.000000e+000
5.419220e+002;0.000000e+000
5.438505e+002;0.000000e+000
5.457791e+002;0.000000e+000
5.477076e+002;0.000000e+000
5.496362e+002;0.000000e+000
5.515648e+002;0.000000e+000
5.534933e+002;0.000000e+000
5.554218e+002;0.000000e+000
5.573504e+002;0.000000e+000
5.592789e+002;0.000000e+000
5.612075e+002;0.000000e+000
5.631360e+002;0.000000e+000
5.650646e+002;0.000000e+000
5.669931e+002;0.000000e+000
5.689217e+002;0.000000e+000
5.708502e+002;0.000000e+000
5.727787e+002;0.000000e+000
5.747073e+002;0.000000e+000
5.766359e+002;0.000000e+000
5.785644e+002;0.000000e+000
5.804930e+002;0.000000e+000
5.824215e+002;0.000000e+000
5.843500e+002;0.000000e+000
5.862786e+002;0.000000e+000
5.882072e+002;0.000000e+000
5.901357e+002;0.000000e+000
5.920643e+002;0.000000e+000
5.939928e+002;0.000000e+000
5.959213e+002;0.000000e+000
5.978499e+002;0.000000e+000
5.997784e+002;6.260251e-002
6.017070e+002;6.937671e-002
6.036355e+002;6.975997e-002
6.055641e+002;6.611349e-002
6.074926e+002;6.566937e-002
6.094211e+002;6.845029e-002
6.113497e+002;6.965420e-002
6.132783e+002;6.896450e-002
6.152068e+002;6.971947e-002
6.171354e+002;7.083203e-002
6.190639e+002;7.249999e-002
6.209924e+002;7.196903e-002
6.229210e+002;7.317584e-002
6.248495e+002;7.979111e-002
6.267781e+002;8.170158e-002
6.287067e+002;8.406197e-002
6.306352e+002;8.894278e-002
6.325637e+002;8.503514e-002
6.344923e+002;8.003869e-002
6.364208e+002;7.783614e-002
6.383494e+002;7.661349e-002
6.402780e+002;7.666606e-002
6.422065e+002;7.924617e-002
6.441350e+002;7.844362e-002
6.460636e+002;7.844561e-002
6.479921e+002;8.180961e-002
6.499207e+002;8.366535e-002
6.518492e+002;8.351416e-002
6.537778e+002;8.353200e-002
6.557063e+002;8.381221e-002
6.576349e+002;8.514843e-002
6.595634e+002;8.592741e-002
6.614919e+002;8.615867e-002
6.634205e+002;8.606935e-002
6.653491e+002;8.632088e-002
6.672776e+002;8.725268e-002
6.692062e+002;8.918033e-002
6.711347e+002;9.047418e-002
6.730632e+002;9.227241e-002
6.749918e+002;9.519536e-002
6.769203e+002;9.897194e-002
6.788489e+002;1.017475e-001
6.807775e+002;1.024365e-001
6.827060e+002;1.032948e-001
6.846345e+002;1.033555e-001
6.865631e+002;1.028731e-001
6.884916e+002;1.045114e-001
6.904202e+002;1.067076e-001
6.923488e+002;1.111234e-001
6.942773e+002;1.168873e-001
6.962058e+002;1.234756e-001
6.981344e+002;1.326664e-001
7.000629e+002;1.443907e-001
7.019915e+002;1.553950e-001
7.039200e+002;1.654292e-001
7.058486e+002;1.747248e-001
7.077771e+002;1.844711e-001
7.097057e+002;1.959059e-001
7.116342e+002;2.108219e-001
7.135627e+002;2.289503e-001
7.154913e+002;2.522327e-001
7.174199e+002;2.818745e-001
7.193484e+002;3.127057e-001
7.212770e+002;3.378984e-001
7.232055e+002;3.537022e-001
7.251340e+002;3.481280e-001
7.270626e+002;3.207365e-001
7.289911e+002;2.846024e-001
7.309197e+002;2.475444e-001
7.328483e+002;2.128485e-001
7.347768e+002;1.809200e-001
7.367053e+002;1.518159e-001
7.386339e+002;1.272312e-001
7.405624e+002;1.088719e-001
7.424910e+002;9.634466e-002
7.444196e+002;8.711760e-002
7.463481e+002;8.078828e-002
7.482766e+002;7.732048e-002
7.502052e+002;7.576615e-002
7.521337e+002;7.459247e-002
7.540623e+002;7.500104e-002
7.559908e+002;7.582348e-002
7.579194e+002;7.563146e-002
7.598479e+002;7.490429e-002
7.617765e+002;7.450034e-002
7.637050e+002;7.528093e-002
7.656335e+002;7.665472e-002
7.675621e+002;7.835504e-002
7.694907e+002;8.025451e-002
7.714192e+002;8.198526e-002
7.733478e+002;8.448941e-002
7.752763e+002;8.644217e-002
7.772048e+002;8.768980e-002
7.791334e+002;8.910380e-002
7.810620e+002;9.023002e-002
7.829905e+002;9.131908e-002
7.849191e+002;9.404280e-002
7.868476e+002;9.834709e-002
7.887761e+002;1.028808e-001
7.907047e+002;1.063965e-001
7.926332e+002;1.070053e-001
7.945618e+002;1.030175e-001
7.964903e+002;9.625069e-002
7.984189e+002;9.136051e-002
8.003474e+002;8.978365e-002
8.022759e+002;9.005631e-002
8.042045e+002;9.101000e-002
8.061331e+002;9.190279e-002
8.080616e+002;9.253130e-002
8.099902e+002;9.215490e-002
8.119187e+002;9.168105e-002
8.138472e+002;9.198185e-002
8.157758e+002;9.355444e-002
8.177043e+002;9.520543e-002
8.196329e+002;9.672666e-002
8.215615e+002;9.823138e-002
8.234900e+002;9.945261e-002
8.254185e+002;1.001435e-001
8.273471e+002;1.014716e-001
8.292756e+002;1.039624e-001
8.312042e+002;1.059989e-001
8.331328e+002;1.080874e-001
8.350613e+002;1.107849e-001
8.369898e+002;1.135009e-001
8.389184e+002;1.167935e-001
8.408469e+002;1.203365e-001
8.427755e+002;1.241818e-001
8.447040e+002;1.276105e-001
8.466326e+002;1.299853e-001
8.485611e+002;1.301780e-001
8.504897e+002;1.278132e-001
8.524182e+002;1.251921e-001
8.543467e+002;1.237634e-001
8.562753e+002;1.228383e-001
8.582039e+002;1.218554e-001
8.601324e+002;1.218294e-001
8.620610e+002;1.233742e-001
8.639895e+002;1.266482e-001
8.659180e+002;1.334219e-001
8.678466e+002;1.458595e-001
8.697751e+002;1.643817e-001
8.717037e+002;1.793830e-001
8.736323e+002;1.772298e-001
8.755608e+002;1.628146e-001
8.774893e+002;1.481012e-001
8.794179e+002;1.353091e-001
8.813464e+002;1.238151e-001
8.832750e+002;1.140784e-001
8.852036e+002;1.069882e-001
8.871321e+002;1.017237e-001
8.890606e+002;9.822951e-002
8.909892e+002;9.673999e-002
8.929177e+002;9.615248e-002
8.948463e+002;9.567413e-002
8.967748e+002;9.544577e-002
8.987034e+002;9.574646e-002
9.006319e+002;9.557915e-002
9.025605e+002;9.474077e-002
9.044890e+002;9.336440e-002
9.064175e+002;9.141763e-002
9.083461e+002;8.920108e-002
9.102747e+002;8.688952e-002
9.122032e+002;8.519782e-002
9.141318e+002;8.407282e-002
9.160603e+002;8.357493e-002
9.179888e+002;8.287902e-002
9.199174e+002;8.233728e-002
9.218459e+002;8.249487e-002
9.237745e+002;8.311460e-002
9.257031e+002;8.377423e-002
9.276316e+002;8.428704e-002
9.295601e+002;8.451533e-002
9.314887e+002;8.464082e-002
9.334172e+002;8.514585e-002
9.353458e+002;8.600605e-002
9.372744e+002;8.642304e-002
9.392029e+002;8.679660e-002
9.411314e+002;8.747418e-002
9.430600e+002;8.818602e-002
9.449885e+002;8.929598e-002
9.469171e+002;9.050883e-002
9.488456e+002;9.179888e-002
9.507742e+002;9.347820e-002
9.527027e+002;9.556504e-002
9.546313e+002;9.767899e-002
9.565598e+002;9.989644e-002
9.584883e+002;1.022757e-001
9.604169e+002;1.050155e-001
9.623455e+002;1.076655e-001
9.642740e+002;1.101059e-001
9.662026e+002;1.124426e-001
9.681311e+002;1.144899e-001
9.700596e+002;1.155744e-001
9.719882e+002;1.150206e-001
9.739167e+002;1.128222e-001
9.758453e+002;1.097194e-001
9.777739e+002;1.067056e-001
9.797024e+002;1.040041e-001
9.816309e+002;1.019140e-001
9.835595e+002;1.008483e-001
9.854880e+002;1.003216e-001
9.874166e+002;1.000946e-001
9.893452e+002;9.994452e-002
9.912737e+002;9.966739e-002
9.932022e+002;9.950856e-002
9.951307e+002;9.984285e-002
9.970593e+002;1.009316e-001
9.989879e+002;1.028420e-001
1.000916e+003;1.046371e-001
1.002845e+003;1.066495e-001
1.004773e+003;1.101053e-001
1.006702e+003;1.149958e-001
1.008631e+003;1.214969e-001
1.010559e+003;1.317801e-001
1.012488e+003;1.480152e-001
1.014416e+003;1.692988e-001
1.016345e+003;1.883145e-001
1.018273e+003;1.924955e-001
1.020202e+003;1.795835e-001
1.022130e+003;1.593582e-001
1.024059e+003;1.390525e-001
1.025988e+003;1.211707e-001
1.027916e+003;1.090175e-001
1.029845e+003;1.038092e-001
1.031773e+003;1.027918e-001
1.033702e+003;1.041784e-001
1.035630e+003;1.065441e-001
1.037559e+003;1.086952e-001
1.039487e+003;1.108043e-001
1.041416e+003;1.125150e-001
1.043344e+003;1.132747e-001
1.045273e+003;1.138870e-001
1.047202e+003;1.144547e-001
1.049130e+003;1.148737e-001
1.051059e+003;1.156762e-001
1.052987e+003;1.162436e-001
1.054916e+003;1.172346e-001
1.056844e+003;1.194617e-001
1.058773e+003;1.225711e-001
1.060701e+003;1.260224e-001
1.062630e+003;1.302797e-001
1.064558e+003;1.358257e-001
1.066487e+003;1.419749e-001
1.068416e+003;1.486473e-001
1.070344e+003;1.560430e-001
1.072273e+003;1.649722e-001
1.074201e+003;1.752541e-001
1.076130e+003;1.870418e-001
1.078058e+003;2.016682e-001
1.079987e+003;2.178349e-001
1.081915e+003;2.329744e-001
1.083844e+003;2.455623e-001
1.085773e+003;2.564846e-001
1.087701e+003;2.666716e-001
1.089630e+003;2.763616e-001
1.091558e+003;2.854433e-001
1.093487e+003;2.936154e-001
1.095415e+003;2.991514e-001
1.097344e+003;3.011411e-001
1.099272e+003;2.994050e-001
1.101201e+003;2.932733e-001
1.103129e+003;2.830789e-001
1.105058e+003;2.693211e-001
1.106987e+003;2.545597e-001
1.108915e+003;2.419542e-001
1.110844e+003;2.337746e-001
1.112772e+003;2.301077e-001
1.114701e+003;2.290039e-001
1.116629e+003;2.289313e-001
1.118558e+003;2.276633e-001
1.120486e+003;2.230578e-001
1.122415e+003;2.163101e-001
1.124344e+003;2.080048e-001
1.126272e+003;1.979678e-001
1.128201e+003;1.872394e-001
1.130129e+003;1.759499e-001
1.132058e+003;1.638319e-001
1.133986e+003;1.517816e-001
1.135915e+003;1.406650e-001
1.137843e+003;1.306983e-001
1.139772e+003;1.220965e-001
1.141700e+003;1.144432e-001
1.143629e+003;1.082274e-001
1.145557e+003;1.037579e-001
1.147486e+003;1.002533e-001
1.149415e+003;9.710534e-002
1.151343e+003;9.480222e-002
1.153272e+003;9.306128e-002
1.155200e+003;9.115348e-002
1.157129e+003;8.918281e-002
1.159057e+003;8.808251e-002
1.160986e+003;8.819881e-002
1.162914e+003;8.919851e-002
1.164843e+003;9.054960e-002
1.166771e+003;9.255721e-002
1.168700e+003;9.543202e-002
1.170629e+003;9.798331e-002
1.172557e+003;9.933514e-002
1.174486e+003;9.956457e-002
1.176414e+003;9.886643e-002
1.178343e+003;9.685539e-002
1.180271e+003;9.420630e-002
1.182200e+003;9.214478e-002
1.184128e+003;9.055405e-002
1.186057e+003;9.008191e-002
1.187986e+003;9.107530e-002
1.189914e+003;9.272011e-002
1.191843e+003;9.511533e-002
1.193771e+003;9.833554e-002
1.195700e+003;1.016703e-001
1.197628e+003;1.048365e-001
1.199557e+003;1.081998e-001
1.201485e+003;1.119061e-001
1.203414e+003;1.163601e-001
1.205343e+003;1.208711e-001
1.207271e+003;1.252175e-001
1.209200e+003;1.300588e-001
1.211128e+003;1.355553e-001
1.213057e+003;1.412201e-001
1.214985e+003;1.473495e-001
1.216914e+003;1.546447e-001
1.218842e+003;1.623282e-001
1.220771e+003;1.694998e-001
1.222699e+003;1.766935e-001
1.224628e+003;1.841850e-001
1.226557e+003;1.924752e-001
1.228485e+003;2.033758e-001
1.230414e+003;2.179011e-001
1.232342e+003;2.360042e-001
1.234271e+003;2.575238e-001
1.236199e+003;2.808506e-001
1.238128e+003;3.031116e-001
1.240056e+003;3.223828e-001
1.241985e+003;3.362491e-001
1.243913e+003;3.434545e-001
1.245842e+003;3.444571e-001
1.247771e+003;3.411329e-001
1.249699e+003;3.352403e-001
1.251628e+003;3.279978e-001
1.253556e+003;3.207952e-001
1.255485e+003;3.146773e-001
1.257413e+003;3.095228e-001
1.259342e+003;3.046858e-001
1.261270e+003;2.983874e-001
1.263199e+003;2.891148e-001
1.265127e+003;2.772013e-001
1.267056e+003;2.637033e-001
1.268985e+003;2.492301e-001
1.270913e+003;2.350653e-001
1.272842e+003;2.227725e-001
1.274770e+003;2.121275e-001
1.276699e+003;2.028273e-001
1.278627e+003;1.944368e-001
1.280556e+003;1.863237e-001
1.282484e+003;1.787014e-001
1.284413e+003;1.711538e-001
1.286342e+003;1.634692e-001
1.288270e+003;1.558832e-001
1.290199e+003;1.480789e-001
1.292127e+003;1.401525e-001
1.294056e+003;1.324024e-001
1.295984e+003;1.248432e-001
1.297913e+003;1.174086e-001
1.299841e+003;1.106813e-001
1.301770e+003;1.049850e-001
1.303698e+003;1.003947e-001
1.305627e+003;9.677274e-002
1.307556e+003;9.339098e-002
1.309484e+003;8.995146e-002
1.311413e+003;8.679915e-002
1.313341e+003;8.417336e-002
1.315270e+003;8.178477e-002
1.317198e+003;7.974107e-002
1.319127e+003;7.834670e-002
1.321055e+003;7.740819e-002
1.322984e+003;7.682900e-002
1.324912e+003;7.734752e-002
1.326841e+003;7.957692e-002
1.328770e+003;8.475119e-002
1.330698e+003;9.373087e-002
1.332627e+003;1.062523e-001
1.334555e+003;1.201700e-001
1.336484e+003;1.310054e-001
1.338412e+003;1.353855e-001
1.340341e+003;1.321826e-001
1.342269e+003;1.225098e-001
1.344198e+003;1.090324e-001
1.346126e+003;9.515762e-002
1.348055e+003;8.377789e-002
1.349984e+003;7.558228e-002
1.351912e+003;6.997164e-002
1.353841e+003;6.635632e-002
1.355769e+003;6.424754e-002
1.357698e+003;6.294647e-002
1.359626e+003;6.216635e-002
1.361555e+003;6.216287e-002
1.363483e+003;6.344806e-002
1.365412e+003;6.544923e-002
1.367341e+003;6.703632e-002
1.369269e+003;6.800587e-002
1.371198e+003;6.770678e-002
1.373126e+003;6.640616e-002
1.375055e+003;6.558913e-002
1.376983e+003;6.552224e-002
1.378912e+003;6.545381e-002
1.380840e+003;6.601644e-002
1.382769e+003;6.684277e-002
1.384698e+003;6.724365e-002
1.386626e+003;6.686071e-002
1.388555e+003;6.760851e-002
1.390483e+003;6.933640e-002
1.392412e+003;7.062228e-002
1.394340e+003;7.218980e-002
1.396269e+003;7.568896e-002
1.398197e+003;8.028453e-002
1.400126e+003;8.696716e-002
1.402054e+003;9.554332e-002
1.403983e+003;1.052727e-001
1.405911e+003;1.158404e-001
1.407840e+003;1.227414e-001
1.409769e+003;1.209032e-001
1.411697e+003;1.102412e-001
1.413626e+003;9.473722e-002
1.415554e+003;7.933716e-002
1.417483e+003;6.627515e-002
1.419411e+003;5.799823e-002
1.421340e+003;5.550260e-002
1.423268e+003;5.398915e-002
1.425197e+003;5.311847e-002
1.427125e+003;5.323723e-002
1.429054e+003;5.351272e-002
1.430983e+003;5.447568e-002
1.432911e+003;5.573697e-002
1.434840e+003;5.559272e-002
1.436768e+003;5.578244e-002
1.438697e+003;5.877234e-002
1.440625e+003;6.082700e-002
1.442554e+003;6.190732e-002
1.444482e+003;6.272939e-002
1.446411e+003;6.334434e-002
1.448340e+003;6.435528e-002
1.450268e+003;6.581485e-002
1.452197e+003;6.633636e-002
1.454125e+003;6.486250e-002
1.456054e+003;6.087301e-002
1.457982e+003;6.103856e-002
1.459911e+003;6.405991e-002
1.461839e+003;6.432899e-002
1.463768e+003;6.254062e-002
1.465697e+003;6.261731e-002
1.467625e+003;6.541487e-002
1.469554e+003;6.837315e-002
1.471482e+003;6.908836e-002
1.473411e+003;6.892683e-002
1.475339e+003;6.906638e-002
1.477268e+003;6.842943e-002
1.479196e+003;6.699016e-002
1.481125e+003;6.466533e-002
1.483053e+003;6.246773e-002
1.484982e+003;5.942137e-002
1.486911e+003;5.593954e-002
1.488839e+003;5.322355e-002
1.490768e+003;5.231221e-002
1.492696e+003;5.295266e-002
1.494625e+003;5.238293e-002
1.496553e+003;5.273506e-002
1.498482e+003;5.711590e-002
1.500410e+003;6.378932e-002
1.502339e+003;7.113137e-002
1.504267e+003;7.291396e-002
1.506196e+003;6.787320e-002
1.508125e+003;6.377228e-002
1.510053e+003;6.088944e-002
1.511982e+003;5.810901e-002
1.513910e+003;5.684203e-002
1.515839e+003;5.572857e-002
1.517767e+003;5.540352e-002
1.519696e+003;5.405403e-002
1.521624e+003;5.343815e-002
1.523553e+003;5.588976e-002
1.525481e+003;5.707754e-002
1.527410e+003;5.802758e-002
1.529339e+003;5.888210e-002
1.531267e+003;5.822319e-002
1.533196e+003;5.621393e-002
1.535124e+003;5.565828e-002
1.537053e+003;5.275429e-002
1.538981e+003;4.705626e-002
1.540910e+003;4.611224e-002
1.542838e+003;4.854067e-002
1.544767e+003;5.021208e-002
1.546695e+003;5.154366e-002
1.548624e+003;5.166404e-002
1.550553e+003;5.139822e-002
1.552481e+003;5.047919e-002
1.554410e+003;4.881060e-002
1.556338e+003;4.622817e-002
1.558267e+003;4.186323e-002
1.560195e+003;4.399514e-002
1.562124e+003;4.993715e-002
1.564052e+003;5.199157e-002
1.565981e+003;5.257586e-002
1.567910e+003;5.276847e-002
1.569838e+003;5.383055e-002
1.571767e+003;5.684453e-002
1.573695e+003;5.779599e-002
1.575624e+003;5.707671e-002
1.577552e+003;6.032059e-002
1.579481e+003;6.323287e-002
1.581409e+003;6.220515e-002
1.583338e+003;6.013853e-002
1.585266e+003;5.808890e-002
1.587195e+003;5.660888e-002
1.589124e+003;5.575483e-002
1.591052e+003;5.560913e-002
1.592981e+003;5.592808e-002
1.594909e+003;5.669684e-002
1.596838e+003;5.808818e-002
1.598766e+003;5.975845e-002
1.600695e+003;6.097141e-002
1.602623e+003;6.181257e-002
1.604552e+003;6.243578e-002
1.606480e+003;6.278402e-002
1.608409e+003;6.309829e-002
1.610338e+003;6.376103e-002
1.612266e+003;6.429664e-002
1.614195e+003;6.271997e-002
1.616123e+003;5.919921e-002
1.618052e+003;5.951355e-002
1.619980e+003;6.060252e-002
1.621909e+003;5.887394e-002
1.623837e+003;5.795658e-002
1.625766e+003;5.858297e-002
1.627694e+003;5.858524e-002
1.629623e+003;5.898191e-002
1.631552e+003;5.928941e-002
1.633480e+003;5.705763e-002
1.635409e+003;5.501116e-002
1.637337e+003;5.773581e-002
1.639266e+003;6.065803e-002
1.641194e+003;6.187408e-002
1.643123e+003;6.164096e-002
1.645051e+003;5.973367e-002
1.646980e+003;6.001871e-002
1.648909e+003;6.269241e-002
1.650837e+003;6.055373e-002
1.652766e+003;5.680030e-002
1.654694e+003;6.237450e-002
1.656623e+003;6.893106e-002
1.658551e+003;7.186045e-002
1.660480e+003;7.322565e-002
1.662408e+003;7.476360e-002
1.664337e+003;7.835380e-002
1.666266e+003;8.141872e-002
1.668194e+003;8.261167e-002
1.670123e+003;8.545317e-002
1.672051e+003;8.929557e-002
1.673980e+003;9.129905e-002
1.675908e+003;9.466931e-002
1.677837e+003;9.997464e-002
1.679765e+003;1.035998e-001
1.681694e+003;1.049539e-001
1.683622e+003;1.040543e-001
1.685551e+003;1.086076e-001
1.687479e+003;1.159413e-001
1.689408e+003;1.211018e-001
1.691337e+003;1.268726e-001
1.693265e+003;1.322509e-001
1.695194e+003;1.371893e-001
1.697122e+003;1.480272e-001
1.699051e+003;1.597959e-001
1.700979e+003;1.765305e-001
1.702908e+003;2.003264e-001
1.704836e+003;2.253252e-001
1.706765e+003;2.549591e-001
1.708693e+003;2.869071e-001
1.710622e+003;3.158276e-001
1.712551e+003;3.352316e-001
1.714479e+003;3.404926e-001
1.716408e+003;3.323687e-001
1.718336e+003;3.182155e-001
1.720265e+003;3.018920e-001
1.722193e+003;2.811417e-001
1.724122e+003;2.587109e-001
1.726050e+003;2.364213e-001
1.727979e+003;2.137739e-001
1.729908e+003;1.911142e-001
1.731836e+003;1.679596e-001
1.733765e+003;1.454171e-001
1.735693e+003;1.291796e-001
1.737622e+003;1.138112e-001
1.739550e+003;9.701163e-002
1.741479e+003;8.350557e-002
1.743407e+003;7.200716e-002
1.745336e+003;6.229594e-002
1.747265e+003;5.492452e-002
1.749193e+003;4.978756e-002
1.751122e+003;4.712022e-002
1.753050e+003;4.760984e-002
1.754979e+003;4.797044e-002
1.756907e+003;4.779119e-002
1.758836e+003;4.782881e-002
1.760764e+003;4.708846e-002
1.762693e+003;4.757320e-002
1.764621e+003;4.860659e-002
1.766550e+003;4.773678e-002
1.768479e+003;4.685506e-002
1.770407e+003;4.596864e-002
1.772336e+003;4.511384e-002
1.774264e+003;4.659567e-002
1.776193e+003;4.767484e-002
1.778121e+003;4.746215e-002
1.780050e+003;4.692420e-002
1.781978e+003;4.682288e-002
1.783907e+003;4.673335e-002
1.785835e+003;4.691024e-002
1.787764e+003;4.704858e-002
1.789693e+003;4.603974e-002
1.791621e+003;4.470180e-002
1.793550e+003;4.530350e-002
1.795478e+003;4.664927e-002
1.797407e+003;4.667114e-002
1.799335e+003;4.651888e-002
1.801264e+003;4.661039e-002
1.803192e+003;4.708540e-002
1.805121e+003;4.741389e-002
1.807049e+003;4.748954e-002
1.808978e+003;4.713887e-002
1.810907e+003;4.694852e-002
1.812835e+003;4.731334e-002
1.814764e+003;4.766696e-002
1.816692e+003;4.761508e-002
1.818621e+003;4.767011e-002
1.820549e+003;4.762884e-002
1.822478e+003;4.716280e-002
1.824406e+003;4.636117e-002
1.826335e+003;4.623271e-002
1.828264e+003;4.596511e-002
1.830192e+003;4.569104e-002
1.832121e+003;4.628387e-002
1.834049e+003;4.623208e-002
1.835978e+003;4.553949e-002
1.837906e+003;4.507175e-002
1.839835e+003;4.465751e-002
1.841763e+003;4.331455e-002
1.843692e+003;4.149017e-002
1.845620e+003;4.170557e-002
1.847549e+003;4.219043e-002
1.849478e+003;4.191220e-002
1.851406e+003;4.130195e-002
1.853335e+003;4.059556e-002
1.855263e+003;4.017059e-002
1.857192e+003;3.980431e-002
1.859120e+003;3.937441e-002
1.861049e+003;3.896666e-002
1.862977e+003;3.866557e-002
1.864906e+003;3.810743e-002
1.866834e+003;3.700924e-002
1.868763e+003;3.624052e-002
1.870692e+003;3.666757e-002
1.872620e+003;3.695977e-002
1.874549e+003;3.671953e-002
1.876477e+003;3.654476e-002
1.878406e+003;3.672292e-002
1.880334e+003;3.686678e-002
1.882263e+003;3.673550e-002
1.884191e+003;3.656570e-002
1.886120e+003;3.629876e-002
1.888048e+003;3.582068e-002
1.889977e+003;3.578913e-002
1.891906e+003;3.613431e-002
1.893834e+003;3.615700e-002
1.895763e+003;3.642799e-002
1.897691e+003;3.694585e-002
1.899620e+003;3.712627e-002
1.901548e+003;3.700747e-002
1.903477e+003;3.698755e-002
1.905405e+003;3.708588e-002
1.907334e+003;3.727556e-002
1.909262e+003;3.738226e-002
1.911191e+003;3.768167e-002
1.913120e+003;3.811181e-002
1.915048e+003;3.824006e-002
1.916977e+003;3.789688e-002
1.918905e+003;3.820815e-002
1.920834e+003;3.890164e-002
1.922762e+003;3.923640e-002
1.924691e+003;3.972574e-002
1.926619e+003;4.042962e-002
1.928548e+003;4.102102e-002
1.930477e+003;4.126391e-002
1.932405e+003;4.162500e-002
1.934334e+003;4.244190e-002
1.936262e+003;4.320522e-002
1.938191e+003;4.383215e-002
1.940119e+003;4.429206e-002
1.942048e+003;4.457273e-002
1.943976e+003;4.515204e-002
1.945905e+003;4.587981e-002
1.947833e+003;4.651574e-002
1.949762e+003;4.699349e-002
1.951691e+003;4.746851e-002
1.953619e+003;4.761945e-002
1.955548e+003;4.758259e-002
1.957476e+003;4.770624e-002
1.959405e+003;4.772502e-002
1.961333e+003;4.745986e-002
1.963262e+003;4.694575e-002
1.965190e+003;4.623953e-002
1.967119e+003;4.551851e-002
1.969047e+003;4.494650e-002
1.970976e+003;4.425892e-002
1.972905e+003;4.361665e-002
1.974833e+003;4.302650e-002
1.976762e+003;4.250157e-002
1.978690e+003;4.222661e-002
1.980619e+003;4.202202e-002
1.982547e+003;4.188079e-002
1.984476e+003;4.164331e-002
1.986404e+003;4.123895e-002
1.988333e+003;4.104862e-002
1.990261e+003;4.060607e-002
1.992190e+003;3.999965e-002
1.994119e+003;3.973075e-002
1.996047e+003;3.943247e-002
1.997976e+003;3.910818e-002
1.999904e+003;3.878431e-002
2.001833e+003;3.839437e-002
2.003761e+003;3.798522e-002
2.005690e+003;3.761803e-002
2.007618e+003;3.755892e-002
2.009547e+003;3.752251e-002
2.011476e+003;3.735991e-002
2.013404e+003;3.708541e-002
2.015333e+003;3.678177e-002
2.017261e+003;3.645055e-002
2.019190e+003;3.628399e-002
2.021118e+003;3.616885e-002
2.023047e+003;3.604589e-002
2.024975e+003;3.587362e-002
2.026904e+003;3.550019e-002
2.028833e+003;3.519255e-002
2.030761e+003;3.530747e-002
2.032690e+003;3.539370e-002
2.034618e+003;3.534690e-002
2.036547e+003;3.524178e-002
2.038475e+003;3.547042e-002
2.040404e+003;3.563692e-002
2.042332e+003;3.553529e-002
2.044261e+003;3.553151e-002
2.046189e+003;3.573851e-002
2.048118e+003;3.594243e-002
2.050047e+003;3.620781e-002
2.051975e+003;3.636843e-002
2.053904e+003;3.668690e-002
2.055832e+003;3.715730e-002
2.057761e+003;3.760940e-002
2.059689e+003;3.791890e-002
2.061618e+003;3.840751e-002
2.063546e+003;3.887957e-002
2.065475e+003;3.917395e-002
2.067404e+003;3.937413e-002
2.069332e+003;3.972751e-002
2.071260e+003;4.003911e-002
2.073189e+003;4.032883e-002
2.075118e+003;4.046956e-002
2.077046e+003;4.063143e-002
2.078975e+003;4.093225e-002
2.080903e+003;4.135491e-002
2.082832e+003;4.178009e-002
2.084760e+003;4.192771e-002
2.086689e+003;4.180311e-002
2.088617e+003;4.186685e-002
2.090546e+003;4.200172e-002
2.092475e+003;4.210445e-002
2.094403e+003;4.223914e-002
2.096332e+003;4.229549e-002
2.098260e+003;4.242919e-002
2.100189e+003;4.254546e-002
2.102117e+003;4.259264e-002
2.104046e+003;4.257283e-002
2.105974e+003;4.252857e-002
2.107903e+003;4.265730e-002
2.109832e+003;4.271527e-002
2.111760e+003;4.252810e-002
2.113688e+003;4.233647e-002
2.115617e+003;4.232840e-002
2.117546e+003;4.219590e-002
2.119474e+003;4.197837e-002
2.121403e+003;4.184663e-002
2.123331e+003;4.160050e-002
2.125260e+003;4.107845e-002
2.127188e+003;4.079490e-002
2.129117e+003;4.086369e-002
2.131045e+003;4.094546e-002
2.132974e+003;4.072789e-002
2.134903e+003;4.053917e-002
2.136831e+003;4.023369e-002
2.138760e+003;3.979164e-002
2.140688e+003;3.954986e-002
2.142617e+003;3.948827e-002
2.144545e+003;3.945569e-002
2.146474e+003;3.942470e-002
2.148402e+003;3.913370e-002
2.150331e+003;3.854950e-002
2.152260e+003;3.811716e-002
2.154188e+003;3.810417e-002
2.156117e+003;3.791163e-002
2.158045e+003;3.748715e-002
2.159974e+003;3.724293e-002
2.161902e+003;3.701901e-002
2.163831e+003;3.668683e-002
2.165759e+003;3.638868e-002
2.167688e+003;3.606169e-002
2.169616e+003;3.579161e-002
2.171545e+003;3.571365e-002
2.173474e+003;3.577736e-002
2.175402e+003;3.568484e-002
2.177331e+003;3.544461e-002
2.179259e+003;3.524487e-002
2.181188e+003;3.508844e-002
2.183116e+003;3.486808e-002
2.185045e+003;3.493379e-002
2.186973e+003;3.522511e-002
2.188902e+003;3.549271e-002
2.190831e+003;3.541121e-002
2.192759e+003;3.547873e-002
2.194688e+003;3.557021e-002
2.196616e+003;3.546187e-002
2.198545e+003;3.543131e-002
2.200473e+003;3.550469e-002
2.202402e+003;3.568976e-002
2.204330e+003;3.583727e-002
2.206259e+003;3.606097e-002
2.208188e+003;3.637503e-002
2.210116e+003;3.663949e-002
2.212044e+003;3.669256e-002
2.213973e+003;3.662946e-002
2.215902e+003;3.682977e-002
2.217830e+003;3.701079e-002
2.219759e+003;3.711071e-002
2.221687e+003;3.713749e-002
2.223616e+003;3.723791e-002
2.225544e+003;3.744077e-002
2.227473e+003;3.757749e-002
2.229401e+003;3.771553e-002
2.231330e+003;3.781706e-002
2.233259e+003;3.793210e-002
2.235187e+003;3.812642e-002
2.237116e+003;3.820080e-002
2.239044e+003;3.827110e-002
2.240973e+003;3.843937e-002
2.242901e+003;3.863352e-002
2.244830e+003;3.890200e-002
2.246758e+003;3.929106e-002
2.248687e+003;3.954699e-002
2.250615e+003;3.941777e-002
2.252544e+003;3.924521e-002
2.254473e+003;3.918552e-002
2.256401e+003;3.919444e-002
2.258330e+003;3.935958e-002
2.260258e+003;3.954467e-002
2.262187e+003;3.948853e-002
2.264115e+003;3.925475e-002
2.266044e+003;3.937101e-002
2.267972e+003;3.940729e-002
2.269901e+003;3.926175e-002
2.271830e+003;3.910035e-002
2.273758e+003;3.908251e-002
2.275687e+003;3.917395e-002
2.277615e+003;3.938929e-002
2.279544e+003;3.970424e-002
2.281472e+003;3.991091e-002
2.283401e+003;3.960899e-002
2.285329e+003;3.934452e-002
2.287258e+003;3.922291e-002
2.289187e+003;3.901454e-002
2.291115e+003;3.864721e-002
2.293043e+003;3.832423e-002
2.294972e+003;3.817587e-002
2.296901e+003;3.780256e-002
2.298829e+003;3.706737e-002
2.300758e+003;3.652461e-002
2.302686e+003;3.621206e-002
2.304615e+003;3.564652e-002
2.306543e+003;3.537641e-002
2.308472e+003;3.539734e-002
2.310400e+003;3.513668e-002
2.312329e+003;3.492912e-002
2.314258e+003;3.486158e-002
2.316186e+003;3.472456e-002
2.318115e+003;3.458259e-002
2.320043e+003;3.450664e-002
2.321972e+003;3.429955e-002
2.323900e+003;3.403719e-002
2.325829e+003;3.390064e-002
2.327757e+003;3.399939e-002
2.329686e+003;3.385898e-002
2.331615e+003;3.358744e-002
2.333543e+003;3.341296e-002
2.335472e+003;3.337360e-002
2.337400e+003;3.356482e-002
2.339329e+003;3.369958e-002
2.341257e+003;3.381572e-002
2.343186e+003;3.433602e-002
2.345114e+003;3.512368e-002
2.347043e+003;3.589985e-002
2.348971e+003;3.633507e-002
2.350900e+003;3.616744e-002
2.352829e+003;3.556571e-002
2.354757e+003;3.505173e-002
2.356686e+003;3.491235e-002
2.358614e+003;3.486955e-002
2.360543e+003;3.489529e-002
2.362471e+003;3.510848e-002
2.364400e+003;3.544799e-002
2.366328e+003;3.587354e-002
2.368257e+003;3.643553e-002
2.370186e+003;3.714807e-002
2.372114e+003;3.769941e-002
2.374042e+003;3.813810e-002
2.375971e+003;3.869570e-002
2.377900e+003;3.915676e-002
2.379828e+003;3.953146e-002
2.381757e+003;3.981753e-002
2.383685e+003;3.996224e-002
2.385614e+003;4.001124e-002
2.387542e+003;3.987822e-002
2.389471e+003;3.981096e-002
2.391399e+003;3.981081e-002
2.393328e+003;3.970871e-002
2.395257e+003;3.970152e-002
2.397185e+003;3.960042e-002
2.399114e+003;3.931206e-002
2.401042e+003;3.917943e-002
2.402971e+003;3.914494e-002
2.404899e+003;3.906174e-002
2.406828e+003;3.895071e-002
2.408756e+003;3.866235e-002
2.410685e+003;3.851192e-002
2.412614e+003;3.855953e-002
2.414542e+003;3.848610e-002
2.416471e+003;3.812226e-002
2.418399e+003;3.758078e-002
2.420328e+003;3.740992e-002
2.422256e+003;3.741260e-002
2.424185e+003;3.723184e-002
2.426113e+003;3.711778e-002
2.428042e+003;3.691775e-002
2.429970e+003;3.660243e-002
2.431899e+003;3.645772e-002
2.433828e+003;3.621729e-002
2.435756e+003;3.581719e-002
2.437685e+003;3.540208e-002
2.439613e+003;3.517556e-002
2.441542e+003;3.517118e-002
2.443470e+003;3.498255e-002
2.445399e+003;3.465959e-002
2.447327e+003;3.476016e-002
2.449256e+003;3.485576e-002
2.451185e+003;3.484521e-002
2.453113e+003;3.470582e-002
2.455042e+003;3.462414e-002
2.456970e+003;3.456444e-002
2.458899e+003;3.440315e-002
2.460827e+003;3.433971e-002
2.462756e+003;3.427940e-002
2.464684e+003;3.429815e-002
2.466613e+003;3.440312e-002
2.468542e+003;3.448788e-002
2.470470e+003;3.458657e-002
2.472398e+003;3.460552e-002
2.474327e+003;3.468371e-002
2.476256e+003;3.474602e-002
2.478184e+003;3.475367e-002
2.480113e+003;3.489181e-002
2.482041e+003;3.535140e-002
2.483970e+003;3.571279e-002
2.485898e+003;3.579399e-002
2.487827e+003;3.592461e-002
2.489755e+003;3.614130e-002
2.491684e+003;3.613248e-002
2.493613e+003;3.601097e-002
2.495541e+003;3.609633e-002
2.497470e+003;3.640176e-002
2.499398e+003;3.670583e-002
2.501327e+003;3.685206e-002
2.503255e+003;3.671527e-002
2.505184e+003;3.669847e-002
2.507112e+003;3.688098e-002
2.509041e+003;3.702342e-002
2.510969e+003;3.718355e-002
2.512898e+003;3.702872e-002
2.514827e+003;3.704348e-002
2.516755e+003;3.721199e-002
2.518684e+003;3.737898e-002
2.520612e+003;3.780043e-002
2.522541e+003;3.799961e-002
2.524469e+003;3.780509e-002
2.526398e+003;3.797704e-002
2.528326e+003;3.830367e-002
2.530255e+003;3.835123e-002
2.532184e+003;3.824291e-002
2.534112e+003;3.800634e-002
2.536041e+003;3.790997e-002
2.537969e+003;3.784728e-002
2.539898e+003;3.798229e-002
2.541826e+003;3.825004e-002
2.543755e+003;3.815746e-002
2.545683e+003;3.815199e-002
2.547612e+003;3.813065e-002
2.549541e+003;3.809961e-002
2.551469e+003;3.815286e-002
2.553397e+003;3.834898e-002
2.555326e+003;3.851916e-002
2.557255e+003;3.855269e-002
2.559183e+003;3.839122e-002
2.561112e+003;3.826720e-002
2.563040e+003;3.830990e-002
2.564969e+003;3.824465e-002
2.566897e+003;3.799390e-002
2.568826e+003;3.803129e-002
2.570754e+003;3.801017e-002
2.572683e+003;3.798887e-002
2.574612e+003;3.839868e-002
2.576540e+003;3.860114e-002
2.578469e+003;3.845454e-002
2.580397e+003;3.849320e-002
2.582326e+003;3.844607e-002
2.584254e+003;3.826918e-002
2.586183e+003;3.816469e-002
2.588111e+003;3.791095e-002
2.590040e+003;3.779385e-002
2.591969e+003;3.770863e-002
2.593897e+003;3.725065e-002
2.595826e+003;3.693723e-002
2.597754e+003;3.693831e-002
2.599683e+003;3.681895e-002
2.601611e+003;3.656220e-002
2.603540e+003;3.635226e-002
2.605468e+003;3.632913e-002
2.607397e+003;3.640050e-002
2.609325e+003;3.619071e-002
2.611254e+003;3.595650e-002
2.613183e+003;3.578359e-002
2.615111e+003;3.581259e-002
2.617040e+003;3.594034e-002
2.618968e+003;3.605632e-002
2.620897e+003;3.591796e-002
2.622825e+003;3.564261e-002
2.624754e+003;3.563354e-002
2.626682e+003;3.578499e-002
2.628611e+003;3.569595e-002
2.630540e+003;3.554618e-002
2.632468e+003;3.558333e-002
2.634396e+003;3.567120e-002
2.636325e+003;3.525242e-002
2.638254e+003;3.476242e-002
2.640182e+003;3.448953e-002
2.642111e+003;3.427854e-002
2.644039e+003;3.419461e-002
2.645968e+003;3.412159e-002
2.647896e+003;3.383735e-002
2.649825e+003;3.378463e-002
2.651753e+003;3.384609e-002
2.653682e+003;3.367591e-002
2.655611e+003;3.339807e-002
2.657539e+003;3.320936e-002
2.659468e+003;3.324588e-002
2.661396e+003;3.327761e-002
2.663325e+003;3.304536e-002
2.665253e+003;3.294098e-002
2.667182e+003;3.310404e-002
2.669110e+003;3.334759e-002
2.671039e+003;3.325414e-002
2.672968e+003;3.327879e-002
2.674896e+003;3.336605e-002
2.676825e+003;3.341267e-002
2.678753e+003;3.351725e-002
2.680682e+003;3.377535e-002
2.682610e+003;3.382782e-002
2.684539e+003;3.364687e-002
2.686467e+003;3.369374e-002
2.688396e+003;3.374505e-002
2.690324e+003;3.374065e-002
2.692253e+003;3.376102e-002
2.694182e+003;3.385343e-002
2.696110e+003;3.383721e-002
2.698039e+003;3.362560e-002
2.699967e+003;3.360588e-002
2.701896e+003;3.369847e-002
2.703824e+003;3.377739e-002
2.705753e+003;3.366509e-002
2.707681e+003;3.380325e-002
2.709610e+003;3.419597e-002
2.711539e+003;3.444311e-002
2.713467e+003;3.429299e-002
2.715396e+003;3.434197e-002
2.717324e+003;3.463979e-002
2.719253e+003;3.474218e-002
2.721181e+003;3.462163e-002
2.723110e+003;3.468985e-002
2.725038e+003;3.493192e-002
2.726967e+003;3.521835e-002
2.728896e+003;3.533565e-002
2.730824e+003;3.526191e-002
2.732752e+003;3.531398e-002
2.734681e+003;3.563645e-002
2.736610e+003;3.572077e-002
2.738538e+003;3.581903e-002
2.740467e+003;3.604751e-002
2.742395e+003;3.617144e-002
2.744324e+003;3.605863e-002
2.746252e+003;3.587070e-002
2.748181e+003;3.592458e-002
2.750109e+003;3.599858e-002
2.752038e+003;3.600114e-002
2.753967e+003;3.591454e-002
2.755895e+003;3.601190e-002
2.757824e+003;3.625708e-002
2.759752e+003;3.646695e-002
2.761681e+003;3.635629e-002
2.763609e+003;3.603138e-002
2.765538e+003;3.608927e-002
2.767466e+003;3.626245e-002
2.769395e+003;3.625446e-002
2.771323e+003;3.626893e-002
2.773252e+003;3.640864e-002
2.775181e+003;3.666829e-002
2.777109e+003;3.682230e-002
2.779038e+003;3.689152e-002
2.780966e+003;3.692182e-002
2.782895e+003;3.693178e-002
2.784823e+003;3.687890e-002
2.786752e+003;3.717477e-002
2.788680e+003;3.783600e-002
2.790609e+003;3.823065e-002
2.792538e+003;3.842181e-002
2.794466e+003;3.861668e-002
2.796395e+003;3.889265e-002
2.798323e+003;3.932308e-002
2.800252e+003;3.931362e-002
2.802180e+003;3.929526e-002
2.804109e+003;3.940935e-002
2.806037e+003;3.927158e-002
2.807966e+003;3.904245e-002
2.809895e+003;3.891012e-002
2.811823e+003;3.889997e-002
2.813751e+003;3.883330e-002
2.815680e+003;3.832282e-002
2.817609e+003;3.769652e-002
2.819537e+003;3.767957e-002
2.821466e+003;3.739902e-002
2.823394e+003;3.713788e-002
2.825323e+003;3.723758e-002
2.827251e+003;3.713236e-002
2.829180e+003;3.700191e-002
2.831108e+003;3.687832e-002
2.833037e+003;3.674946e-002
2.834966e+003;3.674722e-002
2.836894e+003;3.659295e-002
2.838823e+003;3.583803e-002
2.840751e+003;3.460161e-002
2.842680e+003;3.277954e-002
2.844608e+003;3.012846e-002
2.846537e+003;2.655911e-002
2.848465e+003;2.306780e-002
2.850394e+003;2.082066e-002
2.852323e+003;2.018364e-002
2.854251e+003;2.117179e-002
2.856180e+003;2.346817e-002
2.858108e+003;2.627136e-002
2.860037e+003;2.909208e-002
2.861965e+003;3.145948e-002
2.863894e+003;3.356357e-002
2.865822e+003;3.523445e-002
2.867751e+003;3.601766e-002
2.869679e+003;3.643733e-002
2.871608e+003;3.681408e-002
2.873536e+003;3.755979e-002
2.875465e+003;3.829481e-002
2.877394e+003;3.903491e-002
2.879322e+003;3.972443e-002
2.881251e+003;3.994465e-002
2.883179e+003;3.990241e-002
2.885108e+003;3.974450e-002
2.887036e+003;3.943443e-002
2.888965e+003;3.918839e-002
2.890893e+003;3.882471e-002
2.892822e+003;3.813944e-002
2.894750e+003;3.760073e-002
2.896679e+003;3.732106e-002
2.898608e+003;3.726517e-002
2.900536e+003;3.705445e-002
2.902465e+003;3.678206e-002
2.904393e+003;3.632164e-002
2.906322e+003;3.521444e-002
2.908250e+003;3.361995e-002
2.910179e+003;3.114002e-002
2.912107e+003;2.741557e-002
2.914036e+003;2.340239e-002
2.915965e+003;1.952953e-002
2.917893e+003;1.594919e-002
2.919822e+003;1.293358e-002
2.921750e+003;1.130131e-002
2.923679e+003;1.074323e-002
2.925607e+003;1.160303e-002
2.927536e+003;1.335826e-002
2.929464e+003;1.528656e-002
2.931393e+003;1.780643e-002
2.933322e+003;2.069189e-002
2.935250e+003;2.366116e-002
2.937178e+003;2.676676e-002
2.939107e+003;2.989349e-002
2.941036e+003;3.262603e-002
2.942964e+003;3.482449e-002
2.944893e+003;3.656501e-002
2.946821e+003;3.813622e-002
2.948750e+003;3.930339e-002
2.950678e+003;3.992326e-002
2.952607e+003;4.018505e-002
2.954535e+003;4.075541e-002
2.956464e+003;4.198377e-002
2.958393e+003;4.338551e-002
2.960321e+003;4.477654e-002
2.962250e+003;4.651287e-002
2.964178e+003;4.847953e-002
2.966107e+003;5.001656e-002
2.968035e+003;5.119753e-002
2.969964e+003;5.218306e-002
2.971892e+003;5.265130e-002
2.973821e+003;5.289551e-002
2.975750e+003;5.305935e-002
2.977678e+003;5.309279e-002
2.979607e+003;5.309454e-002
2.981535e+003;5.301937e-002
2.983464e+003;5.284832e-002
2.985392e+003;5.277677e-002
2.987321e+003;5.274598e-002
2.989249e+003;5.239545e-002
2.991178e+003;5.214801e-002
2.993106e+003;5.191281e-002
2.995035e+003;5.142813e-002
2.996964e+003;5.123668e-002
2.998892e+003;5.111079e-002
3.000821e+003;5.083864e-002
3.002749e+003;5.054555e-002
3.004678e+003;5.019363e-002
3.006606e+003;4.979637e-002
3.008535e+003;4.942976e-002
3.010463e+003;4.946703e-002
3.012392e+003;4.951839e-002
3.014321e+003;4.914073e-002
3.016249e+003;4.868879e-002
3.018177e+003;4.794749e-002
3.020106e+003;4.719442e-002
3.022035e+003;4.676424e-002
3.023963e+003;4.611291e-002
3.025892e+003;4.551126e-002
3.027820e+003;4.498593e-002
3.029749e+003;4.417396e-002
3.031677e+003;4.356119e-002
3.033606e+003;4.323849e-002
3.035534e+003;4.313129e-002
3.037463e+003;4.323193e-002
3.039392e+003;4.338935e-002
3.041320e+003;4.368538e-002
3.043249e+003;4.404369e-002
3.045177e+003;4.457034e-002
3.047106e+003;4.561681e-002
3.049034e+003;4.706268e-002
3.050963e+003;4.800215e-002
3.052891e+003;4.840063e-002
3.054820e+003;4.863561e-002
3.056749e+003;4.842823e-002
3.058677e+003;4.796644e-002
3.060606e+003;4.777610e-002
3.062534e+003;4.769126e-002
3.064463e+003;4.787228e-002
3.066391e+003;4.819111e-002
3.068320e+003;4.857761e-002
3.070248e+003;4.859399e-002
3.072177e+003;4.857901e-002
3.074105e+003;4.878135e-002
3.076034e+003;4.886700e-002
3.077963e+003;4.869224e-002
3.079891e+003;4.833981e-002
3.081820e+003;4.819969e-002
3.083748e+003;4.802743e-002
3.085677e+003;4.780003e-002
3.087605e+003;4.762673e-002
3.089534e+003;4.739441e-002
3.091462e+003;4.705918e-002
3.093391e+003;4.649524e-002
3.095320e+003;4.626481e-002
3.097248e+003;4.642499e-002
3.099177e+003;4.657944e-002
3.101105e+003;4.687307e-002
3.103034e+003;4.713580e-002
3.104962e+003;4.706797e-002
3.106891e+003;4.681653e-002
3.108819e+003;4.628250e-002
3.110748e+003;4.582119e-002
3.112677e+003;4.535572e-002
3.114605e+003;4.459108e-002
3.116533e+003;4.382002e-002
3.118462e+003;4.348310e-002
3.120391e+003;4.344684e-002
3.122319e+003;4.329816e-002
3.124248e+003;4.329826e-002
3.126176e+003;4.350309e-002
3.128105e+003;4.336372e-002
3.130033e+003;4.302387e-002
3.131962e+003;4.281476e-002
3.133890e+003;4.245527e-002
3.135819e+003;4.199096e-002
3.137748e+003;4.153417e-002
3.139676e+003;4.084087e-002
3.141605e+003;4.041395e-002
3.143533e+003;4.033490e-002
3.145462e+003;4.021358e-002
3.147390e+003;4.000452e-002
3.149319e+003;3.959243e-002
3.151247e+003;3.943486e-002
3.153176e+003;3.941440e-002
3.155104e+003;3.910796e-002
3.157033e+003;3.872128e-002
3.158962e+003;3.854787e-002
3.160890e+003;3.845312e-002
3.162819e+003;3.858770e-002
3.164747e+003;3.858694e-002
3.166676e+003;3.850443e-002
3.168604e+003;3.836592e-002
3.170533e+003;3.812269e-002
3.172461e+003;3.791022e-002
3.174390e+003;3.791836e-002
3.176319e+003;3.798456e-002
3.178247e+003;3.788972e-002
3.180176e+003;3.772091e-002
3.182104e+003;3.743998e-002
3.184033e+003;3.737818e-002
3.185961e+003;3.773291e-002
3.187890e+003;3.796403e-002
3.189818e+003;3.748877e-002
3.191747e+003;3.693008e-002
3.193676e+003;3.709278e-002
3.195604e+003;3.729917e-002
3.197532e+003;3.728069e-002
3.199461e+003;3.742842e-002
3.201390e+003;3.728564e-002
3.203318e+003;3.683597e-002
3.205247e+003;3.653737e-002
3.207175e+003;3.667511e-002
3.209104e+003;3.700678e-002
3.211032e+003;3.682645e-002
3.212961e+003;3.656368e-002
3.214889e+003;3.663170e-002
3.216818e+003;3.670936e-002
3.218747e+003;3.656339e-002
3.220675e+003;3.670821e-002
3.222604e+003;3.669710e-002
3.224532e+003;3.663898e-002
3.226461e+003;3.672973e-002
3.228389e+003;3.690277e-002
3.230318e+003;3.713493e-002
3.232246e+003;3.727596e-002
3.234175e+003;3.700004e-002
3.236104e+003;3.650446e-002
3.238032e+003;3.630352e-002
3.239961e+003;3.646428e-002
3.241889e+003;3.653621e-002
3.243818e+003;3.657842e-002
3.245746e+003;3.654980e-002
3.247675e+003;3.621761e-002
3.249603e+003;3.570804e-002
3.251532e+003;3.582594e-002
3.253460e+003;3.635255e-002
3.255389e+003;3.624909e-002
3.257318e+003;3.561660e-002
3.259246e+003;3.541247e-002
3.261175e+003;3.568710e-002
3.263103e+003;3.545421e-002
3.265032e+003;3.488039e-002
3.266960e+003;3.480288e-002
3.268889e+003;3.491784e-002
3.270817e+003;3.510884e-002
3.272746e+003;3.554431e-002
3.274675e+003;3.575106e-002
3.276603e+003;3.536685e-002
3.278531e+003;3.520477e-002
3.280460e+003;3.517667e-002
3.282389e+003;3.509882e-002
3.284317e+003;3.523945e-002
3.286246e+003;3.548409e-002
3.288174e+003;3.555460e-002
3.290103e+003;3.529486e-002
3.292031e+003;3.535765e-002
3.293960e+003;3.570753e-002
3.295888e+003;3.550728e-002
3.297817e+003;3.536861e-002
3.299746e+003;3.542851e-002
3.301674e+003;3.545536e-002
3.303603e+003;3.539568e-002
3.305531e+003;3.529673e-002
3.307460e+003;3.545155e-002
3.309388e+003;3.560505e-002
3.311317e+003;3.528142e-002
3.313245e+003;3.500697e-002
3.315174e+003;3.507752e-002
3.317103e+003;3.519043e-002
3.319031e+003;3.518494e-002
3.320960e+003;3.510547e-002
3.322888e+003;3.543727e-002
3.324817e+003;3.541865e-002
3.326745e+003;3.521020e-002
3.328674e+003;3.508305e-002
3.330602e+003;3.512199e-002
3.332531e+003;3.556460e-002
3.334459e+003;3.594484e-002
3.336388e+003;3.595244e-002
3.338317e+003;3.587139e-002
3.340245e+003;3.589651e-002
3.342174e+003;3.592368e-002
3.344102e+003;3.545723e-002
3.346031e+003;3.488154e-002
3.347959e+003;3.499430e-002
3.349888e+003;3.505166e-002
3.351816e+003;3.490797e-002
3.353745e+003;3.464388e-002
3.355674e+003;3.430220e-002
3.357602e+003;3.401842e-002
3.359531e+003;3.392296e-002
3.361459e+003;3.394274e-002
3.363388e+003;3.384118e-002
3.365316e+003;3.356940e-002
3.367245e+003;3.344245e-002
3.369173e+003;3.370298e-002
3.371102e+003;3.409801e-002
3.373031e+003;3.420963e-002
3.374959e+003;3.420468e-002
3.376887e+003;3.414037e-002
3.378816e+003;3.397287e-002
3.380745e+003;3.419210e-002
3.382673e+003;3.474161e-002
3.384602e+003;3.460738e-002
3.386530e+003;3.405102e-002
3.388459e+003;3.365571e-002
3.390387e+003;3.359603e-002
3.392316e+003;3.405522e-002
3.394244e+003;3.442539e-002
3.396173e+003;3.427689e-002
3.398102e+003;3.457599e-002
3.400030e+003;3.513607e-002
3.401959e+003;3.566070e-002
3.403887e+003;3.607123e-002
3.405816e+003;3.658754e-002
3.407744e+003;3.716658e-002
3.409673e+003;3.784977e-002
3.411601e+003;3.857869e-002
3.413530e+003;3.922178e-002
3.415458e+003;4.008126e-002
3.417387e+003;4.064319e-002
3.419316e+003;4.129175e-002
3.421244e+003;4.231825e-002
3.423173e+003;4.321151e-002
3.425101e+003;4.362189e-002
3.427030e+003;4.397189e-002
3.428958e+003;4.422513e-002
3.430887e+003;4.436691e-002
3.432815e+003;4.409954e-002
3.434744e+003;4.386133e-002
3.436673e+003;4.408648e-002
3.438601e+003;4.384443e-002
3.440530e+003;4.282394e-002
3.442458e+003;4.197935e-002
3.444387e+003;4.150038e-002
3.446315e+003;4.083115e-002
3.448244e+003;4.020312e-002
3.450172e+003;3.942038e-002
3.452101e+003;3.872418e-002
3.454030e+003;3.813630e-002
3.455958e+003;3.767715e-002
3.457886e+003;3.733554e-002
3.459815e+003;3.693070e-002
3.461744e+003;3.641502e-002
3.463672e+003;3.572091e-002
3.465601e+003;3.489371e-002
3.467529e+003;3.474351e-002
3.469458e+003;3.489791e-002
3.471386e+003;3.463821e-002
3.473315e+003;3.415468e-002
3.475243e+003;3.369671e-002
3.477172e+003;3.352856e-002
3.479101e+003;3.360541e-002
3.481029e+003;3.357033e-002
3.482958e+003;3.364418e-002
3.484886e+003;3.365410e-002
3.486815e+003;3.369965e-002
3.488743e+003;3.336136e-002
3.490672e+003;3.283140e-002
3.492600e+003;3.275825e-002
3.494529e+003;3.281246e-002
3.496458e+003;3.325339e-002
3.498386e+003;3.351270e-002
3.500315e+003;3.332716e-002
3.502243e+003;3.341833e-002
3.504172e+003;3.367082e-002
3.506100e+003;3.367287e-002
3.508029e+003;3.344670e-002
3.509957e+003;3.366112e-002
3.511886e+003;3.391558e-002
3.513814e+003;3.420809e-002
3.515743e+003;3.432863e-002
3.517672e+003;3.430841e-002
3.519600e+003;3.427829e-002
3.521529e+003;3.423559e-002
3.523457e+003;3.418862e-002
3.525386e+003;3.442869e-002
3.527314e+003;3.485098e-002
3.529243e+003;3.519654e-002
3.531171e+003;3.532767e-002
3.533100e+003;3.537613e-002
3.535029e+003;3.513050e-002
3.536957e+003;3.509142e-002
3.538885e+003;3.533134e-002
3.540814e+003;3.562998e-002
3.542743e+003;3.564365e-002
3.544671e+003;3.533857e-002
3.546600e+003;3.544857e-002
3.548528e+003;3.581122e-002
3.550457e+003;3.538181e-002
3.552385e+003;3.519852e-002
3.554314e+003;3.565099e-002
3.556242e+003;3.551461e-002
3.558171e+003;3.497691e-002
3.560100e+003;3.494387e-002
3.562028e+003;3.518562e-002
3.563957e+003;3.458503e-002
3.565885e+003;3.335299e-002
3.567814e+003;3.343364e-002
3.569742e+003;3.417339e-002
3.571671e+003;3.439440e-002
3.573599e+003;3.453835e-002
3.575528e+003;3.451471e-002
3.577457e+003;3.427137e-002
3.579385e+003;3.419974e-002
3.581314e+003;3.391150e-002
3.583242e+003;3.313211e-002
3.585171e+003;3.205533e-002
3.587099e+003;3.084655e-002
3.589028e+003;3.106125e-002
3.590956e+003;3.181518e-002
3.592885e+003;3.139658e-002
3.594813e+003;3.103972e-002
3.596742e+003;3.152489e-002
3.598671e+003;3.171062e-002
3.600599e+003;3.160353e-002
3.602528e+003;3.203418e-002
3.604456e+003;3.192633e-002
3.606385e+003;3.085214e-002
3.608313e+003;2.987039e-002
3.610242e+003;2.988554e-002
3.612170e+003;3.002598e-002
3.614099e+003;3.058680e-002
3.616028e+003;3.052772e-002
3.617956e+003;2.983142e-002
3.619885e+003;3.048990e-002
3.621813e+003;3.202904e-002
3.623742e+003;3.247329e-002
3.625670e+003;3.120521e-002
3.627599e+003;2.834693e-002
3.629527e+003;2.852738e-002
3.631456e+003;3.108047e-002
3.633385e+003;3.195282e-002
3.635313e+003;3.222485e-002
3.637241e+003;3.227570e-002
3.639170e+003;3.222881e-002
3.641099e+003;3.199480e-002
3.643027e+003;3.192190e-002
3.644956e+003;3.106638e-002
3.646884e+003;2.892729e-002
3.648813e+003;2.742001e-002
3.650741e+003;2.865694e-002
3.652670e+003;3.040578e-002
3.654598e+003;2.949982e-002
3.656527e+003;2.935455e-002
3.658456e+003;3.075489e-002
3.660384e+003;3.096994e-002
3.662313e+003;3.080785e-002
3.664241e+003;3.038776e-002
3.666170e+003;2.968373e-002
3.668098e+003;2.759101e-002
3.670027e+003;2.566834e-002
3.671955e+003;2.665271e-002
3.673884e+003;2.547371e-002
3.675813e+003;2.464583e-002
3.677741e+003;2.760725e-002
3.679669e+003;2.942922e-002
3.681598e+003;3.012502e-002
3.683527e+003;3.018298e-002
3.685455e+003;2.924003e-002
3.687384e+003;2.669816e-002
3.689312e+003;2.643707e-002
3.691241e+003;2.817726e-002
3.693169e+003;2.913956e-002
3.695098e+003;2.903848e-002
3.697026e+003;2.885664e-002
3.698955e+003;2.877648e-002
3.700884e+003;2.801756e-002
3.702812e+003;2.787356e-002
3.704741e+003;2.809401e-002
3.706669e+003;2.761862e-002
3.708598e+003;2.629332e-002
3.710526e+003;2.460943e-002
3.712455e+003;2.488604e-002
3.714383e+003;2.705848e-002
3.716312e+003;2.753738e-002
3.718240e+003;2.707974e-002
3.720169e+003;2.673787e-002
3.722098e+003;2.682411e-002
3.724026e+003;2.701694e-002
3.725955e+003;2.731757e-002
3.727883e+003;2.791766e-002
3.729812e+003;2.734629e-002
3.731740e+003;2.606714e-002
3.733669e+003;2.536719e-002
3.735597e+003;2.456069e-002
3.737526e+003;2.568756e-002
3.739455e+003;2.675447e-002
3.741383e+003;2.548337e-002
3.743312e+003;2.137779e-002
3.745240e+003;2.224232e-002
3.747169e+003;2.441128e-002
3.749097e+003;2.240243e-002
3.751026e+003;2.194528e-002
3.752954e+003;2.463695e-002
3.754883e+003;2.751987e-002
3.756812e+003;2.786515e-002
3.758740e+003;2.773993e-002
3.760668e+003;2.823256e-002
3.762597e+003;2.902991e-002
3.764526e+003;2.833115e-002
3.766454e+003;2.791886e-002
3.768383e+003;2.717818e-002
3.770311e+003;2.737516e-002
3.772240e+003;2.851567e-002
3.774168e+003;2.873248e-002
3.776097e+003;2.823535e-002
3.778025e+003;2.763388e-002
3.779954e+003;2.748941e-002
3.781883e+003;2.790716e-002
3.783811e+003;2.802476e-002
3.785740e+003;2.811995e-002
3.787668e+003;2.814035e-002
3.789597e+003;2.843182e-002
3.791525e+003;2.882640e-002
3.793454e+003;2.871464e-002
3.795382e+003;2.791543e-002
3.797311e+003;2.743145e-002
3.799240e+003;2.553323e-002
3.801168e+003;2.428375e-002
3.803097e+003;2.628449e-002
3.805025e+003;2.603938e-002
3.806954e+003;2.532315e-002
3.808882e+003;2.737967e-002
3.810811e+003;2.873180e-002
3.812739e+003;2.816425e-002
3.814668e+003;2.522506e-002
3.816596e+003;2.515708e-002
3.818525e+003;2.600181e-002
3.820454e+003;2.478191e-002
3.822382e+003;2.616696e-002
3.824311e+003;2.801706e-002
3.826239e+003;2.810804e-002
3.828168e+003;2.763292e-002
3.830096e+003;2.667134e-002
3.832025e+003;2.646676e-002
3.833953e+003;2.658718e-002
3.835882e+003;2.485061e-002
3.837811e+003;2.373101e-002
3.839739e+003;2.545056e-002
3.841667e+003;2.666641e-002
3.843596e+003;2.738483e-002
3.845525e+003;2.818663e-002
3.847453e+003;2.829833e-002
3.849382e+003;2.639299e-002
3.851310e+003;2.163264e-002
3.853239e+003;1.861168e-002
3.855167e+003;2.261383e-002
3.857096e+003;2.683130e-002
3.859024e+003;2.771676e-002
3.860953e+003;2.706634e-002
3.862882e+003;2.622187e-002
3.864810e+003;2.618319e-002
3.866739e+003;2.654498e-002
3.868667e+003;2.500841e-002
3.870596e+003;2.516164e-002
3.872524e+003;2.628093e-002
3.874453e+003;2.690105e-002
3.876381e+003;2.796872e-002
3.878310e+003;2.768021e-002
3.880239e+003;2.706613e-002
3.882167e+003;2.737040e-002
3.884096e+003;2.648859e-002
3.886024e+003;2.651233e-002
3.887953e+003;2.806149e-002
3.889881e+003;2.749170e-002
3.891810e+003;2.751323e-002
3.893738e+003;2.850343e-002
3.895667e+003;2.832574e-002
3.897595e+003;2.718975e-002
3.899524e+003;2.658366e-002
3.901453e+003;2.655787e-002
3.903381e+003;2.682174e-002
3.905310e+003;2.760902e-002
3.907238e+003;2.877351e-002
3.909167e+003;2.916759e-002
3.911095e+003;2.895485e-002
3.913024e+003;2.893979e-002
3.914952e+003;2.902668e-002
3.916881e+003;2.902194e-002
3.918810e+003;2.891210e-002
3.920738e+003;2.902966e-002
3.922667e+003;2.925530e-002
3.924595e+003;2.931049e-002
3.926524e+003;2.956603e-002
3.928452e+003;2.963112e-002
3.930381e+003;2.914693e-002
3.932309e+003;2.880250e-002
3.934238e+003;2.939047e-002
3.936167e+003;2.936458e-002
3.938095e+003;2.911114e-002
3.940023e+003;2.890105e-002
3.941952e+003;2.866455e-002
3.943881e+003;2.901793e-002
3.945809e+003;2.901673e-002
3.947738e+003;2.903929e-002
3.949666e+003;2.963506e-002
3.951595e+003;2.983465e-002
3.953523e+003;2.941993e-002
3.955452e+003;2.976122e-002
3.957380e+003;3.031183e-002
3.959309e+003;3.044455e-002
3.961238e+003;3.038623e-002
3.963166e+003;3.060095e-002
3.965095e+003;3.024401e-002
3.967023e+003;2.994816e-002
3.968952e+003;2.992505e-002
3.970880e+003;2.963102e-002
3.972809e+003;2.981499e-002
3.974737e+003;2.980246e-002
3.976666e+003;2.987269e-002
3.978594e+003;3.018987e-002
3.980523e+003;3.043268e-002
3.982452e+003;3.066609e-002
3.984380e+003;3.077335e-002
3.986309e+003;3.036740e-002
3.988237e+003;2.978070e-002
3.990166e+003;2.976353e-002
3.992094e+003;3.006561e-002
3.994023e+003;3.008652e-002
3.995951e+003;3.015982e-002
3.997880e+003;3.016554e-002
3.999809e+003;3.023960e-002
4.001737e+003;0.000000e+000
