3.992094e+002;0.000000e+000
4.011380e+002;0.000000e+000
4.030665e+002;0.000000e+000
4.049951e+002;0.000000e+000
4.069236e+002;0.000000e+000
4.088522e+002;0.000000e+000
4.107807e+002;0.000000e+000
4.127093e+002;0.000000e+000
4.146378e+002;0.000000e+000
4.165664e+002;0.000000e+000
4.184949e+002;0.000000e+000
4.204235e+002;0.000000e+000
4.223520e+002;0.000000e+000
4.242806e+002;0.000000e+000
4.262091e+002;0.000000e+000
4.281377e+002;0.000000e+000
4.300662e+002;0.000000e+000
4.319948e+002;0.000000e+000
4.339233e+002;0.000000e+000
4.358519e+002;0.000000e+000
4.377804e+002;0.000000e+000
4.397090e+002;0.000000e+000
4.416375e+002;0.000000e+000
4.435660e+002;0.000000e+000
4.454946e+002;0.000000e+000
4.474232e+002;0.000000e+000
4.493517e+002;0.000000e+000
4.512802e+002;0.000000e+000
4.532088e+002;0.000000e+000
4.551373e+002;0.000000e+000
4.570659e+002;0.000000e+000
4.589944e+002;0.000000e+000
4.609230e+002;0.000000e+000
4.628515e+002;0.000000e+000
4.647801e+002;0.000000e+000
4.667086e+002;0.000000e+000
4.686372e+002;0.000000e+000
4.705657e+002;0.000000e+000
4.724943e+002;0.000000e+000
4.744228e+002;0.000000e+000
4.763513e+002;0.000000e+000
4.782799e+002;0.000000e+000
4.802085e+002;0.000000e+000
4.821370e+002;0.000000e+000
4.840656e+002;0.000000e+000
4.859941e+002;0.000000e+000
4.879226e+002;0.000000e+000
4.898512e+002;0.000000e+000
4.917798e+002;0.000000e+000
4.937083e+002;0.000000e+000
4.956368e+002;0.000000e+000
4.975654e+002;0.000000e+000
4.994939e+002;0.000000e+000
5.014225e+002;0.000000e+000
5.033510e+002;0.000000e+000
5.052796e+002;0.000000e+000
5.072081e+002;0.000000e+000
5.091367e+002;0.000000e+000
5.110652e+002;0.000000e+000
5.129938e+002;0.000000e+000
5.149223e+002;0.000000e+000
5.168509e+002;0.000000e+000
5.187794e+002;0.000000e+000
5.207079e+002;0.000000e+000
5.226365e+002;0.000000e+000
5.245651e+002;0.000000e+000
5.264936e+002;0.000000e+000
5.284222e+002;0.000000e+000
5.303507e+002;0.000000e+000
5.322792e+002;0.000000e+000
5.342078e+002;0.000000e+000
5.361364e+002;0.000000e+000
5.380649e+002;0.000000e+000
5.399935e+002;0.000000e+000
5.419220e+002;0.000000e+000
5.438505e+002;0.000000e+000
5.457791e+002;0.000000e+000
5.477076e+002;0.000000e+000
5.496362e+002;0.000000e+000
5.515648e+002;0.000000e+000
5.534933e+002;0.000000e+000
5.554218e+002;0.000000e+000
5.573504e+002;0.000000e+000
5.592789e+002;0.000000e+000
5.612075e+002;0.000000e+000
5.631360e+002;0.000000e+000
5.650646e+002;0.000000e+000
5.669931e+002;0.000000e+000
5.689217e+002;0.000000e+000
5.708502e+002;0.000000e+000
5.727787e+002;0.000000e+000
5.747073e+002;0.000000e+000
5.766359e+002;0.000000e+000
5.785644e+002;0.000000e+000
5.804930e+002;0.000000e+000
5.824215e+002;0.000000e+000
5.843500e+002;0.000000e+000
5.862786e+002;0.000000e+000
5.882072e+002;0.000000e+000
5.901357e+002;0.000000e+000
5.920643e+002;0.000000e+000
5.939928e+002;0.000000e+000
5.959213e+002;0.000000e+000
5.978499e+002;0.000000e+000
5.997784e+002;1.023083e-001
6.017070e+002;9.838910e-002
6.036355e+002;9.808534e-002
6.055641e+002;1.010842e-001
6.074926e+002;1.001469e-001
6.094211e+002;9.946173e-002
6.113497e+002;9.645495e-002
6.132783e+002;9.538447e-002
6.152068e+002;9.524120e-002
6.171354e+002;9.158211e-002
6.190639e+002;9.427031e-002
6.209924e+002;9.928529e-002
6.229210e+002;1.009234e-001
6.248495e+002;9.894174e-002
6.267781e+002;9.881804e-002
6.287067e+002;1.054653e-001
6.306352e+002;1.105347e-001
6.325637e+002;1.102732e-001
6.344923e+002;1.069160e-001
6.364208e+002;1.033273e-001
6.383494e+002;9.915213e-002
6.402780e+002;9.700566e-002
6.422065e+002;9.653564e-002
6.441350e+002;9.846459e-002
6.460636e+002;9.654805e-002
6.479921e+002;9.279174e-002
6.499207e+002;9.622572e-002
6.518492e+002;1.010206e-001
6.537778e+002;1.031964e-001
6.557063e+002;1.048150e-001
6.576349e+002;1.059227e-001
6.595634e+002;1.064606e-001
6.614919e+002;1.054119e-001
6.634205e+002;1.075961e-001
6.653491e+002;1.128090e-001
6.672776e+002;1.154040e-001
6.692062e+002;1.151316e-001
6.711347e+002;1.161731e-001
6.730632e+002;1.187077e-001
6.749918e+002;1.204339e-001
6.769203e+002;1.237663e-001
6.788489e+002;1.284813e-001
6.807775e+002;1.323401e-001
6.827060e+002;1.334921e-001
6.846345e+002;1.323834e-001
6.865631e+002;1.325485e-001
6.884916e+002;1.346412e-001
6.904202e+002;1.375256e-001
6.923488e+002;1.416433e-001
6.942773e+002;1.470053e-001
6.962058e+002;1.537189e-001
6.981344e+002;1.643780e-001
7.000629e+002;1.796740e-001
7.019915e+002;1.937294e-001
7.039200e+002;2.054991e-001
7.058486e+002;2.171743e-001
7.077771e+002;2.296150e-001
7.097057e+002;2.441903e-001
7.116342e+002;2.623999e-001
7.135627e+002;2.863809e-001
7.154913e+002;3.204364e-001
7.174199e+002;3.623352e-001
7.193484e+002;4.050244e-001
7.212770e+002;4.409237e-001
7.232055e+002;4.631009e-001
7.251340e+002;4.534616e-001
7.270626e+002;4.109455e-001
7.289911e+002;3.577290e-001
7.309197e+002;3.067135e-001
7.328483e+002;2.614507e-001
7.347768e+002;2.218156e-001
7.367053e+002;1.857308e-001
7.386339e+002;1.545551e-001
7.405624e+002;1.318294e-001
7.424910e+002;1.165194e-001
7.444196e+002;1.066881e-001
7.463481e+002;1.010454e-001
7.482766e+002;9.770152e-002
7.502052e+002;9.610271e-002
7.521337e+002;9.634594e-002
7.540623e+002;9.701626e-002
7.559908e+002;9.670591e-002
7.579194e+002;9.544205e-002
7.598479e+002;9.484179e-002
7.617765e+002;9.565043e-002
7.637050e+002;9.704891e-002
7.656335e+002;9.873917e-002
7.675621e+002;1.005381e-001
7.694907e+002;1.014968e-001
7.714192e+002;1.019325e-001
7.733478e+002;1.033885e-001
7.752763e+002;1.057970e-001
7.772048e+002;1.076169e-001
7.791334e+002;1.094244e-001
7.810620e+002;1.116392e-001
7.829905e+002;1.140793e-001
7.849191e+002;1.174548e-001
7.868476e+002;1.215209e-001
7.887761e+002;1.257505e-001
7.907047e+002;1.301057e-001
7.926332e+002;1.313060e-001
7.945618e+002;1.271293e-001
7.964903e+002;1.200851e-001
7.984189e+002;1.151444e-001
8.003474e+002;1.132499e-001
8.022759e+002;1.130833e-001
8.042045e+002;1.138462e-001
8.061331e+002;1.139696e-001
8.080616e+002;1.139451e-001
8.099902e+002;1.144996e-001
8.119187e+002;1.149813e-001
8.138472e+002;1.151207e-001
8.157758e+002;1.151162e-001
8.177043e+002;1.154178e-001
8.196329e+002;1.160417e-001
8.215615e+002;1.166442e-001
8.234900e+002;1.174489e-001
8.254185e+002;1.184200e-001
8.273471e+002;1.202551e-001
8.292756e+002;1.224831e-001
8.312042e+002;1.253420e-001
8.331328e+002;1.288690e-001
8.350613e+002;1.323920e-001
8.369898e+002;1.353169e-001
8.389184e+002;1.396009e-001
8.408469e+002;1.451317e-001
8.427755e+002;1.507540e-001
8.447040e+002;1.564929e-001
8.466326e+002;1.600405e-001
8.485611e+002;1.594693e-001
8.504897e+002;1.562002e-001
8.524182e+002;1.525598e-001
8.543467e+002;1.497766e-001
8.562753e+002;1.482839e-001
8.582039e+002;1.474090e-001
8.601324e+002;1.474185e-001
8.620610e+002;1.495611e-001
8.639895e+002;1.538674e-001
8.659180e+002;1.615151e-001
8.678466e+002;1.767097e-001
8.697751e+002;2.009109e-001
8.717037e+002;2.196393e-001
8.736323e+002;2.146369e-001
8.755608e+002;1.954383e-001
8.774893e+002;1.774197e-001
8.794179e+002;1.627154e-001
8.813464e+002;1.501332e-001
8.832750e+002;1.397887e-001
8.852036e+002;1.320511e-001
8.871321e+002;1.268365e-001
8.890606e+002;1.234621e-001
8.909892e+002;1.217669e-001
8.929177e+002;1.208386e-001
8.948463e+002;1.204190e-001
8.967748e+002;1.206350e-001
8.987034e+002;1.207146e-001
9.006319e+002;1.202122e-001
9.025605e+002;1.192072e-001
9.044890e+002;1.175764e-001
9.064175e+002;1.156931e-001
9.083461e+002;1.132728e-001
9.102747e+002;1.109525e-001
9.122032e+002;1.092742e-001
9.141318e+002;1.079117e-001
9.160603e+002;1.069059e-001
9.179888e+002;1.060935e-001
9.199174e+002;1.059694e-001
9.218459e+002;1.061523e-001
9.237745e+002;1.062955e-001
9.257031e+002;1.067058e-001
9.276316e+002;1.071015e-001
9.295601e+002;1.073505e-001
9.314887e+002;1.078518e-001
9.334172e+002;1.087345e-001
9.353458e+002;1.096057e-001
9.372744e+002;1.104797e-001
9.392029e+002;1.118421e-001
9.411314e+002;1.132477e-001
9.430600e+002;1.147019e-001
9.449885e+002;1.163947e-001
9.469171e+002;1.177458e-001
9.488456e+002;1.192021e-001
9.507742e+002;1.213760e-001
9.527027e+002;1.238902e-001
9.546313e+002;1.262273e-001
9.565598e+002;1.289203e-001
9.584883e+002;1.319369e-001
9.604169e+002;1.350424e-001
9.623455e+002;1.388747e-001
9.642740e+002;1.432158e-001
9.662026e+002;1.466067e-001
9.681311e+002;1.489073e-001
9.700596e+002;1.502302e-001
9.719882e+002;1.496863e-001
9.739167e+002;1.472385e-001
9.758453e+002;1.436096e-001
9.777739e+002;1.399324e-001
9.797024e+002;1.367004e-001
9.816309e+002;1.337927e-001
9.835595e+002;1.315036e-001
9.854880e+002;1.299918e-001
9.874166e+002;1.293403e-001
9.893452e+002;1.290682e-001
9.912737e+002;1.285258e-001
9.932022e+002;1.281810e-001
9.951307e+002;1.281289e-001
9.970593e+002;1.285746e-001
9.989879e+002;1.300028e-001
1.000916e+003;1.319056e-001
1.002845e+003;1.345990e-001
1.004773e+003;1.385140e-001
1.006702e+003;1.440423e-001
1.008631e+003;1.525842e-001
1.010559e+003;1.659619e-001
1.012488e+003;1.873136e-001
1.014416e+003;2.166950e-001
1.016345e+003;2.440703e-001
1.018273e+003;2.540492e-001
1.020202e+003;2.429361e-001
1.022130e+003;2.214865e-001
1.024059e+003;1.981493e-001
1.025988e+003;1.759095e-001
1.027916e+003;1.586288e-001
1.029845e+003;1.486330e-001
1.031773e+003;1.448509e-001
1.033702e+003;1.448142e-001
1.035630e+003;1.462219e-001
1.037559e+003;1.478065e-001
1.039487e+003;1.492853e-001
1.041416e+003;1.507640e-001
1.043344e+003;1.520000e-001
1.045273e+003;1.525728e-001
1.047202e+003;1.524937e-001
1.049130e+003;1.518461e-001
1.051059e+003;1.518110e-001
1.052987e+003;1.525982e-001
1.054916e+003;1.533996e-001
1.056844e+003;1.547504e-001
1.058773e+003;1.569400e-001
1.060701e+003;1.599613e-001
1.062630e+003;1.641922e-001
1.064558e+003;1.697993e-001
1.066487e+003;1.761205e-001
1.068416e+003;1.834461e-001
1.070344e+003;1.924166e-001
1.072273e+003;2.038242e-001
1.074201e+003;2.176836e-001
1.076130e+003;2.340329e-001
1.078058e+003;2.531089e-001
1.079987e+003;2.738632e-001
1.081915e+003;2.946001e-001
1.083844e+003;3.128168e-001
1.085773e+003;3.285028e-001
1.087701e+003;3.418674e-001
1.089630e+003;3.540466e-001
1.091558e+003;3.664440e-001
1.093487e+003;3.779021e-001
1.095415e+003;3.872294e-001
1.097344e+003;3.930275e-001
1.099272e+003;3.931573e-001
1.101201e+003;3.867306e-001
1.103129e+003;3.745722e-001
1.105058e+003;3.589957e-001
1.106987e+003;3.414079e-001
1.108915e+003;3.251556e-001
1.110844e+003;3.144078e-001
1.112772e+003;3.101397e-001
1.114701e+003;3.096583e-001
1.116629e+003;3.099412e-001
1.118558e+003;3.085552e-001
1.120486e+003;3.038734e-001
1.122415e+003;2.964107e-001
1.124344e+003;2.865335e-001
1.126272e+003;2.745455e-001
1.128201e+003;2.608302e-001
1.130129e+003;2.458867e-001
1.132058e+003;2.304181e-001
1.133986e+003;2.141260e-001
1.135915e+003;1.982531e-001
1.137843e+003;1.842321e-001
1.139772e+003;1.717372e-001
1.141700e+003;1.613389e-001
1.143629e+003;1.530090e-001
1.145557e+003;1.463864e-001
1.147486e+003;1.406418e-001
1.149415e+003;1.354523e-001
1.151343e+003;1.311264e-001
1.153272e+003;1.272705e-001
1.155200e+003;1.243051e-001
1.157129e+003;1.222922e-001
1.159057e+003;1.209047e-001
1.160986e+003;1.196273e-001
1.162914e+003;1.187882e-001
1.164843e+003;1.193613e-001
1.166771e+003;1.217887e-001
1.168700e+003;1.253959e-001
1.170629e+003;1.289449e-001
1.172557e+003;1.317967e-001
1.174486e+003;1.334329e-001
1.176414e+003;1.331484e-001
1.178343e+003;1.312165e-001
1.180271e+003;1.288102e-001
1.182200e+003;1.269870e-001
1.184128e+003;1.257108e-001
1.186057e+003;1.250613e-001
1.187986e+003;1.254469e-001
1.189914e+003;1.266653e-001
1.191843e+003;1.284334e-001
1.193771e+003;1.307987e-001
1.195700e+003;1.341281e-001
1.197628e+003;1.378448e-001
1.199557e+003;1.418928e-001
1.201485e+003;1.461208e-001
1.203414e+003;1.505890e-001
1.205343e+003;1.555429e-001
1.207271e+003;1.610637e-001
1.209200e+003;1.669977e-001
1.211128e+003;1.733586e-001
1.213057e+003;1.804711e-001
1.214985e+003;1.889597e-001
1.216914e+003;1.983510e-001
1.218842e+003;2.080573e-001
1.220771e+003;2.181308e-001
1.222699e+003;2.279545e-001
1.224628e+003;2.379127e-001
1.226557e+003;2.500752e-001
1.228485e+003;2.651974e-001
1.230414e+003;2.839530e-001
1.232342e+003;3.076917e-001
1.234271e+003;3.352691e-001
1.236199e+003;3.645542e-001
1.238128e+003;3.937625e-001
1.240056e+003;4.201382e-001
1.241985e+003;4.403900e-001
1.243913e+003;4.516248e-001
1.245842e+003;4.542565e-001
1.247771e+003;4.518669e-001
1.249699e+003;4.457975e-001
1.251628e+003;4.372498e-001
1.253556e+003;4.284744e-001
1.255485e+003;4.207578e-001
1.257413e+003;4.145468e-001
1.259342e+003;4.075526e-001
1.261270e+003;3.989828e-001
1.263199e+003;3.875567e-001
1.265127e+003;3.717982e-001
1.267056e+003;3.532742e-001
1.268985e+003;3.345252e-001
1.270913e+003;3.164431e-001
1.272842e+003;2.997476e-001
1.274770e+003;2.851835e-001
1.276699e+003;2.721912e-001
1.278627e+003;2.602532e-001
1.280556e+003;2.491963e-001
1.282484e+003;2.389988e-001
1.284413e+003;2.291170e-001
1.286342e+003;2.194533e-001
1.288270e+003;2.100207e-001
1.290199e+003;2.001017e-001
1.292127e+003;1.896966e-001
1.294056e+003;1.795069e-001
1.295984e+003;1.696459e-001
1.297913e+003;1.604637e-001
1.299841e+003;1.521878e-001
1.301770e+003;1.448268e-001
1.303698e+003;1.388213e-001
1.305627e+003;1.337769e-001
1.307556e+003;1.289496e-001
1.309484e+003;1.244482e-001
1.311413e+003;1.203603e-001
1.313341e+003;1.167798e-001
1.315270e+003;1.138853e-001
1.317198e+003;1.114182e-001
1.319127e+003;1.093628e-001
1.321055e+003;1.077474e-001
1.322984e+003;1.067992e-001
1.324912e+003;1.069427e-001
1.326841e+003;1.087668e-001
1.328770e+003;1.135175e-001
1.330698e+003;1.230558e-001
1.332627e+003;1.379489e-001
1.334555e+003;1.560134e-001
1.336484e+003;1.729063e-001
1.338412e+003;1.828505e-001
1.340341e+003;1.817574e-001
1.342269e+003;1.704625e-001
1.344198e+003;1.537125e-001
1.346126e+003;1.367307e-001
1.348055e+003;1.227383e-001
1.349984e+003;1.127318e-001
1.351912e+003;1.058463e-001
1.353841e+003;1.014671e-001
1.355769e+003;9.883872e-002
1.357698e+003;9.756349e-002
1.359626e+003;9.744454e-002
1.361555e+003;9.833637e-002
1.363483e+003;1.001699e-001
1.365412e+003;1.024214e-001
1.367341e+003;1.042270e-001
1.369269e+003;1.052449e-001
1.371198e+003;1.054788e-001
1.373126e+003;1.051524e-001
1.375055e+003;1.046421e-001
1.376983e+003;1.042730e-001
1.378912e+003;1.040318e-001
1.380840e+003;1.039154e-001
1.382769e+003;1.041403e-001
1.384698e+003;1.046207e-001
1.386626e+003;1.050901e-001
1.388555e+003;1.055099e-001
1.390483e+003;1.059460e-001
1.392412e+003;1.069716e-001
1.394340e+003;1.091070e-001
1.396269e+003;1.124089e-001
1.398197e+003;1.169387e-001
1.400126e+003;1.236847e-001
1.402054e+003;1.331398e-001
1.403983e+003;1.452305e-001
1.405911e+003;1.580297e-001
1.407840e+003;1.669581e-001
1.409769e+003;1.662334e-001
1.411697e+003;1.543135e-001
1.413626e+003;1.361478e-001
1.415554e+003;1.186471e-001
1.417483e+003;1.054809e-001
1.419411e+003;9.694062e-002
1.421340e+003;9.199753e-002
1.423268e+003;8.929353e-002
1.425197e+003;8.836776e-002
1.427125e+003;8.852125e-002
1.429054e+003;8.928356e-002
1.430983e+003;9.066166e-002
1.432911e+003;9.252396e-002
1.434840e+003;9.456269e-002
1.436768e+003;9.620193e-002
1.438697e+003;9.772426e-002
1.440625e+003;9.915788e-002
1.442554e+003;1.004044e-001
1.444482e+003;1.014788e-001
1.446411e+003;1.025964e-001
1.448340e+003;1.038688e-001
1.450268e+003;1.051699e-001
1.452197e+003;1.060563e-001
1.454125e+003;1.066549e-001
1.456054e+003;1.066978e-001
1.457982e+003;1.065432e-001
1.459911e+003;1.064955e-001
1.461839e+003;1.060225e-001
1.463768e+003;1.053514e-001
1.465697e+003;1.056207e-001
1.467625e+003;1.072490e-001
1.469554e+003;1.098668e-001
1.471482e+003;1.109640e-001
1.473411e+003;1.093568e-001
1.475339e+003;1.066570e-001
1.477268e+003;1.036671e-001
1.479196e+003;1.005997e-001
1.481125e+003;9.743194e-002
1.483053e+003;9.415781e-002
1.484982e+003;9.084276e-002
1.486911e+003;8.794204e-002
1.488839e+003;8.594777e-002
1.490768e+003;8.453534e-002
1.492696e+003;8.370560e-002
1.494625e+003;8.398473e-002
1.496553e+003;8.586059e-002
1.498482e+003;8.948400e-002
1.500410e+003;9.532703e-002
1.502339e+003;1.030181e-001
1.504267e+003;1.087843e-001
1.506196e+003;1.074447e-001
1.508125e+003;1.001174e-001
1.510053e+003;9.246935e-002
1.511982e+003;8.726536e-002
1.513910e+003;8.442356e-002
1.515839e+003;8.307933e-002
1.517767e+003;8.258406e-002
1.519696e+003;8.252776e-002
1.521624e+003;8.273825e-002
1.523553e+003;8.317346e-002
1.525481e+003;8.329122e-002
1.527410e+003;8.310874e-002
1.529339e+003;8.268823e-002
1.531267e+003;8.191955e-002
1.533196e+003;8.095536e-002
1.535124e+003;8.026041e-002
1.537053e+003;7.993679e-002
1.538981e+003;7.952371e-002
1.540910e+003;7.937089e-002
1.542838e+003;7.940093e-002
1.544767e+003;7.930598e-002
1.546695e+003;7.973048e-002
1.548624e+003;8.032247e-002
1.550553e+003;8.073073e-002
1.552481e+003;8.077575e-002
1.554410e+003;8.080428e-002
1.556338e+003;8.130272e-002
1.558267e+003;8.164439e-002
1.560195e+003;8.198813e-002
1.562124e+003;8.278087e-002
1.564052e+003;8.349842e-002
1.565981e+003;8.419794e-002
1.567910e+003;8.532427e-002
1.569838e+003;8.689365e-002
1.571767e+003;8.911821e-002
1.573695e+003;9.161489e-002
1.575624e+003;9.388204e-002
1.577552e+003;9.546215e-002
1.579481e+003;9.554546e-002
1.581409e+003;9.377914e-002
1.583338e+003;9.096232e-002
1.585266e+003;8.834806e-002
1.587195e+003;8.639433e-002
1.589124e+003;8.493887e-002
1.591052e+003;8.403977e-002
1.592981e+003;8.386876e-002
1.594909e+003;8.387330e-002
1.596838e+003;8.392555e-002
1.598766e+003;8.444341e-002
1.600695e+003;8.532870e-002
1.602623e+003;8.629838e-002
1.604552e+003;8.728666e-002
1.606480e+003;8.862612e-002
1.608409e+003;9.034652e-002
1.610338e+003;9.182496e-002
1.612266e+003;9.297406e-002
1.614195e+003;9.348634e-002
1.616123e+003;9.290544e-002
1.618052e+003;9.185901e-002
1.619980e+003;9.089957e-002
1.621909e+003;9.023935e-002
1.623837e+003;8.988091e-002
1.625766e+003;8.986673e-002
1.627694e+003;9.015844e-002
1.629623e+003;9.091546e-002
1.631552e+003;9.180277e-002
1.633480e+003;9.253158e-002
1.635409e+003;9.318779e-002
1.637337e+003;9.393588e-002
1.639266e+003;9.472371e-002
1.641194e+003;9.557635e-002
1.643123e+003;9.643840e-002
1.645051e+003;9.717753e-002
1.646980e+003;9.808733e-002
1.648909e+003;9.926739e-002
1.650837e+003;1.006263e-001
1.652766e+003;1.020110e-001
1.654694e+003;1.038536e-001
1.656623e+003;1.059491e-001
1.658551e+003;1.080116e-001
1.660480e+003;1.100006e-001
1.662408e+003;1.125693e-001
1.664337e+003;1.157703e-001
1.666266e+003;1.190075e-001
1.668194e+003;1.221600e-001
1.670123e+003;1.252376e-001
1.672051e+003;1.282246e-001
1.673980e+003;1.314705e-001
1.675908e+003;1.351500e-001
1.677837e+003;1.391423e-001
1.679765e+003;1.433863e-001
1.681694e+003;1.473711e-001
1.683622e+003;1.504766e-001
1.685551e+003;1.535259e-001
1.687479e+003;1.574664e-001
1.689408e+003;1.625961e-001
1.691337e+003;1.691245e-001
1.693265e+003;1.770068e-001
1.695194e+003;1.869842e-001
1.697122e+003;1.999848e-001
1.699051e+003;2.160459e-001
1.700979e+003;2.364255e-001
1.702908e+003;2.615845e-001
1.704836e+003;2.925459e-001
1.706765e+003;3.294248e-001
1.708693e+003;3.695261e-001
1.710622e+003;4.070699e-001
1.712551e+003;4.343536e-001
1.714479e+003;4.440869e-001
1.716408e+003;4.351560e-001
1.718336e+003;4.134808e-001
1.720265e+003;3.872884e-001
1.722193e+003;3.597451e-001
1.724122e+003;3.329293e-001
1.726050e+003;3.067930e-001
1.727979e+003;2.810695e-001
1.729908e+003;2.564669e-001
1.731836e+003;2.333685e-001
1.733765e+003;2.111500e-001
1.735693e+003;1.905964e-001
1.737622e+003;1.719254e-001
1.739550e+003;1.539755e-001
1.741479e+003;1.368260e-001
1.743407e+003;1.216194e-001
1.745336e+003;1.089661e-001
1.747265e+003;9.904785e-002
1.749193e+003;9.175267e-002
1.751122e+003;8.632966e-002
1.753050e+003;8.260017e-002
1.754979e+003;8.003881e-002
1.756907e+003;7.815665e-002
1.758836e+003;7.682461e-002
1.760764e+003;7.576004e-002
1.762693e+003;7.502518e-002
1.764621e+003;7.451761e-002
1.766550e+003;7.380833e-002
1.768479e+003;7.325808e-002
1.770407e+003;7.306684e-002
1.772336e+003;7.282732e-002
1.774264e+003;7.253734e-002
1.776193e+003;7.250614e-002
1.778121e+003;7.280792e-002
1.780050e+003;7.281012e-002
1.781978e+003;7.243033e-002
1.783907e+003;7.221480e-002
1.785835e+003;7.216503e-002
1.787764e+003;7.218953e-002
1.789693e+003;7.207374e-002
1.791621e+003;7.167693e-002
1.793550e+003;7.148552e-002
1.795478e+003;7.169010e-002
1.797407e+003;7.182722e-002
1.799335e+003;7.174243e-002
1.801264e+003;7.171582e-002
1.803192e+003;7.186659e-002
1.805121e+003;7.199230e-002
1.807049e+003;7.205136e-002
1.808978e+003;7.206728e-002
1.810907e+003;7.187836e-002
1.812835e+003;7.183430e-002
1.814764e+003;7.194522e-002
1.816692e+003;7.183813e-002
1.818621e+003;7.184548e-002
1.820549e+003;7.182370e-002
1.822478e+003;7.165063e-002
1.824406e+003;7.166877e-002
1.826335e+003;7.156752e-002
1.828264e+003;7.122143e-002
1.830192e+003;7.085902e-002
1.832121e+003;7.045853e-002
1.834049e+003;7.017489e-002
1.835978e+003;6.973989e-002
1.837906e+003;6.921262e-002
1.839835e+003;6.874280e-002
1.841763e+003;6.809531e-002
1.843692e+003;6.731170e-002
1.845620e+003;6.673898e-002
1.847549e+003;6.619001e-002
1.849478e+003;6.538987e-002
1.851406e+003;6.481756e-002
1.853335e+003;6.444862e-002
1.855263e+003;6.384953e-002
1.857192e+003;6.318469e-002
1.859120e+003;6.269456e-002
1.861049e+003;6.232233e-002
1.862977e+003;6.175550e-002
1.864906e+003;6.123610e-002
1.866834e+003;6.080493e-002
1.868763e+003;6.055685e-002
1.870692e+003;6.059190e-002
1.872620e+003;6.032154e-002
1.874549e+003;5.980157e-002
1.876477e+003;5.956569e-002
1.878406e+003;5.936583e-002
1.880334e+003;5.909753e-002
1.882263e+003;5.895933e-002
1.884191e+003;5.902108e-002
1.886120e+003;5.907050e-002
1.888048e+003;5.921846e-002
1.889977e+003;5.912456e-002
1.891906e+003;5.899663e-002
1.893834e+003;5.920065e-002
1.895763e+003;5.945116e-002
1.897691e+003;5.962445e-002
1.899620e+003;5.979526e-002
1.901548e+003;5.992483e-002
1.903477e+003;5.987934e-002
1.905405e+003;5.987413e-002
1.907334e+003;6.019086e-002
1.909262e+003;6.035086e-002
1.911191e+003;6.029741e-002
1.913120e+003;6.043451e-002
1.915048e+003;6.081038e-002
1.916977e+003;6.104603e-002
1.918905e+003;6.123865e-002
1.920834e+003;6.165956e-002
1.922762e+003;6.208606e-002
1.924691e+003;6.261651e-002
1.926619e+003;6.332598e-002
1.928548e+003;6.368345e-002
1.930477e+003;6.402279e-002
1.932405e+003;6.478694e-002
1.934334e+003;6.534311e-002
1.936262e+003;6.574442e-002
1.938191e+003;6.637659e-002
1.940119e+003;6.722675e-002
1.942048e+003;6.804489e-002
1.943976e+003;6.857813e-002
1.945905e+003;6.891580e-002
1.947833e+003;6.925365e-002
1.949762e+003;6.960794e-002
1.951691e+003;6.971885e-002
1.953619e+003;7.011320e-002
1.955548e+003;7.051817e-002
1.957476e+003;7.070907e-002
1.959405e+003;7.069995e-002
1.961333e+003;7.042070e-002
1.963262e+003;6.985605e-002
1.965190e+003;6.911217e-002
1.967119e+003;6.831967e-002
1.969047e+003;6.759283e-002
1.970976e+003;6.672144e-002
1.972905e+003;6.582407e-002
1.974833e+003;6.517638e-002
1.976762e+003;6.485534e-002
1.978690e+003;6.417240e-002
1.980619e+003;6.344411e-002
1.982547e+003;6.326139e-002
1.984476e+003;6.334622e-002
1.986404e+003;6.305178e-002
1.988333e+003;6.256618e-002
1.990261e+003;6.218623e-002
1.992190e+003;6.171501e-002
1.994119e+003;6.123770e-002
1.996047e+003;6.089638e-002
1.997976e+003;6.051800e-002
1.999904e+003;6.006198e-002
2.001833e+003;5.955144e-002
2.003761e+003;5.917149e-002
2.005690e+003;5.869917e-002
2.007618e+003;5.828893e-002
2.009547e+003;5.819777e-002
2.011476e+003;5.819049e-002
2.013404e+003;5.768995e-002
2.015333e+003;5.723507e-002
2.017261e+003;5.729109e-002
2.019190e+003;5.727915e-002
2.021118e+003;5.698482e-002
2.023047e+003;5.669054e-002
2.024975e+003;5.648188e-002
2.026904e+003;5.618821e-002
2.028833e+003;5.585331e-002
2.030761e+003;5.575897e-002
2.032690e+003;5.579597e-002
2.034618e+003;5.569034e-002
2.036547e+003;5.557083e-002
2.038475e+003;5.567154e-002
2.040404e+003;5.592096e-002
2.042332e+003;5.612742e-002
2.044261e+003;5.639137e-002
2.046189e+003;5.661851e-002
2.048118e+003;5.662855e-002
2.050047e+003;5.669631e-002
2.051975e+003;5.700314e-002
2.053904e+003;5.740218e-002
2.055832e+003;5.754035e-002
2.057761e+003;5.782491e-002
2.059689e+003;5.819129e-002
2.061618e+003;5.844413e-002
2.063546e+003;5.883930e-002
2.065475e+003;5.926392e-002
2.067404e+003;5.965387e-002
2.069332e+003;6.011148e-002
2.071260e+003;6.042701e-002
2.073189e+003;6.063677e-002
2.075118e+003;6.092024e-002
2.077046e+003;6.121496e-002
2.078975e+003;6.160587e-002
2.080903e+003;6.196101e-002
2.082832e+003;6.226179e-002
2.084760e+003;6.241084e-002
2.086689e+003;6.262175e-002
2.088617e+003;6.277108e-002
2.090546e+003;6.264250e-002
2.092475e+003;6.269394e-002
2.094403e+003;6.281764e-002
2.096332e+003;6.278513e-002
2.098260e+003;6.292138e-002
2.100189e+003;6.304112e-002
2.102117e+003;6.300285e-002
2.104046e+003;6.300772e-002
2.105974e+003;6.296826e-002
2.107903e+003;6.275366e-002
2.109832e+003;6.260407e-002
2.111760e+003;6.264836e-002
2.113688e+003;6.263416e-002
2.115617e+003;6.250756e-002
2.117546e+003;6.232382e-002
2.119474e+003;6.213618e-002
2.121403e+003;6.193751e-002
2.123331e+003;6.169187e-002
2.125260e+003;6.133393e-002
2.127188e+003;6.103768e-002
2.129117e+003;6.070688e-002
2.131045e+003;6.034919e-002
2.132974e+003;5.998155e-002
2.134903e+003;5.959936e-002
2.136831e+003;5.938752e-002
2.138760e+003;5.939774e-002
2.140688e+003;5.935911e-002
2.142617e+003;5.927478e-002
2.144545e+003;5.890316e-002
2.146474e+003;5.847544e-002
2.148402e+003;5.816473e-002
2.150331e+003;5.764934e-002
2.152260e+003;5.730474e-002
2.154188e+003;5.715286e-002
2.156117e+003;5.691818e-002
2.158045e+003;5.673891e-002
2.159974e+003;5.655189e-002
2.161902e+003;5.603249e-002
2.163831e+003;5.557550e-002
2.165759e+003;5.551383e-002
2.167688e+003;5.533408e-002
2.169616e+003;5.514323e-002
2.171545e+003;5.478986e-002
2.173474e+003;5.439069e-002
2.175402e+003;5.431750e-002
2.177331e+003;5.416793e-002
2.179259e+003;5.373053e-002
2.181188e+003;5.361550e-002
2.183116e+003;5.365232e-002
2.185045e+003;5.355586e-002
2.186973e+003;5.357996e-002
2.188902e+003;5.369866e-002
2.190831e+003;5.380617e-002
2.192759e+003;5.380546e-002
2.194688e+003;5.369352e-002
2.196616e+003;5.360043e-002
2.198545e+003;5.369993e-002
2.200473e+003;5.391341e-002
2.202402e+003;5.398791e-002
2.204330e+003;5.409835e-002
2.206259e+003;5.439764e-002
2.208188e+003;5.484865e-002
2.210116e+003;5.524184e-002
2.212044e+003;5.547968e-002
2.213973e+003;5.552237e-002
2.215902e+003;5.535903e-002
2.217830e+003;5.519642e-002
2.219759e+003;5.547591e-002
2.221687e+003;5.597203e-002
2.223616e+003;5.592371e-002
2.225544e+003;5.562311e-002
2.227473e+003;5.583384e-002
2.229401e+003;5.592356e-002
2.231330e+003;5.577163e-002
2.233259e+003;5.582185e-002
2.235187e+003;5.585686e-002
2.237116e+003;5.584725e-002
2.239044e+003;5.604716e-002
2.240973e+003;5.626545e-002
2.242901e+003;5.630264e-002
2.244830e+003;5.627797e-002
2.246758e+003;5.648981e-002
2.248687e+003;5.655415e-002
2.250615e+003;5.669042e-002
2.252544e+003;5.711518e-002
2.254473e+003;5.743720e-002
2.256401e+003;5.736116e-002
2.258330e+003;5.724626e-002
2.260258e+003;5.727726e-002
2.262187e+003;5.722664e-002
2.264115e+003;5.731529e-002
2.266044e+003;5.730864e-002
2.267972e+003;5.722754e-002
2.269901e+003;5.712421e-002
2.271830e+003;5.716427e-002
2.273758e+003;5.733627e-002
2.275687e+003;5.751758e-002
2.277615e+003;5.758582e-002
2.279544e+003;5.759792e-002
2.281472e+003;5.781896e-002
2.283401e+003;5.793257e-002
2.285329e+003;5.787098e-002
2.287258e+003;5.787355e-002
2.289187e+003;5.761862e-002
2.291115e+003;5.703688e-002
2.293043e+003;5.642083e-002
2.294972e+003;5.596856e-002
2.296901e+003;5.556970e-002
2.298829e+003;5.535109e-002
2.300758e+003;5.492223e-002
2.302686e+003;5.427147e-002
2.304615e+003;5.391033e-002
2.306543e+003;5.367443e-002
2.308472e+003;5.343979e-002
2.310400e+003;5.323318e-002
2.312329e+003;5.298785e-002
2.314258e+003;5.308129e-002
2.316186e+003;5.323524e-002
2.318115e+003;5.336680e-002
2.320043e+003;5.373311e-002
2.321972e+003;5.395951e-002
2.323900e+003;5.409141e-002
2.325829e+003;5.415397e-002
2.327757e+003;5.412818e-002
2.329686e+003;5.426922e-002
2.331615e+003;5.442227e-002
2.333543e+003;5.434198e-002
2.335472e+003;5.434882e-002
2.337400e+003;5.467188e-002
2.339329e+003;5.472055e-002
2.341257e+003;5.472062e-002
2.343186e+003;5.481403e-002
2.345114e+003;5.455604e-002
2.347043e+003;5.436128e-002
2.348971e+003;5.493723e-002
2.350900e+003;5.561384e-002
2.352829e+003;5.582182e-002
2.354757e+003;5.598292e-002
2.356686e+003;5.622449e-002
2.358614e+003;5.675076e-002
2.360543e+003;5.732183e-002
2.362471e+003;5.755695e-002
2.364400e+003;5.774406e-002
2.366328e+003;5.782581e-002
2.368257e+003;5.793292e-002
2.370186e+003;5.813507e-002
2.372114e+003;5.797801e-002
2.374042e+003;5.800797e-002
2.375971e+003;5.823778e-002
2.377900e+003;5.838451e-002
2.379828e+003;5.853129e-002
2.381757e+003;5.849311e-002
2.383685e+003;5.833789e-002
2.385614e+003;5.848249e-002
2.387542e+003;5.854088e-002
2.389471e+003;5.837166e-002
2.391399e+003;5.818784e-002
2.393328e+003;5.805477e-002
2.395257e+003;5.811394e-002
2.397185e+003;5.825683e-002
2.399114e+003;5.806220e-002
2.401042e+003;5.767038e-002
2.402971e+003;5.741682e-002
2.404899e+003;5.729090e-002
2.406828e+003;5.716544e-002
2.408756e+003;5.704527e-002
2.410685e+003;5.685635e-002
2.412614e+003;5.638333e-002
2.414542e+003;5.586760e-002
2.416471e+003;5.564845e-002
2.418399e+003;5.565644e-002
2.420328e+003;5.550317e-002
2.422256e+003;5.531115e-002
2.424185e+003;5.513040e-002
2.426113e+003;5.484448e-002
2.428042e+003;5.453365e-002
2.429970e+003;5.421711e-002
2.431899e+003;5.388576e-002
2.433828e+003;5.365104e-002
2.435756e+003;5.342098e-002
2.437685e+003;5.314779e-002
2.439613e+003;5.285348e-002
2.441542e+003;5.262856e-002
2.443470e+003;5.248151e-002
2.445399e+003;5.236009e-002
2.447327e+003;5.228059e-002
2.449256e+003;5.213557e-002
2.451185e+003;5.203713e-002
2.453113e+003;5.197465e-002
2.455042e+003;5.200733e-002
2.456970e+003;5.201853e-002
2.458899e+003;5.189369e-002
2.460827e+003;5.181185e-002
2.462756e+003;5.160001e-002
2.464684e+003;5.146469e-002
2.466613e+003;5.158348e-002
2.468542e+003;5.155967e-002
2.470470e+003;5.153288e-002
2.472398e+003;5.167221e-002
2.474327e+003;5.191139e-002
2.476256e+003;5.212063e-002
2.478184e+003;5.239706e-002
2.480113e+003;5.268728e-002
2.482041e+003;5.279941e-002
2.483970e+003;5.284746e-002
2.485898e+003;5.285389e-002
2.487827e+003;5.288697e-002
2.489755e+003;5.293342e-002
2.491684e+003;5.309219e-002
2.493613e+003;5.340963e-002
2.495541e+003;5.334518e-002
2.497470e+003;5.346974e-002
2.499398e+003;5.400941e-002
2.501327e+003;5.434131e-002
2.503255e+003;5.423152e-002
2.505184e+003;5.399422e-002
2.507112e+003;5.430856e-002
2.509041e+003;5.462096e-002
2.510969e+003;5.454601e-002
2.512898e+003;5.445307e-002
2.514827e+003;5.471502e-002
2.516755e+003;5.497544e-002
2.518684e+003;5.502474e-002
2.520612e+003;5.528684e-002
2.522541e+003;5.560160e-002
2.524469e+003;5.566793e-002
2.526398e+003;5.584141e-002
2.528326e+003;5.607336e-002
2.530255e+003;5.614692e-002
2.532184e+003;5.592563e-002
2.534112e+003;5.582830e-002
2.536041e+003;5.607373e-002
2.537969e+003;5.598658e-002
2.539898e+003;5.579446e-002
2.541826e+003;5.574869e-002
2.543755e+003;5.584228e-002
2.545683e+003;5.608908e-002
2.547612e+003;5.610819e-002
2.549541e+003;5.575724e-002
2.551469e+003;5.548130e-002
2.553397e+003;5.556895e-002
2.555326e+003;5.576504e-002
2.557255e+003;5.599909e-002
2.559183e+003;5.592058e-002
2.561112e+003;5.587796e-002
2.563040e+003;5.578418e-002
2.564969e+003;5.578222e-002
2.566897e+003;5.610186e-002
2.568826e+003;5.595104e-002
2.570754e+003;5.571682e-002
2.572683e+003;5.570514e-002
2.574612e+003;5.557336e-002
2.576540e+003;5.572013e-002
2.578469e+003;5.593864e-002
2.580397e+003;5.605085e-002
2.582326e+003;5.591825e-002
2.584254e+003;5.569184e-002
2.586183e+003;5.551996e-002
2.588111e+003;5.539019e-002
2.590040e+003;5.521648e-002
2.591969e+003;5.500917e-002
2.593897e+003;5.465824e-002
2.595826e+003;5.413614e-002
2.597754e+003;5.405508e-002
2.599683e+003;5.415746e-002
2.601611e+003;5.390031e-002
2.603540e+003;5.341993e-002
2.605468e+003;5.298343e-002
2.607397e+003;5.308758e-002
2.609325e+003;5.331529e-002
2.611254e+003;5.314352e-002
2.613183e+003;5.280962e-002
2.615111e+003;5.267763e-002
2.617040e+003;5.277221e-002
2.618968e+003;5.286553e-002
2.620897e+003;5.265803e-002
2.622825e+003;5.239878e-002
2.624754e+003;5.241590e-002
2.626682e+003;5.256288e-002
2.628611e+003;5.277498e-002
2.630540e+003;5.278747e-002
2.632468e+003;5.254306e-002
2.634396e+003;5.207501e-002
2.636325e+003;5.159325e-002
2.638254e+003;5.126062e-002
2.640182e+003;5.101609e-002
2.642111e+003;5.065240e-002
2.644039e+003;5.036610e-002
2.645968e+003;5.028246e-002
2.647896e+003;5.023682e-002
2.649825e+003;5.003600e-002
2.651753e+003;4.986129e-002
2.653682e+003;4.977463e-002
2.655611e+003;4.959215e-002
2.657539e+003;4.943763e-002
2.659468e+003;4.932681e-002
2.661396e+003;4.933160e-002
2.663325e+003;4.945277e-002
2.665253e+003;4.950599e-002
2.667182e+003;4.961295e-002
2.669110e+003;4.961711e-002
2.671039e+003;4.940514e-002
2.672968e+003;4.922723e-002
2.674896e+003;4.937332e-002
2.676825e+003;4.955196e-002
2.678753e+003;4.970704e-002
2.680682e+003;4.959308e-002
2.682610e+003;4.954617e-002
2.684539e+003;4.960767e-002
2.686467e+003;4.967249e-002
2.688396e+003;4.959943e-002
2.690324e+003;4.944580e-002
2.692253e+003;4.964348e-002
2.694182e+003;4.990080e-002
2.696110e+003;4.984330e-002
2.698039e+003;4.970043e-002
2.699967e+003;4.979220e-002
2.701896e+003;4.995704e-002
2.703824e+003;4.990938e-002
2.705753e+003;4.989485e-002
2.707681e+003;5.024694e-002
2.709610e+003;5.044785e-002
2.711539e+003;5.025501e-002
2.713467e+003;5.027591e-002
2.715396e+003;5.040308e-002
2.717324e+003;5.052046e-002
2.719253e+003;5.082661e-002
2.721181e+003;5.094694e-002
2.723110e+003;5.089604e-002
2.725038e+003;5.089839e-002
2.726967e+003;5.092939e-002
2.728896e+003;5.111538e-002
2.730824e+003;5.149237e-002
2.732752e+003;5.188495e-002
2.734681e+003;5.208768e-002
2.736610e+003;5.200206e-002
2.738538e+003;5.204946e-002
2.740467e+003;5.224042e-002
2.742395e+003;5.230197e-002
2.744324e+003;5.229666e-002
2.746252e+003;5.247796e-002
2.748181e+003;5.247097e-002
2.750109e+003;5.220540e-002
2.752038e+003;5.225794e-002
2.753967e+003;5.243052e-002
2.755895e+003;5.237463e-002
2.757824e+003;5.232723e-002
2.759752e+003;5.235060e-002
2.761681e+003;5.229920e-002
2.763609e+003;5.221979e-002
2.765538e+003;5.222151e-002
2.767466e+003;5.209082e-002
2.769395e+003;5.216210e-002
2.771323e+003;5.258454e-002
2.773252e+003;5.282141e-002
2.775181e+003;5.297707e-002
2.777109e+003;5.305508e-002
2.779038e+003;5.302509e-002
2.780966e+003;5.349518e-002
2.782895e+003;5.395437e-002
2.784823e+003;5.404247e-002
2.786752e+003;5.430229e-002
2.788680e+003;5.455472e-002
2.790609e+003;5.453793e-002
2.792538e+003;5.465102e-002
2.794466e+003;5.521001e-002
2.796395e+003;5.581104e-002
2.798323e+003;5.611325e-002
2.800252e+003;5.640114e-002
2.802180e+003;5.667298e-002
2.804109e+003;5.676224e-002
2.806037e+003;5.683686e-002
2.807966e+003;5.683561e-002
2.809895e+003;5.673233e-002
2.811823e+003;5.623177e-002
2.813751e+003;5.571720e-002
2.815680e+003;5.560040e-002
2.817609e+003;5.585196e-002
2.819537e+003;5.573531e-002
2.821466e+003;5.527472e-002
2.823394e+003;5.532813e-002
2.825323e+003;5.566307e-002
2.827251e+003;5.598386e-002
2.829180e+003;5.640189e-002
2.831108e+003;5.690447e-002
2.833037e+003;5.730176e-002
2.834966e+003;5.748421e-002
2.836894e+003;5.775924e-002
2.838823e+003;5.843772e-002
2.840751e+003;5.893663e-002
2.842680e+003;5.925496e-002
2.844608e+003;5.985230e-002
2.846537e+003;6.051129e-002
2.848465e+003;6.062938e-002
2.850394e+003;6.088224e-002
2.852323e+003;6.161622e-002
2.854251e+003;6.248502e-002
2.856180e+003;6.280807e-002
2.858108e+003;6.283169e-002
2.860037e+003;6.344564e-002
2.861965e+003;6.398281e-002
2.863894e+003;6.389805e-002
2.865822e+003;6.416338e-002
2.867751e+003;6.460208e-002
2.869679e+003;6.452961e-002
2.871608e+003;6.450636e-002
2.873536e+003;6.470933e-002
2.875465e+003;6.507275e-002
2.877394e+003;6.565187e-002
2.879322e+003;6.601358e-002
2.881251e+003;6.610242e-002
2.883179e+003;6.623428e-002
2.885108e+003;6.656008e-002
2.887036e+003;6.692769e-002
2.888965e+003;6.704897e-002
2.890893e+003;6.709432e-002
2.892822e+003;6.745015e-002
2.894750e+003;6.802319e-002
2.896679e+003;6.846143e-002
2.898608e+003;6.896888e-002
2.900536e+003;6.961269e-002
2.902465e+003;7.019202e-002
2.904393e+003;7.095584e-002
2.906322e+003;7.157428e-002
2.908250e+003;7.186690e-002
2.910179e+003;7.166646e-002
2.912107e+003;7.101187e-002
2.914036e+003;7.006484e-002
2.915965e+003;6.927258e-002
2.917893e+003;6.872079e-002
2.919822e+003;6.781425e-002
2.921750e+003;6.688617e-002
2.923679e+003;6.630475e-002
2.925607e+003;6.572580e-002
2.927536e+003;6.536029e-002
2.929464e+003;6.560162e-002
2.931393e+003;6.599356e-002
2.933322e+003;6.636431e-002
2.935250e+003;6.653950e-002
2.937178e+003;6.682963e-002
2.939107e+003;6.761818e-002
2.941036e+003;6.846810e-002
2.942964e+003;6.888244e-002
2.944893e+003;6.975444e-002
2.946821e+003;7.113457e-002
2.948750e+003;7.207150e-002
2.950678e+003;7.255579e-002
2.952607e+003;7.314313e-002
2.954535e+003;7.400854e-002
2.956464e+003;7.477435e-002
2.958393e+003;7.559396e-002
2.960321e+003;7.640757e-002
2.962250e+003;7.689390e-002
2.964178e+003;7.719599e-002
2.966107e+003;7.781957e-002
2.968035e+003;7.859174e-002
2.969964e+003;7.850090e-002
2.971892e+003;7.789798e-002
2.973821e+003;7.720663e-002
2.975750e+003;7.641365e-002
2.977678e+003;7.570975e-002
2.979607e+003;7.507288e-002
2.981535e+003;7.442722e-002
2.983464e+003;7.368177e-002
2.985392e+003;7.291408e-002
2.987321e+003;7.244275e-002
2.989249e+003;7.194158e-002
2.991178e+003;7.158589e-002
2.993106e+003;7.114909e-002
2.995035e+003;7.071936e-002
2.996964e+003;7.057761e-002
2.998892e+003;7.029863e-002
3.000821e+003;7.006784e-002
3.002749e+003;6.987488e-002
3.004678e+003;6.912076e-002
3.006606e+003;6.842330e-002
3.008535e+003;6.806919e-002
3.010463e+003;6.795523e-002
3.012392e+003;6.768858e-002
3.014321e+003;6.711319e-002
3.016249e+003;6.678384e-002
3.018177e+003;6.600313e-002
3.020106e+003;6.519417e-002
3.022035e+003;6.451693e-002
3.023963e+003;6.354450e-002
3.025892e+003;6.277908e-002
3.027820e+003;6.217334e-002
3.029749e+003;6.150324e-002
3.031677e+003;6.092192e-002
3.033606e+003;6.035973e-002
3.035534e+003;6.005132e-002
3.037463e+003;5.964805e-002
3.039392e+003;5.948338e-002
3.041320e+003;5.979089e-002
3.043249e+003;6.058656e-002
3.045177e+003;6.156814e-002
3.047106e+003;6.260928e-002
3.049034e+003;6.351041e-002
3.050963e+003;6.411410e-002
3.052891e+003;6.457037e-002
3.054820e+003;6.481771e-002
3.056749e+003;6.473240e-002
3.058677e+003;6.445447e-002
3.060606e+003;6.440854e-002
3.062534e+003;6.441357e-002
3.064463e+003;6.444374e-002
3.066391e+003;6.450970e-002
3.068320e+003;6.464695e-002
3.070248e+003;6.470518e-002
3.072177e+003;6.446546e-002
3.074105e+003;6.436792e-002
3.076034e+003;6.432708e-002
3.077963e+003;6.426056e-002
3.079891e+003;6.397033e-002
3.081820e+003;6.371687e-002
3.083748e+003;6.365191e-002
3.085677e+003;6.344411e-002
3.087605e+003;6.293835e-002
3.089534e+003;6.234096e-002
3.091462e+003;6.185742e-002
3.093391e+003;6.162343e-002
3.095320e+003;6.161625e-002
3.097248e+003;6.184687e-002
3.099177e+003;6.216306e-002
3.101105e+003;6.233686e-002
3.103034e+003;6.244183e-002
3.104962e+003;6.271821e-002
3.106891e+003;6.281109e-002
3.108819e+003;6.251708e-002
3.110748e+003;6.204352e-002
3.112677e+003;6.176176e-002
3.114605e+003;6.143514e-002
3.116533e+003;6.081919e-002
3.118462e+003;6.011323e-002
3.120391e+003;5.970245e-002
3.122319e+003;5.918911e-002
3.124248e+003;5.871411e-002
3.126176e+003;5.890214e-002
3.128105e+003;5.906986e-002
3.130033e+003;5.878584e-002
3.131962e+003;5.837204e-002
3.133890e+003;5.794132e-002
3.135819e+003;5.755385e-002
3.137748e+003;5.703204e-002
3.139676e+003;5.663078e-002
3.141605e+003;5.629754e-002
3.143533e+003;5.608980e-002
3.145462e+003;5.581081e-002
3.147390e+003;5.519594e-002
3.149319e+003;5.470096e-002
3.151247e+003;5.449578e-002
3.153176e+003;5.440259e-002
3.155104e+003;5.435978e-002
3.157033e+003;5.422886e-002
3.158962e+003;5.430256e-002
3.160890e+003;5.441304e-002
3.162819e+003;5.410188e-002
3.164747e+003;5.369344e-002
3.166676e+003;5.317947e-002
3.168604e+003;5.337096e-002
3.170533e+003;5.377853e-002
3.172461e+003;5.373837e-002
3.174390e+003;5.355485e-002
3.176319e+003;5.346745e-002
3.178247e+003;5.337422e-002
3.180176e+003;5.327700e-002
3.182104e+003;5.320468e-002
3.184033e+003;5.312952e-002
3.185961e+003;5.315925e-002
3.187890e+003;5.328813e-002
3.189818e+003;5.320483e-002
3.191747e+003;5.304426e-002
3.193676e+003;5.324195e-002
3.195604e+003;5.333237e-002
3.197532e+003;5.307201e-002
3.199461e+003;5.288061e-002
3.201390e+003;5.275541e-002
3.203318e+003;5.255372e-002
3.205247e+003;5.240719e-002
3.207175e+003;5.227195e-002
3.209104e+003;5.219550e-002
3.211032e+003;5.227491e-002
3.212961e+003;5.233344e-002
3.214889e+003;5.251846e-002
3.216818e+003;5.280929e-002
3.218747e+003;5.302476e-002
3.220675e+003;5.264655e-002
3.222604e+003;5.213284e-002
3.224532e+003;5.212713e-002
3.226461e+003;5.231882e-002
3.228389e+003;5.234648e-002
3.230318e+003;5.266016e-002
3.232246e+003;5.278317e-002
3.234175e+003;5.249905e-002
3.236104e+003;5.237418e-002
3.238032e+003;5.214334e-002
3.239961e+003;5.212772e-002
3.241889e+003;5.226975e-002
3.243818e+003;5.216651e-002
3.245746e+003;5.187424e-002
3.247675e+003;5.178296e-002
3.249603e+003;5.198832e-002
3.251532e+003;5.192562e-002
3.253460e+003;5.173697e-002
3.255389e+003;5.157419e-002
3.257318e+003;5.153989e-002
3.259246e+003;5.159374e-002
3.261175e+003;5.159083e-002
3.263103e+003;5.131214e-002
3.265032e+003;5.100968e-002
3.266960e+003;5.108049e-002
3.268889e+003;5.122542e-002
3.270817e+003;5.125368e-002
3.272746e+003;5.122952e-002
3.274675e+003;5.081678e-002
3.276603e+003;5.091463e-002
3.278531e+003;5.130167e-002
3.280460e+003;5.158127e-002
3.282389e+003;5.159217e-002
3.284317e+003;5.120428e-002
3.286246e+003;5.115612e-002
3.288174e+003;5.132654e-002
3.290103e+003;5.148073e-002
3.292031e+003;5.159366e-002
3.293960e+003;5.192909e-002
3.295888e+003;5.195721e-002
3.297817e+003;5.163463e-002
3.299746e+003;5.205055e-002
3.301674e+003;5.215003e-002
3.303603e+003;5.144190e-002
3.305531e+003;5.108474e-002
3.307460e+003;5.101091e-002
3.309388e+003;5.065836e-002
3.311317e+003;5.044417e-002
3.313245e+003;5.069150e-002
3.315174e+003;5.117673e-002
3.317103e+003;5.131785e-002
3.319031e+003;5.109365e-002
3.320960e+003;5.081093e-002
3.322888e+003;5.078508e-002
3.324817e+003;5.108675e-002
3.326745e+003;5.136089e-002
3.328674e+003;5.119261e-002
3.330602e+003;5.120600e-002
3.332531e+003;5.120704e-002
3.334459e+003;5.113338e-002
3.336388e+003;5.131110e-002
3.338317e+003;5.124347e-002
3.340245e+003;5.109700e-002
3.342174e+003;5.113386e-002
3.344102e+003;5.113520e-002
3.346031e+003;5.093479e-002
3.347959e+003;5.045574e-002
3.349888e+003;4.970589e-002
3.351816e+003;4.938984e-002
3.353745e+003;4.930354e-002
3.355674e+003;4.946659e-002
3.357602e+003;4.969724e-002
3.359531e+003;4.949704e-002
3.361459e+003;4.930462e-002
3.363388e+003;4.924979e-002
3.365316e+003;4.898630e-002
3.367245e+003;4.874639e-002
3.369173e+003;4.835948e-002
3.371102e+003;4.814417e-002
3.373031e+003;4.810141e-002
3.374959e+003;4.802509e-002
3.376887e+003;4.844008e-002
3.378816e+003;4.863746e-002
3.380745e+003;4.850999e-002
3.382673e+003;4.867133e-002
3.384602e+003;4.886503e-002
3.386530e+003;4.883856e-002
3.388459e+003;4.872471e-002
3.390387e+003;4.887226e-002
3.392316e+003;4.916174e-002
3.394244e+003;4.923692e-002
3.396173e+003;4.947424e-002
3.398102e+003;4.975757e-002
3.400030e+003;4.991053e-002
3.401959e+003;5.029935e-002
3.403887e+003;5.091780e-002
3.405816e+003;5.152143e-002
3.407744e+003;5.210863e-002
3.409673e+003;5.283458e-002
3.411601e+003;5.364853e-002
3.413530e+003;5.438367e-002
3.415458e+003;5.491756e-002
3.417387e+003;5.565350e-002
3.419316e+003;5.684019e-002
3.421244e+003;5.764170e-002
3.423173e+003;5.799157e-002
3.425101e+003;5.846115e-002
3.427030e+003;5.926863e-002
3.428958e+003;5.964091e-002
3.430887e+003;5.964380e-002
3.432815e+003;5.961696e-002
3.434744e+003;5.943668e-002
3.436673e+003;5.901812e-002
3.438601e+003;5.858934e-002
3.440530e+003;5.801054e-002
3.442458e+003;5.709511e-002
3.444387e+003;5.604810e-002
3.446315e+003;5.560891e-002
3.448244e+003;5.525527e-002
3.450172e+003;5.461957e-002
3.452101e+003;5.378895e-002
3.454030e+003;5.324161e-002
3.455958e+003;5.255926e-002
3.457886e+003;5.181066e-002
3.459815e+003;5.152728e-002
3.461744e+003;5.109648e-002
3.463672e+003;5.045083e-002
3.465601e+003;4.971147e-002
3.467529e+003;4.930409e-002
3.469458e+003;4.907818e-002
3.471386e+003;4.851595e-002
3.473315e+003;4.767843e-002
3.475243e+003;4.762699e-002
3.477172e+003;4.746696e-002
3.479101e+003;4.669446e-002
3.481029e+003;4.641581e-002
3.482958e+003;4.666096e-002
3.484886e+003;4.682653e-002
3.486815e+003;4.707893e-002
3.488743e+003;4.675483e-002
3.490672e+003;4.599855e-002
3.492600e+003;4.594396e-002
3.494529e+003;4.618675e-002
3.496458e+003;4.619847e-002
3.498386e+003;4.658464e-002
3.500315e+003;4.683539e-002
3.502243e+003;4.681749e-002
3.504172e+003;4.700483e-002
3.506100e+003;4.722774e-002
3.508029e+003;4.714109e-002
3.509957e+003;4.703558e-002
3.511886e+003;4.708990e-002
3.513814e+003;4.712447e-002
3.515743e+003;4.745765e-002
3.517672e+003;4.745864e-002
3.519600e+003;4.744678e-002
3.521529e+003;4.773279e-002
3.523457e+003;4.775405e-002
3.525386e+003;4.803257e-002
3.527314e+003;4.818282e-002
3.529243e+003;4.797354e-002
3.531171e+003;4.823846e-002
3.533100e+003;4.826283e-002
3.535029e+003;4.814272e-002
3.536957e+003;4.792204e-002
3.538885e+003;4.782921e-002
3.540814e+003;4.793983e-002
3.542743e+003;4.801373e-002
3.544671e+003;4.795774e-002
3.546600e+003;4.790028e-002
3.548528e+003;4.770416e-002
3.550457e+003;4.765176e-002
3.552385e+003;4.792030e-002
3.554314e+003;4.789066e-002
3.556242e+003;4.749217e-002
3.558171e+003;4.729708e-002
3.560100e+003;4.722464e-002
3.562028e+003;4.694073e-002
3.563957e+003;4.687602e-002
3.565885e+003;4.675391e-002
3.567814e+003;4.608973e-002
3.569742e+003;4.540019e-002
3.571671e+003;4.544581e-002
3.573599e+003;4.575510e-002
3.575528e+003;4.571847e-002
3.577457e+003;4.572351e-002
3.579385e+003;4.585576e-002
3.581314e+003;4.513057e-002
3.583242e+003;4.403334e-002
3.585171e+003;4.377948e-002
3.587099e+003;4.359031e-002
3.589028e+003;4.343674e-002
3.590956e+003;4.320038e-002
3.592885e+003;4.275326e-002
3.594813e+003;4.274353e-002
3.596742e+003;4.263197e-002
3.598671e+003;4.250987e-002
3.600599e+003;4.262290e-002
3.602528e+003;4.270007e-002
3.604456e+003;4.239495e-002
3.606385e+003;4.187914e-002
3.608313e+003;4.142772e-002
3.610242e+003;4.152375e-002
3.612170e+003;4.195026e-002
3.614099e+003;4.219079e-002
3.616028e+003;4.205768e-002
3.617956e+003;4.194118e-002
3.619885e+003;4.183328e-002
3.621813e+003;4.164192e-002
3.623742e+003;4.165279e-002
3.625670e+003;4.182682e-002
3.627599e+003;4.184353e-002
3.629527e+003;4.141581e-002
3.631456e+003;4.112952e-002
3.633385e+003;4.154380e-002
3.635313e+003;4.171618e-002
3.637241e+003;4.174664e-002
3.639170e+003;4.190582e-002
3.641099e+003;4.152673e-002
3.643027e+003;4.103952e-002
3.644956e+003;4.128366e-002
3.646884e+003;4.132691e-002
3.648813e+003;4.098745e-002
3.650741e+003;4.062714e-002
3.652670e+003;4.036770e-002
3.654598e+003;4.020221e-002
3.656527e+003;4.015983e-002
3.658456e+003;4.051204e-002
3.660384e+003;4.067171e-002
3.662313e+003;4.053444e-002
3.664241e+003;4.048338e-002
3.666170e+003;4.044326e-002
3.668098e+003;3.985624e-002
3.670027e+003;3.965447e-002
3.671955e+003;4.022471e-002
3.673884e+003;4.035359e-002
3.675813e+003;4.040479e-002
3.677741e+003;4.111976e-002
3.679669e+003;4.143133e-002
3.681598e+003;4.161505e-002
3.683527e+003;4.184131e-002
3.685455e+003;4.230451e-002
3.687384e+003;4.245538e-002
3.689312e+003;4.193782e-002
3.691241e+003;4.138129e-002
3.693169e+003;4.112292e-002
3.695098e+003;4.096760e-002
3.697026e+003;4.078412e-002
3.698955e+003;4.051982e-002
3.700884e+003;3.999984e-002
3.702812e+003;3.957635e-002
3.704741e+003;3.968863e-002
3.706669e+003;3.969992e-002
3.708598e+003;3.938842e-002
3.710526e+003;3.942535e-002
3.712455e+003;3.922360e-002
3.714383e+003;3.922824e-002
3.716312e+003;3.955516e-002
3.718240e+003;3.978942e-002
3.720169e+003;3.962942e-002
3.722098e+003;3.924093e-002
3.724026e+003;3.933915e-002
3.725955e+003;3.949230e-002
3.727883e+003;3.960187e-002
3.729812e+003;3.975867e-002
3.731740e+003;3.966267e-002
3.733669e+003;3.945540e-002
3.735597e+003;3.935207e-002
3.737526e+003;3.940007e-002
3.739455e+003;3.942996e-002
3.741383e+003;3.938055e-002
3.743312e+003;3.910872e-002
3.745240e+003;3.939992e-002
3.747169e+003;3.959345e-002
3.749097e+003;3.946599e-002
3.751026e+003;3.941697e-002
3.752954e+003;3.980438e-002
3.754883e+003;4.029294e-002
3.756812e+003;4.047217e-002
3.758740e+003;4.018480e-002
3.760668e+003;4.013933e-002
3.762597e+003;4.034228e-002
3.764526e+003;4.026956e-002
3.766454e+003;4.006615e-002
3.768383e+003;3.994167e-002
3.770311e+003;4.013664e-002
3.772240e+003;4.020428e-002
3.774168e+003;3.973786e-002
3.776097e+003;3.927147e-002
3.778025e+003;3.927274e-002
3.779954e+003;3.955523e-002
3.781883e+003;3.974977e-002
3.783811e+003;3.950007e-002
3.785740e+003;3.929000e-002
3.787668e+003;3.939546e-002
3.789597e+003;3.978299e-002
3.791525e+003;3.985980e-002
3.793454e+003;3.948323e-002
3.795382e+003;3.926668e-002
3.797311e+003;3.932029e-002
3.799240e+003;3.960074e-002
3.801168e+003;4.014616e-002
3.803097e+003;4.047257e-002
3.805025e+003;4.029698e-002
3.806954e+003;3.998287e-002
3.808882e+003;4.008722e-002
3.810811e+003;4.023445e-002
3.812739e+003;4.037446e-002
3.814668e+003;4.001208e-002
3.816596e+003;3.968137e-002
3.818525e+003;3.992765e-002
3.820454e+003;4.017466e-002
3.822382e+003;4.022685e-002
3.824311e+003;3.987804e-002
3.826239e+003;3.955879e-002
3.828168e+003;4.003381e-002
3.830096e+003;4.028578e-002
3.832025e+003;3.977856e-002
3.833953e+003;3.954899e-002
3.835882e+003;3.964826e-002
3.837811e+003;3.970261e-002
3.839739e+003;3.985359e-002
3.841667e+003;4.010426e-002
3.843596e+003;3.975885e-002
3.845525e+003;3.951905e-002
3.847453e+003;3.961544e-002
3.849382e+003;3.937510e-002
3.851310e+003;3.895676e-002
3.853239e+003;3.881815e-002
3.855167e+003;3.926759e-002
3.857096e+003;4.001190e-002
3.859024e+003;4.010782e-002
3.860953e+003;3.997331e-002
3.862882e+003;4.014046e-002
3.864810e+003;4.019207e-002
3.866739e+003;3.997560e-002
3.868667e+003;3.933317e-002
3.870596e+003;3.908972e-002
3.872524e+003;3.977297e-002
3.874453e+003;4.020933e-002
3.876381e+003;4.015627e-002
3.878310e+003;4.017996e-002
3.880239e+003;3.998534e-002
3.882167e+003;3.970112e-002
3.884096e+003;3.977468e-002
3.886024e+003;4.011055e-002
3.887953e+003;4.033715e-002
3.889881e+003;4.027851e-002
3.891810e+003;4.040813e-002
3.893738e+003;4.042533e-002
3.895667e+003;4.014700e-002
3.897595e+003;4.001604e-002
3.899524e+003;4.058727e-002
3.901453e+003;4.082133e-002
3.903381e+003;4.062514e-002
3.905310e+003;4.062939e-002
3.907238e+003;4.071738e-002
3.909167e+003;4.128760e-002
3.911095e+003;4.129219e-002
3.913024e+003;4.092183e-002
3.914952e+003;4.122321e-002
3.916881e+003;4.187086e-002
3.918810e+003;4.205622e-002
3.920738e+003;4.142383e-002
3.922667e+003;4.114183e-002
3.924595e+003;4.138198e-002
3.926524e+003;4.181350e-002
3.928452e+003;4.208327e-002
3.930381e+003;4.218269e-002
3.932309e+003;4.214227e-002
3.934238e+003;4.177341e-002
3.936167e+003;4.123025e-002
3.938095e+003;4.153235e-002
3.940023e+003;4.201935e-002
3.941952e+003;4.187878e-002
3.943881e+003;4.137539e-002
3.945809e+003;4.119924e-002
3.947738e+003;4.161242e-002
3.949666e+003;4.167336e-002
3.951595e+003;4.170498e-002
3.953523e+003;4.165531e-002
3.955452e+003;4.131624e-002
3.957380e+003;4.136132e-002
3.959309e+003;4.171024e-002
3.961238e+003;4.209769e-002
3.963166e+003;4.233655e-002
3.965095e+003;4.225623e-002
3.967023e+003;4.216209e-002
3.968952e+003;4.216841e-002
3.970880e+003;4.236672e-002
3.972809e+003;4.219408e-002
3.974737e+003;4.187064e-002
3.976666e+003;4.192939e-002
3.978594e+003;4.217699e-002
3.980523e+003;4.231003e-002
3.982452e+003;4.240445e-002
3.984380e+003;4.246459e-002
3.986309e+003;4.244084e-002
3.988237e+003;4.267996e-002
3.990166e+003;4.269093e-002
3.992094e+003;4.219174e-002
3.994023e+003;4.217027e-002
3.995951e+003;4.238166e-002
3.997880e+003;4.217980e-002
3.999809e+003;4.207867e-002
4.001737e+003;0.000000e+000
