3.992094e+002;0.000000e+000
4.011380e+002;0.000000e+000
4.030665e+002;0.000000e+000
4.049951e+002;0.000000e+000
4.069236e+002;0.000000e+000
4.088522e+002;0.000000e+000
4.107807e+002;0.000000e+000
4.127093e+002;0.000000e+000
4.146378e+002;0.000000e+000
4.165664e+002;0.000000e+000
4.184949e+002;0.000000e+000
4.204235e+002;0.000000e+000
4.223520e+002;0.000000e+000
4.242806e+002;0.000000e+000
4.262091e+002;0.000000e+000
4.281377e+002;0.000000e+000
4.300662e+002;0.000000e+000
4.319948e+002;0.000000e+000
4.339233e+002;0.000000e+000
4.358519e+002;0.000000e+000
4.377804e+002;0.000000e+000
4.397090e+002;0.000000e+000
4.416375e+002;0.000000e+000
4.435660e+002;0.000000e+000
4.454946e+002;0.000000e+000
4.474232e+002;0.000000e+000
4.493517e+002;0.000000e+000
4.512802e+002;0.000000e+000
4.532088e+002;0.000000e+000
4.551373e+002;0.000000e+000
4.570659e+002;0.000000e+000
4.589944e+002;0.000000e+000
4.609230e+002;0.000000e+000
4.628515e+002;0.000000e+000
4.647801e+002;0.000000e+000
4.667086e+002;0.000000e+000
4.686372e+002;0.000000e+000
4.705657e+002;0.000000e+000
4.724943e+002;0.000000e+000
4.744228e+002;0.000000e+000
4.763513e+002;0.000000e+000
4.782799e+002;0.000000e+000
4.802085e+002;0.000000e+000
4.821370e+002;0.000000e+000
4.840656e+002;0.000000e+000
4.859941e+002;0.000000e+000
4.879226e+002;0.000000e+000
4.898512e+002;0.000000e+000
4.917798e+002;0.000000e+000
4.937083e+002;0.000000e+000
4.956368e+002;0.000000e+000
4.975654e+002;0.000000e+000
4.994939e+002;0.000000e+000
5.014225e+002;0.000000e+000
5.033510e+002;0.000000e+000
5.052796e+002;0.000000e+000
5.072081e+002;0.000000e+000
5.091367e+002;0.000000e+000
5.110652e+002;0.000000e+000
5.129938e+002;0.000000e+000
5.149223e+002;0.000000e+000
5.168509e+002;0.000000e+000
5.187794e+002;0.000000e+000
5.207079e+002;0.000000e+000
5.226365e+002;0.000000e+000
5.245651e+002;0.000000e+000
5.264936e+002;0.000000e+000
5.284222e+002;0.000000e+000
5.303507e+002;0.000000e+000
5.322792e+002;0.000000e+000
5.342078e+002;0.000000e+000
5.361364e+002;0.000000e+000
5.380649e+002;0.000000e+000
5.399935e+002;0.000000e+000
5.419220e+002;0.000000e+000
5.438505e+002;0.000000e+000
5.457791e+002;0.000000e+000
5.477076e+002;0.000000e+000
5.496362e+002;0.000000e+000
5.515648e+002;0.000000e+000
5.534933e+002;0.000000e+000
5.554218e+002;0.000000e+000
5.573504e+002;0.000000e+000
5.592789e+002;0.000000e+000
5.612075e+002;0.000000e+000
5.631360e+002;0.000000e+000
5.650646e+002;0.000000e+000
5.669931e+002;0.000000e+000
5.689217e+002;0.000000e+000
5.708502e+002;0.000000e+000
5.727787e+002;0.000000e+000
5.747073e+002;0.000000e+000
5.766359e+002;0.000000e+000
5.785644e+002;0.000000e+000
5.804930e+002;0.000000e+000
5.824215e+002;0.000000e+000
5.843500e+002;0.000000e+000
5.862786e+002;0.000000e+000
5.882072e+002;0.000000e+000
5.901357e+002;0.000000e+000
5.920643e+002;0.000000e+000
5.939928e+002;0.000000e+000
5.959213e+002;0.000000e+000
5.978499e+002;0.000000e+000
5.997784e+002;6.893199e-002
6.017070e+002;7.152603e-002
6.036355e+002;8.006793e-002
6.055641e+002;8.417730e-002
6.074926e+002;7.850749e-002
6.094211e+002;7.610749e-002
6.113497e+002;7.792550e-002
6.132783e+002;7.459707e-002
6.152068e+002;7.436324e-002
6.171354e+002;7.938752e-002
6.190639e+002;8.175841e-002
6.209924e+002;8.072443e-002
6.229210e+002;8.205381e-002
6.248495e+002;8.483666e-002
6.267781e+002;8.706837e-002
6.287067e+002;9.381138e-002
6.306352e+002;1.011902e-001
6.325637e+002;9.997698e-002
6.344923e+002;9.447088e-002
6.364208e+002;8.966547e-002
6.383494e+002;8.587464e-002
6.402780e+002;8.697084e-002
6.422065e+002;8.744415e-002
6.441350e+002;8.695327e-002
6.460636e+002;8.575913e-002
6.479921e+002;8.575933e-002
6.499207e+002;8.807481e-002
6.518492e+002;9.013707e-002
6.537778e+002;9.200564e-002
6.557063e+002;9.239069e-002
6.576349e+002;9.267462e-002
6.595634e+002;9.379913e-002
6.614919e+002;9.440194e-002
6.634205e+002;9.648085e-002
6.653491e+002;1.015971e-001
6.672776e+002;1.049893e-001
6.692062e+002;1.062306e-001
6.711347e+002;1.076205e-001
6.730632e+002;1.101860e-001
6.749918e+002;1.147044e-001
6.769203e+002;1.198660e-001
6.788489e+002;1.261917e-001
6.807775e+002;1.298667e-001
6.827060e+002;1.310249e-001
6.846345e+002;1.308665e-001
6.865631e+002;1.308127e-001
6.884916e+002;1.331949e-001
6.904202e+002;1.361519e-001
6.923488e+002;1.403402e-001
6.942773e+002;1.478561e-001
6.962058e+002;1.587464e-001
6.981344e+002;1.744973e-001
7.000629e+002;1.943730e-001
7.019915e+002;2.131837e-001
7.039200e+002;2.283110e-001
7.058486e+002;2.436154e-001
7.077771e+002;2.609527e-001
7.097057e+002;2.801405e-001
7.116342e+002;3.034086e-001
7.135627e+002;3.327396e-001
7.154913e+002;3.725637e-001
7.174199e+002;4.232064e-001
7.193484e+002;4.795074e-001
7.212770e+002;5.314998e-001
7.232055e+002;5.640623e-001
7.251340e+002;5.508097e-001
7.270626e+002;4.960482e-001
7.289911e+002;4.292123e-001
7.309197e+002;3.634318e-001
7.328483e+002;3.068678e-001
7.347768e+002;2.587344e-001
7.367053e+002;2.140736e-001
7.386339e+002;1.750328e-001
7.405624e+002;1.444068e-001
7.424910e+002;1.216059e-001
7.444196e+002;1.057150e-001
7.463481e+002;9.601074e-002
7.482766e+002;9.056773e-002
7.502052e+002;8.758426e-002
7.521337e+002;8.648393e-002
7.540623e+002;8.542618e-002
7.559908e+002;8.326609e-002
7.579194e+002;8.196928e-002
7.598479e+002;8.203784e-002
7.617765e+002;8.350095e-002
7.637050e+002;8.533487e-002
7.656335e+002;8.712777e-002
7.675621e+002;8.920865e-002
7.694907e+002;9.119476e-002
7.714192e+002;9.316959e-002
7.733478e+002;9.512626e-002
7.752763e+002;9.762704e-002
7.772048e+002;1.004189e-001
7.791334e+002;1.032672e-001
7.810620e+002;1.063799e-001
7.829905e+002;1.107009e-001
7.849191e+002;1.160115e-001
7.868476e+002;1.221473e-001
7.887761e+002;1.285540e-001
7.907047e+002;1.337156e-001
7.926332e+002;1.342088e-001
7.945618e+002;1.274219e-001
7.964903e+002;1.168730e-001
7.984189e+002;1.087572e-001
8.003474e+002;1.051260e-001
8.022759e+002;1.042384e-001
8.042045e+002;1.048781e-001
8.061331e+002;1.056163e-001
8.080616e+002;1.061891e-001
8.099902e+002;1.072718e-001
8.119187e+002;1.082626e-001
8.138472e+002;1.083645e-001
8.157758e+002;1.082296e-001
8.177043e+002;1.089608e-001
8.196329e+002;1.101055e-001
8.215615e+002;1.111210e-001
8.234900e+002;1.126526e-001
8.254185e+002;1.140622e-001
8.273471e+002;1.162937e-001
8.292756e+002;1.196644e-001
8.312042e+002;1.232020e-001
8.331328e+002;1.277411e-001
8.350613e+002;1.335194e-001
8.369898e+002;1.390345e-001
8.389184e+002;1.448652e-001
8.408469e+002;1.510931e-001
8.427755e+002;1.578399e-001
8.447040e+002;1.647594e-001
8.466326e+002;1.698607e-001
8.485611e+002;1.704691e-001
8.504897e+002;1.667893e-001
8.524182e+002;1.626848e-001
8.543467e+002;1.599886e-001
8.562753e+002;1.584007e-001
8.582039e+002;1.573964e-001
8.601324e+002;1.577134e-001
8.620610e+002;1.602174e-001
8.639895e+002;1.655258e-001
8.659180e+002;1.760417e-001
8.678466e+002;1.945169e-001
8.697751e+002;2.222706e-001
8.717037e+002;2.463532e-001
8.736323e+002;2.437188e-001
8.755608e+002;2.209726e-001
8.774893e+002;1.983375e-001
8.794179e+002;1.802379e-001
8.813464e+002;1.645738e-001
8.832750e+002;1.503684e-001
8.852036e+002;1.384631e-001
8.871321e+002;1.295509e-001
8.890606e+002;1.233549e-001
8.909892e+002;1.199934e-001
8.929177e+002;1.179622e-001
8.948463e+002;1.168421e-001
8.967748e+002;1.164942e-001
8.987034e+002;1.159593e-001
9.006319e+002;1.154142e-001
9.025605e+002;1.142061e-001
9.044890e+002;1.121484e-001
9.064175e+002;1.100111e-001
9.083461e+002;1.074317e-001
9.102747e+002;1.048909e-001
9.122032e+002;1.028430e-001
9.141318e+002;1.009553e-001
9.160603e+002;9.925589e-002
9.179888e+002;9.803758e-002
9.199174e+002;9.768741e-002
9.218459e+002;9.773156e-002
9.237745e+002;9.819382e-002
9.257031e+002;9.911658e-002
9.276316e+002;9.984406e-002
9.295601e+002;1.003949e-001
9.314887e+002;1.016605e-001
9.334172e+002;1.031734e-001
9.353458e+002;1.046570e-001
9.372744e+002;1.063143e-001
9.392029e+002;1.081008e-001
9.411314e+002;1.100911e-001
9.430600e+002;1.127665e-001
9.449885e+002;1.152393e-001
9.469171e+002;1.174532e-001
9.488456e+002;1.203188e-001
9.507742e+002;1.239701e-001
9.527027e+002;1.277764e-001
9.546313e+002;1.314547e-001
9.565598e+002;1.353575e-001
9.584883e+002;1.396010e-001
9.604169e+002;1.441179e-001
9.623455e+002;1.494236e-001
9.642740e+002;1.545130e-001
9.662026e+002;1.582979e-001
9.681311e+002;1.610675e-001
9.700596e+002;1.625505e-001
9.719882e+002;1.619724e-001
9.739167e+002;1.594414e-001
9.758453e+002;1.554590e-001
9.777739e+002;1.510753e-001
9.797024e+002;1.467128e-001
9.816309e+002;1.432090e-001
9.835595e+002;1.407436e-001
9.854880e+002;1.389865e-001
9.874166e+002;1.377723e-001
9.893452e+002;1.365214e-001
9.912737e+002;1.355477e-001
9.932022e+002;1.353077e-001
9.951307e+002;1.352468e-001
9.970593e+002;1.358070e-001
9.989879e+002;1.374930e-001
1.000916e+003;1.397755e-001
1.002845e+003;1.434707e-001
1.004773e+003;1.491842e-001
1.006702e+003;1.571178e-001
1.008631e+003;1.685359e-001
1.010559e+003;1.857273e-001
1.012488e+003;2.119828e-001
1.014416e+003;2.479076e-001
1.016345e+003;2.828259e-001
1.018273e+003;2.979172e-001
1.020202e+003;2.873937e-001
1.022130e+003;2.620951e-001
1.024059e+003;2.332980e-001
1.025988e+003;2.055370e-001
1.027916e+003;1.819560e-001
1.029845e+003;1.660894e-001
1.031773e+003;1.582801e-001
1.033702e+003;1.565546e-001
1.035630e+003;1.579167e-001
1.037559e+003;1.600057e-001
1.039487e+003;1.624697e-001
1.041416e+003;1.654031e-001
1.043344e+003;1.678363e-001
1.045273e+003;1.694769e-001
1.047202e+003;1.708049e-001
1.049130e+003;1.714490e-001
1.051059e+003;1.716259e-001
1.052987e+003;1.723879e-001
1.054916e+003;1.737045e-001
1.056844e+003;1.761594e-001
1.058773e+003;1.797848e-001
1.060701e+003;1.842428e-001
1.062630e+003;1.901196e-001
1.064558e+003;1.984066e-001
1.066487e+003;2.077016e-001
1.068416e+003;2.178546e-001
1.070344e+003;2.307022e-001
1.072273e+003;2.467977e-001
1.074201e+003;2.659182e-001
1.076130e+003;2.878378e-001
1.078058e+003;3.139492e-001
1.079987e+003;3.430839e-001
1.081915e+003;3.729323e-001
1.083844e+003;4.001215e-001
1.085773e+003;4.233553e-001
1.087701e+003;4.424638e-001
1.089630e+003;4.583461e-001
1.091558e+003;4.723608e-001
1.093487e+003;4.848526e-001
1.095415e+003;4.941880e-001
1.097344e+003;4.983775e-001
1.099272e+003;4.965374e-001
1.101201e+003;4.876439e-001
1.103129e+003;4.713893e-001
1.105058e+003;4.509189e-001
1.106987e+003;4.276058e-001
1.108915e+003;4.048563e-001
1.110844e+003;3.881501e-001
1.112772e+003;3.785984e-001
1.114701e+003;3.747555e-001
1.116629e+003;3.726516e-001
1.118558e+003;3.688940e-001
1.120486e+003;3.622842e-001
1.122415e+003;3.521232e-001
1.124344e+003;3.391401e-001
1.126272e+003;3.234081e-001
1.128201e+003;3.049863e-001
1.130129e+003;2.845901e-001
1.132058e+003;2.634317e-001
1.133986e+003;2.424818e-001
1.135915e+003;2.219889e-001
1.137843e+003;2.032257e-001
1.139772e+003;1.870864e-001
1.141700e+003;1.734704e-001
1.143629e+003;1.623395e-001
1.145557e+003;1.529049e-001
1.147486e+003;1.447052e-001
1.149415e+003;1.379920e-001
1.151343e+003;1.326878e-001
1.153272e+003;1.277609e-001
1.155200e+003;1.237946e-001
1.157129e+003;1.212986e-001
1.159057e+003;1.195437e-001
1.160986e+003;1.180811e-001
1.162914e+003;1.175727e-001
1.164843e+003;1.187736e-001
1.166771e+003;1.217228e-001
1.168700e+003;1.264267e-001
1.170629e+003;1.319493e-001
1.172557e+003;1.360773e-001
1.174486e+003;1.382227e-001
1.176414e+003;1.388270e-001
1.178343e+003;1.374520e-001
1.180271e+003;1.346719e-001
1.182200e+003;1.319911e-001
1.184128e+003;1.301985e-001
1.186057e+003;1.294822e-001
1.187986e+003;1.296351e-001
1.189914e+003;1.306946e-001
1.191843e+003;1.330724e-001
1.193771e+003;1.366403e-001
1.195700e+003;1.412693e-001
1.197628e+003;1.464859e-001
1.199557e+003;1.518820e-001
1.201485e+003;1.581956e-001
1.203414e+003;1.651587e-001
1.205343e+003;1.723041e-001
1.207271e+003;1.803871e-001
1.209200e+003;1.890240e-001
1.211128e+003;1.980243e-001
1.213057e+003;2.078717e-001
1.214985e+003;2.188202e-001
1.216914e+003;2.309926e-001
1.218842e+003;2.438966e-001
1.220771e+003;2.576523e-001
1.222699e+003;2.715312e-001
1.224628e+003;2.850406e-001
1.226557e+003;3.004207e-001
1.228485e+003;3.197938e-001
1.230414e+003;3.438970e-001
1.232342e+003;3.739335e-001
1.234271e+003;4.099197e-001
1.236199e+003;4.497344e-001
1.238128e+003;4.906234e-001
1.240056e+003;5.287651e-001
1.241985e+003;5.585306e-001
1.243913e+003;5.765579e-001
1.245842e+003;5.835865e-001
1.247771e+003;5.810060e-001
1.249699e+003;5.711245e-001
1.251628e+003;5.566411e-001
1.253556e+003;5.399877e-001
1.255485e+003;5.237502e-001
1.257413e+003;5.091836e-001
1.259342e+003;4.956377e-001
1.261270e+003;4.808601e-001
1.263199e+003;4.631726e-001
1.265127e+003;4.415250e-001
1.267056e+003;4.177373e-001
1.268985e+003;3.935055e-001
1.270913e+003;3.700512e-001
1.272842e+003;3.481614e-001
1.274770e+003;3.289746e-001
1.276699e+003;3.122211e-001
1.278627e+003;2.969951e-001
1.280556e+003;2.836562e-001
1.282484e+003;2.712696e-001
1.284413e+003;2.590354e-001
1.286342e+003;2.473013e-001
1.288270e+003;2.358536e-001
1.290199e+003;2.239023e-001
1.292127e+003;2.118228e-001
1.294056e+003;1.998693e-001
1.295984e+003;1.881378e-001
1.297913e+003;1.769240e-001
1.299841e+003;1.662277e-001
1.301770e+003;1.563897e-001
1.303698e+003;1.481385e-001
1.305627e+003;1.413883e-001
1.307556e+003;1.351169e-001
1.309484e+003;1.290209e-001
1.311413e+003;1.234462e-001
1.313341e+003;1.185690e-001
1.315270e+003;1.144144e-001
1.317198e+003;1.109309e-001
1.319127e+003;1.080585e-001
1.321055e+003;1.060217e-001
1.322984e+003;1.050055e-001
1.324912e+003;1.051213e-001
1.326841e+003;1.074531e-001
1.328770e+003;1.138798e-001
1.330698e+003;1.260600e-001
1.332627e+003;1.444147e-001
1.334555e+003;1.669036e-001
1.336484e+003;1.882592e-001
1.338412e+003;2.011239e-001
1.340341e+003;2.004388e-001
1.342269e+003;1.871226e-001
1.344198e+003;1.666242e-001
1.346126e+003;1.454306e-001
1.348055e+003;1.273163e-001
1.349984e+003;1.138015e-001
1.351912e+003;1.045276e-001
1.353841e+003;9.859138e-002
1.355769e+003;9.483639e-002
1.357698e+003;9.278686e-002
1.359626e+003;9.225766e-002
1.361555e+003;9.338572e-002
1.363483e+003;9.569408e-002
1.365412e+003;9.829611e-002
1.367341e+003;1.008795e-001
1.369269e+003;1.026648e-001
1.371198e+003;1.034123e-001
1.373126e+003;1.032936e-001
1.375055e+003;1.023948e-001
1.376983e+003;1.016433e-001
1.378912e+003;1.015632e-001
1.380840e+003;1.018523e-001
1.382769e+003;1.025580e-001
1.384698e+003;1.037576e-001
1.386626e+003;1.051859e-001
1.388555e+003;1.067550e-001
1.390483e+003;1.083158e-001
1.392412e+003;1.100018e-001
1.394340e+003;1.124085e-001
1.396269e+003;1.162503e-001
1.398197e+003;1.219177e-001
1.400126e+003;1.300326e-001
1.402054e+003;1.411553e-001
1.403983e+003;1.551826e-001
1.405911e+003;1.708679e-001
1.407840e+003;1.836473e-001
1.409769e+003;1.866108e-001
1.411697e+003;1.762375e-001
1.413626e+003;1.556320e-001
1.415554e+003;1.323192e-001
1.417483e+003;1.125971e-001
1.419411e+003;9.870133e-002
1.421340e+003;9.005728e-002
1.423268e+003;8.500528e-002
1.425197e+003;8.266506e-002
1.427125e+003;8.220721e-002
1.429054e+003;8.313727e-002
1.430983e+003;8.522213e-002
1.432911e+003;8.793766e-002
1.434840e+003;9.087200e-002
1.436768e+003;9.339122e-002
1.438697e+003;9.565088e-002
1.440625e+003;9.780248e-002
1.442554e+003;9.972774e-002
1.444482e+003;1.014487e-001
1.446411e+003;1.030698e-001
1.448340e+003;1.046825e-001
1.450268e+003;1.064742e-001
1.452197e+003;1.079015e-001
1.454125e+003;1.087989e-001
1.456054e+003;1.092830e-001
1.457982e+003;1.094691e-001
1.459911e+003;1.092439e-001
1.461839e+003;1.086329e-001
1.463768e+003;1.081452e-001
1.465697e+003;1.086939e-001
1.467625e+003;1.111968e-001
1.469554e+003;1.152650e-001
1.471482e+003;1.168283e-001
1.473411e+003;1.137299e-001
1.475339e+003;1.090914e-001
1.477268e+003;1.046737e-001
1.479196e+003;1.003481e-001
1.481125e+003;9.589770e-002
1.483053e+003;9.139952e-002
1.484982e+003;8.703990e-002
1.486911e+003;8.299617e-002
1.488839e+003;7.975226e-002
1.490768e+003;7.717161e-002
1.492696e+003;7.535612e-002
1.494625e+003;7.550122e-002
1.496553e+003;7.804580e-002
1.498482e+003;8.277065e-002
1.500410e+003;9.055234e-002
1.502339e+003;1.009101e-001
1.504267e+003;1.099261e-001
1.506196e+003;1.114784e-001
1.508125e+003;1.036401e-001
1.510053e+003;9.220459e-002
1.511982e+003;8.290557e-002
1.513910e+003;7.719729e-002
1.515839e+003;7.407773e-002
1.517767e+003;7.280424e-002
1.519696e+003;7.267277e-002
1.521624e+003;7.310031e-002
1.523553e+003;7.382780e-002
1.525481e+003;7.396540e-002
1.527410e+003;7.353092e-002
1.529339e+003;7.268577e-002
1.531267e+003;7.159538e-002
1.533196e+003;7.048184e-002
1.535124e+003;6.924790e-002
1.537053e+003;6.855392e-002
1.538981e+003;6.825464e-002
1.540910e+003;6.792504e-002
1.542838e+003;6.781572e-002
1.544767e+003;6.787475e-002
1.546695e+003;6.811911e-002
1.548624e+003;6.849366e-002
1.550553e+003;6.913681e-002
1.552481e+003;6.945337e-002
1.554410e+003;6.966925e-002
1.556338e+003;7.052456e-002
1.558267e+003;7.109172e-002
1.560195e+003;7.138260e-002
1.562124e+003;7.229628e-002
1.564052e+003;7.361480e-002
1.565981e+003;7.503758e-002
1.567910e+003;7.678463e-002
1.569838e+003;7.920529e-002
1.571767e+003;8.247668e-002
1.573695e+003;8.654536e-002
1.575624e+003;9.048700e-002
1.577552e+003;9.324873e-002
1.579481e+003;9.419338e-002
1.581409e+003;9.242786e-002
1.583338e+003;8.840841e-002
1.585266e+003;8.384135e-002
1.587195e+003;7.998578e-002
1.589124e+003;7.722539e-002
1.591052e+003;7.571760e-002
1.592981e+003;7.507508e-002
1.594909e+003;7.487075e-002
1.596838e+003;7.504306e-002
1.598766e+003;7.567291e-002
1.600695e+003;7.699987e-002
1.602623e+003;7.878945e-002
1.604552e+003;8.063059e-002
1.606480e+003;8.267504e-002
1.608409e+003;8.537641e-002
1.610338e+003;8.811507e-002
1.612266e+003;9.044166e-002
1.614195e+003;9.159528e-002
1.616123e+003;9.118413e-002
1.618052e+003;8.965341e-002
1.619980e+003;8.779272e-002
1.621909e+003;8.618910e-002
1.623837e+003;8.519004e-002
1.625766e+003;8.502430e-002
1.627694e+003;8.561359e-002
1.629623e+003;8.649246e-002
1.631552e+003;8.736011e-002
1.633480e+003;8.815286e-002
1.635409e+003;8.918481e-002
1.637337e+003;9.029119e-002
1.639266e+003;9.144218e-002
1.641194e+003;9.270579e-002
1.643123e+003;9.418103e-002
1.645051e+003;9.553985e-002
1.646980e+003;9.674048e-002
1.648909e+003;9.841175e-002
1.650837e+003;1.006058e-001
1.652766e+003;1.026679e-001
1.654694e+003;1.049934e-001
1.656623e+003;1.079306e-001
1.658551e+003;1.113334e-001
1.660480e+003;1.147918e-001
1.662408e+003;1.186975e-001
1.664337e+003;1.234202e-001
1.666266e+003;1.284989e-001
1.668194e+003;1.332488e-001
1.670123e+003;1.379281e-001
1.672051e+003;1.429514e-001
1.673980e+003;1.483252e-001
1.675908e+003;1.540826e-001
1.677837e+003;1.599467e-001
1.679765e+003;1.659012e-001
1.681694e+003;1.714910e-001
1.683622e+003;1.761480e-001
1.685551e+003;1.810212e-001
1.687479e+003;1.870966e-001
1.689408e+003;1.945007e-001
1.691337e+003;2.038335e-001
1.693265e+003;2.156830e-001
1.695194e+003;2.304786e-001
1.697122e+003;2.491471e-001
1.699051e+003;2.725463e-001
1.700979e+003;3.021870e-001
1.702908e+003;3.380946e-001
1.704836e+003;3.820723e-001
1.706765e+003;4.337454e-001
1.708693e+003;4.887241e-001
1.710622e+003;5.392359e-001
1.712551e+003;5.751865e-001
1.714479e+003;5.857627e-001
1.716408e+003;5.700231e-001
1.718336e+003;5.366253e-001
1.720265e+003;4.963667e-001
1.722193e+003;4.550492e-001
1.724122e+003;4.158272e-001
1.726050e+003;3.786851e-001
1.727979e+003;3.432734e-001
1.729908e+003;3.099419e-001
1.731836e+003;2.792580e-001
1.733765e+003;2.500013e-001
1.735693e+003;2.229943e-001
1.737622e+003;1.985441e-001
1.739550e+003;1.756128e-001
1.741479e+003;1.538797e-001
1.743407e+003;1.338745e-001
1.745336e+003;1.167291e-001
1.747265e+003;1.029286e-001
1.749193e+003;9.201363e-002
1.751122e+003;8.353019e-002
1.753050e+003;7.751598e-002
1.754979e+003;7.336383e-002
1.756907e+003;7.046606e-002
1.758836e+003;6.825491e-002
1.760764e+003;6.647431e-002
1.762693e+003;6.515975e-002
1.764621e+003;6.418689e-002
1.766550e+003;6.327848e-002
1.768479e+003;6.260384e-002
1.770407e+003;6.208893e-002
1.772336e+003;6.153985e-002
1.774264e+003;6.100630e-002
1.776193e+003;6.070867e-002
1.778121e+003;6.065799e-002
1.780050e+003;6.038916e-002
1.781978e+003;5.981146e-002
1.783907e+003;5.949892e-002
1.785835e+003;5.958625e-002
1.787764e+003;5.965079e-002
1.789693e+003;5.933240e-002
1.791621e+003;5.882196e-002
1.793550e+003;5.865195e-002
1.795478e+003;5.867998e-002
1.797407e+003;5.861418e-002
1.799335e+003;5.868718e-002
1.801264e+003;5.894320e-002
1.803192e+003;5.915672e-002
1.805121e+003;5.936226e-002
1.807049e+003;5.968565e-002
1.808978e+003;5.987215e-002
1.810907e+003;5.961339e-002
1.812835e+003;5.947133e-002
1.814764e+003;5.953548e-002
1.816692e+003;5.950705e-002
1.818621e+003;5.951929e-002
1.820549e+003;5.935698e-002
1.822478e+003;5.914472e-002
1.824406e+003;5.903880e-002
1.826335e+003;5.878232e-002
1.828264e+003;5.849914e-002
1.830192e+003;5.809075e-002
1.832121e+003;5.755809e-002
1.834049e+003;5.705324e-002
1.835978e+003;5.635817e-002
1.837906e+003;5.565177e-002
1.839835e+003;5.496475e-002
1.841763e+003;5.407339e-002
1.843692e+003;5.298347e-002
1.845620e+003;5.215840e-002
1.847549e+003;5.146749e-002
1.849478e+003;5.057284e-002
1.851406e+003;4.960663e-002
1.853335e+003;4.878587e-002
1.855263e+003;4.796385e-002
1.857192e+003;4.724215e-002
1.859120e+003;4.660954e-002
1.861049e+003;4.589745e-002
1.862977e+003;4.505014e-002
1.864906e+003;4.449548e-002
1.866834e+003;4.410343e-002
1.868763e+003;4.354844e-002
1.870692e+003;4.330365e-002
1.872620e+003;4.318538e-002
1.874549e+003;4.290333e-002
1.876477e+003;4.273973e-002
1.878406e+003;4.238999e-002
1.880334e+003;4.219211e-002
1.882263e+003;4.219010e-002
1.884191e+003;4.196329e-002
1.886120e+003;4.193530e-002
1.888048e+003;4.211945e-002
1.889977e+003;4.217940e-002
1.891906e+003;4.222881e-002
1.893834e+003;4.227110e-002
1.895763e+003;4.235459e-002
1.897691e+003;4.253687e-002
1.899620e+003;4.263949e-002
1.901548e+003;4.290773e-002
1.903477e+003;4.323991e-002
1.905405e+003;4.330698e-002
1.907334e+003;4.349639e-002
1.909262e+003;4.375046e-002
1.911191e+003;4.393318e-002
1.913120e+003;4.408505e-002
1.915048e+003;4.440354e-002
1.916977e+003;4.478925e-002
1.918905e+003;4.508090e-002
1.920834e+003;4.543643e-002
1.922762e+003;4.596687e-002
1.924691e+003;4.683011e-002
1.926619e+003;4.767000e-002
1.928548e+003;4.828356e-002
1.930477e+003;4.903938e-002
1.932405e+003;4.998707e-002
1.934334e+003;5.074415e-002
1.936262e+003;5.142283e-002
1.938191e+003;5.234645e-002
1.940119e+003;5.343886e-002
1.942048e+003;5.464013e-002
1.943976e+003;5.546966e-002
1.945905e+003;5.599868e-002
1.947833e+003;5.653574e-002
1.949762e+003;5.717614e-002
1.951691e+003;5.757379e-002
1.953619e+003;5.792792e-002
1.955548e+003;5.844019e-002
1.957476e+003;5.877481e-002
1.959405e+003;5.864865e-002
1.961333e+003;5.827108e-002
1.963262e+003;5.770092e-002
1.965190e+003;5.669605e-002
1.967119e+003;5.550784e-002
1.969047e+003;5.435873e-002
1.970976e+003;5.322307e-002
1.972905e+003;5.219318e-002
1.974833e+003;5.140974e-002
1.976762e+003;5.077983e-002
1.978690e+003;4.995548e-002
1.980619e+003;4.919049e-002
1.982547e+003;4.870361e-002
1.984476e+003;4.819988e-002
1.986404e+003;4.769063e-002
1.988333e+003;4.714334e-002
1.990261e+003;4.662994e-002
1.992190e+003;4.615078e-002
1.994119e+003;4.559619e-002
1.996047e+003;4.516910e-002
1.997976e+003;4.471645e-002
1.999904e+003;4.419934e-002
2.001833e+003;4.365966e-002
2.003761e+003;4.308471e-002
2.005690e+003;4.252623e-002
2.007618e+003;4.209853e-002
2.009547e+003;4.170794e-002
2.011476e+003;4.143673e-002
2.013404e+003;4.101865e-002
2.015333e+003;4.073270e-002
2.017261e+003;4.074995e-002
2.019190e+003;4.063332e-002
2.021118e+003;4.024423e-002
2.023047e+003;3.983812e-002
2.024975e+003;3.957947e-002
2.026904e+003;3.933694e-002
2.028833e+003;3.924042e-002
2.030761e+003;3.910597e-002
2.032690e+003;3.895071e-002
2.034618e+003;3.888577e-002
2.036547e+003;3.889595e-002
2.038475e+003;3.897836e-002
2.040404e+003;3.910238e-002
2.042332e+003;3.906881e-002
2.044261e+003;3.938457e-002
2.046189e+003;3.984600e-002
2.048118e+003;3.995403e-002
2.050047e+003;4.028603e-002
2.051975e+003;4.064446e-002
2.053904e+003;4.086981e-002
2.055832e+003;4.106607e-002
2.057761e+003;4.130983e-002
2.059689e+003;4.164659e-002
2.061618e+003;4.223815e-002
2.063546e+003;4.276704e-002
2.065475e+003;4.314695e-002
2.067404e+003;4.369681e-002
2.069332e+003;4.426131e-002
2.071260e+003;4.463426e-002
2.073189e+003;4.506580e-002
2.075118e+003;4.542981e-002
2.077046e+003;4.573643e-002
2.078975e+003;4.611313e-002
2.080903e+003;4.669059e-002
2.082832e+003;4.717060e-002
2.084760e+003;4.725382e-002
2.086689e+003;4.747472e-002
2.088617e+003;4.767022e-002
2.090546e+003;4.763697e-002
2.092475e+003;4.784039e-002
2.094403e+003;4.821358e-002
2.096332e+003;4.811507e-002
2.098260e+003;4.790583e-002
2.100189e+003;4.793181e-002
2.102117e+003;4.794934e-002
2.104046e+003;4.806902e-002
2.105974e+003;4.817222e-002
2.107903e+003;4.795390e-002
2.109832e+003;4.781216e-002
2.111760e+003;4.787745e-002
2.113688e+003;4.780721e-002
2.115617e+003;4.753982e-002
2.117546e+003;4.716595e-002
2.119474e+003;4.681734e-002
2.121403e+003;4.653839e-002
2.123331e+003;4.643708e-002
2.125260e+003;4.596256e-002
2.127188e+003;4.551388e-002
2.129117e+003;4.516987e-002
2.131045e+003;4.477827e-002
2.132974e+003;4.429169e-002
2.134903e+003;4.383655e-002
2.136831e+003;4.362855e-002
2.138760e+003;4.347878e-002
2.140688e+003;4.333912e-002
2.142617e+003;4.295725e-002
2.144545e+003;4.232855e-002
2.146474e+003;4.190607e-002
2.148402e+003;4.155944e-002
2.150331e+003;4.121582e-002
2.152260e+003;4.095875e-002
2.154188e+003;4.063802e-002
2.156117e+003;4.027269e-002
2.158045e+003;4.012690e-002
2.159974e+003;3.999588e-002
2.161902e+003;3.951502e-002
2.163831e+003;3.886551e-002
2.165759e+003;3.846731e-002
2.167688e+003;3.820402e-002
2.169616e+003;3.801740e-002
2.171545e+003;3.778113e-002
2.173474e+003;3.755177e-002
2.175402e+003;3.757804e-002
2.177331e+003;3.736222e-002
2.179259e+003;3.671401e-002
2.181188e+003;3.662074e-002
2.183116e+003;3.690115e-002
2.185045e+003;3.671080e-002
2.186973e+003;3.658819e-002
2.188902e+003;3.673615e-002
2.190831e+003;3.675191e-002
2.192759e+003;3.672440e-002
2.194688e+003;3.680827e-002
2.196616e+003;3.678956e-002
2.198545e+003;3.683468e-002
2.200473e+003;3.705243e-002
2.202402e+003;3.723986e-002
2.204330e+003;3.745200e-002
2.206259e+003;3.780643e-002
2.208188e+003;3.813684e-002
2.210116e+003;3.830440e-002
2.212044e+003;3.846243e-002
2.213973e+003;3.866763e-002
2.215902e+003;3.877968e-002
2.217830e+003;3.887656e-002
2.219759e+003;3.924510e-002
2.221687e+003;3.945311e-002
2.223616e+003;3.947169e-002
2.225544e+003;3.949502e-002
2.227473e+003;3.958405e-002
2.229401e+003;3.953523e-002
2.231330e+003;3.934032e-002
2.233259e+003;3.941679e-002
2.235187e+003;3.962361e-002
2.237116e+003;3.979574e-002
2.239044e+003;4.014042e-002
2.240973e+003;4.037177e-002
2.242901e+003;4.043617e-002
2.244830e+003;4.043384e-002
2.246758e+003;4.046956e-002
2.248687e+003;4.077648e-002
2.250615e+003;4.110632e-002
2.252544e+003;4.134984e-002
2.254473e+003;4.148222e-002
2.256401e+003;4.148543e-002
2.258330e+003;4.142590e-002
2.260258e+003;4.143283e-002
2.262187e+003;4.153239e-002
2.264115e+003;4.150810e-002
2.266044e+003;4.139317e-002
2.267972e+003;4.145342e-002
2.269901e+003;4.156491e-002
2.271830e+003;4.160845e-002
2.273758e+003;4.168937e-002
2.275687e+003;4.182868e-002
2.277615e+003;4.188845e-002
2.279544e+003;4.215457e-002
2.281472e+003;4.267813e-002
2.283401e+003;4.276628e-002
2.285329e+003;4.261687e-002
2.287258e+003;4.250643e-002
2.289187e+003;4.235010e-002
2.291115e+003;4.180114e-002
2.293043e+003;4.119585e-002
2.294972e+003;4.060375e-002
2.296901e+003;4.001059e-002
2.298829e+003;3.959900e-002
2.300758e+003;3.899536e-002
2.302686e+003;3.824201e-002
2.304615e+003;3.777863e-002
2.306543e+003;3.747768e-002
2.308472e+003;3.710140e-002
2.310400e+003;3.682797e-002
2.312329e+003;3.681924e-002
2.314258e+003;3.697925e-002
2.316186e+003;3.718917e-002
2.318115e+003;3.725260e-002
2.320043e+003;3.742632e-002
2.321972e+003;3.755163e-002
2.323900e+003;3.788614e-002
2.325829e+003;3.818589e-002
2.327757e+003;3.810309e-002
2.329686e+003;3.806294e-002
2.331615e+003;3.821715e-002
2.333543e+003;3.822909e-002
2.335472e+003;3.818795e-002
2.337400e+003;3.837143e-002
2.339329e+003;3.843926e-002
2.341257e+003;3.855034e-002
2.343186e+003;3.867720e-002
2.345114e+003;3.872776e-002
2.347043e+003;3.885888e-002
2.348971e+003;3.925526e-002
2.350900e+003;3.969201e-002
2.352829e+003;3.989562e-002
2.354757e+003;4.030687e-002
2.356686e+003;4.062936e-002
2.358614e+003;4.087593e-002
2.360543e+003;4.122580e-002
2.362471e+003;4.161191e-002
2.364400e+003;4.212923e-002
2.366328e+003;4.251812e-002
2.368257e+003;4.257444e-002
2.370186e+003;4.289309e-002
2.372114e+003;4.302778e-002
2.374042e+003;4.302412e-002
2.375971e+003;4.317169e-002
2.377900e+003;4.331679e-002
2.379828e+003;4.351646e-002
2.381757e+003;4.363511e-002
2.383685e+003;4.346999e-002
2.385614e+003;4.347559e-002
2.387542e+003;4.364464e-002
2.389471e+003;4.360573e-002
2.391399e+003;4.342905e-002
2.393328e+003;4.315449e-002
2.395257e+003;4.288252e-002
2.397185e+003;4.283228e-002
2.399114e+003;4.275626e-002
2.401042e+003;4.249488e-002
2.402971e+003;4.245878e-002
2.404899e+003;4.241465e-002
2.406828e+003;4.214365e-002
2.408756e+003;4.195756e-002
2.410685e+003;4.175970e-002
2.412614e+003;4.142040e-002
2.414542e+003;4.098777e-002
2.416471e+003;4.060720e-002
2.418399e+003;4.036570e-002
2.420328e+003;4.013079e-002
2.422256e+003;3.982468e-002
2.424185e+003;3.946418e-002
2.426113e+003;3.915593e-002
2.428042e+003;3.872182e-002
2.429970e+003;3.829658e-002
2.431899e+003;3.812038e-002
2.433828e+003;3.799491e-002
2.435756e+003;3.772973e-002
2.437685e+003;3.736984e-002
2.439613e+003;3.707809e-002
2.441542e+003;3.690046e-002
2.443470e+003;3.662921e-002
2.445399e+003;3.636325e-002
2.447327e+003;3.634102e-002
2.449256e+003;3.646140e-002
2.451185e+003;3.626364e-002
2.453113e+003;3.590309e-002
2.455042e+003;3.602637e-002
2.456970e+003;3.617926e-002
2.458899e+003;3.589406e-002
2.460827e+003;3.576146e-002
2.462756e+003;3.580273e-002
2.464684e+003;3.571447e-002
2.466613e+003;3.579989e-002
2.468542e+003;3.573627e-002
2.470470e+003;3.577197e-002
2.472398e+003;3.607364e-002
2.474327e+003;3.631634e-002
2.476256e+003;3.643931e-002
2.478184e+003;3.665542e-002
2.480113e+003;3.678162e-002
2.482041e+003;3.688243e-002
2.483970e+003;3.704232e-002
2.485898e+003;3.722827e-002
2.487827e+003;3.741238e-002
2.489755e+003;3.748534e-002
2.491684e+003;3.758967e-002
2.493613e+003;3.787993e-002
2.495541e+003;3.817135e-002
2.497470e+003;3.848904e-002
2.499398e+003;3.886276e-002
2.501327e+003;3.904684e-002
2.503255e+003;3.904561e-002
2.505184e+003;3.913755e-002
2.507112e+003;3.919600e-002
2.509041e+003;3.900646e-002
2.510969e+003;3.903125e-002
2.512898e+003;3.936970e-002
2.514827e+003;3.959552e-002
2.516755e+003;3.961933e-002
2.518684e+003;3.975780e-002
2.520612e+003;4.015438e-002
2.522541e+003;4.059359e-002
2.524469e+003;4.068645e-002
2.526398e+003;4.058537e-002
2.528326e+003;4.065028e-002
2.530255e+003;4.086187e-002
2.532184e+003;4.084225e-002
2.534112e+003;4.090978e-002
2.536041e+003;4.128300e-002
2.537969e+003;4.115214e-002
2.539898e+003;4.098020e-002
2.541826e+003;4.110351e-002
2.543755e+003;4.119950e-002
2.545683e+003;4.121287e-002
2.547612e+003;4.097940e-002
2.549541e+003;4.071731e-002
2.551469e+003;4.069784e-002
2.553397e+003;4.082937e-002
2.555326e+003;4.115250e-002
2.557255e+003;4.132047e-002
2.559183e+003;4.119250e-002
2.561112e+003;4.124143e-002
2.563040e+003;4.123750e-002
2.564969e+003;4.114773e-002
2.566897e+003;4.123269e-002
2.568826e+003;4.111568e-002
2.570754e+003;4.098191e-002
2.572683e+003;4.098948e-002
2.574612e+003;4.102419e-002
2.576540e+003;4.121323e-002
2.578469e+003;4.123604e-002
2.580397e+003;4.111196e-002
2.582326e+003;4.100092e-002
2.584254e+003;4.085904e-002
2.586183e+003;4.057202e-002
2.588111e+003;4.037315e-002
2.590040e+003;4.018545e-002
2.591969e+003;4.008602e-002
2.593897e+003;3.977479e-002
2.595826e+003;3.910792e-002
2.597754e+003;3.903788e-002
2.599683e+003;3.897836e-002
2.601611e+003;3.857594e-002
2.603540e+003;3.817641e-002
2.605468e+003;3.770360e-002
2.607397e+003;3.758819e-002
2.609325e+003;3.765785e-002
2.611254e+003;3.755123e-002
2.613183e+003;3.742863e-002
2.615111e+003;3.722697e-002
2.617040e+003;3.719163e-002
2.618968e+003;3.715987e-002
2.620897e+003;3.716001e-002
2.622825e+003;3.726545e-002
2.624754e+003;3.718972e-002
2.626682e+003;3.730069e-002
2.628611e+003;3.753295e-002
2.630540e+003;3.758486e-002
2.632468e+003;3.761753e-002
2.634396e+003;3.719661e-002
2.636325e+003;3.643852e-002
2.638254e+003;3.590726e-002
2.640182e+003;3.547991e-002
2.642111e+003;3.517800e-002
2.644039e+003;3.498287e-002
2.645968e+003;3.478989e-002
2.647896e+003;3.465924e-002
2.649825e+003;3.463286e-002
2.651753e+003;3.466053e-002
2.653682e+003;3.449656e-002
2.655611e+003;3.420257e-002
2.657539e+003;3.411582e-002
2.659468e+003;3.391523e-002
2.661396e+003;3.371429e-002
2.663325e+003;3.375981e-002
2.665253e+003;3.381833e-002
2.667182e+003;3.387342e-002
2.669110e+003;3.403759e-002
2.671039e+003;3.405801e-002
2.672968e+003;3.399562e-002
2.674896e+003;3.394532e-002
2.676825e+003;3.411977e-002
2.678753e+003;3.434739e-002
2.680682e+003;3.415786e-002
2.682610e+003;3.404991e-002
2.684539e+003;3.407507e-002
2.686467e+003;3.392493e-002
2.688396e+003;3.384516e-002
2.690324e+003;3.396137e-002
2.692253e+003;3.423490e-002
2.694182e+003;3.444960e-002
2.696110e+003;3.426373e-002
2.698039e+003;3.419780e-002
2.699967e+003;3.441954e-002
2.701896e+003;3.442195e-002
2.703824e+003;3.435743e-002
2.705753e+003;3.458830e-002
2.707681e+003;3.484542e-002
2.709610e+003;3.475266e-002
2.711539e+003;3.438181e-002
2.713467e+003;3.441893e-002
2.715396e+003;3.487878e-002
2.717324e+003;3.525102e-002
2.719253e+003;3.544731e-002
2.721181e+003;3.547204e-002
2.723110e+003;3.558952e-002
2.725038e+003;3.562660e-002
2.726967e+003;3.568044e-002
2.728896e+003;3.610979e-002
2.730824e+003;3.653412e-002
2.732752e+003;3.694239e-002
2.734681e+003;3.712778e-002
2.736610e+003;3.706708e-002
2.738538e+003;3.711648e-002
2.740467e+003;3.740516e-002
2.742395e+003;3.760640e-002
2.744324e+003;3.766490e-002
2.746252e+003;3.779053e-002
2.748181e+003;3.779190e-002
2.750109e+003;3.765615e-002
2.752038e+003;3.766887e-002
2.753967e+003;3.774607e-002
2.755895e+003;3.773226e-002
2.757824e+003;3.765836e-002
2.759752e+003;3.765749e-002
2.761681e+003;3.759173e-002
2.763609e+003;3.755809e-002
2.765538e+003;3.766642e-002
2.767466e+003;3.758685e-002
2.769395e+003;3.756998e-002
2.771323e+003;3.800040e-002
2.773252e+003;3.841989e-002
2.775181e+003;3.842905e-002
2.777109e+003;3.853904e-002
2.779038e+003;3.862366e-002
2.780966e+003;3.889193e-002
2.782895e+003;3.930908e-002
2.784823e+003;3.935765e-002
2.786752e+003;3.963679e-002
2.788680e+003;4.039050e-002
2.790609e+003;4.096188e-002
2.792538e+003;4.123935e-002
2.794466e+003;4.152193e-002
2.796395e+003;4.183631e-002
2.798323e+003;4.205341e-002
2.800252e+003;4.256391e-002
2.802180e+003;4.316152e-002
2.804109e+003;4.327978e-002
2.806037e+003;4.333465e-002
2.807966e+003;4.339539e-002
2.809895e+003;4.335135e-002
2.811823e+003;4.290564e-002
2.813751e+003;4.245418e-002
2.815680e+003;4.226258e-002
2.817609e+003;4.206940e-002
2.819537e+003;4.196110e-002
2.821466e+003;4.171363e-002
2.823394e+003;4.170178e-002
2.825323e+003;4.195162e-002
2.827251e+003;4.215924e-002
2.829180e+003;4.245970e-002
2.831108e+003;4.296892e-002
2.833037e+003;4.335600e-002
2.834966e+003;4.365988e-002
2.836894e+003;4.412954e-002
2.838823e+003;4.507025e-002
2.840751e+003;4.560046e-002
2.842680e+003;4.591988e-002
2.844608e+003;4.674918e-002
2.846537e+003;4.761324e-002
2.848465e+003;4.809863e-002
2.850394e+003;4.877090e-002
2.852323e+003;4.969553e-002
2.854251e+003;5.074914e-002
2.856180e+003;5.129388e-002
2.858108e+003;5.166971e-002
2.860037e+003;5.239788e-002
2.861965e+003;5.306257e-002
2.863894e+003;5.319149e-002
2.865822e+003;5.349173e-002
2.867751e+003;5.395591e-002
2.869679e+003;5.413442e-002
2.871608e+003;5.432798e-002
2.873536e+003;5.467601e-002
2.875465e+003;5.515278e-002
2.877394e+003;5.588211e-002
2.879322e+003;5.649951e-002
2.881251e+003;5.680279e-002
2.883179e+003;5.729835e-002
2.885108e+003;5.785455e-002
2.887036e+003;5.813003e-002
2.888965e+003;5.835434e-002
2.890893e+003;5.871548e-002
2.892822e+003;5.938106e-002
2.894750e+003;6.010794e-002
2.896679e+003;6.073672e-002
2.898608e+003;6.153733e-002
2.900536e+003;6.290124e-002
2.902465e+003;6.432977e-002
2.904393e+003;6.568621e-002
2.906322e+003;6.682264e-002
2.908250e+003;6.715628e-002
2.910179e+003;6.711199e-002
2.912107e+003;6.657492e-002
2.914036e+003;6.508087e-002
2.915965e+003;6.335074e-002
2.917893e+003;6.210934e-002
2.919822e+003;6.097934e-002
2.921750e+003;5.953251e-002
2.923679e+003;5.807223e-002
2.925607e+003;5.714424e-002
2.927536e+003;5.676088e-002
2.929464e+003;5.666947e-002
2.931393e+003;5.699037e-002
2.933322e+003;5.747631e-002
2.935250e+003;5.808481e-002
2.937178e+003;5.880329e-002
2.939107e+003;5.951803e-002
2.941036e+003;6.058496e-002
2.942964e+003;6.194457e-002
2.944893e+003;6.353998e-002
2.946821e+003;6.510258e-002
2.948750e+003;6.653679e-002
2.950678e+003;6.799819e-002
2.952607e+003;6.921448e-002
2.954535e+003;7.064009e-002
2.956464e+003;7.238720e-002
2.958393e+003;7.411852e-002
2.960321e+003;7.522234e-002
2.962250e+003;7.604887e-002
2.964178e+003;7.703058e-002
2.966107e+003;7.807772e-002
2.968035e+003;7.903633e-002
2.969964e+003;7.895199e-002
2.971892e+003;7.837813e-002
2.973821e+003;7.774003e-002
2.975750e+003;7.693903e-002
2.977678e+003;7.600481e-002
2.979607e+003;7.498918e-002
2.981535e+003;7.424714e-002
2.983464e+003;7.331013e-002
2.985392e+003;7.199606e-002
2.987321e+003;7.087283e-002
2.989249e+003;6.994626e-002
2.991178e+003;6.910231e-002
2.993106e+003;6.846364e-002
2.995035e+003;6.781153e-002
2.996964e+003;6.705434e-002
2.998892e+003;6.660709e-002
3.000821e+003;6.628962e-002
3.002749e+003;6.570225e-002
3.004678e+003;6.497358e-002
3.006606e+003;6.416226e-002
3.008535e+003;6.346067e-002
3.010463e+003;6.279620e-002
3.012392e+003;6.190392e-002
3.014321e+003;6.125437e-002
3.016249e+003;6.100992e-002
3.018177e+003;6.009926e-002
3.020106e+003;5.870167e-002
3.022035e+003;5.739780e-002
3.023963e+003;5.622837e-002
3.025892e+003;5.511858e-002
3.027820e+003;5.375423e-002
3.029749e+003;5.256490e-002
3.031677e+003;5.174369e-002
3.033606e+003;5.110058e-002
3.035534e+003;5.065791e-002
3.037463e+003;5.004369e-002
3.039392e+003;4.942137e-002
3.041320e+003;4.952537e-002
3.043249e+003;5.042493e-002
3.045177e+003;5.195213e-002
3.047106e+003;5.372438e-002
3.049034e+003;5.522374e-002
3.050963e+003;5.640555e-002
3.052891e+003;5.745570e-002
3.054820e+003;5.821103e-002
3.056749e+003;5.842696e-002
3.058677e+003;5.823785e-002
3.060606e+003;5.822349e-002
3.062534e+003;5.796525e-002
3.064463e+003;5.769433e-002
3.066391e+003;5.746042e-002
3.068320e+003;5.737908e-002
3.070248e+003;5.771485e-002
3.072177e+003;5.771220e-002
3.074105e+003;5.745032e-002
3.076034e+003;5.749212e-002
3.077963e+003;5.756717e-002
3.079891e+003;5.724573e-002
3.081820e+003;5.694685e-002
3.083748e+003;5.669937e-002
3.085677e+003;5.628170e-002
3.087605e+003;5.577099e-002
3.089534e+003;5.507969e-002
3.091462e+003;5.425180e-002
3.093391e+003;5.376821e-002
3.095320e+003;5.371148e-002
3.097248e+003;5.395576e-002
3.099177e+003;5.472340e-002
3.101105e+003;5.525350e-002
3.103034e+003;5.554575e-002
3.104962e+003;5.566857e-002
3.106891e+003;5.549673e-002
3.108819e+003;5.545073e-002
3.110748e+003;5.484075e-002
3.112677e+003;5.370049e-002
3.114605e+003;5.262508e-002
3.116533e+003;5.162370e-002
3.118462e+003;5.078299e-002
3.120391e+003;5.054570e-002
3.122319e+003;4.999897e-002
3.124248e+003;4.907151e-002
3.126176e+003;4.877412e-002
3.128105e+003;4.901998e-002
3.130033e+003;4.893297e-002
3.131962e+003;4.834963e-002
3.133890e+003;4.768978e-002
3.135819e+003;4.711985e-002
3.137748e+003;4.641935e-002
3.139676e+003;4.594975e-002
3.141605e+003;4.528937e-002
3.143533e+003;4.467840e-002
3.145462e+003;4.408186e-002
3.147390e+003;4.364152e-002
3.149319e+003;4.323018e-002
3.151247e+003;4.281213e-002
3.153176e+003;4.257206e-002
3.155104e+003;4.235065e-002
3.157033e+003;4.191107e-002
3.158962e+003;4.160159e-002
3.160890e+003;4.156914e-002
3.162819e+003;4.156834e-002
3.164747e+003;4.148233e-002
3.166676e+003;4.114915e-002
3.168604e+003;4.086941e-002
3.170533e+003;4.079741e-002
3.172461e+003;4.108647e-002
3.174390e+003;4.111018e-002
3.176319e+003;4.079679e-002
3.178247e+003;4.047414e-002
3.180176e+003;4.038344e-002
3.182104e+003;4.022355e-002
3.184033e+003;3.997059e-002
3.185961e+003;3.991033e-002
3.187890e+003;4.007814e-002
3.189818e+003;4.012211e-002
3.191747e+003;3.985323e-002
3.193676e+003;3.989296e-002
3.195604e+003;3.991632e-002
3.197532e+003;3.977777e-002
3.199461e+003;3.972319e-002
3.201390e+003;3.960423e-002
3.203318e+003;3.940174e-002
3.205247e+003;3.928558e-002
3.207175e+003;3.922490e-002
3.209104e+003;3.922320e-002
3.211032e+003;3.926621e-002
3.212961e+003;3.913798e-002
3.214889e+003;3.913635e-002
3.216818e+003;3.918889e-002
3.218747e+003;3.928300e-002
3.220675e+003;3.950123e-002
3.222604e+003;3.928344e-002
3.224532e+003;3.894328e-002
3.226461e+003;3.897630e-002
3.228389e+003;3.902690e-002
3.230318e+003;3.923368e-002
3.232246e+003;3.953861e-002
3.234175e+003;3.936705e-002
3.236104e+003;3.905840e-002
3.238032e+003;3.913501e-002
3.239961e+003;3.907957e-002
3.241889e+003;3.890457e-002
3.243818e+003;3.877015e-002
3.245746e+003;3.844682e-002
3.247675e+003;3.841808e-002
3.249603e+003;3.821064e-002
3.251532e+003;3.794526e-002
3.253460e+003;3.785845e-002
3.255389e+003;3.759426e-002
3.257318e+003;3.749423e-002
3.259246e+003;3.765099e-002
3.261175e+003;3.775572e-002
3.263103e+003;3.760716e-002
3.265032e+003;3.731170e-002
3.266960e+003;3.731041e-002
3.268889e+003;3.752764e-002
3.270817e+003;3.765026e-002
3.272746e+003;3.771199e-002
3.274675e+003;3.740563e-002
3.276603e+003;3.714355e-002
3.278531e+003;3.716651e-002
3.280460e+003;3.730094e-002
3.282389e+003;3.740101e-002
3.284317e+003;3.701891e-002
3.286246e+003;3.690552e-002
3.288174e+003;3.717250e-002
3.290103e+003;3.776128e-002
3.292031e+003;3.818969e-002
3.293960e+003;3.814559e-002
3.295888e+003;3.808048e-002
3.297817e+003;3.809842e-002
3.299746e+003;3.862330e-002
3.301674e+003;3.882029e-002
3.303603e+003;3.831974e-002
3.305531e+003;3.801426e-002
3.307460e+003;3.780072e-002
3.309388e+003;3.737406e-002
3.311317e+003;3.702898e-002
3.313245e+003;3.695346e-002
3.315174e+003;3.715810e-002
3.317103e+003;3.727441e-002
3.319031e+003;3.734034e-002
3.320960e+003;3.726802e-002
3.322888e+003;3.719307e-002
3.324817e+003;3.736092e-002
3.326745e+003;3.766804e-002
3.328674e+003;3.787150e-002
3.330602e+003;3.825659e-002
3.332531e+003;3.803874e-002
3.334459e+003;3.757247e-002
3.336388e+003;3.790328e-002
3.338317e+003;3.810519e-002
3.340245e+003;3.822392e-002
3.342174e+003;3.844487e-002
3.344102e+003;3.808977e-002
3.346031e+003;3.735655e-002
3.347959e+003;3.684513e-002
3.349888e+003;3.639701e-002
3.351816e+003;3.634826e-002
3.353745e+003;3.600985e-002
3.355674e+003;3.547575e-002
3.357602e+003;3.526295e-002
3.359531e+003;3.515084e-002
3.361459e+003;3.519643e-002
3.363388e+003;3.511089e-002
3.365316e+003;3.473263e-002
3.367245e+003;3.443902e-002
3.369173e+003;3.399867e-002
3.371102e+003;3.419694e-002
3.373031e+003;3.461862e-002
3.374959e+003;3.458313e-002
3.376887e+003;3.460842e-002
3.378816e+003;3.464384e-002
3.380745e+003;3.459472e-002
3.382673e+003;3.474003e-002
3.384602e+003;3.486305e-002
3.386530e+003;3.481103e-002
3.388459e+003;3.481247e-002
3.390387e+003;3.511768e-002
3.392316e+003;3.545525e-002
3.394244e+003;3.560847e-002
3.396173e+003;3.598771e-002
3.398102e+003;3.625467e-002
3.400030e+003;3.674671e-002
3.401959e+003;3.763621e-002
3.403887e+003;3.844404e-002
3.405816e+003;3.921315e-002
3.407744e+003;3.976520e-002
3.409673e+003;4.078460e-002
3.411601e+003;4.230130e-002
3.413530e+003;4.339686e-002
3.415458e+003;4.427444e-002
3.417387e+003;4.521763e-002
3.419316e+003;4.648565e-002
3.421244e+003;4.774640e-002
3.423173e+003;4.892585e-002
3.425101e+003;5.021253e-002
3.427030e+003;5.126826e-002
3.428958e+003;5.177695e-002
3.430887e+003;5.180804e-002
3.432815e+003;5.156631e-002
3.434744e+003;5.101568e-002
3.436673e+003;5.052579e-002
3.438601e+003;4.971804e-002
3.440530e+003;4.843634e-002
3.442458e+003;4.725190e-002
3.444387e+003;4.632235e-002
3.446315e+003;4.565965e-002
3.448244e+003;4.475145e-002
3.450172e+003;4.395528e-002
3.452101e+003;4.298198e-002
3.454030e+003;4.186717e-002
3.455958e+003;4.114161e-002
3.457886e+003;4.094219e-002
3.459815e+003;4.052401e-002
3.461744e+003;3.946904e-002
3.463672e+003;3.840389e-002
3.465601e+003;3.760398e-002
3.467529e+003;3.697666e-002
3.469458e+003;3.646605e-002
3.471386e+003;3.632636e-002
3.473315e+003;3.596428e-002
3.475243e+003;3.559553e-002
3.477172e+003;3.514987e-002
3.479101e+003;3.478181e-002
3.481029e+003;3.455403e-002
3.482958e+003;3.423458e-002
3.484886e+003;3.405723e-002
3.486815e+003;3.426093e-002
3.488743e+003;3.425086e-002
3.490672e+003;3.369413e-002
3.492600e+003;3.331117e-002
3.494529e+003;3.348453e-002
3.496458e+003;3.397785e-002
3.498386e+003;3.458916e-002
3.500315e+003;3.479060e-002
3.502243e+003;3.459134e-002
3.504172e+003;3.452802e-002
3.506100e+003;3.462271e-002
3.508029e+003;3.479591e-002
3.509957e+003;3.485953e-002
3.511886e+003;3.500672e-002
3.513814e+003;3.485583e-002
3.515743e+003;3.470912e-002
3.517672e+003;3.475079e-002
3.519600e+003;3.520190e-002
3.521529e+003;3.589377e-002
3.523457e+003;3.633543e-002
3.525386e+003;3.662622e-002
3.527314e+003;3.649015e-002
3.529243e+003;3.629170e-002
3.531171e+003;3.675753e-002
3.533100e+003;3.717521e-002
3.535029e+003;3.724596e-002
3.536957e+003;3.712782e-002
3.538885e+003;3.681415e-002
3.540814e+003;3.678959e-002
3.542743e+003;3.687965e-002
3.544671e+003;3.688239e-002
3.546600e+003;3.688597e-002
3.548528e+003;3.664558e-002
3.550457e+003;3.636670e-002
3.552385e+003;3.679143e-002
3.554314e+003;3.723069e-002
3.556242e+003;3.694823e-002
3.558171e+003;3.647444e-002
3.560100e+003;3.612204e-002
3.562028e+003;3.581068e-002
3.563957e+003;3.559304e-002
3.565885e+003;3.545086e-002
3.567814e+003;3.506674e-002
3.569742e+003;3.435234e-002
3.571671e+003;3.409962e-002
3.573599e+003;3.429105e-002
3.575528e+003;3.415905e-002
3.577457e+003;3.366649e-002
3.579385e+003;3.339446e-002
3.581314e+003;3.279484e-002
3.583242e+003;3.216443e-002
3.585171e+003;3.197797e-002
3.587099e+003;3.191680e-002
3.589028e+003;3.176078e-002
3.590956e+003;3.140537e-002
3.592885e+003;3.091617e-002
3.594813e+003;3.088462e-002
3.596742e+003;3.112564e-002
3.598671e+003;3.104837e-002
3.600599e+003;3.099769e-002
3.602528e+003;3.119146e-002
3.604456e+003;3.101502e-002
3.606385e+003;3.093126e-002
3.608313e+003;3.070883e-002
3.610242e+003;3.070741e-002
3.612170e+003;3.124195e-002
3.614099e+003;3.160617e-002
3.616028e+003;3.158507e-002
3.617956e+003;3.140071e-002
3.619885e+003;3.151032e-002
3.621813e+003;3.142471e-002
3.623742e+003;3.124768e-002
3.625670e+003;3.150968e-002
3.627599e+003;3.186884e-002
3.629527e+003;3.184599e-002
3.631456e+003;3.154231e-002
3.633385e+003;3.160103e-002
3.635313e+003;3.159818e-002
3.637241e+003;3.155008e-002
3.639170e+003;3.155710e-002
3.641099e+003;3.152436e-002
3.643027e+003;3.136648e-002
3.644956e+003;3.127770e-002
3.646884e+003;3.082649e-002
3.648813e+003;3.059903e-002
3.650741e+003;3.056057e-002
3.652670e+003;3.029523e-002
3.654598e+003;2.981367e-002
3.656527e+003;2.907649e-002
3.658456e+003;2.887785e-002
3.660384e+003;2.904925e-002
3.662313e+003;2.893211e-002
3.664241e+003;2.845411e-002
3.666170e+003;2.816680e-002
3.668098e+003;2.767145e-002
3.670027e+003;2.736341e-002
3.671955e+003;2.759359e-002
3.673884e+003;2.753614e-002
3.675813e+003;2.729421e-002
3.677741e+003;2.747490e-002
3.679669e+003;2.756414e-002
3.681598e+003;2.804021e-002
3.683527e+003;2.867825e-002
3.685455e+003;2.898127e-002
3.687384e+003;2.888653e-002
3.689312e+003;2.875021e-002
3.691241e+003;2.828373e-002
3.693169e+003;2.757208e-002
3.695098e+003;2.701623e-002
3.697026e+003;2.716735e-002
3.698955e+003;2.723984e-002
3.700884e+003;2.655875e-002
3.702812e+003;2.608892e-002
3.704741e+003;2.616119e-002
3.706669e+003;2.615296e-002
3.708598e+003;2.589790e-002
3.710526e+003;2.553376e-002
3.712455e+003;2.528739e-002
3.714383e+003;2.549202e-002
3.716312e+003;2.584044e-002
3.718240e+003;2.569688e-002
3.720169e+003;2.506215e-002
3.722098e+003;2.478988e-002
3.724026e+003;2.508844e-002
3.725955e+003;2.517376e-002
3.727883e+003;2.528690e-002
3.729812e+003;2.550994e-002
3.731740e+003;2.551957e-002
3.733669e+003;2.556504e-002
3.735597e+003;2.556911e-002
3.737526e+003;2.539702e-002
3.739455e+003;2.556957e-002
3.741383e+003;2.598661e-002
3.743312e+003;2.599027e-002
3.745240e+003;2.591264e-002
3.747169e+003;2.599618e-002
3.749097e+003;2.627903e-002
3.751026e+003;2.619202e-002
3.752954e+003;2.597841e-002
3.754883e+003;2.615338e-002
3.756812e+003;2.658154e-002
3.758740e+003;2.694367e-002
3.760668e+003;2.718076e-002
3.762597e+003;2.720382e-002
3.764526e+003;2.706285e-002
3.766454e+003;2.660391e-002
3.768383e+003;2.626977e-002
3.770311e+003;2.665799e-002
3.772240e+003;2.711522e-002
3.774168e+003;2.660110e-002
3.776097e+003;2.591802e-002
3.778025e+003;2.550822e-002
3.779954e+003;2.545527e-002
3.781883e+003;2.550059e-002
3.783811e+003;2.544620e-002
3.785740e+003;2.559523e-002
3.787668e+003;2.581227e-002
3.789597e+003;2.588925e-002
3.791525e+003;2.599252e-002
3.793454e+003;2.621469e-002
3.795382e+003;2.622158e-002
3.797311e+003;2.623331e-002
3.799240e+003;2.645584e-002
3.801168e+003;2.683838e-002
3.803097e+003;2.681716e-002
3.805025e+003;2.676070e-002
3.806954e+003;2.673293e-002
3.808882e+003;2.680158e-002
3.810811e+003;2.677991e-002
3.812739e+003;2.692164e-002
3.814668e+003;2.690482e-002
3.816596e+003;2.645081e-002
3.818525e+003;2.632328e-002
3.820454e+003;2.670570e-002
3.822382e+003;2.719800e-002
3.824311e+003;2.679108e-002
3.826239e+003;2.634254e-002
3.828168e+003;2.663735e-002
3.830096e+003;2.644866e-002
3.832025e+003;2.586688e-002
3.833953e+003;2.603167e-002
3.835882e+003;2.616482e-002
3.837811e+003;2.580309e-002
3.839739e+003;2.603143e-002
3.841667e+003;2.656002e-002
3.843596e+003;2.638250e-002
3.845525e+003;2.617189e-002
3.847453e+003;2.628223e-002
3.849382e+003;2.594792e-002
3.851310e+003;2.556054e-002
3.853239e+003;2.565136e-002
3.855167e+003;2.595062e-002
3.857096e+003;2.649043e-002
3.859024e+003;2.662597e-002
3.860953e+003;2.627942e-002
3.862882e+003;2.620480e-002
3.864810e+003;2.623260e-002
3.866739e+003;2.600947e-002
3.868667e+003;2.603554e-002
3.870596e+003;2.618467e-002
3.872524e+003;2.650240e-002
3.874453e+003;2.707999e-002
3.876381e+003;2.713801e-002
3.878310e+003;2.669033e-002
3.880239e+003;2.649219e-002
3.882167e+003;2.677466e-002
3.884096e+003;2.729837e-002
3.886024e+003;2.748002e-002
3.887953e+003;2.735483e-002
3.889881e+003;2.713832e-002
3.891810e+003;2.708426e-002
3.893738e+003;2.692950e-002
3.895667e+003;2.662139e-002
3.897595e+003;2.653287e-002
3.899524e+003;2.679316e-002
3.901453e+003;2.687045e-002
3.903381e+003;2.727777e-002
3.905310e+003;2.753346e-002
3.907238e+003;2.743632e-002
3.909167e+003;2.825530e-002
3.911095e+003;2.825416e-002
3.913024e+003;2.794313e-002
3.914952e+003;2.811363e-002
3.916881e+003;2.811691e-002
3.918810e+003;2.832655e-002
3.920738e+003;2.823705e-002
3.922667e+003;2.811575e-002
3.924595e+003;2.793515e-002
3.926524e+003;2.807952e-002
3.928452e+003;2.859147e-002
3.930381e+003;2.884067e-002
3.932309e+003;2.867014e-002
3.934238e+003;2.835612e-002
3.936167e+003;2.819465e-002
3.938095e+003;2.873446e-002
3.940023e+003;2.893767e-002
3.941952e+003;2.873131e-002
3.943881e+003;2.860445e-002
3.945809e+003;2.867050e-002
3.947738e+003;2.894157e-002
3.949666e+003;2.905006e-002
3.951595e+003;2.895796e-002
3.953523e+003;2.905555e-002
3.955452e+003;2.893608e-002
3.957380e+003;2.871018e-002
3.959309e+003;2.888805e-002
3.961238e+003;2.903908e-002
3.963166e+003;2.934945e-002
3.965095e+003;2.966355e-002
3.967023e+003;2.992342e-002
3.968952e+003;2.985122e-002
3.970880e+003;2.978326e-002
3.972809e+003;2.931797e-002
3.974737e+003;2.878108e-002
3.976666e+003;2.892829e-002
3.978594e+003;2.946141e-002
3.980523e+003;2.945248e-002
3.982452e+003;2.921266e-002
3.984380e+003;2.902973e-002
3.986309e+003;2.881401e-002
3.988237e+003;2.925006e-002
3.990166e+003;2.952081e-002
3.992094e+003;2.914179e-002
3.994023e+003;2.901269e-002
3.995951e+003;2.886458e-002
3.997880e+003;2.880431e-002
3.999809e+003;2.913329e-002
4.001737e+003;0.000000e+000
