3.992094e+002;0.000000e+000
4.011380e+002;0.000000e+000
4.030665e+002;0.000000e+000
4.049951e+002;0.000000e+000
4.069236e+002;0.000000e+000
4.088522e+002;0.000000e+000
4.107807e+002;0.000000e+000
4.127093e+002;0.000000e+000
4.146378e+002;0.000000e+000
4.165664e+002;0.000000e+000
4.184949e+002;0.000000e+000
4.204235e+002;0.000000e+000
4.223520e+002;0.000000e+000
4.242806e+002;0.000000e+000
4.262091e+002;0.000000e+000
4.281377e+002;0.000000e+000
4.300662e+002;0.000000e+000
4.319948e+002;0.000000e+000
4.339233e+002;0.000000e+000
4.358519e+002;0.000000e+000
4.377804e+002;0.000000e+000
4.397090e+002;0.000000e+000
4.416375e+002;0.000000e+000
4.435660e+002;0.000000e+000
4.454946e+002;0.000000e+000
4.474232e+002;0.000000e+000
4.493517e+002;0.000000e+000
4.512802e+002;0.000000e+000
4.532088e+002;0.000000e+000
4.551373e+002;0.000000e+000
4.570659e+002;0.000000e+000
4.589944e+002;0.000000e+000
4.609230e+002;0.000000e+000
4.628515e+002;0.000000e+000
4.647801e+002;0.000000e+000
4.667086e+002;0.000000e+000
4.686372e+002;0.000000e+000
4.705657e+002;0.000000e+000
4.724943e+002;0.000000e+000
4.744228e+002;0.000000e+000
4.763513e+002;0.000000e+000
4.782799e+002;0.000000e+000
4.802085e+002;0.000000e+000
4.821370e+002;0.000000e+000
4.840656e+002;0.000000e+000
4.859941e+002;0.000000e+000
4.879226e+002;0.000000e+000
4.898512e+002;0.000000e+000
4.917798e+002;0.000000e+000
4.937083e+002;0.000000e+000
4.956368e+002;0.000000e+000
4.975654e+002;0.000000e+000
4.994939e+002;0.000000e+000
5.014225e+002;0.000000e+000
5.033510e+002;0.000000e+000
5.052796e+002;0.000000e+000
5.072081e+002;0.000000e+000
5.091367e+002;0.000000e+000
5.110652e+002;0.000000e+000
5.129938e+002;0.000000e+000
5.149223e+002;0.000000e+000
5.168509e+002;0.000000e+000
5.187794e+002;0.000000e+000
5.207079e+002;0.000000e+000
5.226365e+002;0.000000e+000
5.245651e+002;0.000000e+000
5.264936e+002;0.000000e+000
5.284222e+002;0.000000e+000
5.303507e+002;0.000000e+000
5.322792e+002;0.000000e+000
5.342078e+002;0.000000e+000
5.361364e+002;0.000000e+000
5.380649e+002;0.000000e+000
5.399935e+002;0.000000e+000
5.419220e+002;0.000000e+000
5.438505e+002;0.000000e+000
5.457791e+002;0.000000e+000
5.477076e+002;0.000000e+000
5.496362e+002;0.000000e+000
5.515648e+002;0.000000e+000
5.534933e+002;0.000000e+000
5.554218e+002;0.000000e+000
5.573504e+002;0.000000e+000
5.592789e+002;0.000000e+000
5.612075e+002;0.000000e+000
5.631360e+002;0.000000e+000
5.650646e+002;0.000000e+000
5.669931e+002;0.000000e+000
5.689217e+002;0.000000e+000
5.708502e+002;0.000000e+000
5.727787e+002;0.000000e+000
5.747073e+002;0.000000e+000
5.766359e+002;0.000000e+000
5.785644e+002;0.000000e+000
5.804930e+002;0.000000e+000
5.824215e+002;0.000000e+000
5.843500e+002;0.000000e+000
5.862786e+002;0.000000e+000
5.882072e+002;0.000000e+000
5.901357e+002;0.000000e+000
5.920643e+002;0.000000e+000
5.939928e+002;0.000000e+000
5.959213e+002;0.000000e+000
5.978499e+002;0.000000e+000
5.997784e+002;4.620687e-002
6.017070e+002;4.736041e-002
6.036355e+002;4.491453e-002
6.055641e+002;3.937699e-002
6.074926e+002;3.659118e-002
6.094211e+002;3.985247e-002
6.113497e+002;4.566454e-002
6.132783e+002;4.568803e-002
6.152068e+002;4.420430e-002
6.171354e+002;4.514410e-002
6.190639e+002;4.290838e-002
6.209924e+002;4.028098e-002
6.229210e+002;4.338287e-002
6.248495e+002;4.760281e-002
6.267781e+002;4.825905e-002
6.287067e+002;5.023146e-002
6.306352e+002;5.298122e-002
6.325637e+002;5.190822e-002
6.344923e+002;4.677579e-002
6.364208e+002;4.281421e-002
6.383494e+002;4.230236e-002
6.402780e+002;4.168303e-002
6.422065e+002;4.051833e-002
6.441350e+002;3.870766e-002
6.460636e+002;3.953969e-002
6.479921e+002;4.100252e-002
6.499207e+002;4.223878e-002
6.518492e+002;4.568320e-002
6.537778e+002;4.701376e-002
6.557063e+002;4.591767e-002
6.576349e+002;4.485431e-002
6.595634e+002;4.474033e-002
6.614919e+002;4.514046e-002
6.634205e+002;4.881601e-002
6.653491e+002;4.947829e-002
6.672776e+002;4.631535e-002
6.692062e+002;4.833337e-002
6.711347e+002;5.189679e-002
6.730632e+002;5.154568e-002
6.749918e+002;5.266929e-002
6.769203e+002;5.559565e-002
6.788489e+002;5.816720e-002
6.807775e+002;6.037755e-002
6.827060e+002;6.087656e-002
6.846345e+002;6.084778e-002
6.865631e+002;6.013998e-002
6.884916e+002;5.950796e-002
6.904202e+002;5.993141e-002
6.923488e+002;6.074632e-002
6.942773e+002;6.245564e-002
6.962058e+002;6.832416e-002
6.981344e+002;7.714774e-002
7.000629e+002;8.577693e-002
7.019915e+002;9.378371e-002
7.039200e+002;1.008135e-001
7.058486e+002;1.069318e-001
7.077771e+002;1.129756e-001
7.097057e+002;1.202751e-001
7.116342e+002;1.287759e-001
7.135627e+002;1.386039e-001
7.154913e+002;1.505704e-001
7.174199e+002;1.659523e-001
7.193484e+002;1.843341e-001
7.212770e+002;2.012800e-001
7.232055e+002;2.115391e-001
7.251340e+002;2.098873e-001
7.270626e+002;1.971689e-001
7.289911e+002;1.784920e-001
7.309197e+002;1.586032e-001
7.328483e+002;1.406966e-001
7.347768e+002;1.231002e-001
7.367053e+002;1.055595e-001
7.386339e+002;8.907337e-002
7.405624e+002;7.595887e-002
7.424910e+002;6.724918e-002
7.444196e+002;6.093248e-002
7.463481e+002;5.624587e-002
7.482766e+002;5.346404e-002
7.502052e+002;5.193988e-002
7.521337e+002;5.070836e-002
7.540623e+002;4.927507e-002
7.559908e+002;4.861552e-002
7.579194e+002;4.833459e-002
7.598479e+002;4.769988e-002
7.617765e+002;4.731648e-002
7.637050e+002;4.786292e-002
7.656335e+002;4.918704e-002
7.675621e+002;4.992016e-002
7.694907e+002;5.099720e-002
7.714192e+002;5.216430e-002
7.733478e+002;5.312832e-002
7.752763e+002;5.441446e-002
7.772048e+002;5.542234e-002
7.791334e+002;5.617241e-002
7.810620e+002;5.771163e-002
7.829905e+002;6.013876e-002
7.849191e+002;6.255570e-002
7.868476e+002;6.458025e-002
7.887761e+002;6.681684e-002
7.907047e+002;6.990240e-002
7.926332e+002;7.165161e-002
7.945618e+002;6.898873e-002
7.964903e+002;6.310055e-002
7.984189e+002;5.837969e-002
8.003474e+002;5.681700e-002
8.022759e+002;5.598865e-002
8.042045e+002;5.601772e-002
8.061331e+002;5.669779e-002
8.080616e+002;5.684951e-002
8.099902e+002;5.656404e-002
8.119187e+002;5.718445e-002
8.138472e+002;5.786121e-002
8.157758e+002;5.775042e-002
8.177043e+002;5.781938e-002
8.196329e+002;5.889276e-002
8.215615e+002;5.999281e-002
8.234900e+002;5.984226e-002
8.254185e+002;5.921770e-002
8.273471e+002;5.984960e-002
8.292756e+002;6.162500e-002
8.312042e+002;6.424293e-002
8.331328e+002;6.724798e-002
8.350613e+002;6.981534e-002
8.369898e+002;7.223593e-002
8.389184e+002;7.458618e-002
8.408469e+002;7.729257e-002
8.427755e+002;8.098538e-002
8.447040e+002;8.490418e-002
8.466326e+002;8.728606e-002
8.485611e+002;8.695493e-002
8.504897e+002;8.548153e-002
8.524182e+002;8.356159e-002
8.543467e+002;8.144590e-002
8.562753e+002;8.083425e-002
8.582039e+002;8.096351e-002
8.601324e+002;8.114636e-002
8.620610e+002;8.151933e-002
8.639895e+002;8.306545e-002
8.659180e+002;8.677395e-002
8.678466e+002;9.465555e-002
8.697751e+002;1.064852e-001
8.717037e+002;1.154502e-001
8.736323e+002;1.140843e-001
8.755608e+002;1.056148e-001
8.774893e+002;9.722888e-002
8.794179e+002;9.015302e-002
8.813464e+002;8.320296e-002
8.832750e+002;7.683296e-002
8.852036e+002;7.189924e-002
8.871321e+002;6.807597e-002
8.890606e+002;6.549720e-002
8.909892e+002;6.390343e-002
8.929177e+002;6.299251e-002
8.948463e+002;6.268258e-002
8.967748e+002;6.247343e-002
8.987034e+002;6.207575e-002
9.006319e+002;6.173304e-002
9.025605e+002;6.109225e-002
9.044890e+002;6.018249e-002
9.064175e+002;5.904397e-002
9.083461e+002;5.713234e-002
9.102747e+002;5.518973e-002
9.122032e+002;5.374853e-002
9.141318e+002;5.254878e-002
9.160603e+002;5.178867e-002
9.179888e+002;5.138054e-002
9.199174e+002;5.078173e-002
9.218459e+002;5.036636e-002
9.237745e+002;5.033827e-002
9.257031e+002;5.091888e-002
9.276316e+002;5.151661e-002
9.295601e+002;5.159967e-002
9.314887e+002;5.215877e-002
9.334172e+002;5.285849e-002
9.353458e+002;5.362292e-002
9.372744e+002;5.453286e-002
9.392029e+002;5.541805e-002
9.411314e+002;5.642309e-002
9.430600e+002;5.778743e-002
9.449885e+002;5.937783e-002
9.469171e+002;6.071088e-002
9.488456e+002;6.180974e-002
9.507742e+002;6.307641e-002
9.527027e+002;6.474917e-002
9.546313e+002;6.634177e-002
9.565598e+002;6.829210e-002
9.584883e+002;7.068856e-002
9.604169e+002;7.291725e-002
9.623455e+002;7.506516e-002
9.642740e+002;7.751781e-002
9.662026e+002;7.958332e-002
9.681311e+002;8.072463e-002
9.700596e+002;8.066258e-002
9.719882e+002;7.995961e-002
9.739167e+002;7.864983e-002
9.758453e+002;7.688544e-002
9.777739e+002;7.476719e-002
9.797024e+002;7.273098e-002
9.816309e+002;7.107681e-002
9.835595e+002;6.931382e-002
9.854880e+002;6.829605e-002
9.874166e+002;6.756666e-002
9.893452e+002;6.626777e-002
9.912737e+002;6.521396e-002
9.932022e+002;6.506521e-002
9.951307e+002;6.534585e-002
9.970593e+002;6.566324e-002
9.989879e+002;6.612152e-002
1.000916e+003;6.732071e-002
1.002845e+003;6.913257e-002
1.004773e+003;7.164802e-002
1.006702e+003;7.566033e-002
1.008631e+003;8.162120e-002
1.010559e+003;8.983433e-002
1.012488e+003;1.013983e-001
1.014416e+003;1.155956e-001
1.016345e+003;1.276656e-001
1.018273e+003;1.310746e-001
1.020202e+003;1.250389e-001
1.022130e+003;1.141390e-001
1.024059e+003;1.022285e-001
1.025988e+003;9.101131e-002
1.027916e+003;8.176609e-002
1.029845e+003;7.660040e-002
1.031773e+003;7.521642e-002
1.033702e+003;7.522568e-002
1.035630e+003;7.583477e-002
1.037559e+003;7.643712e-002
1.039487e+003;7.698579e-002
1.041416e+003;7.811242e-002
1.043344e+003;7.906129e-002
1.045273e+003;7.931664e-002
1.047202e+003;7.971511e-002
1.049130e+003;8.025527e-002
1.051059e+003;8.048204e-002
1.052987e+003;8.075348e-002
1.054916e+003;8.094714e-002
1.056844e+003;8.141141e-002
1.058773e+003;8.214916e-002
1.060701e+003;8.361723e-002
1.062630e+003;8.642494e-002
1.064558e+003;8.957342e-002
1.066487e+003;9.262656e-002
1.068416e+003;9.667673e-002
1.070344e+003;1.017788e-001
1.072273e+003;1.077714e-001
1.074201e+003;1.147500e-001
1.076130e+003;1.225548e-001
1.078058e+003;1.310464e-001
1.079987e+003;1.401238e-001
1.081915e+003;1.489471e-001
1.083844e+003;1.568397e-001
1.085773e+003;1.632006e-001
1.087701e+003;1.682258e-001
1.089630e+003;1.729057e-001
1.091558e+003;1.771497e-001
1.093487e+003;1.806168e-001
1.095415e+003;1.829356e-001
1.097344e+003;1.838382e-001
1.099272e+003;1.829288e-001
1.101201e+003;1.798803e-001
1.103129e+003;1.749496e-001
1.105058e+003;1.686052e-001
1.106987e+003;1.616590e-001
1.108915e+003;1.553812e-001
1.110844e+003;1.506929e-001
1.112772e+003;1.476755e-001
1.114701e+003;1.461744e-001
1.116629e+003;1.450733e-001
1.118558e+003;1.438500e-001
1.120486e+003;1.412447e-001
1.122415e+003;1.371060e-001
1.124344e+003;1.324244e-001
1.126272e+003;1.273177e-001
1.128201e+003;1.208969e-001
1.130129e+003;1.141429e-001
1.132058e+003;1.075569e-001
1.133986e+003;1.004450e-001
1.135915e+003;9.363956e-002
1.137843e+003;8.774442e-002
1.139772e+003;8.254856e-002
1.141700e+003;7.873677e-002
1.143629e+003;7.562337e-002
1.145557e+003;7.216003e-002
1.147486e+003;6.852288e-002
1.149415e+003;6.600154e-002
1.151343e+003;6.411994e-002
1.153272e+003;6.214486e-002
1.155200e+003;6.027826e-002
1.157129e+003;5.916940e-002
1.159057e+003;5.806985e-002
1.160986e+003;5.764295e-002
1.162914e+003;5.785962e-002
1.164843e+003;5.787495e-002
1.166771e+003;5.905873e-002
1.168700e+003;6.103753e-002
1.170629e+003;6.328488e-002
1.172557e+003;6.533406e-002
1.174486e+003;6.594824e-002
1.176414e+003;6.581728e-002
1.178343e+003;6.556316e-002
1.180271e+003;6.451654e-002
1.182200e+003;6.282403e-002
1.184128e+003;6.183431e-002
1.186057e+003;6.137724e-002
1.187986e+003;6.138694e-002
1.189914e+003;6.185608e-002
1.191843e+003;6.290698e-002
1.193771e+003;6.452116e-002
1.195700e+003;6.659635e-002
1.197628e+003;6.920274e-002
1.199557e+003;7.175232e-002
1.201485e+003;7.416546e-002
1.203414e+003;7.667310e-002
1.205343e+003;7.967968e-002
1.207271e+003;8.317812e-002
1.209200e+003;8.644237e-002
1.211128e+003;8.979281e-002
1.213057e+003;9.354268e-002
1.214985e+003;9.751729e-002
1.216914e+003;1.020272e-001
1.218842e+003;1.064476e-001
1.220771e+003;1.108231e-001
1.222699e+003;1.154364e-001
1.224628e+003;1.193166e-001
1.226557e+003;1.237656e-001
1.228485e+003;1.302610e-001
1.230414e+003;1.380974e-001
1.232342e+003;1.470107e-001
1.234271e+003;1.568678e-001
1.236199e+003;1.672649e-001
1.238128e+003;1.773148e-001
1.240056e+003;1.856790e-001
1.241985e+003;1.915046e-001
1.243913e+003;1.946764e-001
1.245842e+003;1.953547e-001
1.247771e+003;1.939587e-001
1.249699e+003;1.912274e-001
1.251628e+003;1.879196e-001
1.253556e+003;1.844841e-001
1.255485e+003;1.813461e-001
1.257413e+003;1.790099e-001
1.259342e+003;1.765163e-001
1.261270e+003;1.731004e-001
1.263199e+003;1.686452e-001
1.265127e+003;1.625258e-001
1.267056e+003;1.554923e-001
1.268985e+003;1.486069e-001
1.270913e+003;1.422954e-001
1.272842e+003;1.360364e-001
1.274770e+003;1.300044e-001
1.276699e+003;1.251238e-001
1.278627e+003;1.210899e-001
1.280556e+003;1.172156e-001
1.282484e+003;1.133555e-001
1.284413e+003;1.094208e-001
1.286342e+003;1.056616e-001
1.288270e+003;1.022413e-001
1.290199e+003;9.852211e-002
1.292127e+003;9.434693e-002
1.294056e+003;9.019568e-002
1.295984e+003;8.614611e-002
1.297913e+003;8.212867e-002
1.299841e+003;7.800424e-002
1.301770e+003;7.439584e-002
1.303698e+003;7.157995e-002
1.305627e+003;6.905930e-002
1.307556e+003;6.657209e-002
1.309484e+003;6.414375e-002
1.311413e+003;6.210426e-002
1.313341e+003;6.032055e-002
1.315270e+003;5.862597e-002
1.317198e+003;5.700080e-002
1.319127e+003;5.567101e-002
1.321055e+003;5.475434e-002
1.322984e+003;5.418513e-002
1.324912e+003;5.437289e-002
1.326841e+003;5.578945e-002
1.328770e+003;5.871650e-002
1.330698e+003;6.431385e-002
1.332627e+003;7.199109e-002
1.334555e+003;8.006956e-002
1.336484e+003;8.678277e-002
1.338412e+003;9.000918e-002
1.340341e+003;8.824590e-002
1.342269e+003;8.203472e-002
1.344198e+003;7.392611e-002
1.346126e+003;6.620317e-002
1.348055e+003;5.972047e-002
1.349984e+003;5.493437e-002
1.351912e+003;5.168423e-002
1.353841e+003;4.945103e-002
1.355769e+003;4.804330e-002
1.357698e+003;4.721359e-002
1.359626e+003;4.704463e-002
1.361555e+003;4.741104e-002
1.363483e+003;4.822643e-002
1.365412e+003;4.932492e-002
1.367341e+003;5.045176e-002
1.369269e+003;5.144138e-002
1.371198e+003;5.188245e-002
1.373126e+003;5.188425e-002
1.375055e+003;5.158821e-002
1.376983e+003;5.132751e-002
1.378912e+003;5.122780e-002
1.380840e+003;5.142179e-002
1.382769e+003;5.174708e-002
1.384698e+003;5.183015e-002
1.386626e+003;5.190755e-002
1.388555e+003;5.217644e-002
1.390483e+003;5.264853e-002
1.392412e+003;5.333466e-002
1.394340e+003;5.426242e-002
1.396269e+003;5.608791e-002
1.398197e+003;5.891447e-002
1.400126e+003;6.256235e-002
1.402054e+003;6.721649e-002
1.403983e+003;7.327475e-002
1.405911e+003;8.006769e-002
1.407840e+003;8.460280e-002
1.409769e+003;8.460969e-002
1.411697e+003;7.968561e-002
1.413626e+003;7.137870e-002
1.415554e+003;6.238992e-002
1.417483e+003;5.484151e-002
1.419411e+003;4.929162e-002
1.421340e+003;4.564860e-002
1.423268e+003;4.342689e-002
1.425197e+003;4.229315e-002
1.427125e+003;4.194592e-002
1.429054e+003;4.222351e-002
1.430983e+003;4.314088e-002
1.432911e+003;4.453234e-002
1.434840e+003;4.574181e-002
1.436768e+003;4.687067e-002
1.438697e+003;4.799590e-002
1.440625e+003;4.860092e-002
1.442554e+003;4.911569e-002
1.444482e+003;4.996187e-002
1.446411e+003;5.099832e-002
1.448340e+003;5.201618e-002
1.450268e+003;5.281116e-002
1.452197e+003;5.335024e-002
1.454125e+003;5.373218e-002
1.456054e+003;5.359871e-002
1.457982e+003;5.353697e-002
1.459911e+003;5.382158e-002
1.461839e+003;5.368520e-002
1.463768e+003;5.320663e-002
1.465697e+003;5.323097e-002
1.467625e+003;5.429877e-002
1.469554e+003;5.580946e-002
1.471482e+003;5.616792e-002
1.473411e+003;5.531751e-002
1.475339e+003;5.388223e-002
1.477268e+003;5.212130e-002
1.479196e+003;5.045414e-002
1.481125e+003;4.857253e-002
1.483053e+003;4.648993e-002
1.484982e+003;4.422330e-002
1.486911e+003;4.178760e-002
1.488839e+003;3.970769e-002
1.490768e+003;3.820286e-002
1.492696e+003;3.746659e-002
1.494625e+003;3.733102e-002
1.496553e+003;3.846764e-002
1.498482e+003;4.152302e-002
1.500410e+003;4.616272e-002
1.502339e+003;5.158971e-002
1.504267e+003;5.523830e-002
1.506196e+003;5.431484e-002
1.508125e+003;4.995313e-002
1.510053e+003;4.488194e-002
1.511982e+003;4.059916e-002
1.513910e+003;3.781243e-002
1.515839e+003;3.624642e-002
1.517767e+003;3.560168e-002
1.519696e+003;3.549872e-002
1.521624e+003;3.570865e-002
1.523553e+003;3.593869e-002
1.525481e+003;3.588096e-002
1.527410e+003;3.565271e-002
1.529339e+003;3.532681e-002
1.531267e+003;3.464337e-002
1.533196e+003;3.360609e-002
1.535124e+003;3.297844e-002
1.537053e+003;3.243605e-002
1.538981e+003;3.158639e-002
1.540910e+003;3.137695e-002
1.542838e+003;3.183226e-002
1.544767e+003;3.210995e-002
1.546695e+003;3.217317e-002
1.548624e+003;3.241431e-002
1.550553e+003;3.258632e-002
1.552481e+003;3.256746e-002
1.554410e+003;3.268337e-002
1.556338e+003;3.261482e-002
1.558267e+003;3.244023e-002
1.560195e+003;3.323833e-002
1.562124e+003;3.419963e-002
1.564052e+003;3.470080e-002
1.565981e+003;3.549570e-002
1.567910e+003;3.660261e-002
1.569838e+003;3.803487e-002
1.571767e+003;4.016419e-002
1.573695e+003;4.244099e-002
1.575624e+003;4.438339e-002
1.577552e+003;4.595402e-002
1.579481e+003;4.636154e-002
1.581409e+003;4.508046e-002
1.583338e+003;4.268701e-002
1.585266e+003;4.014885e-002
1.587195e+003;3.813995e-002
1.589124e+003;3.696385e-002
1.591052e+003;3.601766e-002
1.592981e+003;3.502870e-002
1.594909e+003;3.459576e-002
1.596838e+003;3.490527e-002
1.598766e+003;3.554683e-002
1.600695e+003;3.612344e-002
1.602623e+003;3.683810e-002
1.604552e+003;3.799093e-002
1.606480e+003;3.938175e-002
1.608409e+003;4.042824e-002
1.610338e+003;4.166713e-002
1.612266e+003;4.288205e-002
1.614195e+003;4.327066e-002
1.616123e+003;4.260510e-002
1.618052e+003;4.170192e-002
1.619980e+003;4.080203e-002
1.621909e+003;3.994411e-002
1.623837e+003;3.939673e-002
1.625766e+003;3.920496e-002
1.627694e+003;3.927089e-002
1.629623e+003;3.956481e-002
1.631552e+003;3.989118e-002
1.633480e+003;3.992326e-002
1.635409e+003;4.005637e-002
1.637337e+003;4.078219e-002
1.639266e+003;4.151948e-002
1.641194e+003;4.226697e-002
1.643123e+003;4.266830e-002
1.645051e+003;4.289705e-002
1.646980e+003;4.335303e-002
1.648909e+003;4.420114e-002
1.650837e+003;4.471359e-002
1.652766e+003;4.496311e-002
1.654694e+003;4.608092e-002
1.656623e+003;4.764385e-002
1.658551e+003;4.916203e-002
1.660480e+003;5.080288e-002
1.662408e+003;5.250316e-002
1.664337e+003;5.469882e-002
1.666266e+003;5.701622e-002
1.668194e+003;5.890108e-002
1.670123e+003;6.078016e-002
1.672051e+003;6.293571e-002
1.673980e+003;6.469706e-002
1.675908e+003;6.670034e-002
1.677837e+003;6.928311e-002
1.679765e+003;7.173900e-002
1.681694e+003;7.367603e-002
1.683622e+003;7.503250e-002
1.685551e+003;7.656515e-002
1.687479e+003;7.872967e-002
1.689408e+003;8.152708e-002
1.691337e+003;8.477660e-002
1.693265e+003;8.862840e-002
1.695194e+003;9.332205e-002
1.697122e+003;9.936929e-002
1.699051e+003;1.067062e-001
1.700979e+003;1.163656e-001
1.702908e+003;1.283900e-001
1.704836e+003;1.418734e-001
1.706765e+003;1.568748e-001
1.708693e+003;1.722489e-001
1.710622e+003;1.856945e-001
1.712551e+003;1.954413e-001
1.714479e+003;1.994369e-001
1.716408e+003;1.973651e-001
1.718336e+003;1.914594e-001
1.720265e+003;1.833214e-001
1.722193e+003;1.735402e-001
1.724122e+003;1.634003e-001
1.726050e+003;1.531353e-001
1.727979e+003;1.426235e-001
1.729908e+003;1.321695e-001
1.731836e+003;1.218612e-001
1.733765e+003;1.116048e-001
1.735693e+003;1.024475e-001
1.737622e+003;9.381603e-002
1.739550e+003;8.489081e-002
1.741479e+003;7.645557e-002
1.743407e+003;6.882754e-002
1.745336e+003;6.233070e-002
1.747265e+003;5.708461e-002
1.749193e+003;5.274901e-002
1.751122e+003;4.939534e-002
1.753050e+003;4.704961e-002
1.754979e+003;4.531729e-002
1.756907e+003;4.396038e-002
1.758836e+003;4.276130e-002
1.760764e+003;4.154088e-002
1.762693e+003;4.073932e-002
1.764621e+003;4.011440e-002
1.766550e+003;3.945195e-002
1.768479e+003;3.892871e-002
1.770407e+003;3.824910e-002
1.772336e+003;3.753154e-002
1.774264e+003;3.732203e-002
1.776193e+003;3.707311e-002
1.778121e+003;3.667684e-002
1.780050e+003;3.650349e-002
1.781978e+003;3.624145e-002
1.783907e+003;3.586721e-002
1.785835e+003;3.557067e-002
1.787764e+003;3.530295e-002
1.789693e+003;3.496761e-002
1.791621e+003;3.477380e-002
1.793550e+003;3.464887e-002
1.795478e+003;3.457509e-002
1.797407e+003;3.451866e-002
1.799335e+003;3.441054e-002
1.801264e+003;3.434749e-002
1.803192e+003;3.443726e-002
1.805121e+003;3.445541e-002
1.807049e+003;3.427553e-002
1.808978e+003;3.419378e-002
1.810907e+003;3.409249e-002
1.812835e+003;3.413453e-002
1.814764e+003;3.438454e-002
1.816692e+003;3.425021e-002
1.818621e+003;3.404655e-002
1.820549e+003;3.402913e-002
1.822478e+003;3.391637e-002
1.824406e+003;3.371247e-002
1.826335e+003;3.333800e-002
1.828264e+003;3.298780e-002
1.830192e+003;3.268665e-002
1.832121e+003;3.243144e-002
1.834049e+003;3.213603e-002
1.835978e+003;3.174506e-002
1.837906e+003;3.128966e-002
1.839835e+003;3.078345e-002
1.841763e+003;3.023893e-002
1.843692e+003;2.940263e-002
1.845620e+003;2.859684e-002
1.847549e+003;2.813827e-002
1.849478e+003;2.762589e-002
1.851406e+003;2.716665e-002
1.853335e+003;2.677350e-002
1.855263e+003;2.633486e-002
1.857192e+003;2.576041e-002
1.859120e+003;2.514704e-002
1.861049e+003;2.471113e-002
1.862977e+003;2.454610e-002
1.864906e+003;2.430909e-002
1.866834e+003;2.379705e-002
1.868763e+003;2.341798e-002
1.870692e+003;2.328313e-002
1.872620e+003;2.313943e-002
1.874549e+003;2.302339e-002
1.876477e+003;2.303817e-002
1.878406e+003;2.302087e-002
1.880334e+003;2.271280e-002
1.882263e+003;2.234207e-002
1.884191e+003;2.221819e-002
1.886120e+003;2.215364e-002
1.888048e+003;2.227374e-002
1.889977e+003;2.239398e-002
1.891906e+003;2.238547e-002
1.893834e+003;2.226597e-002
1.895763e+003;2.231884e-002
1.897691e+003;2.249660e-002
1.899620e+003;2.266015e-002
1.901548e+003;2.277334e-002
1.903477e+003;2.282006e-002
1.905405e+003;2.273074e-002
1.907334e+003;2.268173e-002
1.909262e+003;2.302259e-002
1.911191e+003;2.348810e-002
1.913120e+003;2.373066e-002
1.915048e+003;2.360424e-002
1.916977e+003;2.344313e-002
1.918905e+003;2.377591e-002
1.920834e+003;2.428305e-002
1.922762e+003;2.461111e-002
1.924691e+003;2.483120e-002
1.926619e+003;2.519194e-002
1.928548e+003;2.555970e-002
1.930477e+003;2.593314e-002
1.932405e+003;2.644782e-002
1.934334e+003;2.703718e-002
1.936262e+003;2.775999e-002
1.938191e+003;2.835329e-002
1.940119e+003;2.872341e-002
1.942048e+003;2.919314e-002
1.943976e+003;2.977205e-002
1.945905e+003;3.017890e-002
1.947833e+003;3.050305e-002
1.949762e+003;3.084684e-002
1.951691e+003;3.124099e-002
1.953619e+003;3.171476e-002
1.955548e+003;3.206468e-002
1.957476e+003;3.199726e-002
1.959405e+003;3.165709e-002
1.961333e+003;3.140256e-002
1.963262e+003;3.108047e-002
1.965190e+003;3.051286e-002
1.967119e+003;2.973071e-002
1.969047e+003;2.899370e-002
1.970976e+003;2.849582e-002
1.972905e+003;2.803954e-002
1.974833e+003;2.746533e-002
1.976762e+003;2.701768e-002
1.978690e+003;2.677378e-002
1.980619e+003;2.656591e-002
1.982547e+003;2.618241e-002
1.984476e+003;2.578136e-002
1.986404e+003;2.547687e-002
1.988333e+003;2.518461e-002
1.990261e+003;2.477960e-002
1.992190e+003;2.437280e-002
1.994119e+003;2.405742e-002
1.996047e+003;2.367344e-002
1.997976e+003;2.332592e-002
1.999904e+003;2.314758e-002
2.001833e+003;2.314555e-002
2.003761e+003;2.305609e-002
2.005690e+003;2.261931e-002
2.007618e+003;2.217397e-002
2.009547e+003;2.188507e-002
2.011476e+003;2.172578e-002
2.013404e+003;2.170878e-002
2.015333e+003;2.152288e-002
2.017261e+003;2.133251e-002
2.019190e+003;2.141754e-002
2.021118e+003;2.129423e-002
2.023047e+003;2.094707e-002
2.024975e+003;2.078607e-002
2.026904e+003;2.084969e-002
2.028833e+003;2.075643e-002
2.030761e+003;2.062733e-002
2.032690e+003;2.044207e-002
2.034618e+003;2.034157e-002
2.036547e+003;2.075326e-002
2.038475e+003;2.098264e-002
2.040404e+003;2.080999e-002
2.042332e+003;2.084882e-002
2.044261e+003;2.105727e-002
2.046189e+003;2.124607e-002
2.048118e+003;2.128254e-002
2.050047e+003;2.138217e-002
2.051975e+003;2.152814e-002
2.053904e+003;2.163494e-002
2.055832e+003;2.176608e-002
2.057761e+003;2.203943e-002
2.059689e+003;2.245605e-002
2.061618e+003;2.297591e-002
2.063546e+003;2.335424e-002
2.065475e+003;2.356688e-002
2.067404e+003;2.373170e-002
2.069332e+003;2.392125e-002
2.071260e+003;2.424794e-002
2.073189e+003;2.478823e-002
2.075118e+003;2.510965e-002
2.077046e+003;2.522365e-002
2.078975e+003;2.539955e-002
2.080903e+003;2.552428e-002
2.082832e+003;2.547571e-002
2.084760e+003;2.546247e-002
2.086689e+003;2.574258e-002
2.088617e+003;2.603287e-002
2.090546e+003;2.614303e-002
2.092475e+003;2.611274e-002
2.094403e+003;2.608877e-002
2.096332e+003;2.605405e-002
2.098260e+003;2.598591e-002
2.100189e+003;2.604311e-002
2.102117e+003;2.630814e-002
2.104046e+003;2.640528e-002
2.105974e+003;2.642714e-002
2.107903e+003;2.649571e-002
2.109832e+003;2.652758e-002
2.111760e+003;2.662163e-002
2.113688e+003;2.665630e-002
2.115617e+003;2.656925e-002
2.117546e+003;2.649722e-002
2.119474e+003;2.631451e-002
2.121403e+003;2.601306e-002
2.123331e+003;2.567301e-002
2.125260e+003;2.534524e-002
2.127188e+003;2.532114e-002
2.129117e+003;2.532431e-002
2.131045e+003;2.507405e-002
2.132974e+003;2.471443e-002
2.134903e+003;2.442642e-002
2.136831e+003;2.422703e-002
2.138760e+003;2.416043e-002
2.140688e+003;2.436796e-002
2.142617e+003;2.436551e-002
2.144545e+003;2.393553e-002
2.146474e+003;2.367880e-002
2.148402e+003;2.342561e-002
2.150331e+003;2.303038e-002
2.152260e+003;2.297661e-002
2.154188e+003;2.285527e-002
2.156117e+003;2.255010e-002
2.158045e+003;2.240264e-002
2.159974e+003;2.235366e-002
2.161902e+003;2.213377e-002
2.163831e+003;2.162313e-002
2.165759e+003;2.147244e-002
2.167688e+003;2.152588e-002
2.169616e+003;2.160600e-002
2.171545e+003;2.171878e-002
2.173474e+003;2.155732e-002
2.175402e+003;2.134859e-002
2.177331e+003;2.121851e-002
2.179259e+003;2.116222e-002
2.181188e+003;2.107995e-002
2.183116e+003;2.109710e-002
2.185045e+003;2.107783e-002
2.186973e+003;2.101018e-002
2.188902e+003;2.108743e-002
2.190831e+003;2.116834e-002
2.192759e+003;2.125564e-002
2.194688e+003;2.139540e-002
2.196616e+003;2.134584e-002
2.198545e+003;2.122077e-002
2.200473e+003;2.140616e-002
2.202402e+003;2.160558e-002
2.204330e+003;2.168562e-002
2.206259e+003;2.193399e-002
2.208188e+003;2.225592e-002
2.210116e+003;2.229017e-002
2.212044e+003;2.227050e-002
2.213973e+003;2.211982e-002
2.215902e+003;2.193762e-002
2.217830e+003;2.191190e-002
2.219759e+003;2.207314e-002
2.221687e+003;2.238687e-002
2.223616e+003;2.261034e-002
2.225544e+003;2.259463e-002
2.227473e+003;2.245832e-002
2.229401e+003;2.244879e-002
2.231330e+003;2.259456e-002
2.233259e+003;2.277226e-002
2.235187e+003;2.284814e-002
2.237116e+003;2.285048e-002
2.239044e+003;2.296581e-002
2.240973e+003;2.319546e-002
2.242901e+003;2.343998e-002
2.244830e+003;2.369860e-002
2.246758e+003;2.375498e-002
2.248687e+003;2.353252e-002
2.250615e+003;2.353403e-002
2.252544e+003;2.371988e-002
2.254473e+003;2.368779e-002
2.256401e+003;2.361967e-002
2.258330e+003;2.392716e-002
2.260258e+003;2.404902e-002
2.262187e+003;2.396795e-002
2.264115e+003;2.397737e-002
2.266044e+003;2.380709e-002
2.267972e+003;2.371435e-002
2.269901e+003;2.384825e-002
2.271830e+003;2.403665e-002
2.273758e+003;2.393644e-002
2.275687e+003;2.410285e-002
2.277615e+003;2.421652e-002
2.279544e+003;2.410064e-002
2.281472e+003;2.400654e-002
2.283401e+003;2.397688e-002
2.285329e+003;2.413997e-002
2.287258e+003;2.424493e-002
2.289187e+003;2.389586e-002
2.291115e+003;2.367890e-002
2.293043e+003;2.380373e-002
2.294972e+003;2.354862e-002
2.296901e+003;2.296938e-002
2.298829e+003;2.268190e-002
2.300758e+003;2.241129e-002
2.302686e+003;2.197578e-002
2.304615e+003;2.164041e-002
2.306543e+003;2.134921e-002
2.308472e+003;2.107891e-002
2.310400e+003;2.099015e-002
2.312329e+003;2.100827e-002
2.314258e+003;2.095935e-002
2.316186e+003;2.076654e-002
2.318115e+003;2.043748e-002
2.320043e+003;2.018069e-002
2.321972e+003;2.000294e-002
2.323900e+003;1.994424e-002
2.325829e+003;1.968511e-002
2.327757e+003;1.941157e-002
2.329686e+003;1.939775e-002
2.331615e+003;1.934682e-002
2.333543e+003;1.927927e-002
2.335472e+003;1.913956e-002
2.337400e+003;1.915999e-002
2.339329e+003;1.934661e-002
2.341257e+003;1.970612e-002
2.343186e+003;2.038424e-002
2.345114e+003;2.099721e-002
2.347043e+003;2.150784e-002
2.348971e+003;2.185144e-002
2.350900e+003;2.167809e-002
2.352829e+003;2.109393e-002
2.354757e+003;2.054971e-002
2.356686e+003;2.022332e-002
2.358614e+003;2.008837e-002
2.360543e+003;2.005579e-002
2.362471e+003;2.022342e-002
2.364400e+003;2.045905e-002
2.366328e+003;2.081027e-002
2.368257e+003;2.143776e-002
2.370186e+003;2.224522e-002
2.372114e+003;2.312224e-002
2.374042e+003;2.372156e-002
2.375971e+003;2.430993e-002
2.377900e+003;2.497135e-002
2.379828e+003;2.537513e-002
2.381757e+003;2.541901e-002
2.383685e+003;2.518805e-002
2.385614e+003;2.519086e-002
2.387542e+003;2.536066e-002
2.389471e+003;2.544093e-002
2.391399e+003;2.550867e-002
2.393328e+003;2.555450e-002
2.395257e+003;2.539038e-002
2.397185e+003;2.510680e-002
2.399114e+003;2.486853e-002
2.401042e+003;2.475301e-002
2.402971e+003;2.475655e-002
2.404899e+003;2.483682e-002
2.406828e+003;2.458755e-002
2.408756e+003;2.441685e-002
2.410685e+003;2.437276e-002
2.412614e+003;2.425057e-002
2.414542e+003;2.429868e-002
2.416471e+003;2.413822e-002
2.418399e+003;2.373111e-002
2.420328e+003;2.343687e-002
2.422256e+003;2.340676e-002
2.424185e+003;2.331435e-002
2.426113e+003;2.316407e-002
2.428042e+003;2.302992e-002
2.429970e+003;2.267932e-002
2.431899e+003;2.263073e-002
2.433828e+003;2.268029e-002
2.435756e+003;2.236496e-002
2.437685e+003;2.211246e-002
2.439613e+003;2.197805e-002
2.441542e+003;2.185810e-002
2.443470e+003;2.197853e-002
2.445399e+003;2.198338e-002
2.447327e+003;2.186911e-002
2.449256e+003;2.167618e-002
2.451185e+003;2.158928e-002
2.453113e+003;2.162777e-002
2.455042e+003;2.171306e-002
2.456970e+003;2.160656e-002
2.458899e+003;2.154071e-002
2.460827e+003;2.158333e-002
2.462756e+003;2.163943e-002
2.464684e+003;2.151655e-002
2.466613e+003;2.146854e-002
2.468542e+003;2.162763e-002
2.470470e+003;2.175887e-002
2.472398e+003;2.177956e-002
2.474327e+003;2.181496e-002
2.476256e+003;2.196742e-002
2.478184e+003;2.201660e-002
2.480113e+003;2.204584e-002
2.482041e+003;2.222603e-002
2.483970e+003;2.237267e-002
2.485898e+003;2.242060e-002
2.487827e+003;2.251991e-002
2.489755e+003;2.289113e-002
2.491684e+003;2.298279e-002
2.493613e+003;2.279499e-002
2.495541e+003;2.270438e-002
2.497470e+003;2.289051e-002
2.499398e+003;2.320503e-002
2.501327e+003;2.336445e-002
2.503255e+003;2.347751e-002
2.505184e+003;2.361193e-002
2.507112e+003;2.370623e-002
2.509041e+003;2.383408e-002
2.510969e+003;2.391886e-002
2.512898e+003;2.401879e-002
2.514827e+003;2.411910e-002
2.516755e+003;2.416912e-002
2.518684e+003;2.429801e-002
2.520612e+003;2.449204e-002
2.522541e+003;2.450494e-002
2.524469e+003;2.457619e-002
2.526398e+003;2.468191e-002
2.528326e+003;2.478872e-002
2.530255e+003;2.480398e-002
2.532184e+003;2.467932e-002
2.534112e+003;2.479184e-002
2.536041e+003;2.518253e-002
2.537969e+003;2.528395e-002
2.539898e+003;2.503811e-002
2.541826e+003;2.498985e-002
2.543755e+003;2.517421e-002
2.545683e+003;2.523830e-002
2.547612e+003;2.515922e-002
2.549541e+003;2.531809e-002
2.551469e+003;2.541736e-002
2.553397e+003;2.538651e-002
2.555326e+003;2.544409e-002
2.557255e+003;2.537281e-002
2.559183e+003;2.508852e-002
2.561112e+003;2.508676e-002
2.563040e+003;2.536934e-002
2.564969e+003;2.543450e-002
2.566897e+003;2.539632e-002
2.568826e+003;2.536639e-002
2.570754e+003;2.550256e-002
2.572683e+003;2.552340e-002
2.574612e+003;2.555506e-002
2.576540e+003;2.561811e-002
2.578469e+003;2.557678e-002
2.580397e+003;2.574744e-002
2.582326e+003;2.551173e-002
2.584254e+003;2.517463e-002
2.586183e+003;2.506454e-002
2.588111e+003;2.485692e-002
2.590040e+003;2.477956e-002
2.591969e+003;2.472032e-002
2.593897e+003;2.446950e-002
2.595826e+003;2.446635e-002
2.597754e+003;2.460785e-002
2.599683e+003;2.448233e-002
2.601611e+003;2.415661e-002
2.603540e+003;2.394876e-002
2.605468e+003;2.386758e-002
2.607397e+003;2.391036e-002
2.609325e+003;2.382757e-002
2.611254e+003;2.357702e-002
2.613183e+003;2.325880e-002
2.615111e+003;2.335120e-002
2.617040e+003;2.341613e-002
2.618968e+003;2.325806e-002
2.620897e+003;2.327208e-002
2.622825e+003;2.328173e-002
2.624754e+003;2.332221e-002
2.626682e+003;2.336665e-002
2.628611e+003;2.330893e-002
2.630540e+003;2.332973e-002
2.632468e+003;2.324404e-002
2.634396e+003;2.295638e-002
2.636325e+003;2.275546e-002
2.638254e+003;2.271444e-002
2.640182e+003;2.254800e-002
2.642111e+003;2.226359e-002
2.644039e+003;2.214036e-002
2.645968e+003;2.203556e-002
2.647896e+003;2.175702e-002
2.649825e+003;2.170199e-002
2.651753e+003;2.180970e-002
2.653682e+003;2.177615e-002
2.655611e+003;2.166733e-002
2.657539e+003;2.154068e-002
2.659468e+003;2.153023e-002
2.661396e+003;2.160046e-002
2.663325e+003;2.165305e-002
2.665253e+003;2.158521e-002
2.667182e+003;2.141535e-002
2.669110e+003;2.130930e-002
2.671039e+003;2.138127e-002
2.672968e+003;2.170589e-002
2.674896e+003;2.178099e-002
2.676825e+003;2.148420e-002
2.678753e+003;2.162049e-002
2.680682e+003;2.206191e-002
2.682610e+003;2.206763e-002
2.684539e+003;2.190664e-002
2.686467e+003;2.166942e-002
2.688396e+003;2.147950e-002
2.690324e+003;2.154666e-002
2.692253e+003;2.179019e-002
2.694182e+003;2.196404e-002
2.696110e+003;2.191148e-002
2.698039e+003;2.172226e-002
2.699967e+003;2.201461e-002
2.701896e+003;2.226248e-002
2.703824e+003;2.212205e-002
2.705753e+003;2.184074e-002
2.707681e+003;2.194839e-002
2.709610e+003;2.233765e-002
2.711539e+003;2.243868e-002
2.713467e+003;2.242493e-002
2.715396e+003;2.228407e-002
2.717324e+003;2.222342e-002
2.719253e+003;2.244056e-002
2.721181e+003;2.265268e-002
2.723110e+003;2.271856e-002
2.725038e+003;2.286417e-002
2.726967e+003;2.315705e-002
2.728896e+003;2.331095e-002
2.730824e+003;2.333410e-002
2.732752e+003;2.326362e-002
2.734681e+003;2.332620e-002
2.736610e+003;2.354501e-002
2.738538e+003;2.370371e-002
2.740467e+003;2.368373e-002
2.742395e+003;2.355411e-002
2.744324e+003;2.344058e-002
2.746252e+003;2.348779e-002
2.748181e+003;2.374045e-002
2.750109e+003;2.383058e-002
2.752038e+003;2.369710e-002
2.753967e+003;2.370910e-002
2.755895e+003;2.394813e-002
2.757824e+003;2.405122e-002
2.759752e+003;2.391389e-002
2.761681e+003;2.401683e-002
2.763609e+003;2.391921e-002
2.765538e+003;2.375718e-002
2.767466e+003;2.388802e-002
2.769395e+003;2.414680e-002
2.771323e+003;2.422349e-002
2.773252e+003;2.421921e-002
2.775181e+003;2.441177e-002
2.777109e+003;2.460017e-002
2.779038e+003;2.464064e-002
2.780966e+003;2.471857e-002
2.782895e+003;2.485548e-002
2.784823e+003;2.501715e-002
2.786752e+003;2.528441e-002
2.788680e+003;2.557094e-002
2.790609e+003;2.581097e-002
2.792538e+003;2.619318e-002
2.794466e+003;2.653255e-002
2.796395e+003;2.654055e-002
2.798323e+003;2.657196e-002
2.800252e+003;2.691476e-002
2.802180e+003;2.707664e-002
2.804109e+003;2.723748e-002
2.806037e+003;2.752725e-002
2.807966e+003;2.749795e-002
2.809895e+003;2.723293e-002
2.811823e+003;2.737050e-002
2.813751e+003;2.755729e-002
2.815680e+003;2.733691e-002
2.817609e+003;2.676000e-002
2.819537e+003;2.649782e-002
2.821466e+003;2.650716e-002
2.823394e+003;2.651645e-002
2.825323e+003;2.679027e-002
2.827251e+003;2.712069e-002
2.829180e+003;2.719106e-002
2.831108e+003;2.729968e-002
2.833037e+003;2.760916e-002
2.834966e+003;2.796126e-002
2.836894e+003;2.822920e-002
2.838823e+003;2.853410e-002
2.840751e+003;2.916238e-002
2.842680e+003;2.973571e-002
2.844608e+003;3.004107e-002
2.846537e+003;3.058257e-002
2.848465e+003;3.153846e-002
2.850394e+003;3.225578e-002
2.852323e+003;3.258482e-002
2.854251e+003;3.291377e-002
2.856180e+003;3.337321e-002
2.858108e+003;3.334469e-002
2.860037e+003;3.337277e-002
2.861965e+003;3.383406e-002
2.863894e+003;3.391182e-002
2.865822e+003;3.389043e-002
2.867751e+003;3.428463e-002
2.869679e+003;3.459120e-002
2.871608e+003;3.475963e-002
2.873536e+003;3.498607e-002
2.875465e+003;3.523830e-002
2.877394e+003;3.566717e-002
2.879322e+003;3.621995e-002
2.881251e+003;3.658963e-002
2.883179e+003;3.701248e-002
2.885108e+003;3.749592e-002
2.887036e+003;3.784522e-002
2.888965e+003;3.795734e-002
2.890893e+003;3.811629e-002
2.892822e+003;3.845881e-002
2.894750e+003;3.875012e-002
2.896679e+003;3.922817e-002
2.898608e+003;3.995392e-002
2.900536e+003;4.101050e-002
2.902465e+003;4.233541e-002
2.904393e+003;4.339118e-002
2.906322e+003;4.402396e-002
2.908250e+003;4.439359e-002
2.910179e+003;4.424436e-002
2.912107e+003;4.368303e-002
2.914036e+003;4.315145e-002
2.915965e+003;4.241479e-002
2.917893e+003;4.150730e-002
2.919822e+003;4.036133e-002
2.921750e+003;3.954830e-002
2.923679e+003;3.874932e-002
2.925607e+003;3.805494e-002
2.927536e+003;3.785762e-002
2.929464e+003;3.781948e-002
2.931393e+003;3.771130e-002
2.933322e+003;3.749791e-002
2.935250e+003;3.761565e-002
2.937178e+003;3.838312e-002
2.939107e+003;3.913015e-002
2.941036e+003;3.963737e-002
2.942964e+003;4.022384e-002
2.944893e+003;4.134772e-002
2.946821e+003;4.259425e-002
2.948750e+003;4.346493e-002
2.950678e+003;4.425834e-002
2.952607e+003;4.514818e-002
2.954535e+003;4.651659e-002
2.956464e+003;4.774215e-002
2.958393e+003;4.844238e-002
2.960321e+003;4.896137e-002
2.962250e+003;4.955218e-002
2.964178e+003;5.031137e-002
2.966107e+003;5.100264e-002
2.968035e+003;5.128966e-002
2.969964e+003;5.140963e-002
2.971892e+003;5.158127e-002
2.973821e+003;5.113547e-002
2.975750e+003;5.042835e-002
2.977678e+003;5.005608e-002
2.979607e+003;4.958840e-002
2.981535e+003;4.873186e-002
2.983464e+003;4.798642e-002
2.985392e+003;4.770313e-002
2.987321e+003;4.716842e-002
2.989249e+003;4.618668e-002
2.991178e+003;4.532994e-002
2.993106e+003;4.476079e-002
2.995035e+003;4.465938e-002
2.996964e+003;4.449673e-002
2.998892e+003;4.410152e-002
3.000821e+003;4.365266e-002
3.002749e+003;4.314392e-002
3.004678e+003;4.253332e-002
3.006606e+003;4.189064e-002
3.008535e+003;4.141140e-002
3.010463e+003;4.099458e-002
3.012392e+003;4.058032e-002
3.014321e+003;3.994171e-002
3.016249e+003;3.945043e-002
3.018177e+003;3.891610e-002
3.020106e+003;3.785357e-002
3.022035e+003;3.690908e-002
3.023963e+003;3.644251e-002
3.025892e+003;3.581115e-002
3.027820e+003;3.493669e-002
3.029749e+003;3.387876e-002
3.031677e+003;3.325543e-002
3.033606e+003;3.296739e-002
3.035534e+003;3.273974e-002
3.037463e+003;3.261685e-002
3.039392e+003;3.233249e-002
3.041320e+003;3.238082e-002
3.043249e+003;3.318365e-002
3.045177e+003;3.414113e-002
3.047106e+003;3.538407e-002
3.049034e+003;3.669696e-002
3.050963e+003;3.790505e-002
3.052891e+003;3.833418e-002
3.054820e+003;3.813098e-002
3.056749e+003;3.810352e-002
3.058677e+003;3.798012e-002
3.060606e+003;3.766096e-002
3.062534e+003;3.779588e-002
3.064463e+003;3.795668e-002
3.066391e+003;3.771856e-002
3.068320e+003;3.772218e-002
3.070248e+003;3.791456e-002
3.072177e+003;3.774361e-002
3.074105e+003;3.759108e-002
3.076034e+003;3.779671e-002
3.077963e+003;3.780404e-002
3.079891e+003;3.757399e-002
3.081820e+003;3.712551e-002
3.083748e+003;3.710645e-002
3.085677e+003;3.707827e-002
3.087605e+003;3.642954e-002
3.089534e+003;3.578049e-002
3.091462e+003;3.558664e-002
3.093391e+003;3.528836e-002
3.095320e+003;3.504030e-002
3.097248e+003;3.544554e-002
3.099177e+003;3.602281e-002
3.101105e+003;3.626083e-002
3.103034e+003;3.627369e-002
3.104962e+003;3.625089e-002
3.106891e+003;3.609676e-002
3.108819e+003;3.578974e-002
3.110748e+003;3.554334e-002
3.112677e+003;3.506398e-002
3.114605e+003;3.404128e-002
3.116533e+003;3.327611e-002
3.118462e+003;3.298477e-002
3.120391e+003;3.273810e-002
3.122319e+003;3.244762e-002
3.124248e+003;3.220882e-002
3.126176e+003;3.183593e-002
3.128105e+003;3.174257e-002
3.130033e+003;3.177286e-002
3.131962e+003;3.160720e-002
3.133890e+003;3.139223e-002
3.135819e+003;3.111005e-002
3.137748e+003;3.064739e-002
3.139676e+003;3.007800e-002
3.141605e+003;2.982340e-002
3.143533e+003;2.947407e-002
3.145462e+003;2.887584e-002
3.147390e+003;2.871697e-002
3.149319e+003;2.887810e-002
3.151247e+003;2.872819e-002
3.153176e+003;2.829893e-002
3.155104e+003;2.807587e-002
3.157033e+003;2.786868e-002
3.158962e+003;2.769437e-002
3.160890e+003;2.777309e-002
3.162819e+003;2.785099e-002
3.164747e+003;2.766371e-002
3.166676e+003;2.692855e-002
3.168604e+003;2.653533e-002
3.170533e+003;2.696962e-002
3.172461e+003;2.729340e-002
3.174390e+003;2.723861e-002
3.176319e+003;2.726754e-002
3.178247e+003;2.725572e-002
3.180176e+003;2.695206e-002
3.182104e+003;2.710037e-002
3.184033e+003;2.728232e-002
3.185961e+003;2.693514e-002
3.187890e+003;2.666934e-002
3.189818e+003;2.653825e-002
3.191747e+003;2.669904e-002
3.193676e+003;2.709367e-002
3.195604e+003;2.684321e-002
3.197532e+003;2.648617e-002
3.199461e+003;2.657108e-002
3.201390e+003;2.650004e-002
3.203318e+003;2.621694e-002
3.205247e+003;2.611077e-002
3.207175e+003;2.621145e-002
3.209104e+003;2.639045e-002
3.211032e+003;2.624077e-002
3.212961e+003;2.603132e-002
3.214889e+003;2.596881e-002
3.216818e+003;2.610753e-002
3.218747e+003;2.627079e-002
3.220675e+003;2.667166e-002
3.222604e+003;2.709540e-002
3.224532e+003;2.677501e-002
3.226461e+003;2.642007e-002
3.228389e+003;2.659821e-002
3.230318e+003;2.682354e-002
3.232246e+003;2.675750e-002
3.234175e+003;2.627051e-002
3.236104e+003;2.608399e-002
3.238032e+003;2.627379e-002
3.239961e+003;2.608916e-002
3.241889e+003;2.609215e-002
3.243818e+003;2.643662e-002
3.245746e+003;2.633926e-002
3.247675e+003;2.643880e-002
3.249603e+003;2.644570e-002
3.251532e+003;2.585774e-002
3.253460e+003;2.540921e-002
3.255389e+003;2.544241e-002
3.257318e+003;2.544817e-002
3.259246e+003;2.535065e-002
3.261175e+003;2.542927e-002
3.263103e+003;2.557794e-002
3.265032e+003;2.551401e-002
3.266960e+003;2.536129e-002
3.268889e+003;2.510105e-002
3.270817e+003;2.484910e-002
3.272746e+003;2.470853e-002
3.274675e+003;2.471923e-002
3.276603e+003;2.509013e-002
3.278531e+003;2.525217e-002
3.280460e+003;2.489443e-002
3.282389e+003;2.479823e-002
3.284317e+003;2.505152e-002
3.286246e+003;2.555014e-002
3.288174e+003;2.581361e-002
3.290103e+003;2.586389e-002
3.292031e+003;2.600279e-002
3.293960e+003;2.593409e-002
3.295888e+003;2.598991e-002
3.297817e+003;2.620346e-002
3.299746e+003;2.615975e-002
3.301674e+003;2.589843e-002
3.303603e+003;2.560008e-002
3.305531e+003;2.533277e-002
3.307460e+003;2.562644e-002
3.309388e+003;2.566914e-002
3.311317e+003;2.549922e-002
3.313245e+003;2.560886e-002
3.315174e+003;2.573059e-002
3.317103e+003;2.549451e-002
3.319031e+003;2.548633e-002
3.320960e+003;2.559449e-002
3.322888e+003;2.571129e-002
3.324817e+003;2.572416e-002
3.326745e+003;2.563403e-002
3.328674e+003;2.556694e-002
3.330602e+003;2.496496e-002
3.332531e+003;2.487534e-002
3.334459e+003;2.527334e-002
3.336388e+003;2.552688e-002
3.338317e+003;2.563234e-002
3.340245e+003;2.540738e-002
3.342174e+003;2.528030e-002
3.344102e+003;2.580411e-002
3.346031e+003;2.591767e-002
3.347959e+003;2.550470e-002
3.349888e+003;2.531145e-002
3.351816e+003;2.494963e-002
3.353745e+003;2.469759e-002
3.355674e+003;2.506194e-002
3.357602e+003;2.507795e-002
3.359531e+003;2.431378e-002
3.361459e+003;2.394852e-002
3.363388e+003;2.375396e-002
3.365316e+003;2.375596e-002
3.367245e+003;2.397520e-002
3.369173e+003;2.393886e-002
3.371102e+003;2.390174e-002
3.373031e+003;2.391526e-002
3.374959e+003;2.386282e-002
3.376887e+003;2.378585e-002
3.378816e+003;2.385557e-002
3.380745e+003;2.389824e-002
3.382673e+003;2.385007e-002
3.384602e+003;2.387174e-002
3.386530e+003;2.396956e-002
3.388459e+003;2.395699e-002
3.390387e+003;2.391078e-002
3.392316e+003;2.401039e-002
3.394244e+003;2.437679e-002
3.396173e+003;2.473158e-002
3.398102e+003;2.515911e-002
3.400030e+003;2.539684e-002
3.401959e+003;2.577293e-002
3.403887e+003;2.643648e-002
3.405816e+003;2.697220e-002
3.407744e+003;2.750106e-002
3.409673e+003;2.807117e-002
3.411601e+003;2.848531e-002
3.413530e+003;2.906292e-002
3.415458e+003;2.994234e-002
3.417387e+003;3.057212e-002
3.419316e+003;3.114632e-002
3.421244e+003;3.184449e-002
3.423173e+003;3.279541e-002
3.425101e+003;3.378742e-002
3.427030e+003;3.413596e-002
3.428958e+003;3.410858e-002
3.430887e+003;3.435761e-002
3.432815e+003;3.457376e-002
3.434744e+003;3.449013e-002
3.436673e+003;3.394650e-002
3.438601e+003;3.320571e-002
3.440530e+003;3.267829e-002
3.442458e+003;3.216525e-002
3.444387e+003;3.175636e-002
3.446315e+003;3.128760e-002
3.448244e+003;3.059409e-002
3.450172e+003;2.971634e-002
3.452101e+003;2.917492e-002
3.454030e+003;2.867864e-002
3.455958e+003;2.843674e-002
3.457886e+003;2.817920e-002
3.459815e+003;2.748344e-002
3.461744e+003;2.698778e-002
3.463672e+003;2.644278e-002
3.465601e+003;2.601676e-002
3.467529e+003;2.572395e-002
3.469458e+003;2.540489e-002
3.471386e+003;2.497535e-002
3.473315e+003;2.497184e-002
3.475243e+003;2.484794e-002
3.477172e+003;2.407251e-002
3.479101e+003;2.395163e-002
3.481029e+003;2.432528e-002
3.482958e+003;2.439551e-002
3.484886e+003;2.381633e-002
3.486815e+003;2.335745e-002
3.488743e+003;2.335655e-002
3.490672e+003;2.335417e-002
3.492600e+003;2.356803e-002
3.494529e+003;2.372621e-002
3.496458e+003;2.373892e-002
3.498386e+003;2.379607e-002
3.500315e+003;2.400983e-002
3.502243e+003;2.403704e-002
3.504172e+003;2.381966e-002
3.506100e+003;2.383037e-002
3.508029e+003;2.418299e-002
3.509957e+003;2.458435e-002
3.511886e+003;2.452984e-002
3.513814e+003;2.448174e-002
3.515743e+003;2.448608e-002
3.517672e+003;2.440963e-002
3.519600e+003;2.451423e-002
3.521529e+003;2.438990e-002
3.523457e+003;2.446996e-002
3.525386e+003;2.497960e-002
3.527314e+003;2.519598e-002
3.529243e+003;2.547357e-002
3.531171e+003;2.570954e-002
3.533100e+003;2.553636e-002
3.535029e+003;2.570686e-002
3.536957e+003;2.614275e-002
3.538885e+003;2.628142e-002
3.540814e+003;2.611467e-002
3.542743e+003;2.588278e-002
3.544671e+003;2.575137e-002
3.546600e+003;2.599882e-002
3.548528e+003;2.644598e-002
3.550457e+003;2.658105e-002
3.552385e+003;2.641556e-002
3.554314e+003;2.594225e-002
3.556242e+003;2.548348e-002
3.558171e+003;2.545723e-002
3.560100e+003;2.586048e-002
3.562028e+003;2.574687e-002
3.563957e+003;2.472811e-002
3.565885e+003;2.422282e-002
3.567814e+003;2.455013e-002
3.569742e+003;2.472607e-002
3.571671e+003;2.507159e-002
3.573599e+003;2.511435e-002
3.575528e+003;2.465267e-002
3.577457e+003;2.424714e-002
3.579385e+003;2.407021e-002
3.581314e+003;2.357562e-002
3.583242e+003;2.287615e-002
3.585171e+003;2.279031e-002
3.587099e+003;2.290877e-002
3.589028e+003;2.294873e-002
3.590956e+003;2.260123e-002
3.592885e+003;2.263034e-002
3.594813e+003;2.287489e-002
3.596742e+003;2.286937e-002
3.598671e+003;2.250717e-002
3.600599e+003;2.198910e-002
3.602528e+003;2.203099e-002
3.604456e+003;2.214374e-002
3.606385e+003;2.174605e-002
3.608313e+003;2.180632e-002
3.610242e+003;2.233880e-002
3.612170e+003;2.262284e-002
3.614099e+003;2.295722e-002
3.616028e+003;2.271915e-002
3.617956e+003;2.180754e-002
3.619885e+003;2.177103e-002
3.621813e+003;2.264539e-002
3.623742e+003;2.287346e-002
3.625670e+003;2.266986e-002
3.627599e+003;2.244792e-002
3.629527e+003;2.253478e-002
3.631456e+003;2.293294e-002
3.633385e+003;2.277289e-002
3.635313e+003;2.248557e-002
3.637241e+003;2.256231e-002
3.639170e+003;2.258839e-002
3.641099e+003;2.251279e-002
3.643027e+003;2.234584e-002
3.644956e+003;2.223123e-002
3.646884e+003;2.230224e-002
3.648813e+003;2.215661e-002
3.650741e+003;2.165921e-002
3.652670e+003;2.150784e-002
3.654598e+003;2.150948e-002
3.656527e+003;2.168015e-002
3.658456e+003;2.167161e-002
3.660384e+003;2.122843e-002
3.662313e+003;2.079452e-002
3.664241e+003;2.048378e-002
3.666170e+003;2.053085e-002
3.668098e+003;2.038053e-002
3.670027e+003;1.994591e-002
3.671955e+003;1.993449e-002
3.673884e+003;2.000329e-002
3.675813e+003;1.986411e-002
3.677741e+003;1.969693e-002
3.679669e+003;1.983571e-002
3.681598e+003;2.049219e-002
3.683527e+003;2.077672e-002
3.685455e+003;2.084951e-002
3.687384e+003;2.064404e-002
3.689312e+003;2.032247e-002
3.691241e+003;2.020214e-002
3.693169e+003;2.005888e-002
3.695098e+003;1.978937e-002
3.697026e+003;1.937183e-002
3.698955e+003;1.907655e-002
3.700884e+003;1.916547e-002
3.702812e+003;1.923594e-002
3.704741e+003;1.884001e-002
3.706669e+003;1.842279e-002
3.708598e+003;1.837747e-002
3.710526e+003;1.835486e-002
3.712455e+003;1.850825e-002
3.714383e+003;1.879706e-002
3.716312e+003;1.867830e-002
3.718240e+003;1.867176e-002
3.720169e+003;1.863506e-002
3.722098e+003;1.843506e-002
3.724026e+003;1.817534e-002
3.725955e+003;1.818035e-002
3.727883e+003;1.853550e-002
3.729812e+003;1.840070e-002
3.731740e+003;1.830084e-002
3.733669e+003;1.838556e-002
3.735597e+003;1.834933e-002
3.737526e+003;1.866734e-002
3.739455e+003;1.870414e-002
3.741383e+003;1.829072e-002
3.743312e+003;1.811191e-002
3.745240e+003;1.823373e-002
3.747169e+003;1.809647e-002
3.749097e+003;1.807139e-002
3.751026e+003;1.854266e-002
3.752954e+003;1.869643e-002
3.754883e+003;1.872140e-002
3.756812e+003;1.885052e-002
3.758740e+003;1.909161e-002
3.760668e+003;1.898536e-002
3.762597e+003;1.900291e-002
3.764526e+003;1.911934e-002
3.766454e+003;1.874185e-002
3.768383e+003;1.850130e-002
3.770311e+003;1.893517e-002
3.772240e+003;1.912502e-002
3.774168e+003;1.899786e-002
3.776097e+003;1.900302e-002
3.778025e+003;1.896331e-002
3.779954e+003;1.906637e-002
3.781883e+003;1.893815e-002
3.783811e+003;1.868923e-002
3.785740e+003;1.889164e-002
3.787668e+003;1.902721e-002
3.789597e+003;1.912879e-002
3.791525e+003;1.895030e-002
3.793454e+003;1.905470e-002
3.795382e+003;1.904047e-002
3.797311e+003;1.907696e-002
3.799240e+003;1.897467e-002
3.801168e+003;1.869113e-002
3.803097e+003;1.906266e-002
3.805025e+003;1.944941e-002
3.806954e+003;1.965959e-002
3.808882e+003;2.002432e-002
3.810811e+003;1.966278e-002
3.812739e+003;1.922666e-002
3.814668e+003;1.922036e-002
3.816596e+003;1.914611e-002
3.818525e+003;1.897588e-002
3.820454e+003;1.876098e-002
3.822382e+003;1.868698e-002
3.824311e+003;1.878710e-002
3.826239e+003;1.878101e-002
3.828168e+003;1.889669e-002
3.830096e+003;1.897688e-002
3.832025e+003;1.897951e-002
3.833953e+003;1.905553e-002
3.835882e+003;1.879461e-002
3.837811e+003;1.830651e-002
3.839739e+003;1.835245e-002
3.841667e+003;1.885478e-002
3.843596e+003;1.923608e-002
3.845525e+003;1.938268e-002
3.847453e+003;1.923476e-002
3.849382e+003;1.920505e-002
3.851310e+003;1.915338e-002
3.853239e+003;1.868882e-002
3.855167e+003;1.871504e-002
3.857096e+003;1.904061e-002
3.859024e+003;1.911938e-002
3.860953e+003;1.920979e-002
3.862882e+003;1.933262e-002
3.864810e+003;1.934149e-002
3.866739e+003;1.933095e-002
3.868667e+003;1.886450e-002
3.870596e+003;1.892102e-002
3.872524e+003;1.936148e-002
3.874453e+003;1.940655e-002
3.876381e+003;1.932974e-002
3.878310e+003;1.903871e-002
3.880239e+003;1.881108e-002
3.882167e+003;1.923968e-002
3.884096e+003;1.940534e-002
3.886024e+003;1.920636e-002
3.887953e+003;1.933515e-002
3.889881e+003;1.932101e-002
3.891810e+003;1.924398e-002
3.893738e+003;1.967842e-002
3.895667e+003;1.997769e-002
3.897595e+003;1.995056e-002
3.899524e+003;1.985662e-002
3.901453e+003;1.964867e-002
3.903381e+003;1.967010e-002
3.905310e+003;2.001141e-002
3.907238e+003;2.021235e-002
3.909167e+003;2.004579e-002
3.911095e+003;1.978296e-002
3.913024e+003;1.991569e-002
3.914952e+003;2.042008e-002
3.916881e+003;2.054051e-002
3.918810e+003;2.061159e-002
3.920738e+003;2.073797e-002
3.922667e+003;2.067577e-002
3.924595e+003;2.034751e-002
3.926524e+003;2.010212e-002
3.928452e+003;2.011013e-002
3.930381e+003;2.029817e-002
3.932309e+003;2.054964e-002
3.934238e+003;2.069380e-002
3.936167e+003;2.042911e-002
3.938095e+003;1.969516e-002
3.940023e+003;1.984372e-002
3.941952e+003;2.056507e-002
3.943881e+003;2.051709e-002
3.945809e+003;2.057490e-002
3.947738e+003;2.090768e-002
3.949666e+003;2.124600e-002
3.951595e+003;2.154719e-002
3.953523e+003;2.092979e-002
3.955452e+003;2.054822e-002
3.957380e+003;2.102024e-002
3.959309e+003;2.121649e-002
3.961238e+003;2.110256e-002
3.963166e+003;2.097715e-002
3.965095e+003;2.106475e-002
3.967023e+003;2.129183e-002
3.968952e+003;2.110833e-002
3.970880e+003;2.086231e-002
3.972809e+003;2.100156e-002
3.974737e+003;2.123737e-002
3.976666e+003;2.072167e-002
3.978594e+003;2.033254e-002
3.980523e+003;2.092409e-002
3.982452e+003;2.144396e-002
3.984380e+003;2.117015e-002
3.986309e+003;2.089878e-002
3.988237e+003;2.072848e-002
3.990166e+003;2.073144e-002
3.992094e+003;2.077791e-002
3.994023e+003;2.056534e-002
3.995951e+003;2.057983e-002
3.997880e+003;2.126326e-002
3.999809e+003;2.164577e-002
4.001737e+003;0.000000e+000
