3.992094e+002;0.000000e+000
4.011380e+002;0.000000e+000
4.030665e+002;0.000000e+000
4.049951e+002;0.000000e+000
4.069236e+002;0.000000e+000
4.088522e+002;0.000000e+000
4.107807e+002;0.000000e+000
4.127093e+002;0.000000e+000
4.146378e+002;0.000000e+000
4.165664e+002;0.000000e+000
4.184949e+002;0.000000e+000
4.204235e+002;0.000000e+000
4.223520e+002;0.000000e+000
4.242806e+002;0.000000e+000
4.262091e+002;0.000000e+000
4.281377e+002;0.000000e+000
4.300662e+002;0.000000e+000
4.319948e+002;0.000000e+000
4.339233e+002;0.000000e+000
4.358519e+002;0.000000e+000
4.377804e+002;0.000000e+000
4.397090e+002;0.000000e+000
4.416375e+002;0.000000e+000
4.435660e+002;0.000000e+000
4.454946e+002;0.000000e+000
4.474232e+002;0.000000e+000
4.493517e+002;0.000000e+000
4.512802e+002;0.000000e+000
4.532088e+002;0.000000e+000
4.551373e+002;0.000000e+000
4.570659e+002;0.000000e+000
4.589944e+002;0.000000e+000
4.609230e+002;0.000000e+000
4.628515e+002;0.000000e+000
4.647801e+002;0.000000e+000
4.667086e+002;0.000000e+000
4.686372e+002;0.000000e+000
4.705657e+002;0.000000e+000
4.724943e+002;0.000000e+000
4.744228e+002;0.000000e+000
4.763513e+002;0.000000e+000
4.782799e+002;0.000000e+000
4.802085e+002;0.000000e+000
4.821370e+002;0.000000e+000
4.840656e+002;0.000000e+000
4.859941e+002;0.000000e+000
4.879226e+002;0.000000e+000
4.898512e+002;0.000000e+000
4.917798e+002;0.000000e+000
4.937083e+002;0.000000e+000
4.956368e+002;0.000000e+000
4.975654e+002;0.000000e+000
4.994939e+002;0.000000e+000
5.014225e+002;0.000000e+000
5.033510e+002;0.000000e+000
5.052796e+002;0.000000e+000
5.072081e+002;0.000000e+000
5.091367e+002;0.000000e+000
5.110652e+002;0.000000e+000
5.129938e+002;0.000000e+000
5.149223e+002;0.000000e+000
5.168509e+002;0.000000e+000
5.187794e+002;0.000000e+000
5.207079e+002;0.000000e+000
5.226365e+002;0.000000e+000
5.245651e+002;0.000000e+000
5.264936e+002;0.000000e+000
5.284222e+002;0.000000e+000
5.303507e+002;0.000000e+000
5.322792e+002;0.000000e+000
5.342078e+002;0.000000e+000
5.361364e+002;0.000000e+000
5.380649e+002;0.000000e+000
5.399935e+002;0.000000e+000
5.419220e+002;0.000000e+000
5.438505e+002;0.000000e+000
5.457791e+002;0.000000e+000
5.477076e+002;0.000000e+000
5.496362e+002;0.000000e+000
5.515648e+002;0.000000e+000
5.534933e+002;0.000000e+000
5.554218e+002;0.000000e+000
5.573504e+002;0.000000e+000
5.592789e+002;0.000000e+000
5.612075e+002;0.000000e+000
5.631360e+002;0.000000e+000
5.650646e+002;0.000000e+000
5.669931e+002;0.000000e+000
5.689217e+002;0.000000e+000
5.708502e+002;0.000000e+000
5.727787e+002;0.000000e+000
5.747073e+002;0.000000e+000
5.766359e+002;0.000000e+000
5.785644e+002;0.000000e+000
5.804930e+002;0.000000e+000
5.824215e+002;0.000000e+000
5.843500e+002;0.000000e+000
5.862786e+002;0.000000e+000
5.882072e+002;0.000000e+000
5.901357e+002;0.000000e+000
5.920643e+002;0.000000e+000
5.939928e+002;0.000000e+000
5.959213e+002;0.000000e+000
5.978499e+002;0.000000e+000
5.997784e+002;8.265584e-002
6.017070e+002;8.766361e-002
6.036355e+002;8.733013e-002
6.055641e+002;8.223480e-002
6.074926e+002;7.957269e-002
6.094211e+002;7.942516e-002
6.113497e+002;8.051699e-002
6.132783e+002;7.857788e-002
6.152068e+002;7.623523e-002
6.171354e+002;7.786238e-002
6.190639e+002;7.812111e-002
6.209924e+002;7.641784e-002
6.229210e+002;7.892144e-002
6.248495e+002;8.132541e-002
6.267781e+002;8.205761e-002
6.287067e+002;8.565754e-002
6.306352e+002;9.118205e-002
6.325637e+002;9.357256e-002
6.344923e+002;8.976841e-002
6.364208e+002;8.133113e-002
6.383494e+002;7.982042e-002
6.402780e+002;8.148120e-002
6.422065e+002;8.307263e-002
6.441350e+002;8.464339e-002
6.460636e+002;8.451271e-002
6.479921e+002;8.609294e-002
6.499207e+002;8.677783e-002
6.518492e+002;8.481326e-002
6.537778e+002;8.719532e-002
6.557063e+002;9.051593e-002
6.576349e+002;9.039988e-002
6.595634e+002;9.151015e-002
6.614919e+002;9.600656e-002
6.634205e+002;1.021120e-001
6.653491e+002;1.044478e-001
6.672776e+002;1.026494e-001
6.692062e+002;1.038784e-001
6.711347e+002;1.075801e-001
6.730632e+002;1.092607e-001
6.749918e+002;1.113972e-001
6.769203e+002;1.167556e-001
6.788489e+002;1.232129e-001
6.807775e+002;1.270920e-001
6.827060e+002;1.278403e-001
6.846345e+002;1.271918e-001
6.865631e+002;1.279183e-001
6.884916e+002;1.310631e-001
6.904202e+002;1.341128e-001
6.923488e+002;1.372546e-001
6.942773e+002;1.433728e-001
6.962058e+002;1.535186e-001
6.981344e+002;1.674915e-001
7.000629e+002;1.844500e-001
7.019915e+002;2.008559e-001
7.039200e+002;2.161003e-001
7.058486e+002;2.310061e-001
7.077771e+002;2.465312e-001
7.097057e+002;2.633724e-001
7.116342e+002;2.840327e-001
7.135627e+002;3.124816e-001
7.154913e+002;3.492365e-001
7.174199e+002;3.959301e-001
7.193484e+002;4.475760e-001
7.212770e+002;4.953500e-001
7.232055e+002;5.319376e-001
7.251340e+002;5.319083e-001
7.270626e+002;4.864731e-001
7.289911e+002;4.180052e-001
7.309197e+002;3.521412e-001
7.328483e+002;2.975482e-001
7.347768e+002;2.493170e-001
7.367053e+002;2.043672e-001
7.386339e+002;1.644963e-001
7.405624e+002;1.336560e-001
7.424910e+002;1.126247e-001
7.444196e+002;9.818169e-002
7.463481e+002;8.919575e-002
7.482766e+002;8.466340e-002
7.502052e+002;8.211005e-002
7.521337e+002;8.133040e-002
7.540623e+002;8.141053e-002
7.559908e+002;8.071221e-002
7.579194e+002;7.964079e-002
7.598479e+002;7.965464e-002
7.617765e+002;8.105107e-002
7.637050e+002;8.235610e-002
7.656335e+002;8.361803e-002
7.675621e+002;8.545861e-002
7.694907e+002;8.800955e-002
7.714192e+002;9.056108e-002
7.733478e+002;9.221143e-002
7.752763e+002;9.417136e-002
7.772048e+002;9.657987e-002
7.791334e+002;9.840120e-002
7.810620e+002;1.006446e-001
7.829905e+002;1.041883e-001
7.849191e+002;1.086376e-001
7.868476e+002;1.129835e-001
7.887761e+002;1.169568e-001
7.907047e+002;1.217342e-001
7.926332e+002;1.235834e-001
7.945618e+002;1.183010e-001
7.964903e+002;1.090860e-001
7.984189e+002;1.017918e-001
8.003474e+002;9.863437e-002
8.022759e+002;9.836742e-002
8.042045e+002;9.965671e-002
8.061331e+002;1.004573e-001
8.080616e+002;1.008402e-001
8.099902e+002;1.014561e-001
8.119187e+002;1.029093e-001
8.138472e+002;1.041875e-001
8.157758e+002;1.047931e-001
8.177043e+002;1.058577e-001
8.196329e+002;1.069810e-001
8.215615e+002;1.075804e-001
8.234900e+002;1.072420e-001
8.254185e+002;1.075155e-001
8.273471e+002;1.101535e-001
8.292756e+002;1.130698e-001
8.312042e+002;1.164293e-001
8.331328e+002;1.207583e-001
8.350613e+002;1.247315e-001
8.369898e+002;1.285796e-001
8.389184e+002;1.327219e-001
8.408469e+002;1.367776e-001
8.427755e+002;1.414908e-001
8.447040e+002;1.455413e-001
8.466326e+002;1.478019e-001
8.485611e+002;1.476436e-001
8.504897e+002;1.460866e-001
8.524182e+002;1.445743e-001
8.543467e+002;1.436393e-001
8.562753e+002;1.436230e-001
8.582039e+002;1.442029e-001
8.601324e+002;1.456782e-001
8.620610e+002;1.483303e-001
8.639895e+002;1.535661e-001
8.659180e+002;1.632343e-001
8.678466e+002;1.795110e-001
8.697751e+002;2.029368e-001
8.717037e+002;2.219180e-001
8.736323e+002;2.221330e-001
8.755608e+002;2.084577e-001
8.774893e+002;1.911645e-001
8.794179e+002;1.733615e-001
8.813464e+002;1.564836e-001
8.832750e+002;1.419742e-001
8.852036e+002;1.303402e-001
8.871321e+002;1.213697e-001
8.890606e+002;1.154920e-001
8.909892e+002;1.126176e-001
8.929177e+002;1.110684e-001
8.948463e+002;1.101651e-001
8.967748e+002;1.095103e-001
8.987034e+002;1.089135e-001
9.006319e+002;1.083364e-001
9.025605e+002;1.072314e-001
9.044890e+002;1.056333e-001
9.064175e+002;1.039313e-001
9.083461e+002;1.018956e-001
9.102747e+002;9.986766e-002
9.122032e+002;9.827795e-002
9.141318e+002;9.697699e-002
9.160603e+002;9.589936e-002
9.179888e+002;9.505417e-002
9.199174e+002;9.473113e-002
9.218459e+002;9.494968e-002
9.237745e+002;9.502089e-002
9.257031e+002;9.541419e-002
9.276316e+002;9.595903e-002
9.295601e+002;9.641197e-002
9.314887e+002;9.743903e-002
9.334172e+002;9.870802e-002
9.353458e+002;9.986908e-002
9.372744e+002;1.010552e-001
9.392029e+002;1.020726e-001
9.411314e+002;1.034161e-001
9.430600e+002;1.054263e-001
9.449885e+002;1.077652e-001
9.469171e+002;1.096426e-001
9.488456e+002;1.115322e-001
9.507742e+002;1.141477e-001
9.527027e+002;1.170503e-001
9.546313e+002;1.196637e-001
9.565598e+002;1.223605e-001
9.584883e+002;1.254924e-001
9.604169e+002;1.288493e-001
9.623455e+002;1.321193e-001
9.642740e+002;1.352780e-001
9.662026e+002;1.378177e-001
9.681311e+002;1.396832e-001
9.700596e+002;1.409130e-001
9.719882e+002;1.404828e-001
9.739167e+002;1.382629e-001
9.758453e+002;1.353976e-001
9.777739e+002;1.323673e-001
9.797024e+002;1.299207e-001
9.816309e+002;1.276149e-001
9.835595e+002;1.252092e-001
9.854880e+002;1.238921e-001
9.874166e+002;1.232427e-001
9.893452e+002;1.222564e-001
9.912737e+002;1.215232e-001
9.932022e+002;1.217644e-001
9.951307e+002;1.224828e-001
9.970593e+002;1.234378e-001
9.989879e+002;1.248229e-001
1.000916e+003;1.267021e-001
1.002845e+003;1.296310e-001
1.004773e+003;1.337602e-001
1.006702e+003;1.397788e-001
1.008631e+003;1.493468e-001
1.010559e+003;1.651410e-001
1.012488e+003;1.912359e-001
1.014416e+003;2.290857e-001
1.016345e+003;2.665436e-001
1.018273e+003;2.816411e-001
1.020202e+003;2.664959e-001
1.022130e+003;2.342877e-001
1.024059e+003;2.007507e-001
1.025988e+003;1.730928e-001
1.027916e+003;1.536524e-001
1.029845e+003;1.433815e-001
1.031773e+003;1.400379e-001
1.033702e+003;1.399776e-001
1.035630e+003;1.417016e-001
1.037559e+003;1.437264e-001
1.039487e+003;1.453692e-001
1.041416e+003;1.476196e-001
1.043344e+003;1.496488e-001
1.045273e+003;1.507579e-001
1.047202e+003;1.516003e-001
1.049130e+003;1.521004e-001
1.051059e+003;1.522253e-001
1.052987e+003;1.526788e-001
1.054916e+003;1.537371e-001
1.056844e+003;1.554210e-001
1.058773e+003;1.576111e-001
1.060701e+003;1.615196e-001
1.062630e+003;1.672598e-001
1.064558e+003;1.741576e-001
1.066487e+003;1.817273e-001
1.068416e+003;1.914277e-001
1.070344e+003;2.035275e-001
1.072273e+003;2.184887e-001
1.074201e+003;2.371729e-001
1.076130e+003;2.605399e-001
1.078058e+003;2.880481e-001
1.079987e+003;3.177948e-001
1.081915e+003;3.480997e-001
1.083844e+003;3.761989e-001
1.085773e+003;4.009939e-001
1.087701e+003;4.218915e-001
1.089630e+003;4.401384e-001
1.091558e+003;4.567553e-001
1.093487e+003;4.711690e-001
1.095415e+003;4.823775e-001
1.097344e+003;4.876671e-001
1.099272e+003;4.851137e-001
1.101201e+003;4.737870e-001
1.103129e+003;4.538340e-001
1.105058e+003;4.276625e-001
1.106987e+003;3.989425e-001
1.108915e+003;3.722010e-001
1.110844e+003;3.543164e-001
1.112772e+003;3.469872e-001
1.114701e+003;3.452532e-001
1.116629e+003;3.436799e-001
1.118558e+003;3.390281e-001
1.120486e+003;3.286414e-001
1.122415e+003;3.138366e-001
1.124344e+003;2.971192e-001
1.126272e+003;2.796377e-001
1.128201e+003;2.610827e-001
1.130129e+003;2.423404e-001
1.132058e+003;2.247427e-001
1.133986e+003;2.076237e-001
1.135915e+003;1.914996e-001
1.137843e+003;1.773795e-001
1.139772e+003;1.652906e-001
1.141700e+003;1.553747e-001
1.143629e+003;1.469149e-001
1.145557e+003;1.388379e-001
1.147486e+003;1.316619e-001
1.149415e+003;1.255292e-001
1.151343e+003;1.204302e-001
1.153272e+003;1.162457e-001
1.155200e+003;1.128138e-001
1.157129e+003;1.102535e-001
1.159057e+003;1.084709e-001
1.160986e+003;1.078973e-001
1.162914e+003;1.079647e-001
1.164843e+003;1.087140e-001
1.166771e+003;1.110843e-001
1.168700e+003;1.152158e-001
1.170629e+003;1.205194e-001
1.172557e+003;1.249671e-001
1.174486e+003;1.272100e-001
1.176414e+003;1.269946e-001
1.178343e+003;1.248613e-001
1.180271e+003;1.218330e-001
1.182200e+003;1.189477e-001
1.184128e+003;1.171628e-001
1.186057e+003;1.161780e-001
1.187986e+003;1.164211e-001
1.189914e+003;1.174749e-001
1.191843e+003;1.190401e-001
1.193771e+003;1.221680e-001
1.195700e+003;1.259061e-001
1.197628e+003;1.296007e-001
1.199557e+003;1.338115e-001
1.201485e+003;1.383794e-001
1.203414e+003;1.431340e-001
1.205343e+003;1.484271e-001
1.207271e+003;1.542942e-001
1.209200e+003;1.608441e-001
1.211128e+003;1.683399e-001
1.213057e+003;1.764444e-001
1.214985e+003;1.854142e-001
1.216914e+003;1.950806e-001
1.218842e+003;2.051989e-001
1.220771e+003;2.161335e-001
1.222699e+003;2.281660e-001
1.224628e+003;2.413965e-001
1.226557e+003;2.570694e-001
1.228485e+003;2.772011e-001
1.230414e+003;3.035804e-001
1.232342e+003;3.365756e-001
1.234271e+003;3.757157e-001
1.236199e+003;4.202525e-001
1.238128e+003;4.662474e-001
1.240056e+003;5.080848e-001
1.241985e+003;5.415517e-001
1.243913e+003;5.630094e-001
1.245842e+003;5.704581e-001
1.247771e+003;5.664526e-001
1.249699e+003;5.560232e-001
1.251628e+003;5.424936e-001
1.253556e+003;5.275105e-001
1.255485e+003;5.134136e-001
1.257413e+003;5.014742e-001
1.259342e+003;4.898891e-001
1.261270e+003;4.755642e-001
1.263199e+003;4.568540e-001
1.265127e+003;4.344101e-001
1.267056e+003;4.094128e-001
1.268985e+003;3.840847e-001
1.270913e+003;3.597889e-001
1.272842e+003;3.373764e-001
1.274770e+003;3.176153e-001
1.276699e+003;3.006783e-001
1.278627e+003;2.859969e-001
1.280556e+003;2.728914e-001
1.282484e+003;2.605433e-001
1.284413e+003;2.482967e-001
1.286342e+003;2.361273e-001
1.288270e+003;2.242624e-001
1.290199e+003;2.119640e-001
1.292127e+003;1.991542e-001
1.294056e+003;1.870807e-001
1.295984e+003;1.755581e-001
1.297913e+003;1.638377e-001
1.299841e+003;1.526524e-001
1.301770e+003;1.430656e-001
1.303698e+003;1.355947e-001
1.305627e+003;1.294533e-001
1.307556e+003;1.234944e-001
1.309484e+003;1.178804e-001
1.311413e+003;1.128437e-001
1.313341e+003;1.082250e-001
1.315270e+003;1.038450e-001
1.317198e+003;1.002418e-001
1.319127e+003;9.769771e-002
1.321055e+003;9.563552e-002
1.322984e+003;9.436385e-002
1.324912e+003;9.475635e-002
1.326841e+003;9.760170e-002
1.328770e+003;1.042193e-001
1.330698e+003;1.166131e-001
1.332627e+003;1.345601e-001
1.334555e+003;1.548389e-001
1.336484e+003;1.720999e-001
1.338412e+003;1.803971e-001
1.340341e+003;1.772193e-001
1.342269e+003;1.644172e-001
1.344198e+003;1.465485e-001
1.346126e+003;1.284641e-001
1.348055e+003;1.132802e-001
1.349984e+003;1.016594e-001
1.351912e+003;9.327296e-002
1.353841e+003;8.774316e-002
1.355769e+003;8.429497e-002
1.357698e+003;8.252039e-002
1.359626e+003;8.209792e-002
1.361555e+003;8.263123e-002
1.363483e+003;8.418176e-002
1.365412e+003;8.652970e-002
1.367341e+003;8.898202e-002
1.369269e+003;9.086122e-002
1.371198e+003;9.158395e-002
1.373126e+003;9.148455e-002
1.375055e+003;9.085150e-002
1.376983e+003;9.026705e-002
1.378912e+003;8.999883e-002
1.380840e+003;8.997449e-002
1.382769e+003;9.005275e-002
1.384698e+003;9.024735e-002
1.386626e+003;9.084836e-002
1.388555e+003;9.208477e-002
1.390483e+003;9.362538e-002
1.392412e+003;9.569181e-002
1.394340e+003;9.850245e-002
1.396269e+003;1.026369e-001
1.398197e+003;1.088430e-001
1.400126e+003;1.175640e-001
1.402054e+003;1.290355e-001
1.403983e+003;1.434433e-001
1.405911e+003;1.590756e-001
1.407840e+003;1.700392e-001
1.409769e+003;1.699847e-001
1.411697e+003;1.572636e-001
1.413626e+003;1.363516e-001
1.415554e+003;1.146976e-001
1.417483e+003;9.739744e-002
1.419411e+003;8.569471e-002
1.421340e+003;7.912832e-002
1.423268e+003;7.579432e-002
1.425197e+003;7.445971e-002
1.427125e+003;7.459778e-002
1.429054e+003;7.579945e-002
1.430983e+003;7.788759e-002
1.432911e+003;8.051335e-002
1.434840e+003;8.304334e-002
1.436768e+003;8.538823e-002
1.438697e+003;8.788289e-002
1.440625e+003;8.955000e-002
1.442554e+003;9.095051e-002
1.444482e+003;9.267922e-002
1.446411e+003;9.443567e-002
1.448340e+003;9.620136e-002
1.450268e+003;9.816682e-002
1.452197e+003;9.986962e-002
1.454125e+003;1.005133e-001
1.456054e+003;1.002120e-001
1.457982e+003;1.002447e-001
1.459911e+003;1.003818e-001
1.461839e+003;9.969443e-002
1.463768e+003;9.829611e-002
1.465697e+003;9.754433e-002
1.467625e+003;9.828074e-002
1.469554e+003;9.946865e-002
1.471482e+003;9.944815e-002
1.473411e+003;9.771725e-002
1.475339e+003;9.539042e-002
1.477268e+003;9.257513e-002
1.479196e+003;8.935430e-002
1.481125e+003;8.564757e-002
1.483053e+003;8.176385e-002
1.484982e+003;7.796098e-002
1.486911e+003;7.464904e-002
1.488839e+003;7.218660e-002
1.490768e+003;7.060630e-002
1.492696e+003;7.003132e-002
1.494625e+003;7.010324e-002
1.496553e+003;7.165001e-002
1.498482e+003;7.579046e-002
1.500410e+003;8.236980e-002
1.502339e+003;9.091816e-002
1.504267e+003;9.742369e-002
1.506196e+003;9.632418e-002
1.508125e+003;8.871138e-002
1.510053e+003;8.005466e-002
1.511982e+003;7.387733e-002
1.513910e+003;7.072533e-002
1.515839e+003;6.908731e-002
1.517767e+003;6.832875e-002
1.519696e+003;6.809024e-002
1.521624e+003;6.841643e-002
1.523553e+003;6.924378e-002
1.525481e+003;6.949015e-002
1.527410e+003;6.917986e-002
1.529339e+003;6.888586e-002
1.531267e+003;6.837451e-002
1.533196e+003;6.747507e-002
1.535124e+003;6.703380e-002
1.537053e+003;6.660829e-002
1.538981e+003;6.557337e-002
1.540910e+003;6.532339e-002
1.542838e+003;6.589433e-002
1.544767e+003;6.628978e-002
1.546695e+003;6.676506e-002
1.548624e+003;6.732845e-002
1.550553e+003;6.782986e-002
1.552481e+003;6.812403e-002
1.554410e+003;6.843614e-002
1.556338e+003;6.853386e-002
1.558267e+003;6.829171e-002
1.560195e+003;6.916105e-002
1.562124e+003;7.057822e-002
1.564052e+003;7.156256e-002
1.565981e+003;7.275734e-002
1.567910e+003;7.401467e-002
1.569838e+003;7.571645e-002
1.571767e+003;7.836130e-002
1.573695e+003;8.121394e-002
1.575624e+003;8.386313e-002
1.577552e+003;8.609661e-002
1.579481e+003;8.666613e-002
1.581409e+003;8.485656e-002
1.583338e+003;8.172590e-002
1.585266e+003;7.870285e-002
1.587195e+003;7.630304e-002
1.589124e+003;7.472079e-002
1.591052e+003;7.364204e-002
1.592981e+003;7.280518e-002
1.594909e+003;7.269854e-002
1.596838e+003;7.340974e-002
1.598766e+003;7.424961e-002
1.600695e+003;7.527024e-002
1.602623e+003;7.661463e-002
1.604552e+003;7.815054e-002
1.606480e+003;7.969915e-002
1.608409e+003;8.117783e-002
1.610338e+003;8.302923e-002
1.612266e+003;8.485427e-002
1.614195e+003;8.564124e-002
1.616123e+003;8.492202e-002
1.618052e+003;8.378138e-002
1.619980e+003;8.251891e-002
1.621909e+003;8.121606e-002
1.623837e+003;8.067391e-002
1.625766e+003;8.088949e-002
1.627694e+003;8.138635e-002
1.629623e+003;8.211213e-002
1.631552e+003;8.274975e-002
1.633480e+003;8.289102e-002
1.635409e+003;8.335873e-002
1.637337e+003;8.487050e-002
1.639266e+003;8.642672e-002
1.641194e+003;8.737466e-002
1.643123e+003;8.815927e-002
1.645051e+003;8.909180e-002
1.646980e+003;9.030270e-002
1.648909e+003;9.179798e-002
1.650837e+003;9.278292e-002
1.652766e+003;9.347261e-002
1.654694e+003;9.570718e-002
1.656623e+003;9.850370e-002
1.658551e+003;1.010315e-001
1.660480e+003;1.038437e-001
1.662408e+003;1.068734e-001
1.664337e+003;1.103807e-001
1.666266e+003;1.139938e-001
1.668194e+003;1.173579e-001
1.670123e+003;1.209273e-001
1.672051e+003;1.246129e-001
1.673980e+003;1.285286e-001
1.675908e+003;1.331068e-001
1.677837e+003;1.380980e-001
1.679765e+003;1.431141e-001
1.681694e+003;1.478807e-001
1.683622e+003;1.520472e-001
1.685551e+003;1.570420e-001
1.687479e+003;1.629593e-001
1.689408e+003;1.698661e-001
1.691337e+003;1.785063e-001
1.693265e+003;1.892034e-001
1.695194e+003;2.027077e-001
1.697122e+003;2.202611e-001
1.699051e+003;2.419880e-001
1.700979e+003;2.706437e-001
1.702908e+003;3.072288e-001
1.704836e+003;3.523910e-001
1.706765e+003;4.069227e-001
1.708693e+003;4.669888e-001
1.710622e+003;5.231835e-001
1.712551e+003;5.630958e-001
1.714479e+003;5.765272e-001
1.716408e+003;5.643135e-001
1.718336e+003;5.338840e-001
1.720265e+003;4.952821e-001
1.722193e+003;4.540111e-001
1.724122e+003;4.131337e-001
1.726050e+003;3.741883e-001
1.727979e+003;3.381026e-001
1.729908e+003;3.044309e-001
1.731836e+003;2.731591e-001
1.733765e+003;2.438453e-001
1.735693e+003;2.172983e-001
1.737622e+003;1.926923e-001
1.739550e+003;1.689020e-001
1.741479e+003;1.467733e-001
1.743407e+003;1.269763e-001
1.745336e+003;1.098593e-001
1.747265e+003;9.580086e-002
1.749193e+003;8.510933e-002
1.751122e+003;7.725049e-002
1.753050e+003;7.186768e-002
1.754979e+003;6.797557e-002
1.756907e+003;6.505104e-002
1.758836e+003;6.325158e-002
1.760764e+003;6.182850e-002
1.762693e+003;6.086405e-002
1.764621e+003;6.018329e-002
1.766550e+003;5.944614e-002
1.768479e+003;5.893667e-002
1.770407e+003;5.831265e-002
1.772336e+003;5.780761e-002
1.774264e+003;5.804894e-002
1.776193e+003;5.809697e-002
1.778121e+003;5.789528e-002
1.780050e+003;5.791917e-002
1.781978e+003;5.781825e-002
1.783907e+003;5.768143e-002
1.785835e+003;5.755922e-002
1.787764e+003;5.746455e-002
1.789693e+003;5.731865e-002
1.791621e+003;5.734206e-002
1.793550e+003;5.748145e-002
1.795478e+003;5.753384e-002
1.797407e+003;5.752832e-002
1.799335e+003;5.768525e-002
1.801264e+003;5.791819e-002
1.803192e+003;5.797570e-002
1.805121e+003;5.788718e-002
1.807049e+003;5.784815e-002
1.808978e+003;5.787904e-002
1.810907e+003;5.792527e-002
1.812835e+003;5.822311e-002
1.814764e+003;5.868312e-002
1.816692e+003;5.871791e-002
1.818621e+003;5.858388e-002
1.820549e+003;5.837992e-002
1.822478e+003;5.823842e-002
1.824406e+003;5.809136e-002
1.826335e+003;5.794170e-002
1.828264e+003;5.761336e-002
1.830192e+003;5.738373e-002
1.832121e+003;5.733026e-002
1.834049e+003;5.700643e-002
1.835978e+003;5.655287e-002
1.837906e+003;5.614039e-002
1.839835e+003;5.562729e-002
1.841763e+003;5.498427e-002
1.843692e+003;5.423198e-002
1.845620e+003;5.360189e-002
1.847549e+003;5.317958e-002
1.849478e+003;5.266880e-002
1.851406e+003;5.209354e-002
1.853335e+003;5.139289e-002
1.855263e+003;5.060132e-002
1.857192e+003;4.988511e-002
1.859120e+003;4.921688e-002
1.861049e+003;4.887987e-002
1.862977e+003;4.862415e-002
1.864906e+003;4.823509e-002
1.866834e+003;4.783957e-002
1.868763e+003;4.740066e-002
1.870692e+003;4.696942e-002
1.872620e+003;4.666045e-002
1.874549e+003;4.641353e-002
1.876477e+003;4.639925e-002
1.878406e+003;4.651652e-002
1.880334e+003;4.633046e-002
1.882263e+003;4.589947e-002
1.884191e+003;4.564036e-002
1.886120e+003;4.567824e-002
1.888048e+003;4.590673e-002
1.889977e+003;4.608129e-002
1.891906e+003;4.618119e-002
1.893834e+003;4.611420e-002
1.895763e+003;4.619243e-002
1.897691e+003;4.639365e-002
1.899620e+003;4.649284e-002
1.901548e+003;4.660663e-002
1.903477e+003;4.684886e-002
1.905405e+003;4.700800e-002
1.907334e+003;4.710294e-002
1.909262e+003;4.752185e-002
1.911191e+003;4.813998e-002
1.913120e+003;4.835759e-002
1.915048e+003;4.828619e-002
1.916977e+003;4.832785e-002
1.918905e+003;4.886058e-002
1.920834e+003;4.940770e-002
1.922762e+003;4.995083e-002
1.924691e+003;5.064533e-002
1.926619e+003;5.121558e-002
1.928548e+003;5.173133e-002
1.930477e+003;5.232066e-002
1.932405e+003;5.280199e-002
1.934334e+003;5.343533e-002
1.936262e+003;5.432257e-002
1.938191e+003;5.500199e-002
1.940119e+003;5.555679e-002
1.942048e+003;5.632984e-002
1.943976e+003;5.712754e-002
1.945905e+003;5.753127e-002
1.947833e+003;5.784092e-002
1.949762e+003;5.806955e-002
1.951691e+003;5.837704e-002
1.953619e+003;5.887508e-002
1.955548e+003;5.927057e-002
1.957476e+003;5.904742e-002
1.959405e+003;5.849902e-002
1.961333e+003;5.827123e-002
1.963262e+003;5.806773e-002
1.965190e+003;5.745044e-002
1.967119e+003;5.665513e-002
1.969047e+003;5.585882e-002
1.970976e+003;5.498563e-002
1.972905e+003;5.444567e-002
1.974833e+003;5.391498e-002
1.976762e+003;5.332686e-002
1.978690e+003;5.288761e-002
1.980619e+003;5.247497e-002
1.982547e+003;5.209649e-002
1.984476e+003;5.184291e-002
1.986404e+003;5.141351e-002
1.988333e+003;5.092317e-002
1.990261e+003;5.042188e-002
1.992190e+003;5.001938e-002
1.994119e+003;4.954565e-002
1.996047e+003;4.897540e-002
1.997976e+003;4.854889e-002
1.999904e+003;4.830752e-002
2.001833e+003;4.797669e-002
2.003761e+003;4.757930e-002
2.005690e+003;4.713366e-002
2.007618e+003;4.654200e-002
2.009547e+003;4.618237e-002
2.011476e+003;4.602592e-002
2.013404e+003;4.569524e-002
2.015333e+003;4.539854e-002
2.017261e+003;4.540943e-002
2.019190e+003;4.542812e-002
2.021118e+003;4.512693e-002
2.023047e+003;4.460713e-002
2.024975e+003;4.420866e-002
2.026904e+003;4.405946e-002
2.028833e+003;4.379990e-002
2.030761e+003;4.352456e-002
2.032690e+003;4.361595e-002
2.034618e+003;4.374558e-002
2.036547e+003;4.383779e-002
2.038475e+003;4.403551e-002
2.040404e+003;4.401563e-002
2.042332e+003;4.412162e-002
2.044261e+003;4.445437e-002
2.046189e+003;4.463683e-002
2.048118e+003;4.475373e-002
2.050047e+003;4.503136e-002
2.051975e+003;4.519064e-002
2.053904e+003;4.545828e-002
2.055832e+003;4.569020e-002
2.057761e+003;4.605912e-002
2.059689e+003;4.664510e-002
2.061618e+003;4.733071e-002
2.063546e+003;4.764526e-002
2.065475e+003;4.772547e-002
2.067404e+003;4.818289e-002
2.069332e+003;4.862893e-002
2.071260e+003;4.908783e-002
2.073189e+003;4.960778e-002
2.075118e+003;5.001273e-002
2.077046e+003;5.033559e-002
2.078975e+003;5.064454e-002
2.080903e+003;5.098263e-002
2.082832e+003;5.112771e-002
2.084760e+003;5.125678e-002
2.086689e+003;5.145189e-002
2.088617e+003;5.151785e-002
2.090546e+003;5.160553e-002
2.092475e+003;5.169270e-002
2.094403e+003;5.170644e-002
2.096332e+003;5.162318e-002
2.098260e+003;5.173230e-002
2.100189e+003;5.196375e-002
2.102117e+003;5.210430e-002
2.104046e+003;5.211450e-002
2.105974e+003;5.193544e-002
2.107903e+003;5.184053e-002
2.109832e+003;5.180722e-002
2.111760e+003;5.168834e-002
2.113688e+003;5.154381e-002
2.115617e+003;5.150886e-002
2.117546e+003;5.139766e-002
2.119474e+003;5.113994e-002
2.121403e+003;5.099504e-002
2.123331e+003;5.085548e-002
2.125260e+003;5.054291e-002
2.127188e+003;5.009229e-002
2.129117e+003;4.990310e-002
2.131045e+003;4.976567e-002
2.132974e+003;4.932061e-002
2.134903e+003;4.886926e-002
2.136831e+003;4.852110e-002
2.138760e+003;4.824313e-002
2.140688e+003;4.830734e-002
2.142617e+003;4.820710e-002
2.144545e+003;4.767809e-002
2.146474e+003;4.745591e-002
2.148402e+003;4.722515e-002
2.150331e+003;4.687473e-002
2.152260e+003;4.664761e-002
2.154188e+003;4.615561e-002
2.156117e+003;4.553363e-002
2.158045e+003;4.527419e-002
2.159974e+003;4.513608e-002
2.161902e+003;4.471903e-002
2.163831e+003;4.399440e-002
2.165759e+003;4.382464e-002
2.167688e+003;4.392826e-002
2.169616e+003;4.365391e-002
2.171545e+003;4.345417e-002
2.173474e+003;4.326473e-002
2.175402e+003;4.296416e-002
2.177331e+003;4.257188e-002
2.179259e+003;4.231817e-002
2.181188e+003;4.226441e-002
2.183116e+003;4.222300e-002
2.185045e+003;4.210185e-002
2.186973e+003;4.196143e-002
2.188902e+003;4.201308e-002
2.190831e+003;4.221511e-002
2.192759e+003;4.255514e-002
2.194688e+003;4.266786e-002
2.196616e+003;4.263727e-002
2.198545e+003;4.266954e-002
2.200473e+003;4.277607e-002
2.202402e+003;4.289467e-002
2.204330e+003;4.293077e-002
2.206259e+003;4.315885e-002
2.208188e+003;4.355653e-002
2.210116e+003;4.366025e-002
2.212044e+003;4.381188e-002
2.213973e+003;4.401039e-002
2.215902e+003;4.415386e-002
2.217830e+003;4.412840e-002
2.219759e+003;4.412419e-002
2.221687e+003;4.428919e-002
2.223616e+003;4.452195e-002
2.225544e+003;4.449607e-002
2.227473e+003;4.419759e-002
2.229401e+003;4.418291e-002
2.231330e+003;4.450741e-002
2.233259e+003;4.473441e-002
2.235187e+003;4.477114e-002
2.237116e+003;4.485814e-002
2.239044e+003;4.512189e-002
2.240973e+003;4.554633e-002
2.242901e+003;4.579044e-002
2.244830e+003;4.577384e-002
2.246758e+003;4.568777e-002
2.248687e+003;4.570890e-002
2.250615e+003;4.575149e-002
2.252544e+003;4.568839e-002
2.254473e+003;4.572274e-002
2.256401e+003;4.591557e-002
2.258330e+003;4.624107e-002
2.260258e+003;4.646493e-002
2.262187e+003;4.642886e-002
2.264115e+003;4.635888e-002
2.266044e+003;4.620190e-002
2.267972e+003;4.594043e-002
2.269901e+003;4.595166e-002
2.271830e+003;4.629036e-002
2.273758e+003;4.624609e-002
2.275687e+003;4.637890e-002
2.277615e+003;4.672011e-002
2.279544e+003;4.677689e-002
2.281472e+003;4.661271e-002
2.283401e+003;4.654540e-002
2.285329e+003;4.657686e-002
2.287258e+003;4.652080e-002
2.289187e+003;4.621601e-002
2.291115e+003;4.590846e-002
2.293043e+003;4.564334e-002
2.294972e+003;4.500670e-002
2.296901e+003;4.435275e-002
2.298829e+003;4.400610e-002
2.300758e+003;4.348782e-002
2.302686e+003;4.289178e-002
2.304615e+003;4.261819e-002
2.306543e+003;4.209039e-002
2.308472e+003;4.138570e-002
2.310400e+003;4.111899e-002
2.312329e+003;4.103195e-002
2.314258e+003;4.094914e-002
2.316186e+003;4.088685e-002
2.318115e+003;4.072789e-002
2.320043e+003;4.060505e-002
2.321972e+003;4.043319e-002
2.323900e+003;4.036577e-002
2.325829e+003;4.021086e-002
2.327757e+003;3.989046e-002
2.329686e+003;3.975841e-002
2.331615e+003;3.969193e-002
2.333543e+003;3.950123e-002
2.335472e+003;3.954202e-002
2.337400e+003;3.976938e-002
2.339329e+003;3.990884e-002
2.341257e+003;4.018200e-002
2.343186e+003;4.090971e-002
2.345114e+003;4.176663e-002
2.347043e+003;4.257013e-002
2.348971e+003;4.288230e-002
2.350900e+003;4.248410e-002
2.352829e+003;4.191866e-002
2.354757e+003;4.143414e-002
2.356686e+003;4.121647e-002
2.358614e+003;4.097139e-002
2.360543e+003;4.100041e-002
2.362471e+003;4.144223e-002
2.364400e+003;4.199939e-002
2.366328e+003;4.262155e-002
2.368257e+003;4.348391e-002
2.370186e+003;4.435807e-002
2.372114e+003;4.505951e-002
2.374042e+003;4.583113e-002
2.375971e+003;4.644616e-002
2.377900e+003;4.683170e-002
2.379828e+003;4.716040e-002
2.381757e+003;4.733266e-002
2.383685e+003;4.747291e-002
2.385614e+003;4.756185e-002
2.387542e+003;4.747095e-002
2.389471e+003;4.740613e-002
2.391399e+003;4.770346e-002
2.393328e+003;4.782137e-002
2.395257e+003;4.749749e-002
2.397185e+003;4.720155e-002
2.399114e+003;4.693195e-002
2.401042e+003;4.682749e-002
2.402971e+003;4.672302e-002
2.404899e+003;4.645648e-002
2.406828e+003;4.598577e-002
2.408756e+003;4.582321e-002
2.410685e+003;4.595987e-002
2.412614e+003;4.572506e-002
2.414542e+003;4.538041e-002
2.416471e+003;4.516866e-002
2.418399e+003;4.482871e-002
2.420328e+003;4.461550e-002
2.422256e+003;4.442185e-002
2.424185e+003;4.415364e-002
2.426113e+003;4.399862e-002
2.428042e+003;4.364123e-002
2.429970e+003;4.317978e-002
2.431899e+003;4.285012e-002
2.433828e+003;4.258887e-002
2.435756e+003;4.215355e-002
2.437685e+003;4.179300e-002
2.439613e+003;4.145977e-002
2.441542e+003;4.134084e-002
2.443470e+003;4.135563e-002
2.445399e+003;4.095198e-002
2.447327e+003;4.077022e-002
2.449256e+003;4.086395e-002
2.451185e+003;4.065403e-002
2.453113e+003;4.064002e-002
2.455042e+003;4.088419e-002
2.456970e+003;4.071869e-002
2.458899e+003;4.043671e-002
2.460827e+003;4.059596e-002
2.462756e+003;4.090177e-002
2.464684e+003;4.074584e-002
2.466613e+003;4.054263e-002
2.468542e+003;4.055325e-002
2.470470e+003;4.065821e-002
2.472398e+003;4.087807e-002
2.474327e+003;4.105420e-002
2.476256e+003;4.109022e-002
2.478184e+003;4.114810e-002
2.480113e+003;4.148233e-002
2.482041e+003;4.186612e-002
2.483970e+003;4.197501e-002
2.485898e+003;4.206651e-002
2.487827e+003;4.224608e-002
2.489755e+003;4.241855e-002
2.491684e+003;4.271249e-002
2.493613e+003;4.285846e-002
2.495541e+003;4.274876e-002
2.497470e+003;4.306345e-002
2.499398e+003;4.330987e-002
2.501327e+003;4.327813e-002
2.503255e+003;4.340246e-002
2.505184e+003;4.361353e-002
2.507112e+003;4.380462e-002
2.509041e+003;4.378736e-002
2.510969e+003;4.372477e-002
2.512898e+003;4.407145e-002
2.514827e+003;4.424006e-002
2.516755e+003;4.430174e-002
2.518684e+003;4.449556e-002
2.520612e+003;4.483785e-002
2.522541e+003;4.496447e-002
2.524469e+003;4.498097e-002
2.526398e+003;4.514454e-002
2.528326e+003;4.536643e-002
2.530255e+003;4.544401e-002
2.532184e+003;4.525216e-002
2.534112e+003;4.540332e-002
2.536041e+003;4.591782e-002
2.537969e+003;4.593818e-002
2.539898e+003;4.565125e-002
2.541826e+003;4.546111e-002
2.543755e+003;4.559053e-002
2.545683e+003;4.566583e-002
2.547612e+003;4.573485e-002
2.549541e+003;4.581809e-002
2.551469e+003;4.576482e-002
2.553397e+003;4.574983e-002
2.555326e+003;4.579033e-002
2.557255e+003;4.572760e-002
2.559183e+003;4.542127e-002
2.561112e+003;4.529202e-002
2.563040e+003;4.552352e-002
2.564969e+003;4.569237e-002
2.566897e+003;4.562656e-002
2.568826e+003;4.546501e-002
2.570754e+003;4.534955e-002
2.572683e+003;4.533903e-002
2.574612e+003;4.540972e-002
2.576540e+003;4.544206e-002
2.578469e+003;4.552337e-002
2.580397e+003;4.562417e-002
2.582326e+003;4.540641e-002
2.584254e+003;4.505132e-002
2.586183e+003;4.507969e-002
2.588111e+003;4.511914e-002
2.590040e+003;4.487422e-002
2.591969e+003;4.454196e-002
2.593897e+003;4.425353e-002
2.595826e+003;4.392210e-002
2.597754e+003;4.365933e-002
2.599683e+003;4.337423e-002
2.601611e+003;4.323494e-002
2.603540e+003;4.318633e-002
2.605468e+003;4.315782e-002
2.607397e+003;4.298351e-002
2.609325e+003;4.251275e-002
2.611254e+003;4.223359e-002
2.613183e+003;4.220134e-002
2.615111e+003;4.248940e-002
2.617040e+003;4.273337e-002
2.618968e+003;4.256438e-002
2.620897e+003;4.231182e-002
2.622825e+003;4.226233e-002
2.624754e+003;4.252547e-002
2.626682e+003;4.248776e-002
2.628611e+003;4.233662e-002
2.630540e+003;4.246550e-002
2.632468e+003;4.225064e-002
2.634396e+003;4.176863e-002
2.636325e+003;4.149589e-002
2.638254e+003;4.133628e-002
2.640182e+003;4.085627e-002
2.642111e+003;4.046628e-002
2.644039e+003;4.044424e-002
2.645968e+003;4.026280e-002
2.647896e+003;3.996151e-002
2.649825e+003;3.964448e-002
2.651753e+003;3.947572e-002
2.653682e+003;3.951760e-002
2.655611e+003;3.943490e-002
2.657539e+003;3.928271e-002
2.659468e+003;3.913602e-002
2.661396e+003;3.901871e-002
2.663325e+003;3.918139e-002
2.665253e+003;3.929095e-002
2.667182e+003;3.924293e-002
2.669110e+003;3.927756e-002
2.671039e+003;3.927245e-002
2.672968e+003;3.914335e-002
2.674896e+003;3.911285e-002
2.676825e+003;3.910999e-002
2.678753e+003;3.932943e-002
2.680682e+003;3.976945e-002
2.682610e+003;3.985414e-002
2.684539e+003;3.982886e-002
2.686467e+003;3.969618e-002
2.688396e+003;3.954111e-002
2.690324e+003;3.943286e-002
2.692253e+003;3.940446e-002
2.694182e+003;3.956887e-002
2.696110e+003;3.965545e-002
2.698039e+003;3.962005e-002
2.699967e+003;3.994691e-002
2.701896e+003;4.032886e-002
2.703824e+003;4.027982e-002
2.705753e+003;3.989521e-002
2.707681e+003;4.000801e-002
2.709610e+003;4.036169e-002
2.711539e+003;4.048072e-002
2.713467e+003;4.042551e-002
2.715396e+003;4.034635e-002
2.717324e+003;4.039890e-002
2.719253e+003;4.054387e-002
2.721181e+003;4.082049e-002
2.723110e+003;4.116806e-002
2.725038e+003;4.128658e-002
2.726967e+003;4.153910e-002
2.728896e+003;4.190056e-002
2.730824e+003;4.197034e-002
2.732752e+003;4.207290e-002
2.734681e+003;4.215815e-002
2.736610e+003;4.234513e-002
2.738538e+003;4.273012e-002
2.740467e+003;4.296665e-002
2.742395e+003;4.282255e-002
2.744324e+003;4.263990e-002
2.746252e+003;4.261340e-002
2.748181e+003;4.273944e-002
2.750109e+003;4.287225e-002
2.752038e+003;4.278664e-002
2.753967e+003;4.289492e-002
2.755895e+003;4.313030e-002
2.757824e+003;4.325053e-002
2.759752e+003;4.318560e-002
2.761681e+003;4.318970e-002
2.763609e+003;4.298988e-002
2.765538e+003;4.293516e-002
2.767466e+003;4.332349e-002
2.769395e+003;4.343791e-002
2.771323e+003;4.332784e-002
2.773252e+003;4.318461e-002
2.775181e+003;4.351559e-002
2.777109e+003;4.394329e-002
2.779038e+003;4.385993e-002
2.780966e+003;4.397662e-002
2.782895e+003;4.428189e-002
2.784823e+003;4.448682e-002
2.786752e+003;4.512417e-002
2.788680e+003;4.592739e-002
2.790609e+003;4.625895e-002
2.792538e+003;4.636482e-002
2.794466e+003;4.662820e-002
2.796395e+003;4.698825e-002
2.798323e+003;4.714142e-002
2.800252e+003;4.731511e-002
2.802180e+003;4.750226e-002
2.804109e+003;4.771836e-002
2.806037e+003;4.792970e-002
2.807966e+003;4.798057e-002
2.809895e+003;4.797021e-002
2.811823e+003;4.801022e-002
2.813751e+003;4.789240e-002
2.815680e+003;4.737867e-002
2.817609e+003;4.685975e-002
2.819537e+003;4.694221e-002
2.821466e+003;4.695358e-002
2.823394e+003;4.685938e-002
2.825323e+003;4.707417e-002
2.827251e+003;4.726893e-002
2.829180e+003;4.727669e-002
2.831108e+003;4.749808e-002
2.833037e+003;4.808912e-002
2.834966e+003;4.873353e-002
2.836894e+003;4.907722e-002
2.838823e+003;4.946919e-002
2.840751e+003;5.007389e-002
2.842680e+003;5.072657e-002
2.844608e+003;5.142108e-002
2.846537e+003;5.199755e-002
2.848465e+003;5.281988e-002
2.850394e+003;5.353892e-002
2.852323e+003;5.404833e-002
2.854251e+003;5.438498e-002
2.856180e+003;5.487643e-002
2.858108e+003;5.521388e-002
2.860037e+003;5.552075e-002
2.861965e+003;5.584107e-002
2.863894e+003;5.574888e-002
2.865822e+003;5.577547e-002
2.867751e+003;5.608278e-002
2.869679e+003;5.602812e-002
2.871608e+003;5.604565e-002
2.873536e+003;5.642593e-002
2.875465e+003;5.645317e-002
2.877394e+003;5.668673e-002
2.879322e+003;5.740415e-002
2.881251e+003;5.791663e-002
2.883179e+003;5.835423e-002
2.885108e+003;5.890168e-002
2.887036e+003;5.929662e-002
2.888965e+003;5.949542e-002
2.890893e+003;5.971770e-002
2.892822e+003;5.993457e-002
2.894750e+003;6.020015e-002
2.896679e+003;6.077791e-002
2.898608e+003;6.159601e-002
2.900536e+003;6.227089e-002
2.902465e+003;6.286991e-002
2.904393e+003;6.340522e-002
2.906322e+003;6.381499e-002
2.908250e+003;6.414080e-002
2.910179e+003;6.436058e-002
2.912107e+003;6.401145e-002
2.914036e+003;6.346083e-002
2.915965e+003;6.290025e-002
2.917893e+003;6.197098e-002
2.919822e+003;6.105858e-002
2.921750e+003;6.064024e-002
2.923679e+003;5.995150e-002
2.925607e+003;5.939193e-002
2.927536e+003;5.952054e-002
2.929464e+003;5.965798e-002
2.931393e+003;5.983508e-002
2.933322e+003;5.993164e-002
2.935250e+003;6.019806e-002
2.937178e+003;6.060896e-002
2.939107e+003;6.105598e-002
2.941036e+003;6.154142e-002
2.942964e+003;6.209440e-002
2.944893e+003;6.326545e-002
2.946821e+003;6.443875e-002
2.948750e+003;6.522566e-002
2.950678e+003;6.609860e-002
2.952607e+003;6.707584e-002
2.954535e+003;6.816900e-002
2.956464e+003;6.917489e-002
2.958393e+003;7.002392e-002
2.960321e+003;7.085356e-002
2.962250e+003;7.114534e-002
2.964178e+003;7.133516e-002
2.966107e+003;7.195304e-002
2.968035e+003;7.235178e-002
2.969964e+003;7.243007e-002
2.971892e+003;7.262083e-002
2.973821e+003;7.234117e-002
2.975750e+003;7.137362e-002
2.977678e+003;7.068115e-002
2.979607e+003;7.001002e-002
2.981535e+003;6.897195e-002
2.983464e+003;6.821261e-002
2.985392e+003;6.777002e-002
2.987321e+003;6.689634e-002
2.989249e+003;6.582507e-002
2.991178e+003;6.504924e-002
2.993106e+003;6.485146e-002
2.995035e+003;6.478441e-002
2.996964e+003;6.450544e-002
2.998892e+003;6.413542e-002
3.000821e+003;6.376848e-002
3.002749e+003;6.325625e-002
3.004678e+003;6.261337e-002
3.006606e+003;6.205904e-002
3.008535e+003;6.132420e-002
3.010463e+003;6.089684e-002
3.012392e+003;6.063651e-002
3.014321e+003;6.008214e-002
3.016249e+003;5.973218e-002
3.018177e+003;5.920468e-002
3.020106e+003;5.814352e-002
3.022035e+003;5.720158e-002
3.023963e+003;5.662066e-002
3.025892e+003;5.586172e-002
3.027820e+003;5.496366e-002
3.029749e+003;5.399786e-002
3.031677e+003;5.324003e-002
3.033606e+003;5.285591e-002
3.035534e+003;5.257044e-002
3.037463e+003;5.227128e-002
3.039392e+003;5.207737e-002
3.041320e+003;5.229651e-002
3.043249e+003;5.326558e-002
3.045177e+003;5.431998e-002
3.047106e+003;5.538146e-002
3.049034e+003;5.673769e-002
3.050963e+003;5.762959e-002
3.052891e+003;5.805977e-002
3.054820e+003;5.830841e-002
3.056749e+003;5.827991e-002
3.058677e+003;5.822823e-002
3.060606e+003;5.798392e-002
3.062534e+003;5.784648e-002
3.064463e+003;5.802868e-002
3.066391e+003;5.829082e-002
3.068320e+003;5.803629e-002
3.070248e+003;5.786273e-002
3.072177e+003;5.772919e-002
3.074105e+003;5.784614e-002
3.076034e+003;5.810647e-002
3.077963e+003;5.784156e-002
3.079891e+003;5.745517e-002
3.081820e+003;5.723443e-002
3.083748e+003;5.705971e-002
3.085677e+003;5.678625e-002
3.087605e+003;5.626198e-002
3.089534e+003;5.582144e-002
3.091462e+003;5.538308e-002
3.093391e+003;5.499627e-002
3.095320e+003;5.493193e-002
3.097248e+003;5.534732e-002
3.099177e+003;5.600000e-002
3.101105e+003;5.614876e-002
3.103034e+003;5.613413e-002
3.104962e+003;5.629087e-002
3.106891e+003;5.630166e-002
3.108819e+003;5.589989e-002
3.110748e+003;5.516350e-002
3.112677e+003;5.463644e-002
3.114605e+003;5.390061e-002
3.116533e+003;5.326494e-002
3.118462e+003;5.285011e-002
3.120391e+003;5.227569e-002
3.122319e+003;5.185307e-002
3.124248e+003;5.143205e-002
3.126176e+003;5.114397e-002
3.128105e+003;5.109913e-002
3.130033e+003;5.096914e-002
3.131962e+003;5.085049e-002
3.133890e+003;5.057768e-002
3.135819e+003;4.990139e-002
3.137748e+003;4.936894e-002
3.139676e+003;4.911250e-002
3.141605e+003;4.877868e-002
3.143533e+003;4.817574e-002
3.145462e+003;4.752433e-002
3.147390e+003;4.713824e-002
3.149319e+003;4.705489e-002
3.151247e+003;4.699057e-002
3.153176e+003;4.686045e-002
3.155104e+003;4.643841e-002
3.157033e+003;4.625449e-002
3.158962e+003;4.608104e-002
3.160890e+003;4.573857e-002
3.162819e+003;4.548367e-002
3.164747e+003;4.545858e-002
3.166676e+003;4.524528e-002
3.168604e+003;4.494444e-002
3.170533e+003;4.504893e-002
3.172461e+003;4.512090e-002
3.174390e+003;4.517910e-002
3.176319e+003;4.535697e-002
3.178247e+003;4.511631e-002
3.180176e+003;4.465920e-002
3.182104e+003;4.497495e-002
3.184033e+003;4.518259e-002
3.185961e+003;4.499075e-002
3.187890e+003;4.502220e-002
3.189818e+003;4.494385e-002
3.191747e+003;4.464087e-002
3.193676e+003;4.463489e-002
3.195604e+003;4.451843e-002
3.197532e+003;4.413805e-002
3.199461e+003;4.411040e-002
3.201390e+003;4.427114e-002
3.203318e+003;4.428549e-002
3.205247e+003;4.412264e-002
3.207175e+003;4.374404e-002
3.209104e+003;4.386023e-002
3.211032e+003;4.393373e-002
3.212961e+003;4.366739e-002
3.214889e+003;4.357419e-002
3.216818e+003;4.356661e-002
3.218747e+003;4.346801e-002
3.220675e+003;4.375200e-002
3.222604e+003;4.413163e-002
3.224532e+003;4.389516e-002
3.226461e+003;4.367299e-002
3.228389e+003;4.402957e-002
3.230318e+003;4.419116e-002
3.232246e+003;4.392595e-002
3.234175e+003;4.356580e-002
3.236104e+003;4.352463e-002
3.238032e+003;4.379546e-002
3.239961e+003;4.374111e-002
3.241889e+003;4.362753e-002
3.243818e+003;4.360753e-002
3.245746e+003;4.348519e-002
3.247675e+003;4.363310e-002
3.249603e+003;4.356251e-002
3.251532e+003;4.287115e-002
3.253460e+003;4.248454e-002
3.255389e+003;4.268321e-002
3.257318e+003;4.278456e-002
3.259246e+003;4.274759e-002
3.261175e+003;4.253340e-002
3.263103e+003;4.248918e-002
3.265032e+003;4.265127e-002
3.266960e+003;4.256808e-002
3.268889e+003;4.218134e-002
3.270817e+003;4.202611e-002
3.272746e+003;4.206133e-002
3.274675e+003;4.189327e-002
3.276603e+003;4.200286e-002
3.278531e+003;4.232902e-002
3.280460e+003;4.216848e-002
3.282389e+003;4.217779e-002
3.284317e+003;4.237739e-002
3.286246e+003;4.238959e-002
3.288174e+003;4.261786e-002
3.290103e+003;4.302818e-002
3.292031e+003;4.292525e-002
3.293960e+003;4.264271e-002
3.295888e+003;4.300806e-002
3.297817e+003;4.326477e-002
3.299746e+003;4.314238e-002
3.301674e+003;4.271315e-002
3.303603e+003;4.234630e-002
3.305531e+003;4.206100e-002
3.307460e+003;4.223406e-002
3.309388e+003;4.242425e-002
3.311317e+003;4.228874e-002
3.313245e+003;4.227412e-002
3.315174e+003;4.232435e-002
3.317103e+003;4.214570e-002
3.319031e+003;4.236361e-002
3.320960e+003;4.265335e-002
3.322888e+003;4.260985e-002
3.324817e+003;4.256804e-002
3.326745e+003;4.233388e-002
3.328674e+003;4.239926e-002
3.330602e+003;4.237530e-002
3.332531e+003;4.237198e-002
3.334459e+003;4.265869e-002
3.336388e+003;4.280814e-002
3.338317e+003;4.281740e-002
3.340245e+003;4.252364e-002
3.342174e+003;4.222552e-002
3.344102e+003;4.223498e-002
3.346031e+003;4.221540e-002
3.347959e+003;4.216987e-002
3.349888e+003;4.205107e-002
3.351816e+003;4.155299e-002
3.353745e+003;4.109728e-002
3.355674e+003;4.110180e-002
3.357602e+003;4.119221e-002
3.359531e+003;4.062285e-002
3.361459e+003;4.013468e-002
3.363388e+003;4.008370e-002
3.365316e+003;3.990066e-002
3.367245e+003;3.959911e-002
3.369173e+003;3.962543e-002
3.371102e+003;3.968525e-002
3.373031e+003;3.952602e-002
3.374959e+003;3.935624e-002
3.376887e+003;3.914233e-002
3.378816e+003;3.918312e-002
3.380745e+003;3.906569e-002
3.382673e+003;3.928119e-002
3.384602e+003;3.979229e-002
3.386530e+003;4.005175e-002
3.388459e+003;3.994556e-002
3.390387e+003;4.029734e-002
3.392316e+003;4.049443e-002
3.394244e+003;4.046752e-002
3.396173e+003;4.102379e-002
3.398102e+003;4.164732e-002
3.400030e+003;4.174058e-002
3.401959e+003;4.205841e-002
3.403887e+003;4.257751e-002
3.405816e+003;4.324456e-002
3.407744e+003;4.407874e-002
3.409673e+003;4.483701e-002
3.411601e+003;4.542024e-002
3.413530e+003;4.596072e-002
3.415458e+003;4.698854e-002
3.417387e+003;4.792685e-002
3.419316e+003;4.876189e-002
3.421244e+003;4.959508e-002
3.423173e+003;5.050655e-002
3.425101e+003;5.139289e-002
3.427030e+003;5.189642e-002
3.428958e+003;5.213359e-002
3.430887e+003;5.234211e-002
3.432815e+003;5.228234e-002
3.434744e+003;5.190587e-002
3.436673e+003;5.110994e-002
3.438601e+003;5.039483e-002
3.440530e+003;4.995061e-002
3.442458e+003;4.947732e-002
3.444387e+003;4.907748e-002
3.446315e+003;4.851647e-002
3.448244e+003;4.782071e-002
3.450172e+003;4.687890e-002
3.452101e+003;4.588773e-002
3.454030e+003;4.540689e-002
3.455958e+003;4.507535e-002
3.457886e+003;4.419223e-002
3.459815e+003;4.335578e-002
3.461744e+003;4.286790e-002
3.463672e+003;4.242981e-002
3.465601e+003;4.202804e-002
3.467529e+003;4.168828e-002
3.469458e+003;4.122489e-002
3.471386e+003;4.088197e-002
3.473315e+003;4.071458e-002
3.475243e+003;4.030098e-002
3.477172e+003;3.965251e-002
3.479101e+003;3.957741e-002
3.481029e+003;3.956554e-002
3.482958e+003;3.942652e-002
3.484886e+003;3.932838e-002
3.486815e+003;3.930600e-002
3.488743e+003;3.918650e-002
3.490672e+003;3.911206e-002
3.492600e+003;3.919995e-002
3.494529e+003;3.931866e-002
3.496458e+003;3.931322e-002
3.498386e+003;3.938715e-002
3.500315e+003;3.957537e-002
3.502243e+003;3.957487e-002
3.504172e+003;3.915955e-002
3.506100e+003;3.902327e-002
3.508029e+003;3.967469e-002
3.509957e+003;4.028258e-002
3.511886e+003;4.037188e-002
3.513814e+003;4.032632e-002
3.515743e+003;4.040650e-002
3.517672e+003;4.037617e-002
3.519600e+003;4.059050e-002
3.521529e+003;4.064209e-002
3.523457e+003;4.053088e-002
3.525386e+003;4.076316e-002
3.527314e+003;4.113684e-002
3.529243e+003;4.164119e-002
3.531171e+003;4.203622e-002
3.533100e+003;4.197698e-002
3.535029e+003;4.180263e-002
3.536957e+003;4.209886e-002
3.538885e+003;4.232858e-002
3.540814e+003;4.222691e-002
3.542743e+003;4.187921e-002
3.544671e+003;4.132353e-002
3.546600e+003;4.153195e-002
3.548528e+003;4.235141e-002
3.550457e+003;4.244161e-002
3.552385e+003;4.222906e-002
3.554314e+003;4.187024e-002
3.556242e+003;4.125364e-002
3.558171e+003;4.101141e-002
3.560100e+003;4.114558e-002
3.562028e+003;4.097914e-002
3.563957e+003;4.034486e-002
3.565885e+003;3.981041e-002
3.567814e+003;3.981492e-002
3.569742e+003;4.027396e-002
3.571671e+003;4.049425e-002
3.573599e+003;3.993913e-002
3.575528e+003;3.938799e-002
3.577457e+003;3.912460e-002
3.579385e+003;3.889562e-002
3.581314e+003;3.846561e-002
3.583242e+003;3.792892e-002
3.585171e+003;3.763198e-002
3.587099e+003;3.728639e-002
3.589028e+003;3.741220e-002
3.590956e+003;3.763090e-002
3.592885e+003;3.714279e-002
3.594813e+003;3.686190e-002
3.596742e+003;3.727769e-002
3.598671e+003;3.725358e-002
3.600599e+003;3.664057e-002
3.602528e+003;3.635950e-002
3.604456e+003;3.616539e-002
3.606385e+003;3.579193e-002
3.608313e+003;3.606983e-002
3.610242e+003;3.661620e-002
3.612170e+003;3.664006e-002
3.614099e+003;3.705586e-002
3.616028e+003;3.676976e-002
3.617956e+003;3.606896e-002
3.619885e+003;3.628824e-002
3.621813e+003;3.683128e-002
3.623742e+003;3.684817e-002
3.625670e+003;3.636321e-002
3.627599e+003;3.637827e-002
3.629527e+003;3.679395e-002
3.631456e+003;3.704546e-002
3.633385e+003;3.700105e-002
3.635313e+003;3.704218e-002
3.637241e+003;3.681094e-002
3.639170e+003;3.650879e-002
3.641099e+003;3.645362e-002
3.643027e+003;3.642605e-002
3.644956e+003;3.635608e-002
3.646884e+003;3.615171e-002
3.648813e+003;3.583213e-002
3.650741e+003;3.587182e-002
3.652670e+003;3.589514e-002
3.654598e+003;3.546877e-002
3.656527e+003;3.564919e-002
3.658456e+003;3.579298e-002
3.660384e+003;3.533979e-002
3.662313e+003;3.499246e-002
3.664241e+003;3.459106e-002
3.666170e+003;3.425853e-002
3.668098e+003;3.350422e-002
3.670027e+003;3.301287e-002
3.671955e+003;3.339521e-002
3.673884e+003;3.345919e-002
3.675813e+003;3.310125e-002
3.677741e+003;3.309764e-002
3.679669e+003;3.347176e-002
3.681598e+003;3.414804e-002
3.683527e+003;3.464226e-002
3.685455e+003;3.470794e-002
3.687384e+003;3.443823e-002
3.689312e+003;3.442543e-002
3.691241e+003;3.421780e-002
3.693169e+003;3.375128e-002
3.695098e+003;3.348507e-002
3.697026e+003;3.320317e-002
3.698955e+003;3.280642e-002
3.700884e+003;3.247004e-002
3.702812e+003;3.215933e-002
3.704741e+003;3.177675e-002
3.706669e+003;3.136295e-002
3.708598e+003;3.077516e-002
3.710526e+003;3.062808e-002
3.712455e+003;3.073330e-002
3.714383e+003;3.110902e-002
3.716312e+003;3.107157e-002
3.718240e+003;3.083247e-002
3.720169e+003;3.099598e-002
3.722098e+003;3.091475e-002
3.724026e+003;3.051827e-002
3.725955e+003;3.062972e-002
3.727883e+003;3.122169e-002
3.729812e+003;3.130127e-002
3.731740e+003;3.115472e-002
3.733669e+003;3.112988e-002
3.735597e+003;3.095432e-002
3.737526e+003;3.092706e-002
3.739455e+003;3.079622e-002
3.741383e+003;3.058591e-002
3.743312e+003;3.023683e-002
3.745240e+003;3.033851e-002
3.747169e+003;3.065838e-002
3.749097e+003;3.069923e-002
3.751026e+003;3.123803e-002
3.752954e+003;3.173682e-002
3.754883e+003;3.228252e-002
3.756812e+003;3.270805e-002
3.758740e+003;3.272034e-002
3.760668e+003;3.229479e-002
3.762597e+003;3.212226e-002
3.764526e+003;3.209757e-002
3.766454e+003;3.210406e-002
3.768383e+003;3.196267e-002
3.770311e+003;3.170475e-002
3.772240e+003;3.169559e-002
3.774168e+003;3.164195e-002
3.776097e+003;3.155361e-002
3.778025e+003;3.145093e-002
3.779954e+003;3.156006e-002
3.781883e+003;3.184585e-002
3.783811e+003;3.187733e-002
3.785740e+003;3.182819e-002
3.787668e+003;3.148339e-002
3.789597e+003;3.116935e-002
3.791525e+003;3.123048e-002
3.793454e+003;3.161910e-002
3.795382e+003;3.172385e-002
3.797311e+003;3.165834e-002
3.799240e+003;3.149144e-002
3.801168e+003;3.117683e-002
3.803097e+003;3.160071e-002
3.805025e+003;3.214324e-002
3.806954e+003;3.224005e-002
3.808882e+003;3.257942e-002
3.810811e+003;3.267647e-002
3.812739e+003;3.216964e-002
3.814668e+003;3.174488e-002
3.816596e+003;3.168728e-002
3.818525e+003;3.154270e-002
3.820454e+003;3.118844e-002
3.822382e+003;3.115757e-002
3.824311e+003;3.166390e-002
3.826239e+003;3.186645e-002
3.828168e+003;3.158240e-002
3.830096e+003;3.127236e-002
3.832025e+003;3.139419e-002
3.833953e+003;3.154420e-002
3.835882e+003;3.139419e-002
3.837811e+003;3.118424e-002
3.839739e+003;3.132399e-002
3.841667e+003;3.122059e-002
3.843596e+003;3.110510e-002
3.845525e+003;3.135501e-002
3.847453e+003;3.151199e-002
3.849382e+003;3.120243e-002
3.851310e+003;3.094140e-002
3.853239e+003;3.086380e-002
3.855167e+003;3.113910e-002
3.857096e+003;3.156027e-002
3.859024e+003;3.156750e-002
3.860953e+003;3.158122e-002
3.862882e+003;3.191409e-002
3.864810e+003;3.209094e-002
3.866739e+003;3.225528e-002
3.868667e+003;3.208473e-002
3.870596e+003;3.191484e-002
3.872524e+003;3.185964e-002
3.874453e+003;3.163514e-002
3.876381e+003;3.190554e-002
3.878310e+003;3.207199e-002
3.880239e+003;3.203657e-002
3.882167e+003;3.218416e-002
3.884096e+003;3.198431e-002
3.886024e+003;3.157773e-002
3.887953e+003;3.172285e-002
3.889881e+003;3.168575e-002
3.891810e+003;3.202473e-002
3.893738e+003;3.280913e-002
3.895667e+003;3.296675e-002
3.897595e+003;3.266393e-002
3.899524e+003;3.262407e-002
3.901453e+003;3.261039e-002
3.903381e+003;3.263253e-002
3.905310e+003;3.314205e-002
3.907238e+003;3.353411e-002
3.909167e+003;3.335736e-002
3.911095e+003;3.338544e-002
3.913024e+003;3.349978e-002
3.914952e+003;3.351914e-002
3.916881e+003;3.360874e-002
3.918810e+003;3.379333e-002
3.920738e+003;3.406758e-002
3.922667e+003;3.399459e-002
3.924595e+003;3.372647e-002
3.926524e+003;3.370326e-002
3.928452e+003;3.359363e-002
3.930381e+003;3.357015e-002
3.932309e+003;3.368944e-002
3.934238e+003;3.392791e-002
3.936167e+003;3.413909e-002
3.938095e+003;3.382030e-002
3.940023e+003;3.373069e-002
3.941952e+003;3.400942e-002
3.943881e+003;3.412102e-002
3.945809e+003;3.432480e-002
3.947738e+003;3.427904e-002
3.949666e+003;3.446244e-002
3.951595e+003;3.489184e-002
3.953523e+003;3.461273e-002
3.955452e+003;3.434434e-002
3.957380e+003;3.471540e-002
3.959309e+003;3.507906e-002
3.961238e+003;3.489425e-002
3.963166e+003;3.472796e-002
3.965095e+003;3.476634e-002
3.967023e+003;3.474832e-002
3.968952e+003;3.484883e-002
3.970880e+003;3.506020e-002
3.972809e+003;3.479031e-002
3.974737e+003;3.445190e-002
3.976666e+003;3.456343e-002
3.978594e+003;3.450456e-002
3.980523e+003;3.444888e-002
3.982452e+003;3.498198e-002
3.984380e+003;3.517276e-002
3.986309e+003;3.456784e-002
3.988237e+003;3.433677e-002
3.990166e+003;3.442686e-002
3.992094e+003;3.452626e-002
3.994023e+003;3.461453e-002
3.995951e+003;3.461611e-002
3.997880e+003;3.470015e-002
3.999809e+003;3.497982e-002
4.001737e+003;0.000000e+000
