3.992094e+002;0.000000e+000
4.011380e+002;0.000000e+000
4.030665e+002;0.000000e+000
4.049951e+002;0.000000e+000
4.069236e+002;0.000000e+000
4.088522e+002;0.000000e+000
4.107807e+002;0.000000e+000
4.127093e+002;0.000000e+000
4.146378e+002;0.000000e+000
4.165664e+002;0.000000e+000
4.184949e+002;0.000000e+000
4.204235e+002;0.000000e+000
4.223520e+002;0.000000e+000
4.242806e+002;0.000000e+000
4.262091e+002;0.000000e+000
4.281377e+002;0.000000e+000
4.300662e+002;0.000000e+000
4.319948e+002;0.000000e+000
4.339233e+002;0.000000e+000
4.358519e+002;0.000000e+000
4.377804e+002;0.000000e+000
4.397090e+002;0.000000e+000
4.416375e+002;0.000000e+000
4.435660e+002;0.000000e+000
4.454946e+002;0.000000e+000
4.474232e+002;0.000000e+000
4.493517e+002;0.000000e+000
4.512802e+002;0.000000e+000
4.532088e+002;0.000000e+000
4.551373e+002;0.000000e+000
4.570659e+002;0.000000e+000
4.589944e+002;0.000000e+000
4.609230e+002;0.000000e+000
4.628515e+002;0.000000e+000
4.647801e+002;0.000000e+000
4.667086e+002;0.000000e+000
4.686372e+002;0.000000e+000
4.705657e+002;0.000000e+000
4.724943e+002;0.000000e+000
4.744228e+002;0.000000e+000
4.763513e+002;0.000000e+000
4.782799e+002;0.000000e+000
4.802085e+002;0.000000e+000
4.821370e+002;0.000000e+000
4.840656e+002;0.000000e+000
4.859941e+002;0.000000e+000
4.879226e+002;0.000000e+000
4.898512e+002;0.000000e+000
4.917798e+002;0.000000e+000
4.937083e+002;0.000000e+000
4.956368e+002;0.000000e+000
4.975654e+002;0.000000e+000
4.994939e+002;0.000000e+000
5.014225e+002;0.000000e+000
5.033510e+002;0.000000e+000
5.052796e+002;0.000000e+000
5.072081e+002;0.000000e+000
5.091367e+002;0.000000e+000
5.110652e+002;0.000000e+000
5.129938e+002;0.000000e+000
5.149223e+002;0.000000e+000
5.168509e+002;0.000000e+000
5.187794e+002;0.000000e+000
5.207079e+002;0.000000e+000
5.226365e+002;0.000000e+000
5.245651e+002;0.000000e+000
5.264936e+002;0.000000e+000
5.284222e+002;0.000000e+000
5.303507e+002;0.000000e+000
5.322792e+002;0.000000e+000
5.342078e+002;0.000000e+000
5.361364e+002;0.000000e+000
5.380649e+002;0.000000e+000
5.399935e+002;0.000000e+000
5.419220e+002;0.000000e+000
5.438505e+002;0.000000e+000
5.457791e+002;0.000000e+000
5.477076e+002;0.000000e+000
5.496362e+002;0.000000e+000
5.515648e+002;0.000000e+000
5.534933e+002;0.000000e+000
5.554218e+002;0.000000e+000
5.573504e+002;0.000000e+000
5.592789e+002;0.000000e+000
5.612075e+002;0.000000e+000
5.631360e+002;0.000000e+000
5.650646e+002;0.000000e+000
5.669931e+002;0.000000e+000
5.689217e+002;0.000000e+000
5.708502e+002;0.000000e+000
5.727787e+002;0.000000e+000
5.747073e+002;0.000000e+000
5.766359e+002;0.000000e+000
5.785644e+002;0.000000e+000
5.804930e+002;0.000000e+000
5.824215e+002;0.000000e+000
5.843500e+002;0.000000e+000
5.862786e+002;0.000000e+000
5.882072e+002;0.000000e+000
5.901357e+002;0.000000e+000
5.920643e+002;0.000000e+000
5.939928e+002;0.000000e+000
5.959213e+002;0.000000e+000
5.978499e+002;0.000000e+000
5.997784e+002;1.089862e-001
6.017070e+002;1.048792e-001
6.036355e+002;1.098281e-001
6.055641e+002;1.136972e-001
6.074926e+002;1.077416e-001
6.094211e+002;1.063332e-001
6.113497e+002;1.052431e-001
6.132783e+002;9.897981e-002
6.152068e+002;9.749771e-002
6.171354e+002;9.919060e-002
6.190639e+002;1.029917e-001
6.209924e+002;1.034969e-001
6.229210e+002;1.036046e-001
6.248495e+002;1.095968e-001
6.267781e+002;1.120642e-001
6.287067e+002;1.130597e-001
6.306352e+002;1.193237e-001
6.325637e+002;1.206606e-001
6.344923e+002;1.184177e-001
6.364208e+002;1.113395e-001
6.383494e+002;1.047964e-001
6.402780e+002;1.035823e-001
6.422065e+002;1.025332e-001
6.441350e+002;1.024505e-001
6.460636e+002;1.009042e-001
6.479921e+002;1.031387e-001
6.499207e+002;1.081228e-001
6.518492e+002;1.115698e-001
6.537778e+002;1.119701e-001
6.557063e+002;1.131298e-001
6.576349e+002;1.147941e-001
6.595634e+002;1.157478e-001
6.614919e+002;1.172956e-001
6.634205e+002;1.183237e-001
6.653491e+002;1.203834e-001
6.672776e+002;1.240533e-001
6.692062e+002;1.261885e-001
6.711347e+002;1.266959e-001
6.730632e+002;1.292685e-001
6.749918e+002;1.324339e-001
6.769203e+002;1.350893e-001
6.788489e+002;1.384715e-001
6.807775e+002;1.423376e-001
6.827060e+002;1.442652e-001
6.846345e+002;1.451529e-001
6.865631e+002;1.459503e-001
6.884916e+002;1.475264e-001
6.904202e+002;1.501210e-001
6.923488e+002;1.544984e-001
6.942773e+002;1.606617e-001
6.962058e+002;1.686821e-001
6.981344e+002;1.804513e-001
7.000629e+002;1.955512e-001
7.019915e+002;2.093236e-001
7.039200e+002;2.202937e-001
7.058486e+002;2.322676e-001
7.077771e+002;2.464115e-001
7.097057e+002;2.621249e-001
7.116342e+002;2.808910e-001
7.135627e+002;3.046160e-001
7.154913e+002;3.361678e-001
7.174199e+002;3.749098e-001
7.193484e+002;4.163557e-001
7.212770e+002;4.517136e-001
7.232055e+002;4.724846e-001
7.251340e+002;4.640883e-001
7.270626e+002;4.259970e-001
7.289911e+002;3.746751e-001
7.309197e+002;3.244330e-001
7.328483e+002;2.798156e-001
7.347768e+002;2.399469e-001
7.367053e+002;2.025167e-001
7.386339e+002;1.696382e-001
7.405624e+002;1.455974e-001
7.424910e+002;1.294710e-001
7.444196e+002;1.185260e-001
7.463481e+002;1.117048e-001
7.482766e+002;1.084715e-001
7.502052e+002;1.072988e-001
7.521337e+002;1.070568e-001
7.540623e+002;1.073264e-001
7.559908e+002;1.070409e-001
7.579194e+002;1.069133e-001
7.598479e+002;1.071058e-001
7.617765e+002;1.076705e-001
7.637050e+002;1.087461e-001
7.656335e+002;1.103637e-001
7.675621e+002;1.125929e-001
7.694907e+002;1.138799e-001
7.714192e+002;1.147701e-001
7.733478e+002;1.163821e-001
7.752763e+002;1.182726e-001
7.772048e+002;1.202717e-001
7.791334e+002;1.221526e-001
7.810620e+002;1.238366e-001
7.829905e+002;1.265295e-001
7.849191e+002;1.300137e-001
7.868476e+002;1.342765e-001
7.887761e+002;1.390152e-001
7.907047e+002;1.430781e-001
7.926332e+002;1.438873e-001
7.945618e+002;1.393264e-001
7.964903e+002;1.313157e-001
7.984189e+002;1.257132e-001
8.003474e+002;1.240263e-001
8.022759e+002;1.236827e-001
8.042045e+002;1.243527e-001
8.061331e+002;1.253724e-001
8.080616e+002;1.258904e-001
8.099902e+002;1.261887e-001
8.119187e+002;1.269270e-001
8.138472e+002;1.270437e-001
8.157758e+002;1.268671e-001
8.177043e+002;1.279713e-001
8.196329e+002;1.289828e-001
8.215615e+002;1.298029e-001
8.234900e+002;1.310109e-001
8.254185e+002;1.325435e-001
8.273471e+002;1.348573e-001
8.292756e+002;1.364428e-001
8.312042e+002;1.386174e-001
8.331328e+002;1.420122e-001
8.350613e+002;1.456473e-001
8.369898e+002;1.496379e-001
8.389184e+002;1.537948e-001
8.408469e+002;1.578297e-001
8.427755e+002;1.629509e-001
8.447040e+002;1.677534e-001
8.466326e+002;1.706505e-001
8.485611e+002;1.705137e-001
8.504897e+002;1.676405e-001
8.524182e+002;1.643801e-001
8.543467e+002;1.625373e-001
8.562753e+002;1.617962e-001
8.582039e+002;1.615839e-001
8.601324e+002;1.617041e-001
8.620610e+002;1.636104e-001
8.639895e+002;1.681308e-001
8.659180e+002;1.763285e-001
8.678466e+002;1.916513e-001
8.697751e+002;2.154668e-001
8.717037e+002;2.342339e-001
8.736323e+002;2.304577e-001
8.755608e+002;2.129976e-001
8.774893e+002;1.956659e-001
8.794179e+002;1.799308e-001
8.813464e+002;1.665425e-001
8.832750e+002;1.558874e-001
8.852036e+002;1.474387e-001
8.871321e+002;1.415051e-001
8.890606e+002;1.374561e-001
8.909892e+002;1.349949e-001
8.929177e+002;1.336300e-001
8.948463e+002;1.334730e-001
8.967748e+002;1.335311e-001
8.987034e+002;1.333417e-001
9.006319e+002;1.329004e-001
9.025605e+002;1.318015e-001
9.044890e+002;1.300953e-001
9.064175e+002;1.279349e-001
9.083461e+002;1.260248e-001
9.102747e+002;1.244519e-001
9.122032e+002;1.228432e-001
9.141318e+002;1.212589e-001
9.160603e+002;1.202587e-001
9.179888e+002;1.196301e-001
9.199174e+002;1.191401e-001
9.218459e+002;1.191046e-001
9.237745e+002;1.197855e-001
9.257031e+002;1.204898e-001
9.276316e+002;1.209049e-001
9.295601e+002;1.212678e-001
9.314887e+002;1.221599e-001
9.334172e+002;1.232169e-001
9.353458e+002;1.242306e-001
9.372744e+002;1.251952e-001
9.392029e+002;1.263893e-001
9.411314e+002;1.281091e-001
9.430600e+002;1.301183e-001
9.449885e+002;1.316824e-001
9.469171e+002;1.328492e-001
9.488456e+002;1.344966e-001
9.507742e+002;1.371160e-001
9.527027e+002;1.397648e-001
9.546313e+002;1.420773e-001
9.565598e+002;1.446234e-001
9.584883e+002;1.475089e-001
9.604169e+002;1.506767e-001
9.623455e+002;1.539919e-001
9.642740e+002;1.574525e-001
9.662026e+002;1.602568e-001
9.681311e+002;1.622213e-001
9.700596e+002;1.631698e-001
9.719882e+002;1.622262e-001
9.739167e+002;1.599409e-001
9.758453e+002;1.567081e-001
9.777739e+002;1.534088e-001
9.797024e+002;1.501222e-001
9.816309e+002;1.472871e-001
9.835595e+002;1.454462e-001
9.854880e+002;1.441910e-001
9.874166e+002;1.435263e-001
9.893452e+002;1.427741e-001
9.912737e+002;1.421051e-001
9.932022e+002;1.420835e-001
9.951307e+002;1.423978e-001
9.970593e+002;1.432854e-001
9.989879e+002;1.450180e-001
1.000916e+003;1.473033e-001
1.002845e+003;1.503115e-001
1.004773e+003;1.542985e-001
1.006702e+003;1.600983e-001
1.008631e+003;1.688902e-001
1.010559e+003;1.827497e-001
1.012488e+003;2.043058e-001
1.014416e+003;2.342049e-001
1.016345e+003;2.627266e-001
1.018273e+003;2.715881e-001
1.020202e+003;2.576127e-001
1.022130e+003;2.328204e-001
1.024059e+003;2.065267e-001
1.025988e+003;1.827602e-001
1.027916e+003;1.652500e-001
1.029845e+003;1.560288e-001
1.031773e+003;1.533518e-001
1.033702e+003;1.538755e-001
1.035630e+003;1.561503e-001
1.037559e+003;1.586204e-001
1.039487e+003;1.607355e-001
1.041416e+003;1.630552e-001
1.043344e+003;1.651752e-001
1.045273e+003;1.665438e-001
1.047202e+003;1.665810e-001
1.049130e+003;1.662326e-001
1.051059e+003;1.667394e-001
1.052987e+003;1.674585e-001
1.054916e+003;1.686075e-001
1.056844e+003;1.705658e-001
1.058773e+003;1.731520e-001
1.060701e+003;1.766221e-001
1.062630e+003;1.810578e-001
1.064558e+003;1.868112e-001
1.066487e+003;1.938718e-001
1.068416e+003;2.020104e-001
1.070344e+003;2.113470e-001
1.072273e+003;2.232159e-001
1.074201e+003;2.384025e-001
1.076130e+003;2.565796e-001
1.078058e+003;2.769948e-001
1.079987e+003;2.994035e-001
1.081915e+003;3.220395e-001
1.083844e+003;3.419103e-001
1.085773e+003;3.584992e-001
1.087701e+003;3.727231e-001
1.089630e+003;3.866969e-001
1.091558e+003;3.995631e-001
1.093487e+003;4.110669e-001
1.095415e+003;4.210854e-001
1.097344e+003;4.259756e-001
1.099272e+003;4.236774e-001
1.101201e+003;4.154035e-001
1.103129e+003;4.010414e-001
1.105058e+003;3.816378e-001
1.106987e+003;3.606372e-001
1.108915e+003;3.421967e-001
1.110844e+003;3.302427e-001
1.112772e+003;3.247521e-001
1.114701e+003;3.236757e-001
1.116629e+003;3.231725e-001
1.118558e+003;3.193274e-001
1.120486e+003;3.119893e-001
1.122415e+003;3.020836e-001
1.124344e+003;2.906015e-001
1.126272e+003;2.780262e-001
1.128201e+003;2.636071e-001
1.130129e+003;2.473311e-001
1.132058e+003;2.307514e-001
1.133986e+003;2.141944e-001
1.135915e+003;1.984445e-001
1.137843e+003;1.846100e-001
1.139772e+003;1.727761e-001
1.141700e+003;1.631647e-001
1.143629e+003;1.552477e-001
1.145557e+003;1.485555e-001
1.147486e+003;1.426466e-001
1.149415e+003;1.374146e-001
1.151343e+003;1.328268e-001
1.153272e+003;1.288968e-001
1.155200e+003;1.260544e-001
1.157129e+003;1.240628e-001
1.159057e+003;1.228011e-001
1.160986e+003;1.219185e-001
1.162914e+003;1.216034e-001
1.164843e+003;1.224577e-001
1.166771e+003;1.247025e-001
1.168700e+003;1.286397e-001
1.170629e+003;1.334549e-001
1.172557e+003;1.371256e-001
1.174486e+003;1.385017e-001
1.176414e+003;1.382524e-001
1.178343e+003;1.367534e-001
1.180271e+003;1.344986e-001
1.182200e+003;1.326197e-001
1.184128e+003;1.314132e-001
1.186057e+003;1.312361e-001
1.187986e+003;1.319976e-001
1.189914e+003;1.332491e-001
1.191843e+003;1.353314e-001
1.193771e+003;1.383156e-001
1.195700e+003;1.423106e-001
1.197628e+003;1.464600e-001
1.199557e+003;1.503685e-001
1.201485e+003;1.549173e-001
1.203414e+003;1.600700e-001
1.205343e+003;1.652983e-001
1.207271e+003;1.709902e-001
1.209200e+003;1.770165e-001
1.211128e+003;1.836870e-001
1.213057e+003;1.914894e-001
1.214985e+003;2.001081e-001
1.216914e+003;2.091368e-001
1.218842e+003;2.186529e-001
1.220771e+003;2.287625e-001
1.222699e+003;2.392100e-001
1.224628e+003;2.500186e-001
1.226557e+003;2.627669e-001
1.228485e+003;2.787330e-001
1.230414e+003;2.987903e-001
1.232342e+003;3.240983e-001
1.234271e+003;3.545284e-001
1.236199e+003;3.884483e-001
1.238128e+003;4.219449e-001
1.240056e+003;4.508723e-001
1.241985e+003;4.720948e-001
1.243913e+003;4.845784e-001
1.245842e+003;4.877889e-001
1.247771e+003;4.838186e-001
1.249699e+003;4.752495e-001
1.251628e+003;4.643378e-001
1.253556e+003;4.536716e-001
1.255485e+003;4.443725e-001
1.257413e+003;4.363734e-001
1.259342e+003;4.283891e-001
1.261270e+003;4.185508e-001
1.263199e+003;4.051061e-001
1.265127e+003;3.875125e-001
1.267056e+003;3.673190e-001
1.268985e+003;3.462757e-001
1.270913e+003;3.258237e-001
1.272842e+003;3.071549e-001
1.274770e+003;2.912028e-001
1.276699e+003;2.776804e-001
1.278627e+003;2.656862e-001
1.280556e+003;2.548096e-001
1.282484e+003;2.443999e-001
1.284413e+003;2.342276e-001
1.286342e+003;2.243141e-001
1.288270e+003;2.142234e-001
1.290199e+003;2.037456e-001
1.292127e+003;1.934912e-001
1.294056e+003;1.833827e-001
1.295984e+003;1.733816e-001
1.297913e+003;1.638347e-001
1.299841e+003;1.549334e-001
1.301770e+003;1.471456e-001
1.303698e+003;1.410865e-001
1.305627e+003;1.360559e-001
1.307556e+003;1.311157e-001
1.309484e+003;1.261809e-001
1.311413e+003;1.216795e-001
1.313341e+003;1.180993e-001
1.315270e+003;1.152552e-001
1.317198e+003;1.127611e-001
1.319127e+003;1.106571e-001
1.321055e+003;1.087332e-001
1.322984e+003;1.076861e-001
1.324912e+003;1.081060e-001
1.326841e+003;1.108281e-001
1.328770e+003;1.171824e-001
1.330698e+003;1.284240e-001
1.332627e+003;1.446651e-001
1.334555e+003;1.632086e-001
1.336484e+003;1.788115e-001
1.338412e+003;1.860998e-001
1.340341e+003;1.823373e-001
1.342269e+003;1.693815e-001
1.344198e+003;1.516504e-001
1.346126e+003;1.343664e-001
1.348055e+003;1.206871e-001
1.349984e+003;1.107562e-001
1.351912e+003;1.039594e-001
1.353841e+003;9.987672e-002
1.355769e+003;9.735598e-002
1.357698e+003;9.589200e-002
1.359626e+003;9.560347e-002
1.361555e+003;9.656982e-002
1.363483e+003;9.838691e-002
1.365412e+003;1.007916e-001
1.367341e+003;1.028283e-001
1.369269e+003;1.040548e-001
1.371198e+003;1.044889e-001
1.373126e+003;1.043390e-001
1.375055e+003;1.037914e-001
1.376983e+003;1.032923e-001
1.378912e+003;1.028669e-001
1.380840e+003;1.028836e-001
1.382769e+003;1.032624e-001
1.384698e+003;1.037305e-001
1.386626e+003;1.042750e-001
1.388555e+003;1.047154e-001
1.390483e+003;1.054247e-001
1.392412e+003;1.068474e-001
1.394340e+003;1.090528e-001
1.396269e+003;1.126064e-001
1.398197e+003;1.177946e-001
1.400126e+003;1.252262e-001
1.402054e+003;1.355507e-001
1.403983e+003;1.485136e-001
1.405911e+003;1.622384e-001
1.407840e+003;1.715441e-001
1.409769e+003;1.703942e-001
1.411697e+003;1.579002e-001
1.413626e+003;1.391508e-001
1.415554e+003;1.207557e-001
1.417483e+003;1.066025e-001
1.419411e+003;9.726805e-002
1.421340e+003;9.194721e-002
1.423268e+003;8.908997e-002
1.425197e+003;8.781961e-002
1.427125e+003;8.784305e-002
1.429054e+003;8.865363e-002
1.430983e+003;9.016839e-002
1.432911e+003;9.228913e-002
1.434840e+003;9.442002e-002
1.436768e+003;9.623477e-002
1.438697e+003;9.795374e-002
1.440625e+003;9.942841e-002
1.442554e+003;1.008082e-001
1.444482e+003;1.020128e-001
1.446411e+003;1.032740e-001
1.448340e+003;1.047919e-001
1.450268e+003;1.064245e-001
1.452197e+003;1.078491e-001
1.454125e+003;1.088116e-001
1.456054e+003;1.089301e-001
1.457982e+003;1.085253e-001
1.459911e+003;1.082238e-001
1.461839e+003;1.076905e-001
1.463768e+003;1.069855e-001
1.465697e+003;1.068938e-001
1.467625e+003;1.081782e-001
1.469554e+003;1.103456e-001
1.471482e+003;1.111883e-001
1.473411e+003;1.097863e-001
1.475339e+003;1.074519e-001
1.477268e+003;1.046658e-001
1.479196e+003;1.015425e-001
1.481125e+003;9.836687e-002
1.483053e+003;9.520993e-002
1.484982e+003;9.189045e-002
1.486911e+003;8.891530e-002
1.488839e+003;8.679058e-002
1.490768e+003;8.526604e-002
1.492696e+003;8.432345e-002
1.494625e+003;8.459065e-002
1.496553e+003;8.643667e-002
1.498482e+003;9.001965e-002
1.500410e+003;9.602545e-002
1.502339e+003;1.042064e-001
1.504267e+003;1.100279e-001
1.506196e+003;1.082678e-001
1.508125e+003;1.006235e-001
1.510053e+003;9.289362e-002
1.511982e+003;8.747674e-002
1.513910e+003;8.445653e-002
1.515839e+003;8.296774e-002
1.517767e+003;8.228710e-002
1.519696e+003;8.221210e-002
1.521624e+003;8.251526e-002
1.523553e+003;8.316813e-002
1.525481e+003;8.333854e-002
1.527410e+003;8.298623e-002
1.529339e+003;8.245985e-002
1.531267e+003;8.187085e-002
1.533196e+003;8.124007e-002
1.535124e+003;8.081697e-002
1.537053e+003;8.048882e-002
1.538981e+003;8.007837e-002
1.540910e+003;7.998972e-002
1.542838e+003;8.005088e-002
1.544767e+003;7.999068e-002
1.546695e+003;8.032088e-002
1.548624e+003;8.064682e-002
1.550553e+003;8.083094e-002
1.552481e+003;8.122429e-002
1.554410e+003;8.164019e-002
1.556338e+003;8.202551e-002
1.558267e+003;8.221430e-002
1.560195e+003;8.269496e-002
1.562124e+003;8.356473e-002
1.564052e+003;8.430760e-002
1.565981e+003;8.510421e-002
1.567910e+003;8.642025e-002
1.569838e+003;8.815111e-002
1.571767e+003;9.060985e-002
1.573695e+003;9.340379e-002
1.575624e+003;9.569070e-002
1.577552e+003;9.709303e-002
1.579481e+003;9.726411e-002
1.581409e+003;9.564911e-002
1.583338e+003;9.275158e-002
1.585266e+003;9.001403e-002
1.587195e+003;8.794191e-002
1.589124e+003;8.638876e-002
1.591052e+003;8.545128e-002
1.592981e+003;8.510986e-002
1.594909e+003;8.518298e-002
1.596838e+003;8.565301e-002
1.598766e+003;8.626346e-002
1.600695e+003;8.712631e-002
1.602623e+003;8.822393e-002
1.604552e+003;8.947834e-002
1.606480e+003;9.081817e-002
1.608409e+003;9.245750e-002
1.610338e+003;9.402712e-002
1.612266e+003;9.538645e-002
1.614195e+003;9.603260e-002
1.616123e+003;9.543309e-002
1.618052e+003;9.424240e-002
1.619980e+003;9.320746e-002
1.621909e+003;9.236228e-002
1.623837e+003;9.181325e-002
1.625766e+003;9.177919e-002
1.627694e+003;9.213286e-002
1.629623e+003;9.269251e-002
1.631552e+003;9.351770e-002
1.633480e+003;9.404971e-002
1.635409e+003;9.445136e-002
1.637337e+003;9.520687e-002
1.639266e+003;9.616638e-002
1.641194e+003;9.732650e-002
1.643123e+003;9.835362e-002
1.645051e+003;9.913606e-002
1.646980e+003;1.001202e-001
1.648909e+003;1.013350e-001
1.650837e+003;1.024728e-001
1.652766e+003;1.035874e-001
1.654694e+003;1.053229e-001
1.656623e+003;1.074228e-001
1.658551e+003;1.097264e-001
1.660480e+003;1.119440e-001
1.662408e+003;1.143180e-001
1.664337e+003;1.172951e-001
1.666266e+003;1.205416e-001
1.668194e+003;1.239041e-001
1.670123e+003;1.272094e-001
1.672051e+003;1.303934e-001
1.673980e+003;1.337904e-001
1.675908e+003;1.375507e-001
1.677837e+003;1.416946e-001
1.679765e+003;1.458925e-001
1.681694e+003;1.498619e-001
1.683622e+003;1.532672e-001
1.685551e+003;1.568063e-001
1.687479e+003;1.612164e-001
1.689408e+003;1.665143e-001
1.691337e+003;1.732274e-001
1.693265e+003;1.816368e-001
1.695194e+003;1.921925e-001
1.697122e+003;2.057029e-001
1.699051e+003;2.225779e-001
1.700979e+003;2.445544e-001
1.702908e+003;2.723185e-001
1.704836e+003;3.069455e-001
1.706765e+003;3.488967e-001
1.708693e+003;3.956410e-001
1.710622e+003;4.400501e-001
1.712551e+003;4.725939e-001
1.714479e+003;4.848680e-001
1.716408e+003;4.762563e-001
1.718336e+003;4.530095e-001
1.720265e+003;4.238587e-001
1.722193e+003;3.931063e-001
1.724122e+003;3.628430e-001
1.726050e+003;3.337482e-001
1.727979e+003;3.053901e-001
1.729908e+003;2.782839e-001
1.731836e+003;2.528138e-001
1.733765e+003;2.282268e-001
1.735693e+003;2.057147e-001
1.737622e+003;1.851432e-001
1.739550e+003;1.655442e-001
1.741479e+003;1.470948e-001
1.743407e+003;1.305490e-001
1.745336e+003;1.166192e-001
1.747265e+003;1.057736e-001
1.749193e+003;9.759058e-002
1.751122e+003;9.139776e-002
1.753050e+003;8.711951e-002
1.754979e+003;8.417215e-002
1.756907e+003;8.202343e-002
1.758836e+003;8.056931e-002
1.760764e+003;7.946622e-002
1.762693e+003;7.877745e-002
1.764621e+003;7.820993e-002
1.766550e+003;7.747709e-002
1.768479e+003;7.703271e-002
1.770407e+003;7.676672e-002
1.772336e+003;7.629360e-002
1.774264e+003;7.608361e-002
1.776193e+003;7.622180e-002
1.778121e+003;7.620467e-002
1.780050e+003;7.585343e-002
1.781978e+003;7.555866e-002
1.783907e+003;7.546290e-002
1.785835e+003;7.560018e-002
1.787764e+003;7.577381e-002
1.789693e+003;7.535072e-002
1.791621e+003;7.470930e-002
1.793550e+003;7.476128e-002
1.795478e+003;7.508800e-002
1.797407e+003;7.519243e-002
1.799335e+003;7.515406e-002
1.801264e+003;7.507126e-002
1.803192e+003;7.502057e-002
1.805121e+003;7.502034e-002
1.807049e+003;7.517541e-002
1.808978e+003;7.537007e-002
1.810907e+003;7.522876e-002
1.812835e+003;7.500691e-002
1.814764e+003;7.514524e-002
1.816692e+003;7.522482e-002
1.818621e+003;7.515666e-002
1.820549e+003;7.494981e-002
1.822478e+003;7.482040e-002
1.824406e+003;7.484162e-002
1.826335e+003;7.462796e-002
1.828264e+003;7.437464e-002
1.830192e+003;7.402956e-002
1.832121e+003;7.349226e-002
1.834049e+003;7.318059e-002
1.835978e+003;7.299066e-002
1.837906e+003;7.272436e-002
1.839835e+003;7.211965e-002
1.841763e+003;7.130755e-002
1.843692e+003;7.059935e-002
1.845620e+003;7.007726e-002
1.847549e+003;6.958033e-002
1.849478e+003;6.906373e-002
1.851406e+003;6.842004e-002
1.853335e+003;6.774287e-002
1.855263e+003;6.703509e-002
1.857192e+003;6.637111e-002
1.859120e+003;6.598835e-002
1.861049e+003;6.556177e-002
1.862977e+003;6.490966e-002
1.864906e+003;6.447180e-002
1.866834e+003;6.410923e-002
1.868763e+003;6.371138e-002
1.870692e+003;6.340799e-002
1.872620e+003;6.319987e-002
1.874549e+003;6.306430e-002
1.876477e+003;6.290599e-002
1.878406e+003;6.238414e-002
1.880334e+003;6.210216e-002
1.882263e+003;6.218864e-002
1.884191e+003;6.219667e-002
1.886120e+003;6.207876e-002
1.888048e+003;6.213763e-002
1.889977e+003;6.217961e-002
1.891906e+003;6.225892e-002
1.893834e+003;6.236425e-002
1.895763e+003;6.257357e-002
1.897691e+003;6.282113e-002
1.899620e+003;6.296765e-002
1.901548e+003;6.317332e-002
1.903477e+003;6.329665e-002
1.905405e+003;6.318707e-002
1.907334e+003;6.325226e-002
1.909262e+003;6.340331e-002
1.911191e+003;6.353289e-002
1.913120e+003;6.370237e-002
1.915048e+003;6.416215e-002
1.916977e+003;6.463581e-002
1.918905e+003;6.482491e-002
1.920834e+003;6.508850e-002
1.922762e+003;6.554135e-002
1.924691e+003;6.612793e-002
1.926619e+003;6.671510e-002
1.928548e+003;6.707390e-002
1.930477e+003;6.761513e-002
1.932405e+003;6.850336e-002
1.934334e+003;6.923356e-002
1.936262e+003;6.977783e-002
1.938191e+003;7.039494e-002
1.940119e+003;7.115428e-002
1.942048e+003;7.204025e-002
1.943976e+003;7.263356e-002
1.945905e+003;7.291416e-002
1.947833e+003;7.343423e-002
1.949762e+003;7.396772e-002
1.951691e+003;7.415948e-002
1.953619e+003;7.447819e-002
1.955548e+003;7.468383e-002
1.957476e+003;7.458854e-002
1.959405e+003;7.443835e-002
1.961333e+003;7.426243e-002
1.963262e+003;7.375951e-002
1.965190e+003;7.273501e-002
1.967119e+003;7.183031e-002
1.969047e+003;7.113273e-002
1.970976e+003;7.045573e-002
1.972905e+003;6.988687e-002
1.974833e+003;6.945010e-002
1.976762e+003;6.924677e-002
1.978690e+003;6.879419e-002
1.980619e+003;6.808570e-002
1.982547e+003;6.761094e-002
1.984476e+003;6.725828e-002
1.986404e+003;6.685684e-002
1.988333e+003;6.636991e-002
1.990261e+003;6.595033e-002
1.992190e+003;6.545863e-002
1.994119e+003;6.509735e-002
1.996047e+003;6.487457e-002
1.997976e+003;6.435566e-002
1.999904e+003;6.375620e-002
2.001833e+003;6.331506e-002
2.003761e+003;6.300618e-002
2.005690e+003;6.260636e-002
2.007618e+003;6.225276e-002
2.009547e+003;6.216382e-002
2.011476e+003;6.216084e-002
2.013404e+003;6.174641e-002
2.015333e+003;6.122320e-002
2.017261e+003;6.094461e-002
2.019190e+003;6.089653e-002
2.021118e+003;6.064310e-002
2.023047e+003;6.038314e-002
2.024975e+003;6.019079e-002
2.026904e+003;5.988946e-002
2.028833e+003;5.972614e-002
2.030761e+003;5.960571e-002
2.032690e+003;5.940101e-002
2.034618e+003;5.932701e-002
2.036547e+003;5.935508e-002
2.038475e+003;5.956428e-002
2.040404e+003;5.979743e-002
2.042332e+003;5.995077e-002
2.044261e+003;6.034717e-002
2.046189e+003;6.055140e-002
2.048118e+003;6.055643e-002
2.050047e+003;6.081301e-002
2.051975e+003;6.112238e-002
2.053904e+003;6.144003e-002
2.055832e+003;6.167269e-002
2.057761e+003;6.195428e-002
2.059689e+003;6.237668e-002
2.061618e+003;6.277905e-002
2.063546e+003;6.304990e-002
2.065475e+003;6.331751e-002
2.067404e+003;6.379388e-002
2.069332e+003;6.431689e-002
2.071260e+003;6.460919e-002
2.073189e+003;6.489635e-002
2.075118e+003;6.528512e-002
2.077046e+003;6.558027e-002
2.078975e+003;6.583001e-002
2.080903e+003;6.619472e-002
2.082832e+003;6.644628e-002
2.084760e+003;6.667083e-002
2.086689e+003;6.700519e-002
2.088617e+003;6.718273e-002
2.090546e+003;6.710411e-002
2.092475e+003;6.703191e-002
2.094403e+003;6.706292e-002
2.096332e+003;6.713118e-002
2.098260e+003;6.713075e-002
2.100189e+003;6.723549e-002
2.102117e+003;6.722613e-002
2.104046e+003;6.712885e-002
2.105974e+003;6.723340e-002
2.107903e+003;6.715164e-002
2.109832e+003;6.693847e-002
2.111760e+003;6.695046e-002
2.113688e+003;6.705187e-002
2.115617e+003;6.704390e-002
2.117546e+003;6.682573e-002
2.119474e+003;6.640172e-002
2.121403e+003;6.592838e-002
2.123331e+003;6.579874e-002
2.125260e+003;6.549392e-002
2.127188e+003;6.511571e-002
2.129117e+003;6.504200e-002
2.131045e+003;6.476621e-002
2.132974e+003;6.420025e-002
2.134903e+003;6.391740e-002
2.136831e+003;6.386934e-002
2.138760e+003;6.380901e-002
2.140688e+003;6.343161e-002
2.142617e+003;6.298734e-002
2.144545e+003;6.266148e-002
2.146474e+003;6.263289e-002
2.148402e+003;6.244083e-002
2.150331e+003;6.187988e-002
2.152260e+003;6.156975e-002
2.154188e+003;6.129669e-002
2.156117e+003;6.104210e-002
2.158045e+003;6.084495e-002
2.159974e+003;6.070536e-002
2.161902e+003;6.028046e-002
2.163831e+003;5.982542e-002
2.165759e+003;5.943634e-002
2.167688e+003;5.899363e-002
2.169616e+003;5.874571e-002
2.171545e+003;5.866761e-002
2.173474e+003;5.856018e-002
2.175402e+003;5.837234e-002
2.177331e+003;5.808042e-002
2.179259e+003;5.759244e-002
2.181188e+003;5.746167e-002
2.183116e+003;5.764079e-002
2.185045e+003;5.754542e-002
2.186973e+003;5.744340e-002
2.188902e+003;5.741474e-002
2.190831e+003;5.743478e-002
2.192759e+003;5.766894e-002
2.194688e+003;5.772828e-002
2.196616e+003;5.752094e-002
2.198545e+003;5.740778e-002
2.200473e+003;5.764424e-002
2.202402e+003;5.791675e-002
2.204330e+003;5.798305e-002
2.206259e+003;5.821826e-002
2.208188e+003;5.864285e-002
2.210116e+003;5.905649e-002
2.212044e+003;5.939158e-002
2.213973e+003;5.945317e-002
2.215902e+003;5.931968e-002
2.217830e+003;5.932553e-002
2.219759e+003;5.968713e-002
2.221687e+003;5.994450e-002
2.223616e+003;5.991342e-002
2.225544e+003;5.992654e-002
2.227473e+003;5.996436e-002
2.229401e+003;5.976857e-002
2.231330e+003;5.959127e-002
2.233259e+003;5.987277e-002
2.235187e+003;6.015988e-002
2.237116e+003;6.011734e-002
2.239044e+003;6.021598e-002
2.240973e+003;6.045036e-002
2.242901e+003;6.050204e-002
2.244830e+003;6.048124e-002
2.246758e+003;6.065765e-002
2.248687e+003;6.074148e-002
2.250615e+003;6.073691e-002
2.252544e+003;6.085704e-002
2.254473e+003;6.114455e-002
2.256401e+003;6.128841e-002
2.258330e+003;6.151588e-002
2.260258e+003;6.171753e-002
2.262187e+003;6.163141e-002
2.264115e+003;6.145423e-002
2.266044e+003;6.142399e-002
2.267972e+003;6.145671e-002
2.269901e+003;6.143755e-002
2.271830e+003;6.138514e-002
2.273758e+003;6.133912e-002
2.275687e+003;6.150206e-002
2.277615e+003;6.170829e-002
2.279544e+003;6.187572e-002
2.281472e+003;6.205644e-002
2.283401e+003;6.205193e-002
2.285329e+003;6.192963e-002
2.287258e+003;6.198233e-002
2.289187e+003;6.195791e-002
2.291115e+003;6.156326e-002
2.293043e+003;6.097659e-002
2.294972e+003;6.018900e-002
2.296901e+003;5.962658e-002
2.298829e+003;5.938517e-002
2.300758e+003;5.886620e-002
2.302686e+003;5.824676e-002
2.304615e+003;5.790770e-002
2.306543e+003;5.751595e-002
2.308472e+003;5.730357e-002
2.310400e+003;5.733930e-002
2.312329e+003;5.733911e-002
2.314258e+003;5.739708e-002
2.316186e+003;5.735575e-002
2.318115e+003;5.746368e-002
2.320043e+003;5.776238e-002
2.321972e+003;5.770973e-002
2.323900e+003;5.806667e-002
2.325829e+003;5.849091e-002
2.327757e+003;5.839292e-002
2.329686e+003;5.837943e-002
2.331615e+003;5.867497e-002
2.333543e+003;5.872367e-002
2.335472e+003;5.862893e-002
2.337400e+003;5.887117e-002
2.339329e+003;5.897139e-002
2.341257e+003;5.891959e-002
2.343186e+003;5.898043e-002
2.345114e+003;5.903839e-002
2.347043e+003;5.906929e-002
2.348971e+003;5.943505e-002
2.350900e+003;5.984417e-002
2.352829e+003;6.011985e-002
2.354757e+003;6.052535e-002
2.356686e+003;6.079979e-002
2.358614e+003;6.114596e-002
2.360543e+003;6.163840e-002
2.362471e+003;6.191458e-002
2.364400e+003;6.220252e-002
2.366328e+003;6.230531e-002
2.368257e+003;6.227372e-002
2.370186e+003;6.244301e-002
2.372114e+003;6.251590e-002
2.374042e+003;6.232527e-002
2.375971e+003;6.221754e-002
2.377900e+003;6.249352e-002
2.379828e+003;6.288699e-002
2.381757e+003;6.272426e-002
2.383685e+003;6.238097e-002
2.385614e+003;6.252249e-002
2.387542e+003;6.267641e-002
2.389471e+003;6.240334e-002
2.391399e+003;6.209910e-002
2.393328e+003;6.204046e-002
2.395257e+003;6.206103e-002
2.397185e+003;6.216998e-002
2.399114e+003;6.214299e-002
2.401042e+003;6.193999e-002
2.402971e+003;6.181979e-002
2.404899e+003;6.158112e-002
2.406828e+003;6.139934e-002
2.408756e+003;6.110613e-002
2.410685e+003;6.084587e-002
2.412614e+003;6.044727e-002
2.414542e+003;5.996561e-002
2.416471e+003;5.970538e-002
2.418399e+003;5.964950e-002
2.420328e+003;5.947232e-002
2.422256e+003;5.919625e-002
2.424185e+003;5.912483e-002
2.426113e+003;5.873676e-002
2.428042e+003;5.827881e-002
2.429970e+003;5.803747e-002
2.431899e+003;5.776067e-002
2.433828e+003;5.730985e-002
2.435756e+003;5.712599e-002
2.437685e+003;5.711661e-002
2.439613e+003;5.677493e-002
2.441542e+003;5.643000e-002
2.443470e+003;5.618466e-002
2.445399e+003;5.599159e-002
2.447327e+003;5.605684e-002
2.449256e+003;5.598895e-002
2.451185e+003;5.571365e-002
2.453113e+003;5.551913e-002
2.455042e+003;5.556910e-002
2.456970e+003;5.557042e-002
2.458899e+003;5.546951e-002
2.460827e+003;5.527055e-002
2.462756e+003;5.507145e-002
2.464684e+003;5.512212e-002
2.466613e+003;5.515353e-002
2.468542e+003;5.507476e-002
2.470470e+003;5.526325e-002
2.472398e+003;5.552994e-002
2.474327e+003;5.578757e-002
2.476256e+003;5.583305e-002
2.478184e+003;5.580249e-002
2.480113e+003;5.593973e-002
2.482041e+003;5.613515e-002
2.483970e+003;5.650328e-002
2.485898e+003;5.673192e-002
2.487827e+003;5.678550e-002
2.489755e+003;5.683305e-002
2.491684e+003;5.688906e-002
2.493613e+003;5.707837e-002
2.495541e+003;5.722055e-002
2.497470e+003;5.737129e-002
2.499398e+003;5.759819e-002
2.501327e+003;5.763618e-002
2.503255e+003;5.772741e-002
2.505184e+003;5.788627e-002
2.507112e+003;5.813447e-002
2.509041e+003;5.828082e-002
2.510969e+003;5.828916e-002
2.512898e+003;5.820648e-002
2.514827e+003;5.847211e-002
2.516755e+003;5.877424e-002
2.518684e+003;5.883073e-002
2.520612e+003;5.910866e-002
2.522541e+003;5.940025e-002
2.524469e+003;5.936594e-002
2.526398e+003;5.942870e-002
2.528326e+003;5.955972e-002
2.530255e+003;5.960723e-002
2.532184e+003;5.962787e-002
2.534112e+003;5.975412e-002
2.536041e+003;5.989049e-002
2.537969e+003;5.955794e-002
2.539898e+003;5.945287e-002
2.541826e+003;5.995203e-002
2.543755e+003;6.023494e-002
2.545683e+003;6.020027e-002
2.547612e+003;6.013492e-002
2.549541e+003;5.995009e-002
2.551469e+003;5.968949e-002
2.553397e+003;5.952753e-002
2.555326e+003;5.961225e-002
2.557255e+003;5.983774e-002
2.559183e+003;5.996899e-002
2.561112e+003;5.997850e-002
2.563040e+003;5.975507e-002
2.564969e+003;5.976716e-002
2.566897e+003;6.004862e-002
2.568826e+003;5.984903e-002
2.570754e+003;5.971716e-002
2.572683e+003;5.969766e-002
2.574612e+003;5.946594e-002
2.576540e+003;5.945807e-002
2.578469e+003;5.955562e-002
2.580397e+003;5.978902e-002
2.582326e+003;5.982496e-002
2.584254e+003;5.963110e-002
2.586183e+003;5.923187e-002
2.588111e+003;5.895576e-002
2.590040e+003;5.890938e-002
2.591969e+003;5.870520e-002
2.593897e+003;5.834574e-002
2.595826e+003;5.781991e-002
2.597754e+003;5.773176e-002
2.599683e+003;5.791357e-002
2.601611e+003;5.781651e-002
2.603540e+003;5.737401e-002
2.605468e+003;5.693763e-002
2.607397e+003;5.687867e-002
2.609325e+003;5.690409e-002
2.611254e+003;5.684252e-002
2.613183e+003;5.667544e-002
2.615111e+003;5.656472e-002
2.617040e+003;5.677361e-002
2.618968e+003;5.683293e-002
2.620897e+003;5.649139e-002
2.622825e+003;5.646834e-002
2.624754e+003;5.672773e-002
2.626682e+003;5.672826e-002
2.628611e+003;5.677750e-002
2.630540e+003;5.681892e-002
2.632468e+003;5.665331e-002
2.634396e+003;5.629498e-002
2.636325e+003;5.578158e-002
2.638254e+003;5.519255e-002
2.640182e+003;5.491753e-002
2.642111e+003;5.473667e-002
2.644039e+003;5.440586e-002
2.645968e+003;5.405988e-002
2.647896e+003;5.379390e-002
2.649825e+003;5.357659e-002
2.651753e+003;5.342687e-002
2.653682e+003;5.351935e-002
2.655611e+003;5.368489e-002
2.657539e+003;5.369236e-002
2.659468e+003;5.351167e-002
2.661396e+003;5.333076e-002
2.663325e+003;5.316970e-002
2.665253e+003;5.311057e-002
2.667182e+003;5.321974e-002
2.669110e+003;5.331046e-002
2.671039e+003;5.337460e-002
2.672968e+003;5.337134e-002
2.674896e+003;5.338700e-002
2.676825e+003;5.350230e-002
2.678753e+003;5.364013e-002
2.680682e+003;5.369217e-002
2.682610e+003;5.353686e-002
2.684539e+003;5.325670e-002
2.686467e+003;5.317700e-002
2.688396e+003;5.326925e-002
2.690324e+003;5.336444e-002
2.692253e+003;5.339187e-002
2.694182e+003;5.340768e-002
2.696110e+003;5.360523e-002
2.698039e+003;5.388958e-002
2.699967e+003;5.399118e-002
2.701896e+003;5.401831e-002
2.703824e+003;5.392867e-002
2.705753e+003;5.397910e-002
2.707681e+003;5.385830e-002
2.709610e+003;5.388175e-002
2.711539e+003;5.399598e-002
2.713467e+003;5.398938e-002
2.715396e+003;5.400480e-002
2.717324e+003;5.428731e-002
2.719253e+003;5.473750e-002
2.721181e+003;5.485459e-002
2.723110e+003;5.476084e-002
2.725038e+003;5.476403e-002
2.726967e+003;5.493648e-002
2.728896e+003;5.530464e-002
2.730824e+003;5.574123e-002
2.732752e+003;5.597271e-002
2.734681e+003;5.605888e-002
2.736610e+003;5.607441e-002
2.738538e+003;5.607494e-002
2.740467e+003;5.638601e-002
2.742395e+003;5.649985e-002
2.744324e+003;5.640823e-002
2.746252e+003;5.657412e-002
2.748181e+003;5.652147e-002
2.750109e+003;5.642359e-002
2.752038e+003;5.645807e-002
2.753967e+003;5.637269e-002
2.755895e+003;5.614382e-002
2.757824e+003;5.600724e-002
2.759752e+003;5.603373e-002
2.761681e+003;5.612309e-002
2.763609e+003;5.634160e-002
2.765538e+003;5.640732e-002
2.767466e+003;5.627092e-002
2.769395e+003;5.642045e-002
2.771323e+003;5.683157e-002
2.773252e+003;5.715029e-002
2.775181e+003;5.717036e-002
2.777109e+003;5.719349e-002
2.779038e+003;5.723027e-002
2.780966e+003;5.769785e-002
2.782895e+003;5.815583e-002
2.784823e+003;5.834028e-002
2.786752e+003;5.869678e-002
2.788680e+003;5.904199e-002
2.790609e+003;5.932875e-002
2.792538e+003;5.960982e-002
2.794466e+003;5.979625e-002
2.796395e+003;6.008294e-002
2.798323e+003;6.057155e-002
2.800252e+003;6.084248e-002
2.802180e+003;6.100050e-002
2.804109e+003;6.123266e-002
2.806037e+003;6.140041e-002
2.807966e+003;6.140453e-002
2.809895e+003;6.124125e-002
2.811823e+003;6.087945e-002
2.813751e+003;6.052881e-002
2.815680e+003;6.050169e-002
2.817609e+003;6.050790e-002
2.819537e+003;6.029379e-002
2.821466e+003;5.974336e-002
2.823394e+003;5.970846e-002
2.825323e+003;6.007171e-002
2.827251e+003;6.030769e-002
2.829180e+003;6.072871e-002
2.831108e+003;6.124415e-002
2.833037e+003;6.169393e-002
2.834966e+003;6.200007e-002
2.836894e+003;6.230412e-002
2.838823e+003;6.288033e-002
2.840751e+003;6.336665e-002
2.842680e+003;6.386393e-002
2.844608e+003;6.435139e-002
2.846537e+003;6.469191e-002
2.848465e+003;6.487554e-002
2.850394e+003;6.517345e-002
2.852323e+003;6.573123e-002
2.854251e+003;6.666862e-002
2.856180e+003;6.728195e-002
2.858108e+003;6.739179e-002
2.860037e+003;6.757382e-002
2.861965e+003;6.793348e-002
2.863894e+003;6.828073e-002
2.865822e+003;6.847807e-002
2.867751e+003;6.854410e-002
2.869679e+003;6.858674e-002
2.871608e+003;6.907924e-002
2.873536e+003;6.966641e-002
2.875465e+003;7.021733e-002
2.877394e+003;7.065249e-002
2.879322e+003;7.080995e-002
2.881251e+003;7.102553e-002
2.883179e+003;7.139518e-002
2.885108e+003;7.175607e-002
2.887036e+003;7.186674e-002
2.888965e+003;7.197814e-002
2.890893e+003;7.217490e-002
2.892822e+003;7.253272e-002
2.894750e+003;7.313388e-002
2.896679e+003;7.363541e-002
2.898608e+003;7.398175e-002
2.900536e+003;7.469717e-002
2.902465e+003;7.553095e-002
2.904393e+003;7.599905e-002
2.906322e+003;7.611049e-002
2.908250e+003;7.612225e-002
2.910179e+003;7.593768e-002
2.912107e+003;7.562578e-002
2.914036e+003;7.517726e-002
2.915965e+003;7.449625e-002
2.917893e+003;7.352719e-002
2.919822e+003;7.238759e-002
2.921750e+003;7.150396e-002
2.923679e+003;7.105371e-002
2.925607e+003;7.064185e-002
2.927536e+003;7.035431e-002
2.929464e+003;7.028601e-002
2.931393e+003;7.057811e-002
2.933322e+003;7.106674e-002
2.935250e+003;7.132360e-002
2.937178e+003;7.179317e-002
2.939107e+003;7.261249e-002
2.941036e+003;7.337718e-002
2.942964e+003;7.385290e-002
2.944893e+003;7.498572e-002
2.946821e+003;7.641195e-002
2.948750e+003;7.708173e-002
2.950678e+003;7.771602e-002
2.952607e+003;7.873205e-002
2.954535e+003;7.982759e-002
2.956464e+003;8.072104e-002
2.958393e+003;8.160824e-002
2.960321e+003;8.242729e-002
2.962250e+003;8.310241e-002
2.964178e+003;8.348979e-002
2.966107e+003;8.380124e-002
2.968035e+003;8.421833e-002
2.969964e+003;8.387338e-002
2.971892e+003;8.362240e-002
2.973821e+003;8.328094e-002
2.975750e+003;8.276231e-002
2.977678e+003;8.206189e-002
2.979607e+003;8.106716e-002
2.981535e+003;8.030792e-002
2.983464e+003;7.974119e-002
2.985392e+003;7.899583e-002
2.987321e+003;7.811528e-002
2.989249e+003;7.730667e-002
2.991178e+003;7.687927e-002
2.993106e+003;7.666531e-002
2.995035e+003;7.653531e-002
2.996964e+003;7.626773e-002
2.998892e+003;7.571444e-002
3.000821e+003;7.535797e-002
3.002749e+003;7.520330e-002
3.004678e+003;7.484689e-002
3.006606e+003;7.425649e-002
3.008535e+003;7.379258e-002
3.010463e+003;7.343144e-002
3.012392e+003;7.300082e-002
3.014321e+003;7.243057e-002
3.016249e+003;7.188848e-002
3.018177e+003;7.140326e-002
3.020106e+003;7.071581e-002
3.022035e+003;6.988889e-002
3.023963e+003;6.939517e-002
3.025892e+003;6.878977e-002
3.027820e+003;6.795359e-002
3.029749e+003;6.701950e-002
3.031677e+003;6.629294e-002
3.033606e+003;6.576253e-002
3.035534e+003;6.540667e-002
3.037463e+003;6.501494e-002
3.039392e+003;6.483887e-002
3.041320e+003;6.515913e-002
3.043249e+003;6.574546e-002
3.045177e+003;6.668400e-002
3.047106e+003;6.758644e-002
3.049034e+003;6.818660e-002
3.050963e+003;6.924199e-002
3.052891e+003;7.039583e-002
3.054820e+003;7.072510e-002
3.056749e+003;7.075481e-002
3.058677e+003;7.067113e-002
3.060606e+003;7.055316e-002
3.062534e+003;7.018376e-002
3.064463e+003;6.997830e-002
3.066391e+003;7.010245e-002
3.068320e+003;7.024869e-002
3.070248e+003;7.033560e-002
3.072177e+003;7.016324e-002
3.074105e+003;6.997176e-002
3.076034e+003;6.988395e-002
3.077963e+003;7.006519e-002
3.079891e+003;6.996218e-002
3.081820e+003;6.950127e-002
3.083748e+003;6.905981e-002
3.085677e+003;6.871919e-002
3.087605e+003;6.853867e-002
3.089534e+003;6.816500e-002
3.091462e+003;6.753035e-002
3.093391e+003;6.701815e-002
3.095320e+003;6.711996e-002
3.097248e+003;6.745925e-002
3.099177e+003;6.781835e-002
3.101105e+003;6.816710e-002
3.103034e+003;6.871998e-002
3.104962e+003;6.901938e-002
3.106891e+003;6.864654e-002
3.108819e+003;6.831804e-002
3.110748e+003;6.786825e-002
3.112677e+003;6.728876e-002
3.114605e+003;6.680455e-002
3.116533e+003;6.609587e-002
3.118462e+003;6.548171e-002
3.120391e+003;6.520487e-002
3.122319e+003;6.471933e-002
3.124248e+003;6.415835e-002
3.126176e+003;6.402313e-002
3.128105e+003;6.430209e-002
3.130033e+003;6.413262e-002
3.131962e+003;6.374224e-002
3.133890e+003;6.338356e-002
3.135819e+003;6.294885e-002
3.137748e+003;6.250538e-002
3.139676e+003;6.202850e-002
3.141605e+003;6.137102e-002
3.143533e+003;6.082014e-002
3.145462e+003;6.056439e-002
3.147390e+003;6.050684e-002
3.149319e+003;6.007704e-002
3.151247e+003;5.959883e-002
3.153176e+003;5.948159e-002
3.155104e+003;5.928010e-002
3.157033e+003;5.904119e-002
3.158962e+003;5.887083e-002
3.160890e+003;5.897496e-002
3.162819e+003;5.903417e-002
3.164747e+003;5.896969e-002
3.166676e+003;5.849887e-002
3.168604e+003;5.836089e-002
3.170533e+003;5.858274e-002
3.172461e+003;5.870914e-002
3.174390e+003;5.862946e-002
3.176319e+003;5.851366e-002
3.178247e+003;5.840482e-002
3.180176e+003;5.817193e-002
3.182104e+003;5.792724e-002
3.184033e+003;5.782839e-002
3.185961e+003;5.776719e-002
3.187890e+003;5.795453e-002
3.189818e+003;5.809715e-002
3.191747e+003;5.781598e-002
3.193676e+003;5.792224e-002
3.195604e+003;5.799104e-002
3.197532e+003;5.767201e-002
3.199461e+003;5.753834e-002
3.201390e+003;5.754617e-002
3.203318e+003;5.746398e-002
3.205247e+003;5.726595e-002
3.207175e+003;5.693990e-002
3.209104e+003;5.708706e-002
3.211032e+003;5.732497e-002
3.212961e+003;5.720694e-002
3.214889e+003;5.731771e-002
3.216818e+003;5.733246e-002
3.218747e+003;5.724357e-002
3.220675e+003;5.736607e-002
3.222604e+003;5.710577e-002
3.224532e+003;5.687138e-002
3.226461e+003;5.703628e-002
3.228389e+003;5.720717e-002
3.230318e+003;5.728349e-002
3.232246e+003;5.723964e-002
3.234175e+003;5.688815e-002
3.236104e+003;5.674982e-002
3.238032e+003;5.699049e-002
3.239961e+003;5.710811e-002
3.241889e+003;5.666219e-002
3.243818e+003;5.654868e-002
3.245746e+003;5.666245e-002
3.247675e+003;5.676148e-002
3.249603e+003;5.663938e-002
3.251532e+003;5.644789e-002
3.253460e+003;5.619707e-002
3.255389e+003;5.596766e-002
3.257318e+003;5.578561e-002
3.259246e+003;5.575294e-002
3.261175e+003;5.576975e-002
3.263103e+003;5.578131e-002
3.265032e+003;5.586074e-002
3.266960e+003;5.580528e-002
3.268889e+003;5.569478e-002
3.270817e+003;5.557309e-002
3.272746e+003;5.568070e-002
3.274675e+003;5.544143e-002
3.276603e+003;5.540676e-002
3.278531e+003;5.572450e-002
3.280460e+003;5.592533e-002
3.282389e+003;5.611053e-002
3.284317e+003;5.604904e-002
3.286246e+003;5.583127e-002
3.288174e+003;5.582144e-002
3.290103e+003;5.616445e-002
3.292031e+003;5.624647e-002
3.293960e+003;5.618410e-002
3.295888e+003;5.612633e-002
3.297817e+003;5.589545e-002
3.299746e+003;5.592152e-002
3.301674e+003;5.607098e-002
3.303603e+003;5.574876e-002
3.305531e+003;5.558582e-002
3.307460e+003;5.551469e-002
3.309388e+003;5.527284e-002
3.311317e+003;5.508488e-002
3.313245e+003;5.494907e-002
3.315174e+003;5.512780e-002
3.317103e+003;5.529343e-002
3.319031e+003;5.502180e-002
3.320960e+003;5.495881e-002
3.322888e+003;5.503486e-002
3.324817e+003;5.495799e-002
3.326745e+003;5.522788e-002
3.328674e+003;5.552320e-002
3.330602e+003;5.566793e-002
3.332531e+003;5.592518e-002
3.334459e+003;5.615367e-002
3.336388e+003;5.600614e-002
3.338317e+003;5.572691e-002
3.340245e+003;5.598281e-002
3.342174e+003;5.630026e-002
3.344102e+003;5.601364e-002
3.346031e+003;5.529813e-002
3.347959e+003;5.500533e-002
3.349888e+003;5.490384e-002
3.351816e+003;5.472273e-002
3.353745e+003;5.446059e-002
3.355674e+003;5.426486e-002
3.357602e+003;5.394593e-002
3.359531e+003;5.372685e-002
3.361459e+003;5.374493e-002
3.363388e+003;5.351096e-002
3.365316e+003;5.264172e-002
3.367245e+003;5.233575e-002
3.369173e+003;5.249389e-002
3.371102e+003;5.273921e-002
3.373031e+003;5.265504e-002
3.374959e+003;5.205436e-002
3.376887e+003;5.211177e-002
3.378816e+003;5.239904e-002
3.380745e+003;5.226971e-002
3.382673e+003;5.218668e-002
3.384602e+003;5.233404e-002
3.386530e+003;5.256183e-002
3.388459e+003;5.276487e-002
3.390387e+003;5.297583e-002
3.392316e+003;5.301005e-002
3.394244e+003;5.294562e-002
3.396173e+003;5.325460e-002
3.398102e+003;5.383542e-002
3.400030e+003;5.417296e-002
3.401959e+003;5.452309e-002
3.403887e+003;5.510301e-002
3.405816e+003;5.574918e-002
3.407744e+003;5.639178e-002
3.409673e+003;5.728244e-002
3.411601e+003;5.848211e-002
3.413530e+003;5.948915e-002
3.415458e+003;5.989927e-002
3.417387e+003;6.043741e-002
3.419316e+003;6.113890e-002
3.421244e+003;6.192150e-002
3.423173e+003;6.270099e-002
3.425101e+003;6.362859e-002
3.427030e+003;6.469656e-002
3.428958e+003;6.483822e-002
3.430887e+003;6.439751e-002
3.432815e+003;6.412255e-002
3.434744e+003;6.373759e-002
3.436673e+003;6.355125e-002
3.438601e+003;6.329834e-002
3.440530e+003;6.264571e-002
3.442458e+003;6.203660e-002
3.444387e+003;6.120447e-002
3.446315e+003;6.061685e-002
3.448244e+003;6.016076e-002
3.450172e+003;5.948376e-002
3.452101e+003;5.835434e-002
3.454030e+003;5.735359e-002
3.455958e+003;5.694515e-002
3.457886e+003;5.662036e-002
3.459815e+003;5.612169e-002
3.461744e+003;5.544753e-002
3.463672e+003;5.470540e-002
3.465601e+003;5.426689e-002
3.467529e+003;5.385136e-002
3.469458e+003;5.316562e-002
3.471386e+003;5.288200e-002
3.473315e+003;5.271119e-002
3.475243e+003;5.262033e-002
3.477172e+003;5.218612e-002
3.479101e+003;5.174813e-002
3.481029e+003;5.170778e-002
3.482958e+003;5.133840e-002
3.484886e+003;5.117599e-002
3.486815e+003;5.150412e-002
3.488743e+003;5.135936e-002
3.490672e+003;5.087597e-002
3.492600e+003;5.034336e-002
3.494529e+003;5.016362e-002
3.496458e+003;5.081849e-002
3.498386e+003;5.134045e-002
3.500315e+003;5.144604e-002
3.502243e+003;5.124581e-002
3.504172e+003;5.110065e-002
3.506100e+003;5.131923e-002
3.508029e+003;5.114971e-002
3.509957e+003;5.128884e-002
3.511886e+003;5.173925e-002
3.513814e+003;5.171267e-002
3.515743e+003;5.180722e-002
3.517672e+003;5.188548e-002
3.519600e+003;5.190743e-002
3.521529e+003;5.228515e-002
3.523457e+003;5.251890e-002
3.525386e+003;5.248877e-002
3.527314e+003;5.247796e-002
3.529243e+003;5.254789e-002
3.531171e+003;5.274190e-002
3.533100e+003;5.258704e-002
3.535029e+003;5.269136e-002
3.536957e+003;5.275537e-002
3.538885e+003;5.261995e-002
3.540814e+003;5.281486e-002
3.542743e+003;5.320086e-002
3.544671e+003;5.315004e-002
3.546600e+003;5.258734e-002
3.548528e+003;5.229539e-002
3.550457e+003;5.252900e-002
3.552385e+003;5.286976e-002
3.554314e+003;5.280334e-002
3.556242e+003;5.251240e-002
3.558171e+003;5.199452e-002
3.560100e+003;5.153273e-002
3.562028e+003;5.152855e-002
3.563957e+003;5.160911e-002
3.565885e+003;5.143634e-002
3.567814e+003;5.070319e-002
3.569742e+003;5.002440e-002
3.571671e+003;4.992239e-002
3.573599e+003;5.017734e-002
3.575528e+003;5.022979e-002
3.577457e+003;5.003537e-002
3.579385e+003;4.969162e-002
3.581314e+003;4.923692e-002
3.583242e+003;4.871551e-002
3.585171e+003;4.850473e-002
3.587099e+003;4.805563e-002
3.589028e+003;4.770121e-002
3.590956e+003;4.749653e-002
3.592885e+003;4.717403e-002
3.594813e+003;4.719752e-002
3.596742e+003;4.722663e-002
3.598671e+003;4.705441e-002
3.600599e+003;4.692361e-002
3.602528e+003;4.701180e-002
3.604456e+003;4.681100e-002
3.606385e+003;4.645309e-002
3.608313e+003;4.628018e-002
3.610242e+003;4.643613e-002
3.612170e+003;4.674147e-002
3.614099e+003;4.699323e-002
3.616028e+003;4.684750e-002
3.617956e+003;4.632987e-002
3.619885e+003;4.591859e-002
3.621813e+003;4.608693e-002
3.623742e+003;4.634443e-002
3.625670e+003;4.668815e-002
3.627599e+003;4.655369e-002
3.629527e+003;4.622633e-002
3.631456e+003;4.632821e-002
3.633385e+003;4.656358e-002
3.635313e+003;4.651076e-002
3.637241e+003;4.650534e-002
3.639170e+003;4.653802e-002
3.641099e+003;4.639192e-002
3.643027e+003;4.641622e-002
3.644956e+003;4.640895e-002
3.646884e+003;4.568641e-002
3.648813e+003;4.524801e-002
3.650741e+003;4.551999e-002
3.652670e+003;4.576154e-002
3.654598e+003;4.532339e-002
3.656527e+003;4.456373e-002
3.658456e+003;4.469563e-002
3.660384e+003;4.483135e-002
3.662313e+003;4.466386e-002
3.664241e+003;4.438031e-002
3.666170e+003;4.404420e-002
3.668098e+003;4.375866e-002
3.670027e+003;4.371293e-002
3.671955e+003;4.413886e-002
3.673884e+003;4.438933e-002
3.675813e+003;4.437818e-002
3.677741e+003;4.496443e-002
3.679669e+003;4.548448e-002
3.681598e+003;4.592857e-002
3.683527e+003;4.618506e-002
3.685455e+003;4.669716e-002
3.687384e+003;4.667092e-002
3.689312e+003;4.608697e-002
3.691241e+003;4.520429e-002
3.693169e+003;4.479539e-002
3.695098e+003;4.442339e-002
3.697026e+003;4.419443e-002
3.698955e+003;4.447702e-002
3.700884e+003;4.418643e-002
3.702812e+003;4.363541e-002
3.704741e+003;4.350039e-002
3.706669e+003;4.342007e-002
3.708598e+003;4.337200e-002
3.710526e+003;4.317715e-002
3.712455e+003;4.269465e-002
3.714383e+003;4.261409e-002
3.716312e+003;4.279410e-002
3.718240e+003;4.296559e-002
3.720169e+003;4.269316e-002
3.722098e+003;4.232479e-002
3.724026e+003;4.240738e-002
3.725955e+003;4.279838e-002
3.727883e+003;4.330002e-002
3.729812e+003;4.354236e-002
3.731740e+003;4.329453e-002
3.733669e+003;4.297225e-002
3.735597e+003;4.301629e-002
3.737526e+003;4.317191e-002
3.739455e+003;4.318161e-002
3.741383e+003;4.310436e-002
3.743312e+003;4.314651e-002
3.745240e+003;4.329391e-002
3.747169e+003;4.335512e-002
3.749097e+003;4.355899e-002
3.751026e+003;4.361980e-002
3.752954e+003;4.351148e-002
3.754883e+003;4.367289e-002
3.756812e+003;4.412576e-002
3.758740e+003;4.409598e-002
3.760668e+003;4.422792e-002
3.762597e+003;4.451369e-002
3.764526e+003;4.425111e-002
3.766454e+003;4.375702e-002
3.768383e+003;4.365882e-002
3.770311e+003;4.398318e-002
3.772240e+003;4.407251e-002
3.774168e+003;4.391085e-002
3.776097e+003;4.375713e-002
3.778025e+003;4.332327e-002
3.779954e+003;4.282112e-002
3.781883e+003;4.244906e-002
3.783811e+003;4.241772e-002
3.785740e+003;4.302277e-002
3.787668e+003;4.337053e-002
3.789597e+003;4.322355e-002
3.791525e+003;4.321481e-002
3.793454e+003;4.364240e-002
3.795382e+003;4.374716e-002
3.797311e+003;4.349797e-002
3.799240e+003;4.348339e-002
3.801168e+003;4.394670e-002
3.803097e+003;4.392966e-002
3.805025e+003;4.340539e-002
3.806954e+003;4.332653e-002
3.808882e+003;4.361013e-002
3.810811e+003;4.377358e-002
3.812739e+003;4.396291e-002
3.814668e+003;4.366574e-002
3.816596e+003;4.302884e-002
3.818525e+003;4.316467e-002
3.820454e+003;4.352888e-002
3.822382e+003;4.386928e-002
3.824311e+003;4.366984e-002
3.826239e+003;4.349614e-002
3.828168e+003;4.389930e-002
3.830096e+003;4.374566e-002
3.832025e+003;4.300583e-002
3.833953e+003;4.291819e-002
3.835882e+003;4.304300e-002
3.837811e+003;4.299734e-002
3.839739e+003;4.335662e-002
3.841667e+003;4.335157e-002
3.843596e+003;4.289518e-002
3.845525e+003;4.293764e-002
3.847453e+003;4.314073e-002
3.849382e+003;4.300773e-002
3.851310e+003;4.270573e-002
3.853239e+003;4.238535e-002
3.855167e+003;4.264772e-002
3.857096e+003;4.336112e-002
3.859024e+003;4.361899e-002
3.860953e+003;4.339594e-002
3.862882e+003;4.324621e-002
3.864810e+003;4.322806e-002
3.866739e+003;4.319515e-002
3.868667e+003;4.300309e-002
3.870596e+003;4.304044e-002
3.872524e+003;4.333106e-002
3.874453e+003;4.313543e-002
3.876381e+003;4.320145e-002
3.878310e+003;4.347310e-002
3.880239e+003;4.341766e-002
3.882167e+003;4.354415e-002
3.884096e+003;4.385143e-002
3.886024e+003;4.411821e-002
3.887953e+003;4.414807e-002
3.889881e+003;4.393930e-002
3.891810e+003;4.395473e-002
3.893738e+003;4.403650e-002
3.895667e+003;4.365695e-002
3.897595e+003;4.337401e-002
3.899524e+003;4.352866e-002
3.901453e+003;4.373342e-002
3.903381e+003;4.393009e-002
3.905310e+003;4.401904e-002
3.907238e+003;4.413005e-002
3.909167e+003;4.467605e-002
3.911095e+003;4.471322e-002
3.913024e+003;4.462229e-002
3.914952e+003;4.460845e-002
3.916881e+003;4.473342e-002
3.918810e+003;4.530478e-002
3.920738e+003;4.537154e-002
3.922667e+003;4.496653e-002
3.924595e+003;4.510392e-002
3.926524e+003;4.546409e-002
3.928452e+003;4.571011e-002
3.930381e+003;4.575959e-002
3.932309e+003;4.547947e-002
3.934238e+003;4.491534e-002
3.936167e+003;4.476567e-002
3.938095e+003;4.507076e-002
3.940023e+003;4.497289e-002
3.941952e+003;4.501710e-002
3.943881e+003;4.516207e-002
3.945809e+003;4.525668e-002
3.947738e+003;4.562946e-002
3.949666e+003;4.549783e-002
3.951595e+003;4.513961e-002
3.953523e+003;4.541903e-002
3.955452e+003;4.558092e-002
3.957380e+003;4.548775e-002
3.959309e+003;4.545652e-002
3.961238e+003;4.542326e-002
3.963166e+003;4.548908e-002
3.965095e+003;4.581736e-002
3.967023e+003;4.609618e-002
3.968952e+003;4.626713e-002
3.970880e+003;4.602898e-002
3.972809e+003;4.541112e-002
3.974737e+003;4.511564e-002
3.976666e+003;4.540678e-002
3.978594e+003;4.632209e-002
3.980523e+003;4.667225e-002
3.982452e+003;4.597516e-002
3.984380e+003;4.566045e-002
3.986309e+003;4.572907e-002
3.988237e+003;4.574829e-002
3.990166e+003;4.556885e-002
3.992094e+003;4.562141e-002
3.994023e+003;4.573654e-002
3.995951e+003;4.552021e-002
3.997880e+003;4.574081e-002
3.999809e+003;4.611376e-002
4.001737e+003;0.000000e+000
