3.992094e+002;0.000000e+000
4.011380e+002;0.000000e+000
4.030665e+002;0.000000e+000
4.049951e+002;0.000000e+000
4.069236e+002;0.000000e+000
4.088522e+002;0.000000e+000
4.107807e+002;0.000000e+000
4.127093e+002;0.000000e+000
4.146378e+002;0.000000e+000
4.165664e+002;0.000000e+000
4.184949e+002;0.000000e+000
4.204235e+002;0.000000e+000
4.223520e+002;0.000000e+000
4.242806e+002;0.000000e+000
4.262091e+002;0.000000e+000
4.281377e+002;0.000000e+000
4.300662e+002;0.000000e+000
4.319948e+002;0.000000e+000
4.339233e+002;0.000000e+000
4.358519e+002;0.000000e+000
4.377804e+002;0.000000e+000
4.397090e+002;0.000000e+000
4.416375e+002;0.000000e+000
4.435660e+002;0.000000e+000
4.454946e+002;0.000000e+000
4.474232e+002;0.000000e+000
4.493517e+002;0.000000e+000
4.512802e+002;0.000000e+000
4.532088e+002;0.000000e+000
4.551373e+002;0.000000e+000
4.570659e+002;0.000000e+000
4.589944e+002;0.000000e+000
4.609230e+002;0.000000e+000
4.628515e+002;0.000000e+000
4.647801e+002;0.000000e+000
4.667086e+002;0.000000e+000
4.686372e+002;0.000000e+000
4.705657e+002;0.000000e+000
4.724943e+002;0.000000e+000
4.744228e+002;0.000000e+000
4.763513e+002;0.000000e+000
4.782799e+002;0.000000e+000
4.802085e+002;0.000000e+000
4.821370e+002;0.000000e+000
4.840656e+002;0.000000e+000
4.859941e+002;0.000000e+000
4.879226e+002;0.000000e+000
4.898512e+002;0.000000e+000
4.917798e+002;0.000000e+000
4.937083e+002;0.000000e+000
4.956368e+002;0.000000e+000
4.975654e+002;0.000000e+000
4.994939e+002;0.000000e+000
5.014225e+002;0.000000e+000
5.033510e+002;0.000000e+000
5.052796e+002;0.000000e+000
5.072081e+002;0.000000e+000
5.091367e+002;0.000000e+000
5.110652e+002;0.000000e+000
5.129938e+002;0.000000e+000
5.149223e+002;0.000000e+000
5.168509e+002;0.000000e+000
5.187794e+002;0.000000e+000
5.207079e+002;0.000000e+000
5.226365e+002;0.000000e+000
5.245651e+002;0.000000e+000
5.264936e+002;0.000000e+000
5.284222e+002;0.000000e+000
5.303507e+002;0.000000e+000
5.322792e+002;0.000000e+000
5.342078e+002;0.000000e+000
5.361364e+002;0.000000e+000
5.380649e+002;0.000000e+000
5.399935e+002;0.000000e+000
5.419220e+002;0.000000e+000
5.438505e+002;0.000000e+000
5.457791e+002;0.000000e+000
5.477076e+002;0.000000e+000
5.496362e+002;0.000000e+000
5.515648e+002;0.000000e+000
5.534933e+002;0.000000e+000
5.554218e+002;0.000000e+000
5.573504e+002;0.000000e+000
5.592789e+002;0.000000e+000
5.612075e+002;0.000000e+000
5.631360e+002;0.000000e+000
5.650646e+002;0.000000e+000
5.669931e+002;0.000000e+000
5.689217e+002;0.000000e+000
5.708502e+002;0.000000e+000
5.727787e+002;0.000000e+000
5.747073e+002;0.000000e+000
5.766359e+002;0.000000e+000
5.785644e+002;0.000000e+000
5.804930e+002;0.000000e+000
5.824215e+002;0.000000e+000
5.843500e+002;0.000000e+000
5.862786e+002;0.000000e+000
5.882072e+002;0.000000e+000
5.901357e+002;0.000000e+000
5.920643e+002;0.000000e+000
5.939928e+002;0.000000e+000
5.959213e+002;0.000000e+000
5.978499e+002;0.000000e+000
5.997784e+002;8.189314e-002
6.017070e+002;8.887281e-002
6.036355e+002;8.609201e-002
6.055641e+002;8.085828e-002
6.074926e+002;7.831551e-002
6.094211e+002;8.294988e-002
6.113497e+002;8.859629e-002
6.132783e+002;8.652768e-002
6.152068e+002;8.496663e-002
6.171354e+002;8.380337e-002
6.190639e+002;8.337158e-002
6.209924e+002;8.284771e-002
6.229210e+002;8.658883e-002
6.248495e+002;9.313473e-002
6.267781e+002;9.532744e-002
6.287067e+002;9.809970e-002
6.306352e+002;1.030165e-001
6.325637e+002;1.034944e-001
6.344923e+002;9.994961e-002
6.364208e+002;9.408206e-002
6.383494e+002;9.256894e-002
6.402780e+002;9.382874e-002
6.422065e+002;9.501054e-002
6.441350e+002;9.397360e-002
6.460636e+002;9.350007e-002
6.479921e+002;9.746453e-002
6.499207e+002;1.010650e-001
6.518492e+002;1.001888e-001
6.537778e+002;9.825630e-002
6.557063e+002;1.000344e-001
6.576349e+002;1.026432e-001
6.595634e+002;1.021880e-001
6.614919e+002;1.017437e-001
6.634205e+002;1.035040e-001
6.653491e+002;1.064121e-001
6.672776e+002;1.067656e-001
6.692062e+002;1.084112e-001
6.711347e+002;1.106783e-001
6.730632e+002;1.136432e-001
6.749918e+002;1.185363e-001
6.769203e+002;1.222288e-001
6.788489e+002;1.249282e-001
6.807775e+002;1.275205e-001
6.827060e+002;1.284880e-001
6.846345e+002;1.283432e-001
6.865631e+002;1.288033e-001
6.884916e+002;1.304180e-001
6.904202e+002;1.335546e-001
6.923488e+002;1.388887e-001
6.942773e+002;1.461553e-001
6.962058e+002;1.553686e-001
6.981344e+002;1.670622e-001
7.000629e+002;1.815467e-001
7.019915e+002;1.952482e-001
7.039200e+002;2.063019e-001
7.058486e+002;2.182449e-001
7.077771e+002;2.320910e-001
7.097057e+002;2.479951e-001
7.116342e+002;2.680878e-001
7.135627e+002;2.931226e-001
7.154913e+002;3.271003e-001
7.174199e+002;3.711083e-001
7.193484e+002;4.195383e-001
7.212770e+002;4.613218e-001
7.232055e+002;4.853348e-001
7.251340e+002;4.748002e-001
7.270626e+002;4.303319e-001
7.289911e+002;3.734584e-001
7.309197e+002;3.184337e-001
7.328483e+002;2.689858e-001
7.347768e+002;2.243584e-001
7.367053e+002;1.840025e-001
7.386339e+002;1.494745e-001
7.405624e+002;1.245666e-001
7.424910e+002;1.083433e-001
7.444196e+002;9.730697e-002
7.463481e+002;9.044166e-002
7.482766e+002;8.717041e-002
7.502052e+002;8.570032e-002
7.521337e+002;8.449951e-002
7.540623e+002;8.445004e-002
7.559908e+002;8.529192e-002
7.579194e+002;8.557812e-002
7.598479e+002;8.491695e-002
7.617765e+002;8.562925e-002
7.637050e+002;8.725215e-002
7.656335e+002;8.856025e-002
7.675621e+002;9.026729e-002
7.694907e+002;9.244676e-002
7.714192e+002;9.510527e-002
7.733478e+002;9.803288e-002
7.752763e+002;1.001201e-001
7.772048e+002;1.013203e-001
7.791334e+002;1.025569e-001
7.810620e+002;1.052255e-001
7.829905e+002;1.078862e-001
7.849191e+002;1.105932e-001
7.868476e+002;1.145863e-001
7.887761e+002;1.195889e-001
7.907047e+002;1.245826e-001
7.926332e+002;1.262037e-001
7.945618e+002;1.213601e-001
7.964903e+002;1.130217e-001
7.984189e+002;1.071179e-001
8.003474e+002;1.051689e-001
8.022759e+002;1.054980e-001
8.042045e+002;1.069219e-001
8.061331e+002;1.082106e-001
8.080616e+002;1.089770e-001
8.099902e+002;1.092624e-001
8.119187e+002;1.094220e-001
8.138472e+002;1.099030e-001
8.157758e+002;1.107262e-001
8.177043e+002;1.123703e-001
8.196329e+002;1.144471e-001
8.215615e+002;1.159829e-001
8.234900e+002;1.171624e-001
8.254185e+002;1.185679e-001
8.273471e+002;1.202764e-001
8.292756e+002;1.230764e-001
8.312042e+002;1.259919e-001
8.331328e+002;1.286723e-001
8.350613e+002;1.322692e-001
8.369898e+002;1.361078e-001
8.389184e+002;1.408854e-001
8.408469e+002;1.457716e-001
8.427755e+002;1.510001e-001
8.447040e+002;1.567142e-001
8.466326e+002;1.601117e-001
8.485611e+002;1.593868e-001
8.504897e+002;1.557183e-001
8.524182e+002;1.521369e-001
8.543467e+002;1.503924e-001
8.562753e+002;1.494396e-001
8.582039e+002;1.479873e-001
8.601324e+002;1.472998e-001
8.620610e+002;1.487187e-001
8.639895e+002;1.529742e-001
8.659180e+002;1.626015e-001
8.678466e+002;1.807150e-001
8.697751e+002;2.075826e-001
8.717037e+002;2.281192e-001
8.736323e+002;2.220846e-001
8.755608e+002;2.003658e-001
8.774893e+002;1.800752e-001
8.794179e+002;1.635360e-001
8.813464e+002;1.496767e-001
8.832750e+002;1.375761e-001
8.852036e+002;1.281468e-001
8.871321e+002;1.220703e-001
8.890606e+002;1.186043e-001
8.909892e+002;1.163659e-001
8.929177e+002;1.155864e-001
8.948463e+002;1.158984e-001
8.967748e+002;1.158602e-001
8.987034e+002;1.156389e-001
9.006319e+002;1.155074e-001
9.025605e+002;1.146354e-001
9.044890e+002;1.129479e-001
9.064175e+002;1.106892e-001
9.083461e+002;1.081507e-001
9.102747e+002;1.055631e-001
9.122032e+002;1.034283e-001
9.141318e+002;1.021325e-001
9.160603e+002;1.014967e-001
9.179888e+002;1.008081e-001
9.199174e+002;1.001765e-001
9.218459e+002;1.004542e-001
9.237745e+002;1.014176e-001
9.257031e+002;1.020917e-001
9.276316e+002;1.026036e-001
9.295601e+002;1.032247e-001
9.314887e+002;1.037889e-001
9.334172e+002;1.042567e-001
9.353458e+002;1.052557e-001
9.372744e+002;1.061211e-001
9.392029e+002;1.064026e-001
9.411314e+002;1.069077e-001
9.430600e+002;1.080776e-001
9.449885e+002;1.096742e-001
9.469171e+002;1.112618e-001
9.488456e+002;1.132061e-001
9.507742e+002;1.152734e-001
9.527027e+002;1.177459e-001
9.546313e+002;1.207976e-001
9.565598e+002;1.237077e-001
9.584883e+002;1.268961e-001
9.604169e+002;1.305667e-001
9.623455e+002;1.346064e-001
9.642740e+002;1.380935e-001
9.662026e+002;1.411802e-001
9.681311e+002;1.438567e-001
9.700596e+002;1.447220e-001
9.719882e+002;1.437283e-001
9.739167e+002;1.408642e-001
9.758453e+002;1.366246e-001
9.777739e+002;1.325896e-001
9.797024e+002;1.294477e-001
9.816309e+002;1.267926e-001
9.835595e+002;1.251800e-001
9.854880e+002;1.243535e-001
9.874166e+002;1.239831e-001
9.893452e+002;1.234050e-001
9.912737e+002;1.229922e-001
9.932022e+002;1.233442e-001
9.951307e+002;1.242564e-001
9.970593e+002;1.257139e-001
9.989879e+002;1.284519e-001
1.000916e+003;1.313506e-001
1.002845e+003;1.344921e-001
1.004773e+003;1.391136e-001
1.006702e+003;1.455466e-001
1.008631e+003;1.549121e-001
1.010559e+003;1.691307e-001
1.012488e+003;1.917207e-001
1.014416e+003;2.236853e-001
1.016345e+003;2.519850e-001
1.018273e+003;2.580048e-001
1.020202e+003;2.401908e-001
1.022130e+003;2.121315e-001
1.024059e+003;1.827425e-001
1.025988e+003;1.566783e-001
1.027916e+003;1.395141e-001
1.029845e+003;1.323347e-001
1.031773e+003;1.318252e-001
1.033702e+003;1.341345e-001
1.035630e+003;1.370808e-001
1.037559e+003;1.399355e-001
1.039487e+003;1.430956e-001
1.041416e+003;1.455804e-001
1.043344e+003;1.469186e-001
1.045273e+003;1.476203e-001
1.047202e+003;1.482528e-001
1.049130e+003;1.490003e-001
1.051059e+003;1.497321e-001
1.052987e+003;1.504851e-001
1.054916e+003;1.519168e-001
1.056844e+003;1.545275e-001
1.058773e+003;1.581381e-001
1.060701e+003;1.633070e-001
1.062630e+003;1.699453e-001
1.064558e+003;1.777171e-001
1.066487e+003;1.860286e-001
1.068416e+003;1.953510e-001
1.070344e+003;2.055551e-001
1.072273e+003;2.173569e-001
1.074201e+003;2.319981e-001
1.076130e+003;2.492834e-001
1.078058e+003;2.684632e-001
1.079987e+003;2.890601e-001
1.081915e+003;3.103124e-001
1.083844e+003;3.306715e-001
1.085773e+003;3.487459e-001
1.087701e+003;3.646631e-001
1.089630e+003;3.796836e-001
1.091558e+003;3.946252e-001
1.093487e+003;4.082451e-001
1.095415e+003;4.180272e-001
1.097344e+003;4.219859e-001
1.099272e+003;4.195120e-001
1.101201e+003;4.101126e-001
1.103129e+003;3.940748e-001
1.105058e+003;3.731897e-001
1.106987e+003;3.504862e-001
1.108915e+003;3.314765e-001
1.110844e+003;3.200180e-001
1.112772e+003;3.148286e-001
1.114701e+003;3.141567e-001
1.116629e+003;3.147123e-001
1.118558e+003;3.125902e-001
1.120486e+003;3.063183e-001
1.122415e+003;2.963971e-001
1.124344e+003;2.833073e-001
1.126272e+003;2.683901e-001
1.128201e+003;2.519841e-001
1.130129e+003;2.343081e-001
1.132058e+003;2.157183e-001
1.133986e+003;1.976333e-001
1.135915e+003;1.820966e-001
1.137843e+003;1.684810e-001
1.139772e+003;1.566030e-001
1.141700e+003;1.467476e-001
1.143629e+003;1.384934e-001
1.145557e+003;1.322663e-001
1.147486e+003;1.281695e-001
1.149415e+003;1.254151e-001
1.151343e+003;1.226112e-001
1.153272e+003;1.201586e-001
1.155200e+003;1.177198e-001
1.157129e+003;1.154616e-001
1.159057e+003;1.145235e-001
1.160986e+003;1.149206e-001
1.162914e+003;1.163490e-001
1.164843e+003;1.182176e-001
1.166771e+003;1.210640e-001
1.168700e+003;1.244029e-001
1.170629e+003;1.271763e-001
1.172557e+003;1.288480e-001
1.174486e+003;1.291954e-001
1.176414e+003;1.281639e-001
1.178343e+003;1.258530e-001
1.180271e+003;1.227145e-001
1.182200e+003;1.200598e-001
1.184128e+003;1.180127e-001
1.186057e+003;1.174582e-001
1.187986e+003;1.188598e-001
1.189914e+003;1.209888e-001
1.191843e+003;1.237620e-001
1.193771e+003;1.274566e-001
1.195700e+003;1.316093e-001
1.197628e+003;1.360384e-001
1.199557e+003;1.404381e-001
1.201485e+003;1.455849e-001
1.203414e+003;1.512847e-001
1.205343e+003;1.569412e-001
1.207271e+003;1.634106e-001
1.209200e+003;1.703172e-001
1.211128e+003;1.771615e-001
1.213057e+003;1.848865e-001
1.214985e+003;1.938741e-001
1.216914e+003;2.042351e-001
1.218842e+003;2.153723e-001
1.220771e+003;2.263099e-001
1.222699e+003;2.368627e-001
1.224628e+003;2.475424e-001
1.226557e+003;2.602566e-001
1.228485e+003;2.769105e-001
1.230414e+003;2.982526e-001
1.232342e+003;3.244995e-001
1.234271e+003;3.562698e-001
1.236199e+003;3.913636e-001
1.238128e+003;4.256835e-001
1.240056e+003;4.549541e-001
1.241985e+003;4.752031e-001
1.243913e+003;4.847795e-001
1.245842e+003;4.847724e-001
1.247771e+003;4.777549e-001
1.249699e+003;4.661915e-001
1.251628e+003;4.533598e-001
1.253556e+003;4.405018e-001
1.255485e+003;4.285218e-001
1.257413e+003;4.192743e-001
1.259342e+003;4.109578e-001
1.261270e+003;4.006214e-001
1.263199e+003;3.862524e-001
1.265127e+003;3.676463e-001
1.267056e+003;3.468688e-001
1.268985e+003;3.258196e-001
1.270913e+003;3.056343e-001
1.272842e+003;2.877143e-001
1.274770e+003;2.725930e-001
1.276699e+003;2.597122e-001
1.278627e+003;2.479697e-001
1.280556e+003;2.372592e-001
1.282484e+003;2.270927e-001
1.284413e+003;2.170327e-001
1.286342e+003;2.068341e-001
1.288270e+003;1.965691e-001
1.290199e+003;1.865670e-001
1.292127e+003;1.766635e-001
1.294056e+003;1.667308e-001
1.295984e+003;1.569364e-001
1.297913e+003;1.473101e-001
1.299841e+003;1.383518e-001
1.301770e+003;1.307870e-001
1.303698e+003;1.250225e-001
1.305627e+003;1.206517e-001
1.307556e+003;1.164857e-001
1.309484e+003;1.123846e-001
1.311413e+003;1.088498e-001
1.313341e+003;1.058835e-001
1.315270e+003;1.031729e-001
1.317198e+003;1.006355e-001
1.319127e+003;9.878039e-002
1.321055e+003;9.766434e-002
1.322984e+003;9.702998e-002
1.324912e+003;9.751227e-002
1.326841e+003;1.001417e-001
1.328770e+003;1.064860e-001
1.330698e+003;1.181415e-001
1.332627e+003;1.353002e-001
1.334555e+003;1.548693e-001
1.336484e+003;1.710986e-001
1.338412e+003;1.782755e-001
1.340341e+003;1.735760e-001
1.342269e+003;1.588458e-001
1.344198e+003;1.394737e-001
1.346126e+003;1.206964e-001
1.348055e+003;1.056854e-001
1.349984e+003;9.537217e-002
1.351912e+003;8.886788e-002
1.353841e+003;8.475175e-002
1.355769e+003;8.218283e-002
1.357698e+003;8.076397e-002
1.359626e+003;8.021772e-002
1.361555e+003;8.074944e-002
1.363483e+003;8.277638e-002
1.365412e+003;8.578933e-002
1.367341e+003;8.801524e-002
1.369269e+003;8.906174e-002
1.371198e+003;8.888138e-002
1.373126e+003;8.774190e-002
1.375055e+003;8.682846e-002
1.376983e+003;8.640614e-002
1.378912e+003;8.633418e-002
1.380840e+003;8.708420e-002
1.382769e+003;8.808264e-002
1.384698e+003;8.849290e-002
1.386626e+003;8.823275e-002
1.388555e+003;8.891769e-002
1.390483e+003;9.036740e-002
1.392412e+003;9.164447e-002
1.394340e+003;9.383614e-002
1.396269e+003;9.826133e-002
1.398197e+003;1.041590e-001
1.400126e+003;1.123692e-001
1.402054e+003;1.229708e-001
1.403983e+003;1.356329e-001
1.405911e+003;1.497235e-001
1.407840e+003;1.594103e-001
1.409769e+003;1.575778e-001
1.411697e+003;1.430776e-001
1.413626e+003;1.222317e-001
1.415554e+003;1.025432e-001
1.417483e+003;8.708683e-002
1.419411e+003;7.730951e-002
1.421340e+003;7.342171e-002
1.423268e+003;7.155006e-002
1.425197e+003;7.076541e-002
1.427125e+003;7.096119e-002
1.429054e+003;7.158999e-002
1.430983e+003;7.327620e-002
1.432911e+003;7.526004e-002
1.434840e+003;7.593128e-002
1.436768e+003;7.681445e-002
1.438697e+003;7.985798e-002
1.440625e+003;8.205065e-002
1.442554e+003;8.346224e-002
1.444482e+003;8.476118e-002
1.446411e+003;8.587997e-002
1.448340e+003;8.713741e-002
1.450268e+003;8.873735e-002
1.452197e+003;8.955888e-002
1.454125e+003;8.856127e-002
1.456054e+003;8.542170e-002
1.457982e+003;8.534193e-002
1.459911e+003;8.766028e-002
1.461839e+003;8.783726e-002
1.463768e+003;8.645728e-002
1.465697e+003;8.672637e-002
1.467625e+003;8.943971e-002
1.469554e+003;9.275043e-002
1.471482e+003;9.363714e-002
1.473411e+003;9.242274e-002
1.475339e+003;9.119370e-002
1.477268e+003;8.992766e-002
1.479196e+003;8.806470e-002
1.481125e+003;8.523172e-002
1.483053e+003;8.241875e-002
1.484982e+003;7.908089e-002
1.486911e+003;7.567599e-002
1.488839e+003;7.307366e-002
1.490768e+003;7.201123e-002
1.492696e+003;7.232676e-002
1.494625e+003;7.214454e-002
1.496553e+003;7.333112e-002
1.498482e+003;7.841639e-002
1.500410e+003;8.617483e-002
1.502339e+003;9.523653e-002
1.504267e+003;9.922245e-002
1.506196e+003;9.445877e-002
1.508125e+003;8.794780e-002
1.510053e+003;8.295506e-002
1.511982e+003;7.947656e-002
1.513910e+003;7.810013e-002
1.515839e+003;7.707976e-002
1.517767e+003;7.676645e-002
1.519696e+003;7.585895e-002
1.521624e+003;7.545395e-002
1.523553e+003;7.740363e-002
1.525481e+003;7.859698e-002
1.527410e+003;7.959359e-002
1.529339e+003;8.035804e-002
1.531267e+003;7.998033e-002
1.533196e+003;7.836480e-002
1.535124e+003;7.779341e-002
1.537053e+003;7.509769e-002
1.538981e+003;7.003038e-002
1.540910e+003;6.907364e-002
1.542838e+003;7.106327e-002
1.544767e+003;7.211242e-002
1.546695e+003;7.300623e-002
1.548624e+003;7.328785e-002
1.550553e+003;7.296774e-002
1.552481e+003;7.186444e-002
1.554410e+003;7.040998e-002
1.556338e+003;6.848498e-002
1.558267e+003;6.497326e-002
1.560195e+003;6.684636e-002
1.562124e+003;7.210499e-002
1.564052e+003;7.406697e-002
1.565981e+003;7.474814e-002
1.567910e+003;7.517529e-002
1.569838e+003;7.630119e-002
1.571767e+003;7.933856e-002
1.573695e+003;8.086642e-002
1.575624e+003;8.091628e-002
1.577552e+003;8.389078e-002
1.579481e+003;8.637805e-002
1.581409e+003;8.510595e-002
1.583338e+003;8.242227e-002
1.585266e+003;7.995830e-002
1.587195e+003;7.841960e-002
1.589124e+003;7.762682e-002
1.591052e+003;7.748161e-002
1.592981e+003;7.775462e-002
1.594909e+003;7.869519e-002
1.596838e+003;8.033974e-002
1.598766e+003;8.218668e-002
1.600695e+003;8.380710e-002
1.602623e+003;8.499745e-002
1.604552e+003;8.556311e-002
1.606480e+003;8.580568e-002
1.608409e+003;8.625169e-002
1.610338e+003;8.702679e-002
1.612266e+003;8.740638e-002
1.614195e+003;8.607448e-002
1.616123e+003;8.304548e-002
1.618052e+003;8.282513e-002
1.619980e+003;8.335115e-002
1.621909e+003;8.176789e-002
1.623837e+003;8.087189e-002
1.625766e+003;8.134731e-002
1.627694e+003;8.134679e-002
1.629623e+003;8.167670e-002
1.631552e+003;8.217418e-002
1.633480e+003;8.066134e-002
1.635409e+003;7.903863e-002
1.637337e+003;8.126388e-002
1.639266e+003;8.376636e-002
1.641194e+003;8.509269e-002
1.643123e+003;8.553745e-002
1.645051e+003;8.443294e-002
1.646980e+003;8.480371e-002
1.648909e+003;8.703338e-002
1.650837e+003;8.572885e-002
1.652766e+003;8.321636e-002
1.654694e+003;8.796273e-002
1.656623e+003;9.359274e-002
1.658551e+003;9.658998e-002
1.660480e+003;9.851006e-002
1.662408e+003;1.006302e-001
1.664337e+003;1.044167e-001
1.666266e+003;1.079442e-001
1.668194e+003;1.101361e-001
1.670123e+003;1.134243e-001
1.672051e+003;1.174447e-001
1.673980e+003;1.201778e-001
1.675908e+003;1.241818e-001
1.677837e+003;1.300364e-001
1.679765e+003;1.346760e-001
1.681694e+003;1.372850e-001
1.683622e+003;1.375894e-001
1.685551e+003;1.424284e-001
1.687479e+003;1.500034e-001
1.689408e+003;1.561083e-001
1.691337e+003;1.631112e-001
1.693265e+003;1.702697e-001
1.695194e+003;1.782570e-001
1.697122e+003;1.924735e-001
1.699051e+003;2.085628e-001
1.700979e+003;2.302856e-001
1.702908e+003;2.600442e-001
1.704836e+003;2.938177e-001
1.706765e+003;3.352576e-001
1.708693e+003;3.826266e-001
1.710622e+003;4.285700e-001
1.712551e+003;4.629859e-001
1.714479e+003;4.757370e-001
1.716408e+003;4.654514e-001
1.718336e+003;4.418015e-001
1.720265e+003;4.130819e-001
1.722193e+003;3.804054e-001
1.724122e+003;3.471442e-001
1.726050e+003;3.149080e-001
1.727979e+003;2.833760e-001
1.729908e+003;2.529475e-001
1.731836e+003;2.235259e-001
1.733765e+003;1.948643e-001
1.735693e+003;1.717922e-001
1.737622e+003;1.508300e-001
1.739550e+003;1.292713e-001
1.741479e+003;1.109137e-001
1.743407e+003;9.526987e-002
1.745336e+003;8.232810e-002
1.747265e+003;7.250868e-002
1.749193e+003;6.580842e-002
1.751122e+003;6.188180e-002
1.753050e+003;6.125537e-002
1.754979e+003;6.097206e-002
1.756907e+003;6.032699e-002
1.758836e+003;6.007864e-002
1.760764e+003;5.938418e-002
1.762693e+003;5.951780e-002
1.764621e+003;6.021130e-002
1.766550e+003;5.962757e-002
1.768479e+003;5.894699e-002
1.770407e+003;5.801974e-002
1.772336e+003;5.712364e-002
1.774264e+003;5.850641e-002
1.776193e+003;5.950709e-002
1.778121e+003;5.949189e-002
1.780050e+003;5.928447e-002
1.781978e+003;5.927520e-002
1.783907e+003;5.917293e-002
1.785835e+003;5.919302e-002
1.787764e+003;5.929073e-002
1.789693e+003;5.855775e-002
1.791621e+003;5.764753e-002
1.793550e+003;5.825286e-002
1.795478e+003;5.933385e-002
1.797407e+003;5.940063e-002
1.799335e+003;5.927175e-002
1.801264e+003;5.937909e-002
1.803192e+003;5.983625e-002
1.805121e+003;5.998984e-002
1.807049e+003;6.004699e-002
1.808978e+003;6.011125e-002
1.810907e+003;6.018508e-002
1.812835e+003;6.035733e-002
1.814764e+003;6.067278e-002
1.816692e+003;6.063483e-002
1.818621e+003;6.064595e-002
1.820549e+003;6.068215e-002
1.822478e+003;6.030791e-002
1.824406e+003;5.963479e-002
1.826335e+003;5.949504e-002
1.828264e+003;5.916860e-002
1.830192e+003;5.882936e-002
1.832121e+003;5.919796e-002
1.834049e+003;5.910232e-002
1.835978e+003;5.866264e-002
1.837906e+003;5.835028e-002
1.839835e+003;5.788358e-002
1.841763e+003;5.664399e-002
1.843692e+003;5.501962e-002
1.845620e+003;5.506589e-002
1.847549e+003;5.517061e-002
1.849478e+003;5.473265e-002
1.851406e+003;5.408435e-002
1.853335e+003;5.348146e-002
1.855263e+003;5.289244e-002
1.857192e+003;5.236887e-002
1.859120e+003;5.204386e-002
1.861049e+003;5.167960e-002
1.862977e+003;5.119858e-002
1.864906e+003;5.041600e-002
1.866834e+003;4.939103e-002
1.868763e+003;4.876545e-002
1.870692e+003;4.918730e-002
1.872620e+003;4.946867e-002
1.874549e+003;4.936527e-002
1.876477e+003;4.941257e-002
1.878406e+003;4.940711e-002
1.880334e+003;4.930996e-002
1.882263e+003;4.905574e-002
1.884191e+003;4.892459e-002
1.886120e+003;4.868530e-002
1.888048e+003;4.824775e-002
1.889977e+003;4.834092e-002
1.891906e+003;4.882324e-002
1.893834e+003;4.890931e-002
1.895763e+003;4.908883e-002
1.897691e+003;4.939036e-002
1.899620e+003;4.962105e-002
1.901548e+003;4.972633e-002
1.903477e+003;4.980071e-002
1.905405e+003;4.989767e-002
1.907334e+003;5.012710e-002
1.909262e+003;5.032089e-002
1.911191e+003;5.054514e-002
1.913120e+003;5.099370e-002
1.915048e+003;5.116514e-002
1.916977e+003;5.084594e-002
1.918905e+003;5.114695e-002
1.920834e+003;5.184833e-002
1.922762e+003;5.234805e-002
1.924691e+003;5.288405e-002
1.926619e+003;5.350818e-002
1.928548e+003;5.418205e-002
1.930477e+003;5.468244e-002
1.932405e+003;5.499958e-002
1.934334e+003;5.577521e-002
1.936262e+003;5.670859e-002
1.938191e+003;5.725854e-002
1.940119e+003;5.770743e-002
1.942048e+003;5.831743e-002
1.943976e+003;5.902370e-002
1.945905e+003;5.968424e-002
1.947833e+003;6.019756e-002
1.949762e+003;6.063677e-002
1.951691e+003;6.114744e-002
1.953619e+003;6.129856e-002
1.955548e+003;6.121397e-002
1.957476e+003;6.123591e-002
1.959405e+003;6.122492e-002
1.961333e+003;6.100592e-002
1.963262e+003;6.052169e-002
1.965190e+003;5.989288e-002
1.967119e+003;5.911234e-002
1.969047e+003;5.847779e-002
1.970976e+003;5.778335e-002
1.972905e+003;5.705328e-002
1.974833e+003;5.644449e-002
1.976762e+003;5.588045e-002
1.978690e+003;5.561256e-002
1.980619e+003;5.536283e-002
1.982547e+003;5.514259e-002
1.984476e+003;5.506397e-002
1.986404e+003;5.461675e-002
1.988333e+003;5.423468e-002
1.990261e+003;5.369067e-002
1.992190e+003;5.303943e-002
1.994119e+003;5.269708e-002
1.996047e+003;5.234013e-002
1.997976e+003;5.185460e-002
1.999904e+003;5.142187e-002
2.001833e+003;5.105958e-002
2.003761e+003;5.050148e-002
2.005690e+003;5.014685e-002
2.007618e+003;5.019110e-002
2.009547e+003;5.003209e-002
2.011476e+003;4.957963e-002
2.013404e+003;4.920163e-002
2.015333e+003;4.895589e-002
2.017261e+003;4.876148e-002
2.019190e+003;4.857868e-002
2.021118e+003;4.840204e-002
2.023047e+003;4.831685e-002
2.024975e+003;4.809497e-002
2.026904e+003;4.775128e-002
2.028833e+003;4.743192e-002
2.030761e+003;4.729417e-002
2.032690e+003;4.726635e-002
2.034618e+003;4.722194e-002
2.036547e+003;4.715675e-002
2.038475e+003;4.732668e-002
2.040404e+003;4.749612e-002
2.042332e+003;4.771426e-002
2.044261e+003;4.794627e-002
2.046189e+003;4.807324e-002
2.048118e+003;4.818977e-002
2.050047e+003;4.860673e-002
2.051975e+003;4.903233e-002
2.053904e+003;4.929359e-002
2.055832e+003;4.954724e-002
2.057761e+003;5.008527e-002
2.059689e+003;5.052345e-002
2.061618e+003;5.084188e-002
2.063546e+003;5.134254e-002
2.065475e+003;5.173656e-002
2.067404e+003;5.196957e-002
2.069332e+003;5.253345e-002
2.071260e+003;5.298680e-002
2.073189e+003;5.311405e-002
2.075118e+003;5.334638e-002
2.077046e+003;5.376259e-002
2.078975e+003;5.393929e-002
2.080903e+003;5.431266e-002
2.082832e+003;5.477362e-002
2.084760e+003;5.496547e-002
2.086689e+003;5.479797e-002
2.088617e+003;5.484290e-002
2.090546e+003;5.490959e-002
2.092475e+003;5.502083e-002
2.094403e+003;5.539486e-002
2.096332e+003;5.551725e-002
2.098260e+003;5.538252e-002
2.100189e+003;5.557716e-002
2.102117e+003;5.564303e-002
2.104046e+003;5.556485e-002
2.105974e+003;5.554854e-002
2.107903e+003;5.552617e-002
2.109832e+003;5.548242e-002
2.111760e+003;5.536998e-002
2.113688e+003;5.534706e-002
2.115617e+003;5.513337e-002
2.117546e+003;5.474764e-002
2.119474e+003;5.468518e-002
2.121403e+003;5.462021e-002
2.123331e+003;5.438006e-002
2.125260e+003;5.383516e-002
2.127188e+003;5.340749e-002
2.129117e+003;5.338895e-002
2.131045e+003;5.340832e-002
2.132974e+003;5.320958e-002
2.134903e+003;5.298290e-002
2.136831e+003;5.262777e-002
2.138760e+003;5.218799e-002
2.140688e+003;5.173596e-002
2.142617e+003;5.145376e-002
2.144545e+003;5.141832e-002
2.146474e+003;5.140098e-002
2.148402e+003;5.102418e-002
2.150331e+003;5.054079e-002
2.152260e+003;5.039832e-002
2.154188e+003;5.012241e-002
2.156117e+003;4.961514e-002
2.158045e+003;4.919840e-002
2.159974e+003;4.890408e-002
2.161902e+003;4.870417e-002
2.163831e+003;4.834929e-002
2.165759e+003;4.793584e-002
2.167688e+003;4.765742e-002
2.169616e+003;4.729265e-002
2.171545e+003;4.691124e-002
2.173474e+003;4.685476e-002
2.175402e+003;4.699283e-002
2.177331e+003;4.698286e-002
2.179259e+003;4.671594e-002
2.181188e+003;4.643211e-002
2.183116e+003;4.619412e-002
2.185045e+003;4.608550e-002
2.186973e+003;4.630668e-002
2.188902e+003;4.667572e-002
2.190831e+003;4.675911e-002
2.192759e+003;4.680431e-002
2.194688e+003;4.666052e-002
2.196616e+003;4.660574e-002
2.198545e+003;4.685834e-002
2.200473e+003;4.685373e-002
2.202402e+003;4.686381e-002
2.204330e+003;4.725873e-002
2.206259e+003;4.763335e-002
2.208188e+003;4.780425e-002
2.210116e+003;4.785319e-002
2.212044e+003;4.792463e-002
2.213973e+003;4.800378e-002
2.215902e+003;4.831585e-002
2.217830e+003;4.864495e-002
2.219759e+003;4.865969e-002
2.221687e+003;4.865743e-002
2.223616e+003;4.867281e-002
2.225544e+003;4.865298e-002
2.227473e+003;4.861548e-002
2.229401e+003;4.885046e-002
2.231330e+003;4.909922e-002
2.233259e+003;4.918033e-002
2.235187e+003;4.935228e-002
2.237116e+003;4.964107e-002
2.239044e+003;4.995815e-002
2.240973e+003;5.004031e-002
2.242901e+003;5.018701e-002
2.244830e+003;5.050346e-002
2.246758e+003;5.081182e-002
2.248687e+003;5.110975e-002
2.250615e+003;5.110628e-002
2.252544e+003;5.092239e-002
2.254473e+003;5.076847e-002
2.256401e+003;5.078125e-002
2.258330e+003;5.104095e-002
2.260258e+003;5.118251e-002
2.262187e+003;5.112190e-002
2.264115e+003;5.107188e-002
2.266044e+003;5.108832e-002
2.267972e+003;5.114095e-002
2.269901e+003;5.100096e-002
2.271830e+003;5.076326e-002
2.273758e+003;5.065490e-002
2.275687e+003;5.083328e-002
2.277615e+003;5.110274e-002
2.279544e+003;5.134381e-002
2.281472e+003;5.149621e-002
2.283401e+003;5.146953e-002
2.285329e+003;5.135999e-002
2.287258e+003;5.119869e-002
2.289187e+003;5.102332e-002
2.291115e+003;5.059730e-002
2.293043e+003;5.021911e-002
2.294972e+003;4.993395e-002
2.296901e+003;4.930487e-002
2.298829e+003;4.853492e-002
2.300758e+003;4.802387e-002
2.302686e+003;4.764892e-002
2.304615e+003;4.703329e-002
2.306543e+003;4.658398e-002
2.308472e+003;4.661806e-002
2.310400e+003;4.654495e-002
2.312329e+003;4.617227e-002
2.314258e+003;4.572289e-002
2.316186e+003;4.543433e-002
2.318115e+003;4.553882e-002
2.320043e+003;4.565692e-002
2.321972e+003;4.554110e-002
2.323900e+003;4.534219e-002
2.325829e+003;4.542981e-002
2.327757e+003;4.573072e-002
2.329686e+003;4.571851e-002
2.331615e+003;4.542194e-002
2.333543e+003;4.524172e-002
2.335472e+003;4.535260e-002
2.337400e+003;4.555215e-002
2.339329e+003;4.553338e-002
2.341257e+003;4.544202e-002
2.343186e+003;4.594673e-002
2.345114e+003;4.669059e-002
2.347043e+003;4.740439e-002
2.348971e+003;4.792603e-002
2.350900e+003;4.787975e-002
2.352829e+003;4.751974e-002
2.354757e+003;4.707428e-002
2.356686e+003;4.678704e-002
2.358614e+003;4.686207e-002
2.360543e+003;4.696591e-002
2.362471e+003;4.723927e-002
2.364400e+003;4.777665e-002
2.366328e+003;4.826416e-002
2.368257e+003;4.888268e-002
2.370186e+003;4.953421e-002
2.372114e+003;4.996689e-002
2.374042e+003;5.031126e-002
2.375971e+003;5.097160e-002
2.377900e+003;5.169390e-002
2.379828e+003;5.196337e-002
2.381757e+003;5.216692e-002
2.383685e+003;5.242229e-002
2.385614e+003;5.236883e-002
2.387542e+003;5.204614e-002
2.389471e+003;5.196491e-002
2.391399e+003;5.203740e-002
2.393328e+003;5.194881e-002
2.395257e+003;5.174511e-002
2.397185e+003;5.160780e-002
2.399114e+003;5.155366e-002
2.401042e+003;5.153803e-002
2.402971e+003;5.138770e-002
2.404899e+003;5.107680e-002
2.406828e+003;5.082955e-002
2.408756e+003;5.054403e-002
2.410685e+003;5.018092e-002
2.412614e+003;5.011736e-002
2.414542e+003;4.987712e-002
2.416471e+003;4.920263e-002
2.418399e+003;4.882191e-002
2.420328e+003;4.893133e-002
2.422256e+003;4.902313e-002
2.424185e+003;4.882955e-002
2.426113e+003;4.861533e-002
2.428042e+003;4.837393e-002
2.429970e+003;4.795723e-002
2.431899e+003;4.761900e-002
2.433828e+003;4.735066e-002
2.435756e+003;4.706719e-002
2.437685e+003;4.671059e-002
2.439613e+003;4.642156e-002
2.441542e+003;4.634303e-002
2.443470e+003;4.632619e-002
2.445399e+003;4.618830e-002
2.447327e+003;4.613590e-002
2.449256e+003;4.596783e-002
2.451185e+003;4.583396e-002
2.453113e+003;4.579818e-002
2.455042e+003;4.582560e-002
2.456970e+003;4.583794e-002
2.458899e+003;4.581231e-002
2.460827e+003;4.577251e-002
2.462756e+003;4.568453e-002
2.464684e+003;4.569023e-002
2.466613e+003;4.573367e-002
2.468542e+003;4.592058e-002
2.470470e+003;4.596857e-002
2.472398e+003;4.591940e-002
2.474327e+003;4.596305e-002
2.476256e+003;4.600798e-002
2.478184e+003;4.606136e-002
2.480113e+003;4.618403e-002
2.482041e+003;4.660707e-002
2.483970e+003;4.695760e-002
2.485898e+003;4.707088e-002
2.487827e+003;4.725814e-002
2.489755e+003;4.743307e-002
2.491684e+003;4.751826e-002
2.493613e+003;4.760795e-002
2.495541e+003;4.763941e-002
2.497470e+003;4.794416e-002
2.499398e+003;4.815431e-002
2.501327e+003;4.812784e-002
2.503255e+003;4.843193e-002
2.505184e+003;4.879447e-002
2.507112e+003;4.881642e-002
2.509041e+003;4.863860e-002
2.510969e+003;4.848202e-002
2.512898e+003;4.844742e-002
2.514827e+003;4.867789e-002
2.516755e+003;4.890085e-002
2.518684e+003;4.909599e-002
2.520612e+003;4.944918e-002
2.522541e+003;4.964118e-002
2.524469e+003;4.972636e-002
2.526398e+003;4.999570e-002
2.528326e+003;5.006920e-002
2.530255e+003;4.992775e-002
2.532184e+003;4.990407e-002
2.534112e+003;4.994447e-002
2.536041e+003;5.000771e-002
2.537969e+003;5.007114e-002
2.539898e+003;4.996090e-002
2.541826e+003;4.996012e-002
2.543755e+003;5.006251e-002
2.545683e+003;5.012479e-002
2.547612e+003;4.999254e-002
2.549541e+003;4.988262e-002
2.551469e+003;4.995280e-002
2.553397e+003;5.016418e-002
2.555326e+003;5.049448e-002
2.557255e+003;5.076914e-002
2.559183e+003;5.067355e-002
2.561112e+003;5.046732e-002
2.563040e+003;5.034958e-002
2.564969e+003;5.018181e-002
2.566897e+003;4.980740e-002
2.568826e+003;4.968145e-002
2.570754e+003;4.973873e-002
2.572683e+003;4.991566e-002
2.574612e+003;5.026401e-002
2.576540e+003;5.017980e-002
2.578469e+003;5.011758e-002
2.580397e+003;5.032312e-002
2.582326e+003;5.036167e-002
2.584254e+003;5.018430e-002
2.586183e+003;4.969415e-002
2.588111e+003;4.937318e-002
2.590040e+003;4.955538e-002
2.591969e+003;4.950491e-002
2.593897e+003;4.905815e-002
2.595826e+003;4.877631e-002
2.597754e+003;4.843115e-002
2.599683e+003;4.828715e-002
2.601611e+003;4.831826e-002
2.603540e+003;4.816160e-002
2.605468e+003;4.805666e-002
2.607397e+003;4.792496e-002
2.609325e+003;4.754920e-002
2.611254e+003;4.746659e-002
2.613183e+003;4.741200e-002
2.615111e+003;4.737793e-002
2.617040e+003;4.740845e-002
2.618968e+003;4.748112e-002
2.620897e+003;4.753882e-002
2.622825e+003;4.733521e-002
2.624754e+003;4.719974e-002
2.626682e+003;4.735254e-002
2.628611e+003;4.741769e-002
2.630540e+003;4.730713e-002
2.632468e+003;4.708289e-002
2.634396e+003;4.698175e-002
2.636325e+003;4.684786e-002
2.638254e+003;4.643166e-002
2.640182e+003;4.596128e-002
2.642111e+003;4.564864e-002
2.644039e+003;4.555262e-002
2.645968e+003;4.552484e-002
2.647896e+003;4.522907e-002
2.649825e+003;4.502029e-002
2.651753e+003;4.521638e-002
2.653682e+003;4.528717e-002
2.655611e+003;4.495867e-002
2.657539e+003;4.457974e-002
2.659468e+003;4.453410e-002
2.661396e+003;4.459868e-002
2.663325e+003;4.447166e-002
2.665253e+003;4.445658e-002
2.667182e+003;4.461256e-002
2.669110e+003;4.460144e-002
2.671039e+003;4.448179e-002
2.672968e+003;4.462754e-002
2.674896e+003;4.463816e-002
2.676825e+003;4.451343e-002
2.678753e+003;4.459200e-002
2.680682e+003;4.479476e-002
2.682610e+003;4.479340e-002
2.684539e+003;4.485130e-002
2.686467e+003;4.490329e-002
2.688396e+003;4.479307e-002
2.690324e+003;4.492901e-002
2.692253e+003;4.507903e-002
2.694182e+003;4.510539e-002
2.696110e+003;4.513535e-002
2.698039e+003;4.520811e-002
2.699967e+003;4.518336e-002
2.701896e+003;4.522980e-002
2.703824e+003;4.541550e-002
2.705753e+003;4.555465e-002
2.707681e+003;4.573268e-002
2.709610e+003;4.592883e-002
2.711539e+003;4.601284e-002
2.713467e+003;4.589509e-002
2.715396e+003;4.601119e-002
2.717324e+003;4.647414e-002
2.719253e+003;4.654432e-002
2.721181e+003;4.628674e-002
2.723110e+003;4.631056e-002
2.725038e+003;4.664182e-002
2.726967e+003;4.681483e-002
2.728896e+003;4.688027e-002
2.730824e+003;4.717049e-002
2.732752e+003;4.746814e-002
2.734681e+003;4.754617e-002
2.736610e+003;4.765091e-002
2.738538e+003;4.791893e-002
2.740467e+003;4.810441e-002
2.742395e+003;4.800300e-002
2.744324e+003;4.782788e-002
2.746252e+003;4.780643e-002
2.748181e+003;4.794994e-002
2.750109e+003;4.784760e-002
2.752038e+003;4.783095e-002
2.753967e+003;4.791800e-002
2.755895e+003;4.800466e-002
2.757824e+003;4.808357e-002
2.759752e+003;4.804064e-002
2.761681e+003;4.793747e-002
2.763609e+003;4.791589e-002
2.765538e+003;4.803642e-002
2.767466e+003;4.822017e-002
2.769395e+003;4.832459e-002
2.771323e+003;4.822917e-002
2.773252e+003;4.839967e-002
2.775181e+003;4.880638e-002
2.777109e+003;4.893126e-002
2.779038e+003;4.892154e-002
2.780966e+003;4.887934e-002
2.782895e+003;4.887693e-002
2.784823e+003;4.925247e-002
2.786752e+003;4.998242e-002
2.788680e+003;5.051566e-002
2.790609e+003;5.079730e-002
2.792538e+003;5.101434e-002
2.794466e+003;5.115224e-002
2.796395e+003;5.139121e-002
2.798323e+003;5.176541e-002
2.800252e+003;5.197525e-002
2.802180e+003;5.199856e-002
2.804109e+003;5.210008e-002
2.806037e+003;5.200759e-002
2.807966e+003;5.194795e-002
2.809895e+003;5.182596e-002
2.811823e+003;5.163975e-002
2.813751e+003;5.135790e-002
2.815680e+003;5.096210e-002
2.817609e+003;5.041377e-002
2.819537e+003;5.027194e-002
2.821466e+003;5.021245e-002
2.823394e+003;4.997919e-002
2.825323e+003;5.000507e-002
2.827251e+003;5.011751e-002
2.829180e+003;5.004656e-002
2.831108e+003;4.999265e-002
2.833037e+003;4.985906e-002
2.834966e+003;4.971893e-002
2.836894e+003;4.945645e-002
2.838823e+003;4.898441e-002
2.840751e+003;4.836329e-002
2.842680e+003;4.692767e-002
2.844608e+003;4.469141e-002
2.846537e+003;4.193045e-002
2.848465e+003;3.906069e-002
2.850394e+003;3.734568e-002
2.852323e+003;3.691984e-002
2.854251e+003;3.770104e-002
2.856180e+003;3.956539e-002
2.858108e+003;4.189060e-002
2.860037e+003;4.449618e-002
2.861965e+003;4.694930e-002
2.863894e+003;4.893297e-002
2.865822e+003;5.038448e-002
2.867751e+003;5.099478e-002
2.869679e+003;5.147972e-002
2.871608e+003;5.197909e-002
2.873536e+003;5.249535e-002
2.875465e+003;5.316037e-002
2.877394e+003;5.369806e-002
2.879322e+003;5.419800e-002
2.881251e+003;5.464820e-002
2.883179e+003;5.485094e-002
2.885108e+003;5.480098e-002
2.887036e+003;5.455701e-002
2.888965e+003;5.449525e-002
2.890893e+003;5.444136e-002
2.892822e+003;5.410173e-002
2.894750e+003;5.353738e-002
2.896679e+003;5.302165e-002
2.898608e+003;5.267056e-002
2.900536e+003;5.267939e-002
2.902465e+003;5.283664e-002
2.904393e+003;5.277344e-002
2.906322e+003;5.213703e-002
2.908250e+003;5.072344e-002
2.910179e+003;4.832781e-002
2.912107e+003;4.493467e-002
2.914036e+003;4.134040e-002
2.915965e+003;3.769457e-002
2.917893e+003;3.454538e-002
2.919822e+003;3.206229e-002
2.921750e+003;3.031616e-002
2.923679e+003;2.977357e-002
2.925607e+003;3.053700e-002
2.927536e+003;3.189473e-002
2.929464e+003;3.362653e-002
2.931393e+003;3.600413e-002
2.933322e+003;3.847973e-002
2.935250e+003;4.114110e-002
2.937178e+003;4.382944e-002
2.939107e+003;4.638499e-002
2.941036e+003;4.870669e-002
2.942964e+003;5.081585e-002
2.944893e+003;5.276173e-002
2.946821e+003;5.447106e-002
2.948750e+003;5.564653e-002
2.950678e+003;5.621170e-002
2.952607e+003;5.675337e-002
2.954535e+003;5.755079e-002
2.956464e+003;5.858468e-002
2.958393e+003;6.022413e-002
2.960321e+003;6.203802e-002
2.962250e+003;6.368475e-002
2.964178e+003;6.495522e-002
2.966107e+003;6.579500e-002
2.968035e+003;6.728671e-002
2.969964e+003;6.840173e-002
2.971892e+003;6.857956e-002
2.973821e+003;6.872467e-002
2.975750e+003;6.882083e-002
2.977678e+003;6.869750e-002
2.979607e+003;6.850465e-002
2.981535e+003;6.811377e-002
2.983464e+003;6.756429e-002
2.985392e+003;6.726698e-002
2.987321e+003;6.732242e-002
2.989249e+003;6.703180e-002
2.991178e+003;6.646346e-002
2.993106e+003;6.612121e-002
2.995035e+003;6.563310e-002
2.996964e+003;6.532305e-002
2.998892e+003;6.518488e-002
3.000821e+003;6.497023e-002
3.002749e+003;6.472025e-002
3.004678e+003;6.455299e-002
3.006606e+003;6.415796e-002
3.008535e+003;6.355245e-002
3.010463e+003;6.325024e-002
3.012392e+003;6.323092e-002
3.014321e+003;6.308419e-002
3.016249e+003;6.271721e-002
3.018177e+003;6.203225e-002
3.020106e+003;6.113200e-002
3.022035e+003;6.032227e-002
3.023963e+003;5.952719e-002
3.025892e+003;5.879514e-002
3.027820e+003;5.821713e-002
3.029749e+003;5.758173e-002
3.031677e+003;5.720857e-002
3.033606e+003;5.696283e-002
3.035534e+003;5.682104e-002
3.037463e+003;5.646030e-002
3.039392e+003;5.599868e-002
3.041320e+003;5.634809e-002
3.043249e+003;5.718151e-002
3.045177e+003;5.814075e-002
3.047106e+003;5.960982e-002
3.049034e+003;6.116850e-002
3.050963e+003;6.186495e-002
3.052891e+003;6.209623e-002
3.054820e+003;6.230038e-002
3.056749e+003;6.196682e-002
3.058677e+003;6.140552e-002
3.060606e+003;6.123335e-002
3.062534e+003;6.148045e-002
3.064463e+003;6.167640e-002
3.066391e+003;6.188229e-002
3.068320e+003;6.210040e-002
3.070248e+003;6.194595e-002
3.072177e+003;6.177066e-002
3.074105e+003;6.204566e-002
3.076034e+003;6.209906e-002
3.077963e+003;6.201658e-002
3.079891e+003;6.171348e-002
3.081820e+003;6.162771e-002
3.083748e+003;6.179950e-002
3.085677e+003;6.158658e-002
3.087605e+003;6.120325e-002
3.089534e+003;6.082826e-002
3.091462e+003;6.045272e-002
3.093391e+003;5.985991e-002
3.095320e+003;5.974218e-002
3.097248e+003;5.992753e-002
3.099177e+003;6.000730e-002
3.101105e+003;6.015189e-002
3.103034e+003;6.038414e-002
3.104962e+003;6.040668e-002
3.106891e+003;6.026078e-002
3.108819e+003;5.977933e-002
3.110748e+003;5.930133e-002
3.112677e+003;5.884609e-002
3.114605e+003;5.800717e-002
3.116533e+003;5.707674e-002
3.118462e+003;5.687127e-002
3.120391e+003;5.688618e-002
3.122319e+003;5.664048e-002
3.124248e+003;5.646566e-002
3.126176e+003;5.661266e-002
3.128105e+003;5.641921e-002
3.130033e+003;5.600595e-002
3.131962e+003;5.558748e-002
3.133890e+003;5.525967e-002
3.135819e+003;5.515079e-002
3.137748e+003;5.475576e-002
3.139676e+003;5.401474e-002
3.141605e+003;5.351156e-002
3.143533e+003;5.312791e-002
3.145462e+003;5.286837e-002
3.147390e+003;5.276727e-002
3.149319e+003;5.222633e-002
3.151247e+003;5.184851e-002
3.153176e+003;5.179733e-002
3.155104e+003;5.163012e-002
3.157033e+003;5.141440e-002
3.158962e+003;5.107654e-002
3.160890e+003;5.062466e-002
3.162819e+003;5.055337e-002
3.164747e+003;5.078810e-002
3.166676e+003;5.091996e-002
3.168604e+003;5.068647e-002
3.170533e+003;5.049285e-002
3.172461e+003;5.034705e-002
3.174390e+003;5.017645e-002
3.176319e+003;5.010237e-002
3.178247e+003;5.005031e-002
3.180176e+003;4.974661e-002
3.182104e+003;4.942367e-002
3.184033e+003;4.963252e-002
3.185961e+003;4.988931e-002
3.187890e+003;4.986292e-002
3.189818e+003;4.939679e-002
3.191747e+003;4.904695e-002
3.193676e+003;4.924352e-002
3.195604e+003;4.924208e-002
3.197532e+003;4.931523e-002
3.199461e+003;4.920303e-002
3.201390e+003;4.871488e-002
3.203318e+003;4.859521e-002
3.205247e+003;4.873809e-002
3.207175e+003;4.868653e-002
3.209104e+003;4.838470e-002
3.211032e+003;4.813332e-002
3.212961e+003;4.825986e-002
3.214889e+003;4.844015e-002
3.216818e+003;4.860840e-002
3.218747e+003;4.867963e-002
3.220675e+003;4.870265e-002
3.222604e+003;4.866744e-002
3.224532e+003;4.851773e-002
3.226461e+003;4.854441e-002
3.228389e+003;4.880582e-002
3.230318e+003;4.875506e-002
3.232246e+003;4.861863e-002
3.234175e+003;4.876745e-002
3.236104e+003;4.840774e-002
3.238032e+003;4.809719e-002
3.239961e+003;4.799608e-002
3.241889e+003;4.770819e-002
3.243818e+003;4.774555e-002
3.245746e+003;4.787176e-002
3.247675e+003;4.761035e-002
3.249603e+003;4.739859e-002
3.251532e+003;4.757793e-002
3.253460e+003;4.765413e-002
3.255389e+003;4.734774e-002
3.257318e+003;4.731519e-002
3.259246e+003;4.728881e-002
3.261175e+003;4.713381e-002
3.263103e+003;4.684399e-002
3.265032e+003;4.656325e-002
3.266960e+003;4.644899e-002
3.268889e+003;4.627465e-002
3.270817e+003;4.628918e-002
3.272746e+003;4.674383e-002
3.274675e+003;4.722279e-002
3.276603e+003;4.679767e-002
3.278531e+003;4.626297e-002
3.280460e+003;4.604128e-002
3.282389e+003;4.608653e-002
3.284317e+003;4.650110e-002
3.286246e+003;4.678520e-002
3.288174e+003;4.702565e-002
3.290103e+003;4.677597e-002
3.292031e+003;4.662381e-002
3.293960e+003;4.686385e-002
3.295888e+003;4.671365e-002
3.297817e+003;4.662348e-002
3.299746e+003;4.690607e-002
3.301674e+003;4.724750e-002
3.303603e+003;4.697130e-002
3.305531e+003;4.652943e-002
3.307460e+003;4.668310e-002
3.309388e+003;4.678191e-002
3.311317e+003;4.648440e-002
3.313245e+003;4.613774e-002
3.315174e+003;4.614611e-002
3.317103e+003;4.629327e-002
3.319031e+003;4.659703e-002
3.320960e+003;4.664156e-002
3.322888e+003;4.667915e-002
3.324817e+003;4.683391e-002
3.326745e+003;4.662629e-002
3.328674e+003;4.669716e-002
3.330602e+003;4.680778e-002
3.332531e+003;4.706652e-002
3.334459e+003;4.755346e-002
3.336388e+003;4.745927e-002
3.338317e+003;4.692715e-002
3.340245e+003;4.669720e-002
3.342174e+003;4.672442e-002
3.344102e+003;4.647816e-002
3.346031e+003;4.604501e-002
3.347959e+003;4.585249e-002
3.349888e+003;4.561044e-002
3.351816e+003;4.580311e-002
3.353745e+003;4.596238e-002
3.355674e+003;4.542495e-002
3.357602e+003;4.483693e-002
3.359531e+003;4.479609e-002
3.361459e+003;4.479935e-002
3.363388e+003;4.469350e-002
3.365316e+003;4.484230e-002
3.367245e+003;4.469291e-002
3.369173e+003;4.443481e-002
3.371102e+003;4.457757e-002
3.373031e+003;4.476964e-002
3.374959e+003;4.470033e-002
3.376887e+003;4.453076e-002
3.378816e+003;4.449956e-002
3.380745e+003;4.442090e-002
3.382673e+003;4.494308e-002
3.384602e+003;4.528662e-002
3.386530e+003;4.506319e-002
3.388459e+003;4.468619e-002
3.390387e+003;4.463570e-002
3.392316e+003;4.515193e-002
3.394244e+003;4.547278e-002
3.396173e+003;4.531280e-002
3.398102e+003;4.551344e-002
3.400030e+003;4.583783e-002
3.401959e+003;4.639037e-002
3.403887e+003;4.715209e-002
3.405816e+003;4.770749e-002
3.407744e+003;4.811200e-002
3.409673e+003;4.875488e-002
3.411601e+003;4.990515e-002
3.413530e+003;5.086200e-002
3.415458e+003;5.160590e-002
3.417387e+003;5.234046e-002
3.419316e+003;5.305770e-002
3.421244e+003;5.365535e-002
3.423173e+003;5.450352e-002
3.425101e+003;5.483914e-002
3.427030e+003;5.525557e-002
3.428958e+003;5.587807e-002
3.430887e+003;5.592006e-002
3.432815e+003;5.575468e-002
3.434744e+003;5.563629e-002
3.436673e+003;5.529486e-002
3.438601e+003;5.485222e-002
3.440530e+003;5.425987e-002
3.442458e+003;5.361329e-002
3.444387e+003;5.306527e-002
3.446315e+003;5.243979e-002
3.448244e+003;5.172973e-002
3.450172e+003;5.075774e-002
3.452101e+003;5.016206e-002
3.454030e+003;4.962342e-002
3.455958e+003;4.895682e-002
3.457886e+003;4.864428e-002
3.459815e+003;4.817793e-002
3.461744e+003;4.729084e-002
3.463672e+003;4.645880e-002
3.465601e+003;4.604268e-002
3.467529e+003;4.570356e-002
3.469458e+003;4.536819e-002
3.471386e+003;4.480850e-002
3.473315e+003;4.450899e-002
3.475243e+003;4.440728e-002
3.477172e+003;4.391298e-002
3.479101e+003;4.332986e-002
3.481029e+003;4.319976e-002
3.482958e+003;4.362225e-002
3.484886e+003;4.379513e-002
3.486815e+003;4.407735e-002
3.488743e+003;4.372382e-002
3.490672e+003;4.306608e-002
3.492600e+003;4.327769e-002
3.494529e+003;4.358694e-002
3.496458e+003;4.354459e-002
3.498386e+003;4.367409e-002
3.500315e+003;4.378025e-002
3.502243e+003;4.384373e-002
3.504172e+003;4.377545e-002
3.506100e+003;4.382929e-002
3.508029e+003;4.369674e-002
3.509957e+003;4.393567e-002
3.511886e+003;4.438871e-002
3.513814e+003;4.475296e-002
3.515743e+003;4.491545e-002
3.517672e+003;4.478459e-002
3.519600e+003;4.489355e-002
3.521529e+003;4.500931e-002
3.523457e+003;4.476317e-002
3.525386e+003;4.458400e-002
3.527314e+003;4.512300e-002
3.529243e+003;4.582756e-002
3.531171e+003;4.579228e-002
3.533100e+003;4.550328e-002
3.535029e+003;4.522451e-002
3.536957e+003;4.537662e-002
3.538885e+003;4.605300e-002
3.540814e+003;4.634864e-002
3.542743e+003;4.601476e-002
3.544671e+003;4.563962e-002
3.546600e+003;4.593829e-002
3.548528e+003;4.633559e-002
3.550457e+003;4.587598e-002
3.552385e+003;4.566281e-002
3.554314e+003;4.603487e-002
3.556242e+003;4.601465e-002
3.558171e+003;4.565203e-002
3.560100e+003;4.550913e-002
3.562028e+003;4.573224e-002
3.563957e+003;4.526544e-002
3.565885e+003;4.429462e-002
3.567814e+003;4.410687e-002
3.569742e+003;4.427763e-002
3.571671e+003;4.443125e-002
3.573599e+003;4.453230e-002
3.575528e+003;4.436922e-002
3.577457e+003;4.385487e-002
3.579385e+003;4.335977e-002
3.581314e+003;4.309938e-002
3.583242e+003;4.255401e-002
3.585171e+003;4.156367e-002
3.587099e+003;4.088539e-002
3.589028e+003;4.113859e-002
3.590956e+003;4.168857e-002
3.592885e+003;4.153494e-002
3.594813e+003;4.121039e-002
3.596742e+003;4.152116e-002
3.598671e+003;4.152663e-002
3.600599e+003;4.137306e-002
3.602528e+003;4.185999e-002
3.604456e+003;4.185619e-002
3.606385e+003;4.089904e-002
3.608313e+003;3.996191e-002
3.610242e+003;3.999569e-002
3.612170e+003;4.019334e-002
3.614099e+003;4.079930e-002
3.616028e+003;4.082322e-002
3.617956e+003;4.010760e-002
3.619885e+003;4.047465e-002
3.621813e+003;4.188407e-002
3.623742e+003;4.228815e-002
3.625670e+003;4.151120e-002
3.627599e+003;3.938515e-002
3.629527e+003;3.958089e-002
3.631456e+003;4.173748e-002
3.633385e+003;4.230805e-002
3.635313e+003;4.246656e-002
3.637241e+003;4.253223e-002
3.639170e+003;4.233074e-002
3.641099e+003;4.202450e-002
3.643027e+003;4.184711e-002
3.644956e+003;4.102408e-002
3.646884e+003;3.919444e-002
3.648813e+003;3.781351e-002
3.650741e+003;3.853773e-002
3.652670e+003;4.005157e-002
3.654598e+003;3.931543e-002
3.656527e+003;3.917250e-002
3.658456e+003;4.024586e-002
3.660384e+003;4.004358e-002
3.662313e+003;3.966151e-002
3.664241e+003;3.931946e-002
3.666170e+003;3.884761e-002
3.668098e+003;3.748241e-002
3.670027e+003;3.612178e-002
3.671955e+003;3.643365e-002
3.673884e+003;3.516733e-002
3.675813e+003;3.472951e-002
3.677741e+003;3.699708e-002
3.679669e+003;3.820236e-002
3.681598e+003;3.877337e-002
3.683527e+003;3.919470e-002
3.685455e+003;3.854903e-002
3.687384e+003;3.643387e-002
3.689312e+003;3.612067e-002
3.691241e+003;3.725134e-002
3.693169e+003;3.781518e-002
3.695098e+003;3.779201e-002
3.697026e+003;3.758270e-002
3.698955e+003;3.699423e-002
3.700884e+003;3.606043e-002
3.702812e+003;3.599653e-002
3.704741e+003;3.645783e-002
3.706669e+003;3.625954e-002
3.708598e+003;3.480805e-002
3.710526e+003;3.333160e-002
3.712455e+003;3.362700e-002
3.714383e+003;3.511434e-002
3.716312e+003;3.576545e-002
3.718240e+003;3.555233e-002
3.720169e+003;3.513316e-002
3.722098e+003;3.542304e-002
3.724026e+003;3.584522e-002
3.725955e+003;3.594304e-002
3.727883e+003;3.615164e-002
3.729812e+003;3.581198e-002
3.731740e+003;3.485580e-002
3.733669e+003;3.418300e-002
3.735597e+003;3.325758e-002
3.737526e+003;3.412733e-002
3.739455e+003;3.513744e-002
3.741383e+003;3.410450e-002
3.743312e+003;3.082699e-002
3.745240e+003;3.179026e-002
3.747169e+003;3.370860e-002
3.749097e+003;3.207759e-002
3.751026e+003;3.182399e-002
3.752954e+003;3.423702e-002
3.754883e+003;3.666552e-002
3.756812e+003;3.661422e-002
3.758740e+003;3.641895e-002
3.760668e+003;3.675508e-002
3.762597e+003;3.747172e-002
3.764526e+003;3.718701e-002
3.766454e+003;3.679013e-002
3.768383e+003;3.584756e-002
3.770311e+003;3.567868e-002
3.772240e+003;3.634376e-002
3.774168e+003;3.645949e-002
3.776097e+003;3.627611e-002
3.778025e+003;3.615596e-002
3.779954e+003;3.617926e-002
3.781883e+003;3.628832e-002
3.783811e+003;3.624318e-002
3.785740e+003;3.597609e-002
3.787668e+003;3.586163e-002
3.789597e+003;3.640991e-002
3.791525e+003;3.668235e-002
3.793454e+003;3.654688e-002
3.795382e+003;3.592505e-002
3.797311e+003;3.600467e-002
3.799240e+003;3.500170e-002
3.801168e+003;3.374613e-002
3.803097e+003;3.519801e-002
3.805025e+003;3.518414e-002
3.806954e+003;3.470489e-002
3.808882e+003;3.625521e-002
3.810811e+003;3.728253e-002
3.812739e+003;3.715600e-002
3.814668e+003;3.501100e-002
3.816596e+003;3.456300e-002
3.818525e+003;3.503136e-002
3.820454e+003;3.416826e-002
3.822382e+003;3.529353e-002
3.824311e+003;3.651884e-002
3.826239e+003;3.647524e-002
3.828168e+003;3.608412e-002
3.830096e+003;3.524124e-002
3.832025e+003;3.474914e-002
3.833953e+003;3.491371e-002
3.835882e+003;3.384745e-002
3.837811e+003;3.324159e-002
3.839739e+003;3.457746e-002
3.841667e+003;3.553076e-002
3.843596e+003;3.603840e-002
3.845525e+003;3.659569e-002
3.847453e+003;3.649127e-002
3.849382e+003;3.495081e-002
3.851310e+003;3.148260e-002
3.853239e+003;2.925817e-002
3.855167e+003;3.239317e-002
3.857096e+003;3.579488e-002
3.859024e+003;3.656263e-002
3.860953e+003;3.601453e-002
3.862882e+003;3.523740e-002
3.864810e+003;3.514362e-002
3.866739e+003;3.555251e-002
3.868667e+003;3.418475e-002
3.870596e+003;3.432264e-002
3.872524e+003;3.542779e-002
3.874453e+003;3.582547e-002
3.876381e+003;3.671635e-002
3.878310e+003;3.683897e-002
3.880239e+003;3.653311e-002
3.882167e+003;3.655604e-002
3.884096e+003;3.541826e-002
3.886024e+003;3.532685e-002
3.887953e+003;3.686486e-002
3.889881e+003;3.630446e-002
3.891810e+003;3.586926e-002
3.893738e+003;3.677286e-002
3.895667e+003;3.698809e-002
3.897595e+003;3.610644e-002
3.899524e+003;3.558085e-002
3.901453e+003;3.594635e-002
3.903381e+003;3.643297e-002
3.905310e+003;3.676363e-002
3.907238e+003;3.738288e-002
3.909167e+003;3.802576e-002
3.911095e+003;3.838243e-002
3.913024e+003;3.827602e-002
3.914952e+003;3.795459e-002
3.916881e+003;3.781886e-002
3.918810e+003;3.774610e-002
3.920738e+003;3.774476e-002
3.922667e+003;3.813419e-002
3.924595e+003;3.852850e-002
3.926524e+003;3.866687e-002
3.928452e+003;3.875899e-002
3.930381e+003;3.862276e-002
3.932309e+003;3.828015e-002
3.934238e+003;3.841055e-002
3.936167e+003;3.853183e-002
3.938095e+003;3.834580e-002
3.940023e+003;3.811795e-002
3.941952e+003;3.791807e-002
3.943881e+003;3.819635e-002
3.945809e+003;3.837023e-002
3.947738e+003;3.823228e-002
3.949666e+003;3.851181e-002
3.951595e+003;3.883156e-002
3.953523e+003;3.889135e-002
3.955452e+003;3.904930e-002
3.957380e+003;3.909966e-002
3.959309e+003;3.944230e-002
3.961238e+003;3.972065e-002
3.963166e+003;3.970725e-002
3.965095e+003;3.964862e-002
3.967023e+003;3.959624e-002
3.968952e+003;3.944342e-002
3.970880e+003;3.921159e-002
3.972809e+003;3.908541e-002
3.974737e+003;3.908874e-002
3.976666e+003;3.945246e-002
3.978594e+003;3.946621e-002
3.980523e+003;3.918944e-002
3.982452e+003;3.918835e-002
3.984380e+003;3.922487e-002
3.986309e+003;3.914516e-002
3.988237e+003;3.905826e-002
3.990166e+003;3.921293e-002
3.992094e+003;3.925729e-002
3.994023e+003;3.909556e-002
3.995951e+003;3.912674e-002
3.997880e+003;3.936219e-002
3.999809e+003;3.935000e-002
4.001737e+003;0.000000e+000
