3.992094e+002;0.000000e+000
4.011380e+002;0.000000e+000
4.030665e+002;0.000000e+000
4.049951e+002;0.000000e+000
4.069236e+002;0.000000e+000
4.088522e+002;0.000000e+000
4.107807e+002;0.000000e+000
4.127093e+002;0.000000e+000
4.146378e+002;0.000000e+000
4.165664e+002;0.000000e+000
4.184949e+002;0.000000e+000
4.204235e+002;0.000000e+000
4.223520e+002;0.000000e+000
4.242806e+002;0.000000e+000
4.262091e+002;0.000000e+000
4.281377e+002;0.000000e+000
4.300662e+002;0.000000e+000
4.319948e+002;0.000000e+000
4.339233e+002;0.000000e+000
4.358519e+002;0.000000e+000
4.377804e+002;0.000000e+000
4.397090e+002;0.000000e+000
4.416375e+002;0.000000e+000
4.435660e+002;0.000000e+000
4.454946e+002;0.000000e+000
4.474232e+002;0.000000e+000
4.493517e+002;0.000000e+000
4.512802e+002;0.000000e+000
4.532088e+002;0.000000e+000
4.551373e+002;0.000000e+000
4.570659e+002;0.000000e+000
4.589944e+002;0.000000e+000
4.609230e+002;0.000000e+000
4.628515e+002;0.000000e+000
4.647801e+002;0.000000e+000
4.667086e+002;0.000000e+000
4.686372e+002;0.000000e+000
4.705657e+002;0.000000e+000
4.724943e+002;0.000000e+000
4.744228e+002;0.000000e+000
4.763513e+002;0.000000e+000
4.782799e+002;0.000000e+000
4.802085e+002;0.000000e+000
4.821370e+002;0.000000e+000
4.840656e+002;0.000000e+000
4.859941e+002;0.000000e+000
4.879226e+002;0.000000e+000
4.898512e+002;0.000000e+000
4.917798e+002;0.000000e+000
4.937083e+002;0.000000e+000
4.956368e+002;0.000000e+000
4.975654e+002;0.000000e+000
4.994939e+002;0.000000e+000
5.014225e+002;0.000000e+000
5.033510e+002;0.000000e+000
5.052796e+002;0.000000e+000
5.072081e+002;0.000000e+000
5.091367e+002;0.000000e+000
5.110652e+002;0.000000e+000
5.129938e+002;0.000000e+000
5.149223e+002;0.000000e+000
5.168509e+002;0.000000e+000
5.187794e+002;0.000000e+000
5.207079e+002;0.000000e+000
5.226365e+002;0.000000e+000
5.245651e+002;0.000000e+000
5.264936e+002;0.000000e+000
5.284222e+002;0.000000e+000
5.303507e+002;0.000000e+000
5.322792e+002;0.000000e+000
5.342078e+002;0.000000e+000
5.361364e+002;0.000000e+000
5.380649e+002;0.000000e+000
5.399935e+002;0.000000e+000
5.419220e+002;0.000000e+000
5.438505e+002;0.000000e+000
5.457791e+002;0.000000e+000
5.477076e+002;0.000000e+000
5.496362e+002;0.000000e+000
5.515648e+002;0.000000e+000
5.534933e+002;0.000000e+000
5.554218e+002;0.000000e+000
5.573504e+002;0.000000e+000
5.592789e+002;0.000000e+000
5.612075e+002;0.000000e+000
5.631360e+002;0.000000e+000
5.650646e+002;0.000000e+000
5.669931e+002;0.000000e+000
5.689217e+002;0.000000e+000
5.708502e+002;0.000000e+000
5.727787e+002;0.000000e+000
5.747073e+002;0.000000e+000
5.766359e+002;0.000000e+000
5.785644e+002;0.000000e+000
5.804930e+002;0.000000e+000
5.824215e+002;0.000000e+000
5.843500e+002;0.000000e+000
5.862786e+002;0.000000e+000
5.882072e+002;0.000000e+000
5.901357e+002;0.000000e+000
5.920643e+002;0.000000e+000
5.939928e+002;0.000000e+000
5.959213e+002;0.000000e+000
5.978499e+002;0.000000e+000
5.997784e+002;9.068554e-002
6.017070e+002;9.383367e-002
6.036355e+002;9.272819e-002
6.055641e+002;9.130191e-002
6.074926e+002;9.505252e-002
6.094211e+002;9.900036e-002
6.113497e+002;1.010668e-001
6.132783e+002;9.945902e-002
6.152068e+002;9.546083e-002
6.171354e+002;9.393181e-002
6.190639e+002;9.519441e-002
6.209924e+002;9.689407e-002
6.229210e+002;1.008922e-001
6.248495e+002;1.033352e-001
6.267781e+002;1.034099e-001
6.287067e+002;1.071493e-001
6.306352e+002;1.147369e-001
6.325637e+002;1.141604e-001
6.344923e+002;1.084069e-001
6.364208e+002;1.032340e-001
6.383494e+002;1.045751e-001
6.402780e+002;1.065323e-001
6.422065e+002;1.060069e-001
6.441350e+002;1.069264e-001
6.460636e+002;1.067316e-001
6.479921e+002;1.073282e-001
6.499207e+002;1.111511e-001
6.518492e+002;1.126826e-001
6.537778e+002;1.107148e-001
6.557063e+002;1.109959e-001
6.576349e+002;1.142292e-001
6.595634e+002;1.152679e-001
6.614919e+002;1.153202e-001
6.634205e+002;1.158057e-001
6.653491e+002;1.174824e-001
6.672776e+002;1.171432e-001
6.692062e+002;1.179646e-001
6.711347e+002;1.208921e-001
6.730632e+002;1.241838e-001
6.749918e+002;1.292915e-001
6.769203e+002;1.338539e-001
6.788489e+002;1.376679e-001
6.807775e+002;1.417572e-001
6.827060e+002;1.421245e-001
6.846345e+002;1.407192e-001
6.865631e+002;1.408658e-001
6.884916e+002;1.433017e-001
6.904202e+002;1.469764e-001
6.923488e+002;1.523291e-001
6.942773e+002;1.592956e-001
6.962058e+002;1.685967e-001
6.981344e+002;1.817729e-001
7.000629e+002;1.986480e-001
7.019915e+002;2.146857e-001
7.039200e+002;2.286018e-001
7.058486e+002;2.419031e-001
7.077771e+002;2.564575e-001
7.097057e+002;2.754045e-001
7.116342e+002;2.997044e-001
7.135627e+002;3.289959e-001
7.154913e+002;3.689311e-001
7.174199e+002;4.199944e-001
7.193484e+002;4.757672e-001
7.212770e+002;5.267713e-001
7.232055e+002;5.576604e-001
7.251340e+002;5.474193e-001
7.270626e+002;4.959631e-001
7.289911e+002;4.283632e-001
7.309197e+002;3.638164e-001
7.328483e+002;3.067172e-001
7.347768e+002;2.560566e-001
7.367053e+002;2.105782e-001
7.386339e+002;1.710681e-001
7.405624e+002;1.405425e-001
7.424910e+002;1.200398e-001
7.444196e+002;1.065060e-001
7.463481e+002;9.747797e-002
7.482766e+002;9.285656e-002
7.502052e+002;9.064716e-002
7.521337e+002;8.905300e-002
7.540623e+002;8.873926e-002
7.559908e+002;8.868647e-002
7.579194e+002;8.792167e-002
7.598479e+002;8.763076e-002
7.617765e+002;8.838717e-002
7.637050e+002;9.080306e-002
7.656335e+002;9.254511e-002
7.675621e+002;9.358276e-002
7.694907e+002;9.570722e-002
7.714192e+002;9.848088e-002
7.733478e+002;1.014614e-001
7.752763e+002;1.036233e-001
7.772048e+002;1.050946e-001
7.791334e+002;1.072914e-001
7.810620e+002;1.105582e-001
7.829905e+002;1.136385e-001
7.849191e+002;1.174632e-001
7.868476e+002;1.225073e-001
7.887761e+002;1.288770e-001
7.907047e+002;1.344223e-001
7.926332e+002;1.353052e-001
7.945618e+002;1.295277e-001
7.964903e+002;1.201032e-001
7.984189e+002;1.131088e-001
8.003474e+002;1.106418e-001
8.022759e+002;1.106259e-001
8.042045e+002;1.118974e-001
8.061331e+002;1.131634e-001
8.080616e+002;1.142104e-001
8.099902e+002;1.151091e-001
8.119187e+002;1.154247e-001
8.138472e+002;1.157420e-001
8.157758e+002;1.165901e-001
8.177043e+002;1.178073e-001
8.196329e+002;1.200642e-001
8.215615e+002;1.216739e-001
8.234900e+002;1.231957e-001
8.254185e+002;1.253574e-001
8.273471e+002;1.276819e-001
8.292756e+002;1.303859e-001
8.312042e+002;1.333195e-001
8.331328e+002;1.365532e-001
8.350613e+002;1.404621e-001
8.369898e+002;1.445493e-001
8.389184e+002;1.493360e-001
8.408469e+002;1.553635e-001
8.427755e+002;1.628122e-001
8.447040e+002;1.697875e-001
8.466326e+002;1.745553e-001
8.485611e+002;1.748137e-001
8.504897e+002;1.703598e-001
8.524182e+002;1.653495e-001
8.543467e+002;1.634343e-001
8.562753e+002;1.624645e-001
8.582039e+002;1.605533e-001
8.601324e+002;1.598596e-001
8.620610e+002;1.615293e-001
8.639895e+002;1.662967e-001
8.659180e+002;1.761495e-001
8.678466e+002;1.945845e-001
8.697751e+002;2.232300e-001
8.717037e+002;2.472916e-001
8.736323e+002;2.435749e-001
8.755608e+002;2.208929e-001
8.774893e+002;1.984729e-001
8.794179e+002;1.791604e-001
8.813464e+002;1.625195e-001
8.832750e+002;1.485769e-001
8.852036e+002;1.377194e-001
8.871321e+002;1.301763e-001
8.890606e+002;1.250916e-001
8.909892e+002;1.220360e-001
8.929177e+002;1.205848e-001
8.948463e+002;1.201484e-001
8.967748e+002;1.201097e-001
8.987034e+002;1.202192e-001
9.006319e+002;1.201598e-001
9.025605e+002;1.190391e-001
9.044890e+002;1.172565e-001
9.064175e+002;1.149870e-001
9.083461e+002;1.124374e-001
9.102747e+002;1.096903e-001
9.122032e+002;1.074334e-001
9.141318e+002;1.062312e-001
9.160603e+002;1.054113e-001
9.179888e+002;1.045734e-001
9.199174e+002;1.044209e-001
9.218459e+002;1.046903e-001
9.237745e+002;1.053532e-001
9.257031e+002;1.059796e-001
9.276316e+002;1.064590e-001
9.295601e+002;1.068734e-001
9.314887e+002;1.074312e-001
9.334172e+002;1.081374e-001
9.353458e+002;1.092028e-001
9.372744e+002;1.101465e-001
9.392029e+002;1.106880e-001
9.411314e+002;1.112334e-001
9.430600e+002;1.126974e-001
9.449885e+002;1.144999e-001
9.469171e+002;1.160160e-001
9.488456e+002;1.181408e-001
9.507742e+002;1.205564e-001
9.527027e+002;1.232538e-001
9.546313e+002;1.262578e-001
9.565598e+002;1.294353e-001
9.584883e+002;1.331466e-001
9.604169e+002;1.370448e-001
9.623455e+002;1.411914e-001
9.642740e+002;1.453113e-001
9.662026e+002;1.489556e-001
9.681311e+002;1.518558e-001
9.700596e+002;1.537667e-001
9.719882e+002;1.536155e-001
9.739167e+002;1.510997e-001
9.758453e+002;1.470519e-001
9.777739e+002;1.426264e-001
9.797024e+002;1.387158e-001
9.816309e+002;1.356784e-001
9.835595e+002;1.337293e-001
9.854880e+002;1.328316e-001
9.874166e+002;1.321298e-001
9.893452e+002;1.315049e-001
9.912737e+002;1.309065e-001
9.932022e+002;1.305996e-001
9.951307e+002;1.311238e-001
9.970593e+002;1.324492e-001
9.989879e+002;1.345745e-001
1.000916e+003;1.371472e-001
1.002845e+003;1.406091e-001
1.004773e+003;1.453387e-001
1.006702e+003;1.517808e-001
1.008631e+003;1.616099e-001
1.010559e+003;1.775583e-001
1.012488e+003;2.028512e-001
1.014416e+003;2.388197e-001
1.016345e+003;2.749306e-001
1.018273e+003;2.895160e-001
1.020202e+003;2.754574e-001
1.022130e+003;2.462001e-001
1.024059e+003;2.149530e-001
1.025988e+003;1.862387e-001
1.027916e+003;1.634733e-001
1.029845e+003;1.493447e-001
1.031773e+003;1.440272e-001
1.033702e+003;1.443319e-001
1.035630e+003;1.464341e-001
1.037559e+003;1.488433e-001
1.039487e+003;1.518307e-001
1.041416e+003;1.548490e-001
1.043344e+003;1.562722e-001
1.045273e+003;1.570698e-001
1.047202e+003;1.579918e-001
1.049130e+003;1.590132e-001
1.051059e+003;1.605287e-001
1.052987e+003;1.620040e-001
1.054916e+003;1.638463e-001
1.056844e+003;1.666372e-001
1.058773e+003;1.710411e-001
1.060701e+003;1.771143e-001
1.062630e+003;1.840071e-001
1.064558e+003;1.925357e-001
1.066487e+003;2.021601e-001
1.068416e+003;2.127201e-001
1.070344e+003;2.251850e-001
1.072273e+003;2.402977e-001
1.074201e+003;2.582477e-001
1.076130e+003;2.796621e-001
1.078058e+003;3.047349e-001
1.079987e+003;3.315871e-001
1.081915e+003;3.597854e-001
1.083844e+003;3.871872e-001
1.085773e+003;4.106427e-001
1.087701e+003;4.307609e-001
1.089630e+003;4.479277e-001
1.091558e+003;4.635846e-001
1.093487e+003;4.778209e-001
1.095415e+003;4.889617e-001
1.097344e+003;4.947909e-001
1.099272e+003;4.937093e-001
1.101201e+003;4.845152e-001
1.103129e+003;4.664043e-001
1.105058e+003;4.417176e-001
1.106987e+003;4.156452e-001
1.108915e+003;3.929296e-001
1.110844e+003;3.769715e-001
1.112772e+003;3.696434e-001
1.114701e+003;3.682108e-001
1.116629e+003;3.666781e-001
1.118558e+003;3.637696e-001
1.120486e+003;3.576353e-001
1.122415e+003;3.466433e-001
1.124344e+003;3.320705e-001
1.126272e+003;3.158586e-001
1.128201e+003;2.982021e-001
1.130129e+003;2.789619e-001
1.132058e+003;2.585716e-001
1.133986e+003;2.374149e-001
1.135915e+003;2.177144e-001
1.137843e+003;2.008290e-001
1.139772e+003;1.859729e-001
1.141700e+003;1.729484e-001
1.143629e+003;1.621445e-001
1.145557e+003;1.541613e-001
1.147486e+003;1.486870e-001
1.149415e+003;1.447919e-001
1.151343e+003;1.412263e-001
1.153272e+003;1.377540e-001
1.155200e+003;1.346513e-001
1.157129e+003;1.317538e-001
1.159057e+003;1.299748e-001
1.160986e+003;1.294080e-001
1.162914e+003;1.300171e-001
1.164843e+003;1.317275e-001
1.166771e+003;1.346970e-001
1.168700e+003;1.381687e-001
1.170629e+003;1.412296e-001
1.172557e+003;1.433362e-001
1.174486e+003;1.438924e-001
1.176414e+003;1.427634e-001
1.178343e+003;1.398904e-001
1.180271e+003;1.360521e-001
1.182200e+003;1.328271e-001
1.184128e+003;1.303261e-001
1.186057e+003;1.289005e-001
1.187986e+003;1.293364e-001
1.189914e+003;1.309408e-001
1.191843e+003;1.334113e-001
1.193771e+003;1.368269e-001
1.195700e+003;1.410669e-001
1.197628e+003;1.458465e-001
1.199557e+003;1.509176e-001
1.201485e+003;1.564145e-001
1.203414e+003;1.622180e-001
1.205343e+003;1.685071e-001
1.207271e+003;1.754135e-001
1.209200e+003;1.823934e-001
1.211128e+003;1.899918e-001
1.213057e+003;1.988410e-001
1.214985e+003;2.088466e-001
1.216914e+003;2.201752e-001
1.218842e+003;2.320748e-001
1.220771e+003;2.445167e-001
1.222699e+003;2.572317e-001
1.224628e+003;2.705396e-001
1.226557e+003;2.863535e-001
1.228485e+003;3.069214e-001
1.230414e+003;3.332618e-001
1.232342e+003;3.656053e-001
1.234271e+003;4.048773e-001
1.236199e+003;4.487213e-001
1.238128e+003;4.932359e-001
1.240056e+003;5.342999e-001
1.241985e+003;5.663318e-001
1.243913e+003;5.848938e-001
1.245842e+003;5.902246e-001
1.247771e+003;5.863593e-001
1.249699e+003;5.745811e-001
1.251628e+003;5.581741e-001
1.253556e+003;5.409089e-001
1.255485e+003;5.242806e-001
1.257413e+003;5.093082e-001
1.259342e+003;4.952897e-001
1.261270e+003;4.797245e-001
1.263199e+003;4.613298e-001
1.265127e+003;4.397396e-001
1.267056e+003;4.156770e-001
1.268985e+003;3.905313e-001
1.270913e+003;3.661117e-001
1.272842e+003;3.441095e-001
1.274770e+003;3.249880e-001
1.276699e+003;3.083831e-001
1.278627e+003;2.937962e-001
1.280556e+003;2.802802e-001
1.282484e+003;2.675026e-001
1.284413e+003;2.552197e-001
1.286342e+003;2.431931e-001
1.288270e+003;2.313605e-001
1.290199e+003;2.197262e-001
1.292127e+003;2.077974e-001
1.294056e+003;1.958904e-001
1.295984e+003;1.843344e-001
1.297913e+003;1.730398e-001
1.299841e+003;1.623133e-001
1.301770e+003;1.532334e-001
1.303698e+003;1.460657e-001
1.305627e+003;1.403069e-001
1.307556e+003;1.350826e-001
1.309484e+003;1.300308e-001
1.311413e+003;1.255313e-001
1.313341e+003;1.215040e-001
1.315270e+003;1.179954e-001
1.317198e+003;1.151323e-001
1.319127e+003;1.130105e-001
1.321055e+003;1.114814e-001
1.322984e+003;1.106452e-001
1.324912e+003;1.112646e-001
1.326841e+003;1.142957e-001
1.328770e+003;1.215507e-001
1.330698e+003;1.344734e-001
1.332627e+003;1.533985e-001
1.334555e+003;1.760025e-001
1.336484e+003;1.960660e-001
1.338412e+003;2.064786e-001
1.340341e+003;2.032613e-001
1.342269e+003;1.881853e-001
1.344198e+003;1.668362e-001
1.346126e+003;1.449390e-001
1.348055e+003;1.263875e-001
1.349984e+003;1.128173e-001
1.351912e+003;1.037735e-001
1.353841e+003;9.799107e-002
1.355769e+003;9.426282e-002
1.357698e+003;9.201973e-002
1.359626e+003;9.092155e-002
1.361555e+003;9.105437e-002
1.363483e+003;9.296840e-002
1.365412e+003;9.599036e-002
1.367341e+003;9.834751e-002
1.369269e+003;9.984056e-002
1.371198e+003;9.997702e-002
1.373126e+003;9.862352e-002
1.375055e+003;9.756391e-002
1.376983e+003;9.733064e-002
1.378912e+003;9.728791e-002
1.380840e+003;9.800232e-002
1.382769e+003;9.905693e-002
1.384698e+003;9.983364e-002
1.386626e+003;1.002008e-001
1.388555e+003;1.020106e-001
1.390483e+003;1.043788e-001
1.392412e+003;1.060476e-001
1.394340e+003;1.082045e-001
1.396269e+003;1.129412e-001
1.398197e+003;1.192576e-001
1.400126e+003;1.280630e-001
1.402054e+003;1.396493e-001
1.403983e+003;1.533316e-001
1.405911e+003;1.687167e-001
1.407840e+003;1.803438e-001
1.409769e+003;1.809967e-001
1.411697e+003;1.682922e-001
1.413626e+003;1.466949e-001
1.415554e+003;1.236406e-001
1.417483e+003;1.036166e-001
1.419411e+003;9.016191e-002
1.421340e+003;8.466485e-002
1.423268e+003;8.164199e-002
1.425197e+003;8.018691e-002
1.427125e+003;8.035892e-002
1.429054e+003;8.093939e-002
1.430983e+003;8.266357e-002
1.432911e+003;8.486023e-002
1.434840e+003;8.530785e-002
1.436768e+003;8.593173e-002
1.438697e+003;8.953608e-002
1.440625e+003;9.238351e-002
1.442554e+003;9.394588e-002
1.444482e+003;9.519532e-002
1.446411e+003;9.658786e-002
1.448340e+003;9.834061e-002
1.450268e+003;1.002821e-001
1.452197e+003;1.010116e-001
1.454125e+003;9.942436e-002
1.456054e+003;9.530614e-002
1.457982e+003;9.556458e-002
1.459911e+003;9.890237e-002
1.461839e+003;9.953573e-002
1.463768e+003;9.811748e-002
1.465697e+003;9.854344e-002
1.467625e+003;1.021417e-001
1.469554e+003;1.064270e-001
1.471482e+003;1.075612e-001
1.473411e+003;1.063601e-001
1.475339e+003;1.048296e-001
1.477268e+003;1.025401e-001
1.479196e+003;9.991316e-002
1.481125e+003;9.640162e-002
1.483053e+003;9.300320e-002
1.484982e+003;8.904579e-002
1.486911e+003;8.463614e-002
1.488839e+003;8.115111e-002
1.490768e+003;7.984021e-002
1.492696e+003;8.037893e-002
1.494625e+003;7.972833e-002
1.496553e+003;8.038934e-002
1.498482e+003;8.566113e-002
1.500410e+003;9.408139e-002
1.502339e+003;1.042227e-001
1.504267e+003;1.089370e-001
1.506196e+003;1.051447e-001
1.508125e+003;9.962220e-002
1.510053e+003;9.387525e-002
1.511982e+003;8.850407e-002
1.513910e+003;8.599503e-002
1.515839e+003;8.455405e-002
1.517767e+003;8.430772e-002
1.519696e+003;8.308996e-002
1.521624e+003;8.247267e-002
1.523553e+003;8.508705e-002
1.525481e+003;8.622248e-002
1.527410e+003;8.726341e-002
1.529339e+003;8.835220e-002
1.531267e+003;8.764856e-002
1.533196e+003;8.543647e-002
1.535124e+003;8.484073e-002
1.537053e+003;8.161492e-002
1.538981e+003;7.499706e-002
1.540910e+003;7.361142e-002
1.542838e+003;7.608826e-002
1.544767e+003;7.757897e-002
1.546695e+003;7.883049e-002
1.548624e+003;7.912247e-002
1.550553e+003;7.890630e-002
1.552481e+003;7.777680e-002
1.554410e+003;7.619929e-002
1.556338e+003;7.371349e-002
1.558267e+003;6.899583e-002
1.560195e+003;7.133723e-002
1.562124e+003;7.795170e-002
1.564052e+003;8.009988e-002
1.565981e+003;8.057219e-002
1.567910e+003;8.094031e-002
1.569838e+003;8.238065e-002
1.571767e+003;8.604479e-002
1.573695e+003;8.748209e-002
1.575624e+003;8.728970e-002
1.577552e+003;9.151048e-002
1.579481e+003;9.496749e-002
1.581409e+003;9.383544e-002
1.583338e+003;9.127857e-002
1.585266e+003;8.871572e-002
1.587195e+003;8.667397e-002
1.589124e+003;8.533435e-002
1.591052e+003;8.506782e-002
1.592981e+003;8.530144e-002
1.594909e+003;8.620833e-002
1.596838e+003;8.795462e-002
1.598766e+003;8.996833e-002
1.600695e+003;9.162356e-002
1.602623e+003;9.283786e-002
1.604552e+003;9.369510e-002
1.606480e+003;9.425557e-002
1.608409e+003;9.459824e-002
1.610338e+003;9.540779e-002
1.612266e+003;9.644456e-002
1.614195e+003;9.510960e-002
1.616123e+003;9.136607e-002
1.618052e+003;9.131446e-002
1.619980e+003;9.201879e-002
1.621909e+003;8.996801e-002
1.623837e+003;8.882995e-002
1.625766e+003;8.921926e-002
1.627694e+003;8.917093e-002
1.629623e+003;8.961129e-002
1.631552e+003;9.001867e-002
1.633480e+003;8.794744e-002
1.635409e+003;8.591890e-002
1.637337e+003;8.882568e-002
1.639266e+003;9.213421e-002
1.641194e+003;9.366451e-002
1.643123e+003;9.376866e-002
1.645051e+003;9.195880e-002
1.646980e+003;9.250128e-002
1.648909e+003;9.568285e-002
1.650837e+003;9.374312e-002
1.652766e+003;9.004696e-002
1.654694e+003;9.634916e-002
1.656623e+003;1.037205e-001
1.658551e+003;1.073058e-001
1.660480e+003;1.095240e-001
1.662408e+003;1.121700e-001
1.664337e+003;1.169905e-001
1.666266e+003;1.211856e-001
1.668194e+003;1.235809e-001
1.670123e+003;1.278653e-001
1.672051e+003;1.332975e-001
1.673980e+003;1.366566e-001
1.675908e+003;1.414879e-001
1.677837e+003;1.487319e-001
1.679765e+003;1.542489e-001
1.681694e+003;1.573072e-001
1.683622e+003;1.579056e-001
1.685551e+003;1.643215e-001
1.687479e+003;1.739009e-001
1.689408e+003;1.819417e-001
1.691337e+003;1.915465e-001
1.693265e+003;2.011074e-001
1.695194e+003;2.112958e-001
1.697122e+003;2.292629e-001
1.699051e+003;2.499476e-001
1.700979e+003;2.782671e-001
1.702908e+003;3.167061e-001
1.704836e+003;3.601695e-001
1.706765e+003;4.121696e-001
1.708693e+003;4.693804e-001
1.710622e+003;5.228969e-001
1.712551e+003;5.603498e-001
1.714479e+003;5.713449e-001
1.716408e+003;5.550751e-001
1.718336e+003;5.235987e-001
1.720265e+003;4.871846e-001
1.722193e+003;4.464637e-001
1.724122e+003;4.055402e-001
1.726050e+003;3.662436e-001
1.727979e+003;3.285321e-001
1.729908e+003;2.928131e-001
1.731836e+003;2.577820e-001
1.733765e+003;2.243097e-001
1.735693e+003;1.983629e-001
1.737622e+003;1.741476e-001
1.739550e+003;1.492174e-001
1.741479e+003;1.282945e-001
1.743407e+003;1.101595e-001
1.745336e+003;9.461464e-002
1.747265e+003;8.228686e-002
1.749193e+003;7.327961e-002
1.751122e+003;6.786449e-002
1.753050e+003;6.680154e-002
1.754979e+003;6.613699e-002
1.756907e+003;6.507860e-002
1.758836e+003;6.457075e-002
1.760764e+003;6.342777e-002
1.762693e+003;6.357016e-002
1.764621e+003;6.459666e-002
1.766550e+003;6.386719e-002
1.768479e+003;6.309155e-002
1.770407e+003;6.212838e-002
1.772336e+003;6.116041e-002
1.774264e+003;6.278919e-002
1.776193e+003;6.397406e-002
1.778121e+003;6.398869e-002
1.780050e+003;6.381845e-002
1.781978e+003;6.392369e-002
1.783907e+003;6.376464e-002
1.785835e+003;6.387874e-002
1.787764e+003;6.406998e-002
1.789693e+003;6.310035e-002
1.791621e+003;6.170027e-002
1.793550e+003;6.242886e-002
1.795478e+003;6.408250e-002
1.797407e+003;6.427624e-002
1.799335e+003;6.399683e-002
1.801264e+003;6.398700e-002
1.803192e+003;6.463457e-002
1.805121e+003;6.513765e-002
1.807049e+003;6.527352e-002
1.808978e+003;6.512225e-002
1.810907e+003;6.518438e-002
1.812835e+003;6.558705e-002
1.814764e+003;6.582350e-002
1.816692e+003;6.562794e-002
1.818621e+003;6.568968e-002
1.820549e+003;6.567110e-002
1.822478e+003;6.526544e-002
1.824406e+003;6.463392e-002
1.826335e+003;6.477894e-002
1.828264e+003;6.437530e-002
1.830192e+003;6.374734e-002
1.832121e+003;6.430794e-002
1.834049e+003;6.431632e-002
1.835978e+003;6.384965e-002
1.837906e+003;6.349415e-002
1.839835e+003;6.298485e-002
1.841763e+003;6.157272e-002
1.843692e+003;5.965706e-002
1.845620e+003;5.971895e-002
1.847549e+003;5.996108e-002
1.849478e+003;5.982591e-002
1.851406e+003;5.939212e-002
1.853335e+003;5.852750e-002
1.855263e+003;5.788858e-002
1.857192e+003;5.746084e-002
1.859120e+003;5.701550e-002
1.861049e+003;5.656608e-002
1.862977e+003;5.613768e-002
1.864906e+003;5.547994e-002
1.866834e+003;5.436561e-002
1.868763e+003;5.366638e-002
1.870692e+003;5.412766e-002
1.872620e+003;5.455284e-002
1.874549e+003;5.465643e-002
1.876477e+003;5.467128e-002
1.878406e+003;5.448729e-002
1.880334e+003;5.428329e-002
1.882263e+003;5.411134e-002
1.884191e+003;5.418738e-002
1.886120e+003;5.415581e-002
1.888048e+003;5.371388e-002
1.889977e+003;5.383572e-002
1.891906e+003;5.423599e-002
1.893834e+003;5.407140e-002
1.895763e+003;5.424192e-002
1.897691e+003;5.466782e-002
1.899620e+003;5.510760e-002
1.901548e+003;5.533577e-002
1.903477e+003;5.534623e-002
1.905405e+003;5.539516e-002
1.907334e+003;5.559603e-002
1.909262e+003;5.570465e-002
1.911191e+003;5.585057e-002
1.913120e+003;5.622920e-002
1.915048e+003;5.645475e-002
1.916977e+003;5.608082e-002
1.918905e+003;5.646611e-002
1.920834e+003;5.722921e-002
1.922762e+003;5.761158e-002
1.924691e+003;5.826961e-002
1.926619e+003;5.905414e-002
1.928548e+003;5.970492e-002
1.930477e+003;6.021374e-002
1.932405e+003;6.057391e-002
1.934334e+003;6.124220e-002
1.936262e+003;6.214608e-002
1.938191e+003;6.278104e-002
1.940119e+003;6.322958e-002
1.942048e+003;6.366872e-002
1.943976e+003;6.438295e-002
1.945905e+003;6.510670e-002
1.947833e+003;6.558847e-002
1.949762e+003;6.605949e-002
1.951691e+003;6.652474e-002
1.953619e+003;6.670838e-002
1.955548e+003;6.656414e-002
1.957476e+003;6.659206e-002
1.959405e+003;6.677928e-002
1.961333e+003;6.653953e-002
1.963262e+003;6.590231e-002
1.965190e+003;6.516410e-002
1.967119e+003;6.442526e-002
1.969047e+003;6.399871e-002
1.970976e+003;6.344096e-002
1.972905e+003;6.273241e-002
1.974833e+003;6.198069e-002
1.976762e+003;6.130958e-002
1.978690e+003;6.094880e-002
1.980619e+003;6.075505e-002
1.982547e+003;6.059346e-002
1.984476e+003;6.028328e-002
1.986404e+003;5.966660e-002
1.988333e+003;5.925917e-002
1.990261e+003;5.865874e-002
1.992190e+003;5.800141e-002
1.994119e+003;5.776821e-002
1.996047e+003;5.761851e-002
1.997976e+003;5.737333e-002
1.999904e+003;5.701546e-002
2.001833e+003;5.665294e-002
2.003761e+003;5.618858e-002
2.005690e+003;5.571173e-002
2.007618e+003;5.546936e-002
2.009547e+003;5.525452e-002
2.011476e+003;5.501312e-002
2.013404e+003;5.475937e-002
2.015333e+003;5.458752e-002
2.017261e+003;5.437341e-002
2.019190e+003;5.404044e-002
2.021118e+003;5.378681e-002
2.023047e+003;5.365790e-002
2.024975e+003;5.330866e-002
2.026904e+003;5.291837e-002
2.028833e+003;5.276562e-002
2.030761e+003;5.301780e-002
2.032690e+003;5.303614e-002
2.034618e+003;5.283308e-002
2.036547e+003;5.273749e-002
2.038475e+003;5.296142e-002
2.040404e+003;5.321277e-002
2.042332e+003;5.330469e-002
2.044261e+003;5.345396e-002
2.046189e+003;5.355665e-002
2.048118e+003;5.354001e-002
2.050047e+003;5.389953e-002
2.051975e+003;5.441570e-002
2.053904e+003;5.489143e-002
2.055832e+003;5.531529e-002
2.057761e+003;5.568096e-002
2.059689e+003;5.589677e-002
2.061618e+003;5.623426e-002
2.063546e+003;5.675159e-002
2.065475e+003;5.717595e-002
2.067404e+003;5.752677e-002
2.069332e+003;5.799971e-002
2.071260e+003;5.831208e-002
2.073189e+003;5.849565e-002
2.075118e+003;5.865335e-002
2.077046e+003;5.886184e-002
2.078975e+003;5.902229e-002
2.080903e+003;5.938714e-002
2.082832e+003;5.978131e-002
2.084760e+003;5.985462e-002
2.086689e+003;5.979899e-002
2.088617e+003;5.987269e-002
2.090546e+003;5.993320e-002
2.092475e+003;6.018824e-002
2.094403e+003;6.045816e-002
2.096332e+003;6.039430e-002
2.098260e+003;6.029653e-002
2.100189e+003;6.042279e-002
2.102117e+003;6.046193e-002
2.104046e+003;6.052542e-002
2.105974e+003;6.037709e-002
2.107903e+003;6.034766e-002
2.109832e+003;6.040432e-002
2.111760e+003;6.027202e-002
2.113688e+003;6.024605e-002
2.115617e+003;6.012868e-002
2.117546e+003;5.995724e-002
2.119474e+003;5.992795e-002
2.121403e+003;5.994613e-002
2.123331e+003;5.964011e-002
2.125260e+003;5.897466e-002
2.127188e+003;5.846684e-002
2.129117e+003;5.832580e-002
2.131045e+003;5.829636e-002
2.132974e+003;5.816534e-002
2.134903e+003;5.808371e-002
2.136831e+003;5.769081e-002
2.138760e+003;5.730047e-002
2.140688e+003;5.705623e-002
2.142617e+003;5.689234e-002
2.144545e+003;5.666747e-002
2.146474e+003;5.648373e-002
2.148402e+003;5.609801e-002
2.150331e+003;5.558933e-002
2.152260e+003;5.532259e-002
2.154188e+003;5.522077e-002
2.156117e+003;5.497498e-002
2.158045e+003;5.456194e-002
2.159974e+003;5.417537e-002
2.161902e+003;5.380789e-002
2.163831e+003;5.341585e-002
2.165759e+003;5.310469e-002
2.167688e+003;5.291804e-002
2.169616e+003;5.263742e-002
2.171545e+003;5.240367e-002
2.173474e+003;5.238966e-002
2.175402e+003;5.254007e-002
2.177331e+003;5.248088e-002
2.179259e+003;5.204715e-002
2.181188e+003;5.180017e-002
2.183116e+003;5.158008e-002
2.185045e+003;5.159725e-002
2.186973e+003;5.162859e-002
2.188902e+003;5.170125e-002
2.190831e+003;5.185273e-002
2.192759e+003;5.206220e-002
2.194688e+003;5.213878e-002
2.196616e+003;5.206728e-002
2.198545e+003;5.211002e-002
2.200473e+003;5.209836e-002
2.202402e+003;5.220604e-002
2.204330e+003;5.249161e-002
2.206259e+003;5.271770e-002
2.208188e+003;5.296176e-002
2.210116e+003;5.313176e-002
2.212044e+003;5.315135e-002
2.213973e+003;5.319446e-002
2.215902e+003;5.351700e-002
2.217830e+003;5.383782e-002
2.219759e+003;5.417503e-002
2.221687e+003;5.428416e-002
2.223616e+003;5.416392e-002
2.225544e+003;5.415180e-002
2.227473e+003;5.426197e-002
2.229401e+003;5.450709e-002
2.231330e+003;5.460503e-002
2.233259e+003;5.459308e-002
2.235187e+003;5.471634e-002
2.237116e+003;5.485087e-002
2.239044e+003;5.515045e-002
2.240973e+003;5.527360e-002
2.242901e+003;5.546232e-002
2.244830e+003;5.567798e-002
2.246758e+003;5.580260e-002
2.248687e+003;5.606144e-002
2.250615e+003;5.620356e-002
2.252544e+003;5.625089e-002
2.254473e+003;5.617052e-002
2.256401e+003;5.628970e-002
2.258330e+003;5.653113e-002
2.260258e+003;5.636997e-002
2.262187e+003;5.628612e-002
2.264115e+003;5.628642e-002
2.266044e+003;5.617297e-002
2.267972e+003;5.591180e-002
2.269901e+003;5.580309e-002
2.271830e+003;5.599295e-002
2.273758e+003;5.623874e-002
2.275687e+003;5.629185e-002
2.277615e+003;5.629230e-002
2.279544e+003;5.657295e-002
2.281472e+003;5.675612e-002
2.283401e+003;5.654925e-002
2.285329e+003;5.633719e-002
2.287258e+003;5.597584e-002
2.289187e+003;5.564032e-002
2.291115e+003;5.535673e-002
2.293043e+003;5.501733e-002
2.294972e+003;5.489463e-002
2.296901e+003;5.462690e-002
2.298829e+003;5.395767e-002
2.300758e+003;5.339951e-002
2.302686e+003;5.292384e-002
2.304615e+003;5.226747e-002
2.306543e+003;5.193727e-002
2.308472e+003;5.200087e-002
2.310400e+003;5.187080e-002
2.312329e+003;5.156653e-002
2.314258e+003;5.101736e-002
2.316186e+003;5.058550e-002
2.318115e+003;5.058401e-002
2.320043e+003;5.077365e-002
2.321972e+003;5.074169e-002
2.323900e+003;5.060515e-002
2.325829e+003;5.071499e-002
2.327757e+003;5.068137e-002
2.329686e+003;5.041935e-002
2.331615e+003;5.014878e-002
2.333543e+003;4.996544e-002
2.335472e+003;4.992224e-002
2.337400e+003;5.001960e-002
2.339329e+003;5.027346e-002
2.341257e+003;5.062723e-002
2.343186e+003;5.112294e-002
2.345114e+003;5.179498e-002
2.347043e+003;5.271721e-002
2.348971e+003;5.311701e-002
2.350900e+003;5.264464e-002
2.352829e+003;5.200192e-002
2.354757e+003;5.162232e-002
2.356686e+003;5.159157e-002
2.358614e+003;5.167262e-002
2.360543e+003;5.161351e-002
2.362471e+003;5.169867e-002
2.364400e+003;5.221291e-002
2.366328e+003;5.290565e-002
2.368257e+003;5.361782e-002
2.370186e+003;5.431739e-002
2.372114e+003;5.469668e-002
2.374042e+003;5.514906e-002
2.375971e+003;5.580042e-002
2.377900e+003;5.648992e-002
2.379828e+003;5.694277e-002
2.381757e+003;5.689079e-002
2.383685e+003;5.680910e-002
2.385614e+003;5.686156e-002
2.387542e+003;5.699287e-002
2.389471e+003;5.711412e-002
2.391399e+003;5.711639e-002
2.393328e+003;5.690296e-002
2.395257e+003;5.669020e-002
2.397185e+003;5.643000e-002
2.399114e+003;5.631927e-002
2.401042e+003;5.636650e-002
2.402971e+003;5.622490e-002
2.404899e+003;5.598123e-002
2.406828e+003;5.583960e-002
2.408756e+003;5.580433e-002
2.410685e+003;5.552761e-002
2.412614e+003;5.520162e-002
2.414542e+003;5.505148e-002
2.416471e+003;5.478455e-002
2.418399e+003;5.438656e-002
2.420328e+003;5.417270e-002
2.422256e+003;5.406367e-002
2.424185e+003;5.372265e-002
2.426113e+003;5.330053e-002
2.428042e+003;5.296015e-002
2.429970e+003;5.270008e-002
2.431899e+003;5.251846e-002
2.433828e+003;5.257029e-002
2.435756e+003;5.258988e-002
2.437685e+003;5.201618e-002
2.439613e+003;5.165684e-002
2.441542e+003;5.174634e-002
2.443470e+003;5.179031e-002
2.445399e+003;5.173932e-002
2.447327e+003;5.169323e-002
2.449256e+003;5.160945e-002
2.451185e+003;5.133542e-002
2.453113e+003;5.114818e-002
2.455042e+003;5.110855e-002
2.456970e+003;5.089128e-002
2.458899e+003;5.064596e-002
2.460827e+003;5.062552e-002
2.462756e+003;5.069406e-002
2.464684e+003;5.074247e-002
2.466613e+003;5.078419e-002
2.468542e+003;5.090789e-002
2.470470e+003;5.098028e-002
2.472398e+003;5.111810e-002
2.474327e+003;5.138214e-002
2.476256e+003;5.144455e-002
2.478184e+003;5.134366e-002
2.480113e+003;5.146868e-002
2.482041e+003;5.177553e-002
2.483970e+003;5.183944e-002
2.485898e+003;5.189907e-002
2.487827e+003;5.231284e-002
2.489755e+003;5.274097e-002
2.491684e+003;5.291373e-002
2.493613e+003;5.305811e-002
2.495541e+003;5.308346e-002
2.497470e+003;5.320970e-002
2.499398e+003;5.336568e-002
2.501327e+003;5.325052e-002
2.503255e+003;5.314644e-002
2.505184e+003;5.324869e-002
2.507112e+003;5.337594e-002
2.509041e+003;5.357254e-002
2.510969e+003;5.381832e-002
2.512898e+003;5.375404e-002
2.514827e+003;5.379552e-002
2.516755e+003;5.408544e-002
2.518684e+003;5.443564e-002
2.520612e+003;5.471423e-002
2.522541e+003;5.485094e-002
2.524469e+003;5.483068e-002
2.526398e+003;5.497250e-002
2.528326e+003;5.518852e-002
2.530255e+003;5.512949e-002
2.532184e+003;5.492317e-002
2.534112e+003;5.482831e-002
2.536041e+003;5.500605e-002
2.537969e+003;5.493791e-002
2.539898e+003;5.477155e-002
2.541826e+003;5.485041e-002
2.543755e+003;5.495957e-002
2.545683e+003;5.507360e-002
2.547612e+003;5.502805e-002
2.549541e+003;5.507736e-002
2.551469e+003;5.519266e-002
2.553397e+003;5.518521e-002
2.555326e+003;5.536912e-002
2.557255e+003;5.547497e-002
2.559183e+003;5.537849e-002
2.561112e+003;5.534883e-002
2.563040e+003;5.545125e-002
2.564969e+003;5.531454e-002
2.566897e+003;5.494170e-002
2.568826e+003;5.475772e-002
2.570754e+003;5.476580e-002
2.572683e+003;5.488842e-002
2.574612e+003;5.516640e-002
2.576540e+003;5.527958e-002
2.578469e+003;5.528583e-002
2.580397e+003;5.541237e-002
2.582326e+003;5.529953e-002
2.584254e+003;5.510087e-002
2.586183e+003;5.489632e-002
2.588111e+003;5.462524e-002
2.590040e+003;5.461254e-002
2.591969e+003;5.450960e-002
2.593897e+003;5.419909e-002
2.595826e+003;5.401377e-002
2.597754e+003;5.369063e-002
2.599683e+003;5.330476e-002
2.601611e+003;5.322445e-002
2.603540e+003;5.321509e-002
2.605468e+003;5.313974e-002
2.607397e+003;5.300417e-002
2.609325e+003;5.269342e-002
2.611254e+003;5.239840e-002
2.613183e+003;5.230899e-002
2.615111e+003;5.236140e-002
2.617040e+003;5.258289e-002
2.618968e+003;5.264011e-002
2.620897e+003;5.251464e-002
2.622825e+003;5.221489e-002
2.624754e+003;5.225282e-002
2.626682e+003;5.243246e-002
2.628611e+003;5.229894e-002
2.630540e+003;5.216124e-002
2.632468e+003;5.211909e-002
2.634396e+003;5.201323e-002
2.636325e+003;5.181853e-002
2.638254e+003;5.151408e-002
2.640182e+003;5.095733e-002
2.642111e+003;5.053815e-002
2.644039e+003;5.047588e-002
2.645968e+003;5.046825e-002
2.647896e+003;5.032949e-002
2.649825e+003;5.029563e-002
2.651753e+003;5.042530e-002
2.653682e+003;5.027796e-002
2.655611e+003;4.969634e-002
2.657539e+003;4.924564e-002
2.659468e+003;4.961759e-002
2.661396e+003;5.000566e-002
2.663325e+003;4.982747e-002
2.665253e+003;4.955401e-002
2.667182e+003;4.953117e-002
2.669110e+003;4.963052e-002
2.671039e+003;4.967175e-002
2.672968e+003;4.981773e-002
2.674896e+003;4.994470e-002
2.676825e+003;4.992284e-002
2.678753e+003;4.986300e-002
2.680682e+003;5.002719e-002
2.682610e+003;5.005370e-002
2.684539e+003;5.003370e-002
2.686467e+003;5.000678e-002
2.688396e+003;4.997555e-002
2.690324e+003;5.005838e-002
2.692253e+003;5.017898e-002
2.694182e+003;5.023355e-002
2.696110e+003;5.005786e-002
2.698039e+003;5.011178e-002
2.699967e+003;5.023161e-002
2.701896e+003;5.018579e-002
2.703824e+003;5.022782e-002
2.705753e+003;5.046066e-002
2.707681e+003;5.076575e-002
2.709610e+003;5.100070e-002
2.711539e+003;5.097115e-002
2.713467e+003;5.072222e-002
2.715396e+003;5.090431e-002
2.717324e+003;5.145096e-002
2.719253e+003;5.148946e-002
2.721181e+003;5.109074e-002
2.723110e+003;5.122359e-002
2.725038e+003;5.164116e-002
2.726967e+003;5.173063e-002
2.728896e+003;5.170868e-002
2.730824e+003;5.211506e-002
2.732752e+003;5.236992e-002
2.734681e+003;5.238465e-002
2.736610e+003;5.248690e-002
2.738538e+003;5.266746e-002
2.740467e+003;5.288589e-002
2.742395e+003;5.291912e-002
2.744324e+003;5.266641e-002
2.746252e+003;5.248925e-002
2.748181e+003;5.257507e-002
2.750109e+003;5.267015e-002
2.752038e+003;5.271051e-002
2.753967e+003;5.261173e-002
2.755895e+003;5.271972e-002
2.757824e+003;5.287855e-002
2.759752e+003;5.297718e-002
2.761681e+003;5.306553e-002
2.763609e+003;5.278373e-002
2.765538e+003;5.260073e-002
2.767466e+003;5.277520e-002
2.769395e+003;5.291310e-002
2.771323e+003;5.302749e-002
2.773252e+003;5.304411e-002
2.775181e+003;5.306201e-002
2.777109e+003;5.324715e-002
2.779038e+003;5.347783e-002
2.780966e+003;5.376383e-002
2.782895e+003;5.396458e-002
2.784823e+003;5.405095e-002
2.786752e+003;5.432171e-002
2.788680e+003;5.483906e-002
2.790609e+003;5.528402e-002
2.792538e+003;5.541331e-002
2.794466e+003;5.544869e-002
2.796395e+003;5.557531e-002
2.798323e+003;5.589394e-002
2.800252e+003;5.615333e-002
2.802180e+003;5.601703e-002
2.804109e+003;5.595831e-002
2.806037e+003;5.586466e-002
2.807966e+003;5.598963e-002
2.809895e+003;5.605447e-002
2.811823e+003;5.591813e-002
2.813751e+003;5.558319e-002
2.815680e+003;5.516076e-002
2.817609e+003;5.455750e-002
2.819537e+003;5.418877e-002
2.821466e+003;5.398994e-002
2.823394e+003;5.392755e-002
2.825323e+003;5.385594e-002
2.827251e+003;5.387919e-002
2.829180e+003;5.387961e-002
2.831108e+003;5.373807e-002
2.833037e+003;5.346130e-002
2.834966e+003;5.322363e-002
2.836894e+003;5.305602e-002
2.838823e+003;5.227072e-002
2.840751e+003;5.091292e-002
2.842680e+003;4.882825e-002
2.844608e+003;4.568725e-002
2.846537e+003;4.191556e-002
2.848465e+003;3.849867e-002
2.850394e+003;3.628468e-002
2.852323e+003;3.549649e-002
2.854251e+003;3.635500e-002
2.856180e+003;3.854950e-002
2.858108e+003;4.134802e-002
2.860037e+003;4.463801e-002
2.861965e+003;4.781875e-002
2.863894e+003;5.007430e-002
2.865822e+003;5.154090e-002
2.867751e+003;5.241134e-002
2.869679e+003;5.291991e-002
2.871608e+003;5.327937e-002
2.873536e+003;5.400592e-002
2.875465e+003;5.488252e-002
2.877394e+003;5.555261e-002
2.879322e+003;5.610978e-002
2.881251e+003;5.652196e-002
2.883179e+003;5.661934e-002
2.885108e+003;5.642159e-002
2.887036e+003;5.629494e-002
2.888965e+003;5.594783e-002
2.890893e+003;5.551492e-002
2.892822e+003;5.501853e-002
2.894750e+003;5.440789e-002
2.896679e+003;5.387132e-002
2.898608e+003;5.331109e-002
2.900536e+003;5.296325e-002
2.902465e+003;5.277677e-002
2.904393e+003;5.243377e-002
2.906322e+003;5.149035e-002
2.908250e+003;4.987511e-002
2.910179e+003;4.697344e-002
2.912107e+003;4.286969e-002
2.914036e+003;3.842116e-002
2.915965e+003;3.399233e-002
2.917893e+003;3.033116e-002
2.919822e+003;2.755563e-002
2.921750e+003;2.540028e-002
2.923679e+003;2.444942e-002
2.925607e+003;2.521649e-002
2.927536e+003;2.724831e-002
2.929464e+003;2.986311e-002
2.931393e+003;3.268551e-002
2.933322e+003;3.546402e-002
2.935250e+003;3.884196e-002
2.937178e+003;4.237351e-002
2.939107e+003;4.514652e-002
2.941036e+003;4.785304e-002
2.942964e+003;5.058215e-002
2.944893e+003;5.260047e-002
2.946821e+003;5.444053e-002
2.948750e+003;5.597704e-002
2.950678e+003;5.636111e-002
2.952607e+003;5.678222e-002
2.954535e+003;5.792981e-002
2.956464e+003;5.930733e-002
2.958393e+003;6.095638e-002
2.960321e+003;6.259596e-002
2.962250e+003;6.466468e-002
2.964178e+003;6.674451e-002
2.966107e+003;6.833684e-002
2.968035e+003;6.982075e-002
2.969964e+003;7.101227e-002
2.971892e+003;7.189392e-002
2.973821e+003;7.254012e-002
2.975750e+003;7.243633e-002
2.977678e+003;7.224396e-002
2.979607e+003;7.206520e-002
2.981535e+003;7.166837e-002
2.983464e+003;7.153412e-002
2.985392e+003;7.117595e-002
2.987321e+003;7.083347e-002
2.989249e+003;7.047401e-002
2.991178e+003;7.006780e-002
2.993106e+003;6.964252e-002
2.995035e+003;6.898896e-002
2.996964e+003;6.871912e-002
2.998892e+003;6.862008e-002
3.000821e+003;6.826724e-002
3.002749e+003;6.775875e-002
3.004678e+003;6.739048e-002
3.006606e+003;6.701738e-002
3.008535e+003;6.666364e-002
3.010463e+003;6.640469e-002
3.012392e+003;6.643574e-002
3.014321e+003;6.621537e-002
3.016249e+003;6.568374e-002
3.018177e+003;6.515424e-002
3.020106e+003;6.439912e-002
3.022035e+003;6.373605e-002
3.023963e+003;6.289791e-002
3.025892e+003;6.186900e-002
3.027820e+003;6.129566e-002
3.029749e+003;6.069206e-002
3.031677e+003;5.982006e-002
3.033606e+003;5.928618e-002
3.035534e+003;5.922241e-002
3.037463e+003;5.929092e-002
3.039392e+003;5.948794e-002
3.041320e+003;5.986033e-002
3.043249e+003;6.008420e-002
3.045177e+003;6.043646e-002
3.047106e+003;6.157063e-002
3.049034e+003;6.315771e-002
3.050963e+003;6.439859e-002
3.052891e+003;6.493960e-002
3.054820e+003;6.481291e-002
3.056749e+003;6.462800e-002
3.058677e+003;6.442211e-002
3.060606e+003;6.451117e-002
3.062534e+003;6.486030e-002
3.064463e+003;6.481602e-002
3.066391e+003;6.480456e-002
3.068320e+003;6.490151e-002
3.070248e+003;6.482614e-002
3.072177e+003;6.475286e-002
3.074105e+003;6.508688e-002
3.076034e+003;6.529813e-002
3.077963e+003;6.528858e-002
3.079891e+003;6.514435e-002
3.081820e+003;6.501614e-002
3.083748e+003;6.497142e-002
3.085677e+003;6.476406e-002
3.087605e+003;6.425108e-002
3.089534e+003;6.362671e-002
3.091462e+003;6.321689e-002
3.093391e+003;6.293709e-002
3.095320e+003;6.294988e-002
3.097248e+003;6.293693e-002
3.099177e+003;6.295364e-002
3.101105e+003;6.334883e-002
3.103034e+003;6.369442e-002
3.104962e+003;6.382228e-002
3.106891e+003;6.367589e-002
3.108819e+003;6.321670e-002
3.110748e+003;6.295566e-002
3.112677e+003;6.232436e-002
3.114605e+003;6.090191e-002
3.116533e+003;5.978043e-002
3.118462e+003;5.946214e-002
3.120391e+003;5.946051e-002
3.122319e+003;5.944451e-002
3.124248e+003;5.937320e-002
3.126176e+003;5.933244e-002
3.128105e+003;5.931816e-002
3.130033e+003;5.900715e-002
3.131962e+003;5.871316e-002
3.133890e+003;5.850304e-002
3.135819e+003;5.809352e-002
3.137748e+003;5.761998e-002
3.139676e+003;5.697719e-002
3.141605e+003;5.643690e-002
3.143533e+003;5.607177e-002
3.145462e+003;5.586293e-002
3.147390e+003;5.560017e-002
3.149319e+003;5.493915e-002
3.151247e+003;5.473479e-002
3.153176e+003;5.478662e-002
3.155104e+003;5.452110e-002
3.157033e+003;5.448553e-002
3.158962e+003;5.433361e-002
3.160890e+003;5.386712e-002
3.162819e+003;5.363901e-002
3.164747e+003;5.350755e-002
3.166676e+003;5.344316e-002
3.168604e+003;5.325093e-002
3.170533e+003;5.324183e-002
3.172461e+003;5.301057e-002
3.174390e+003;5.266548e-002
3.176319e+003;5.284135e-002
3.178247e+003;5.295685e-002
3.180176e+003;5.268646e-002
3.182104e+003;5.264169e-002
3.184033e+003;5.271766e-002
3.185961e+003;5.276106e-002
3.187890e+003;5.283664e-002
3.189818e+003;5.236364e-002
3.191747e+003;5.216325e-002
3.193676e+003;5.241482e-002
3.195604e+003;5.213628e-002
3.197532e+003;5.210718e-002
3.199461e+003;5.234772e-002
3.201390e+003;5.222633e-002
3.203318e+003;5.152654e-002
3.205247e+003;5.118012e-002
3.207175e+003;5.132203e-002
3.209104e+003;5.144607e-002
3.211032e+003;5.128008e-002
3.212961e+003;5.112935e-002
3.214889e+003;5.132344e-002
3.216818e+003;5.167038e-002
3.218747e+003;5.159307e-002
3.220675e+003;5.151482e-002
3.222604e+003;5.128295e-002
3.224532e+003;5.100447e-002
3.226461e+003;5.113856e-002
3.228389e+003;5.144122e-002
3.230318e+003;5.144894e-002
3.232246e+003;5.145611e-002
3.234175e+003;5.136879e-002
3.236104e+003;5.085175e-002
3.238032e+003;5.052553e-002
3.239961e+003;5.048500e-002
3.241889e+003;5.036885e-002
3.243818e+003;5.043993e-002
3.245746e+003;5.041470e-002
3.247675e+003;4.993730e-002
3.249603e+003;4.973487e-002
3.251532e+003;5.017314e-002
3.253460e+003;5.045258e-002
3.255389e+003;5.013826e-002
3.257318e+003;4.991325e-002
3.259246e+003;4.984616e-002
3.261175e+003;4.958398e-002
3.263103e+003;4.953870e-002
3.265032e+003;4.945708e-002
3.266960e+003;4.934667e-002
3.268889e+003;4.943566e-002
3.270817e+003;4.933074e-002
3.272746e+003;4.927054e-002
3.274675e+003;4.938443e-002
3.276603e+003;4.920879e-002
3.278531e+003;4.926249e-002
3.280460e+003;4.924983e-002
3.282389e+003;4.909940e-002
3.284317e+003;4.908712e-002
3.286246e+003;4.910371e-002
3.288174e+003;4.913346e-002
3.290103e+003;4.935528e-002
3.292031e+003;4.962936e-002
3.293960e+003;4.976315e-002
3.295888e+003;4.969935e-002
3.297817e+003;4.952437e-002
3.299746e+003;4.948341e-002
3.301674e+003;4.978001e-002
3.303603e+003;5.003808e-002
3.305531e+003;4.983632e-002
3.307460e+003;4.964070e-002
3.309388e+003;4.975731e-002
3.311317e+003;4.955103e-002
3.313245e+003;4.910638e-002
3.315174e+003;4.899913e-002
3.317103e+003;4.939816e-002
3.319031e+003;4.982033e-002
3.320960e+003;4.940659e-002
3.322888e+003;4.920267e-002
3.324817e+003;4.936508e-002
3.326745e+003;4.958855e-002
3.328674e+003;4.966982e-002
3.330602e+003;4.976515e-002
3.332531e+003;5.018646e-002
3.334459e+003;5.042999e-002
3.336388e+003;5.036055e-002
3.338317e+003;5.017043e-002
3.340245e+003;5.001432e-002
3.342174e+003;4.984969e-002
3.344102e+003;4.937759e-002
3.346031e+003;4.891594e-002
3.347959e+003;4.899138e-002
3.349888e+003;4.895277e-002
3.351816e+003;4.890334e-002
3.353745e+003;4.862845e-002
3.355674e+003;4.789051e-002
3.357602e+003;4.744360e-002
3.359531e+003;4.716229e-002
3.361459e+003;4.717204e-002
3.363388e+003;4.747709e-002
3.365316e+003;4.745258e-002
3.367245e+003;4.718127e-002
3.369173e+003;4.729113e-002
3.371102e+003;4.762814e-002
3.373031e+003;4.756588e-002
3.374959e+003;4.775309e-002
3.376887e+003;4.801203e-002
3.378816e+003;4.783691e-002
3.380745e+003;4.741282e-002
3.382673e+003;4.751065e-002
3.384602e+003;4.795882e-002
3.386530e+003;4.831893e-002
3.388459e+003;4.799260e-002
3.390387e+003;4.780395e-002
3.392316e+003;4.833648e-002
3.394244e+003;4.857694e-002
3.396173e+003;4.835270e-002
3.398102e+003;4.846827e-002
3.400030e+003;4.859921e-002
3.401959e+003;4.902688e-002
3.403887e+003;4.974843e-002
3.405816e+003;5.053636e-002
3.407744e+003;5.133120e-002
3.409673e+003;5.195340e-002
3.411601e+003;5.255391e-002
3.413530e+003;5.327214e-002
3.415458e+003;5.402637e-002
3.417387e+003;5.472058e-002
3.419316e+003;5.563911e-002
3.421244e+003;5.633323e-002
3.423173e+003;5.691958e-002
3.425101e+003;5.733397e-002
3.427030e+003;5.777793e-002
3.428958e+003;5.845736e-002
3.430887e+003;5.892585e-002
3.432815e+003;5.880440e-002
3.434744e+003;5.861778e-002
3.436673e+003;5.839220e-002
3.438601e+003;5.767897e-002
3.440530e+003;5.661972e-002
3.442458e+003;5.590796e-002
3.444387e+003;5.544037e-002
3.446315e+003;5.478362e-002
3.448244e+003;5.429422e-002
3.450172e+003;5.339696e-002
3.452101e+003;5.244338e-002
3.454030e+003;5.197872e-002
3.455958e+003;5.170580e-002
3.457886e+003;5.111418e-002
3.459815e+003;5.046419e-002
3.461744e+003;4.991905e-002
3.463672e+003;4.918867e-002
3.465601e+003;4.865306e-002
3.467529e+003;4.858384e-002
3.469458e+003;4.837200e-002
3.471386e+003;4.798872e-002
3.473315e+003;4.769988e-002
3.475243e+003;4.743636e-002
3.477172e+003;4.741618e-002
3.479101e+003;4.745007e-002
3.481029e+003;4.717300e-002
3.482958e+003;4.707243e-002
3.484886e+003;4.716986e-002
3.486815e+003;4.730754e-002
3.488743e+003;4.699921e-002
3.490672e+003;4.646043e-002
3.492600e+003;4.643568e-002
3.494529e+003;4.673380e-002
3.496458e+003;4.683107e-002
3.498386e+003;4.676608e-002
3.500315e+003;4.663724e-002
3.502243e+003;4.676763e-002
3.504172e+003;4.706756e-002
3.506100e+003;4.733592e-002
3.508029e+003;4.719656e-002
3.509957e+003;4.718670e-002
3.511886e+003;4.736780e-002
3.513814e+003;4.771629e-002
3.515743e+003;4.787279e-002
3.517672e+003;4.763413e-002
3.519600e+003;4.756288e-002
3.521529e+003;4.801458e-002
3.523457e+003;4.837763e-002
3.525386e+003;4.819996e-002
3.527314e+003;4.838430e-002
3.529243e+003;4.883140e-002
3.531171e+003;4.850213e-002
3.533100e+003;4.840678e-002
3.535029e+003;4.870336e-002
3.536957e+003;4.898344e-002
3.538885e+003;4.920827e-002
3.540814e+003;4.931924e-002
3.542743e+003;4.923551e-002
3.544671e+003;4.890782e-002
3.546600e+003;4.930116e-002
3.548528e+003;4.969921e-002
3.550457e+003;4.914311e-002
3.552385e+003;4.884842e-002
3.554314e+003;4.895136e-002
3.556242e+003;4.868694e-002
3.558171e+003;4.835074e-002
3.560100e+003;4.844616e-002
3.562028e+003;4.877186e-002
3.563957e+003;4.804926e-002
3.565885e+003;4.643657e-002
3.567814e+003;4.630650e-002
3.569742e+003;4.748781e-002
3.571671e+003;4.778324e-002
3.573599e+003;4.760518e-002
3.575528e+003;4.740151e-002
3.577457e+003;4.709751e-002
3.579385e+003;4.691493e-002
3.581314e+003;4.663547e-002
3.583242e+003;4.615970e-002
3.585171e+003;4.497223e-002
3.587099e+003;4.383321e-002
3.589028e+003;4.425540e-002
3.590956e+003;4.521300e-002
3.592885e+003;4.505495e-002
3.594813e+003;4.453028e-002
3.596742e+003;4.477849e-002
3.598671e+003;4.498781e-002
3.600599e+003;4.482338e-002
3.602528e+003;4.482570e-002
3.604456e+003;4.460911e-002
3.606385e+003;4.371612e-002
3.608313e+003;4.278397e-002
3.610242e+003;4.326751e-002
3.612170e+003;4.340909e-002
3.614099e+003;4.363064e-002
3.616028e+003;4.375350e-002
3.617956e+003;4.306857e-002
3.619885e+003;4.360273e-002
3.621813e+003;4.503294e-002
3.623742e+003;4.560948e-002
3.625670e+003;4.446105e-002
3.627599e+003;4.130097e-002
3.629527e+003;4.144989e-002
3.631456e+003;4.440963e-002
3.633385e+003;4.566270e-002
3.635313e+003;4.574159e-002
3.637241e+003;4.547900e-002
3.639170e+003;4.541002e-002
3.641099e+003;4.519667e-002
3.643027e+003;4.508873e-002
3.644956e+003;4.443492e-002
3.646884e+003;4.217491e-002
3.648813e+003;4.038460e-002
3.650741e+003;4.149218e-002
3.652670e+003;4.322527e-002
3.654598e+003;4.250153e-002
3.656527e+003;4.222680e-002
3.658456e+003;4.361676e-002
3.660384e+003;4.391814e-002
3.662313e+003;4.338503e-002
3.664241e+003;4.290125e-002
3.666170e+003;4.239689e-002
3.668098e+003;4.047228e-002
3.670027e+003;3.854541e-002
3.671955e+003;3.976052e-002
3.673884e+003;3.867973e-002
3.675813e+003;3.763357e-002
3.677741e+003;4.062601e-002
3.679669e+003;4.259947e-002
3.681598e+003;4.324735e-002
3.683527e+003;4.331276e-002
3.685455e+003;4.254279e-002
3.687384e+003;3.978862e-002
3.689312e+003;3.945035e-002
3.691241e+003;4.143629e-002
3.693169e+003;4.217568e-002
3.695098e+003;4.207385e-002
3.697026e+003;4.207130e-002
3.698955e+003;4.151627e-002
3.700884e+003;4.053510e-002
3.702812e+003;4.048178e-002
3.704741e+003;4.067080e-002
3.706669e+003;4.029283e-002
3.708598e+003;3.885932e-002
3.710526e+003;3.715059e-002
3.712455e+003;3.749444e-002
3.714383e+003;3.982142e-002
3.716312e+003;4.050858e-002
3.718240e+003;3.996939e-002
3.720169e+003;3.969339e-002
3.722098e+003;3.964278e-002
3.724026e+003;3.955193e-002
3.725955e+003;3.974505e-002
3.727883e+003;4.036002e-002
3.729812e+003;3.975946e-002
3.731740e+003;3.841808e-002
3.733669e+003;3.781319e-002
3.735597e+003;3.707924e-002
3.737526e+003;3.816936e-002
3.739455e+003;3.934213e-002
3.741383e+003;3.823604e-002
3.743312e+003;3.402067e-002
3.745240e+003;3.453466e-002
3.747169e+003;3.677282e-002
3.749097e+003;3.506430e-002
3.751026e+003;3.476246e-002
3.752954e+003;3.726448e-002
3.754883e+003;4.020090e-002
3.756812e+003;4.064002e-002
3.758740e+003;4.052619e-002
3.760668e+003;4.104498e-002
3.762597e+003;4.177542e-002
3.764526e+003;4.111794e-002
3.766454e+003;4.078270e-002
3.768383e+003;4.011320e-002
3.770311e+003;4.017291e-002
3.772240e+003;4.117465e-002
3.774168e+003;4.138428e-002
3.776097e+003;4.099899e-002
3.778025e+003;4.028985e-002
3.779954e+003;4.027898e-002
3.781883e+003;4.067994e-002
3.783811e+003;4.049894e-002
3.785740e+003;4.037708e-002
3.787668e+003;4.053543e-002
3.789597e+003;4.097383e-002
3.791525e+003;4.112977e-002
3.793454e+003;4.083221e-002
3.795382e+003;4.007007e-002
3.797311e+003;3.989732e-002
3.799240e+003;3.838981e-002
3.801168e+003;3.686826e-002
3.803097e+003;3.879949e-002
3.805025e+003;3.888526e-002
3.806954e+003;3.835249e-002
3.808882e+003;4.045159e-002
3.810811e+003;4.152703e-002
3.812739e+003;4.083516e-002
3.814668e+003;3.785874e-002
3.816596e+003;3.775344e-002
3.818525e+003;3.882011e-002
3.820454e+003;3.750051e-002
3.822382e+003;3.899493e-002
3.824311e+003;4.114926e-002
3.826239e+003;4.118890e-002
3.828168e+003;4.057861e-002
3.830096e+003;3.964252e-002
3.832025e+003;3.932827e-002
3.833953e+003;3.903270e-002
3.835882e+003;3.715839e-002
3.837811e+003;3.617537e-002
3.839739e+003;3.806493e-002
3.841667e+003;3.939796e-002
3.843596e+003;4.009009e-002
3.845525e+003;4.076884e-002
3.847453e+003;4.065457e-002
3.849382e+003;3.870226e-002
3.851310e+003;3.399401e-002
3.853239e+003;3.109670e-002
3.855167e+003;3.568940e-002
3.857096e+003;4.031203e-002
3.859024e+003;4.119731e-002
3.860953e+003;4.020574e-002
3.862882e+003;3.910191e-002
3.864810e+003;3.910328e-002
3.866739e+003;3.945362e-002
3.868667e+003;3.782736e-002
3.870596e+003;3.821430e-002
3.872524e+003;3.960267e-002
3.874453e+003;4.003377e-002
3.876381e+003;4.065857e-002
3.878310e+003;4.023412e-002
3.880239e+003;3.984644e-002
3.882167e+003;4.051462e-002
3.884096e+003;3.972356e-002
3.886024e+003;3.936723e-002
3.887953e+003;4.063787e-002
3.889881e+003;3.969742e-002
3.891810e+003;3.961388e-002
3.893738e+003;4.112956e-002
3.895667e+003;4.102237e-002
3.897595e+003;3.967806e-002
3.899524e+003;3.915517e-002
3.901453e+003;3.943609e-002
3.903381e+003;4.013181e-002
3.905310e+003;4.122507e-002
3.907238e+003;4.210737e-002
3.909167e+003;4.235718e-002
3.911095e+003;4.219828e-002
3.913024e+003;4.210557e-002
3.914952e+003;4.210992e-002
3.916881e+003;4.207319e-002
3.918810e+003;4.218820e-002
3.920738e+003;4.253223e-002
3.922667e+003;4.279955e-002
3.924595e+003;4.260097e-002
3.926524e+003;4.258079e-002
3.928452e+003;4.282928e-002
3.930381e+003;4.284577e-002
3.932309e+003;4.281955e-002
3.934238e+003;4.303850e-002
3.936167e+003;4.293845e-002
3.938095e+003;4.281977e-002
3.940023e+003;4.249686e-002
3.941952e+003;4.229681e-002
3.943881e+003;4.273297e-002
3.945809e+003;4.271392e-002
3.947738e+003;4.276887e-002
3.949666e+003;4.317722e-002
3.951595e+003;4.300312e-002
3.953523e+003;4.281008e-002
3.955452e+003;4.314007e-002
3.957380e+003;4.324493e-002
3.959309e+003;4.360013e-002
3.961238e+003;4.402359e-002
3.963166e+003;4.396122e-002
3.965095e+003;4.363764e-002
3.967023e+003;4.386807e-002
3.968952e+003;4.393996e-002
3.970880e+003;4.354459e-002
3.972809e+003;4.353778e-002
3.974737e+003;4.322172e-002
3.976666e+003;4.309093e-002
3.978594e+003;4.347372e-002
3.980523e+003;4.368813e-002
3.982452e+003;4.381346e-002
3.984380e+003;4.430365e-002
3.986309e+003;4.416981e-002
3.988237e+003;4.356389e-002
3.990166e+003;4.337749e-002
3.992094e+003;4.345640e-002
3.994023e+003;4.339217e-002
3.995951e+003;4.326481e-002
3.997880e+003;4.331009e-002
3.999809e+003;4.369425e-002
4.001737e+003;0.000000e+000
