3.992094e+002;0.000000e+000
4.011380e+002;0.000000e+000
4.030665e+002;0.000000e+000
4.049951e+002;0.000000e+000
4.069236e+002;0.000000e+000
4.088522e+002;0.000000e+000
4.107807e+002;0.000000e+000
4.127093e+002;0.000000e+000
4.146378e+002;0.000000e+000
4.165664e+002;0.000000e+000
4.184949e+002;0.000000e+000
4.204235e+002;0.000000e+000
4.223520e+002;0.000000e+000
4.242806e+002;0.000000e+000
4.262091e+002;0.000000e+000
4.281377e+002;0.000000e+000
4.300662e+002;0.000000e+000
4.319948e+002;0.000000e+000
4.339233e+002;0.000000e+000
4.358519e+002;0.000000e+000
4.377804e+002;0.000000e+000
4.397090e+002;0.000000e+000
4.416375e+002;0.000000e+000
4.435660e+002;0.000000e+000
4.454946e+002;0.000000e+000
4.474232e+002;0.000000e+000
4.493517e+002;0.000000e+000
4.512802e+002;0.000000e+000
4.532088e+002;0.000000e+000
4.551373e+002;0.000000e+000
4.570659e+002;0.000000e+000
4.589944e+002;0.000000e+000
4.609230e+002;0.000000e+000
4.628515e+002;0.000000e+000
4.647801e+002;0.000000e+000
4.667086e+002;0.000000e+000
4.686372e+002;0.000000e+000
4.705657e+002;0.000000e+000
4.724943e+002;0.000000e+000
4.744228e+002;0.000000e+000
4.763513e+002;0.000000e+000
4.782799e+002;0.000000e+000
4.802085e+002;0.000000e+000
4.821370e+002;0.000000e+000
4.840656e+002;0.000000e+000
4.859941e+002;0.000000e+000
4.879226e+002;0.000000e+000
4.898512e+002;0.000000e+000
4.917798e+002;0.000000e+000
4.937083e+002;0.000000e+000
4.956368e+002;0.000000e+000
4.975654e+002;0.000000e+000
4.994939e+002;0.000000e+000
5.014225e+002;0.000000e+000
5.033510e+002;0.000000e+000
5.052796e+002;0.000000e+000
5.072081e+002;0.000000e+000
5.091367e+002;0.000000e+000
5.110652e+002;0.000000e+000
5.129938e+002;0.000000e+000
5.149223e+002;0.000000e+000
5.168509e+002;0.000000e+000
5.187794e+002;0.000000e+000
5.207079e+002;0.000000e+000
5.226365e+002;0.000000e+000
5.245651e+002;0.000000e+000
5.264936e+002;0.000000e+000
5.284222e+002;0.000000e+000
5.303507e+002;0.000000e+000
5.322792e+002;0.000000e+000
5.342078e+002;0.000000e+000
5.361364e+002;0.000000e+000
5.380649e+002;0.000000e+000
5.399935e+002;0.000000e+000
5.419220e+002;0.000000e+000
5.438505e+002;0.000000e+000
5.457791e+002;0.000000e+000
5.477076e+002;0.000000e+000
5.496362e+002;0.000000e+000
5.515648e+002;0.000000e+000
5.534933e+002;0.000000e+000
5.554218e+002;0.000000e+000
5.573504e+002;0.000000e+000
5.592789e+002;0.000000e+000
5.612075e+002;0.000000e+000
5.631360e+002;0.000000e+000
5.650646e+002;0.000000e+000
5.669931e+002;0.000000e+000
5.689217e+002;0.000000e+000
5.708502e+002;0.000000e+000
5.727787e+002;0.000000e+000
5.747073e+002;0.000000e+000
5.766359e+002;0.000000e+000
5.785644e+002;0.000000e+000
5.804930e+002;0.000000e+000
5.824215e+002;0.000000e+000
5.843500e+002;0.000000e+000
5.862786e+002;0.000000e+000
5.882072e+002;0.000000e+000
5.901357e+002;0.000000e+000
5.920643e+002;0.000000e+000
5.939928e+002;0.000000e+000
5.959213e+002;0.000000e+000
5.978499e+002;0.000000e+000
5.997784e+002;8.797908e-002
6.017070e+002;8.929699e-002
6.036355e+002;8.733848e-002
6.055641e+002;8.653229e-002
6.074926e+002;8.556698e-002
6.094211e+002;8.631939e-002
6.113497e+002;8.875479e-002
6.132783e+002;8.567784e-002
6.152068e+002;8.335095e-002
6.171354e+002;8.715361e-002
6.190639e+002;8.828346e-002
6.209924e+002;8.612385e-002
6.229210e+002;8.578072e-002
6.248495e+002;8.696128e-002
6.267781e+002;8.725737e-002
6.287067e+002;8.937526e-002
6.306352e+002;9.638007e-002
6.325637e+002;9.811283e-002
6.344923e+002;9.337208e-002
6.364208e+002;9.009968e-002
6.383494e+002;8.810334e-002
6.402780e+002;8.857281e-002
6.422065e+002;8.884926e-002
6.441350e+002;8.711749e-002
6.460636e+002;8.992583e-002
6.479921e+002;9.427986e-002
6.499207e+002;9.375238e-002
6.518492e+002;9.475499e-002
6.537778e+002;9.796014e-002
6.557063e+002;9.879187e-002
6.576349e+002;9.735253e-002
6.595634e+002;9.781776e-002
6.614919e+002;1.008041e-001
6.634205e+002;1.048885e-001
6.653491e+002;1.062802e-001
6.672776e+002;1.047001e-001
6.692062e+002;1.075912e-001
6.711347e+002;1.114323e-001
6.730632e+002;1.131439e-001
6.749918e+002;1.158414e-001
6.769203e+002;1.200085e-001
6.788489e+002;1.246598e-001
6.807775e+002;1.277905e-001
6.827060e+002;1.280230e-001
6.846345e+002;1.275896e-001
6.865631e+002;1.280622e-001
6.884916e+002;1.295778e-001
6.904202e+002;1.326918e-001
6.923488e+002;1.368452e-001
6.942773e+002;1.418655e-001
6.962058e+002;1.513341e-001
6.981344e+002;1.643987e-001
7.000629e+002;1.794306e-001
7.019915e+002;1.939700e-001
7.039200e+002;2.068613e-001
7.058486e+002;2.190255e-001
7.077771e+002;2.324082e-001
7.097057e+002;2.487091e-001
7.116342e+002;2.696195e-001
7.135627e+002;2.949394e-001
7.154913e+002;3.277929e-001
7.174199e+002;3.730541e-001
7.193484e+002;4.218183e-001
7.212770e+002;4.643320e-001
7.232055e+002;4.920211e-001
7.251340e+002;4.827502e-001
7.270626e+002;4.352142e-001
7.289911e+002;3.750943e-001
7.309197e+002;3.192117e-001
7.328483e+002;2.715531e-001
7.347768e+002;2.276962e-001
7.367053e+002;1.879315e-001
7.386339e+002;1.536277e-001
7.405624e+002;1.263539e-001
7.424910e+002;1.079948e-001
7.444196e+002;9.625284e-002
7.463481e+002;8.882910e-002
7.482766e+002;8.501615e-002
7.502052e+002;8.225743e-002
7.521337e+002;8.111025e-002
7.540623e+002;8.154207e-002
7.559908e+002;8.158961e-002
7.579194e+002;8.130895e-002
7.598479e+002;8.130084e-002
7.617765e+002;8.267692e-002
7.637050e+002;8.453441e-002
7.656335e+002;8.606212e-002
7.675621e+002;8.755747e-002
7.694907e+002;9.006271e-002
7.714192e+002;9.252396e-002
7.733478e+002;9.437015e-002
7.752763e+002;9.608407e-002
7.772048e+002;9.758830e-002
7.791334e+002;9.962878e-002
7.810620e+002;1.029804e-001
7.829905e+002;1.067436e-001
7.849191e+002;1.106250e-001
7.868476e+002;1.151813e-001
7.887761e+002;1.200463e-001
7.907047e+002;1.240837e-001
7.926332e+002;1.250488e-001
7.945618e+002;1.204245e-001
7.964903e+002;1.120857e-001
7.984189e+002;1.054994e-001
8.003474e+002;1.028217e-001
8.022759e+002;1.024189e-001
8.042045e+002;1.035884e-001
8.061331e+002;1.042392e-001
8.080616e+002;1.042655e-001
8.099902e+002;1.047951e-001
8.119187e+002;1.065193e-001
8.138472e+002;1.074049e-001
8.157758e+002;1.073105e-001
8.177043e+002;1.076716e-001
8.196329e+002;1.084514e-001
8.215615e+002;1.097704e-001
8.234900e+002;1.105710e-001
8.254185e+002;1.108402e-001
8.273471e+002;1.128817e-001
8.292756e+002;1.164154e-001
8.312042e+002;1.197210e-001
8.331328e+002;1.233809e-001
8.350613e+002;1.272829e-001
8.369898e+002;1.309717e-001
8.389184e+002;1.351066e-001
8.408469e+002;1.394800e-001
8.427755e+002;1.445201e-001
8.447040e+002;1.490113e-001
8.466326e+002;1.520713e-001
8.485611e+002;1.527710e-001
8.504897e+002;1.508477e-001
8.524182e+002;1.478562e-001
8.543467e+002;1.454496e-001
8.562753e+002;1.448773e-001
8.582039e+002;1.456105e-001
8.601324e+002;1.466382e-001
8.620610e+002;1.485693e-001
8.639895e+002;1.536846e-001
8.659180e+002;1.630668e-001
8.678466e+002;1.793283e-001
8.697751e+002;2.033670e-001
8.717037e+002;2.214413e-001
8.736323e+002;2.177874e-001
8.755608e+002;2.005603e-001
8.774893e+002;1.828639e-001
8.794179e+002;1.668398e-001
8.813464e+002;1.519827e-001
8.832750e+002;1.390968e-001
8.852036e+002;1.293977e-001
8.871321e+002;1.225585e-001
8.890606e+002;1.179537e-001
8.909892e+002;1.154993e-001
8.929177e+002;1.142645e-001
8.948463e+002;1.138924e-001
8.967748e+002;1.142029e-001
8.987034e+002;1.138253e-001
9.006319e+002;1.128804e-001
9.025605e+002;1.118087e-001
9.044890e+002;1.102693e-001
9.064175e+002;1.081016e-001
9.083461e+002;1.056058e-001
9.102747e+002;1.032160e-001
9.122032e+002;1.016928e-001
9.141318e+002;1.007245e-001
9.160603e+002;9.949448e-002
9.179888e+002;9.879370e-002
9.199174e+002;9.865629e-002
9.218459e+002;9.860984e-002
9.237745e+002;9.859408e-002
9.257031e+002;9.897415e-002
9.276316e+002;9.969018e-002
9.295601e+002;1.002275e-001
9.314887e+002;1.012059e-001
9.334172e+002;1.026979e-001
9.353458e+002;1.038412e-001
9.372744e+002;1.047176e-001
9.392029e+002;1.060683e-001
9.411314e+002;1.075223e-001
9.430600e+002;1.091018e-001
9.449885e+002;1.106977e-001
9.469171e+002;1.121870e-001
9.488456e+002;1.142636e-001
9.507742e+002;1.167390e-001
9.527027e+002;1.191816e-001
9.546313e+002;1.218463e-001
9.565598e+002;1.248204e-001
9.584883e+002;1.280196e-001
9.604169e+002;1.313447e-001
9.623455e+002;1.352087e-001
9.642740e+002;1.394234e-001
9.662026e+002;1.427683e-001
9.681311e+002;1.449710e-001
9.700596e+002;1.461860e-001
9.719882e+002;1.458289e-001
9.739167e+002;1.437839e-001
9.758453e+002;1.406923e-001
9.777739e+002;1.373743e-001
9.797024e+002;1.343411e-001
9.816309e+002;1.316628e-001
9.835595e+002;1.293686e-001
9.854880e+002;1.282081e-001
9.874166e+002;1.275238e-001
9.893452e+002;1.266534e-001
9.912737e+002;1.259775e-001
9.932022e+002;1.259778e-001
9.951307e+002;1.264820e-001
9.970593e+002;1.272640e-001
9.989879e+002;1.288010e-001
1.000916e+003;1.312271e-001
1.002845e+003;1.343736e-001
1.004773e+003;1.388794e-001
1.006702e+003;1.452642e-001
1.008631e+003;1.544018e-001
1.010559e+003;1.689988e-001
1.012488e+003;1.936483e-001
1.014416e+003;2.277600e-001
1.016345e+003;2.597748e-001
1.018273e+003;2.707558e-001
1.020202e+003;2.557534e-001
1.022130e+003;2.281883e-001
1.024059e+003;1.995674e-001
1.025988e+003;1.745035e-001
1.027916e+003;1.564857e-001
1.029845e+003;1.471198e-001
1.031773e+003;1.440699e-001
1.033702e+003;1.440801e-001
1.035630e+003;1.458911e-001
1.037559e+003;1.483225e-001
1.039487e+003;1.506331e-001
1.041416e+003;1.530742e-001
1.043344e+003;1.550765e-001
1.045273e+003;1.560751e-001
1.047202e+003;1.565466e-001
1.049130e+003;1.565136e-001
1.051059e+003;1.559440e-001
1.052987e+003;1.557755e-001
1.054916e+003;1.563949e-001
1.056844e+003;1.578973e-001
1.058773e+003;1.601386e-001
1.060701e+003;1.634625e-001
1.062630e+003;1.682386e-001
1.064558e+003;1.744767e-001
1.066487e+003;1.816015e-001
1.068416e+003;1.905489e-001
1.070344e+003;2.012877e-001
1.072273e+003;2.147324e-001
1.074201e+003;2.317525e-001
1.076130e+003;2.519039e-001
1.078058e+003;2.756975e-001
1.079987e+003;3.015237e-001
1.081915e+003;3.275034e-001
1.083844e+003;3.513418e-001
1.085773e+003;3.718499e-001
1.087701e+003;3.898347e-001
1.089630e+003;4.056707e-001
1.091558e+003;4.197117e-001
1.093487e+003;4.319847e-001
1.095415e+003;4.413036e-001
1.097344e+003;4.451501e-001
1.099272e+003;4.424786e-001
1.101201e+003;4.319806e-001
1.103129e+003;4.145342e-001
1.105058e+003;3.935975e-001
1.106987e+003;3.702294e-001
1.108915e+003;3.483572e-001
1.110844e+003;3.331372e-001
1.112772e+003;3.259755e-001
1.114701e+003;3.247512e-001
1.116629e+003;3.241399e-001
1.118558e+003;3.209166e-001
1.120486e+003;3.139592e-001
1.122415e+003;3.026355e-001
1.124344e+003;2.890341e-001
1.126272e+003;2.741199e-001
1.128201e+003;2.572637e-001
1.130129e+003;2.399112e-001
1.132058e+003;2.227875e-001
1.133986e+003;2.057874e-001
1.135915e+003;1.897891e-001
1.137843e+003;1.755215e-001
1.139772e+003;1.634280e-001
1.141700e+003;1.537335e-001
1.143629e+003;1.458366e-001
1.145557e+003;1.383746e-001
1.147486e+003;1.314026e-001
1.149415e+003;1.259148e-001
1.151343e+003;1.216746e-001
1.153272e+003;1.178987e-001
1.155200e+003;1.145152e-001
1.157129e+003;1.120612e-001
1.159057e+003;1.108309e-001
1.160986e+003;1.104693e-001
1.162914e+003;1.101795e-001
1.164843e+003;1.106776e-001
1.166771e+003;1.134404e-001
1.168700e+003;1.176622e-001
1.170629e+003;1.223423e-001
1.172557e+003;1.261783e-001
1.174486e+003;1.285033e-001
1.176414e+003;1.288019e-001
1.178343e+003;1.272559e-001
1.180271e+003;1.247439e-001
1.182200e+003;1.222323e-001
1.184128e+003;1.207528e-001
1.186057e+003;1.200588e-001
1.187986e+003;1.204591e-001
1.189914e+003;1.220480e-001
1.191843e+003;1.242598e-001
1.193771e+003;1.269978e-001
1.195700e+003;1.306109e-001
1.197628e+003;1.349739e-001
1.199557e+003;1.395901e-001
1.201485e+003;1.441590e-001
1.203414e+003;1.492148e-001
1.205343e+003;1.549076e-001
1.207271e+003;1.609715e-001
1.209200e+003;1.673379e-001
1.211128e+003;1.744501e-001
1.213057e+003;1.823988e-001
1.214985e+003;1.912178e-001
1.216914e+003;2.012091e-001
1.218842e+003;2.113967e-001
1.220771e+003;2.217118e-001
1.222699e+003;2.328975e-001
1.224628e+003;2.449846e-001
1.226557e+003;2.595901e-001
1.228485e+003;2.780669e-001
1.230414e+003;3.010372e-001
1.232342e+003;3.291287e-001
1.234271e+003;3.622514e-001
1.236199e+003;3.995677e-001
1.238128e+003;4.371572e-001
1.240056e+003;4.702532e-001
1.241985e+003;4.955429e-001
1.243913e+003;5.098004e-001
1.245842e+003;5.133118e-001
1.247771e+003;5.084293e-001
1.249699e+003;4.985285e-001
1.251628e+003;4.858271e-001
1.253556e+003;4.726036e-001
1.255485e+003;4.610793e-001
1.257413e+003;4.507337e-001
1.259342e+003;4.396134e-001
1.261270e+003;4.263942e-001
1.263199e+003;4.102094e-001
1.265127e+003;3.908413e-001
1.267056e+003;3.695924e-001
1.268985e+003;3.477614e-001
1.270913e+003;3.271552e-001
1.272842e+003;3.082297e-001
1.274770e+003;2.914487e-001
1.276699e+003;2.772527e-001
1.278627e+003;2.648435e-001
1.280556e+003;2.536589e-001
1.282484e+003;2.430803e-001
1.284413e+003;2.328115e-001
1.286342e+003;2.224345e-001
1.288270e+003;2.122554e-001
1.290199e+003;2.018428e-001
1.292127e+003;1.907417e-001
1.294056e+003;1.799889e-001
1.295984e+003;1.697076e-001
1.297913e+003;1.593360e-001
1.299841e+003;1.495368e-001
1.301770e+003;1.409399e-001
1.303698e+003;1.341545e-001
1.305627e+003;1.283661e-001
1.307556e+003;1.227788e-001
1.309484e+003;1.174995e-001
1.311413e+003;1.127905e-001
1.313341e+003;1.088531e-001
1.315270e+003;1.050989e-001
1.317198e+003;1.016567e-001
1.319127e+003;9.926005e-002
1.321055e+003;9.757444e-002
1.322984e+003;9.648362e-002
1.324912e+003;9.676383e-002
1.326841e+003;9.940295e-002
1.328770e+003;1.052386e-001
1.330698e+003;1.159528e-001
1.332627e+003;1.316780e-001
1.334555e+003;1.498318e-001
1.336484e+003;1.658793e-001
1.338412e+003;1.740081e-001
1.340341e+003;1.712398e-001
1.342269e+003;1.592703e-001
1.344198e+003;1.423825e-001
1.346126e+003;1.252264e-001
1.348055e+003;1.108601e-001
1.349984e+003;1.004587e-001
1.351912e+003;9.345939e-002
1.353841e+003;8.883023e-002
1.355769e+003;8.608235e-002
1.357698e+003;8.445487e-002
1.359626e+003;8.403816e-002
1.361555e+003;8.505779e-002
1.363483e+003;8.688507e-002
1.365412e+003;8.937892e-002
1.367341e+003;9.212028e-002
1.369269e+003;9.415494e-002
1.371198e+003;9.487090e-002
1.373126e+003;9.470785e-002
1.375055e+003;9.409008e-002
1.376983e+003;9.350911e-002
1.378912e+003;9.312533e-002
1.380840e+003;9.313428e-002
1.382769e+003;9.338219e-002
1.384698e+003;9.363405e-002
1.386626e+003;9.408379e-002
1.388555e+003;9.497425e-002
1.390483e+003;9.621823e-002
1.392412e+003;9.796649e-002
1.394340e+003;1.004185e-001
1.396269e+003;1.044101e-001
1.398197e+003;1.100355e-001
1.400126e+003;1.176041e-001
1.402054e+003;1.280630e-001
1.403983e+003;1.414872e-001
1.405911e+003;1.559845e-001
1.407840e+003;1.660686e-001
1.409769e+003;1.660599e-001
1.411697e+003;1.543733e-001
1.413626e+003;1.350648e-001
1.415554e+003;1.151086e-001
1.417483e+003;9.940304e-002
1.419411e+003;8.892082e-002
1.421340e+003;8.281234e-002
1.423268e+003;7.944807e-002
1.425197e+003;7.809033e-002
1.427125e+003;7.826520e-002
1.429054e+003;7.939858e-002
1.430983e+003;8.129720e-002
1.432911e+003;8.376226e-002
1.434840e+003;8.616974e-002
1.436768e+003;8.841913e-002
1.438697e+003;9.070885e-002
1.440625e+003;9.231580e-002
1.442554e+003;9.343288e-002
1.444482e+003;9.484158e-002
1.446411e+003;9.646095e-002
1.448340e+003;9.796238e-002
1.450268e+003;9.956460e-002
1.452197e+003;1.008680e-001
1.454125e+003;1.013475e-001
1.456054e+003;1.009604e-001
1.457982e+003;1.006953e-001
1.459911e+003;1.007133e-001
1.461839e+003;1.000018e-001
1.463768e+003;9.893054e-002
1.465697e+003;9.869305e-002
1.467625e+003;9.982397e-002
1.469554e+003;1.016256e-001
1.471482e+003;1.018140e-001
1.473411e+003;9.995687e-002
1.475339e+003;9.726278e-002
1.477268e+003;9.439239e-002
1.479196e+003;9.139449e-002
1.481125e+003;8.808520e-002
1.483053e+003;8.472284e-002
1.484982e+003;8.123380e-002
1.486911e+003;7.793532e-002
1.488839e+003;7.525905e-002
1.490768e+003;7.361146e-002
1.492696e+003;7.315004e-002
1.494625e+003;7.327185e-002
1.496553e+003;7.492039e-002
1.498482e+003;7.912175e-002
1.500410e+003;8.585101e-002
1.502339e+003;9.439239e-002
1.504267e+003;1.006534e-001
1.506196e+003;9.947690e-002
1.508125e+003;9.215764e-002
1.510053e+003;8.376853e-002
1.511982e+003;7.768761e-002
1.513910e+003;7.442616e-002
1.515839e+003;7.284636e-002
1.517767e+003;7.216550e-002
1.519696e+003;7.187586e-002
1.521624e+003;7.204936e-002
1.523553e+003;7.283206e-002
1.525481e+003;7.330327e-002
1.527410e+003;7.312898e-002
1.529339e+003;7.260011e-002
1.531267e+003;7.171160e-002
1.533196e+003;7.081772e-002
1.535124e+003;7.045390e-002
1.537053e+003;6.988329e-002
1.538981e+003;6.884738e-002
1.540910e+003;6.855089e-002
1.542838e+003;6.906832e-002
1.544767e+003;6.952889e-002
1.546695e+003;6.998616e-002
1.548624e+003;7.035399e-002
1.550553e+003;7.066052e-002
1.552481e+003;7.092241e-002
1.554410e+003;7.123189e-002
1.556338e+003;7.134105e-002
1.558267e+003;7.114644e-002
1.560195e+003;7.192551e-002
1.562124e+003;7.322443e-002
1.564052e+003;7.429490e-002
1.565981e+003;7.559076e-002
1.567910e+003;7.693033e-002
1.569838e+003;7.870222e-002
1.571767e+003;8.148399e-002
1.573695e+003;8.439153e-002
1.575624e+003;8.698027e-002
1.577552e+003;8.922191e-002
1.579481e+003;8.979286e-002
1.581409e+003;8.793993e-002
1.583338e+003;8.467403e-002
1.585266e+003;8.141465e-002
1.587195e+003;7.880041e-002
1.589124e+003;7.709048e-002
1.591052e+003;7.601970e-002
1.592981e+003;7.523281e-002
1.594909e+003;7.495276e-002
1.596838e+003;7.544433e-002
1.598766e+003;7.627567e-002
1.600695e+003;7.718173e-002
1.602623e+003;7.835825e-002
1.604552e+003;8.001550e-002
1.606480e+003;8.179961e-002
1.608409e+003;8.338840e-002
1.610338e+003;8.529685e-002
1.612266e+003;8.713879e-002
1.614195e+003;8.792804e-002
1.616123e+003;8.715000e-002
1.618052e+003;8.585663e-002
1.619980e+003;8.471603e-002
1.621909e+003;8.370239e-002
1.623837e+003;8.334954e-002
1.625766e+003;8.338567e-002
1.627694e+003;8.373365e-002
1.629623e+003;8.446353e-002
1.631552e+003;8.516008e-002
1.633480e+003;8.535024e-002
1.635409e+003;8.575820e-002
1.637337e+003;8.705477e-002
1.639266e+003;8.849274e-002
1.641194e+003;8.955208e-002
1.643123e+003;9.027100e-002
1.645051e+003;9.104494e-002
1.646980e+003;9.220664e-002
1.648909e+003;9.389676e-002
1.650837e+003;9.504040e-002
1.652766e+003;9.582879e-002
1.654694e+003;9.790372e-002
1.656623e+003;1.004826e-001
1.658551e+003;1.029242e-001
1.660480e+003;1.054956e-001
1.662408e+003;1.082864e-001
1.664337e+003;1.117454e-001
1.666266e+003;1.153525e-001
1.668194e+003;1.185862e-001
1.670123e+003;1.219247e-001
1.672051e+003;1.254502e-001
1.673980e+003;1.290688e-001
1.675908e+003;1.333478e-001
1.677837e+003;1.380596e-001
1.679765e+003;1.426820e-001
1.681694e+003;1.466695e-001
1.683622e+003;1.498782e-001
1.685551e+003;1.539635e-001
1.687479e+003;1.591835e-001
1.689408e+003;1.653620e-001
1.691337e+003;1.728910e-001
1.693265e+003;1.821043e-001
1.695194e+003;1.939252e-001
1.697122e+003;2.091751e-001
1.699051e+003;2.279273e-001
1.700979e+003;2.528912e-001
1.702908e+003;2.843125e-001
1.704836e+003;3.223559e-001
1.706765e+003;3.679698e-001
1.708693e+003;4.179620e-001
1.710622e+003;4.645278e-001
1.712551e+003;4.979896e-001
1.714479e+003;5.095919e-001
1.716408e+003;4.987419e-001
1.718336e+003;4.728538e-001
1.720265e+003;4.410821e-001
1.722193e+003;4.069970e-001
1.724122e+003;3.731579e-001
1.726050e+003;3.404226e-001
1.727979e+003;3.090921e-001
1.729908e+003;2.797577e-001
1.731836e+003;2.528704e-001
1.733765e+003;2.269249e-001
1.735693e+003;2.029585e-001
1.737622e+003;1.810794e-001
1.739550e+003;1.598392e-001
1.741479e+003;1.398581e-001
1.743407e+003;1.219362e-001
1.745336e+003;1.068364e-001
1.747265e+003;9.459672e-002
1.749193e+003;8.492775e-002
1.751122e+003;7.779270e-002
1.753050e+003;7.315812e-002
1.754979e+003;6.982052e-002
1.756907e+003;6.721104e-002
1.758836e+003;6.540088e-002
1.760764e+003;6.401810e-002
1.762693e+003;6.318619e-002
1.764621e+003;6.260828e-002
1.766550e+003;6.178919e-002
1.768479e+003;6.112380e-002
1.770407e+003;6.076320e-002
1.772336e+003;6.054557e-002
1.774264e+003;6.051163e-002
1.776193e+003;6.030727e-002
1.778121e+003;6.009698e-002
1.780050e+003;6.013462e-002
1.781978e+003;6.014238e-002
1.783907e+003;6.000186e-002
1.785835e+003;5.981576e-002
1.787764e+003;5.958211e-002
1.789693e+003;5.941240e-002
1.791621e+003;5.939234e-002
1.793550e+003;5.965744e-002
1.795478e+003;5.992571e-002
1.797407e+003;5.985173e-002
1.799335e+003;5.977328e-002
1.801264e+003;5.995093e-002
1.803192e+003;6.023349e-002
1.805121e+003;6.035996e-002
1.807049e+003;6.031678e-002
1.808978e+003;6.035577e-002
1.810907e+003;6.039092e-002
1.812835e+003;6.039423e-002
1.814764e+003;6.058012e-002
1.816692e+003;6.070966e-002
1.818621e+003;6.078085e-002
1.820549e+003;6.065914e-002
1.822478e+003;6.055978e-002
1.824406e+003;6.042385e-002
1.826335e+003;6.023726e-002
1.828264e+003;5.996158e-002
1.830192e+003;5.974359e-002
1.832121e+003;5.958857e-002
1.834049e+003;5.914783e-002
1.835978e+003;5.851472e-002
1.837906e+003;5.800119e-002
1.839835e+003;5.742953e-002
1.841763e+003;5.675582e-002
1.843692e+003;5.592002e-002
1.845620e+003;5.525200e-002
1.847549e+003;5.484410e-002
1.849478e+003;5.435843e-002
1.851406e+003;5.381415e-002
1.853335e+003;5.308256e-002
1.855263e+003;5.230503e-002
1.857192e+003;5.160217e-002
1.859120e+003;5.098293e-002
1.861049e+003;5.053524e-002
1.862977e+003;5.019088e-002
1.864906e+003;4.995975e-002
1.866834e+003;4.966562e-002
1.868763e+003;4.927336e-002
1.870692e+003;4.898763e-002
1.872620e+003;4.880415e-002
1.874549e+003;4.868041e-002
1.876477e+003;4.849413e-002
1.878406e+003;4.838270e-002
1.880334e+003;4.829071e-002
1.882263e+003;4.818740e-002
1.884191e+003;4.810078e-002
1.886120e+003;4.782141e-002
1.888048e+003;4.776659e-002
1.889977e+003;4.793525e-002
1.891906e+003;4.812240e-002
1.893834e+003;4.820921e-002
1.895763e+003;4.820651e-002
1.897691e+003;4.821292e-002
1.899620e+003;4.834029e-002
1.901548e+003;4.862085e-002
1.903477e+003;4.884234e-002
1.905405e+003;4.896768e-002
1.907334e+003;4.906635e-002
1.909262e+003;4.948968e-002
1.911191e+003;4.994272e-002
1.913120e+003;5.018508e-002
1.915048e+003;5.030303e-002
1.916977e+003;5.037149e-002
1.918905e+003;5.094828e-002
1.920834e+003;5.154292e-002
1.922762e+003;5.190000e-002
1.924691e+003;5.234458e-002
1.926619e+003;5.281467e-002
1.928548e+003;5.351463e-002
1.930477e+003;5.411816e-002
1.932405e+003;5.441424e-002
1.934334e+003;5.502861e-002
1.936262e+003;5.581183e-002
1.938191e+003;5.647709e-002
1.940119e+003;5.714704e-002
1.942048e+003;5.794242e-002
1.943976e+003;5.870910e-002
1.945905e+003;5.936811e-002
1.947833e+003;5.990544e-002
1.949762e+003;6.006236e-002
1.951691e+003;6.023837e-002
1.953619e+003;6.078935e-002
1.955548e+003;6.116762e-002
1.957476e+003;6.107536e-002
1.959405e+003;6.071984e-002
1.961333e+003;6.048166e-002
1.963262e+003;6.011175e-002
1.965190e+003;5.923779e-002
1.967119e+003;5.821250e-002
1.969047e+003;5.741410e-002
1.970976e+003;5.669314e-002
1.972905e+003;5.609126e-002
1.974833e+003;5.534172e-002
1.976762e+003;5.463952e-002
1.978690e+003;5.447050e-002
1.980619e+003;5.424815e-002
1.982547e+003;5.364534e-002
1.984476e+003;5.325449e-002
1.986404e+003;5.295760e-002
1.988333e+003;5.257332e-002
1.990261e+003;5.196281e-002
1.992190e+003;5.160131e-002
1.994119e+003;5.132624e-002
1.996047e+003;5.072762e-002
1.997976e+003;5.023343e-002
1.999904e+003;4.989582e-002
2.001833e+003;4.954368e-002
2.003761e+003;4.929348e-002
2.005690e+003;4.899216e-002
2.007618e+003;4.854241e-002
2.009547e+003;4.813613e-002
2.011476e+003;4.776759e-002
2.013404e+003;4.760100e-002
2.015333e+003;4.733699e-002
2.017261e+003;4.709478e-002
2.019190e+003;4.701324e-002
2.021118e+003;4.679324e-002
2.023047e+003;4.652430e-002
2.024975e+003;4.618251e-002
2.026904e+003;4.598614e-002
2.028833e+003;4.581018e-002
2.030761e+003;4.558342e-002
2.032690e+003;4.544647e-002
2.034618e+003;4.555340e-002
2.036547e+003;4.591339e-002
2.038475e+003;4.601281e-002
2.040404e+003;4.575896e-002
2.042332e+003;4.579836e-002
2.044261e+003;4.613645e-002
2.046189e+003;4.645095e-002
2.048118e+003;4.659951e-002
2.050047e+003;4.686558e-002
2.051975e+003;4.724625e-002
2.053904e+003;4.736481e-002
2.055832e+003;4.751742e-002
2.057761e+003;4.802617e-002
2.059689e+003;4.841893e-002
2.061618e+003;4.893182e-002
2.063546e+003;4.930373e-002
2.065475e+003;4.939404e-002
2.067404e+003;4.977901e-002
2.069332e+003;5.026684e-002
2.071260e+003;5.066614e-002
2.073189e+003;5.128340e-002
2.075118e+003;5.167110e-002
2.077046e+003;5.180199e-002
2.078975e+003;5.205936e-002
2.080903e+003;5.230365e-002
2.082832e+003;5.246140e-002
2.084760e+003;5.266215e-002
2.086689e+003;5.282579e-002
2.088617e+003;5.275369e-002
2.090546e+003;5.265227e-002
2.092475e+003;5.283926e-002
2.094403e+003;5.320475e-002
2.096332e+003;5.321419e-002
2.098260e+003;5.314498e-002
2.100189e+003;5.316251e-002
2.102117e+003;5.322075e-002
2.104046e+003;5.323487e-002
2.105974e+003;5.306032e-002
2.107903e+003;5.302270e-002
2.109832e+003;5.292377e-002
2.111760e+003;5.266562e-002
2.113688e+003;5.252934e-002
2.115617e+003;5.266308e-002
2.117546e+003;5.277995e-002
2.119474e+003;5.257156e-002
2.121403e+003;5.215051e-002
2.123331e+003;5.165930e-002
2.125260e+003;5.133251e-002
2.127188e+003;5.128500e-002
2.129117e+003;5.118303e-002
2.131045e+003;5.082020e-002
2.132974e+003;5.027971e-002
2.134903e+003;4.983624e-002
2.136831e+003;4.959282e-002
2.138760e+003;4.942942e-002
2.140688e+003;4.948686e-002
2.142617e+003;4.941164e-002
2.144545e+003;4.904383e-002
2.146474e+003;4.878183e-002
2.148402e+003;4.840996e-002
2.150331e+003;4.792211e-002
2.152260e+003;4.763653e-002
2.154188e+003;4.733507e-002
2.156117e+003;4.692859e-002
2.158045e+003;4.676320e-002
2.159974e+003;4.639144e-002
2.161902e+003;4.581401e-002
2.163831e+003;4.551708e-002
2.165759e+003;4.542620e-002
2.167688e+003;4.524392e-002
2.169616e+003;4.500251e-002
2.171545e+003;4.493794e-002
2.173474e+003;4.473956e-002
2.175402e+003;4.448976e-002
2.177331e+003;4.434210e-002
2.179259e+003;4.431326e-002
2.181188e+003;4.415665e-002
2.183116e+003;4.395649e-002
2.185045e+003;4.384212e-002
2.186973e+003;4.391231e-002
2.188902e+003;4.404651e-002
2.190831e+003;4.415595e-002
2.192759e+003;4.429763e-002
2.194688e+003;4.428398e-002
2.196616e+003;4.406712e-002
2.198545e+003;4.404908e-002
2.200473e+003;4.439157e-002
2.202402e+003;4.451307e-002
2.204330e+003;4.442842e-002
2.206259e+003;4.463482e-002
2.208188e+003;4.498641e-002
2.210116e+003;4.516851e-002
2.212044e+003;4.532012e-002
2.213973e+003;4.545137e-002
2.215902e+003;4.554162e-002
2.217830e+003;4.548039e-002
2.219759e+003;4.532770e-002
2.221687e+003;4.532053e-002
2.223616e+003;4.548790e-002
2.225544e+003;4.558928e-002
2.227473e+003;4.561861e-002
2.229401e+003;4.571972e-002
2.231330e+003;4.584571e-002
2.233259e+003;4.583698e-002
2.235187e+003;4.573783e-002
2.237116e+003;4.573731e-002
2.239044e+003;4.598327e-002
2.240973e+003;4.648480e-002
2.242901e+003;4.678357e-002
2.244830e+003;4.671675e-002
2.246758e+003;4.661736e-002
2.248687e+003;4.648462e-002
2.250615e+003;4.655978e-002
2.252544e+003;4.685454e-002
2.254473e+003;4.696141e-002
2.256401e+003;4.684428e-002
2.258330e+003;4.699083e-002
2.260258e+003;4.719390e-002
2.262187e+003;4.715775e-002
2.264115e+003;4.700719e-002
2.266044e+003;4.677095e-002
2.267972e+003;4.657608e-002
2.269901e+003;4.675804e-002
2.271830e+003;4.708185e-002
2.273758e+003;4.713972e-002
2.275687e+003;4.726284e-002
2.277615e+003;4.737290e-002
2.279544e+003;4.733133e-002
2.281472e+003;4.735535e-002
2.283401e+003;4.747372e-002
2.285329e+003;4.751723e-002
2.287258e+003;4.738965e-002
2.289187e+003;4.697736e-002
2.291115e+003;4.643852e-002
2.293043e+003;4.620507e-002
2.294972e+003;4.595501e-002
2.296901e+003;4.536352e-002
2.298829e+003;4.480777e-002
2.300758e+003;4.431708e-002
2.302686e+003;4.380928e-002
2.304615e+003;4.346867e-002
2.306543e+003;4.311859e-002
2.308472e+003;4.282942e-002
2.310400e+003;4.261526e-002
2.312329e+003;4.240953e-002
2.314258e+003;4.223969e-002
2.316186e+003;4.196231e-002
2.318115e+003;4.177294e-002
2.320043e+003;4.173113e-002
2.321972e+003;4.145743e-002
2.323900e+003;4.118124e-002
2.325829e+003;4.103573e-002
2.327757e+003;4.084775e-002
2.329686e+003;4.068263e-002
2.331615e+003;4.046552e-002
2.333543e+003;4.033042e-002
2.335472e+003;4.028120e-002
2.337400e+003;4.047363e-002
2.339329e+003;4.070675e-002
2.341257e+003;4.087440e-002
2.343186e+003;4.138953e-002
2.345114e+003;4.225287e-002
2.347043e+003;4.320002e-002
2.348971e+003;4.358133e-002
2.350900e+003;4.313528e-002
2.352829e+003;4.257583e-002
2.354757e+003;4.198545e-002
2.356686e+003;4.157085e-002
2.358614e+003;4.155171e-002
2.360543e+003;4.163503e-002
2.362471e+003;4.188487e-002
2.364400e+003;4.226167e-002
2.366328e+003;4.274163e-002
2.368257e+003;4.342183e-002
2.370186e+003;4.421835e-002
2.372114e+003;4.516417e-002
2.374042e+003;4.603171e-002
2.375971e+003;4.664451e-002
2.377900e+003;4.707325e-002
2.379828e+003;4.741034e-002
2.381757e+003;4.760640e-002
2.383685e+003;4.746182e-002
2.385614e+003;4.739360e-002
2.387542e+003;4.769303e-002
2.389471e+003;4.772539e-002
2.391399e+003;4.756773e-002
2.393328e+003;4.753423e-002
2.395257e+003;4.744944e-002
2.397185e+003;4.718674e-002
2.399114e+003;4.703994e-002
2.401042e+003;4.701683e-002
2.402971e+003;4.689308e-002
2.404899e+003;4.676044e-002
2.406828e+003;4.641116e-002
2.408756e+003;4.614382e-002
2.410685e+003;4.605632e-002
2.412614e+003;4.581485e-002
2.414542e+003;4.551413e-002
2.416471e+003;4.532579e-002
2.418399e+003;4.503489e-002
2.420328e+003;4.472079e-002
2.422256e+003;4.446329e-002
2.424185e+003;4.421501e-002
2.426113e+003;4.401736e-002
2.428042e+003;4.379436e-002
2.429970e+003;4.352840e-002
2.431899e+003;4.332846e-002
2.433828e+003;4.308745e-002
2.435756e+003;4.279922e-002
2.437685e+003;4.250873e-002
2.439613e+003;4.219587e-002
2.441542e+003;4.208897e-002
2.443470e+003;4.213332e-002
2.445399e+003;4.198267e-002
2.447327e+003;4.174726e-002
2.449256e+003;4.148671e-002
2.451185e+003;4.149330e-002
2.453113e+003;4.157107e-002
2.455042e+003;4.140411e-002
2.456970e+003;4.118842e-002
2.458899e+003;4.119385e-002
2.460827e+003;4.145499e-002
2.462756e+003;4.136635e-002
2.464684e+003;4.095522e-002
2.466613e+003;4.094339e-002
2.468542e+003;4.113892e-002
2.470470e+003;4.131212e-002
2.472398e+003;4.158143e-002
2.474327e+003;4.172552e-002
2.476256e+003;4.174762e-002
2.478184e+003;4.168295e-002
2.480113e+003;4.189166e-002
2.482041e+003;4.228015e-002
2.483970e+003;4.249072e-002
2.485898e+003;4.265682e-002
2.487827e+003;4.260952e-002
2.489755e+003;4.274353e-002
2.491684e+003;4.306140e-002
2.493613e+003;4.327179e-002
2.495541e+003;4.333271e-002
2.497470e+003;4.344490e-002
2.499398e+003;4.357408e-002
2.501327e+003;4.359723e-002
2.503255e+003;4.368816e-002
2.505184e+003;4.390326e-002
2.507112e+003;4.403646e-002
2.509041e+003;4.409844e-002
2.510969e+003;4.401358e-002
2.512898e+003;4.416274e-002
2.514827e+003;4.443675e-002
2.516755e+003;4.458334e-002
2.518684e+003;4.480439e-002
2.520612e+003;4.486993e-002
2.522541e+003;4.450749e-002
2.524469e+003;4.467899e-002
2.526398e+003;4.535925e-002
2.528326e+003;4.571792e-002
2.530255e+003;4.564246e-002
2.532184e+003;4.547362e-002
2.534112e+003;4.554806e-002
2.536041e+003;4.594264e-002
2.537969e+003;4.598795e-002
2.539898e+003;4.563745e-002
2.541826e+003;4.543290e-002
2.543755e+003;4.546406e-002
2.545683e+003;4.565589e-002
2.547612e+003;4.577708e-002
2.549541e+003;4.573220e-002
2.551469e+003;4.582248e-002
2.553397e+003;4.581839e-002
2.555326e+003;4.574122e-002
2.557255e+003;4.562578e-002
2.559183e+003;4.538967e-002
2.561112e+003;4.537301e-002
2.563040e+003;4.553143e-002
2.564969e+003;4.541631e-002
2.566897e+003;4.537879e-002
2.568826e+003;4.522554e-002
2.570754e+003;4.510605e-002
2.572683e+003;4.546763e-002
2.574612e+003;4.585142e-002
2.576540e+003;4.587937e-002
2.578469e+003;4.580517e-002
2.580397e+003;4.561011e-002
2.582326e+003;4.531409e-002
2.584254e+003;4.517788e-002
2.586183e+003;4.513311e-002
2.588111e+003;4.505959e-002
2.590040e+003;4.488958e-002
2.591969e+003;4.466085e-002
2.593897e+003;4.432677e-002
2.595826e+003;4.414216e-002
2.597754e+003;4.405627e-002
2.599683e+003;4.373356e-002
2.601611e+003;4.340616e-002
2.603540e+003;4.322828e-002
2.605468e+003;4.320339e-002
2.607397e+003;4.321462e-002
2.609325e+003;4.291596e-002
2.611254e+003;4.253084e-002
2.613183e+003;4.247924e-002
2.615111e+003;4.270880e-002
2.617040e+003;4.283908e-002
2.618968e+003;4.257436e-002
2.620897e+003;4.231777e-002
2.622825e+003;4.235634e-002
2.624754e+003;4.241687e-002
2.626682e+003;4.240920e-002
2.628611e+003;4.236222e-002
2.630540e+003;4.226934e-002
2.632468e+003;4.223271e-002
2.634396e+003;4.228307e-002
2.636325e+003;4.195811e-002
2.638254e+003;4.157866e-002
2.640182e+003;4.134397e-002
2.642111e+003;4.104210e-002
2.644039e+003;4.074766e-002
2.645968e+003;4.034323e-002
2.647896e+003;4.005299e-002
2.649825e+003;4.010790e-002
2.651753e+003;4.020897e-002
2.653682e+003;4.011149e-002
2.655611e+003;3.985864e-002
2.657539e+003;3.961207e-002
2.659468e+003;3.965305e-002
2.661396e+003;3.983304e-002
2.663325e+003;3.986300e-002
2.665253e+003;3.992900e-002
2.667182e+003;3.986467e-002
2.669110e+003;3.983554e-002
2.671039e+003;3.987219e-002
2.672968e+003;3.986543e-002
2.674896e+003;3.991733e-002
2.676825e+003;3.990444e-002
2.678753e+003;4.004413e-002
2.680682e+003;4.041308e-002
2.682610e+003;4.056635e-002
2.684539e+003;4.044602e-002
2.686467e+003;4.006044e-002
2.688396e+003;3.985236e-002
2.690324e+003;3.982258e-002
2.692253e+003;3.988279e-002
2.694182e+003;4.004151e-002
2.696110e+003;3.995780e-002
2.698039e+003;3.989191e-002
2.699967e+003;4.025695e-002
2.701896e+003;4.036351e-002
2.703824e+003;4.018883e-002
2.705753e+003;3.997586e-002
2.707681e+003;4.026222e-002
2.709610e+003;4.067928e-002
2.711539e+003;4.088503e-002
2.713467e+003;4.087174e-002
2.715396e+003;4.067149e-002
2.717324e+003;4.048345e-002
2.719253e+003;4.075093e-002
2.721181e+003;4.126573e-002
2.723110e+003;4.145641e-002
2.725038e+003;4.148627e-002
2.726967e+003;4.178469e-002
2.728896e+003;4.218272e-002
2.730824e+003;4.235565e-002
2.732752e+003;4.230225e-002
2.734681e+003;4.248388e-002
2.736610e+003;4.270522e-002
2.738538e+003;4.289518e-002
2.740467e+003;4.295271e-002
2.742395e+003;4.283652e-002
2.744324e+003;4.294061e-002
2.746252e+003;4.299343e-002
2.748181e+003;4.284080e-002
2.750109e+003;4.294953e-002
2.752038e+003;4.306148e-002
2.753967e+003;4.318238e-002
2.755895e+003;4.322326e-002
2.757824e+003;4.308745e-002
2.759752e+003;4.291281e-002
2.761681e+003;4.291676e-002
2.763609e+003;4.295648e-002
2.765538e+003;4.299595e-002
2.767466e+003;4.330694e-002
2.769395e+003;4.343640e-002
2.771323e+003;4.332964e-002
2.773252e+003;4.332938e-002
2.775181e+003;4.376050e-002
2.777109e+003;4.428105e-002
2.779038e+003;4.431656e-002
2.780966e+003;4.415544e-002
2.782895e+003;4.409881e-002
2.784823e+003;4.431568e-002
2.786752e+003;4.478374e-002
2.788680e+003;4.552164e-002
2.790609e+003;4.606390e-002
2.792538e+003;4.631244e-002
2.794466e+003;4.652898e-002
2.796395e+003;4.673162e-002
2.798323e+003;4.662736e-002
2.800252e+003;4.669837e-002
2.802180e+003;4.696875e-002
2.804109e+003;4.738872e-002
2.806037e+003;4.778668e-002
2.807966e+003;4.794250e-002
2.809895e+003;4.784283e-002
2.811823e+003;4.783672e-002
2.813751e+003;4.774969e-002
2.815680e+003;4.718700e-002
2.817609e+003;4.677564e-002
2.819537e+003;4.686997e-002
2.821466e+003;4.692017e-002
2.823394e+003;4.676025e-002
2.825323e+003;4.682531e-002
2.827251e+003;4.717008e-002
2.829180e+003;4.738044e-002
2.831108e+003;4.762633e-002
2.833037e+003;4.831230e-002
2.834966e+003;4.883403e-002
2.836894e+003;4.885150e-002
2.838823e+003;4.892399e-002
2.840751e+003;4.952715e-002
2.842680e+003;5.016150e-002
2.844608e+003;5.102902e-002
2.846537e+003;5.209007e-002
2.848465e+003;5.296681e-002
2.850394e+003;5.347146e-002
2.852323e+003;5.391509e-002
2.854251e+003;5.431457e-002
2.856180e+003;5.479910e-002
2.858108e+003;5.516076e-002
2.860037e+003;5.549699e-002
2.861965e+003;5.579533e-002
2.863894e+003;5.584940e-002
2.865822e+003;5.593408e-002
2.867751e+003;5.629004e-002
2.869679e+003;5.681707e-002
2.871608e+003;5.698792e-002
2.873536e+003;5.682606e-002
2.875465e+003;5.677953e-002
2.877394e+003;5.739432e-002
2.879322e+003;5.822387e-002
2.881251e+003;5.850759e-002
2.883179e+003;5.886480e-002
2.885108e+003;5.909598e-002
2.887036e+003;5.944652e-002
2.888965e+003;5.984390e-002
2.890893e+003;5.999262e-002
2.892822e+003;6.024312e-002
2.894750e+003;6.050847e-002
2.896679e+003;6.119406e-002
2.898608e+003;6.192872e-002
2.900536e+003;6.272683e-002
2.902465e+003;6.371280e-002
2.904393e+003;6.421466e-002
2.906322e+003;6.471490e-002
2.908250e+003;6.523987e-002
2.910179e+003;6.539965e-002
2.912107e+003;6.508599e-002
2.914036e+003;6.444970e-002
2.915965e+003;6.369723e-002
2.917893e+003;6.272648e-002
2.919822e+003;6.137778e-002
2.921750e+003;6.075512e-002
2.923679e+003;6.028621e-002
2.925607e+003;6.000297e-002
2.927536e+003;6.016799e-002
2.929464e+003;5.980260e-002
2.931393e+003;5.957173e-002
2.933322e+003;5.970716e-002
2.935250e+003;6.014740e-002
2.937178e+003;6.076537e-002
2.939107e+003;6.123190e-002
2.941036e+003;6.188772e-002
2.942964e+003;6.267438e-002
2.944893e+003;6.385042e-002
2.946821e+003;6.501325e-002
2.948750e+003;6.596918e-002
2.950678e+003;6.684973e-002
2.952607e+003;6.793891e-002
2.954535e+003;6.942153e-002
2.956464e+003;7.049435e-002
2.958393e+003;7.093427e-002
2.960321e+003;7.148404e-002
2.962250e+003;7.213151e-002
2.964178e+003;7.236966e-002
2.966107e+003;7.284495e-002
2.968035e+003;7.345074e-002
2.969964e+003;7.341398e-002
2.971892e+003;7.322565e-002
2.973821e+003;7.296738e-002
2.975750e+003;7.240685e-002
2.977678e+003;7.164450e-002
2.979607e+003;7.085243e-002
2.981535e+003;6.999013e-002
2.983464e+003;6.904769e-002
2.985392e+003;6.850476e-002
2.987321e+003;6.777726e-002
2.989249e+003;6.673836e-002
2.991178e+003;6.597512e-002
2.993106e+003;6.551287e-002
2.995035e+003;6.505755e-002
2.996964e+003;6.461404e-002
2.998892e+003;6.430571e-002
3.000821e+003;6.416257e-002
3.002749e+003;6.359421e-002
3.004678e+003;6.295563e-002
3.006606e+003;6.257548e-002
3.008535e+003;6.191034e-002
3.010463e+003;6.121790e-002
3.012392e+003;6.064679e-002
3.014321e+003;6.023566e-002
3.016249e+003;5.989513e-002
3.018177e+003;5.917256e-002
3.020106e+003;5.777426e-002
3.022035e+003;5.651087e-002
3.023963e+003;5.588576e-002
3.025892e+003;5.503470e-002
3.027820e+003;5.391993e-002
3.029749e+003;5.302273e-002
3.031677e+003;5.267816e-002
3.033606e+003;5.268912e-002
3.035534e+003;5.255140e-002
3.037463e+003;5.228208e-002
3.039392e+003;5.215776e-002
3.041320e+003;5.238162e-002
3.043249e+003;5.298429e-002
3.045177e+003;5.379285e-002
3.047106e+003;5.500127e-002
3.049034e+003;5.656435e-002
3.050963e+003;5.766433e-002
3.052891e+003;5.809144e-002
3.054820e+003;5.829855e-002
3.056749e+003;5.817057e-002
3.058677e+003;5.800596e-002
3.060606e+003;5.785882e-002
3.062534e+003;5.793973e-002
3.064463e+003;5.787650e-002
3.066391e+003;5.773150e-002
3.068320e+003;5.777252e-002
3.070248e+003;5.779395e-002
3.072177e+003;5.749817e-002
3.074105e+003;5.749632e-002
3.076034e+003;5.779190e-002
3.077963e+003;5.768635e-002
3.079891e+003;5.732641e-002
3.081820e+003;5.694704e-002
3.083748e+003;5.698429e-002
3.085677e+003;5.686473e-002
3.087605e+003;5.597263e-002
3.089534e+003;5.532737e-002
3.091462e+003;5.499112e-002
3.093391e+003;5.455637e-002
3.095320e+003;5.447388e-002
3.097248e+003;5.502579e-002
3.099177e+003;5.577905e-002
3.101105e+003;5.603841e-002
3.103034e+003;5.601021e-002
3.104962e+003;5.575683e-002
3.106891e+003;5.538063e-002
3.108819e+003;5.493291e-002
3.110748e+003;5.469172e-002
3.112677e+003;5.448203e-002
3.114605e+003;5.359132e-002
3.116533e+003;5.259643e-002
3.118462e+003;5.222177e-002
3.120391e+003;5.187487e-002
3.122319e+003;5.153326e-002
3.124248e+003;5.114997e-002
3.126176e+003;5.112917e-002
3.128105e+003;5.123359e-002
3.130033e+003;5.118598e-002
3.131962e+003;5.094489e-002
3.133890e+003;5.047480e-002
3.135819e+003;4.998733e-002
3.137748e+003;4.967145e-002
3.139676e+003;4.933446e-002
3.141605e+003;4.864287e-002
3.143533e+003;4.805467e-002
3.145462e+003;4.763047e-002
3.147390e+003;4.745779e-002
3.149319e+003;4.751117e-002
3.151247e+003;4.747735e-002
3.153176e+003;4.696259e-002
3.155104e+003;4.624041e-002
3.157033e+003;4.592187e-002
3.158962e+003;4.582012e-002
3.160890e+003;4.579641e-002
3.162819e+003;4.566833e-002
3.164747e+003;4.547488e-002
3.166676e+003;4.543580e-002
3.168604e+003;4.534572e-002
3.170533e+003;4.544754e-002
3.172461e+003;4.546056e-002
3.174390e+003;4.538338e-002
3.176319e+003;4.531983e-002
3.178247e+003;4.512542e-002
3.180176e+003;4.475763e-002
3.182104e+003;4.494452e-002
3.184033e+003;4.538747e-002
3.185961e+003;4.539567e-002
3.187890e+003;4.535650e-002
3.189818e+003;4.519064e-002
3.191747e+003;4.492493e-002
3.193676e+003;4.495966e-002
3.195604e+003;4.493331e-002
3.197532e+003;4.454739e-002
3.199461e+003;4.437410e-002
3.201390e+003;4.439466e-002
3.203318e+003;4.408927e-002
3.205247e+003;4.388695e-002
3.207175e+003;4.417700e-002
3.209104e+003;4.467723e-002
3.211032e+003;4.470151e-002
3.212961e+003;4.437458e-002
3.214889e+003;4.399261e-002
3.216818e+003;4.381609e-002
3.218747e+003;4.360515e-002
3.220675e+003;4.379260e-002
3.222604e+003;4.439165e-002
3.224532e+003;4.444963e-002
3.226461e+003;4.423174e-002
3.228389e+003;4.449563e-002
3.230318e+003;4.464928e-002
3.232246e+003;4.461987e-002
3.234175e+003;4.442486e-002
3.236104e+003;4.424531e-002
3.238032e+003;4.429994e-002
3.239961e+003;4.421545e-002
3.241889e+003;4.422789e-002
3.243818e+003;4.416021e-002
3.245746e+003;4.394175e-002
3.247675e+003;4.409470e-002
3.249603e+003;4.402521e-002
3.251532e+003;4.354584e-002
3.253460e+003;4.301622e-002
3.255389e+003;4.283663e-002
3.257318e+003;4.307285e-002
3.259246e+003;4.326682e-002
3.261175e+003;4.320390e-002
3.263103e+003;4.314703e-002
3.265032e+003;4.301377e-002
3.266960e+003;4.285042e-002
3.268889e+003;4.271992e-002
3.270817e+003;4.260049e-002
3.272746e+003;4.282994e-002
3.274675e+003;4.307772e-002
3.276603e+003;4.319907e-002
3.278531e+003;4.346072e-002
3.280460e+003;4.326378e-002
3.282389e+003;4.291127e-002
3.284317e+003;4.273875e-002
3.286246e+003;4.289657e-002
3.288174e+003;4.317612e-002
3.290103e+003;4.359166e-002
3.292031e+003;4.375504e-002
3.293960e+003;4.373730e-002
3.295888e+003;4.394337e-002
3.297817e+003;4.423702e-002
3.299746e+003;4.428629e-002
3.301674e+003;4.374683e-002
3.303603e+003;4.330331e-002
3.305531e+003;4.320796e-002
3.307460e+003;4.328197e-002
3.309388e+003;4.324808e-002
3.311317e+003;4.308251e-002
3.313245e+003;4.274328e-002
3.315174e+003;4.256881e-002
3.317103e+003;4.269228e-002
3.319031e+003;4.300674e-002
3.320960e+003;4.330291e-002
3.322888e+003;4.332286e-002
3.324817e+003;4.306309e-002
3.326745e+003;4.299284e-002
3.328674e+003;4.329738e-002
3.330602e+003;4.333377e-002
3.332531e+003;4.324533e-002
3.334459e+003;4.353302e-002
3.336388e+003;4.361188e-002
3.338317e+003;4.317656e-002
3.340245e+003;4.271886e-002
3.342174e+003;4.255631e-002
3.344102e+003;4.246755e-002
3.346031e+003;4.258142e-002
3.347959e+003;4.266468e-002
3.349888e+003;4.269305e-002
3.351816e+003;4.256000e-002
3.353745e+003;4.217608e-002
3.355674e+003;4.185276e-002
3.357602e+003;4.145831e-002
3.359531e+003;4.111487e-002
3.361459e+003;4.122966e-002
3.363388e+003;4.101884e-002
3.365316e+003;4.079588e-002
3.367245e+003;4.080425e-002
3.369173e+003;4.059418e-002
3.371102e+003;4.051356e-002
3.373031e+003;4.043308e-002
3.374959e+003;4.026604e-002
3.376887e+003;3.980442e-002
3.378816e+003;3.992006e-002
3.380745e+003;4.024914e-002
3.382673e+003;4.028618e-002
3.384602e+003;4.021882e-002
3.386530e+003;4.022609e-002
3.388459e+003;4.041475e-002
3.390387e+003;4.093600e-002
3.392316e+003;4.121717e-002
3.394244e+003;4.132313e-002
3.396173e+003;4.154420e-002
3.398102e+003;4.208882e-002
3.400030e+003;4.244881e-002
3.401959e+003;4.262279e-002
3.403887e+003;4.318319e-002
3.405816e+003;4.387122e-002
3.407744e+003;4.459406e-002
3.409673e+003;4.531927e-002
3.411601e+003;4.602456e-002
3.413530e+003;4.666694e-002
3.415458e+003;4.755124e-002
3.417387e+003;4.839681e-002
3.419316e+003;4.917992e-002
3.421244e+003;5.016701e-002
3.423173e+003;5.119246e-002
3.425101e+003;5.213998e-002
3.427030e+003;5.263237e-002
3.428958e+003;5.263529e-002
3.430887e+003;5.295917e-002
3.432815e+003;5.281509e-002
3.434744e+003;5.274396e-002
3.436673e+003;5.235138e-002
3.438601e+003;5.152262e-002
3.440530e+003;5.076992e-002
3.442458e+003;5.007779e-002
3.444387e+003;4.943670e-002
3.446315e+003;4.887653e-002
3.448244e+003;4.823987e-002
3.450172e+003;4.725534e-002
3.452101e+003;4.649059e-002
3.454030e+003;4.582358e-002
3.455958e+003;4.528169e-002
3.457886e+003;4.470051e-002
3.459815e+003;4.425525e-002
3.461744e+003;4.373125e-002
3.463672e+003;4.282833e-002
3.465601e+003;4.224308e-002
3.467529e+003;4.202684e-002
3.469458e+003;4.159937e-002
3.471386e+003;4.107121e-002
3.473315e+003;4.072968e-002
3.475243e+003;4.041108e-002
3.477172e+003;4.009678e-002
3.479101e+003;4.034744e-002
3.481029e+003;4.050225e-002
3.482958e+003;4.025979e-002
3.484886e+003;4.001597e-002
3.486815e+003;3.982105e-002
3.488743e+003;3.963334e-002
3.490672e+003;3.961893e-002
3.492600e+003;4.002363e-002
3.494529e+003;4.017764e-002
3.496458e+003;3.999123e-002
3.498386e+003;3.999726e-002
3.500315e+003;3.979908e-002
3.502243e+003;3.960662e-002
3.504172e+003;3.971001e-002
3.506100e+003;3.996111e-002
3.508029e+003;4.045963e-002
3.509957e+003;4.103107e-002
3.511886e+003;4.096032e-002
3.513814e+003;4.066884e-002
3.515743e+003;4.063609e-002
3.517672e+003;4.065352e-002
3.519600e+003;4.084615e-002
3.521529e+003;4.072771e-002
3.523457e+003;4.073099e-002
3.525386e+003;4.127747e-002
3.527314e+003;4.159488e-002
3.529243e+003;4.179636e-002
3.531171e+003;4.217082e-002
3.533100e+003;4.236606e-002
3.535029e+003;4.234225e-002
3.536957e+003;4.260908e-002
3.538885e+003;4.281041e-002
3.540814e+003;4.270986e-002
3.542743e+003;4.245421e-002
3.544671e+003;4.200099e-002
3.546600e+003;4.192472e-002
3.548528e+003;4.249097e-002
3.550457e+003;4.292601e-002
3.552385e+003;4.261705e-002
3.554314e+003;4.196165e-002
3.556242e+003;4.148937e-002
3.558171e+003;4.107958e-002
3.560100e+003;4.124194e-002
3.562028e+003;4.139335e-002
3.563957e+003;4.090294e-002
3.565885e+003;4.037915e-002
3.567814e+003;4.072280e-002
3.569742e+003;4.114617e-002
3.571671e+003;4.105981e-002
3.573599e+003;4.056067e-002
3.575528e+003;3.987168e-002
3.577457e+003;3.934260e-002
3.579385e+003;3.913497e-002
3.581314e+003;3.914980e-002
3.583242e+003;3.915165e-002
3.585171e+003;3.876145e-002
3.587099e+003;3.809104e-002
3.589028e+003;3.795484e-002
3.590956e+003;3.770212e-002
3.592885e+003;3.743856e-002
3.594813e+003;3.740281e-002
3.596742e+003;3.748306e-002
3.598671e+003;3.759426e-002
3.600599e+003;3.735084e-002
3.602528e+003;3.687651e-002
3.604456e+003;3.692593e-002
3.606385e+003;3.693052e-002
3.608313e+003;3.701458e-002
3.610242e+003;3.745995e-002
3.612170e+003;3.751539e-002
3.614099e+003;3.747591e-002
3.616028e+003;3.741610e-002
3.617956e+003;3.707996e-002
3.619885e+003;3.702901e-002
3.621813e+003;3.751568e-002
3.623742e+003;3.788105e-002
3.625670e+003;3.792436e-002
3.627599e+003;3.767621e-002
3.629527e+003;3.767892e-002
3.631456e+003;3.798048e-002
3.633385e+003;3.782031e-002
3.635313e+003;3.747664e-002
3.637241e+003;3.745182e-002
3.639170e+003;3.693138e-002
3.641099e+003;3.650562e-002
3.643027e+003;3.673182e-002
3.644956e+003;3.709422e-002
3.646884e+003;3.720961e-002
3.648813e+003;3.676705e-002
3.650741e+003;3.667583e-002
3.652670e+003;3.689440e-002
3.654598e+003;3.653607e-002
3.656527e+003;3.619125e-002
3.658456e+003;3.609683e-002
3.660384e+003;3.575840e-002
3.662313e+003;3.542469e-002
3.664241e+003;3.491817e-002
3.666170e+003;3.466670e-002
3.668098e+003;3.446108e-002
3.670027e+003;3.432121e-002
3.671955e+003;3.453939e-002
3.673884e+003;3.441642e-002
3.675813e+003;3.404923e-002
3.677741e+003;3.402852e-002
3.679669e+003;3.447364e-002
3.681598e+003;3.554604e-002
3.683527e+003;3.617245e-002
3.685455e+003;3.596403e-002
3.687384e+003;3.559729e-002
3.689312e+003;3.557981e-002
3.691241e+003;3.504023e-002
3.693169e+003;3.436507e-002
3.695098e+003;3.422013e-002
3.697026e+003;3.378531e-002
3.698955e+003;3.346242e-002
3.700884e+003;3.350769e-002
3.702812e+003;3.355332e-002
3.704741e+003;3.330866e-002
3.706669e+003;3.267354e-002
3.708598e+003;3.211412e-002
3.710526e+003;3.188360e-002
3.712455e+003;3.163739e-002
3.714383e+003;3.212472e-002
3.716312e+003;3.209618e-002
3.718240e+003;3.185650e-002
3.720169e+003;3.220254e-002
3.722098e+003;3.237786e-002
3.724026e+003;3.217581e-002
3.725955e+003;3.213139e-002
3.727883e+003;3.248765e-002
3.729812e+003;3.269698e-002
3.731740e+003;3.262514e-002
3.733669e+003;3.245426e-002
3.735597e+003;3.225279e-002
3.737526e+003;3.250921e-002
3.739455e+003;3.261707e-002
3.741383e+003;3.244069e-002
3.743312e+003;3.174780e-002
3.745240e+003;3.151309e-002
3.747169e+003;3.201021e-002
3.749097e+003;3.222595e-002
3.751026e+003;3.283247e-002
3.752954e+003;3.297115e-002
3.754883e+003;3.294909e-002
3.756812e+003;3.328856e-002
3.758740e+003;3.338981e-002
3.760668e+003;3.303950e-002
3.762597e+003;3.280488e-002
3.764526e+003;3.292361e-002
3.766454e+003;3.308183e-002
3.768383e+003;3.302244e-002
3.770311e+003;3.313075e-002
3.772240e+003;3.308680e-002
3.774168e+003;3.282468e-002
3.776097e+003;3.295895e-002
3.778025e+003;3.294312e-002
3.779954e+003;3.295227e-002
3.781883e+003;3.308716e-002
3.783811e+003;3.286041e-002
3.785740e+003;3.282757e-002
3.787668e+003;3.273806e-002
3.789597e+003;3.279966e-002
3.791525e+003;3.307701e-002
3.793454e+003;3.336287e-002
3.795382e+003;3.336558e-002
3.797311e+003;3.314316e-002
3.799240e+003;3.291349e-002
3.801168e+003;3.268387e-002
3.803097e+003;3.289523e-002
3.805025e+003;3.311066e-002
3.806954e+003;3.309088e-002
3.808882e+003;3.358071e-002
3.810811e+003;3.367462e-002
3.812739e+003;3.338100e-002
3.814668e+003;3.326455e-002
3.816596e+003;3.313833e-002
3.818525e+003;3.295674e-002
3.820454e+003;3.277497e-002
3.822382e+003;3.255349e-002
3.824311e+003;3.256310e-002
3.826239e+003;3.249153e-002
3.828168e+003;3.233770e-002
3.830096e+003;3.237811e-002
3.832025e+003;3.252260e-002
3.833953e+003;3.257357e-002
3.835882e+003;3.254707e-002
3.837811e+003;3.258864e-002
3.839739e+003;3.265189e-002
3.841667e+003;3.276722e-002
3.843596e+003;3.274403e-002
3.845525e+003;3.296192e-002
3.847453e+003;3.318783e-002
3.849382e+003;3.289869e-002
3.851310e+003;3.243237e-002
3.853239e+003;3.202687e-002
3.855167e+003;3.237614e-002
3.857096e+003;3.286599e-002
3.859024e+003;3.308791e-002
3.860953e+003;3.325064e-002
3.862882e+003;3.324145e-002
3.864810e+003;3.337460e-002
3.866739e+003;3.362095e-002
3.868667e+003;3.331828e-002
3.870596e+003;3.326273e-002
3.872524e+003;3.348603e-002
3.874453e+003;3.360638e-002
3.876381e+003;3.382535e-002
3.878310e+003;3.353962e-002
3.880239e+003;3.305212e-002
3.882167e+003;3.337206e-002
3.884096e+003;3.353958e-002
3.886024e+003;3.328741e-002
3.887953e+003;3.354448e-002
3.889881e+003;3.385501e-002
3.891810e+003;3.367028e-002
3.893738e+003;3.390792e-002
3.895667e+003;3.390286e-002
3.897595e+003;3.375297e-002
3.899524e+003;3.387091e-002
3.901453e+003;3.384544e-002
3.903381e+003;3.417174e-002
3.905310e+003;3.450524e-002
3.907238e+003;3.446635e-002
3.909167e+003;3.428327e-002
3.911095e+003;3.420052e-002
3.913024e+003;3.430521e-002
3.914952e+003;3.461266e-002
3.916881e+003;3.471487e-002
3.918810e+003;3.475884e-002
3.920738e+003;3.480705e-002
3.922667e+003;3.492118e-002
3.924595e+003;3.516708e-002
3.926524e+003;3.523046e-002
3.928452e+003;3.487249e-002
3.930381e+003;3.471192e-002
3.932309e+003;3.470848e-002
3.934238e+003;3.466577e-002
3.936167e+003;3.482230e-002
3.938095e+003;3.462429e-002
3.940023e+003;3.442518e-002
3.941952e+003;3.448343e-002
3.943881e+003;3.470797e-002
3.945809e+003;3.518192e-002
3.947738e+003;3.517667e-002
3.949666e+003;3.523266e-002
3.951595e+003;3.555485e-002
3.953523e+003;3.550210e-002
3.955452e+003;3.561192e-002
3.957380e+003;3.588996e-002
3.959309e+003;3.591364e-002
3.961238e+003;3.571005e-002
3.963166e+003;3.529878e-002
3.965095e+003;3.530442e-002
3.967023e+003;3.572728e-002
3.968952e+003;3.595323e-002
3.970880e+003;3.574153e-002
3.972809e+003;3.536549e-002
3.974737e+003;3.529209e-002
3.976666e+003;3.529095e-002
3.978594e+003;3.543832e-002
3.980523e+003;3.603293e-002
3.982452e+003;3.636307e-002
3.984380e+003;3.574372e-002
3.986309e+003;3.518745e-002
3.988237e+003;3.547373e-002
3.990166e+003;3.575829e-002
3.992094e+003;3.562221e-002
3.994023e+003;3.566519e-002
3.995951e+003;3.598256e-002
3.997880e+003;3.619445e-002
3.999809e+003;3.596637e-002
4.001737e+003;0.000000e+000
