3.992094e+002;0.000000e+000
4.011380e+002;0.000000e+000
4.030665e+002;0.000000e+000
4.049951e+002;0.000000e+000
4.069236e+002;0.000000e+000
4.088522e+002;0.000000e+000
4.107807e+002;0.000000e+000
4.127093e+002;0.000000e+000
4.146378e+002;0.000000e+000
4.165664e+002;0.000000e+000
4.184949e+002;0.000000e+000
4.204235e+002;0.000000e+000
4.223520e+002;0.000000e+000
4.242806e+002;0.000000e+000
4.262091e+002;0.000000e+000
4.281377e+002;0.000000e+000
4.300662e+002;0.000000e+000
4.319948e+002;0.000000e+000
4.339233e+002;0.000000e+000
4.358519e+002;0.000000e+000
4.377804e+002;0.000000e+000
4.397090e+002;0.000000e+000
4.416375e+002;0.000000e+000
4.435660e+002;0.000000e+000
4.454946e+002;0.000000e+000
4.474232e+002;0.000000e+000
4.493517e+002;0.000000e+000
4.512802e+002;0.000000e+000
4.532088e+002;0.000000e+000
4.551373e+002;0.000000e+000
4.570659e+002;0.000000e+000
4.589944e+002;0.000000e+000
4.609230e+002;0.000000e+000
4.628515e+002;0.000000e+000
4.647801e+002;0.000000e+000
4.667086e+002;0.000000e+000
4.686372e+002;0.000000e+000
4.705657e+002;0.000000e+000
4.724943e+002;0.000000e+000
4.744228e+002;0.000000e+000
4.763513e+002;0.000000e+000
4.782799e+002;0.000000e+000
4.802085e+002;0.000000e+000
4.821370e+002;0.000000e+000
4.840656e+002;0.000000e+000
4.859941e+002;0.000000e+000
4.879226e+002;0.000000e+000
4.898512e+002;0.000000e+000
4.917798e+002;0.000000e+000
4.937083e+002;0.000000e+000
4.956368e+002;0.000000e+000
4.975654e+002;0.000000e+000
4.994939e+002;0.000000e+000
5.014225e+002;0.000000e+000
5.033510e+002;0.000000e+000
5.052796e+002;0.000000e+000
5.072081e+002;0.000000e+000
5.091367e+002;0.000000e+000
5.110652e+002;0.000000e+000
5.129938e+002;0.000000e+000
5.149223e+002;0.000000e+000
5.168509e+002;0.000000e+000
5.187794e+002;0.000000e+000
5.207079e+002;0.000000e+000
5.226365e+002;0.000000e+000
5.245651e+002;0.000000e+000
5.264936e+002;0.000000e+000
5.284222e+002;0.000000e+000
5.303507e+002;0.000000e+000
5.322792e+002;0.000000e+000
5.342078e+002;0.000000e+000
5.361364e+002;0.000000e+000
5.380649e+002;0.000000e+000
5.399935e+002;0.000000e+000
5.419220e+002;0.000000e+000
5.438505e+002;0.000000e+000
5.457791e+002;0.000000e+000
5.477076e+002;0.000000e+000
5.496362e+002;0.000000e+000
5.515648e+002;0.000000e+000
5.534933e+002;0.000000e+000
5.554218e+002;0.000000e+000
5.573504e+002;0.000000e+000
5.592789e+002;0.000000e+000
5.612075e+002;0.000000e+000
5.631360e+002;0.000000e+000
5.650646e+002;0.000000e+000
5.669931e+002;0.000000e+000
5.689217e+002;0.000000e+000
5.708502e+002;0.000000e+000
5.727787e+002;0.000000e+000
5.747073e+002;0.000000e+000
5.766359e+002;0.000000e+000
5.785644e+002;0.000000e+000
5.804930e+002;0.000000e+000
5.824215e+002;0.000000e+000
5.843500e+002;0.000000e+000
5.862786e+002;0.000000e+000
5.882072e+002;0.000000e+000
5.901357e+002;0.000000e+000
5.920643e+002;0.000000e+000
5.939928e+002;0.000000e+000
5.959213e+002;0.000000e+000
5.978499e+002;0.000000e+000
5.997784e+002;1.856842e-002
6.017070e+002;1.169370e-002
6.036355e+002;1.407897e-002
6.055641e+002;8.418251e-003
6.074926e+002;1.744760e-003
6.094211e+002;6.053267e-003
6.113497e+002;5.688165e-003
6.132783e+002;1.966178e-003
6.152068e+002;6.442720e-004
6.171354e+002;4.401187e-003
6.190639e+002;8.516671e-003
6.209924e+002;9.137266e-003
6.229210e+002;7.167329e-003
6.248495e+002;6.739230e-003
6.267781e+002;3.702195e-003
6.287067e+002;3.595806e-003
6.306352e+002;4.211613e-003
6.325637e+002;2.147617e-004
6.344923e+002;-2.539313e-004
6.364208e+002;-1.632094e-003
6.383494e+002;-2.845553e-003
6.402780e+002;-1.400238e-003
6.422065e+002;2.977169e-003
6.441350e+002;7.401236e-003
6.460636e+002;7.829415e-003
6.479921e+002;6.706757e-003
6.499207e+002;7.133476e-003
6.518492e+002;6.964759e-003
6.537778e+002;5.706462e-003
6.557063e+002;7.572787e-003
6.576349e+002;5.614416e-003
6.595634e+002;3.687759e-003
6.614919e+002;5.357853e-003
6.634205e+002;6.660424e-003
6.653491e+002;7.291444e-003
6.672776e+002;7.331307e-003
6.692062e+002;5.546183e-003
6.711347e+002;6.496262e-003
6.730632e+002;8.367749e-003
6.749918e+002;4.540150e-003
6.769203e+002;2.681649e-003
6.788489e+002;4.936158e-003
6.807775e+002;5.098893e-003
6.827060e+002;2.219979e-003
6.846345e+002;-9.593628e-004
6.865631e+002;-3.628026e-005
6.884916e+002;1.639847e-003
6.904202e+002;6.841269e-004
6.923488e+002;-3.951093e-004
6.942773e+002;1.151076e-003
6.962058e+002;1.639382e-003
6.981344e+002;1.066929e-005
7.000629e+002;6.204803e-004
7.019915e+002;1.753543e-003
7.039200e+002;1.395726e-003
7.058486e+002;9.239972e-004
7.077771e+002;1.078027e-003
7.097057e+002;1.480464e-003
7.116342e+002;1.627176e-003
7.135627e+002;1.115364e-003
7.154913e+002;3.249345e-004
7.174199e+002;-2.588985e-004
7.193484e+002;-1.466651e-003
7.212770e+002;4.336096e-004
7.232055e+002;3.872993e-003
7.251340e+002;5.071570e-003
7.270626e+002;3.807674e-003
7.289911e+002;2.278431e-003
7.309197e+002;4.972856e-003
7.328483e+002;9.221058e-003
7.347768e+002;1.214797e-002
7.367053e+002;1.578460e-002
7.386339e+002;1.759615e-002
7.405624e+002;1.810307e-002
7.424910e+002;1.911352e-002
7.444196e+002;2.103797e-002
7.463481e+002;2.352941e-002
7.482766e+002;2.447592e-002
7.502052e+002;2.504288e-002
7.521337e+002;2.378833e-002
7.540623e+002;2.084197e-002
7.559908e+002;1.912111e-002
7.579194e+002;1.729986e-002
7.598479e+002;1.570239e-002
7.617765e+002;1.549325e-002
7.637050e+002;1.703957e-002
7.656335e+002;1.978292e-002
7.675621e+002;1.850272e-002
7.694907e+002;1.475943e-002
7.714192e+002;1.242887e-002
7.733478e+002;9.594902e-003
7.752763e+002;7.137114e-003
7.772048e+002;5.796579e-003
7.791334e+002;3.951697e-003
7.810620e+002;2.113553e-003
7.829905e+002;-1.114486e-004
7.849191e+002;-3.268141e-003
7.868476e+002;-5.659075e-003
7.887761e+002;-6.793440e-003
7.907047e+002;-7.811288e-003
7.926332e+002;-7.893452e-003
7.945618e+002;-7.731549e-003
7.964903e+002;-6.587266e-003
7.984189e+002;-3.860927e-003
8.003474e+002;-5.639064e-004
8.022759e+002;3.316259e-003
8.042045e+002;6.154513e-003
8.061331e+002;8.069181e-003
8.080616e+002;1.074500e-002
8.099902e+002;1.365546e-002
8.119187e+002;1.429489e-002
8.138472e+002;1.276880e-002
8.157758e+002;1.137940e-002
8.177043e+002;1.060064e-002
8.196329e+002;9.672990e-003
8.215615e+002;8.247075e-003
8.234900e+002;6.739769e-003
8.254185e+002;5.157297e-003
8.273471e+002;3.938155e-003
8.292756e+002;2.837171e-003
8.312042e+002;1.934093e-003
8.331328e+002;1.342942e-003
8.350613e+002;1.188018e-004
8.369898e+002;-1.372989e-003
8.389184e+002;-1.816712e-003
8.408469e+002;-1.368497e-003
8.427755e+002;-1.047230e-003
8.447040e+002;-8.562997e-004
8.466326e+002;-1.211941e-003
8.485611e+002;-1.727713e-003
8.504897e+002;-1.387390e-003
8.524182e+002;-1.088480e-003
8.543467e+002;-1.701772e-003
8.562753e+002;-2.146346e-003
8.582039e+002;-1.763486e-003
8.601324e+002;-1.406447e-003
8.620610e+002;-1.708208e-003
8.639895e+002;-2.706157e-003
8.659180e+002;-3.839843e-003
8.678466e+002;-5.423371e-003
8.697751e+002;-6.708163e-003
8.717037e+002;-7.797359e-003
8.736323e+002;-8.280180e-003
8.755608e+002;-8.741293e-003
8.774893e+002;-9.241556e-003
8.794179e+002;-9.659687e-003
8.813464e+002;-1.059445e-002
8.832750e+002;-1.048210e-002
8.852036e+002;-9.289754e-003
8.871321e+002;-8.946447e-003
8.890606e+002;-9.172721e-003
8.909892e+002;-8.462676e-003
8.929177e+002;-7.019501e-003
8.948463e+002;-6.470025e-003
8.967748e+002;-5.996689e-003
8.987034e+002;-5.058456e-003
9.006319e+002;-4.163351e-003
9.025605e+002;-3.376815e-003
9.044890e+002;-1.838521e-003
9.064175e+002;-2.471427e-004
9.083461e+002;1.555742e-003
9.102747e+002;2.778544e-003
9.122032e+002;3.584982e-003
9.141318e+002;4.996686e-003
9.160603e+002;5.574744e-003
9.179888e+002;4.988876e-003
9.199174e+002;5.438201e-003
9.218459e+002;6.174308e-003
9.237745e+002;6.013555e-003
9.257031e+002;5.713579e-003
9.276316e+002;5.911267e-003
9.295601e+002;7.436829e-003
9.314887e+002;9.782098e-003
9.334172e+002;1.167515e-002
9.353458e+002;1.264591e-002
9.372744e+002;1.311054e-002
9.392029e+002;1.438523e-002
9.411314e+002;1.603530e-002
9.430600e+002;1.793673e-002
9.449885e+002;2.013824e-002
9.469171e+002;2.232038e-002
9.488456e+002;2.402247e-002
9.507742e+002;2.572606e-002
9.527027e+002;2.784569e-002
9.546313e+002;2.975054e-002
9.565598e+002;3.151238e-002
9.584883e+002;3.266015e-002
9.604169e+002;3.293000e-002
9.623455e+002;3.336315e-002
9.642740e+002;3.347601e-002
9.662026e+002;3.331549e-002
9.681311e+002;3.314416e-002
9.700596e+002;3.389043e-002
9.719882e+002;3.524606e-002
9.739167e+002;3.585973e-002
9.758453e+002;3.719275e-002
9.777739e+002;3.987269e-002
9.797024e+002;4.223202e-002
9.816309e+002;4.425272e-002
9.835595e+002;4.637573e-002
9.854880e+002;4.827345e-002
9.874166e+002;4.958643e-002
9.893452e+002;5.036993e-002
9.912737e+002;5.169199e-002
9.932022e+002;5.230746e-002
9.951307e+002;5.101170e-002
9.970593e+002;4.846090e-002
9.989879e+002;4.545225e-002
1.000916e+003;4.180373e-002
1.002845e+003;3.792523e-002
1.004773e+003;3.523973e-002
1.006702e+003;3.293840e-002
1.008631e+003;3.115586e-002
1.010559e+003;3.031687e-002
1.012488e+003;3.023715e-002
1.014416e+003;3.026006e-002
1.016345e+003;3.000301e-002
1.018273e+003;2.978511e-002
1.020202e+003;2.858655e-002
1.022130e+003;2.647296e-002
1.024059e+003;2.500912e-002
1.025988e+003;2.475178e-002
1.027916e+003;2.425656e-002
1.029845e+003;2.395720e-002
1.031773e+003;2.468774e-002
1.033702e+003;2.549739e-002
1.035630e+003;2.632581e-002
1.037559e+003;2.737632e-002
1.039487e+003;2.812536e-002
1.041416e+003;2.946450e-002
1.043344e+003;3.164348e-002
1.045273e+003;3.430794e-002
1.047202e+003;3.592656e-002
1.049130e+003;3.694386e-002
1.051059e+003;3.862222e-002
1.052987e+003;4.008813e-002
1.054916e+003;4.190056e-002
1.056844e+003;4.454493e-002
1.058773e+003;4.698518e-002
1.060701e+003;4.873649e-002
1.062630e+003;5.086829e-002
1.064558e+003;5.214786e-002
1.066487e+003;5.339666e-002
1.068416e+003;5.575219e-002
1.070344e+003;5.819390e-002
1.072273e+003;6.091418e-002
1.074201e+003;6.375755e-002
1.076130e+003;6.704738e-002
1.078058e+003;7.046968e-002
1.079987e+003;7.373717e-002
1.081915e+003;7.716966e-002
1.083844e+003;8.056285e-002
1.085773e+003;8.364747e-002
1.087701e+003;8.746964e-002
1.089630e+003;9.237511e-002
1.091558e+003;9.771567e-002
1.093487e+003;1.027781e-001
1.095415e+003;1.072222e-001
1.097344e+003;1.115153e-001
1.099272e+003;1.152435e-001
1.101201e+003;1.169309e-001
1.103129e+003;1.162566e-001
1.105058e+003;1.151362e-001
1.106987e+003;1.124643e-001
1.108915e+003;1.086631e-001
1.110844e+003;1.031938e-001
1.112772e+003;9.664593e-002
1.114701e+003;9.029760e-002
1.116629e+003;8.282425e-002
1.118558e+003;7.598969e-002
1.120486e+003;6.908471e-002
1.122415e+003;6.168728e-002
1.124344e+003;5.550408e-002
1.126272e+003;4.981621e-002
1.128201e+003;4.371242e-002
1.130129e+003;3.839064e-002
1.132058e+003;3.434921e-002
1.133986e+003;3.052658e-002
1.135915e+003;2.673124e-002
1.137843e+003;2.407528e-002
1.139772e+003;2.197243e-002
1.141700e+003;1.930456e-002
1.143629e+003;1.703420e-002
1.145557e+003;1.540955e-002
1.147486e+003;1.384773e-002
1.149415e+003;1.226094e-002
1.151343e+003;1.084014e-002
1.153272e+003;1.001379e-002
1.155200e+003;9.417810e-003
1.157129e+003;8.623934e-003
1.159057e+003;7.345022e-003
1.160986e+003;6.539651e-003
1.162914e+003;6.037442e-003
1.164843e+003;5.428102e-003
1.166771e+003;5.208232e-003
1.168700e+003;5.391567e-003
1.170629e+003;6.745523e-003
1.172557e+003;8.360520e-003
1.174486e+003;9.601271e-003
1.176414e+003;1.098648e-002
1.178343e+003;1.289326e-002
1.180271e+003;1.507605e-002
1.182200e+003;1.697672e-002
1.184128e+003;1.819562e-002
1.186057e+003;1.935856e-002
1.187986e+003;2.135718e-002
1.189914e+003;2.420419e-002
1.191843e+003;2.775314e-002
1.193771e+003;3.174435e-002
1.195700e+003;3.605323e-002
1.197628e+003;4.062325e-002
1.199557e+003;4.543562e-002
1.201485e+003;4.991660e-002
1.203414e+003;5.450765e-002
1.205343e+003;5.896358e-002
1.207271e+003;6.213412e-002
1.209200e+003;6.326150e-002
1.211128e+003;6.267832e-002
1.213057e+003;6.093603e-002
1.214985e+003;5.926294e-002
1.216914e+003;5.848242e-002
1.218842e+003;5.787832e-002
1.220771e+003;5.674891e-002
1.222699e+003;5.493663e-002
1.224628e+003;5.289903e-002
1.226557e+003;5.088077e-002
1.228485e+003;4.839937e-002
1.230414e+003;4.641522e-002
1.232342e+003;4.496340e-002
1.234271e+003;4.362654e-002
1.236199e+003;4.227756e-002
1.238128e+003;4.102485e-002
1.240056e+003;4.034944e-002
1.241985e+003;4.011724e-002
1.243913e+003;4.008024e-002
1.245842e+003;3.985305e-002
1.247771e+003;4.022714e-002
1.249699e+003;4.039264e-002
1.251628e+003;3.885131e-002
1.253556e+003;3.518713e-002
1.255485e+003;2.998345e-002
1.257413e+003;2.546503e-002
1.259342e+003;2.179604e-002
1.261270e+003;1.862369e-002
1.263199e+003;1.683552e-002
1.265127e+003;1.632608e-002
1.267056e+003;1.658088e-002
1.268985e+003;1.644193e-002
1.270913e+003;1.589398e-002
1.272842e+003;1.575268e-002
1.274770e+003;1.528536e-002
1.276699e+003;1.480633e-002
1.278627e+003;1.468365e-002
1.280556e+003;1.465116e-002
1.282484e+003;1.451358e-002
1.284413e+003;1.431392e-002
1.286342e+003;1.428773e-002
1.288270e+003;1.460270e-002
1.290199e+003;1.518546e-002
1.292127e+003;1.585945e-002
1.294056e+003;1.667187e-002
1.295984e+003;1.814497e-002
1.297913e+003;1.970542e-002
1.299841e+003;2.165399e-002
1.301770e+003;2.376800e-002
1.303698e+003;2.549789e-002
1.305627e+003;2.707597e-002
1.307556e+003;2.834951e-002
1.309484e+003;2.881968e-002
1.311413e+003;2.826937e-002
1.313341e+003;2.719060e-002
1.315270e+003;2.627280e-002
1.317198e+003;2.513359e-002
1.319127e+003;2.323090e-002
1.321055e+003;2.087514e-002
1.322984e+003;1.848862e-002
1.324912e+003;1.612851e-002
1.326841e+003;1.379930e-002
1.328770e+003;1.223582e-002
1.330698e+003;1.137753e-002
1.332627e+003;1.050219e-002
1.334555e+003;9.929607e-003
1.336484e+003;9.557101e-003
1.338412e+003;9.007278e-003
1.340341e+003;8.325865e-003
1.342269e+003;8.230021e-003
1.344198e+003;8.393624e-003
1.346126e+003;8.026212e-003
1.348055e+003;8.342618e-003
1.349984e+003;9.539962e-003
1.351912e+003;1.086120e-002
1.353841e+003;1.263683e-002
1.355769e+003;1.474733e-002
1.357698e+003;1.703061e-002
1.359626e+003;1.984320e-002
1.361555e+003;2.314258e-002
1.363483e+003;2.703214e-002
1.365412e+003;3.125384e-002
1.367341e+003;3.520711e-002
1.369269e+003;3.754205e-002
1.371198e+003;3.720434e-002
1.373126e+003;3.495986e-002
1.375055e+003;3.121485e-002
1.376983e+003;2.713691e-002
1.378912e+003;2.356163e-002
1.380840e+003;2.023161e-002
1.382769e+003;1.691657e-002
1.384698e+003;1.406839e-002
1.386626e+003;1.219213e-002
1.388555e+003;1.049469e-002
1.390483e+003;9.198586e-003
1.392412e+003;8.891364e-003
1.394340e+003;8.814566e-003
1.396269e+003;8.783392e-003
1.398197e+003;9.267361e-003
1.400126e+003;1.020425e-002
1.402054e+003;1.173529e-002
1.403983e+003;1.423863e-002
1.405911e+003;1.750682e-002
1.407840e+003;2.155203e-002
1.409769e+003;2.486345e-002
1.411697e+003;2.669280e-002
1.413626e+003;2.700506e-002
1.415554e+003;2.560528e-002
1.417483e+003;2.243725e-002
1.419411e+003;1.855760e-002
1.421340e+003;1.571997e-002
1.423268e+003;1.398171e-002
1.425197e+003;1.349858e-002
1.427125e+003;1.447100e-002
1.429054e+003;1.617559e-002
1.430983e+003;1.748820e-002
1.432911e+003;1.816712e-002
1.434840e+003;1.865263e-002
1.436768e+003;1.893600e-002
1.438697e+003;1.905567e-002
1.440625e+003;1.996055e-002
1.442554e+003;2.138339e-002
1.444482e+003;2.271685e-002
1.446411e+003;2.374283e-002
1.448340e+003;2.419154e-002
1.450268e+003;2.454901e-002
1.452197e+003;2.519237e-002
1.454125e+003;2.605876e-002
1.456054e+003;2.675327e-002
1.457982e+003;2.697364e-002
1.459911e+003;2.687246e-002
1.461839e+003;2.715426e-002
1.463768e+003;2.692005e-002
1.465697e+003;2.650399e-002
1.467625e+003;2.692636e-002
1.469554e+003;2.767297e-002
1.471482e+003;2.825820e-002
1.473411e+003;2.851220e-002
1.475339e+003;2.851047e-002
1.477268e+003;2.874462e-002
1.479196e+003;2.926547e-002
1.481125e+003;3.068586e-002
1.483053e+003;3.304401e-002
1.484982e+003;3.463444e-002
1.486911e+003;3.487651e-002
1.488839e+003;3.392017e-002
1.490768e+003;3.171633e-002
1.492696e+003;2.904925e-002
1.494625e+003;2.656844e-002
1.496553e+003;2.468826e-002
1.498482e+003;2.373027e-002
1.500410e+003;2.378098e-002
1.502339e+003;2.482570e-002
1.504267e+003;2.672635e-002
1.506196e+003;2.925658e-002
1.508125e+003;3.281428e-002
1.510053e+003;3.670420e-002
1.511982e+003;4.003235e-002
1.513910e+003;4.287133e-002
1.515839e+003;4.471135e-002
1.517767e+003;4.547270e-002
1.519696e+003;4.553224e-002
1.521624e+003;4.510851e-002
1.523553e+003;4.462707e-002
1.525481e+003;4.433634e-002
1.527410e+003;4.390465e-002
1.529339e+003;4.313499e-002
1.531267e+003;4.260411e-002
1.533196e+003;4.215683e-002
1.535124e+003;4.141716e-002
1.537053e+003;4.063227e-002
1.538981e+003;3.988595e-002
1.540910e+003;3.847369e-002
1.542838e+003;3.619384e-002
1.544767e+003;3.422523e-002
1.546695e+003;3.225040e-002
1.548624e+003;2.923758e-002
1.550553e+003;2.614518e-002
1.552481e+003;2.352063e-002
1.554410e+003;2.112691e-002
1.556338e+003;1.903081e-002
1.558267e+003;1.695298e-002
1.560195e+003;1.474120e-002
1.562124e+003;1.287156e-002
1.564052e+003;1.115401e-002
1.565981e+003;9.678478e-003
1.567910e+003;8.302257e-003
1.569838e+003;7.028635e-003
1.571767e+003;6.571170e-003
1.573695e+003;6.085322e-003
1.575624e+003;5.425653e-003
1.577552e+003;5.284159e-003
1.579481e+003;5.831167e-003
1.581409e+003;6.520849e-003
1.583338e+003;7.488537e-003
1.585266e+003;9.033361e-003
1.587195e+003;1.072180e-002
1.589124e+003;1.288975e-002
1.591052e+003;1.546324e-002
1.592981e+003;1.766147e-002
1.594909e+003;1.929285e-002
1.596838e+003;1.983768e-002
1.598766e+003;1.983380e-002
1.600695e+003;2.000162e-002
1.602623e+003;1.965099e-002
1.604552e+003;1.857911e-002
1.606480e+003;1.730220e-002
1.608409e+003;1.641895e-002
1.610338e+003;1.583838e-002
1.612266e+003;1.524706e-002
1.614195e+003;1.456175e-002
1.616123e+003;1.360554e-002
1.618052e+003;1.246126e-002
1.619980e+003;1.112029e-002
1.621909e+003;9.639991e-003
1.623837e+003;8.732339e-003
1.625766e+003;8.469198e-003
1.627694e+003;8.555058e-003
1.629623e+003;8.909659e-003
1.631552e+003;9.430847e-003
1.633480e+003;1.009860e-002
1.635409e+003;1.147475e-002
1.637337e+003;1.305805e-002
1.639266e+003;1.414568e-002
1.641194e+003;1.539025e-002
1.643123e+003;1.654980e-002
1.645051e+003;1.743553e-002
1.646980e+003;1.832393e-002
1.648909e+003;1.930016e-002
1.650837e+003;2.004444e-002
1.652766e+003;2.050466e-002
1.654694e+003;2.127999e-002
1.656623e+003;2.192741e-002
1.658551e+003;2.248404e-002
1.660480e+003;2.295635e-002
1.662408e+003;2.294919e-002
1.664337e+003;2.331889e-002
1.666266e+003;2.392461e-002
1.668194e+003;2.407080e-002
1.670123e+003;2.408019e-002
1.672051e+003;2.456973e-002
1.673980e+003;2.519647e-002
1.675908e+003;2.564472e-002
1.677837e+003;2.620040e-002
1.679765e+003;2.674164e-002
1.681694e+003;2.763928e-002
1.683622e+003;2.841806e-002
1.685551e+003;2.886369e-002
1.687479e+003;2.971996e-002
1.689408e+003;3.089152e-002
1.691337e+003;3.157648e-002
1.693265e+003;3.190557e-002
1.695194e+003;3.242605e-002
1.697122e+003;3.308480e-002
1.699051e+003;3.330659e-002
1.700979e+003;3.306088e-002
1.702908e+003;3.269976e-002
1.704836e+003;3.229529e-002
1.706765e+003;3.169822e-002
1.708693e+003;3.056117e-002
1.710622e+003;2.948570e-002
1.712551e+003;2.873039e-002
1.714479e+003;2.813724e-002
1.716408e+003;2.817503e-002
1.718336e+003;2.904521e-002
1.720265e+003;3.075685e-002
1.722193e+003;3.350973e-002
1.724122e+003;3.699755e-002
1.726050e+003;3.992021e-002
1.727979e+003;4.159299e-002
1.729908e+003;4.188560e-002
1.731836e+003;4.070370e-002
1.733765e+003;3.817142e-002
1.735693e+003;3.420103e-002
1.737622e+003;2.929089e-002
1.739550e+003;2.442477e-002
1.741479e+003;1.959691e-002
1.743407e+003;1.511149e-002
1.745336e+003;1.097129e-002
1.747265e+003;7.666294e-003
1.749193e+003;5.056720e-003
1.751122e+003;2.537247e-003
1.753050e+003;4.504589e-004
1.754979e+003;-1.217261e-003
1.756907e+003;-2.497737e-003
1.758836e+003;-3.498477e-003
1.760764e+003;-4.312811e-003
1.762693e+003;-4.769305e-003
1.764621e+003;-5.139866e-003
1.766550e+003;-5.526501e-003
1.768479e+003;-6.221957e-003
1.770407e+003;-6.751521e-003
1.772336e+003;-7.063154e-003
1.774264e+003;-7.245478e-003
1.776193e+003;-7.323840e-003
1.778121e+003;-7.527970e-003
1.780050e+003;-7.634769e-003
1.781978e+003;-7.812622e-003
1.783907e+003;-7.875817e-003
1.785835e+003;-7.726113e-003
1.787764e+003;-7.610709e-003
1.789693e+003;-7.761266e-003
1.791621e+003;-8.114910e-003
1.793550e+003;-8.279205e-003
1.795478e+003;-7.982074e-003
1.797407e+003;-7.755310e-003
1.799335e+003;-8.147364e-003
1.801264e+003;-8.517914e-003
1.803192e+003;-8.659841e-003
1.805121e+003;-8.600626e-003
1.807049e+003;-8.365897e-003
1.808978e+003;-8.294647e-003
1.810907e+003;-8.444804e-003
1.812835e+003;-8.829028e-003
1.814764e+003;-9.281256e-003
1.816692e+003;-9.195884e-003
1.818621e+003;-8.950050e-003
1.820549e+003;-8.928692e-003
1.822478e+003;-9.026807e-003
1.824406e+003;-9.061562e-003
1.826335e+003;-8.983448e-003
1.828264e+003;-8.809646e-003
1.830192e+003;-8.867566e-003
1.832121e+003;-9.140342e-003
1.834049e+003;-9.183588e-003
1.835978e+003;-9.231112e-003
1.837906e+003;-9.174245e-003
1.839835e+003;-9.049230e-003
1.841763e+003;-8.940507e-003
1.843692e+003;-9.080349e-003
1.845620e+003;-9.343330e-003
1.847549e+003;-9.218006e-003
1.849478e+003;-9.209572e-003
1.851406e+003;-9.310219e-003
1.853335e+003;-9.095081e-003
1.855263e+003;-8.832308e-003
1.857192e+003;-8.958878e-003
1.859120e+003;-9.190303e-003
1.861049e+003;-8.979001e-003
1.862977e+003;-8.710410e-003
1.864906e+003;-8.670202e-003
1.866834e+003;-8.840620e-003
1.868763e+003;-9.132167e-003
1.870692e+003;-9.270391e-003
1.872620e+003;-9.092518e-003
1.874549e+003;-9.010450e-003
1.876477e+003;-9.231890e-003
1.878406e+003;-8.806593e-003
1.880334e+003;-8.469597e-003
1.882263e+003;-8.535458e-003
1.884191e+003;-8.710410e-003
1.886120e+003;-8.794255e-003
1.888048e+003;-8.613653e-003
1.889977e+003;-8.317726e-003
1.891906e+003;-8.133250e-003
1.893834e+003;-8.261228e-003
1.895763e+003;-8.277580e-003
1.897691e+003;-8.253913e-003
1.899620e+003;-8.206478e-003
1.901548e+003;-7.828470e-003
1.903477e+003;-7.816527e-003
1.905405e+003;-8.205047e-003
1.907334e+003;-8.236195e-003
1.909262e+003;-8.245492e-003
1.911191e+003;-8.198350e-003
1.913120e+003;-7.957318e-003
1.915048e+003;-7.896250e-003
1.916977e+003;-8.124048e-003
1.918905e+003;-8.510766e-003
1.920834e+003;-8.626970e-003
1.922762e+003;-8.488184e-003
1.924691e+003;-8.262301e-003
1.926619e+003;-8.175978e-003
1.928548e+003;-8.386729e-003
1.930477e+003;-8.778539e-003
1.932405e+003;-8.887855e-003
1.934334e+003;-8.753113e-003
1.936262e+003;-8.665038e-003
1.938191e+003;-8.631486e-003
1.940119e+003;-8.797145e-003
1.942048e+003;-9.121071e-003
1.943976e+003;-9.176321e-003
1.945905e+003;-8.979715e-003
1.947833e+003;-8.877922e-003
1.949762e+003;-8.973127e-003
1.951691e+003;-9.092226e-003
1.953619e+003;-9.240908e-003
1.955548e+003;-9.066105e-003
1.957476e+003;-8.772240e-003
1.959405e+003;-9.033752e-003
1.961333e+003;-9.303149e-003
1.963262e+003;-8.857729e-003
1.965190e+003;-8.577107e-003
1.967119e+003;-8.656496e-003
1.969047e+003;-8.596501e-003
1.970976e+003;-8.583735e-003
1.972905e+003;-8.731356e-003
1.974833e+003;-8.950959e-003
1.976762e+003;-9.041572e-003
1.978690e+003;-9.094562e-003
1.980619e+003;-9.021452e-003
1.982547e+003;-8.793443e-003
1.984476e+003;-8.773149e-003
1.986404e+003;-8.513723e-003
1.988333e+003;-8.123235e-003
1.990261e+003;-8.141933e-003
1.992190e+003;-8.351433e-003
1.994119e+003;-8.397097e-003
1.996047e+003;-8.475642e-003
1.997976e+003;-8.390435e-003
1.999904e+003;-8.328062e-003
2.001833e+003;-8.270916e-003
2.003761e+003;-8.025403e-003
2.005690e+003;-8.017759e-003
2.007618e+003;-8.143429e-003
2.009547e+003;-8.260967e-003
2.011476e+003;-8.059068e-003
2.013404e+003;-7.740207e-003
2.015333e+003;-7.970070e-003
2.017261e+003;-8.208396e-003
2.019190e+003;-8.080859e-003
2.021118e+003;-7.804486e-003
2.023047e+003;-7.584401e-003
2.024975e+003;-7.746912e-003
2.026904e+003;-7.695353e-003
2.028833e+003;-7.446714e-003
2.030761e+003;-7.320679e-003
2.032690e+003;-7.532692e-003
2.034618e+003;-7.958880e-003
2.036547e+003;-7.986597e-003
2.038475e+003;-7.688386e-003
2.040404e+003;-7.500126e-003
2.042332e+003;-7.394793e-003
2.044261e+003;-7.434141e-003
2.046189e+003;-7.526407e-003
2.048118e+003;-7.461989e-003
2.050047e+003;-7.312274e-003
2.051975e+003;-7.224035e-003
2.053904e+003;-7.102500e-003
2.055832e+003;-7.177303e-003
2.057761e+003;-7.349251e-003
2.059689e+003;-7.402676e-003
2.061618e+003;-7.361761e-003
2.063546e+003;-7.216866e-003
2.065475e+003;-6.892658e-003
2.067404e+003;-6.907953e-003
2.069332e+003;-7.117429e-003
2.071260e+003;-7.148133e-003
2.073189e+003;-7.227001e-003
2.075118e+003;-7.513283e-003
2.077046e+003;-7.728620e-003
2.078975e+003;-7.916032e-003
2.080903e+003;-7.889027e-003
2.082832e+003;-7.669962e-003
2.084760e+003;-7.797815e-003
2.086689e+003;-7.973129e-003
2.088617e+003;-8.171524e-003
2.090546e+003;-8.575613e-003
2.092475e+003;-8.726745e-003
2.094403e+003;-8.603420e-003
2.096332e+003;-8.469955e-003
2.098260e+003;-8.359819e-003
2.100189e+003;-8.206510e-003
2.102117e+003;-8.504137e-003
2.104046e+003;-8.612190e-003
2.105974e+003;-8.535198e-003
2.107903e+003;-8.672801e-003
2.109832e+003;-8.969524e-003
2.111760e+003;-8.729538e-003
2.113688e+003;-8.298710e-003
2.115617e+003;-8.866397e-003
2.117546e+003;-9.622614e-003
2.119474e+003;-9.368040e-003
2.121403e+003;-9.185795e-003
2.123331e+003;-9.497566e-003
2.125260e+003;-9.690925e-003
2.127188e+003;-9.986662e-003
2.129117e+003;-9.837070e-003
2.131045e+003;-9.609165e-003
2.132974e+003;-9.701520e-003
2.134903e+003;-9.776169e-003
2.136831e+003;-9.767356e-003
2.138760e+003;-9.945051e-003
2.140688e+003;-1.009477e-002
2.142617e+003;-1.001674e-002
2.144545e+003;-1.015456e-002
2.146474e+003;-1.029304e-002
2.148402e+003;-1.040204e-002
2.150331e+003;-1.048219e-002
2.152260e+003;-1.054067e-002
2.154188e+003;-1.040304e-002
2.156117e+003;-1.030058e-002
2.158045e+003;-1.014980e-002
2.159974e+003;-9.958588e-003
2.161902e+003;-1.015249e-002
2.163831e+003;-1.019233e-002
2.165759e+003;-9.996926e-003
2.167688e+003;-9.801955e-003
2.169616e+003;-9.648151e-003
2.171545e+003;-9.782194e-003
2.173474e+003;-9.857379e-003
2.175402e+003;-9.978956e-003
2.177331e+003;-1.033976e-002
2.179259e+003;-1.026469e-002
2.181188e+003;-1.002121e-002
2.183116e+003;-9.947739e-003
2.185045e+003;-9.876748e-003
2.186973e+003;-9.764440e-003
2.188902e+003;-9.925523e-003
2.190831e+003;-1.000476e-002
2.192759e+003;-9.959138e-003
2.194688e+003;-1.003316e-002
2.196616e+003;-1.023075e-002
2.198545e+003;-1.039644e-002
2.200473e+003;-1.006579e-002
2.202402e+003;-9.836259e-003
2.204330e+003;-1.010684e-002
2.206259e+003;-1.028971e-002
2.208188e+003;-1.033785e-002
2.210116e+003;-1.045118e-002
2.212044e+003;-1.054904e-002
2.213973e+003;-1.061469e-002
2.215902e+003;-1.054164e-002
2.217830e+003;-1.061323e-002
2.219759e+003;-1.034562e-002
2.221687e+003;-1.001746e-002
2.223616e+003;-9.938185e-003
2.225544e+003;-9.818541e-003
2.227473e+003;-9.887177e-003
2.229401e+003;-9.968043e-003
2.231330e+003;-9.875193e-003
2.233259e+003;-9.863987e-003
2.235187e+003;-9.918787e-003
2.237116e+003;-1.009334e-002
2.239044e+003;-1.013306e-002
2.240973e+003;-9.944695e-003
2.242901e+003;-9.523273e-003
2.244830e+003;-9.303084e-003
2.246758e+003;-9.303376e-003
2.248687e+003;-9.682370e-003
2.250615e+003;-1.022405e-002
2.252544e+003;-1.048239e-002
2.254473e+003;-1.018531e-002
2.256401e+003;-9.815140e-003
2.258330e+003;-9.967525e-003
2.260258e+003;-9.907127e-003
2.262187e+003;-1.005450e-002
2.264115e+003;-1.019107e-002
2.266044e+003;-1.004821e-002
2.267972e+003;-9.879792e-003
2.269901e+003;-9.726275e-003
2.271830e+003;-9.878465e-003
2.273758e+003;-9.838236e-003
2.275687e+003;-9.581259e-003
2.277615e+003;-9.552673e-003
2.279544e+003;-9.691897e-003
2.281472e+003;-9.757994e-003
2.283401e+003;-9.605956e-003
2.285329e+003;-9.706575e-003
2.287258e+003;-9.620281e-003
2.289187e+003;-9.594061e-003
2.291115e+003;-9.730358e-003
2.293043e+003;-9.618564e-003
2.294972e+003;-9.303602e-003
2.296901e+003;-9.468455e-003
2.298829e+003;-9.671904e-003
2.300758e+003;-9.472247e-003
2.302686e+003;-9.455584e-003
2.304615e+003;-9.647470e-003
2.306543e+003;-9.725400e-003
2.308472e+003;-9.346800e-003
2.310400e+003;-9.139986e-003
2.312329e+003;-9.376762e-003
2.314258e+003;-9.540387e-003
2.316186e+003;-9.628383e-003
2.318115e+003;-9.773156e-003
2.320043e+003;-9.547940e-003
2.321972e+003;-9.544699e-003
2.323900e+003;-9.640503e-003
2.325829e+003;-9.406691e-003
2.327757e+003;-9.413273e-003
2.329686e+003;-9.731135e-003
2.331615e+003;-9.838139e-003
2.333543e+003;-9.765963e-003
2.335472e+003;-9.589395e-003
2.337400e+003;-9.188844e-003
2.339329e+003;-9.246973e-003
2.341257e+003;-9.635901e-003
2.343186e+003;-9.782097e-003
2.345114e+003;-9.653563e-003
2.347043e+003;-9.261374e-003
2.348971e+003;-9.258131e-003
2.350900e+003;-9.360809e-003
2.352829e+003;-9.272435e-003
2.354757e+003;-9.301268e-003
2.356686e+003;-9.597464e-003
2.358614e+003;-9.518345e-003
2.360543e+003;-9.128014e-003
2.362471e+003;-8.831464e-003
2.364400e+003;-8.592310e-003
2.366328e+003;-8.554984e-003
2.368257e+003;-8.775292e-003
2.370186e+003;-8.957742e-003
2.372114e+003;-9.077527e-003
2.374042e+003;-8.818509e-003
2.375971e+003;-8.350620e-003
2.377900e+003;-8.687513e-003
2.379828e+003;-9.166135e-003
2.381757e+003;-8.869383e-003
2.383685e+003;-8.745093e-003
2.385614e+003;-8.862955e-003
2.387542e+003;-8.623398e-003
2.389471e+003;-8.556510e-003
2.391399e+003;-8.914182e-003
2.393328e+003;-9.200263e-003
2.395257e+003;-9.156954e-003
2.397185e+003;-9.161366e-003
2.399114e+003;-9.279764e-003
2.401042e+003;-9.108709e-003
2.402971e+003;-8.562131e-003
2.404899e+003;-8.383057e-003
2.406828e+003;-8.623300e-003
2.408756e+003;-8.651786e-003
2.410685e+003;-8.437265e-003
2.412614e+003;-8.385007e-003
2.414542e+003;-8.766297e-003
2.416471e+003;-8.871169e-003
2.418399e+003;-9.010450e-003
2.420328e+003;-9.135022e-003
2.422256e+003;-8.908501e-003
2.424185e+003;-8.437167e-003
2.426113e+003;-7.995900e-003
2.428042e+003;-8.134876e-003
2.429970e+003;-8.535134e-003
2.431899e+003;-8.844386e-003
2.433828e+003;-9.136644e-003
2.435756e+003;-8.802827e-003
2.437685e+003;-8.533152e-003
2.439613e+003;-8.628887e-003
2.441542e+003;-8.668059e-003
2.443470e+003;-8.480906e-003
2.445399e+003;-8.447956e-003
2.447327e+003;-8.241721e-003
2.449256e+003;-7.927354e-003
2.451185e+003;-8.258692e-003
2.453113e+003;-8.363264e-003
2.455042e+003;-8.023842e-003
2.456970e+003;-7.979277e-003
2.458899e+003;-8.074191e-003
2.460827e+003;-8.080599e-003
2.462756e+003;-7.985231e-003
2.464684e+003;-7.910957e-003
2.466613e+003;-8.078485e-003
2.468542e+003;-8.133771e-003
2.470470e+003;-7.854666e-003
2.472398e+003;-7.891695e-003
2.474327e+003;-8.299587e-003
2.476256e+003;-8.066190e-003
2.478184e+003;-7.582610e-003
2.480113e+003;-7.468177e-003
2.482041e+003;-7.807415e-003
2.483970e+003;-8.135234e-003
2.485898e+003;-7.832245e-003
2.487827e+003;-7.591011e-003
2.489755e+003;-7.649094e-003
2.491684e+003;-7.316574e-003
2.493613e+003;-7.400428e-003
2.495541e+003;-7.733698e-003
2.497470e+003;-7.464921e-003
2.499398e+003;-7.123459e-003
2.501327e+003;-7.291161e-003
2.503255e+003;-7.362673e-003
2.505184e+003;-7.322373e-003
2.507112e+003;-7.499182e-003
2.509041e+003;-7.466614e-003
2.510969e+003;-7.476971e-003
2.512898e+003;-7.312599e-003
2.514827e+003;-7.005188e-003
2.516755e+003;-7.013339e-003
2.518684e+003;-6.886592e-003
2.520612e+003;-6.771258e-003
2.522541e+003;-6.880265e-003
2.524469e+003;-6.684346e-003
2.526398e+003;-6.424256e-003
2.528326e+003;-6.482103e-003
2.530255e+003;-6.490721e-003
2.532184e+003;-6.237275e-003
2.534112e+003;-6.101349e-003
2.536041e+003;-6.157802e-003
2.537969e+003;-6.137418e-003
2.539898e+003;-5.931717e-003
2.541826e+003;-6.100010e-003
2.543755e+003;-6.469437e-003
2.545683e+003;-6.631583e-003
2.547612e+003;-6.400585e-003
2.549541e+003;-5.993094e-003
2.551469e+003;-5.858170e-003
2.553397e+003;-5.838000e-003
2.555326e+003;-5.781440e-003
2.557255e+003;-5.628168e-003
2.559183e+003;-5.381353e-003
2.561112e+003;-5.721831e-003
2.563040e+003;-5.945248e-003
2.564969e+003;-5.508965e-003
2.566897e+003;-5.046764e-003
2.568826e+003;-4.608003e-003
2.570754e+003;-4.439656e-003
2.572683e+003;-4.456218e-003
2.574612e+003;-4.657177e-003
2.576540e+003;-4.686220e-003
2.578469e+003;-4.686285e-003
2.580397e+003;-4.524887e-003
2.582326e+003;-4.543381e-003
2.584254e+003;-4.669338e-003
2.586183e+003;-4.372417e-003
2.588111e+003;-4.048933e-003
2.590040e+003;-4.431653e-003
2.591969e+003;-4.472616e-003
2.593897e+003;-3.936488e-003
2.595826e+003;-3.564800e-003
2.597754e+003;-3.572227e-003
2.599683e+003;-3.961934e-003
2.601611e+003;-4.041087e-003
2.603540e+003;-3.679806e-003
2.605468e+003;-3.276790e-003
2.607397e+003;-3.141316e-003
2.609325e+003;-3.303722e-003
2.611254e+003;-3.094635e-003
2.613183e+003;-2.788568e-003
2.615111e+003;-2.863887e-003
2.617040e+003;-3.009418e-003
2.618968e+003;-3.114374e-003
2.620897e+003;-3.346139e-003
2.622825e+003;-3.206805e-003
2.624754e+003;-2.994446e-003
2.626682e+003;-2.706815e-003
2.628611e+003;-2.673952e-003
2.630540e+003;-3.193418e-003
2.632468e+003;-3.132204e-003
2.634396e+003;-2.736252e-003
2.636325e+003;-2.894235e-003
2.638254e+003;-3.007444e-003
2.640182e+003;-2.828303e-003
2.642111e+003;-2.720810e-003
2.644039e+003;-2.665060e-003
2.645968e+003;-2.692985e-003
2.647896e+003;-2.887488e-003
2.649825e+003;-2.859970e-003
2.651753e+003;-2.381495e-003
2.653682e+003;-1.902063e-003
2.655611e+003;-1.964342e-003
2.657539e+003;-2.263244e-003
2.659468e+003;-2.078520e-003
2.661396e+003;-1.695336e-003
2.663325e+003;-1.847990e-003
2.665253e+003;-1.993797e-003
2.667182e+003;-1.374905e-003
2.669110e+003;-1.219210e-003
2.671039e+003;-1.742762e-003
2.672968e+003;-1.914434e-003
2.674896e+003;-1.296817e-003
2.676825e+003;-3.838207e-004
2.678753e+003;-1.282098e-004
2.680682e+003;-4.330116e-004
2.682610e+003;-2.135626e-004
2.684539e+003;2.741050e-004
2.686467e+003;6.917930e-004
2.688396e+003;8.134731e-004
2.690324e+003;1.061984e-003
2.692253e+003;1.653949e-003
2.694182e+003;1.724767e-003
2.696110e+003;1.607520e-003
2.698039e+003;1.981456e-003
2.699967e+003;2.206624e-003
2.701896e+003;2.449970e-003
2.703824e+003;2.545046e-003
2.705753e+003;2.373504e-003
2.707681e+003;2.358045e-003
2.709610e+003;2.425912e-003
2.711539e+003;2.516218e-003
2.713467e+003;2.492823e-003
2.715396e+003;2.393493e-003
2.717324e+003;2.891871e-003
2.719253e+003;3.476785e-003
2.721181e+003;3.595472e-003
2.723110e+003;3.895459e-003
2.725038e+003;4.183610e-003
2.726967e+003;4.225999e-003
2.728896e+003;4.325849e-003
2.730824e+003;5.310523e-003
2.732752e+003;6.480724e-003
2.734681e+003;6.821282e-003
2.736610e+003;6.617090e-003
2.738538e+003;6.754509e-003
2.740467e+003;7.134622e-003
2.742395e+003;7.273923e-003
2.744324e+003;7.347718e-003
2.746252e+003;7.368613e-003
2.748181e+003;7.412493e-003
2.750109e+003;7.345090e-003
2.752038e+003;7.121452e-003
2.753967e+003;6.821383e-003
2.755895e+003;6.923616e-003
2.757824e+003;7.390822e-003
2.759752e+003;7.401135e-003
2.761681e+003;7.399753e-003
2.763609e+003;7.507145e-003
2.765538e+003;7.584858e-003
2.767466e+003;7.830225e-003
2.769395e+003;7.945114e-003
2.771323e+003;7.618881e-003
2.773252e+003;7.514933e-003
2.775181e+003;8.161748e-003
2.777109e+003;8.947101e-003
2.779038e+003;9.690370e-003
2.780966e+003;1.049727e-002
2.782895e+003;1.110377e-002
2.784823e+003;1.219166e-002
2.786752e+003;1.393165e-002
2.788680e+003;1.560868e-002
2.790609e+003;1.718006e-002
2.792538e+003;1.867785e-002
2.794466e+003;2.024293e-002
2.796395e+003;2.137559e-002
2.798323e+003;2.239911e-002
2.800252e+003;2.329592e-002
2.802180e+003;2.372520e-002
2.804109e+003;2.373485e-002
2.806037e+003;2.349258e-002
2.807966e+003;2.310152e-002
2.809895e+003;2.235986e-002
2.811823e+003;2.124923e-002
2.813751e+003;1.999389e-002
2.815680e+003;1.950423e-002
2.817609e+003;1.964954e-002
2.819537e+003;1.958717e-002
2.821466e+003;1.952035e-002
2.823394e+003;1.960763e-002
2.825323e+003;2.072216e-002
2.827251e+003;2.260029e-002
2.829180e+003;2.482931e-002
2.831108e+003;2.679957e-002
2.833037e+003;2.879811e-002
2.834966e+003;3.154969e-002
2.836894e+003;3.449946e-002
2.838823e+003;3.753598e-002
2.840751e+003;4.059465e-002
2.842680e+003;4.378582e-002
2.844608e+003;4.719627e-002
2.846537e+003;5.057660e-002
2.848465e+003;5.370683e-002
2.850394e+003;5.588252e-002
2.852323e+003;5.770232e-002
2.854251e+003;5.964615e-002
2.856180e+003;6.098254e-002
2.858108e+003;6.182621e-002
2.860037e+003;6.233744e-002
2.861965e+003;6.218313e-002
2.863894e+003;6.131729e-002
2.865822e+003;5.996393e-002
2.867751e+003;5.884973e-002
2.869679e+003;5.772268e-002
2.871608e+003;5.544978e-002
2.873536e+003;5.313442e-002
2.875465e+003;5.106406e-002
2.877394e+003;4.831619e-002
2.879322e+003;4.565744e-002
2.881251e+003;4.333945e-002
2.883179e+003;4.081834e-002
2.885108e+003;3.885642e-002
2.887036e+003;3.725195e-002
2.888965e+003;3.599164e-002
2.890893e+003;3.478170e-002
2.892822e+003;3.388524e-002
2.894750e+003;3.297290e-002
2.896679e+003;3.190931e-002
2.898608e+003;3.131042e-002
2.900536e+003;3.138603e-002
2.902465e+003;3.147252e-002
2.904393e+003;3.145186e-002
2.906322e+003;3.178003e-002
2.908250e+003;3.169312e-002
2.910179e+003;3.248482e-002
2.912107e+003;3.368267e-002
2.914036e+003;3.495594e-002
2.915965e+003;3.611527e-002
2.917893e+003;3.694693e-002
2.919822e+003;3.760217e-002
2.921750e+003;3.844433e-002
2.923679e+003;4.016917e-002
2.925607e+003;4.166530e-002
2.927536e+003;4.240376e-002
2.929464e+003;4.390836e-002
2.931393e+003;4.561677e-002
2.933322e+003;4.644180e-002
2.935250e+003;4.761024e-002
2.937178e+003;4.891046e-002
2.939107e+003;4.958116e-002
2.941036e+003;4.998696e-002
2.942964e+003;4.955244e-002
2.944893e+003;4.821917e-002
2.946821e+003;4.663580e-002
2.948750e+003;4.485765e-002
2.950678e+003;4.258313e-002
2.952607e+003;4.126701e-002
2.954535e+003;4.016455e-002
2.956464e+003;3.784937e-002
2.958393e+003;3.525662e-002
2.960321e+003;3.339553e-002
2.962250e+003;3.184923e-002
2.964178e+003;3.020330e-002
2.966107e+003;2.863676e-002
2.968035e+003;2.696624e-002
2.969964e+003;2.521919e-002
2.971892e+003;2.389138e-002
2.973821e+003;2.223636e-002
2.975750e+003;2.045954e-002
2.977678e+003;1.888271e-002
2.979607e+003;1.793918e-002
2.981535e+003;1.659578e-002
2.983464e+003;1.480862e-002
2.985392e+003;1.304791e-002
2.987321e+003;1.160095e-002
2.989249e+003;1.060241e-002
2.991178e+003;1.014408e-002
2.993106e+003;1.016494e-002
2.995035e+003;9.050310e-003
2.996964e+003;8.046971e-003
2.998892e+003;7.211830e-003
3.000821e+003;6.419988e-003
3.002749e+003;6.057669e-003
3.004678e+003;5.804000e-003
3.006606e+003;5.613308e-003
3.008535e+003;5.270174e-003
3.010463e+003;4.840020e-003
3.012392e+003;4.618907e-003
3.014321e+003;4.575040e-003
3.016249e+003;4.421572e-003
3.018177e+003;4.216096e-003
3.020106e+003;4.041852e-003
3.022035e+003;3.974635e-003
3.023963e+003;3.792466e-003
3.025892e+003;3.501735e-003
3.027820e+003;3.683515e-003
3.029749e+003;3.742098e-003
3.031677e+003;3.990285e-003
3.033606e+003;4.581000e-003
3.035534e+003;4.275219e-003
3.037463e+003;3.834683e-003
3.039392e+003;3.980052e-003
3.041320e+003;3.887101e-003
3.043249e+003;3.824187e-003
3.045177e+003;3.737586e-003
3.047106e+003;3.556084e-003
3.049034e+003;3.567944e-003
3.050963e+003;4.002256e-003
3.052891e+003;4.373441e-003
3.054820e+003;4.291214e-003
3.056749e+003;4.145072e-003
3.058677e+003;3.574291e-003
3.060606e+003;3.229792e-003
3.062534e+003;3.357595e-003
3.064463e+003;3.385444e-003
3.066391e+003;3.269518e-003
3.068320e+003;2.867088e-003
3.070248e+003;2.530815e-003
3.072177e+003;2.143287e-003
3.074105e+003;1.684916e-003
3.076034e+003;1.548527e-003
3.077963e+003;1.950202e-003
3.079891e+003;2.219912e-003
3.081820e+003;1.698654e-003
3.083748e+003;1.261819e-003
3.085677e+003;1.149781e-003
3.087605e+003;1.112242e-003
3.089534e+003;1.211345e-003
3.091462e+003;1.365511e-003
3.093391e+003;1.383360e-003
3.095320e+003;1.351684e-003
3.097248e+003;1.337957e-003
3.099177e+003;1.199816e-003
3.101105e+003;9.508606e-004
3.103034e+003;1.560631e-003
3.104962e+003;2.236231e-003
3.106891e+003;2.090613e-003
3.108819e+003;2.088382e-003
3.110748e+003;2.304246e-003
3.112677e+003;1.817888e-003
3.114605e+003;1.419560e-003
3.116533e+003;1.834924e-003
3.118462e+003;2.210387e-003
3.120391e+003;2.270071e-003
3.122319e+003;1.928834e-003
3.124248e+003;1.752645e-003
3.126176e+003;1.899947e-003
3.128105e+003;2.108891e-003
3.130033e+003;1.892359e-003
3.131962e+003;1.704009e-003
3.133890e+003;1.568346e-003
3.135819e+003;1.434918e-003
3.137748e+003;1.518800e-003
3.139676e+003;1.472352e-003
3.141605e+003;9.257238e-004
3.143533e+003;6.588397e-004
3.145462e+003;5.761522e-004
3.147390e+003;4.416693e-004
3.149319e+003;5.541557e-004
3.151247e+003;6.684965e-004
3.153176e+003;4.165620e-004
3.155104e+003;3.494727e-004
3.157033e+003;2.825928e-004
3.158962e+003;4.761320e-004
3.160890e+003;7.604289e-004
3.162819e+003;8.574270e-004
3.164747e+003;9.580664e-004
3.166676e+003;1.005090e-003
3.168604e+003;9.314683e-004
3.170533e+003;8.472017e-004
3.172461e+003;1.228391e-003
3.174390e+003;1.424480e-003
3.176319e+003;1.731919e-003
3.178247e+003;1.938619e-003
3.180176e+003;1.704309e-003
3.182104e+003;1.845572e-003
3.184033e+003;2.611842e-003
3.185961e+003;3.545027e-003
3.187890e+003;3.893019e-003
3.189818e+003;3.682145e-003
3.191747e+003;3.578200e-003
3.193676e+003;3.974869e-003
3.195604e+003;4.004396e-003
3.197532e+003;3.539816e-003
3.199461e+003;3.116945e-003
3.201390e+003;2.862585e-003
3.203318e+003;2.710122e-003
3.205247e+003;2.549679e-003
3.207175e+003;2.728193e-003
3.209104e+003;2.967060e-003
3.211032e+003;3.125088e-003
3.212961e+003;3.366444e-003
3.214889e+003;3.123386e-003
3.216818e+003;2.864920e-003
3.218747e+003;3.028149e-003
3.220675e+003;3.748682e-003
3.222604e+003;4.120753e-003
3.224532e+003;4.543866e-003
3.226461e+003;5.253975e-003
3.228389e+003;5.286574e-003
3.230318e+003;5.053099e-003
3.232246e+003;5.117600e-003
3.234175e+003;5.335512e-003
3.236104e+003;5.645968e-003
3.238032e+003;6.066472e-003
3.239961e+003;6.545941e-003
3.241889e+003;6.864839e-003
3.243818e+003;6.540560e-003
3.245746e+003;6.374863e-003
3.247675e+003;6.334146e-003
3.249603e+003;6.212153e-003
3.251532e+003;6.343660e-003
3.253460e+003;6.788635e-003
3.255389e+003;7.327465e-003
3.257318e+003;7.638237e-003
3.259246e+003;8.002317e-003
3.261175e+003;8.198112e-003
3.263103e+003;8.495451e-003
3.265032e+003;8.620588e-003
3.266960e+003;8.707458e-003
3.268889e+003;8.925184e-003
3.270817e+003;8.961882e-003
3.272746e+003;8.736093e-003
3.274675e+003;8.611700e-003
3.276603e+003;9.148669e-003
3.278531e+003;9.633589e-003
3.280460e+003;9.765357e-003
3.282389e+003;1.010633e-002
3.284317e+003;1.025443e-002
3.286246e+003;1.023763e-002
3.288174e+003;9.850491e-003
3.290103e+003;9.943914e-003
3.292031e+003;1.012254e-002
3.293960e+003;9.763154e-003
3.295888e+003;9.578542e-003
3.297817e+003;9.917743e-003
3.299746e+003;9.904793e-003
3.301674e+003;9.469688e-003
3.303603e+003;9.203188e-003
3.305531e+003;9.291969e-003
3.307460e+003;9.717409e-003
3.309388e+003;1.036633e-002
3.311317e+003;1.027987e-002
3.313245e+003;9.921505e-003
3.315174e+003;1.012108e-002
3.317103e+003;1.005373e-002
3.319031e+003;9.920861e-003
3.320960e+003;9.639042e-003
3.322888e+003;9.405553e-003
3.324817e+003;9.459393e-003
3.326745e+003;9.841340e-003
3.328674e+003;9.834290e-003
3.330602e+003;9.530242e-003
3.332531e+003;9.015464e-003
3.334459e+003;8.717702e-003
3.336388e+003;8.741705e-003
3.338317e+003;8.449873e-003
3.340245e+003;8.673485e-003
3.342174e+003;8.829850e-003
3.344102e+003;8.471394e-003
3.346031e+003;8.784203e-003
3.347959e+003;8.667571e-003
3.349888e+003;7.967184e-003
3.351816e+003;7.483649e-003
3.353745e+003;7.209404e-003
3.355674e+003;7.270924e-003
3.357602e+003;7.145232e-003
3.359531e+003;7.268869e-003
3.361459e+003;7.375454e-003
3.363388e+003;7.043250e-003
3.365316e+003;6.723145e-003
3.367245e+003;6.708103e-003
3.369173e+003;6.689091e-003
3.371102e+003;6.421468e-003
3.373031e+003;5.976567e-003
3.374959e+003;6.030219e-003
3.376887e+003;6.256119e-003
3.378816e+003;5.622572e-003
3.380745e+003;5.103284e-003
3.382673e+003;5.259140e-003
3.384602e+003;5.702869e-003
3.386530e+003;5.797754e-003
3.388459e+003;5.712974e-003
3.390387e+003;5.533531e-003
3.392316e+003;5.163031e-003
3.394244e+003;4.722935e-003
3.396173e+003;4.183945e-003
3.398102e+003;4.027070e-003
3.400030e+003;4.408250e-003
3.401959e+003;4.202613e-003
3.403887e+003;3.346209e-003
3.405816e+003;3.026481e-003
3.407744e+003;2.710122e-003
3.409673e+003;2.459166e-003
3.411601e+003;2.682749e-003
3.413530e+003;2.794150e-003
3.415458e+003;2.792283e-003
3.417387e+003;3.090381e-003
3.419316e+003;2.869690e-003
3.421244e+003;2.292821e-003
3.423173e+003;1.758300e-003
3.425101e+003;1.417598e-003
3.427030e+003;1.205697e-003
3.428958e+003;8.300383e-004
3.430887e+003;4.130133e-004
3.432815e+003;3.141220e-005
3.434744e+003;7.300042e-005
3.436673e+003;2.420785e-004
3.438601e+003;2.781168e-004
3.440530e+003;-3.020774e-004
3.442458e+003;-1.058336e-003
3.444387e+003;-1.227636e-003
3.446315e+003;-1.206720e-003
3.448244e+003;-1.675467e-003
3.450172e+003;-1.964243e-003
3.452101e+003;-2.012464e-003
3.454030e+003;-2.364689e-003
3.455958e+003;-3.082989e-003
3.457886e+003;-3.726391e-003
3.459815e+003;-3.734571e-003
3.461744e+003;-3.768077e-003
3.463672e+003;-3.806573e-003
3.465601e+003;-3.427574e-003
3.467529e+003;-3.331540e-003
3.469458e+003;-4.290240e-003
3.471386e+003;-4.473337e-003
3.473315e+003;-3.969945e-003
3.475243e+003;-3.882208e-003
3.477172e+003;-4.207620e-003
3.479101e+003;-4.731714e-003
3.481029e+003;-5.112589e-003
3.482958e+003;-5.156238e-003
3.484886e+003;-4.794965e-003
3.486815e+003;-4.650752e-003
3.488743e+003;-5.028521e-003
3.490672e+003;-5.246599e-003
3.492600e+003;-4.395903e-003
3.494529e+003;-4.217366e-003
3.496458e+003;-4.929597e-003
3.498386e+003;-5.356807e-003
3.500315e+003;-5.355335e-003
3.502243e+003;-5.135576e-003
3.504172e+003;-5.411525e-003
3.506100e+003;-6.059005e-003
3.508029e+003;-5.647988e-003
3.509957e+003;-4.689563e-003
3.511886e+003;-4.715162e-003
3.513814e+003;-5.500524e-003
3.515743e+003;-5.859805e-003
3.517672e+003;-5.546620e-003
3.519600e+003;-4.819739e-003
3.521529e+003;-4.839923e-003
3.523457e+003;-5.457369e-003
3.525386e+003;-6.304259e-003
3.527314e+003;-6.669239e-003
3.529243e+003;-6.463790e-003
3.531171e+003;-6.568958e-003
3.533100e+003;-6.577639e-003
3.535029e+003;-6.281562e-003
3.536957e+003;-6.044628e-003
3.538885e+003;-6.020250e-003
3.540814e+003;-6.432385e-003
3.542743e+003;-6.784143e-003
3.544671e+003;-6.818198e-003
3.546600e+003;-7.179454e-003
3.548528e+003;-6.853782e-003
3.550457e+003;-6.518825e-003
3.552385e+003;-6.511742e-003
3.554314e+003;-6.591738e-003
3.556242e+003;-6.586483e-003
3.558171e+003;-6.394676e-003
3.560100e+003;-5.898018e-003
3.562028e+003;-5.853986e-003
3.563957e+003;-6.409303e-003
3.565885e+003;-6.718636e-003
3.567814e+003;-6.572580e-003
3.569742e+003;-6.358662e-003
3.571671e+003;-6.466336e-003
3.573599e+003;-6.568403e-003
3.575528e+003;-6.360425e-003
3.577457e+003;-6.803324e-003
3.579385e+003;-7.320940e-003
3.581314e+003;-7.502113e-003
3.583242e+003;-6.903355e-003
3.585171e+003;-6.374465e-003
3.587099e+003;-6.954356e-003
3.589028e+003;-7.812264e-003
3.590956e+003;-7.764260e-003
3.592885e+003;-7.446975e-003
3.594813e+003;-7.159899e-003
3.596742e+003;-7.217388e-003
3.598671e+003;-7.088679e-003
3.600599e+003;-6.752794e-003
3.602528e+003;-6.824199e-003
3.604456e+003;-6.675112e-003
3.606385e+003;-6.492059e-003
3.608313e+003;-6.350890e-003
3.610242e+003;-6.702030e-003
3.612170e+003;-7.419777e-003
3.614099e+003;-7.295038e-003
3.616028e+003;-7.249551e-003
3.617956e+003;-7.612109e-003
3.619885e+003;-7.544350e-003
3.621813e+003;-7.410689e-003
3.623742e+003;-6.997950e-003
3.625670e+003;-7.219115e-003
3.627599e+003;-7.504197e-003
3.629527e+003;-7.540833e-003
3.631456e+003;-7.402936e-003
3.633385e+003;-7.304812e-003
3.635313e+003;-7.539726e-003
3.637241e+003;-7.712540e-003
3.639170e+003;-7.436063e-003
3.641099e+003;-7.175575e-003
3.643027e+003;-6.953899e-003
3.644956e+003;-6.717233e-003
3.646884e+003;-6.620097e-003
3.648813e+003;-6.747998e-003
3.650741e+003;-7.198291e-003
3.652670e+003;-7.741476e-003
3.654598e+003;-7.676472e-003
3.656527e+003;-7.078867e-003
3.658456e+003;-6.402675e-003
3.660384e+003;-6.303345e-003
3.662313e+003;-6.257264e-003
3.664241e+003;-6.909616e-003
3.666170e+003;-7.414500e-003
3.668098e+003;-6.673839e-003
3.670027e+003;-6.489089e-003
3.671955e+003;-7.001341e-003
3.673884e+003;-6.757296e-003
3.675813e+003;-5.974924e-003
3.677741e+003;-5.523262e-003
3.679669e+003;-5.916649e-003
3.681598e+003;-6.590269e-003
3.683527e+003;-6.875993e-003
3.685455e+003;-6.290543e-003
3.687384e+003;-6.007408e-003
3.689312e+003;-6.336751e-003
3.691241e+003;-6.644994e-003
3.693169e+003;-6.532501e-003
3.695098e+003;-6.340735e-003
3.697026e+003;-6.375347e-003
3.698955e+003;-6.204384e-003
3.700884e+003;-6.207062e-003
3.702812e+003;-6.762646e-003
3.704741e+003;-6.910790e-003
3.706669e+003;-6.766756e-003
3.708598e+003;-6.268139e-003
3.710526e+003;-6.576595e-003
3.712455e+003;-6.869470e-003
3.714383e+003;-6.578749e-003
3.716312e+003;-6.873579e-003
3.718240e+003;-6.857598e-003
3.720169e+003;-6.776510e-003
3.722098e+003;-6.944378e-003
3.724026e+003;-7.016306e-003
3.725955e+003;-7.267016e-003
3.727883e+003;-7.124991e-003
3.729812e+003;-6.557437e-003
3.731740e+003;-6.606129e-003
3.733669e+003;-6.748422e-003
3.735597e+003;-6.732861e-003
3.737526e+003;-6.496531e-003
3.739455e+003;-6.520620e-003
3.741383e+003;-7.148589e-003
3.743312e+003;-7.516116e-003
3.745240e+003;-7.196303e-003
3.747169e+003;-6.702030e-003
3.749097e+003;-6.534035e-003
3.751026e+003;-5.910766e-003
3.752954e+003;-5.870887e-003
3.754883e+003;-6.304782e-003
3.756812e+003;-6.146761e-003
3.758740e+003;-6.307492e-003
3.760668e+003;-6.605052e-003
3.762597e+003;-6.276239e-003
3.764526e+003;-6.374433e-003
3.766454e+003;-6.616278e-003
3.768383e+003;-6.465259e-003
3.770311e+003;-6.722714e-003
3.772240e+003;-7.126067e-003
3.774168e+003;-7.060318e-003
3.776097e+003;-7.020838e-003
3.778025e+003;-7.026739e-003
3.779954e+003;-7.249290e-003
3.781883e+003;-6.891973e-003
3.783811e+003;-6.215326e-003
3.785740e+003;-6.078871e-003
3.787668e+003;-5.844440e-003
3.789597e+003;-5.491789e-003
3.791525e+003;-5.774606e-003
3.793454e+003;-6.170510e-003
3.795382e+003;-6.526561e-003
3.797311e+003;-5.752471e-003
3.799240e+003;-4.971987e-003
3.801168e+003;-5.530852e-003
3.803097e+003;-5.338610e-003
3.805025e+003;-4.826030e-003
3.806954e+003;-5.189143e-003
3.808882e+003;-5.634447e-003
3.810811e+003;-5.304636e-003
3.812739e+003;-5.156303e-003
3.814668e+003;-5.516359e-003
3.816596e+003;-5.632812e-003
3.818525e+003;-5.899423e-003
3.820454e+003;-5.728567e-003
3.822382e+003;-5.547896e-003
3.824311e+003;-5.807335e-003
3.826239e+003;-5.884877e-003
3.828168e+003;-5.599580e-003
3.830096e+003;-5.121758e-003
3.832025e+003;-4.474288e-003
3.833953e+003;-4.440181e-003
3.835882e+003;-5.289710e-003
3.837811e+003;-6.414526e-003
3.839739e+003;-6.506781e-003
3.841667e+003;-6.112882e-003
3.843596e+003;-5.916192e-003
3.845525e+003;-5.536054e-003
3.847453e+003;-5.386523e-003
3.849382e+003;-5.753484e-003
3.851310e+003;-6.013976e-003
3.853239e+003;-5.082887e-003
3.855167e+003;-5.202795e-003
3.857096e+003;-5.679319e-003
3.859024e+003;-4.945158e-003
3.860953e+003;-4.634820e-003
3.862882e+003;-5.140488e-003
3.864810e+003;-4.813119e-003
3.866739e+003;-4.530396e-003
3.868667e+003;-5.156238e-003
3.870596e+003;-5.856602e-003
3.872524e+003;-6.074754e-003
3.874453e+003;-5.829501e-003
3.876381e+003;-5.287812e-003
3.878310e+003;-4.778973e-003
3.880239e+003;-4.513804e-003
3.882167e+003;-4.731189e-003
3.884096e+003;-4.841431e-003
3.886024e+003;-4.126397e-003
3.887953e+003;-3.529865e-003
3.889881e+003;-4.152325e-003
3.891810e+003;-4.527445e-003
3.893738e+003;-4.484553e-003
3.895667e+003;-4.873148e-003
3.897595e+003;-4.833501e-003
3.899524e+003;-4.755049e-003
3.901453e+003;-4.704576e-003
3.903381e+003;-4.763701e-003
3.905310e+003;-4.555152e-003
3.907238e+003;-4.278560e-003
3.909167e+003;-4.589742e-003
3.911095e+003;-4.791426e-003
3.913024e+003;-4.471829e-003
3.914952e+003;-4.387637e-003
3.916881e+003;-4.836483e-003
3.918810e+003;-4.853784e-003
3.920738e+003;-4.548070e-003
3.922667e+003;-4.454021e-003
3.924595e+003;-4.739121e-003
3.926524e+003;-4.907188e-003
3.928452e+003;-5.182333e-003
3.930381e+003;-4.985187e-003
3.932309e+003;-3.907559e-003
3.934238e+003;-3.635450e-003
3.936167e+003;-4.271637e-003
3.938095e+003;-5.098704e-003
3.940023e+003;-4.903945e-003
3.941952e+003;-4.429981e-003
3.943881e+003;-4.503146e-003
3.945809e+003;-4.728273e-003
3.947738e+003;-4.726962e-003
3.949666e+003;-4.463729e-003
3.951595e+003;-4.291323e-003
3.953523e+003;-4.156033e-003
3.955452e+003;-4.106967e-003
3.957380e+003;-3.921876e-003
3.959309e+003;-3.970569e-003
3.961238e+003;-3.728000e-003
3.963166e+003;-3.656708e-003
3.965095e+003;-4.190425e-003
3.967023e+003;-4.974902e-003
3.968952e+003;-5.301985e-003
3.970880e+003;-5.152243e-003
3.972809e+003;-4.662455e-003
3.974737e+003;-3.770507e-003
3.976666e+003;-3.310890e-003
3.978594e+003;-4.069613e-003
3.980523e+003;-4.279741e-003
3.982452e+003;-3.922762e-003
3.984380e+003;-3.798427e-003
3.986309e+003;-3.978350e-003
3.988237e+003;-4.013282e-003
3.990166e+003;-4.153572e-003
3.992094e+003;-4.706772e-003
3.994023e+003;-4.521903e-003
3.995951e+003;-3.608637e-003
3.997880e+003;-3.554251e-003
3.999809e+003;-3.978252e-003
4.001737e+003;0.000000e+000
