3.992094e+002;0.000000e+000
4.011380e+002;0.000000e+000
4.030665e+002;0.000000e+000
4.049951e+002;0.000000e+000
4.069236e+002;0.000000e+000
4.088522e+002;0.000000e+000
4.107807e+002;0.000000e+000
4.127093e+002;0.000000e+000
4.146378e+002;0.000000e+000
4.165664e+002;0.000000e+000
4.184949e+002;0.000000e+000
4.204235e+002;0.000000e+000
4.223520e+002;0.000000e+000
4.242806e+002;0.000000e+000
4.262091e+002;0.000000e+000
4.281377e+002;0.000000e+000
4.300662e+002;0.000000e+000
4.319948e+002;0.000000e+000
4.339233e+002;0.000000e+000
4.358519e+002;0.000000e+000
4.377804e+002;0.000000e+000
4.397090e+002;0.000000e+000
4.416375e+002;0.000000e+000
4.435660e+002;0.000000e+000
4.454946e+002;0.000000e+000
4.474232e+002;0.000000e+000
4.493517e+002;0.000000e+000
4.512802e+002;0.000000e+000
4.532088e+002;0.000000e+000
4.551373e+002;0.000000e+000
4.570659e+002;0.000000e+000
4.589944e+002;0.000000e+000
4.609230e+002;0.000000e+000
4.628515e+002;0.000000e+000
4.647801e+002;0.000000e+000
4.667086e+002;0.000000e+000
4.686372e+002;0.000000e+000
4.705657e+002;0.000000e+000
4.724943e+002;0.000000e+000
4.744228e+002;0.000000e+000
4.763513e+002;0.000000e+000
4.782799e+002;0.000000e+000
4.802085e+002;0.000000e+000
4.821370e+002;0.000000e+000
4.840656e+002;0.000000e+000
4.859941e+002;0.000000e+000
4.879226e+002;0.000000e+000
4.898512e+002;0.000000e+000
4.917798e+002;0.000000e+000
4.937083e+002;0.000000e+000
4.956368e+002;0.000000e+000
4.975654e+002;0.000000e+000
4.994939e+002;0.000000e+000
5.014225e+002;0.000000e+000
5.033510e+002;0.000000e+000
5.052796e+002;0.000000e+000
5.072081e+002;0.000000e+000
5.091367e+002;0.000000e+000
5.110652e+002;0.000000e+000
5.129938e+002;0.000000e+000
5.149223e+002;0.000000e+000
5.168509e+002;0.000000e+000
5.187794e+002;0.000000e+000
5.207079e+002;0.000000e+000
5.226365e+002;0.000000e+000
5.245651e+002;0.000000e+000
5.264936e+002;0.000000e+000
5.284222e+002;0.000000e+000
5.303507e+002;0.000000e+000
5.322792e+002;0.000000e+000
5.342078e+002;0.000000e+000
5.361364e+002;0.000000e+000
5.380649e+002;0.000000e+000
5.399935e+002;0.000000e+000
5.419220e+002;0.000000e+000
5.438505e+002;0.000000e+000
5.457791e+002;0.000000e+000
5.477076e+002;0.000000e+000
5.496362e+002;0.000000e+000
5.515648e+002;0.000000e+000
5.534933e+002;0.000000e+000
5.554218e+002;0.000000e+000
5.573504e+002;0.000000e+000
5.592789e+002;0.000000e+000
5.612075e+002;0.000000e+000
5.631360e+002;0.000000e+000
5.650646e+002;0.000000e+000
5.669931e+002;0.000000e+000
5.689217e+002;0.000000e+000
5.708502e+002;0.000000e+000
5.727787e+002;0.000000e+000
5.747073e+002;0.000000e+000
5.766359e+002;0.000000e+000
5.785644e+002;0.000000e+000
5.804930e+002;0.000000e+000
5.824215e+002;0.000000e+000
5.843500e+002;0.000000e+000
5.862786e+002;0.000000e+000
5.882072e+002;0.000000e+000
5.901357e+002;0.000000e+000
5.920643e+002;0.000000e+000
5.939928e+002;0.000000e+000
5.959213e+002;0.000000e+000
5.978499e+002;0.000000e+000
5.997784e+002;8.097585e-002
6.017070e+002;7.479364e-002
6.036355e+002;8.201599e-002
6.055641e+002;8.504638e-002
6.074926e+002;8.047196e-002
6.094211e+002;8.054853e-002
6.113497e+002;8.007909e-002
6.132783e+002;8.601413e-002
6.152068e+002;8.955843e-002
6.171354e+002;8.105650e-002
6.190639e+002;7.614255e-002
6.209924e+002;7.589103e-002
6.229210e+002;7.818283e-002
6.248495e+002;7.765198e-002
6.267781e+002;7.323631e-002
6.287067e+002;7.146338e-002
6.306352e+002;7.546569e-002
6.325637e+002;7.642198e-002
6.344923e+002;7.569011e-002
6.364208e+002;8.101098e-002
6.383494e+002;8.713866e-002
6.402780e+002;8.348203e-002
6.422065e+002;8.062284e-002
6.441350e+002;8.173857e-002
6.460636e+002;8.413190e-002
6.479921e+002;8.235222e-002
6.499207e+002;7.907600e-002
6.518492e+002;8.101677e-002
6.537778e+002;8.511131e-002
6.557063e+002;8.656736e-002
6.576349e+002;8.245797e-002
6.595634e+002;7.909305e-002
6.614919e+002;8.057023e-002
6.634205e+002;8.247644e-002
6.653491e+002;8.226011e-002
6.672776e+002;7.918787e-002
6.692062e+002;7.993468e-002
6.711347e+002;8.164955e-002
6.730632e+002;8.138999e-002
6.749918e+002;8.383250e-002
6.769203e+002;8.549868e-002
6.788489e+002;8.435366e-002
6.807775e+002;8.337319e-002
6.827060e+002;8.239792e-002
6.846345e+002;8.358766e-002
6.865631e+002;8.511558e-002
6.884916e+002;8.531806e-002
6.904202e+002;8.434727e-002
6.923488e+002;8.436284e-002
6.942773e+002;8.604527e-002
6.962058e+002;8.559680e-002
6.981344e+002;8.478808e-002
7.000629e+002;8.587015e-002
7.019915e+002;8.690741e-002
7.039200e+002;8.736412e-002
7.058486e+002;8.761702e-002
7.077771e+002;8.890358e-002
7.097057e+002;8.944556e-002
7.116342e+002;8.917683e-002
7.135627e+002;8.934526e-002
7.154913e+002;8.999487e-002
7.174199e+002;9.099080e-002
7.193484e+002;9.134280e-002
7.212770e+002;9.146614e-002
7.232055e+002;9.251723e-002
7.251340e+002;9.231003e-002
7.270626e+002;9.238314e-002
7.289911e+002;9.296589e-002
7.309197e+002;9.430888e-002
7.328483e+002;9.643124e-002
7.347768e+002;9.798202e-002
7.367053e+002;9.895655e-002
7.386339e+002;1.014272e-001
7.405624e+002;1.060039e-001
7.424910e+002;1.104523e-001
7.444196e+002;1.121384e-001
7.463481e+002;1.122547e-001
7.482766e+002;1.120426e-001
7.502052e+002;1.112702e-001
7.521337e+002;1.098904e-001
7.540623e+002;1.098931e-001
7.559908e+002;1.089580e-001
7.579194e+002;1.068095e-001
7.598479e+002;1.067091e-001
7.617765e+002;1.075530e-001
7.637050e+002;1.080700e-001
7.656335e+002;1.086666e-001
7.675621e+002;1.086898e-001
7.694907e+002;1.073077e-001
7.714192e+002;1.053284e-001
7.733478e+002;1.041543e-001
7.752763e+002;1.022133e-001
7.772048e+002;9.961241e-002
7.791334e+002;9.723692e-002
7.810620e+002;9.470442e-002
7.829905e+002;9.221189e-002
7.849191e+002;8.960421e-002
7.868476e+002;8.736011e-002
7.887761e+002;8.555153e-002
7.907047e+002;8.422364e-002
7.926332e+002;8.353866e-002
7.945618e+002;8.396435e-002
7.964903e+002;8.548899e-002
7.984189e+002;8.722287e-002
8.003474e+002;9.029752e-002
8.022759e+002;9.439807e-002
8.042045e+002;9.721404e-002
8.061331e+002;9.965192e-002
8.080616e+002;1.020622e-001
8.099902e+002;1.035769e-001
8.119187e+002;1.045363e-001
8.138472e+002;1.050449e-001
8.157758e+002;1.052434e-001
8.177043e+002;1.047265e-001
8.196329e+002;1.018243e-001
8.215615e+002;9.859399e-002
8.234900e+002;9.638876e-002
8.254185e+002;9.560137e-002
8.273471e+002;9.516355e-002
8.292756e+002;9.390017e-002
8.312042e+002;9.224892e-002
8.331328e+002;9.011187e-002
8.350613e+002;8.879320e-002
8.369898e+002;8.836374e-002
8.389184e+002;8.794966e-002
8.408469e+002;8.701488e-002
8.427755e+002;8.663356e-002
8.447040e+002;8.757368e-002
8.466326e+002;8.918919e-002
8.485611e+002;8.866160e-002
8.504897e+002;8.713235e-002
8.524182e+002;8.729282e-002
8.543467e+002;8.728918e-002
8.562753e+002;8.664299e-002
8.582039e+002;8.654847e-002
8.601324e+002;8.592253e-002
8.620610e+002;8.562763e-002
8.639895e+002;8.629102e-002
8.659180e+002;8.566722e-002
8.678466e+002;8.332590e-002
8.697751e+002;8.098866e-002
8.717037e+002;8.019763e-002
8.736323e+002;7.973601e-002
8.755608e+002;7.854751e-002
8.774893e+002;7.749159e-002
8.794179e+002;7.703647e-002
8.813464e+002;7.678013e-002
8.832750e+002;7.724186e-002
8.852036e+002;7.712906e-002
8.871321e+002;7.681951e-002
8.890606e+002;7.735742e-002
8.909892e+002;7.848097e-002
8.929177e+002;7.904170e-002
8.948463e+002;7.930093e-002
8.967748e+002;8.031291e-002
8.987034e+002;8.164699e-002
9.006319e+002;8.300191e-002
9.025605e+002;8.394678e-002
9.044890e+002;8.515827e-002
9.064175e+002;8.698148e-002
9.083461e+002;8.875841e-002
9.102747e+002;9.092886e-002
9.122032e+002;9.290819e-002
9.141318e+002;9.385148e-002
9.160603e+002;9.437542e-002
9.179888e+002;9.396451e-002
9.199174e+002;9.322840e-002
9.218459e+002;9.333351e-002
9.237745e+002;9.394649e-002
9.257031e+002;9.517077e-002
9.276316e+002;9.569190e-002
9.295601e+002;9.630189e-002
9.314887e+002;9.754831e-002
9.334172e+002;9.872636e-002
9.353458e+002;1.005787e-001
9.372744e+002;1.028842e-001
9.392029e+002;1.046270e-001
9.411314e+002;1.063636e-001
9.430600e+002;1.089219e-001
9.449885e+002;1.116804e-001
9.469171e+002;1.139997e-001
9.488456e+002;1.162293e-001
9.507742e+002;1.188067e-001
9.527027e+002;1.216421e-001
9.546313e+002;1.240132e-001
9.565598e+002;1.253590e-001
9.584883e+002;1.263295e-001
9.604169e+002;1.274601e-001
9.623455e+002;1.277212e-001
9.642740e+002;1.273764e-001
9.662026e+002;1.268613e-001
9.681311e+002;1.266174e-001
9.700596e+002;1.271268e-001
9.719882e+002;1.281660e-001
9.739167e+002;1.295901e-001
9.758453e+002;1.317971e-001
9.777739e+002;1.349296e-001
9.797024e+002;1.380119e-001
9.816309e+002;1.409711e-001
9.835595e+002;1.442917e-001
9.854880e+002;1.477434e-001
9.874166e+002;1.501479e-001
9.893452e+002;1.522540e-001
9.912737e+002;1.548030e-001
9.932022e+002;1.563508e-001
9.951307e+002;1.553048e-001
9.970593e+002;1.521948e-001
9.989879e+002;1.477106e-001
1.000916e+003;1.419240e-001
1.002845e+003;1.364020e-001
1.004773e+003;1.321267e-001
1.006702e+003;1.293772e-001
1.008631e+003;1.275134e-001
1.010559e+003;1.254953e-001
1.012488e+003;1.233356e-001
1.014416e+003;1.222306e-001
1.016345e+003;1.221876e-001
1.018273e+003;1.213838e-001
1.020202e+003;1.192108e-001
1.022130e+003;1.166480e-001
1.024059e+003;1.139427e-001
1.025988e+003;1.119974e-001
1.027916e+003;1.117098e-001
1.029845e+003;1.130248e-001
1.031773e+003;1.147127e-001
1.033702e+003;1.156381e-001
1.035630e+003;1.161673e-001
1.037559e+003;1.175584e-001
1.039487e+003;1.195111e-001
1.041416e+003;1.217628e-001
1.043344e+003;1.246096e-001
1.045273e+003;1.274187e-001
1.047202e+003;1.298851e-001
1.049130e+003;1.326532e-001
1.051059e+003;1.363581e-001
1.052987e+003;1.403190e-001
1.054916e+003;1.437246e-001
1.056844e+003;1.463247e-001
1.058773e+003;1.492289e-001
1.060701e+003;1.521440e-001
1.062630e+003;1.544649e-001
1.064558e+003;1.573333e-001
1.066487e+003;1.596420e-001
1.068416e+003;1.610825e-001
1.070344e+003;1.637560e-001
1.072273e+003;1.680132e-001
1.074201e+003;1.720933e-001
1.076130e+003;1.755752e-001
1.078058e+003;1.800759e-001
1.079987e+003;1.848638e-001
1.081915e+003;1.900583e-001
1.083844e+003;1.964317e-001
1.085773e+003;2.019041e-001
1.087701e+003;2.080823e-001
1.089630e+003;2.155813e-001
1.091558e+003;2.236851e-001
1.093487e+003;2.321440e-001
1.095415e+003;2.397426e-001
1.097344e+003;2.463399e-001
1.099272e+003;2.517861e-001
1.101201e+003;2.554410e-001
1.103129e+003;2.574262e-001
1.105058e+003;2.567521e-001
1.106987e+003;2.525514e-001
1.108915e+003;2.458647e-001
1.110844e+003;2.365530e-001
1.112772e+003;2.251340e-001
1.114701e+003;2.122620e-001
1.116629e+003;1.991419e-001
1.118558e+003;1.857993e-001
1.120486e+003;1.723843e-001
1.122415e+003;1.600230e-001
1.124344e+003;1.488345e-001
1.126272e+003;1.384953e-001
1.128201e+003;1.293945e-001
1.130129e+003;1.218474e-001
1.132058e+003;1.143022e-001
1.133986e+003;1.082454e-001
1.135915e+003;1.034922e-001
1.137843e+003;9.863429e-002
1.139772e+003;9.477716e-002
1.141700e+003;9.162004e-002
1.143629e+003;8.958429e-002
1.145557e+003;8.735748e-002
1.147486e+003;8.468761e-002
1.149415e+003;8.297596e-002
1.151343e+003;8.151333e-002
1.153272e+003;7.937559e-002
1.155200e+003;7.807594e-002
1.157129e+003;7.753175e-002
1.159057e+003;7.686269e-002
1.160986e+003;7.569208e-002
1.162914e+003;7.459389e-002
1.164843e+003;7.435081e-002
1.166771e+003;7.455836e-002
1.168700e+003;7.513897e-002
1.170629e+003;7.624609e-002
1.172557e+003;7.789481e-002
1.174486e+003;8.019995e-002
1.176414e+003;8.314899e-002
1.178343e+003;8.643610e-002
1.180271e+003;8.898560e-002
1.182200e+003;9.043799e-002
1.184128e+003;9.187911e-002
1.186057e+003;9.346954e-002
1.187986e+003;9.569226e-002
1.189914e+003;9.943344e-002
1.191843e+003;1.041399e-001
1.193771e+003;1.091626e-001
1.195700e+003;1.144810e-001
1.197628e+003;1.199064e-001
1.199557e+003;1.252745e-001
1.201485e+003;1.315065e-001
1.203414e+003;1.378444e-001
1.205343e+003;1.429665e-001
1.207271e+003;1.467184e-001
1.209200e+003;1.486432e-001
1.211128e+003;1.484801e-001
1.213057e+003;1.473751e-001
1.214985e+003;1.460287e-001
1.216914e+003;1.453216e-001
1.218842e+003;1.453685e-001
1.220771e+003;1.452650e-001
1.222699e+003;1.433771e-001
1.224628e+003;1.398568e-001
1.226557e+003;1.359787e-001
1.228485e+003;1.318990e-001
1.230414e+003;1.278723e-001
1.232342e+003;1.250814e-001
1.234271e+003;1.228307e-001
1.236199e+003;1.206909e-001
1.238128e+003;1.188542e-001
1.240056e+003;1.171162e-001
1.241985e+003;1.158253e-001
1.243913e+003;1.153159e-001
1.245842e+003;1.155040e-001
1.247771e+003;1.156753e-001
1.249699e+003;1.153883e-001
1.251628e+003;1.136238e-001
1.253556e+003;1.083281e-001
1.255485e+003;1.012125e-001
1.257413e+003;9.477625e-002
1.259342e+003;8.913557e-002
1.261270e+003;8.484463e-002
1.263199e+003;8.232294e-002
1.265127e+003;8.095636e-002
1.267056e+003;8.048819e-002
1.268985e+003;8.005346e-002
1.270913e+003;7.934890e-002
1.272842e+003;7.917257e-002
1.274770e+003;7.898037e-002
1.276699e+003;7.833237e-002
1.278627e+003;7.766026e-002
1.280556e+003;7.736304e-002
1.282484e+003;7.730623e-002
1.284413e+003;7.723224e-002
1.286342e+003;7.717988e-002
1.288270e+003;7.734416e-002
1.290199e+003;7.744592e-002
1.292127e+003;7.834496e-002
1.294056e+003;8.051044e-002
1.295984e+003;8.296264e-002
1.297913e+003;8.552845e-002
1.299841e+003;8.844554e-002
1.301770e+003;9.178460e-002
1.303698e+003;9.498885e-002
1.305627e+003;9.732227e-002
1.307556e+003;9.853666e-002
1.309484e+003;9.885228e-002
1.311413e+003;9.839513e-002
1.313341e+003;9.692397e-002
1.315270e+003;9.498703e-002
1.317198e+003;9.261844e-002
1.319127e+003;8.972706e-002
1.321055e+003;8.607455e-002
1.322984e+003;8.205938e-002
1.324912e+003;7.830869e-002
1.326841e+003;7.532372e-002
1.328770e+003;7.329907e-002
1.330698e+003;7.174294e-002
1.332627e+003;7.068322e-002
1.334555e+003;7.012258e-002
1.336484e+003;6.933586e-002
1.338412e+003;6.895642e-002
1.340341e+003;6.884722e-002
1.342269e+003;6.858849e-002
1.344198e+003;6.839521e-002
1.346126e+003;6.845638e-002
1.348055e+003;6.948736e-002
1.349984e+003;7.116014e-002
1.351912e+003;7.351357e-002
1.353841e+003;7.626987e-002
1.355769e+003;7.866890e-002
1.357698e+003;8.161700e-002
1.359626e+003;8.555689e-002
1.361555e+003;9.048434e-002
1.363483e+003;9.642040e-002
1.365412e+003;1.023888e-001
1.367341e+003;1.079462e-001
1.369269e+003;1.116812e-001
1.371198e+003;1.114133e-001
1.373126e+003;1.070607e-001
1.375055e+003;1.004602e-001
1.376983e+003;9.386489e-002
1.378912e+003;8.828106e-002
1.380840e+003;8.338812e-002
1.382769e+003;7.880621e-002
1.384698e+003;7.474353e-002
1.386626e+003;7.164860e-002
1.388555e+003;6.958321e-002
1.390483e+003;6.773063e-002
1.392412e+003;6.626789e-002
1.394340e+003;6.581894e-002
1.396269e+003;6.636597e-002
1.398197e+003;6.746490e-002
1.400126e+003;6.891234e-002
1.402054e+003;7.125188e-002
1.403983e+003;7.506732e-002
1.405911e+003;8.013897e-002
1.407840e+003;8.561891e-002
1.409769e+003;9.037165e-002
1.411697e+003;9.326746e-002
1.413626e+003;9.323752e-002
1.415554e+003;9.022255e-002
1.417483e+003;8.538194e-002
1.419411e+003;7.987347e-002
1.421340e+003;7.540759e-002
1.423268e+003;7.326674e-002
1.425197e+003;7.321372e-002
1.427125e+003;7.451064e-002
1.429054e+003;7.674679e-002
1.430983e+003;7.892175e-002
1.432911e+003;8.040516e-002
1.434840e+003;8.044093e-002
1.436768e+003;7.997774e-002
1.438697e+003;8.060637e-002
1.440625e+003;8.205997e-002
1.442554e+003;8.428712e-002
1.444482e+003;8.684865e-002
1.446411e+003;8.831529e-002
1.448340e+003;8.891391e-002
1.450268e+003;8.965198e-002
1.452197e+003;9.066749e-002
1.454125e+003;9.173131e-002
1.456054e+003;9.239364e-002
1.457982e+003;9.286104e-002
1.459911e+003;9.303144e-002
1.461839e+003;9.305636e-002
1.463768e+003;9.321805e-002
1.465697e+003;9.317945e-002
1.467625e+003;9.315309e-002
1.469554e+003;9.329313e-002
1.471482e+003;9.388097e-002
1.473411e+003;9.471221e-002
1.475339e+003;9.539710e-002
1.477268e+003;9.583432e-002
1.479196e+003;9.642566e-002
1.481125e+003;9.818552e-002
1.483053e+003;1.008449e-001
1.484982e+003;1.027268e-001
1.486911e+003;1.025713e-001
1.488839e+003;1.004690e-001
1.490768e+003;9.691163e-002
1.492696e+003;9.287721e-002
1.494625e+003;8.908257e-002
1.496553e+003;8.648898e-002
1.498482e+003;8.601510e-002
1.500410e+003;8.698327e-002
1.502339e+003;8.908513e-002
1.504267e+003;9.188264e-002
1.506196e+003;9.520130e-002
1.508125e+003;1.001672e-001
1.510053e+003;1.059269e-001
1.511982e+003;1.109051e-001
1.513910e+003;1.144501e-001
1.515839e+003;1.161928e-001
1.517767e+003;1.164972e-001
1.519696e+003;1.164401e-001
1.521624e+003;1.161904e-001
1.523553e+003;1.159012e-001
1.525481e+003;1.154412e-001
1.527410e+003;1.154739e-001
1.529339e+003;1.157925e-001
1.531267e+003;1.156526e-001
1.533196e+003;1.150724e-001
1.535124e+003;1.146781e-001
1.537053e+003;1.137618e-001
1.538981e+003;1.117449e-001
1.540910e+003;1.092416e-001
1.542838e+003;1.063183e-001
1.544767e+003;1.031820e-001
1.546695e+003;9.989690e-002
1.548624e+003;9.581309e-002
1.550553e+003;9.135323e-002
1.552481e+003;8.747114e-002
1.554410e+003;8.400145e-002
1.556338e+003;8.086079e-002
1.558267e+003;7.780214e-002
1.560195e+003;7.553280e-002
1.562124e+003;7.386696e-002
1.564052e+003;7.205144e-002
1.565981e+003;7.032641e-002
1.567910e+003;6.876586e-002
1.569838e+003;6.740623e-002
1.571767e+003;6.647331e-002
1.573695e+003;6.565881e-002
1.575624e+003;6.528258e-002
1.577552e+003;6.530891e-002
1.579481e+003;6.543001e-002
1.581409e+003;6.661188e-002
1.583338e+003;6.831401e-002
1.585266e+003;7.028846e-002
1.587195e+003;7.307691e-002
1.589124e+003;7.628724e-002
1.591052e+003;7.971909e-002
1.592981e+003;8.295747e-002
1.594909e+003;8.538710e-002
1.596838e+003;8.666503e-002
1.598766e+003;8.714364e-002
1.600695e+003;8.694064e-002
1.602623e+003;8.566646e-002
1.604552e+003;8.373903e-002
1.606480e+003;8.149582e-002
1.608409e+003;7.956772e-002
1.610338e+003;7.829662e-002
1.612266e+003;7.722262e-002
1.614195e+003;7.613228e-002
1.616123e+003;7.444708e-002
1.618052e+003;7.208829e-002
1.619980e+003;6.970714e-002
1.621909e+003;6.762368e-002
1.623837e+003;6.626993e-002
1.625766e+003;6.563549e-002
1.627694e+003;6.541614e-002
1.629623e+003;6.589860e-002
1.631552e+003;6.703191e-002
1.633480e+003;6.806597e-002
1.635409e+003;6.934782e-002
1.637337e+003;7.101761e-002
1.639266e+003;7.243030e-002
1.641194e+003;7.392820e-002
1.643123e+003;7.557452e-002
1.645051e+003;7.651263e-002
1.646980e+003;7.689849e-002
1.648909e+003;7.776987e-002
1.650837e+003;7.852103e-002
1.652766e+003;7.869305e-002
1.654694e+003;7.954317e-002
1.656623e+003;8.059392e-002
1.658551e+003;8.118810e-002
1.660480e+003;8.152221e-002
1.662408e+003;8.187546e-002
1.664337e+003;8.222038e-002
1.666266e+003;8.281683e-002
1.668194e+003;8.312636e-002
1.670123e+003;8.334155e-002
1.672051e+003;8.391023e-002
1.673980e+003;8.465157e-002
1.675908e+003;8.545007e-002
1.677837e+003;8.640153e-002
1.679765e+003;8.706424e-002
1.681694e+003;8.766434e-002
1.683622e+003;8.834063e-002
1.685551e+003;8.953139e-002
1.687479e+003;9.156833e-002
1.689408e+003;9.336879e-002
1.691337e+003;9.442496e-002
1.693265e+003;9.526859e-002
1.695194e+003;9.587498e-002
1.697122e+003;9.682710e-002
1.699051e+003;9.760974e-002
1.700979e+003;9.789255e-002
1.702908e+003;9.806432e-002
1.704836e+003;9.764601e-002
1.706765e+003;9.691776e-002
1.708693e+003;9.624701e-002
1.710622e+003;9.525708e-002
1.712551e+003;9.403943e-002
1.714479e+003;9.330972e-002
1.716408e+003;9.315415e-002
1.718336e+003;9.422322e-002
1.720265e+003;9.706080e-002
1.722193e+003;1.011777e-001
1.724122e+003;1.062970e-001
1.726050e+003;1.110858e-001
1.727979e+003;1.140176e-001
1.729908e+003;1.146156e-001
1.731836e+003;1.127893e-001
1.733765e+003;1.084261e-001
1.735693e+003;1.028926e-001
1.737622e+003;9.640419e-002
1.739550e+003;8.898414e-002
1.741479e+003;8.180605e-002
1.743407e+003;7.534386e-002
1.745336e+003;6.970651e-002
1.747265e+003;6.481225e-002
1.749193e+003;6.097850e-002
1.751122e+003;5.789392e-002
1.753050e+003;5.554847e-002
1.754979e+003;5.365453e-002
1.756907e+003;5.201685e-002
1.758836e+003;5.074311e-002
1.760764e+003;4.963174e-002
1.762693e+003;4.887764e-002
1.764621e+003;4.859899e-002
1.766550e+003;4.795301e-002
1.768479e+003;4.727248e-002
1.770407e+003;4.664053e-002
1.772336e+003;4.610572e-002
1.774264e+003;4.628966e-002
1.776193e+003;4.607448e-002
1.778121e+003;4.537721e-002
1.780050e+003;4.501816e-002
1.781978e+003;4.505543e-002
1.783907e+003;4.487595e-002
1.785835e+003;4.465039e-002
1.787764e+003;4.471289e-002
1.789693e+003;4.475976e-002
1.791621e+003;4.452041e-002
1.793550e+003;4.436409e-002
1.795478e+003;4.434346e-002
1.797407e+003;4.416317e-002
1.799335e+003;4.403609e-002
1.801264e+003;4.393787e-002
1.803192e+003;4.398183e-002
1.805121e+003;4.397783e-002
1.807049e+003;4.377886e-002
1.808978e+003;4.351837e-002
1.810907e+003;4.363409e-002
1.812835e+003;4.365893e-002
1.814764e+003;4.333535e-002
1.816692e+003;4.318256e-002
1.818621e+003;4.295487e-002
1.820549e+003;4.252426e-002
1.822478e+003;4.251121e-002
1.824406e+003;4.258379e-002
1.826335e+003;4.249028e-002
1.828264e+003;4.228443e-002
1.830192e+003;4.216461e-002
1.832121e+003;4.232431e-002
1.834049e+003;4.222957e-002
1.835978e+003;4.210576e-002
1.837906e+003;4.202056e-002
1.839835e+003;4.164156e-002
1.841763e+003;4.112085e-002
1.843692e+003;4.106647e-002
1.845620e+003;4.156309e-002
1.847549e+003;4.207451e-002
1.849478e+003;4.215267e-002
1.851406e+003;4.178385e-002
1.853335e+003;4.164068e-002
1.855263e+003;4.158854e-002
1.857192e+003;4.143702e-002
1.859120e+003;4.119571e-002
1.861049e+003;4.105343e-002
1.862977e+003;4.129470e-002
1.864906e+003;4.142281e-002
1.866834e+003;4.126227e-002
1.868763e+003;4.109863e-002
1.870692e+003;4.103195e-002
1.872620e+003;4.120598e-002
1.874549e+003;4.143531e-002
1.876477e+003;4.148678e-002
1.878406e+003;4.173639e-002
1.880334e+003;4.177381e-002
1.882263e+003;4.146797e-002
1.884191e+003;4.140130e-002
1.886120e+003;4.186221e-002
1.888048e+003;4.205542e-002
1.889977e+003;4.212971e-002
1.891906e+003;4.238433e-002
1.893834e+003;4.231269e-002
1.895763e+003;4.221431e-002
1.897691e+003;4.235601e-002
1.899620e+003;4.233746e-002
1.901548e+003;4.254378e-002
1.903477e+003;4.253278e-002
1.905405e+003;4.218298e-002
1.907334e+003;4.201782e-002
1.909262e+003;4.195691e-002
1.911191e+003;4.213734e-002
1.913120e+003;4.197333e-002
1.915048e+003;4.166928e-002
1.916977e+003;4.164368e-002
1.918905e+003;4.176743e-002
1.920834e+003;4.188768e-002
1.922762e+003;4.203516e-002
1.924691e+003;4.203432e-002
1.926619e+003;4.182795e-002
1.928548e+003;4.175517e-002
1.930477e+003;4.166833e-002
1.932405e+003;4.140775e-002
1.934334e+003;4.142937e-002
1.936262e+003;4.152142e-002
1.938191e+003;4.165724e-002
1.940119e+003;4.190793e-002
1.942048e+003;4.176499e-002
1.943976e+003;4.152378e-002
1.945905e+003;4.146852e-002
1.947833e+003;4.136810e-002
1.949762e+003;4.115006e-002
1.951691e+003;4.133858e-002
1.953619e+003;4.175857e-002
1.955548e+003;4.164739e-002
1.957476e+003;4.134652e-002
1.959405e+003;4.133227e-002
1.961333e+003;4.161953e-002
1.963262e+003;4.174139e-002
1.965190e+003;4.148266e-002
1.967119e+003;4.123567e-002
1.969047e+003;4.116817e-002
1.970976e+003;4.135567e-002
1.972905e+003;4.137572e-002
1.974833e+003;4.144406e-002
1.976762e+003;4.176134e-002
1.978690e+003;4.172406e-002
1.980619e+003;4.153169e-002
1.982547e+003;4.144333e-002
1.984476e+003;4.160156e-002
1.986404e+003;4.160732e-002
1.988333e+003;4.168347e-002
1.990261e+003;4.219203e-002
1.992190e+003;4.252057e-002
1.994119e+003;4.232248e-002
1.996047e+003;4.235631e-002
1.997976e+003;4.254940e-002
1.999904e+003;4.253076e-002
2.001833e+003;4.244362e-002
2.003761e+003;4.255609e-002
2.005690e+003;4.272014e-002
2.007618e+003;4.278068e-002
2.009547e+003;4.290272e-002
2.011476e+003;4.301077e-002
2.013404e+003;4.307820e-002
2.015333e+003;4.333355e-002
2.017261e+003;4.358423e-002
2.019190e+003;4.375991e-002
2.021118e+003;4.365318e-002
2.023047e+003;4.358925e-002
2.024975e+003;4.379139e-002
2.026904e+003;4.383442e-002
2.028833e+003;4.383516e-002
2.030761e+003;4.385700e-002
2.032690e+003;4.379990e-002
2.034618e+003;4.398256e-002
2.036547e+003;4.425676e-002
2.038475e+003;4.454817e-002
2.040404e+003;4.471403e-002
2.042332e+003;4.474708e-002
2.044261e+003;4.504474e-002
2.046189e+003;4.526683e-002
2.048118e+003;4.496028e-002
2.050047e+003;4.500001e-002
2.051975e+003;4.549640e-002
2.053904e+003;4.567754e-002
2.055832e+003;4.553150e-002
2.057761e+003;4.543934e-002
2.059689e+003;4.561092e-002
2.061618e+003;4.568383e-002
2.063546e+003;4.579541e-002
2.065475e+003;4.577200e-002
2.067404e+003;4.575565e-002
2.069332e+003;4.588743e-002
2.071260e+003;4.593221e-002
2.073189e+003;4.610075e-002
2.075118e+003;4.614172e-002
2.077046e+003;4.586990e-002
2.078975e+003;4.573750e-002
2.080903e+003;4.592691e-002
2.082832e+003;4.610237e-002
2.084760e+003;4.592352e-002
2.086689e+003;4.568939e-002
2.088617e+003;4.569991e-002
2.090546e+003;4.571538e-002
2.092475e+003;4.575396e-002
2.094403e+003;4.562994e-002
2.096332e+003;4.539431e-002
2.098260e+003;4.529497e-002
2.100189e+003;4.521884e-002
2.102117e+003;4.502551e-002
2.104046e+003;4.519020e-002
2.105974e+003;4.557014e-002
2.107903e+003;4.544651e-002
2.109832e+003;4.518620e-002
2.111760e+003;4.493772e-002
2.113688e+003;4.471238e-002
2.115617e+003;4.444127e-002
2.117546e+003;4.412257e-002
2.119474e+003;4.396041e-002
2.121403e+003;4.386756e-002
2.123331e+003;4.393435e-002
2.125260e+003;4.389926e-002
2.127188e+003;4.351481e-002
2.129117e+003;4.339536e-002
2.131045e+003;4.369388e-002
2.132974e+003;4.367149e-002
2.134903e+003;4.351185e-002
2.136831e+003;4.349987e-002
2.138760e+003;4.376640e-002
2.140688e+003;4.392819e-002
2.142617e+003;4.377659e-002
2.144545e+003;4.331298e-002
2.146474e+003;4.298889e-002
2.148402e+003;4.295538e-002
2.150331e+003;4.295103e-002
2.152260e+003;4.314531e-002
2.154188e+003;4.324094e-002
2.156117e+003;4.354430e-002
2.158045e+003;4.355518e-002
2.159974e+003;4.322278e-002
2.161902e+003;4.326429e-002
2.163831e+003;4.332488e-002
2.165759e+003;4.307798e-002
2.167688e+003;4.313429e-002
2.169616e+003;4.356305e-002
2.171545e+003;4.380213e-002
2.173474e+003;4.371938e-002
2.175402e+003;4.354049e-002
2.177331e+003;4.349401e-002
2.179259e+003;4.346142e-002
2.181188e+003;4.336475e-002
2.183116e+003;4.345406e-002
2.185045e+003;4.347380e-002
2.186973e+003;4.325957e-002
2.188902e+003;4.320554e-002
2.190831e+003;4.354228e-002
2.192759e+003;4.402990e-002
2.194688e+003;4.404996e-002
2.196616e+003;4.362075e-002
2.198545e+003;4.323149e-002
2.200473e+003;4.309682e-002
2.202402e+003;4.310710e-002
2.204330e+003;4.342297e-002
2.206259e+003;4.352511e-002
2.208188e+003;4.318381e-002
2.210116e+003;4.309111e-002
2.212044e+003;4.316708e-002
2.213973e+003;4.314553e-002
2.215902e+003;4.313876e-002
2.217830e+003;4.298809e-002
2.219759e+003;4.308581e-002
2.221687e+003;4.303319e-002
2.223616e+003;4.277282e-002
2.225544e+003;4.305935e-002
2.227473e+003;4.343223e-002
2.229401e+003;4.347185e-002
2.231330e+003;4.322637e-002
2.233259e+003;4.306777e-002
2.235187e+003;4.328219e-002
2.237116e+003;4.338547e-002
2.239044e+003;4.334743e-002
2.240973e+003;4.337979e-002
2.242901e+003;4.312181e-002
2.244830e+003;4.266351e-002
2.246758e+003;4.259417e-002
2.248687e+003;4.269521e-002
2.250615e+003;4.248052e-002
2.252544e+003;4.246759e-002
2.254473e+003;4.274668e-002
2.256401e+003;4.306755e-002
2.258330e+003;4.280182e-002
2.260258e+003;4.240120e-002
2.262187e+003;4.219912e-002
2.264115e+003;4.230966e-002
2.266044e+003;4.238750e-002
2.267972e+003;4.217502e-002
2.269901e+003;4.198048e-002
2.271830e+003;4.187673e-002
2.273758e+003;4.208177e-002
2.275687e+003;4.234553e-002
2.277615e+003;4.255291e-002
2.279544e+003;4.234549e-002
2.281472e+003;4.210200e-002
2.283401e+003;4.193461e-002
2.285329e+003;4.191636e-002
2.287258e+003;4.182770e-002
2.289187e+003;4.180274e-002
2.291115e+003;4.216819e-002
2.293043e+003;4.255452e-002
2.294972e+003;4.253215e-002
2.296901e+003;4.226463e-002
2.298829e+003;4.204578e-002
2.300758e+003;4.175036e-002
2.302686e+003;4.129729e-002
2.304615e+003;4.141143e-002
2.306543e+003;4.168642e-002
2.308472e+003;4.117348e-002
2.310400e+003;4.068117e-002
2.312329e+003;4.075632e-002
2.314258e+003;4.087356e-002
2.316186e+003;4.071254e-002
2.318115e+003;4.068677e-002
2.320043e+003;4.030763e-002
2.321972e+003;3.967988e-002
2.323900e+003;3.935018e-002
2.325829e+003;3.893194e-002
2.327757e+003;3.856384e-002
2.329686e+003;3.851420e-002
2.331615e+003;3.844226e-002
2.333543e+003;3.849537e-002
2.335472e+003;3.837693e-002
2.337400e+003;3.816057e-002
2.339329e+003;3.826462e-002
2.341257e+003;3.856243e-002
2.343186e+003;3.902867e-002
2.345114e+003;3.973902e-002
2.347043e+003;4.059905e-002
2.348971e+003;4.099414e-002
2.350900e+003;4.051455e-002
2.352829e+003;3.960655e-002
2.354757e+003;3.868705e-002
2.356686e+003;3.785020e-002
2.358614e+003;3.735742e-002
2.360543e+003;3.714608e-002
2.362471e+003;3.708271e-002
2.364400e+003;3.751301e-002
2.366328e+003;3.812468e-002
2.368257e+003;3.851822e-002
2.370186e+003;3.908465e-002
2.372114e+003;3.960637e-002
2.374042e+003;4.058923e-002
2.375971e+003;4.145900e-002
2.377900e+003;4.163700e-002
2.379828e+003;4.138872e-002
2.381757e+003;4.136205e-002
2.383685e+003;4.182697e-002
2.385614e+003;4.222727e-002
2.387542e+003;4.238063e-002
2.389471e+003;4.253405e-002
2.391399e+003;4.243021e-002
2.393328e+003;4.246956e-002
2.395257e+003;4.257013e-002
2.397185e+003;4.231850e-002
2.399114e+003;4.216279e-002
2.401042e+003;4.215180e-002
2.402971e+003;4.200548e-002
2.404899e+003;4.193355e-002
2.406828e+003;4.207721e-002
2.408756e+003;4.242963e-002
2.410685e+003;4.228234e-002
2.412614e+003;4.211872e-002
2.414542e+003;4.233388e-002
2.416471e+003;4.237154e-002
2.418399e+003;4.226481e-002
2.420328e+003;4.216136e-002
2.422256e+003;4.218845e-002
2.424185e+003;4.212489e-002
2.426113e+003;4.194118e-002
2.428042e+003;4.220711e-002
2.429970e+003;4.277125e-002
2.431899e+003;4.304077e-002
2.433828e+003;4.300634e-002
2.435756e+003;4.280920e-002
2.437685e+003;4.266398e-002
2.439613e+003;4.283824e-002
2.441542e+003;4.289518e-002
2.443470e+003;4.285404e-002
2.445399e+003;4.314223e-002
2.447327e+003;4.330752e-002
2.449256e+003;4.308420e-002
2.451185e+003;4.291862e-002
2.453113e+003;4.292451e-002
2.455042e+003;4.311025e-002
2.456970e+003;4.325986e-002
2.458899e+003;4.306568e-002
2.460827e+003;4.288351e-002
2.462756e+003;4.314999e-002
2.464684e+003;4.315512e-002
2.466613e+003;4.283663e-002
2.468542e+003;4.274708e-002
2.470470e+003;4.287847e-002
2.472398e+003;4.321429e-002
2.474327e+003;4.336501e-002
2.476256e+003;4.347369e-002
2.478184e+003;4.362071e-002
2.480113e+003;4.336760e-002
2.482041e+003;4.325664e-002
2.483970e+003;4.338023e-002
2.485898e+003;4.313491e-002
2.487827e+003;4.309664e-002
2.489755e+003;4.333103e-002
2.491684e+003;4.350767e-002
2.493613e+003;4.370407e-002
2.495541e+003;4.338188e-002
2.497470e+003;4.330408e-002
2.499398e+003;4.356921e-002
2.501327e+003;4.317085e-002
2.503255e+003;4.274865e-002
2.505184e+003;4.302529e-002
2.507112e+003;4.362317e-002
2.509041e+003;4.388416e-002
2.510969e+003;4.379667e-002
2.512898e+003;4.368853e-002
2.514827e+003;4.379960e-002
2.516755e+003;4.388948e-002
2.518684e+003;4.385858e-002
2.520612e+003;4.400229e-002
2.522541e+003;4.382980e-002
2.524469e+003;4.374324e-002
2.526398e+003;4.404702e-002
2.528326e+003;4.458804e-002
2.530255e+003;4.487966e-002
2.532184e+003;4.472585e-002
2.534112e+003;4.422433e-002
2.536041e+003;4.425074e-002
2.537969e+003;4.469692e-002
2.539898e+003;4.464579e-002
2.541826e+003;4.444450e-002
2.543755e+003;4.455147e-002
2.545683e+003;4.478554e-002
2.547612e+003;4.509245e-002
2.549541e+003;4.526209e-002
2.551469e+003;4.526981e-002
2.553397e+003;4.537430e-002
2.555326e+003;4.562829e-002
2.557255e+003;4.576706e-002
2.559183e+003;4.592364e-002
2.561112e+003;4.624867e-002
2.563040e+003;4.633979e-002
2.564969e+003;4.619630e-002
2.566897e+003;4.659618e-002
2.568826e+003;4.731138e-002
2.570754e+003;4.754026e-002
2.572683e+003;4.749475e-002
2.574612e+003;4.777573e-002
2.576540e+003;4.797088e-002
2.578469e+003;4.794535e-002
2.580397e+003;4.778283e-002
2.582326e+003;4.779189e-002
2.584254e+003;4.787760e-002
2.586183e+003;4.812395e-002
2.588111e+003;4.841389e-002
2.590040e+003;4.851606e-002
2.591969e+003;4.856875e-002
2.593897e+003;4.881094e-002
2.595826e+003;4.932525e-002
2.597754e+003;4.936405e-002
2.599683e+003;4.923261e-002
2.601611e+003;4.965102e-002
2.603540e+003;4.998522e-002
2.605468e+003;4.995046e-002
2.607397e+003;4.988296e-002
2.609325e+003;4.977199e-002
2.611254e+003;4.974152e-002
2.613183e+003;4.996983e-002
2.615111e+003;5.017645e-002
2.617040e+003;5.024790e-002
2.618968e+003;5.014767e-002
2.620897e+003;4.997038e-002
2.622825e+003;5.006180e-002
2.624754e+003;5.028540e-002
2.626682e+003;5.012137e-002
2.628611e+003;4.993090e-002
2.630540e+003;5.018564e-002
2.632468e+003;5.057950e-002
2.634396e+003;5.081819e-002
2.636325e+003;5.064790e-002
2.638254e+003;5.031319e-002
2.640182e+003;5.014030e-002
2.642111e+003;5.022804e-002
2.644039e+003;5.070877e-002
2.645968e+003;5.118243e-002
2.647896e+003;5.125122e-002
2.649825e+003;5.125025e-002
2.651753e+003;5.142287e-002
2.653682e+003;5.190486e-002
2.655611e+003;5.211360e-002
2.657539e+003;5.202578e-002
2.659468e+003;5.239407e-002
2.661396e+003;5.278609e-002
2.663325e+003;5.290468e-002
2.665253e+003;5.325288e-002
2.667182e+003;5.380797e-002
2.669110e+003;5.438137e-002
2.671039e+003;5.467315e-002
2.672968e+003;5.451633e-002
2.674896e+003;5.463855e-002
2.676825e+003;5.516260e-002
2.678753e+003;5.554711e-002
2.680682e+003;5.593234e-002
2.682610e+003;5.656083e-002
2.684539e+003;5.738676e-002
2.686467e+003;5.787007e-002
2.688396e+003;5.806208e-002
2.690324e+003;5.853303e-002
2.692253e+003;5.918440e-002
2.694182e+003;5.962696e-002
2.696110e+003;5.980811e-002
2.698039e+003;6.032009e-002
2.699967e+003;6.074079e-002
2.701896e+003;6.075531e-002
2.703824e+003;6.086119e-002
2.705753e+003;6.112669e-002
2.707681e+003;6.102033e-002
2.709610e+003;6.116591e-002
2.711539e+003;6.138331e-002
2.713467e+003;6.155238e-002
2.715396e+003;6.183980e-002
2.717324e+003;6.229104e-002
2.719253e+003;6.269605e-002
2.721181e+003;6.313733e-002
2.723110e+003;6.331022e-002
2.725038e+003;6.373371e-002
2.726967e+003;6.465641e-002
2.728896e+003;6.527706e-002
2.730824e+003;6.571011e-002
2.732752e+003;6.640504e-002
2.734681e+003;6.681491e-002
2.736610e+003;6.688915e-002
2.738538e+003;6.713218e-002
2.740467e+003;6.765319e-002
2.742395e+003;6.809520e-002
2.744324e+003;6.835946e-002
2.746252e+003;6.872149e-002
2.748181e+003;6.863513e-002
2.750109e+003;6.794333e-002
2.752038e+003;6.772804e-002
2.753967e+003;6.813225e-002
2.755895e+003;6.826743e-002
2.757824e+003;6.801203e-002
2.759752e+003;6.814450e-002
2.761681e+003;6.852870e-002
2.763609e+003;6.885779e-002
2.765538e+003;6.905600e-002
2.767466e+003;6.913867e-002
2.769395e+003;6.943960e-002
2.771323e+003;6.984593e-002
2.773252e+003;7.036240e-002
2.775181e+003;7.099826e-002
2.777109e+003;7.168123e-002
2.779038e+003;7.221281e-002
2.780966e+003;7.340189e-002
2.782895e+003;7.521217e-002
2.784823e+003;7.668357e-002
2.786752e+003;7.860512e-002
2.788680e+003;8.089121e-002
2.790609e+003;8.308740e-002
2.792538e+003;8.546229e-002
2.794466e+003;8.755212e-002
2.796395e+003;8.912008e-002
2.798323e+003;9.025738e-002
2.800252e+003;9.133335e-002
2.802180e+003;9.201936e-002
2.804109e+003;9.204950e-002
2.806037e+003;9.129447e-002
2.807966e+003;9.025453e-002
2.809895e+003;8.892668e-002
2.811823e+003;8.735622e-002
2.813751e+003;8.598997e-002
2.815680e+003;8.482373e-002
2.817609e+003;8.454154e-002
2.819537e+003;8.521508e-002
2.821466e+003;8.577685e-002
2.823394e+003;8.664522e-002
2.825323e+003;8.817884e-002
2.827251e+003;9.000531e-002
2.829180e+003;9.287371e-002
2.831108e+003;9.667122e-002
2.833037e+003;1.001047e-001
2.834966e+003;1.036305e-001
2.836894e+003;1.078890e-001
2.838823e+003;1.124291e-001
2.840751e+003;1.164794e-001
2.842680e+003;1.206352e-001
2.844608e+003;1.254748e-001
2.846537e+003;1.293239e-001
2.848465e+003;1.329903e-001
2.850394e+003;1.373910e-001
2.852323e+003;1.407610e-001
2.854251e+003;1.432080e-001
2.856180e+003;1.455657e-001
2.858108e+003;1.466334e-001
2.860037e+003;1.464944e-001
2.861965e+003;1.460322e-001
2.863894e+003;1.450996e-001
2.865822e+003;1.433017e-001
2.867751e+003;1.406005e-001
2.869679e+003;1.375835e-001
2.871608e+003;1.339816e-001
2.873536e+003;1.302497e-001
2.875465e+003;1.264588e-001
2.877394e+003;1.224938e-001
2.879322e+003;1.188404e-001
2.881251e+003;1.151082e-001
2.883179e+003;1.113872e-001
2.885108e+003;1.083262e-001
2.887036e+003;1.058482e-001
2.888965e+003;1.036844e-001
2.890893e+003;1.016429e-001
2.892822e+003;1.001940e-001
2.894750e+003;9.948394e-002
2.896679e+003;9.854145e-002
2.898608e+003;9.770600e-002
2.900536e+003;9.774214e-002
2.902465e+003;9.823645e-002
2.904393e+003;9.882033e-002
2.906322e+003;9.929778e-002
2.908250e+003;1.001512e-001
2.910179e+003;1.013194e-001
2.912107e+003;1.022852e-001
2.914036e+003;1.029880e-001
2.915965e+003;1.039768e-001
2.917893e+003;1.056664e-001
2.919822e+003;1.071431e-001
2.921750e+003;1.084606e-001
2.923679e+003;1.097885e-001
2.925607e+003;1.115992e-001
2.927536e+003;1.139470e-001
2.929464e+003;1.159736e-001
2.931393e+003;1.181819e-001
2.933322e+003;1.201458e-001
2.935250e+003;1.217950e-001
2.937178e+003;1.236506e-001
2.939107e+003;1.248669e-001
2.941036e+003;1.250041e-001
2.942964e+003;1.242537e-001
2.944893e+003;1.229449e-001
2.946821e+003;1.211639e-001
2.948750e+003;1.188089e-001
2.950678e+003;1.154151e-001
2.952607e+003;1.113323e-001
2.954535e+003;1.076683e-001
2.956464e+003;1.045216e-001
2.958393e+003;1.012996e-001
2.960321e+003;9.815623e-002
2.962250e+003;9.523328e-002
2.964178e+003;9.280684e-002
2.966107e+003;9.057181e-002
2.968035e+003;8.876666e-002
2.969964e+003;8.703160e-002
2.971892e+003;8.525112e-002
2.973821e+003;8.318875e-002
2.975750e+003;8.065536e-002
2.977678e+003;7.827579e-002
2.979607e+003;7.632069e-002
2.981535e+003;7.466656e-002
2.983464e+003;7.315356e-002
2.985392e+003;7.146537e-002
2.987321e+003;6.952511e-002
2.989249e+003;6.807047e-002
2.991178e+003;6.697269e-002
2.993106e+003;6.603738e-002
2.995035e+003;6.518169e-002
2.996964e+003;6.434006e-002
2.998892e+003;6.356311e-002
3.000821e+003;6.299377e-002
3.002749e+003;6.271423e-002
3.004678e+003;6.245139e-002
3.006606e+003;6.200240e-002
3.008535e+003;6.180546e-002
3.010463e+003;6.142064e-002
3.012392e+003;6.074842e-002
3.014321e+003;6.028374e-002
3.016249e+003;6.043276e-002
3.018177e+003;6.055121e-002
3.020106e+003;6.046810e-002
3.022035e+003;6.050006e-002
3.023963e+003;6.034465e-002
3.025892e+003;5.988752e-002
3.027820e+003;6.013872e-002
3.029749e+003;6.103875e-002
3.031677e+003;6.129108e-002
3.033606e+003;6.098178e-002
3.035534e+003;6.058557e-002
3.037463e+003;6.065796e-002
3.039392e+003;6.101350e-002
3.041320e+003;6.059578e-002
3.043249e+003;6.001857e-002
3.045177e+003;6.000825e-002
3.047106e+003;6.048208e-002
3.049034e+003;6.066729e-002
3.050963e+003;6.077860e-002
3.052891e+003;6.081454e-002
3.054820e+003;6.065506e-002
3.056749e+003;6.043265e-002
3.058677e+003;6.060637e-002
3.060606e+003;6.061361e-002
3.062534e+003;6.004048e-002
3.064463e+003;5.995602e-002
3.066391e+003;6.011875e-002
3.068320e+003;5.983439e-002
3.070248e+003;5.922651e-002
3.072177e+003;5.882245e-002
3.074105e+003;5.863177e-002
3.076034e+003;5.835055e-002
3.077963e+003;5.801130e-002
3.079891e+003;5.798161e-002
3.081820e+003;5.810632e-002
3.083748e+003;5.813837e-002
3.085677e+003;5.782146e-002
3.087605e+003;5.771450e-002
3.089534e+003;5.768037e-002
3.091462e+003;5.779311e-002
3.093391e+003;5.816007e-002
3.095320e+003;5.843082e-002
3.097248e+003;5.826525e-002
3.099177e+003;5.794132e-002
3.101105e+003;5.816636e-002
3.103034e+003;5.861494e-002
3.104962e+003;5.870194e-002
3.106891e+003;5.858418e-002
3.108819e+003;5.900589e-002
3.110748e+003;5.932906e-002
3.112677e+003;5.924516e-002
3.114605e+003;5.926882e-002
3.116533e+003;5.950086e-002
3.118462e+003;5.939451e-002
3.120391e+003;5.916059e-002
3.122319e+003;5.915429e-002
3.124248e+003;5.939049e-002
3.126176e+003;5.907764e-002
3.128105e+003;5.860526e-002
3.130033e+003;5.831743e-002
3.131962e+003;5.786325e-002
3.133890e+003;5.801474e-002
3.135819e+003;5.824118e-002
3.137748e+003;5.793443e-002
3.139676e+003;5.740960e-002
3.141605e+003;5.724089e-002
3.143533e+003;5.733680e-002
3.145462e+003;5.729102e-002
3.147390e+003;5.699517e-002
3.149319e+003;5.673158e-002
3.151247e+003;5.649384e-002
3.153176e+003;5.639378e-002
3.155104e+003;5.660526e-002
3.157033e+003;5.696015e-002
3.158962e+003;5.723798e-002
3.160890e+003;5.691093e-002
3.162819e+003;5.698157e-002
3.164747e+003;5.749102e-002
3.166676e+003;5.763077e-002
3.168604e+003;5.752041e-002
3.170533e+003;5.760644e-002
3.172461e+003;5.825403e-002
3.174390e+003;5.872993e-002
3.176319e+003;5.857243e-002
3.178247e+003;5.871627e-002
3.180176e+003;5.955341e-002
3.182104e+003;6.006011e-002
3.184033e+003;5.992917e-002
3.185961e+003;6.011194e-002
3.187890e+003;6.045435e-002
3.189818e+003;6.035371e-002
3.191747e+003;6.046231e-002
3.193676e+003;6.095753e-002
3.195604e+003;6.090347e-002
3.197532e+003;6.072586e-002
3.199461e+003;6.053780e-002
3.201390e+003;6.026132e-002
3.203318e+003;6.004630e-002
3.205247e+003;6.030072e-002
3.207175e+003;6.031374e-002
3.209104e+003;6.032333e-002
3.211032e+003;6.044784e-002
3.212961e+003;6.075303e-002
3.214889e+003;6.103322e-002
3.216818e+003;6.091468e-002
3.218747e+003;6.060732e-002
3.220675e+003;6.053140e-002
3.222604e+003;6.077144e-002
3.224532e+003;6.157509e-002
3.226461e+003;6.210552e-002
3.228389e+003;6.227716e-002
3.230318e+003;6.247190e-002
3.232246e+003;6.292613e-002
3.234175e+003;6.342378e-002
3.236104e+003;6.356768e-002
3.238032e+003;6.398021e-002
3.239961e+003;6.415931e-002
3.241889e+003;6.454907e-002
3.243818e+003;6.543663e-002
3.245746e+003;6.568309e-002
3.247675e+003;6.590640e-002
3.249603e+003;6.598040e-002
3.251532e+003;6.583417e-002
3.253460e+003;6.626083e-002
3.255389e+003;6.694056e-002
3.257318e+003;6.714266e-002
3.259246e+003;6.719116e-002
3.261175e+003;6.723371e-002
3.263103e+003;6.743061e-002
3.265032e+003;6.758074e-002
3.266960e+003;6.793767e-002
3.268889e+003;6.801307e-002
3.270817e+003;6.804167e-002
3.272746e+003;6.854802e-002
3.274675e+003;6.885786e-002
3.276603e+003;6.897750e-002
3.278531e+003;6.920049e-002
3.280460e+003;6.924238e-002
3.282389e+003;6.961868e-002
3.284317e+003;7.010175e-002
3.286246e+003;7.018770e-002
3.288174e+003;7.008108e-002
3.290103e+003;6.992135e-002
3.292031e+003;6.994895e-002
3.293960e+003;6.989598e-002
3.295888e+003;6.978678e-002
3.297817e+003;6.995919e-002
3.299746e+003;7.002743e-002
3.301674e+003;6.979993e-002
3.303603e+003;6.945532e-002
3.305531e+003;6.915756e-002
3.307460e+003;6.938642e-002
3.309388e+003;7.016499e-002
3.311317e+003;7.023105e-002
3.313245e+003;6.984690e-002
3.315174e+003;6.998304e-002
3.317103e+003;6.993700e-002
3.319031e+003;6.940905e-002
3.320960e+003;6.933647e-002
3.322888e+003;6.942996e-002
3.324817e+003;6.939194e-002
3.326745e+003;6.959888e-002
3.328674e+003;6.926426e-002
3.330602e+003;6.875157e-002
3.332531e+003;6.836373e-002
3.334459e+003;6.844405e-002
3.336388e+003;6.891440e-002
3.338317e+003;6.895588e-002
3.340245e+003;6.870759e-002
3.342174e+003;6.806748e-002
3.344102e+003;6.814191e-002
3.346031e+003;6.836163e-002
3.347959e+003;6.803583e-002
3.349888e+003;6.740657e-002
3.351816e+003;6.689978e-002
3.353745e+003;6.717457e-002
3.355674e+003;6.712885e-002
3.357602e+003;6.620213e-002
3.359531e+003;6.585341e-002
3.361459e+003;6.633466e-002
3.363388e+003;6.626484e-002
3.365316e+003;6.579338e-002
3.367245e+003;6.546614e-002
3.369173e+003;6.520745e-002
3.371102e+003;6.476133e-002
3.373031e+003;6.431082e-002
3.374959e+003;6.386189e-002
3.376887e+003;6.357948e-002
3.378816e+003;6.373153e-002
3.380745e+003;6.393548e-002
3.382673e+003;6.355559e-002
3.384602e+003;6.299489e-002
3.386530e+003;6.273854e-002
3.388459e+003;6.282335e-002
3.390387e+003;6.260694e-002
3.392316e+003;6.208989e-002
3.394244e+003;6.233767e-002
3.396173e+003;6.230290e-002
3.398102e+003;6.181429e-002
3.400030e+003;6.151511e-002
3.401959e+003;6.119413e-002
3.403887e+003;6.080467e-002
3.405816e+003;5.994865e-002
3.407744e+003;5.969017e-002
3.409673e+003;5.999833e-002
3.411601e+003;5.991042e-002
3.413530e+003;5.952343e-002
3.415458e+003;5.888893e-002
3.417387e+003;5.844606e-002
3.419316e+003;5.804519e-002
3.421244e+003;5.752669e-002
3.423173e+003;5.774751e-002
3.425101e+003;5.779705e-002
3.427030e+003;5.737628e-002
3.428958e+003;5.682882e-002
3.430887e+003;5.625292e-002
3.432815e+003;5.650664e-002
3.434744e+003;5.705135e-002
3.436673e+003;5.693695e-002
3.438601e+003;5.607422e-002
3.440530e+003;5.522058e-002
3.442458e+003;5.490463e-002
3.444387e+003;5.498818e-002
3.446315e+003;5.508985e-002
3.448244e+003;5.409606e-002
3.450172e+003;5.316539e-002
3.452101e+003;5.287975e-002
3.454030e+003;5.234136e-002
3.455958e+003;5.160448e-002
3.457886e+003;5.098014e-002
3.459815e+003;5.067221e-002
3.461744e+003;4.997183e-002
3.463672e+003;4.954205e-002
3.465601e+003;4.916834e-002
3.467529e+003;4.900221e-002
3.469458e+003;4.909988e-002
3.471386e+003;4.914489e-002
3.473315e+003;4.952296e-002
3.475243e+003;4.950806e-002
3.477172e+003;4.922285e-002
3.479101e+003;4.892243e-002
3.481029e+003;4.861133e-002
3.482958e+003;4.838152e-002
3.484886e+003;4.900848e-002
3.486815e+003;4.946481e-002
3.488743e+003;4.883366e-002
3.490672e+003;4.853192e-002
3.492600e+003;4.859269e-002
3.494529e+003;4.788375e-002
3.496458e+003;4.736747e-002
3.498386e+003;4.808583e-002
3.500315e+003;4.811995e-002
3.502243e+003;4.778498e-002
3.504172e+003;4.778904e-002
3.506100e+003;4.786277e-002
3.508029e+003;4.781738e-002
3.509957e+003;4.754847e-002
3.511886e+003;4.755556e-002
3.513814e+003;4.787109e-002
3.515743e+003;4.802728e-002
3.517672e+003;4.765539e-002
3.519600e+003;4.711317e-002
3.521529e+003;4.694513e-002
3.523457e+003;4.672059e-002
3.525386e+003;4.696233e-002
3.527314e+003;4.739319e-002
3.529243e+003;4.725460e-002
3.531171e+003;4.741843e-002
3.533100e+003;4.744840e-002
3.535029e+003;4.623993e-002
3.536957e+003;4.562755e-002
3.538885e+003;4.595004e-002
3.540814e+003;4.644214e-002
3.542743e+003;4.658800e-002
3.544671e+003;4.676490e-002
3.546600e+003;4.691711e-002
3.548528e+003;4.643384e-002
3.550457e+003;4.610001e-002
3.552385e+003;4.586025e-002
3.554314e+003;4.545972e-002
3.556242e+003;4.554228e-002
3.558171e+003;4.572454e-002
3.560100e+003;4.584678e-002
3.562028e+003;4.581905e-002
3.563957e+003;4.517550e-002
3.565885e+003;4.496234e-002
3.567814e+003;4.539582e-002
3.569742e+003;4.539839e-002
3.571671e+003;4.515719e-002
3.573599e+003;4.534127e-002
3.575528e+003;4.543084e-002
3.577457e+003;4.518270e-002
3.579385e+003;4.509215e-002
3.581314e+003;4.513730e-002
3.583242e+003;4.529055e-002
3.585171e+003;4.505959e-002
3.587099e+003;4.458334e-002
3.589028e+003;4.447819e-002
3.590956e+003;4.433212e-002
3.592885e+003;4.418350e-002
3.594813e+003;4.429638e-002
3.596742e+003;4.463342e-002
3.598671e+003;4.469607e-002
3.600599e+003;4.475601e-002
3.602528e+003;4.489344e-002
3.604456e+003;4.458895e-002
3.606385e+003;4.383996e-002
3.608313e+003;4.372187e-002
3.610242e+003;4.409360e-002
3.612170e+003;4.408839e-002
3.614099e+003;4.402718e-002
3.616028e+003;4.365490e-002
3.617956e+003;4.395492e-002
3.619885e+003;4.395345e-002
3.621813e+003;4.385293e-002
3.623742e+003;4.377472e-002
3.625670e+003;4.377684e-002
3.627599e+003;4.347325e-002
3.629527e+003;4.325338e-002
3.631456e+003;4.337614e-002
3.633385e+003;4.326067e-002
3.635313e+003;4.339115e-002
3.637241e+003;4.386444e-002
3.639170e+003;4.434225e-002
3.641099e+003;4.431429e-002
3.643027e+003;4.409239e-002
3.644956e+003;4.420448e-002
3.646884e+003;4.368545e-002
3.648813e+003;4.265020e-002
3.650741e+003;4.247522e-002
3.652670e+003;4.303210e-002
3.654598e+003;4.378139e-002
3.656527e+003;4.408586e-002
3.658456e+003;4.416538e-002
3.660384e+003;4.420206e-002
3.662313e+003;4.408678e-002
3.664241e+003;4.362566e-002
3.666170e+003;4.328406e-002
3.668098e+003;4.311325e-002
3.670027e+003;4.303942e-002
3.671955e+003;4.368153e-002
3.673884e+003;4.444549e-002
3.675813e+003;4.503955e-002
3.677741e+003;4.514980e-002
3.679669e+003;4.431781e-002
3.681598e+003;4.386466e-002
3.683527e+003;4.424630e-002
3.685455e+003;4.425243e-002
3.687384e+003;4.375060e-002
3.689312e+003;4.353126e-002
3.691241e+003;4.393420e-002
3.693169e+003;4.375878e-002
3.695098e+003;4.338964e-002
3.697026e+003;4.400427e-002
3.698955e+003;4.429224e-002
3.700884e+003;4.417260e-002
3.702812e+003;4.344032e-002
3.704741e+003;4.295286e-002
3.706669e+003;4.360797e-002
3.708598e+003;4.420837e-002
3.710526e+003;4.404064e-002
3.712455e+003;4.385810e-002
3.714383e+003;4.377178e-002
3.716312e+003;4.359888e-002
3.718240e+003;4.367897e-002
3.720169e+003;4.353870e-002
3.722098e+003;4.304029e-002
3.724026e+003;4.297997e-002
3.725955e+003;4.318110e-002
3.727883e+003;4.329135e-002
3.729812e+003;4.304896e-002
3.731740e+003;4.269180e-002
3.733669e+003;4.265339e-002
3.735597e+003;4.258690e-002
3.737526e+003;4.311519e-002
3.739455e+003;4.347845e-002
3.741383e+003;4.299014e-002
3.743312e+003;4.268080e-002
3.745240e+003;4.294573e-002
3.747169e+003;4.310472e-002
3.749097e+003;4.294075e-002
3.751026e+003;4.295513e-002
3.752954e+003;4.317960e-002
3.754883e+003;4.335204e-002
3.756812e+003;4.352514e-002
3.758740e+003;4.372726e-002
3.760668e+003;4.379337e-002
3.762597e+003;4.424803e-002
3.764526e+003;4.418768e-002
3.766454e+003;4.358815e-002
3.768383e+003;4.372656e-002
3.770311e+003;4.394256e-002
3.772240e+003;4.376853e-002
3.774168e+003;4.418940e-002
3.776097e+003;4.446993e-002
3.778025e+003;4.385091e-002
3.779954e+003;4.368212e-002
3.781883e+003;4.406404e-002
3.783811e+003;4.464458e-002
3.785740e+003;4.490634e-002
3.787668e+003;4.490983e-002
3.789597e+003;4.436141e-002
3.791525e+003;4.412954e-002
3.793454e+003;4.484380e-002
3.795382e+003;4.461227e-002
3.797311e+003;4.424949e-002
3.799240e+003;4.461745e-002
3.801168e+003;4.445085e-002
3.803097e+003;4.408652e-002
3.805025e+003;4.411270e-002
3.806954e+003;4.403848e-002
3.808882e+003;4.398626e-002
3.810811e+003;4.439088e-002
3.812739e+003;4.481534e-002
3.814668e+003;4.499446e-002
3.816596e+003;4.490435e-002
3.818525e+003;4.473823e-002
3.820454e+003;4.455437e-002
3.822382e+003;4.442625e-002
3.824311e+003;4.410211e-002
3.826239e+003;4.419971e-002
3.828168e+003;4.466372e-002
3.830096e+003;4.465802e-002
3.832025e+003;4.459424e-002
3.833953e+003;4.473651e-002
3.835882e+003;4.455161e-002
3.837811e+003;4.477900e-002
3.839739e+003;4.513454e-002
3.841667e+003;4.519884e-002
3.843596e+003;4.561445e-002
3.845525e+003;4.577063e-002
3.847453e+003;4.544776e-002
3.849382e+003;4.474426e-002
3.851310e+003;4.410952e-002
3.853239e+003;4.380539e-002
3.855167e+003;4.412973e-002
3.857096e+003;4.517373e-002
3.859024e+003;4.547844e-002
3.860953e+003;4.513171e-002
3.862882e+003;4.472336e-002
3.864810e+003;4.479282e-002
3.866739e+003;4.526955e-002
3.868667e+003;4.521425e-002
3.870596e+003;4.485993e-002
3.872524e+003;4.457926e-002
3.874453e+003;4.487716e-002
3.876381e+003;4.551115e-002
3.878310e+003;4.572749e-002
3.880239e+003;4.567662e-002
3.882167e+003;4.563167e-002
3.884096e+003;4.570201e-002
3.886024e+003;4.517619e-002
3.887953e+003;4.500093e-002
3.889881e+003;4.561820e-002
3.891810e+003;4.605606e-002
3.893738e+003;4.665868e-002
3.895667e+003;4.614522e-002
3.897595e+003;4.515097e-002
3.899524e+003;4.531299e-002
3.901453e+003;4.572491e-002
3.903381e+003;4.579386e-002
3.905310e+003;4.559623e-002
3.907238e+003;4.609113e-002
3.909167e+003;4.667317e-002
3.911095e+003;4.651696e-002
3.913024e+003;4.614957e-002
3.914952e+003;4.592176e-002
3.916881e+003;4.568537e-002
3.918810e+003;4.590216e-002
3.920738e+003;4.565280e-002
3.922667e+003;4.607378e-002
3.924595e+003;4.669203e-002
3.926524e+003;4.651475e-002
3.928452e+003;4.636386e-002
3.930381e+003;4.644380e-002
3.932309e+003;4.629625e-002
3.934238e+003;4.588813e-002
3.936167e+003;4.602224e-002
3.938095e+003;4.629935e-002
3.940023e+003;4.651508e-002
3.941952e+003;4.652906e-002
3.943881e+003;4.689433e-002
3.945809e+003;4.698175e-002
3.947738e+003;4.666292e-002
3.949666e+003;4.660533e-002
3.951595e+003;4.733717e-002
3.953523e+003;4.802269e-002
3.955452e+003;4.780724e-002
3.957380e+003;4.759002e-002
3.959309e+003;4.760492e-002
3.961238e+003;4.804016e-002
3.963166e+003;4.809649e-002
3.965095e+003;4.808287e-002
3.967023e+003;4.808268e-002
3.968952e+003;4.754610e-002
3.970880e+003;4.730207e-002
3.972809e+003;4.733518e-002
3.974737e+003;4.751715e-002
3.976666e+003;4.742427e-002
3.978594e+003;4.760459e-002
3.980523e+003;4.773774e-002
3.982452e+003;4.753006e-002
3.984380e+003;4.737435e-002
3.986309e+003;4.784242e-002
3.988237e+003;4.852614e-002
3.990166e+003;4.857179e-002
3.992094e+003;4.823413e-002
3.994023e+003;4.848154e-002
3.995951e+003;4.847338e-002
3.997880e+003;4.779008e-002
3.999809e+003;4.738473e-002
4.001737e+003;0.000000e+000
