3.992094e+002;0.000000e+000
4.011380e+002;0.000000e+000
4.030665e+002;0.000000e+000
4.049951e+002;0.000000e+000
4.069236e+002;0.000000e+000
4.088522e+002;0.000000e+000
4.107807e+002;0.000000e+000
4.127093e+002;0.000000e+000
4.146378e+002;0.000000e+000
4.165664e+002;0.000000e+000
4.184949e+002;0.000000e+000
4.204235e+002;0.000000e+000
4.223520e+002;0.000000e+000
4.242806e+002;0.000000e+000
4.262091e+002;0.000000e+000
4.281377e+002;0.000000e+000
4.300662e+002;0.000000e+000
4.319948e+002;0.000000e+000
4.339233e+002;0.000000e+000
4.358519e+002;0.000000e+000
4.377804e+002;0.000000e+000
4.397090e+002;0.000000e+000
4.416375e+002;0.000000e+000
4.435660e+002;0.000000e+000
4.454946e+002;0.000000e+000
4.474232e+002;0.000000e+000
4.493517e+002;0.000000e+000
4.512802e+002;0.000000e+000
4.532088e+002;0.000000e+000
4.551373e+002;0.000000e+000
4.570659e+002;0.000000e+000
4.589944e+002;0.000000e+000
4.609230e+002;0.000000e+000
4.628515e+002;0.000000e+000
4.647801e+002;0.000000e+000
4.667086e+002;0.000000e+000
4.686372e+002;0.000000e+000
4.705657e+002;0.000000e+000
4.724943e+002;0.000000e+000
4.744228e+002;0.000000e+000
4.763513e+002;0.000000e+000
4.782799e+002;0.000000e+000
4.802085e+002;0.000000e+000
4.821370e+002;0.000000e+000
4.840656e+002;0.000000e+000
4.859941e+002;0.000000e+000
4.879226e+002;0.000000e+000
4.898512e+002;0.000000e+000
4.917798e+002;0.000000e+000
4.937083e+002;0.000000e+000
4.956368e+002;0.000000e+000
4.975654e+002;0.000000e+000
4.994939e+002;0.000000e+000
5.014225e+002;0.000000e+000
5.033510e+002;0.000000e+000
5.052796e+002;0.000000e+000
5.072081e+002;0.000000e+000
5.091367e+002;0.000000e+000
5.110652e+002;0.000000e+000
5.129938e+002;0.000000e+000
5.149223e+002;0.000000e+000
5.168509e+002;0.000000e+000
5.187794e+002;0.000000e+000
5.207079e+002;0.000000e+000
5.226365e+002;0.000000e+000
5.245651e+002;0.000000e+000
5.264936e+002;0.000000e+000
5.284222e+002;0.000000e+000
5.303507e+002;0.000000e+000
5.322792e+002;0.000000e+000
5.342078e+002;0.000000e+000
5.361364e+002;0.000000e+000
5.380649e+002;0.000000e+000
5.399935e+002;0.000000e+000
5.419220e+002;0.000000e+000
5.438505e+002;0.000000e+000
5.457791e+002;0.000000e+000
5.477076e+002;0.000000e+000
5.496362e+002;0.000000e+000
5.515648e+002;0.000000e+000
5.534933e+002;0.000000e+000
5.554218e+002;0.000000e+000
5.573504e+002;0.000000e+000
5.592789e+002;0.000000e+000
5.612075e+002;0.000000e+000
5.631360e+002;0.000000e+000
5.650646e+002;0.000000e+000
5.669931e+002;0.000000e+000
5.689217e+002;0.000000e+000
5.708502e+002;0.000000e+000
5.727787e+002;0.000000e+000
5.747073e+002;0.000000e+000
5.766359e+002;0.000000e+000
5.785644e+002;0.000000e+000
5.804930e+002;0.000000e+000
5.824215e+002;0.000000e+000
5.843500e+002;0.000000e+000
5.862786e+002;0.000000e+000
5.882072e+002;0.000000e+000
5.901357e+002;0.000000e+000
5.920643e+002;0.000000e+000
5.939928e+002;0.000000e+000
5.959213e+002;0.000000e+000
5.978499e+002;0.000000e+000
5.997784e+002;1.158189e-004
6.017070e+002;1.087660e-003
6.036355e+002;-6.677999e-004
6.055641e+002;-5.877490e-003
6.074926e+002;-3.519742e-003
6.094211e+002;2.399690e-003
6.113497e+002;3.729565e-003
6.132783e+002;2.094009e-003
6.152068e+002;3.910638e-003
6.171354e+002;6.121109e-003
6.190639e+002;8.077214e-003
6.209924e+002;5.118003e-003
6.229210e+002;2.961489e-003
6.248495e+002;3.658053e-003
6.267781e+002;9.014043e-003
6.287067e+002;1.464807e-002
6.306352e+002;1.194058e-002
6.325637e+002;8.082717e-003
6.344923e+002;4.590109e-003
6.364208e+002;3.103963e-003
6.383494e+002;4.166615e-003
6.402780e+002;3.221447e-003
6.422065e+002;7.160693e-003
6.441350e+002;1.070349e-002
6.460636e+002;9.595343e-003
6.479921e+002;1.021813e-002
6.499207e+002;8.106887e-003
6.518492e+002;3.910939e-003
6.537778e+002;2.607676e-003
6.557063e+002;5.198859e-004
6.576349e+002;2.456801e-003
6.595634e+002;8.137204e-003
6.614919e+002;6.701037e-003
6.634205e+002;2.221944e-003
6.653491e+002;2.291188e-003
6.672776e+002;2.357079e-003
6.692062e+002;3.343671e-003
6.711347e+002;6.858342e-003
6.730632e+002;9.197943e-003
6.749918e+002;8.424636e-003
6.769203e+002;6.466733e-003
6.788489e+002;4.950401e-003
6.807775e+002;4.785946e-003
6.827060e+002;5.914559e-003
6.846345e+002;5.357618e-003
6.865631e+002;2.365241e-003
6.884916e+002;2.532881e-003
6.904202e+002;2.832035e-003
6.923488e+002;4.539815e-003
6.942773e+002;5.542593e-003
6.962058e+002;4.899932e-003
6.981344e+002;6.027968e-003
7.000629e+002;8.232960e-003
7.019915e+002;7.377206e-003
7.039200e+002;4.912398e-003
7.058486e+002;5.994574e-003
7.077771e+002;7.372488e-003
7.097057e+002;8.123868e-003
7.116342e+002;7.521979e-003
7.135627e+002;5.994473e-003
7.154913e+002;6.902104e-003
7.174199e+002;8.960361e-003
7.193484e+002;1.012970e-002
7.212770e+002;1.077529e-002
7.232055e+002;1.088536e-002
7.251340e+002;1.210187e-002
7.270626e+002;1.380621e-002
7.289911e+002;1.578934e-002
7.309197e+002;1.732527e-002
7.328483e+002;2.043797e-002
7.347768e+002;2.423624e-002
7.367053e+002;2.734682e-002
7.386339e+002;3.129871e-002
7.405624e+002;3.448504e-002
7.424910e+002;3.639546e-002
7.444196e+002;3.899217e-002
7.463481e+002;4.144194e-002
7.482766e+002;4.199227e-002
7.502052e+002;4.088532e-002
7.521337e+002;3.968935e-002
7.540623e+002;3.784337e-002
7.559908e+002;3.681733e-002
7.579194e+002;3.520114e-002
7.598479e+002;3.357946e-002
7.617765e+002;3.370126e-002
7.637050e+002;3.354720e-002
7.656335e+002;3.401003e-002
7.675621e+002;3.349105e-002
7.694907e+002;3.303174e-002
7.714192e+002;3.176249e-002
7.733478e+002;2.912085e-002
7.752763e+002;2.646817e-002
7.772048e+002;2.410642e-002
7.791334e+002;2.168879e-002
7.810620e+002;1.907748e-002
7.829905e+002;1.619544e-002
7.849191e+002;1.268940e-002
7.868476e+002;9.588975e-003
7.887761e+002;8.105537e-003
7.907047e+002;8.074615e-003
7.926332e+002;7.719852e-003
7.945618e+002;8.234243e-003
7.964903e+002;9.610519e-003
7.984189e+002;1.182235e-002
8.003474e+002;1.577557e-002
8.022759e+002;1.981327e-002
8.042045e+002;2.330256e-002
8.061331e+002;2.578706e-002
8.080616e+002;2.762120e-002
8.099902e+002;2.926296e-002
8.119187e+002;3.078153e-002
8.138472e+002;3.087761e-002
8.157758e+002;2.938642e-002
8.177043e+002;2.826693e-002
8.196329e+002;2.732434e-002
8.215615e+002;2.509887e-002
8.234900e+002;2.370179e-002
8.254185e+002;2.373076e-002
8.273471e+002;2.271765e-002
8.292756e+002;2.065572e-002
8.312042e+002;1.972401e-002
8.331328e+002;1.894016e-002
8.350613e+002;1.717078e-002
8.369898e+002;1.548385e-002
8.389184e+002;1.573973e-002
8.408469e+002;1.644204e-002
8.427755e+002;1.683262e-002
8.447040e+002;1.798277e-002
8.466326e+002;1.785083e-002
8.485611e+002;1.677297e-002
8.504897e+002;1.579116e-002
8.524182e+002;1.511502e-002
8.543467e+002;1.523165e-002
8.562753e+002;1.491060e-002
8.582039e+002;1.409790e-002
8.601324e+002;1.417978e-002
8.620610e+002;1.414397e-002
8.639895e+002;1.395461e-002
8.659180e+002;1.319476e-002
8.678466e+002;1.114337e-002
8.697751e+002;9.548328e-003
8.717037e+002;8.513731e-003
8.736323e+002;6.913752e-003
8.755608e+002;5.357719e-003
8.774893e+002;3.974234e-003
8.794179e+002;3.341868e-003
8.813464e+002;3.744638e-003
8.832750e+002;3.920000e-003
8.852036e+002;4.113127e-003
8.871321e+002;4.433623e-003
8.890606e+002;4.941721e-003
8.909892e+002;5.379658e-003
8.929177e+002;6.421939e-003
8.948463e+002;7.861433e-003
8.967748e+002;9.186030e-003
8.987034e+002;1.032517e-002
9.006319e+002;1.106264e-002
9.025605e+002;1.155971e-002
9.044890e+002;1.349967e-002
9.064175e+002;1.572685e-002
9.083461e+002;1.704716e-002
9.102747e+002;1.837443e-002
9.122032e+002;2.001186e-002
9.141318e+002;2.152974e-002
9.160603e+002;2.194884e-002
9.179888e+002;2.157292e-002
9.199174e+002;2.161655e-002
9.218459e+002;2.230583e-002
9.237745e+002;2.265394e-002
9.257031e+002;2.322555e-002
9.276316e+002;2.432780e-002
9.295601e+002;2.569196e-002
9.314887e+002;2.717568e-002
9.334172e+002;2.863025e-002
9.353458e+002;3.030223e-002
9.372744e+002;3.186003e-002
9.392029e+002;3.400390e-002
9.411314e+002;3.641650e-002
9.430600e+002;3.832973e-002
9.449885e+002;4.074347e-002
9.469171e+002;4.467025e-002
9.488456e+002;4.799167e-002
9.507742e+002;5.023674e-002
9.527027e+002;5.244663e-002
9.546313e+002;5.515248e-002
9.565598e+002;5.735787e-002
9.584883e+002;5.887664e-002
9.604169e+002;6.019566e-002
9.623455e+002;6.091372e-002
9.642740e+002;6.094994e-002
9.662026e+002;6.085452e-002
9.681311e+002;6.171894e-002
9.700596e+002;6.353343e-002
9.719882e+002;6.486315e-002
9.739167e+002;6.653838e-002
9.758453e+002;6.915670e-002
9.777739e+002;7.205456e-002
9.797024e+002;7.520527e-002
9.816309e+002;7.873502e-002
9.835595e+002;8.196513e-002
9.854880e+002;8.461448e-002
9.874166e+002;8.713595e-002
9.893452e+002;8.905462e-002
9.912737e+002;9.038356e-002
9.932022e+002;9.095003e-002
9.951307e+002;8.928087e-002
9.970593e+002;8.589470e-002
9.989879e+002;8.162532e-002
1.000916e+003;7.669365e-002
1.002845e+003;7.176299e-002
1.004773e+003;6.771870e-002
1.006702e+003;6.468014e-002
1.008631e+003;6.177093e-002
1.010559e+003;6.016555e-002
1.012488e+003;5.961061e-002
1.014416e+003;5.906021e-002
1.016345e+003;5.848625e-002
1.018273e+003;5.762206e-002
1.020202e+003;5.543635e-002
1.022130e+003;5.237250e-002
1.024059e+003;5.014975e-002
1.025988e+003;4.937273e-002
1.027916e+003;4.943588e-002
1.029845e+003;5.041592e-002
1.031773e+003;5.227715e-002
1.033702e+003;5.357408e-002
1.035630e+003;5.487579e-002
1.037559e+003;5.605387e-002
1.039487e+003;5.756876e-002
1.041416e+003;6.038909e-002
1.043344e+003;6.389874e-002
1.045273e+003;6.704839e-002
1.047202e+003;7.011511e-002
1.049130e+003;7.337761e-002
1.051059e+003;7.639508e-002
1.052987e+003;7.979609e-002
1.054916e+003;8.395486e-002
1.056844e+003;8.707400e-002
1.058773e+003;9.005341e-002
1.060701e+003;9.394069e-002
1.062630e+003;9.788496e-002
1.064558e+003;1.018187e-001
1.066487e+003;1.042252e-001
1.068416e+003;1.060971e-001
1.070344e+003;1.092878e-001
1.072273e+003;1.136841e-001
1.074201e+003;1.186441e-001
1.076130e+003;1.226954e-001
1.078058e+003;1.265913e-001
1.079987e+003;1.308432e-001
1.081915e+003;1.352232e-001
1.083844e+003;1.406851e-001
1.085773e+003;1.464791e-001
1.087701e+003;1.512494e-001
1.089630e+003;1.564651e-001
1.091558e+003;1.628381e-001
1.093487e+003;1.692870e-001
1.095415e+003;1.742058e-001
1.097344e+003;1.780824e-001
1.099272e+003;1.814582e-001
1.101201e+003;1.838810e-001
1.103129e+003;1.840395e-001
1.105058e+003;1.813753e-001
1.106987e+003;1.763651e-001
1.108915e+003;1.697942e-001
1.110844e+003;1.627912e-001
1.112772e+003;1.540072e-001
1.114701e+003;1.434802e-001
1.116629e+003;1.320856e-001
1.118558e+003;1.211094e-001
1.120486e+003;1.106726e-001
1.122415e+003;9.945545e-002
1.124344e+003;8.828130e-002
1.126272e+003;7.928105e-002
1.128201e+003;7.128795e-002
1.130129e+003;6.348269e-002
1.132058e+003;5.745732e-002
1.133986e+003;5.249785e-002
1.135915e+003;4.792500e-002
1.137843e+003;4.371528e-002
1.139772e+003;4.037551e-002
1.141700e+003;3.763068e-002
1.143629e+003;3.515440e-002
1.145557e+003;3.302248e-002
1.147486e+003;3.154541e-002
1.149415e+003;2.958522e-002
1.151343e+003;2.738310e-002
1.153272e+003;2.609166e-002
1.155200e+003;2.522513e-002
1.157129e+003;2.417112e-002
1.159057e+003;2.275372e-002
1.160986e+003;2.166792e-002
1.162914e+003;2.145492e-002
1.164843e+003;2.080276e-002
1.166771e+003;2.024654e-002
1.168700e+003;2.085379e-002
1.170629e+003;2.184102e-002
1.172557e+003;2.270110e-002
1.174486e+003;2.466413e-002
1.176414e+003;2.767879e-002
1.178343e+003;3.089486e-002
1.180271e+003;3.396639e-002
1.182200e+003;3.639297e-002
1.184128e+003;3.806247e-002
1.186057e+003;3.990437e-002
1.187986e+003;4.292620e-002
1.189914e+003;4.730322e-002
1.191843e+003;5.243979e-002
1.193771e+003;5.758559e-002
1.195700e+003;6.280964e-002
1.197628e+003;6.801404e-002
1.199557e+003;7.351314e-002
1.201485e+003;7.917177e-002
1.203414e+003;8.467584e-002
1.205343e+003;8.974613e-002
1.207271e+003;9.273747e-002
1.209200e+003;9.359414e-002
1.211128e+003;9.306769e-002
1.213057e+003;9.135164e-002
1.214985e+003;8.918537e-002
1.216914e+003;8.722939e-002
1.218842e+003;8.627311e-002
1.220771e+003;8.531358e-002
1.222699e+003;8.281623e-002
1.224628e+003;8.017659e-002
1.226557e+003;7.765178e-002
1.228485e+003;7.441888e-002
1.230414e+003;7.125012e-002
1.232342e+003;6.836209e-002
1.234271e+003;6.556404e-002
1.236199e+003;6.351344e-002
1.238128e+003;6.175981e-002
1.240056e+003;6.022326e-002
1.241985e+003;5.934680e-002
1.243913e+003;5.873391e-002
1.245842e+003;5.848427e-002
1.247771e+003;5.858881e-002
1.249699e+003;5.823073e-002
1.251628e+003;5.568062e-002
1.253556e+003;5.014618e-002
1.255485e+003;4.322677e-002
1.257413e+003;3.647956e-002
1.259342e+003;3.026962e-002
1.261270e+003;2.513728e-002
1.263199e+003;2.227870e-002
1.265127e+003;2.200398e-002
1.267056e+003;2.251914e-002
1.268985e+003;2.243320e-002
1.270913e+003;2.178852e-002
1.272842e+003;2.150328e-002
1.274770e+003;2.170484e-002
1.276699e+003;2.130202e-002
1.278627e+003;2.025973e-002
1.280556e+003;1.944657e-002
1.282484e+003;1.889506e-002
1.284413e+003;1.849477e-002
1.286342e+003;1.858001e-002
1.288270e+003;1.907232e-002
1.290199e+003;1.988919e-002
1.292127e+003;2.101735e-002
1.294056e+003;2.252288e-002
1.295984e+003;2.428701e-002
1.297913e+003;2.655315e-002
1.299841e+003;2.943503e-002
1.301770e+003;3.219330e-002
1.303698e+003;3.492542e-002
1.305627e+003;3.737345e-002
1.307556e+003;3.899616e-002
1.309484e+003;3.961744e-002
1.311413e+003;3.901592e-002
1.313341e+003;3.815120e-002
1.315270e+003;3.682707e-002
1.317198e+003;3.441858e-002
1.319127e+003;3.139006e-002
1.321055e+003;2.771609e-002
1.322984e+003;2.379957e-002
1.324912e+003;2.036764e-002
1.326841e+003;1.722808e-002
1.328770e+003;1.462353e-002
1.330698e+003;1.293801e-002
1.332627e+003;1.175320e-002
1.334555e+003;1.073569e-002
1.336484e+003;1.018417e-002
1.338412e+003;1.011328e-002
1.340341e+003;9.642567e-003
1.342269e+003;9.087425e-003
1.344198e+003;8.751238e-003
1.346126e+003;8.651751e-003
1.348055e+003;9.274503e-003
1.349984e+003;1.076629e-002
1.351912e+003;1.304904e-002
1.353841e+003;1.563145e-002
1.355769e+003;1.863579e-002
1.357698e+003;2.211372e-002
1.359626e+003;2.604926e-002
1.361555e+003;3.116159e-002
1.363483e+003;3.695577e-002
1.365412e+003;4.281290e-002
1.367341e+003;4.814890e-002
1.369269e+003;5.137099e-002
1.371198e+003;5.088122e-002
1.373126e+003;4.671236e-002
1.375055e+003;4.112114e-002
1.376983e+003;3.493357e-002
1.378912e+003;2.865687e-002
1.380840e+003;2.312518e-002
1.382769e+003;1.848336e-002
1.384698e+003;1.441900e-002
1.386626e+003;1.098098e-002
1.388555e+003;8.117420e-003
1.390483e+003;6.137273e-003
1.392412e+003;5.238313e-003
1.394340e+003;4.608392e-003
1.396269e+003;4.390711e-003
1.398197e+003;5.260817e-003
1.400126e+003;7.319277e-003
1.402054e+003;1.027322e-002
1.403983e+003;1.377474e-002
1.405911e+003;1.818177e-002
1.407840e+003;2.313685e-002
1.409769e+003;2.748824e-002
1.411697e+003;3.043865e-002
1.413626e+003;3.071524e-002
1.415554e+003;2.826286e-002
1.417483e+003;2.370847e-002
1.419411e+003;1.837474e-002
1.421340e+003;1.430543e-002
1.423268e+003;1.203857e-002
1.425197e+003;1.127047e-002
1.427125e+003;1.239031e-002
1.429054e+003;1.422384e-002
1.430983e+003;1.573921e-002
1.432911e+003;1.660811e-002
1.434840e+003;1.713748e-002
1.436768e+003;1.736210e-002
1.438697e+003;1.768276e-002
1.440625e+003;1.838075e-002
1.442554e+003;1.995854e-002
1.444482e+003;2.218698e-002
1.446411e+003;2.399491e-002
1.448340e+003;2.485706e-002
1.450268e+003;2.547659e-002
1.452197e+003;2.607935e-002
1.454125e+003;2.691448e-002
1.456054e+003;2.767551e-002
1.457982e+003;2.846982e-002
1.459911e+003;2.907688e-002
1.461839e+003;2.922060e-002
1.463768e+003;2.897344e-002
1.465697e+003;2.893555e-002
1.467625e+003;2.926799e-002
1.469554e+003;2.941454e-002
1.471482e+003;2.964861e-002
1.473411e+003;3.032362e-002
1.475339e+003;3.128325e-002
1.477268e+003;3.214941e-002
1.479196e+003;3.361429e-002
1.481125e+003;3.565336e-002
1.483053e+003;3.786423e-002
1.484982e+003;3.959080e-002
1.486911e+003;3.973768e-002
1.488839e+003;3.838815e-002
1.490768e+003;3.560596e-002
1.492696e+003;3.175886e-002
1.494625e+003;2.786724e-002
1.496553e+003;2.502263e-002
1.498482e+003;2.375361e-002
1.500410e+003;2.430236e-002
1.502339e+003;2.628526e-002
1.504267e+003;2.876250e-002
1.506196e+003;3.223748e-002
1.508125e+003;3.704868e-002
1.510053e+003;4.242020e-002
1.511982e+003;4.714859e-002
1.513910e+003;5.050807e-002
1.515839e+003;5.261891e-002
1.517767e+003;5.357303e-002
1.519696e+003;5.348030e-002
1.521624e+003;5.272567e-002
1.523553e+003;5.161616e-002
1.525481e+003;5.080329e-002
1.527410e+003;5.018393e-002
1.529339e+003;4.948920e-002
1.531267e+003;4.848228e-002
1.533196e+003;4.720133e-002
1.535124e+003;4.620695e-002
1.537053e+003;4.500537e-002
1.538981e+003;4.263895e-002
1.540910e+003;3.998698e-002
1.542838e+003;3.743723e-002
1.544767e+003;3.434111e-002
1.546695e+003;3.097549e-002
1.548624e+003;2.760580e-002
1.550553e+003;2.400615e-002
1.552481e+003;2.039706e-002
1.554410e+003;1.680197e-002
1.556338e+003;1.311040e-002
1.558267e+003;1.006943e-002
1.560195e+003;7.874456e-003
1.562124e+003;5.858940e-003
1.564052e+003;3.869216e-003
1.565981e+003;1.926105e-003
1.567910e+003;9.838611e-005
1.569838e+003;-1.276268e-003
1.571767e+003;-2.240302e-003
1.573695e+003;-2.874618e-003
1.575624e+003;-3.669522e-003
1.577552e+003;-4.047193e-003
1.579481e+003;-3.731121e-003
1.581409e+003;-2.798971e-003
1.583338e+003;-1.353370e-003
1.585266e+003;1.046440e-003
1.587195e+003;4.357442e-003
1.589124e+003;7.964451e-003
1.591052e+003;1.117870e-002
1.592981e+003;1.394606e-002
1.594909e+003;1.590894e-002
1.596838e+003;1.683583e-002
1.598766e+003;1.724973e-002
1.600695e+003;1.695839e-002
1.602623e+003;1.624235e-002
1.604552e+003;1.461223e-002
1.606480e+003;1.247538e-002
1.608409e+003;1.059371e-002
1.610338e+003;9.281747e-003
1.612266e+003;8.480010e-003
1.614195e+003;7.361400e-003
1.616123e+003;5.484236e-003
1.618052e+003;3.208262e-003
1.619980e+003;1.343773e-003
1.621909e+003;-5.787309e-004
1.623837e+003;-2.480145e-003
1.625766e+003;-3.407620e-003
1.627694e+003;-3.789887e-003
1.629623e+003;-3.486283e-003
1.631552e+003;-2.441267e-003
1.633480e+003;-1.483822e-003
1.635409e+003;9.036592e-005
1.637337e+003;2.034017e-003
1.639266e+003;3.680942e-003
1.641194e+003;5.018808e-003
1.643123e+003;6.069025e-003
1.645051e+003;6.730582e-003
1.646980e+003;7.446637e-003
1.648909e+003;8.073401e-003
1.650837e+003;8.426257e-003
1.652766e+003;8.840603e-003
1.654694e+003;9.636841e-003
1.656623e+003;1.063656e-002
1.658551e+003;1.136362e-002
1.660480e+003;1.186964e-002
1.662408e+003;1.261084e-002
1.664337e+003;1.356052e-002
1.666266e+003;1.427968e-002
1.668194e+003;1.478559e-002
1.670123e+003;1.554469e-002
1.672051e+003;1.643460e-002
1.673980e+003;1.733276e-002
1.675908e+003;1.817810e-002
1.677837e+003;1.930733e-002
1.679765e+003;2.030414e-002
1.681694e+003;2.133046e-002
1.683622e+003;2.251073e-002
1.685551e+003;2.411959e-002
1.687479e+003;2.598756e-002
1.689408e+003;2.763847e-002
1.691337e+003;2.906151e-002
1.693265e+003;3.024230e-002
1.695194e+003;3.093944e-002
1.697122e+003;3.197668e-002
1.699051e+003;3.286256e-002
1.700979e+003;3.327611e-002
1.702908e+003;3.386590e-002
1.704836e+003;3.371651e-002
1.706765e+003;3.283264e-002
1.708693e+003;3.196145e-002
1.710622e+003;3.101417e-002
1.712551e+003;2.977006e-002
1.714479e+003;2.890959e-002
1.716408e+003;2.924995e-002
1.718336e+003;3.113678e-002
1.720265e+003;3.399358e-002
1.722193e+003;3.780842e-002
1.724122e+003;4.217670e-002
1.726050e+003;4.607982e-002
1.727979e+003;4.913580e-002
1.729908e+003;5.021194e-002
1.731836e+003;4.835692e-002
1.733765e+003;4.445587e-002
1.735693e+003;3.951760e-002
1.737622e+003;3.353117e-002
1.739550e+003;2.685421e-002
1.741479e+003;2.000627e-002
1.743407e+003;1.364055e-002
1.745336e+003;7.995229e-003
1.747265e+003;2.753334e-003
1.749193e+003;-1.749791e-003
1.751122e+003;-5.175293e-003
1.753050e+003;-7.905881e-003
1.754979e+003;-1.020683e-002
1.756907e+003;-1.204837e-002
1.758836e+003;-1.334513e-002
1.760764e+003;-1.416621e-002
1.762693e+003;-1.507763e-002
1.764621e+003;-1.589340e-002
1.766550e+003;-1.640866e-002
1.768479e+003;-1.701919e-002
1.770407e+003;-1.788389e-002
1.772336e+003;-1.846327e-002
1.774264e+003;-1.833140e-002
1.776193e+003;-1.849718e-002
1.778121e+003;-1.874932e-002
1.780050e+003;-1.894136e-002
1.781978e+003;-1.942552e-002
1.783907e+003;-1.939703e-002
1.785835e+003;-1.945318e-002
1.787764e+003;-1.981554e-002
1.789693e+003;-1.991376e-002
1.791621e+003;-1.996971e-002
1.793550e+003;-2.045266e-002
1.795478e+003;-2.061918e-002
1.797407e+003;-2.033341e-002
1.799335e+003;-2.004837e-002
1.801264e+003;-2.020179e-002
1.803192e+003;-2.040236e-002
1.805121e+003;-2.042402e-002
1.807049e+003;-2.042158e-002
1.808978e+003;-2.065931e-002
1.810907e+003;-2.075133e-002
1.812835e+003;-2.085796e-002
1.814764e+003;-2.112606e-002
1.816692e+003;-2.139563e-002
1.818621e+003;-2.124228e-002
1.820549e+003;-2.083421e-002
1.822478e+003;-2.088954e-002
1.824406e+003;-2.110766e-002
1.826335e+003;-2.113587e-002
1.828264e+003;-2.113552e-002
1.830192e+003;-2.130705e-002
1.832121e+003;-2.135680e-002
1.834049e+003;-2.105693e-002
1.835978e+003;-2.112050e-002
1.837906e+003;-2.140594e-002
1.839835e+003;-2.138080e-002
1.841763e+003;-2.110993e-002
1.843692e+003;-2.116068e-002
1.845620e+003;-2.126500e-002
1.847549e+003;-2.132456e-002
1.849478e+003;-2.146687e-002
1.851406e+003;-2.142086e-002
1.853335e+003;-2.161075e-002
1.855263e+003;-2.168678e-002
1.857192e+003;-2.184023e-002
1.859120e+003;-2.204306e-002
1.861049e+003;-2.199028e-002
1.862977e+003;-2.144442e-002
1.864906e+003;-2.137248e-002
1.866834e+003;-2.164782e-002
1.868763e+003;-2.139683e-002
1.870692e+003;-2.105772e-002
1.872620e+003;-2.100898e-002
1.874549e+003;-2.113076e-002
1.876477e+003;-2.150453e-002
1.878406e+003;-2.151585e-002
1.880334e+003;-2.115298e-002
1.882263e+003;-2.089749e-002
1.884191e+003;-2.089819e-002
1.886120e+003;-2.103540e-002
1.888048e+003;-2.075875e-002
1.889977e+003;-2.021634e-002
1.891906e+003;-1.993429e-002
1.893834e+003;-1.997999e-002
1.895763e+003;-1.988350e-002
1.897691e+003;-1.970963e-002
1.899620e+003;-1.974269e-002
1.901548e+003;-1.972949e-002
1.903477e+003;-1.973829e-002
1.905405e+003;-1.961032e-002
1.907334e+003;-1.959465e-002
1.909262e+003;-1.960029e-002
1.911191e+003;-1.969405e-002
1.913120e+003;-1.974674e-002
1.915048e+003;-1.969804e-002
1.916977e+003;-1.991594e-002
1.918905e+003;-1.987989e-002
1.920834e+003;-1.976944e-002
1.922762e+003;-1.994395e-002
1.924691e+003;-2.022165e-002
1.926619e+003;-2.029739e-002
1.928548e+003;-2.038014e-002
1.930477e+003;-2.028051e-002
1.932405e+003;-2.020717e-002
1.934334e+003;-2.031418e-002
1.936262e+003;-2.053528e-002
1.938191e+003;-2.066790e-002
1.940119e+003;-2.073405e-002
1.942048e+003;-2.058145e-002
1.943976e+003;-2.036597e-002
1.945905e+003;-2.060676e-002
1.947833e+003;-2.096311e-002
1.949762e+003;-2.109718e-002
1.951691e+003;-2.086269e-002
1.953619e+003;-2.060938e-002
1.955548e+003;-2.072574e-002
1.957476e+003;-2.074027e-002
1.959405e+003;-2.073721e-002
1.961333e+003;-2.093665e-002
1.963262e+003;-2.105081e-002
1.965190e+003;-2.079779e-002
1.967119e+003;-2.042674e-002
1.969047e+003;-2.067491e-002
1.970976e+003;-2.074647e-002
1.972905e+003;-2.068869e-002
1.974833e+003;-2.091770e-002
1.976762e+003;-2.079505e-002
1.978690e+003;-2.046694e-002
1.980619e+003;-2.058891e-002
1.982547e+003;-2.074849e-002
1.984476e+003;-2.058072e-002
1.986404e+003;-2.045272e-002
1.988333e+003;-2.034884e-002
1.990261e+003;-2.024566e-002
1.992190e+003;-2.024265e-002
1.994119e+003;-2.024926e-002
1.996047e+003;-2.023601e-002
1.997976e+003;-2.027080e-002
1.999904e+003;-2.033369e-002
2.001833e+003;-2.029439e-002
2.003761e+003;-2.013727e-002
2.005690e+003;-1.986862e-002
2.007618e+003;-1.979372e-002
2.009547e+003;-1.976058e-002
2.011476e+003;-1.981215e-002
2.013404e+003;-1.961026e-002
2.015333e+003;-1.942764e-002
2.017261e+003;-1.962135e-002
2.019190e+003;-1.941173e-002
2.021118e+003;-1.907501e-002
2.023047e+003;-1.887890e-002
2.024975e+003;-1.876417e-002
2.026904e+003;-1.869324e-002
2.028833e+003;-1.860747e-002
2.030761e+003;-1.859935e-002
2.032690e+003;-1.846796e-002
2.034618e+003;-1.816371e-002
2.036547e+003;-1.809873e-002
2.038475e+003;-1.808738e-002
2.040404e+003;-1.761636e-002
2.042332e+003;-1.747504e-002
2.044261e+003;-1.760233e-002
2.046189e+003;-1.773416e-002
2.048118e+003;-1.779094e-002
2.050047e+003;-1.762164e-002
2.051975e+003;-1.707214e-002
2.053904e+003;-1.692988e-002
2.055832e+003;-1.709352e-002
2.057761e+003;-1.708374e-002
2.059689e+003;-1.689094e-002
2.061618e+003;-1.676905e-002
2.063546e+003;-1.682368e-002
2.065475e+003;-1.677354e-002
2.067404e+003;-1.664684e-002
2.069332e+003;-1.657107e-002
2.071260e+003;-1.675343e-002
2.073189e+003;-1.693138e-002
2.075118e+003;-1.682161e-002
2.077046e+003;-1.646536e-002
2.078975e+003;-1.631134e-002
2.080903e+003;-1.641629e-002
2.082832e+003;-1.659996e-002
2.084760e+003;-1.680886e-002
2.086689e+003;-1.689043e-002
2.088617e+003;-1.669400e-002
2.090546e+003;-1.671539e-002
2.092475e+003;-1.717293e-002
2.094403e+003;-1.721796e-002
2.096332e+003;-1.695760e-002
2.098260e+003;-1.701843e-002
2.100189e+003;-1.728095e-002
2.102117e+003;-1.747335e-002
2.104046e+003;-1.731435e-002
2.105974e+003;-1.705867e-002
2.107903e+003;-1.713407e-002
2.109832e+003;-1.746457e-002
2.111760e+003;-1.743583e-002
2.113688e+003;-1.739693e-002
2.115617e+003;-1.779774e-002
2.117546e+003;-1.835478e-002
2.119474e+003;-1.834620e-002
2.121403e+003;-1.835427e-002
2.123331e+003;-1.871222e-002
2.125260e+003;-1.874252e-002
2.127188e+003;-1.844129e-002
2.129117e+003;-1.810441e-002
2.131045e+003;-1.794608e-002
2.132974e+003;-1.818030e-002
2.134903e+003;-1.866654e-002
2.136831e+003;-1.888365e-002
2.138760e+003;-1.874662e-002
2.140688e+003;-1.869844e-002
2.142617e+003;-1.883581e-002
2.144545e+003;-1.892014e-002
2.146474e+003;-1.873789e-002
2.148402e+003;-1.892147e-002
2.150331e+003;-1.897133e-002
2.152260e+003;-1.882366e-002
2.154188e+003;-1.882036e-002
2.156117e+003;-1.897492e-002
2.158045e+003;-1.906895e-002
2.159974e+003;-1.882357e-002
2.161902e+003;-1.861392e-002
2.163831e+003;-1.879545e-002
2.165759e+003;-1.871929e-002
2.167688e+003;-1.832546e-002
2.169616e+003;-1.815081e-002
2.171545e+003;-1.840813e-002
2.173474e+003;-1.863534e-002
2.175402e+003;-1.869743e-002
2.177331e+003;-1.852588e-002
2.179259e+003;-1.818665e-002
2.181188e+003;-1.818869e-002
2.183116e+003;-1.842043e-002
2.185045e+003;-1.830341e-002
2.186973e+003;-1.836951e-002
2.188902e+003;-1.816724e-002
2.190831e+003;-1.780557e-002
2.192759e+003;-1.762174e-002
2.194688e+003;-1.752720e-002
2.196616e+003;-1.735850e-002
2.198545e+003;-1.739012e-002
2.200473e+003;-1.779590e-002
2.202402e+003;-1.775961e-002
2.204330e+003;-1.767506e-002
2.206259e+003;-1.790907e-002
2.208188e+003;-1.789019e-002
2.210116e+003;-1.766160e-002
2.212044e+003;-1.746654e-002
2.213973e+003;-1.739581e-002
2.215902e+003;-1.762416e-002
2.217830e+003;-1.731737e-002
2.219759e+003;-1.687627e-002
2.221687e+003;-1.713381e-002
2.223616e+003;-1.727843e-002
2.225544e+003;-1.704812e-002
2.227473e+003;-1.701610e-002
2.229401e+003;-1.691812e-002
2.231330e+003;-1.705841e-002
2.233259e+003;-1.730381e-002
2.235187e+003;-1.722910e-002
2.237116e+003;-1.710387e-002
2.239044e+003;-1.734539e-002
2.240973e+003;-1.741717e-002
2.242901e+003;-1.730702e-002
2.244830e+003;-1.760602e-002
2.246758e+003;-1.795533e-002
2.248687e+003;-1.796913e-002
2.250615e+003;-1.766886e-002
2.252544e+003;-1.736007e-002
2.254473e+003;-1.734593e-002
2.256401e+003;-1.760946e-002
2.258330e+003;-1.750722e-002
2.260258e+003;-1.729250e-002
2.262187e+003;-1.749598e-002
2.264115e+003;-1.743879e-002
2.266044e+003;-1.717274e-002
2.267972e+003;-1.735121e-002
2.269901e+003;-1.773909e-002
2.271830e+003;-1.802654e-002
2.273758e+003;-1.826380e-002
2.275687e+003;-1.820836e-002
2.277615e+003;-1.774113e-002
2.279544e+003;-1.756803e-002
2.281472e+003;-1.772745e-002
2.283401e+003;-1.792965e-002
2.285329e+003;-1.782878e-002
2.287258e+003;-1.752574e-002
2.289187e+003;-1.751816e-002
2.291115e+003;-1.755415e-002
2.293043e+003;-1.728559e-002
2.294972e+003;-1.713611e-002
2.296901e+003;-1.745362e-002
2.298829e+003;-1.783145e-002
2.300758e+003;-1.777214e-002
2.302686e+003;-1.763039e-002
2.304615e+003;-1.764232e-002
2.306543e+003;-1.744503e-002
2.308472e+003;-1.726181e-002
2.310400e+003;-1.737264e-002
2.312329e+003;-1.781419e-002
2.314258e+003;-1.813540e-002
2.316186e+003;-1.830935e-002
2.318115e+003;-1.823679e-002
2.320043e+003;-1.819409e-002
2.321972e+003;-1.833016e-002
2.323900e+003;-1.862169e-002
2.325829e+003;-1.899731e-002
2.327757e+003;-1.912149e-002
2.329686e+003;-1.900454e-002
2.331615e+003;-1.900717e-002
2.333543e+003;-1.911921e-002
2.335472e+003;-1.901088e-002
2.337400e+003;-1.891421e-002
2.339329e+003;-1.908103e-002
2.341257e+003;-1.877375e-002
2.343186e+003;-1.828073e-002
2.345114e+003;-1.794669e-002
2.347043e+003;-1.751390e-002
2.348971e+003;-1.723672e-002
2.350900e+003;-1.751151e-002
2.352829e+003;-1.807651e-002
2.354757e+003;-1.866010e-002
2.356686e+003;-1.913858e-002
2.358614e+003;-1.949002e-002
2.360543e+003;-1.959968e-002
2.362471e+003;-1.959139e-002
2.364400e+003;-1.936534e-002
2.366328e+003;-1.918826e-002
2.368257e+003;-1.882541e-002
2.370186e+003;-1.836348e-002
2.372114e+003;-1.798484e-002
2.374042e+003;-1.788042e-002
2.375971e+003;-1.782659e-002
2.377900e+003;-1.744302e-002
2.379828e+003;-1.720270e-002
2.381757e+003;-1.730470e-002
2.383685e+003;-1.706249e-002
2.385614e+003;-1.694983e-002
2.387542e+003;-1.713955e-002
2.389471e+003;-1.719997e-002
2.391399e+003;-1.700205e-002
2.393328e+003;-1.694913e-002
2.395257e+003;-1.681170e-002
2.397185e+003;-1.646032e-002
2.399114e+003;-1.632127e-002
2.401042e+003;-1.667018e-002
2.402971e+003;-1.702451e-002
2.404899e+003;-1.720210e-002
2.406828e+003;-1.711397e-002
2.408756e+003;-1.709489e-002
2.410685e+003;-1.727833e-002
2.412614e+003;-1.728050e-002
2.414542e+003;-1.719016e-002
2.416471e+003;-1.711505e-002
2.418399e+003;-1.719051e-002
2.420328e+003;-1.730967e-002
2.422256e+003;-1.708893e-002
2.424185e+003;-1.675113e-002
2.426113e+003;-1.680328e-002
2.428042e+003;-1.693205e-002
2.429970e+003;-1.692213e-002
2.431899e+003;-1.689298e-002
2.433828e+003;-1.673439e-002
2.435756e+003;-1.669728e-002
2.437685e+003;-1.693899e-002
2.439613e+003;-1.731425e-002
2.441542e+003;-1.726595e-002
2.443470e+003;-1.708240e-002
2.445399e+003;-1.718398e-002
2.447327e+003;-1.748997e-002
2.449256e+003;-1.734975e-002
2.451185e+003;-1.697035e-002
2.453113e+003;-1.679018e-002
2.455042e+003;-1.692159e-002
2.456970e+003;-1.697758e-002
2.458899e+003;-1.673513e-002
2.460827e+003;-1.683551e-002
2.462756e+003;-1.698313e-002
2.464684e+003;-1.680934e-002
2.466613e+003;-1.684341e-002
2.468542e+003;-1.713719e-002
2.470470e+003;-1.712461e-002
2.472398e+003;-1.676870e-002
2.474327e+003;-1.649665e-002
2.476256e+003;-1.665790e-002
2.478184e+003;-1.677364e-002
2.480113e+003;-1.657827e-002
2.482041e+003;-1.635768e-002
2.483970e+003;-1.659722e-002
2.485898e+003;-1.694024e-002
2.487827e+003;-1.695993e-002
2.489755e+003;-1.673580e-002
2.491684e+003;-1.654651e-002
2.493613e+003;-1.681294e-002
2.495541e+003;-1.699151e-002
2.497470e+003;-1.666285e-002
2.499398e+003;-1.663332e-002
2.501327e+003;-1.659741e-002
2.503255e+003;-1.659524e-002
2.505184e+003;-1.691965e-002
2.507112e+003;-1.689164e-002
2.509041e+003;-1.678151e-002
2.510969e+003;-1.662920e-002
2.512898e+003;-1.647920e-002
2.514827e+003;-1.660838e-002
2.516755e+003;-1.671211e-002
2.518684e+003;-1.639491e-002
2.520612e+003;-1.619529e-002
2.522541e+003;-1.602311e-002
2.524469e+003;-1.584127e-002
2.526398e+003;-1.576414e-002
2.528326e+003;-1.580833e-002
2.530255e+003;-1.593355e-002
2.532184e+003;-1.599028e-002
2.534112e+003;-1.615449e-002
2.536041e+003;-1.619944e-002
2.537969e+003;-1.593442e-002
2.539898e+003;-1.611235e-002
2.541826e+003;-1.642551e-002
2.543755e+003;-1.610836e-002
2.545683e+003;-1.621840e-002
2.547612e+003;-1.623509e-002
2.549541e+003;-1.573893e-002
2.551469e+003;-1.534248e-002
2.553397e+003;-1.516359e-002
2.555326e+003;-1.502937e-002
2.557255e+003;-1.512106e-002
2.559183e+003;-1.522246e-002
2.561112e+003;-1.508976e-002
2.563040e+003;-1.477234e-002
2.564969e+003;-1.441799e-002
2.566897e+003;-1.420752e-002
2.568826e+003;-1.380373e-002
2.570754e+003;-1.337084e-002
2.572683e+003;-1.354999e-002
2.574612e+003;-1.385973e-002
2.576540e+003;-1.396765e-002
2.578469e+003;-1.383727e-002
2.580397e+003;-1.339005e-002
2.582326e+003;-1.302139e-002
2.584254e+003;-1.286209e-002
2.586183e+003;-1.268916e-002
2.588111e+003;-1.263133e-002
2.590040e+003;-1.262450e-002
2.591969e+003;-1.250338e-002
2.593897e+003;-1.260181e-002
2.595826e+003;-1.260236e-002
2.597754e+003;-1.227455e-002
2.599683e+003;-1.213048e-002
2.601611e+003;-1.215687e-002
2.603540e+003;-1.209941e-002
2.605468e+003;-1.194043e-002
2.607397e+003;-1.192914e-002
2.609325e+003;-1.194813e-002
2.611254e+003;-1.187066e-002
2.613183e+003;-1.174787e-002
2.615111e+003;-1.163866e-002
2.617040e+003;-1.164160e-002
2.618968e+003;-1.140863e-002
2.620897e+003;-1.096669e-002
2.622825e+003;-1.125001e-002
2.624754e+003;-1.162863e-002
2.626682e+003;-1.169211e-002
2.628611e+003;-1.161631e-002
2.630540e+003;-1.155882e-002
2.632468e+003;-1.163173e-002
2.634396e+003;-1.159311e-002
2.636325e+003;-1.143026e-002
2.638254e+003;-1.130815e-002
2.640182e+003;-1.158514e-002
2.642111e+003;-1.157027e-002
2.644039e+003;-1.130444e-002
2.645968e+003;-1.101528e-002
2.647896e+003;-1.084035e-002
2.649825e+003;-1.090718e-002
2.651753e+003;-1.088495e-002
2.653682e+003;-1.065724e-002
2.655611e+003;-1.023628e-002
2.657539e+003;-9.888732e-003
2.659468e+003;-9.652040e-003
2.661396e+003;-9.417228e-003
2.663325e+003;-8.921485e-003
2.665253e+003;-8.687968e-003
2.667182e+003;-8.830424e-003
2.669110e+003;-8.718269e-003
2.671039e+003;-8.329201e-003
2.672968e+003;-7.938286e-003
2.674896e+003;-7.433978e-003
2.676825e+003;-7.310742e-003
2.678753e+003;-7.341041e-003
2.680682e+003;-7.064230e-003
2.682610e+003;-6.467707e-003
2.684539e+003;-5.903183e-003
2.686467e+003;-5.433155e-003
2.688396e+003;-4.732926e-003
2.690324e+003;-3.991351e-003
2.692253e+003;-3.443123e-003
2.694182e+003;-3.004680e-003
2.696110e+003;-3.121841e-003
2.698039e+003;-3.297145e-003
2.699967e+003;-2.953970e-003
2.701896e+003;-2.595207e-003
2.703824e+003;-2.439093e-003
2.705753e+003;-2.244159e-003
2.707681e+003;-2.176513e-003
2.709610e+003;-2.107834e-003
2.711539e+003;-1.646288e-003
2.713467e+003;-1.374476e-003
2.715396e+003;-1.063030e-003
2.717324e+003;-8.911528e-004
2.719253e+003;-1.042999e-003
2.721181e+003;-9.294417e-004
2.723110e+003;-6.470596e-005
2.725038e+003;8.634694e-004
2.726967e+003;1.148983e-003
2.728896e+003;1.587035e-003
2.730824e+003;2.173256e-003
2.732752e+003;2.676515e-003
2.734681e+003;3.431062e-003
2.736610e+003;4.275118e-003
2.738538e+003;4.833352e-003
2.740467e+003;4.970945e-003
2.742395e+003;4.801088e-003
2.744324e+003;4.714828e-003
2.746252e+003;4.733117e-003
2.748181e+003;4.939509e-003
2.750109e+003;4.737439e-003
2.752038e+003;4.240286e-003
2.753967e+003;4.047236e-003
2.755895e+003;4.307176e-003
2.757824e+003;4.760217e-003
2.759752e+003;4.842835e-003
2.761681e+003;4.597643e-003
2.763609e+003;4.642618e-003
2.765538e+003;4.994172e-003
2.767466e+003;5.488464e-003
2.769395e+003;5.793087e-003
2.771323e+003;5.889267e-003
2.773252e+003;6.477798e-003
2.775181e+003;6.941190e-003
2.777109e+003;7.481795e-003
2.779038e+003;8.435244e-003
2.780966e+003;9.631488e-003
2.782895e+003;1.117482e-002
2.784823e+003;1.288166e-002
2.786752e+003;1.470181e-002
2.788680e+003;1.667917e-002
2.790609e+003;1.883530e-002
2.792538e+003;2.104364e-002
2.794466e+003;2.331043e-002
2.796395e+003;2.537446e-002
2.798323e+003;2.681871e-002
2.800252e+003;2.805110e-002
2.802180e+003;2.880173e-002
2.804109e+003;2.892499e-002
2.806037e+003;2.856715e-002
2.807966e+003;2.772326e-002
2.809895e+003;2.673484e-002
2.811823e+003;2.528251e-002
2.813751e+003;2.394194e-002
2.815680e+003;2.302901e-002
2.817609e+003;2.221871e-002
2.819537e+003;2.209678e-002
2.821466e+003;2.295865e-002
2.823394e+003;2.417851e-002
2.825323e+003;2.552139e-002
2.827251e+003;2.796430e-002
2.829180e+003;3.139853e-002
2.831108e+003;3.443669e-002
2.833037e+003;3.752905e-002
2.834966e+003;4.115443e-002
2.836894e+003;4.550313e-002
2.838823e+003;5.011286e-002
2.840751e+003;5.449161e-002
2.842680e+003;5.867971e-002
2.844608e+003;6.270792e-002
2.846537e+003;6.667318e-002
2.848465e+003;7.044572e-002
2.850394e+003;7.397231e-002
2.852323e+003;7.704300e-002
2.854251e+003;7.975767e-002
2.856180e+003;8.190446e-002
2.858108e+003;8.359963e-002
2.860037e+003;8.401818e-002
2.861965e+003;8.346324e-002
2.863894e+003;8.280011e-002
2.865822e+003;8.145050e-002
2.867751e+003;7.928976e-002
2.869679e+003;7.718281e-002
2.871608e+003;7.499356e-002
2.873536e+003;7.262377e-002
2.875465e+003;6.932411e-002
2.877394e+003;6.538887e-002
2.879322e+003;6.178270e-002
2.881251e+003;5.832986e-002
2.883179e+003;5.499085e-002
2.885108e+003;5.208028e-002
2.887036e+003;4.911076e-002
2.888965e+003;4.620879e-002
2.890893e+003;4.398553e-002
2.892822e+003;4.229107e-002
2.894750e+003;4.115254e-002
2.896679e+003;4.025840e-002
2.898608e+003;3.942183e-002
2.900536e+003;3.892400e-002
2.902465e+003;3.888776e-002
2.904393e+003;3.872200e-002
2.906322e+003;3.893089e-002
2.908250e+003;3.956249e-002
2.910179e+003;4.024790e-002
2.912107e+003;4.110085e-002
2.914036e+003;4.170801e-002
2.915965e+003;4.244479e-002
2.917893e+003;4.375768e-002
2.919822e+003;4.495198e-002
2.921750e+003;4.630713e-002
2.923679e+003;4.785008e-002
2.925607e+003;4.989322e-002
2.927536e+003;5.192364e-002
2.929464e+003;5.379409e-002
2.931393e+003;5.562514e-002
2.933322e+003;5.724195e-002
2.935250e+003;5.855157e-002
2.937178e+003;5.946084e-002
2.939107e+003;6.039312e-002
2.941036e+003;6.090724e-002
2.942964e+003;6.060496e-002
2.944893e+003;5.987052e-002
2.946821e+003;5.842491e-002
2.948750e+003;5.621223e-002
2.950678e+003;5.374556e-002
2.952607e+003;5.154094e-002
2.954535e+003;4.959085e-002
2.956464e+003;4.679487e-002
2.958393e+003;4.339272e-002
2.960321e+003;4.022358e-002
2.962250e+003;3.728611e-002
2.964178e+003;3.448113e-002
2.966107e+003;3.166508e-002
2.968035e+003;2.916787e-002
2.969964e+003;2.688318e-002
2.971892e+003;2.481552e-002
2.973821e+003;2.261854e-002
2.975750e+003;2.050757e-002
2.977678e+003;1.842490e-002
2.979607e+003;1.630981e-002
2.981535e+003;1.421281e-002
2.983464e+003;1.146005e-002
2.985392e+003;9.226947e-003
2.987321e+003;7.871554e-003
2.989249e+003;6.681319e-003
2.991178e+003;5.355471e-003
2.993106e+003;3.909668e-003
2.995035e+003;2.420914e-003
2.996964e+003;7.813072e-004
2.998892e+003;-3.845821e-004
3.000821e+003;-8.216753e-004
3.002749e+003;-1.171166e-003
3.004678e+003;-1.756952e-003
3.006606e+003;-2.132795e-003
3.008535e+003;-2.597282e-003
3.010463e+003;-3.488682e-003
3.012392e+003;-3.836789e-003
3.014321e+003;-4.021555e-003
3.016249e+003;-4.538921e-003
3.018177e+003;-4.745184e-003
3.020106e+003;-4.531806e-003
3.022035e+003;-4.102437e-003
3.023963e+003;-4.165091e-003
3.025892e+003;-4.281185e-003
3.027820e+003;-4.298967e-003
3.029749e+003;-4.550890e-003
3.031677e+003;-4.805746e-003
3.033606e+003;-4.885664e-003
3.035534e+003;-4.556955e-003
3.037463e+003;-4.261138e-003
3.039392e+003;-4.592103e-003
3.041320e+003;-4.741743e-003
3.043249e+003;-4.852506e-003
3.045177e+003;-4.991739e-003
3.047106e+003;-4.763767e-003
3.049034e+003;-4.468812e-003
3.050963e+003;-4.604889e-003
3.052891e+003;-4.873279e-003
3.054820e+003;-4.750133e-003
3.056749e+003;-4.974803e-003
3.058677e+003;-5.171136e-003
3.060606e+003;-5.419640e-003
3.062534e+003;-5.360080e-003
3.064463e+003;-4.852899e-003
3.066391e+003;-4.714900e-003
3.068320e+003;-5.223126e-003
3.070248e+003;-5.965936e-003
3.072177e+003;-6.565629e-003
3.074105e+003;-6.777945e-003
3.076034e+003;-6.996809e-003
3.077963e+003;-7.094546e-003
3.079891e+003;-7.248182e-003
3.081820e+003;-8.130422e-003
3.083748e+003;-8.516874e-003
3.085677e+003;-8.073184e-003
3.087605e+003;-8.142616e-003
3.089534e+003;-8.478923e-003
3.091462e+003;-8.608325e-003
3.093391e+003;-8.669552e-003
3.095320e+003;-8.350328e-003
3.097248e+003;-7.730931e-003
3.099177e+003;-7.563855e-003
3.101105e+003;-7.848061e-003
3.103034e+003;-8.001788e-003
3.104962e+003;-7.597425e-003
3.106891e+003;-7.196564e-003
3.108819e+003;-7.027098e-003
3.110748e+003;-6.892690e-003
3.112677e+003;-6.927291e-003
3.114605e+003;-7.040692e-003
3.116533e+003;-7.029771e-003
3.118462e+003;-6.917279e-003
3.120391e+003;-6.939421e-003
3.122319e+003;-7.363325e-003
3.124248e+003;-7.335861e-003
3.126176e+003;-6.956541e-003
3.128105e+003;-7.156672e-003
3.130033e+003;-7.556203e-003
3.131962e+003;-7.812069e-003
3.133890e+003;-7.979928e-003
3.135819e+003;-8.225921e-003
3.137748e+003;-8.848282e-003
3.139676e+003;-8.958618e-003
3.141605e+003;-9.085736e-003
3.143533e+003;-9.324780e-003
3.145462e+003;-9.806296e-003
3.147390e+003;-1.025039e-002
3.149319e+003;-9.990548e-003
3.151247e+003;-1.002050e-002
3.153176e+003;-1.018980e-002
3.155104e+003;-1.028032e-002
3.157033e+003;-1.035665e-002
3.158962e+003;-1.003714e-002
3.160890e+003;-9.531150e-003
3.162819e+003;-9.676959e-003
3.164747e+003;-9.656835e-003
3.166676e+003;-9.358409e-003
3.168604e+003;-8.937196e-003
3.170533e+003;-8.894056e-003
3.172461e+003;-8.885128e-003
3.174390e+003;-8.720802e-003
3.176319e+003;-8.641328e-003
3.178247e+003;-8.387347e-003
3.180176e+003;-8.093380e-003
3.182104e+003;-7.823849e-003
3.184033e+003;-7.028826e-003
3.185961e+003;-6.557633e-003
3.187890e+003;-6.736286e-003
3.189818e+003;-7.014969e-003
3.191747e+003;-7.134313e-003
3.193676e+003;-7.150838e-003
3.195604e+003;-7.258707e-003
3.197532e+003;-7.332245e-003
3.199461e+003;-6.607826e-003
3.201390e+003;-5.773332e-003
3.203318e+003;-6.102460e-003
3.205247e+003;-6.847618e-003
3.207175e+003;-6.973855e-003
3.209104e+003;-6.618269e-003
3.211032e+003;-6.357323e-003
3.212961e+003;-6.651064e-003
3.214889e+003;-6.826058e-003
3.216818e+003;-6.776804e-003
3.218747e+003;-6.851173e-003
3.220675e+003;-6.709632e-003
3.222604e+003;-6.214902e-003
3.224532e+003;-5.623032e-003
3.226461e+003;-4.981027e-003
3.228389e+003;-4.448970e-003
3.230318e+003;-4.629378e-003
3.232246e+003;-4.521280e-003
3.234175e+003;-4.006224e-003
3.236104e+003;-3.945123e-003
3.238032e+003;-3.577353e-003
3.239961e+003;-2.716364e-003
3.241889e+003;-1.979845e-003
3.243818e+003;-2.064571e-003
3.245746e+003;-2.053128e-003
3.247675e+003;-1.243329e-003
3.249603e+003;-9.462044e-004
3.251532e+003;-8.363919e-004
3.253460e+003;-5.226730e-004
3.255389e+003;-6.012315e-004
3.257318e+003;-6.739533e-004
3.259246e+003;-2.037928e-004
3.261175e+003;1.015386e-003
3.263103e+003;1.533098e-003
3.265032e+003;1.212674e-003
3.266960e+003;1.634991e-003
3.268889e+003;1.738107e-003
3.270817e+003;8.838546e-004
3.272746e+003;9.461120e-004
3.274675e+003;1.402340e-003
3.276603e+003;1.750848e-003
3.278531e+003;2.450469e-003
3.280460e+003;2.896507e-003
3.282389e+003;2.797018e-003
3.284317e+003;2.424879e-003
3.286246e+003;2.249154e-003
3.288174e+003;2.247689e-003
3.290103e+003;2.527116e-003
3.292031e+003;2.918356e-003
3.293960e+003;3.798917e-003
3.295888e+003;4.569783e-003
3.297817e+003;4.701096e-003
3.299746e+003;5.135906e-003
3.301674e+003;4.930293e-003
3.303603e+003;3.702396e-003
3.305531e+003;2.939838e-003
3.307460e+003;3.253661e-003
3.309388e+003;3.695813e-003
3.311317e+003;3.913781e-003
3.313245e+003;3.953235e-003
3.315174e+003;3.775954e-003
3.317103e+003;3.783809e-003
3.319031e+003;3.590828e-003
3.320960e+003;3.346075e-003
3.322888e+003;3.725822e-003
3.324817e+003;3.694075e-003
3.326745e+003;3.419540e-003
3.328674e+003;3.382372e-003
3.330602e+003;3.051906e-003
3.332531e+003;2.715857e-003
3.334459e+003;2.587009e-003
3.336388e+003;2.472229e-003
3.338317e+003;2.696319e-003
3.340245e+003;2.946010e-003
3.342174e+003;2.775142e-003
3.344102e+003;2.430011e-003
3.346031e+003;2.065344e-003
3.347959e+003;1.508393e-003
3.349888e+003;5.914143e-004
3.351816e+003;3.911909e-004
3.353745e+003;8.681838e-004
3.355674e+003;1.415272e-003
3.357602e+003;1.285979e-003
3.359531e+003;6.381996e-004
3.361459e+003;6.722464e-004
3.363388e+003;7.500731e-004
3.365316e+003;1.886068e-004
3.367245e+003;-5.707231e-004
3.369173e+003;-9.247136e-004
3.371102e+003;-7.714370e-004
3.373031e+003;-5.944153e-004
3.374959e+003;-2.784024e-004
3.376887e+003;-2.527392e-004
3.378816e+003;-9.465350e-004
3.380745e+003;-1.029050e-003
3.382673e+003;-1.451229e-003
3.384602e+003;-1.990630e-003
3.386530e+003;-2.046235e-003
3.388459e+003;-2.475400e-003
3.390387e+003;-2.787482e-003
3.392316e+003;-3.009188e-003
3.394244e+003;-3.168355e-003
3.396173e+003;-3.095786e-003
3.398102e+003;-3.529010e-003
3.400030e+003;-3.930905e-003
3.401959e+003;-4.040431e-003
3.403887e+003;-3.918067e-003
3.405816e+003;-3.521024e-003
3.407744e+003;-3.964823e-003
3.409673e+003;-4.460777e-003
3.411601e+003;-4.496588e-003
3.413530e+003;-4.683631e-003
3.415458e+003;-5.206593e-003
3.417387e+003;-5.949432e-003
3.419316e+003;-6.787046e-003
3.421244e+003;-7.145786e-003
3.423173e+003;-7.408279e-003
3.425101e+003;-7.427203e-003
3.427030e+003;-7.526961e-003
3.428958e+003;-7.932951e-003
3.430887e+003;-8.268608e-003
3.432815e+003;-8.561546e-003
3.434744e+003;-8.779870e-003
3.436673e+003;-8.711709e-003
3.438601e+003;-8.291363e-003
3.440530e+003;-8.477786e-003
3.442458e+003;-9.256412e-003
3.444387e+003;-9.589946e-003
3.446315e+003;-1.037810e-002
3.448244e+003;-1.113576e-002
3.450172e+003;-1.122644e-002
3.452101e+003;-1.154284e-002
3.454030e+003;-1.228070e-002
3.455958e+003;-1.281702e-002
3.457886e+003;-1.318278e-002
3.459815e+003;-1.393499e-002
3.461744e+003;-1.479460e-002
3.463672e+003;-1.497124e-002
3.465601e+003;-1.451776e-002
3.467529e+003;-1.427845e-002
3.469458e+003;-1.435122e-002
3.471386e+003;-1.475668e-002
3.473315e+003;-1.520985e-002
3.475243e+003;-1.560412e-002
3.477172e+003;-1.516176e-002
3.479101e+003;-1.483114e-002
3.481029e+003;-1.506301e-002
3.482958e+003;-1.553428e-002
3.484886e+003;-1.565156e-002
3.486815e+003;-1.610587e-002
3.488743e+003;-1.630406e-002
3.490672e+003;-1.607548e-002
3.492600e+003;-1.579750e-002
3.494529e+003;-1.600213e-002
3.496458e+003;-1.665318e-002
3.498386e+003;-1.663309e-002
3.500315e+003;-1.638824e-002
3.502243e+003;-1.619475e-002
3.504172e+003;-1.618533e-002
3.506100e+003;-1.566239e-002
3.508029e+003;-1.550665e-002
3.509957e+003;-1.586762e-002
3.511886e+003;-1.587472e-002
3.513814e+003;-1.576325e-002
3.515743e+003;-1.625776e-002
3.517672e+003;-1.613761e-002
3.519600e+003;-1.565939e-002
3.521529e+003;-1.610268e-002
3.523457e+003;-1.634316e-002
3.525386e+003;-1.646191e-002
3.527314e+003;-1.666852e-002
3.529243e+003;-1.702276e-002
3.531171e+003;-1.712967e-002
3.533100e+003;-1.680064e-002
3.535029e+003;-1.669887e-002
3.536957e+003;-1.684918e-002
3.538885e+003;-1.687573e-002
3.540814e+003;-1.624614e-002
3.542743e+003;-1.620100e-002
3.544671e+003;-1.684581e-002
3.546600e+003;-1.690317e-002
3.548528e+003;-1.681151e-002
3.550457e+003;-1.736500e-002
3.552385e+003;-1.744095e-002
3.554314e+003;-1.667790e-002
3.556242e+003;-1.651056e-002
3.558171e+003;-1.711461e-002
3.560100e+003;-1.741587e-002
3.562028e+003;-1.761302e-002
3.563957e+003;-1.776562e-002
3.565885e+003;-1.765559e-002
3.567814e+003;-1.742981e-002
3.569742e+003;-1.701317e-002
3.571671e+003;-1.707348e-002
3.573599e+003;-1.727426e-002
3.575528e+003;-1.702426e-002
3.577457e+003;-1.715327e-002
3.579385e+003;-1.736016e-002
3.581314e+003;-1.715993e-002
3.583242e+003;-1.665459e-002
3.585171e+003;-1.653263e-002
3.587099e+003;-1.680354e-002
3.589028e+003;-1.684686e-002
3.590956e+003;-1.748449e-002
3.592885e+003;-1.763984e-002
3.594813e+003;-1.691872e-002
3.596742e+003;-1.707316e-002
3.598671e+003;-1.723509e-002
3.600599e+003;-1.760373e-002
3.602528e+003;-1.790256e-002
3.604456e+003;-1.786850e-002
3.606385e+003;-1.767945e-002
3.608313e+003;-1.732683e-002
3.610242e+003;-1.698558e-002
3.612170e+003;-1.708772e-002
3.614099e+003;-1.781765e-002
3.616028e+003;-1.829293e-002
3.617956e+003;-1.831831e-002
3.619885e+003;-1.842138e-002
3.621813e+003;-1.812644e-002
3.623742e+003;-1.772125e-002
3.625670e+003;-1.740546e-002
3.627599e+003;-1.759940e-002
3.629527e+003;-1.768610e-002
3.631456e+003;-1.745139e-002
3.633385e+003;-1.784961e-002
3.635313e+003;-1.780792e-002
3.637241e+003;-1.742443e-002
3.639170e+003;-1.718837e-002
3.641099e+003;-1.744264e-002
3.643027e+003;-1.773922e-002
3.644956e+003;-1.749111e-002
3.646884e+003;-1.730107e-002
3.648813e+003;-1.745025e-002
3.650741e+003;-1.758302e-002
3.652670e+003;-1.703611e-002
3.654598e+003;-1.676675e-002
3.656527e+003;-1.739604e-002
3.658456e+003;-1.757818e-002
3.660384e+003;-1.686136e-002
3.662313e+003;-1.644143e-002
3.664241e+003;-1.671456e-002
3.666170e+003;-1.688635e-002
3.668098e+003;-1.702735e-002
3.670027e+003;-1.726092e-002
3.671955e+003;-1.702958e-002
3.673884e+003;-1.701620e-002
3.675813e+003;-1.667212e-002
3.677741e+003;-1.630416e-002
3.679669e+003;-1.626746e-002
3.681598e+003;-1.624422e-002
3.683527e+003;-1.681648e-002
3.685455e+003;-1.717496e-002
3.687384e+003;-1.710397e-002
3.689312e+003;-1.701878e-002
3.691241e+003;-1.648609e-002
3.693169e+003;-1.603131e-002
3.695098e+003;-1.639871e-002
3.697026e+003;-1.674147e-002
3.698955e+003;-1.665726e-002
3.700884e+003;-1.668950e-002
3.702812e+003;-1.680456e-002
3.704741e+003;-1.700167e-002
3.706669e+003;-1.718433e-002
3.708598e+003;-1.693514e-002
3.710526e+003;-1.686557e-002
3.712455e+003;-1.680045e-002
3.714383e+003;-1.687242e-002
3.716312e+003;-1.723901e-002
3.718240e+003;-1.734112e-002
3.720169e+003;-1.701152e-002
3.722098e+003;-1.651531e-002
3.724026e+003;-1.665481e-002
3.725955e+003;-1.698717e-002
3.727883e+003;-1.684950e-002
3.729812e+003;-1.689760e-002
3.731740e+003;-1.690027e-002
3.733669e+003;-1.654810e-002
3.735597e+003;-1.641230e-002
3.737526e+003;-1.648360e-002
3.739455e+003;-1.639995e-002
3.741383e+003;-1.634561e-002
3.743312e+003;-1.687156e-002
3.745240e+003;-1.681613e-002
3.747169e+003;-1.617773e-002
3.749097e+003;-1.695097e-002
3.751026e+003;-1.766141e-002
3.752954e+003;-1.725697e-002
3.754883e+003;-1.634705e-002
3.756812e+003;-1.616822e-002
3.758740e+003;-1.683516e-002
3.760668e+003;-1.692672e-002
3.762597e+003;-1.626577e-002
3.764526e+003;-1.595269e-002
3.766454e+003;-1.586999e-002
3.768383e+003;-1.556225e-002
3.770311e+003;-1.577334e-002
3.772240e+003;-1.598143e-002
3.774168e+003;-1.564337e-002
3.776097e+003;-1.527035e-002
3.778025e+003;-1.497134e-002
3.779954e+003;-1.547129e-002
3.781883e+003;-1.642222e-002
3.783811e+003;-1.676194e-002
3.785740e+003;-1.610249e-002
3.787668e+003;-1.519453e-002
3.789597e+003;-1.499615e-002
3.791525e+003;-1.522972e-002
3.793454e+003;-1.507533e-002
3.795382e+003;-1.478605e-002
3.797311e+003;-1.480911e-002
3.799240e+003;-1.499797e-002
3.801168e+003;-1.534987e-002
3.803097e+003;-1.562730e-002
3.805025e+003;-1.602905e-002
3.806954e+003;-1.610169e-002
3.808882e+003;-1.562605e-002
3.810811e+003;-1.554783e-002
3.812739e+003;-1.551004e-002
3.814668e+003;-1.548277e-002
3.816596e+003;-1.507991e-002
3.818525e+003;-1.508279e-002
3.820454e+003;-1.517418e-002
3.822382e+003;-1.460366e-002
3.824311e+003;-1.457787e-002
3.826239e+003;-1.445450e-002
3.828168e+003;-1.473596e-002
3.830096e+003;-1.553702e-002
3.832025e+003;-1.565526e-002
3.833953e+003;-1.520576e-002
3.835882e+003;-1.510477e-002
3.837811e+003;-1.523615e-002
3.839739e+003;-1.490443e-002
3.841667e+003;-1.459011e-002
3.843596e+003;-1.444328e-002
3.845525e+003;-1.433295e-002
3.847453e+003;-1.476251e-002
3.849382e+003;-1.490721e-002
3.851310e+003;-1.466309e-002
3.853239e+003;-1.524309e-002
3.855167e+003;-1.555106e-002
3.857096e+003;-1.456736e-002
3.859024e+003;-1.376476e-002
3.860953e+003;-1.367625e-002
3.862882e+003;-1.392347e-002
3.864810e+003;-1.426988e-002
3.866739e+003;-1.455159e-002
3.868667e+003;-1.442645e-002
3.870596e+003;-1.434769e-002
3.872524e+003;-1.419677e-002
3.874453e+003;-1.412878e-002
3.876381e+003;-1.408452e-002
3.878310e+003;-1.385437e-002
3.880239e+003;-1.376823e-002
3.882167e+003;-1.378723e-002
3.884096e+003;-1.353473e-002
3.886024e+003;-1.346461e-002
3.887953e+003;-1.336994e-002
3.889881e+003;-1.331470e-002
3.891810e+003;-1.356916e-002
3.893738e+003;-1.323571e-002
3.895667e+003;-1.304029e-002
3.897595e+003;-1.384590e-002
3.899524e+003;-1.419963e-002
3.901453e+003;-1.416711e-002
3.903381e+003;-1.426668e-002
3.905310e+003;-1.383942e-002
3.907238e+003;-1.318409e-002
3.909167e+003;-1.313115e-002
3.911095e+003;-1.325069e-002
3.913024e+003;-1.355172e-002
3.914952e+003;-1.360346e-002
3.916881e+003;-1.339699e-002
3.918810e+003;-1.326981e-002
3.920738e+003;-1.285341e-002
3.922667e+003;-1.316076e-002
3.924595e+003;-1.355037e-002
3.926524e+003;-1.320354e-002
3.928452e+003;-1.259634e-002
3.930381e+003;-1.287824e-002
3.932309e+003;-1.301515e-002
3.934238e+003;-1.252366e-002
3.936167e+003;-1.194339e-002
3.938095e+003;-1.226910e-002
3.940023e+003;-1.296135e-002
3.941952e+003;-1.250579e-002
3.943881e+003;-1.184422e-002
3.945809e+003;-1.235719e-002
3.947738e+003;-1.290722e-002
3.949666e+003;-1.258150e-002
3.951595e+003;-1.210244e-002
3.953523e+003;-1.217584e-002
3.955452e+003;-1.277192e-002
3.957380e+003;-1.219624e-002
3.959309e+003;-1.179554e-002
3.961238e+003;-1.197218e-002
3.963166e+003;-1.164705e-002
3.965095e+003;-1.137019e-002
3.967023e+003;-1.139447e-002
3.968952e+003;-1.151790e-002
3.970880e+003;-1.156840e-002
3.972809e+003;-1.190916e-002
3.974737e+003;-1.156895e-002
3.976666e+003;-1.098243e-002
3.978594e+003;-1.170214e-002
3.980523e+003;-1.194881e-002
3.982452e+003;-1.135683e-002
3.984380e+003;-1.144817e-002
3.986309e+003;-1.220097e-002
3.988237e+003;-1.238807e-002
3.990166e+003;-1.175735e-002
3.992094e+003;-1.113027e-002
3.994023e+003;-1.118769e-002
3.995951e+003;-1.126815e-002
3.997880e+003;-1.109510e-002
3.999809e+003;-1.120374e-002
4.001737e+003;0.000000e+000
