3.992094e+002;0.000000e+000
4.011380e+002;0.000000e+000
4.030665e+002;0.000000e+000
4.049951e+002;0.000000e+000
4.069236e+002;0.000000e+000
4.088522e+002;0.000000e+000
4.107807e+002;0.000000e+000
4.127093e+002;0.000000e+000
4.146378e+002;0.000000e+000
4.165664e+002;0.000000e+000
4.184949e+002;0.000000e+000
4.204235e+002;0.000000e+000
4.223520e+002;0.000000e+000
4.242806e+002;0.000000e+000
4.262091e+002;0.000000e+000
4.281377e+002;0.000000e+000
4.300662e+002;0.000000e+000
4.319948e+002;0.000000e+000
4.339233e+002;0.000000e+000
4.358519e+002;0.000000e+000
4.377804e+002;0.000000e+000
4.397090e+002;0.000000e+000
4.416375e+002;0.000000e+000
4.435660e+002;0.000000e+000
4.454946e+002;0.000000e+000
4.474232e+002;0.000000e+000
4.493517e+002;0.000000e+000
4.512802e+002;0.000000e+000
4.532088e+002;0.000000e+000
4.551373e+002;0.000000e+000
4.570659e+002;0.000000e+000
4.589944e+002;0.000000e+000
4.609230e+002;0.000000e+000
4.628515e+002;0.000000e+000
4.647801e+002;0.000000e+000
4.667086e+002;0.000000e+000
4.686372e+002;0.000000e+000
4.705657e+002;0.000000e+000
4.724943e+002;0.000000e+000
4.744228e+002;0.000000e+000
4.763513e+002;0.000000e+000
4.782799e+002;0.000000e+000
4.802085e+002;0.000000e+000
4.821370e+002;0.000000e+000
4.840656e+002;0.000000e+000
4.859941e+002;0.000000e+000
4.879226e+002;0.000000e+000
4.898512e+002;0.000000e+000
4.917798e+002;0.000000e+000
4.937083e+002;0.000000e+000
4.956368e+002;0.000000e+000
4.975654e+002;0.000000e+000
4.994939e+002;0.000000e+000
5.014225e+002;0.000000e+000
5.033510e+002;0.000000e+000
5.052796e+002;0.000000e+000
5.072081e+002;0.000000e+000
5.091367e+002;0.000000e+000
5.110652e+002;0.000000e+000
5.129938e+002;0.000000e+000
5.149223e+002;0.000000e+000
5.168509e+002;0.000000e+000
5.187794e+002;0.000000e+000
5.207079e+002;0.000000e+000
5.226365e+002;0.000000e+000
5.245651e+002;0.000000e+000
5.264936e+002;0.000000e+000
5.284222e+002;0.000000e+000
5.303507e+002;0.000000e+000
5.322792e+002;0.000000e+000
5.342078e+002;0.000000e+000
5.361364e+002;0.000000e+000
5.380649e+002;0.000000e+000
5.399935e+002;0.000000e+000
5.419220e+002;0.000000e+000
5.438505e+002;0.000000e+000
5.457791e+002;0.000000e+000
5.477076e+002;0.000000e+000
5.496362e+002;0.000000e+000
5.515648e+002;0.000000e+000
5.534933e+002;0.000000e+000
5.554218e+002;0.000000e+000
5.573504e+002;0.000000e+000
5.592789e+002;0.000000e+000
5.612075e+002;0.000000e+000
5.631360e+002;0.000000e+000
5.650646e+002;0.000000e+000
5.669931e+002;0.000000e+000
5.689217e+002;0.000000e+000
5.708502e+002;0.000000e+000
5.727787e+002;0.000000e+000
5.747073e+002;0.000000e+000
5.766359e+002;0.000000e+000
5.785644e+002;0.000000e+000
5.804930e+002;0.000000e+000
5.824215e+002;0.000000e+000
5.843500e+002;0.000000e+000
5.862786e+002;0.000000e+000
5.882072e+002;0.000000e+000
5.901357e+002;0.000000e+000
5.920643e+002;0.000000e+000
5.939928e+002;0.000000e+000
5.959213e+002;0.000000e+000
5.978499e+002;0.000000e+000
5.997784e+002;3.098460e-002
6.017070e+002;2.946166e-002
6.036355e+002;3.731145e-002
6.055641e+002;3.973866e-002
6.074926e+002;3.270309e-002
6.094211e+002;3.051716e-002
6.113497e+002;3.225079e-002
6.132783e+002;3.696655e-002
6.152068e+002;3.637172e-002
6.171354e+002;3.585717e-002
6.190639e+002;3.337260e-002
6.209924e+002;3.042038e-002
6.229210e+002;3.443425e-002
6.248495e+002;3.822244e-002
6.267781e+002;3.221471e-002
6.287067e+002;2.800914e-002
6.306352e+002;2.947081e-002
6.325637e+002;3.258046e-002
6.344923e+002;3.633763e-002
6.364208e+002;4.142025e-002
6.383494e+002;4.312273e-002
6.402780e+002;4.675660e-002
6.422065e+002;4.706302e-002
6.441350e+002;4.353478e-002
6.460636e+002;4.108749e-002
6.479921e+002;3.713265e-002
6.499207e+002;3.679590e-002
6.518492e+002;3.368063e-002
6.537778e+002;3.411303e-002
6.557063e+002;3.822367e-002
6.576349e+002;3.835503e-002
6.595634e+002;3.519679e-002
6.614919e+002;3.530927e-002
6.634205e+002;3.690591e-002
6.653491e+002;3.526385e-002
6.672776e+002;3.295177e-002
6.692062e+002;3.450197e-002
6.711347e+002;3.639830e-002
6.730632e+002;3.634523e-002
6.749918e+002;3.427807e-002
6.769203e+002;3.121806e-002
6.788489e+002;3.170852e-002
6.807775e+002;3.463835e-002
6.827060e+002;3.492140e-002
6.846345e+002;3.441660e-002
6.865631e+002;3.563739e-002
6.884916e+002;3.494183e-002
6.904202e+002;3.317356e-002
6.923488e+002;3.346549e-002
6.942773e+002;3.494380e-002
6.962058e+002;3.449778e-002
6.981344e+002;3.438185e-002
7.000629e+002;3.559013e-002
7.019915e+002;3.553745e-002
7.039200e+002;3.584835e-002
7.058486e+002;3.583709e-002
7.077771e+002;3.470345e-002
7.097057e+002;3.423985e-002
7.116342e+002;3.587362e-002
7.135627e+002;3.725018e-002
7.154913e+002;3.800142e-002
7.174199e+002;3.797860e-002
7.193484e+002;3.746789e-002
7.212770e+002;3.876095e-002
7.232055e+002;3.864463e-002
7.251340e+002;3.810681e-002
7.270626e+002;4.043224e-002
7.289911e+002;4.314461e-002
7.309197e+002;4.327828e-002
7.328483e+002;4.370802e-002
7.347768e+002;4.617234e-002
7.367053e+002;4.996718e-002
7.386339e+002;5.430155e-002
7.405624e+002;5.779361e-002
7.424910e+002;6.247569e-002
7.444196e+002;6.824611e-002
7.463481e+002;6.998250e-002
7.482766e+002;6.795902e-002
7.502052e+002;6.655317e-002
7.521337e+002;6.578856e-002
7.540623e+002;6.418097e-002
7.559908e+002;6.042400e-002
7.579194e+002;5.804761e-002
7.598479e+002;5.798483e-002
7.617765e+002;5.933931e-002
7.637050e+002;6.086474e-002
7.656335e+002;6.210992e-002
7.675621e+002;6.249409e-002
7.694907e+002;6.048600e-002
7.714192e+002;5.696000e-002
7.733478e+002;5.486624e-002
7.752763e+002;5.269323e-002
7.772048e+002;5.057061e-002
7.791334e+002;4.768885e-002
7.810620e+002;4.372356e-002
7.829905e+002;4.089930e-002
7.849191e+002;3.904575e-002
7.868476e+002;3.687759e-002
7.887761e+002;3.468177e-002
7.907047e+002;3.249668e-002
7.926332e+002;3.165980e-002
7.945618e+002;3.390609e-002
7.964903e+002;3.654522e-002
7.984189e+002;3.806872e-002
8.003474e+002;4.136259e-002
8.022759e+002;4.574549e-002
8.042045e+002;5.081808e-002
8.061331e+002;5.522152e-002
8.080616e+002;5.717070e-002
8.099902e+002;5.840782e-002
8.119187e+002;5.998208e-002
8.138472e+002;6.027868e-002
8.157758e+002;5.944569e-002
8.177043e+002;5.810788e-002
8.196329e+002;5.570503e-002
8.215615e+002;5.268927e-002
8.234900e+002;4.998317e-002
8.254185e+002;4.767388e-002
8.273471e+002;4.627388e-002
8.292756e+002;4.503279e-002
8.312042e+002;4.361247e-002
8.331328e+002;4.114201e-002
8.350613e+002;3.881710e-002
8.369898e+002;3.806746e-002
8.389184e+002;3.784948e-002
8.408469e+002;3.738252e-002
8.427755e+002;3.699170e-002
8.447040e+002;3.647080e-002
8.466326e+002;3.585206e-002
8.485611e+002;3.596399e-002
8.504897e+002;3.584019e-002
8.524182e+002;3.504354e-002
8.543467e+002;3.462920e-002
8.562753e+002;3.412414e-002
8.582039e+002;3.380762e-002
8.601324e+002;3.373191e-002
8.620610e+002;3.283736e-002
8.639895e+002;3.183340e-002
8.659180e+002;3.100538e-002
8.678466e+002;2.974714e-002
8.697751e+002;2.739238e-002
8.717037e+002;2.605042e-002
8.736323e+002;2.464046e-002
8.755608e+002;2.235809e-002
8.774893e+002;2.108440e-002
8.794179e+002;2.099565e-002
8.813464e+002;2.112270e-002
8.832750e+002;2.033129e-002
8.852036e+002;2.033823e-002
8.871321e+002;2.061385e-002
8.890606e+002;2.070176e-002
8.909892e+002;2.161756e-002
8.929177e+002;2.249761e-002
8.948463e+002;2.333854e-002
8.967748e+002;2.395573e-002
8.987034e+002;2.422678e-002
9.006319e+002;2.503562e-002
9.025605e+002;2.593539e-002
9.044890e+002;2.681709e-002
9.064175e+002;2.898233e-002
9.083461e+002;3.183907e-002
9.102747e+002;3.469617e-002
9.122032e+002;3.719845e-002
9.141318e+002;3.817052e-002
9.160603e+002;3.847934e-002
9.179888e+002;3.800268e-002
9.199174e+002;3.759867e-002
9.218459e+002;3.797809e-002
9.237745e+002;3.874522e-002
9.257031e+002;3.913338e-002
9.276316e+002;3.938995e-002
9.295601e+002;4.088386e-002
9.314887e+002;4.254750e-002
9.334172e+002;4.388680e-002
9.353458e+002;4.527102e-002
9.372744e+002;4.724429e-002
9.392029e+002;5.004347e-002
9.411314e+002;5.284177e-002
9.430600e+002;5.626016e-002
9.449885e+002;5.943311e-002
9.469171e+002;6.196743e-002
9.488456e+002;6.514581e-002
9.507742e+002;6.931533e-002
9.527027e+002;7.307632e-002
9.546313e+002;7.583568e-002
9.565598e+002;7.840183e-002
9.584883e+002;8.038272e-002
9.604169e+002;8.079650e-002
9.623455e+002;8.059257e-002
9.642740e+002;8.047243e-002
9.662026e+002;8.015766e-002
9.681311e+002;7.986681e-002
9.700596e+002;8.040489e-002
9.719882e+002;8.191655e-002
9.739167e+002;8.452833e-002
9.758453e+002;8.746272e-002
9.777739e+002;9.075692e-002
9.797024e+002;9.538975e-002
9.816309e+002;1.004942e-001
9.835595e+002;1.046782e-001
9.854880e+002;1.086092e-001
9.874166e+002;1.127159e-001
9.893452e+002;1.164002e-001
9.912737e+002;1.191751e-001
9.932022e+002;1.207914e-001
9.951307e+002;1.204849e-001
9.970593e+002;1.173567e-001
9.989879e+002;1.116722e-001
1.000916e+003;1.043645e-001
1.002845e+003;9.724993e-002
1.004773e+003;9.138659e-002
1.006702e+003;8.758646e-002
1.008631e+003;8.493484e-002
1.010559e+003;8.293593e-002
1.012488e+003;8.111245e-002
1.014416e+003;8.001729e-002
1.016345e+003;7.987987e-002
1.018273e+003;7.862633e-002
1.020202e+003;7.587430e-002
1.022130e+003;7.240646e-002
1.024059e+003;6.986064e-002
1.025988e+003;6.835534e-002
1.027916e+003;6.815407e-002
1.029845e+003;6.851225e-002
1.031773e+003;6.957182e-002
1.033702e+003;7.117544e-002
1.035630e+003;7.337070e-002
1.037559e+003;7.502187e-002
1.039487e+003;7.646091e-002
1.041416e+003;7.916935e-002
1.043344e+003;8.188374e-002
1.045273e+003;8.452386e-002
1.047202e+003;8.811823e-002
1.049130e+003;9.190765e-002
1.051059e+003;9.635215e-002
1.052987e+003;1.015466e-001
1.054916e+003;1.066823e-001
1.056844e+003;1.117460e-001
1.058773e+003;1.163915e-001
1.060701e+003;1.209955e-001
1.062630e+003;1.254794e-001
1.064558e+003;1.293282e-001
1.066487e+003;1.324635e-001
1.068416e+003;1.360493e-001
1.070344e+003;1.399407e-001
1.072273e+003;1.445557e-001
1.074201e+003;1.501652e-001
1.076130e+003;1.560138e-001
1.078058e+003;1.626643e-001
1.079987e+003;1.701831e-001
1.081915e+003;1.778932e-001
1.083844e+003;1.855600e-001
1.085773e+003;1.927614e-001
1.087701e+003;2.006572e-001
1.089630e+003;2.096727e-001
1.091558e+003;2.195717e-001
1.093487e+003;2.304658e-001
1.095415e+003;2.402391e-001
1.097344e+003;2.482893e-001
1.099272e+003;2.551243e-001
1.101201e+003;2.594725e-001
1.103129e+003;2.602305e-001
1.105058e+003;2.573426e-001
1.106987e+003;2.503616e-001
1.108915e+003;2.399678e-001
1.110844e+003;2.274751e-001
1.112772e+003;2.125513e-001
1.114701e+003;1.957306e-001
1.116629e+003;1.790697e-001
1.118558e+003;1.626363e-001
1.120486e+003;1.470897e-001
1.122415e+003;1.326722e-001
1.124344e+003;1.198217e-001
1.126272e+003;1.085762e-001
1.128201e+003;9.789015e-002
1.130129e+003;8.869886e-002
1.132058e+003;8.088846e-002
1.133986e+003;7.397715e-002
1.135915e+003;6.803423e-002
1.137843e+003;6.301212e-002
1.139772e+003;5.866435e-002
1.141700e+003;5.530645e-002
1.143629e+003;5.234424e-002
1.145557e+003;4.956481e-002
1.147486e+003;4.698290e-002
1.149415e+003;4.541303e-002
1.151343e+003;4.389963e-002
1.153272e+003;4.112591e-002
1.155200e+003;3.905992e-002
1.157129e+003;3.815001e-002
1.159057e+003;3.723033e-002
1.160986e+003;3.602879e-002
1.162914e+003;3.493870e-002
1.164843e+003;3.423100e-002
1.166771e+003;3.421271e-002
1.168700e+003;3.497056e-002
1.170629e+003;3.592818e-002
1.172557e+003;3.701519e-002
1.174486e+003;3.934104e-002
1.176414e+003;4.270573e-002
1.178343e+003;4.597144e-002
1.180271e+003;4.894064e-002
1.182200e+003;5.111981e-002
1.184128e+003;5.322352e-002
1.186057e+003;5.552245e-002
1.187986e+003;5.884560e-002
1.189914e+003;6.340108e-002
1.191843e+003;6.918320e-002
1.193771e+003;7.587576e-002
1.195700e+003;8.308054e-002
1.197628e+003;9.058312e-002
1.199557e+003;9.869109e-002
1.201485e+003;1.064248e-001
1.203414e+003;1.138735e-001
1.205343e+003;1.203414e-001
1.207271e+003;1.246601e-001
1.209200e+003;1.261247e-001
1.211128e+003;1.246318e-001
1.213057e+003;1.226846e-001
1.214985e+003;1.209718e-001
1.216914e+003;1.200395e-001
1.218842e+003;1.198896e-001
1.220771e+003;1.192278e-001
1.222699e+003;1.171552e-001
1.224628e+003;1.135135e-001
1.226557e+003;1.086976e-001
1.228485e+003;1.036109e-001
1.230414e+003;9.903175e-002
1.232342e+003;9.538736e-002
1.234271e+003;9.252064e-002
1.236199e+003;9.039760e-002
1.238128e+003;8.837027e-002
1.240056e+003;8.666936e-002
1.241985e+003;8.536734e-002
1.243913e+003;8.455051e-002
1.245842e+003;8.458255e-002
1.247771e+003;8.521342e-002
1.249699e+003;8.538029e-002
1.251628e+003;8.262341e-002
1.253556e+003;7.646762e-002
1.255485e+003;6.839556e-002
1.257413e+003;6.097076e-002
1.259342e+003;5.513954e-002
1.261270e+003;5.077819e-002
1.263199e+003;4.819300e-002
1.265127e+003;4.673737e-002
1.267056e+003;4.549298e-002
1.268985e+003;4.462141e-002
1.270913e+003;4.408762e-002
1.272842e+003;4.351002e-002
1.274770e+003;4.275743e-002
1.276699e+003;4.252269e-002
1.278627e+003;4.238202e-002
1.280556e+003;4.136164e-002
1.282484e+003;4.038195e-002
1.284413e+003;4.034242e-002
1.286342e+003;4.070140e-002
1.288270e+003;4.114679e-002
1.290199e+003;4.205885e-002
1.292127e+003;4.321217e-002
1.294056e+003;4.477331e-002
1.295984e+003;4.739593e-002
1.297913e+003;5.091281e-002
1.299841e+003;5.473486e-002
1.301770e+003;5.865434e-002
1.303698e+003;6.247710e-002
1.305627e+003;6.558882e-002
1.307556e+003;6.732953e-002
1.309484e+003;6.756549e-002
1.311413e+003;6.647562e-002
1.313341e+003;6.481579e-002
1.315270e+003;6.232233e-002
1.317198e+003;5.905979e-002
1.319127e+003;5.538564e-002
1.321055e+003;5.089478e-002
1.322984e+003;4.627694e-002
1.324912e+003;4.210875e-002
1.326841e+003;3.860798e-002
1.328770e+003;3.642061e-002
1.330698e+003;3.460684e-002
1.332627e+003;3.305806e-002
1.334555e+003;3.212615e-002
1.336484e+003;3.177832e-002
1.338412e+003;3.157342e-002
1.340341e+003;3.127706e-002
1.342269e+003;3.087124e-002
1.344198e+003;3.045105e-002
1.346126e+003;3.048499e-002
1.348055e+003;3.148214e-002
1.349984e+003;3.338390e-002
1.351912e+003;3.640547e-002
1.353841e+003;3.967400e-002
1.355769e+003;4.291738e-002
1.357698e+003;4.700977e-002
1.359626e+003;5.233090e-002
1.361555e+003;5.854615e-002
1.363483e+003;6.562266e-002
1.365412e+003;7.368546e-002
1.367341e+003;8.099537e-002
1.369269e+003;8.502494e-002
1.371198e+003;8.381502e-002
1.373126e+003;7.755908e-002
1.375055e+003;6.932194e-002
1.376983e+003;6.129577e-002
1.378912e+003;5.423599e-002
1.380840e+003;4.833319e-002
1.382769e+003;4.289686e-002
1.384698e+003;3.805881e-002
1.386626e+003;3.429217e-002
1.388555e+003;3.148880e-002
1.390483e+003;2.939050e-002
1.392412e+003;2.818737e-002
1.394340e+003;2.782442e-002
1.396269e+003;2.811628e-002
1.398197e+003;2.916224e-002
1.400126e+003;3.135170e-002
1.402054e+003;3.462636e-002
1.403983e+003;3.905343e-002
1.405911e+003;4.507925e-002
1.407840e+003;5.201349e-002
1.409769e+003;5.793326e-002
1.411697e+003;6.147106e-002
1.413626e+003;6.129356e-002
1.415554e+003;5.710343e-002
1.417483e+003;4.987820e-002
1.419411e+003;4.241216e-002
1.421340e+003;3.751409e-002
1.423268e+003;3.528645e-002
1.425197e+003;3.561549e-002
1.427125e+003;3.793238e-002
1.429054e+003;4.044035e-002
1.430983e+003;4.247625e-002
1.432911e+003;4.373327e-002
1.434840e+003;4.393083e-002
1.436768e+003;4.355291e-002
1.438697e+003;4.377567e-002
1.440625e+003;4.511171e-002
1.442554e+003;4.762378e-002
1.444482e+003;5.036439e-002
1.446411e+003;5.244169e-002
1.448340e+003;5.334129e-002
1.450268e+003;5.348900e-002
1.452197e+003;5.402378e-002
1.454125e+003;5.500168e-002
1.456054e+003;5.597648e-002
1.457982e+003;5.666090e-002
1.459911e+003;5.743770e-002
1.461839e+003;5.785595e-002
1.463768e+003;5.761468e-002
1.465697e+003;5.740415e-002
1.467625e+003;5.740199e-002
1.469554e+003;5.789369e-002
1.471482e+003;5.877499e-002
1.473411e+003;5.981009e-002
1.475339e+003;6.033243e-002
1.477268e+003;6.025180e-002
1.479196e+003;6.104428e-002
1.481125e+003;6.342125e-002
1.483053e+003;6.640936e-002
1.484982e+003;6.873666e-002
1.486911e+003;6.863572e-002
1.488839e+003;6.603275e-002
1.490768e+003;6.181746e-002
1.492696e+003;5.675767e-002
1.494625e+003;5.235470e-002
1.496553e+003;4.935918e-002
1.498482e+003;4.820003e-002
1.500410e+003;4.895845e-002
1.502339e+003;5.156702e-002
1.504267e+003;5.537555e-002
1.506196e+003;6.025386e-002
1.508125e+003;6.651440e-002
1.510053e+003;7.315353e-002
1.511982e+003;7.895545e-002
1.513910e+003;8.310565e-002
1.515839e+003;8.518044e-002
1.517767e+003;8.559015e-002
1.519696e+003;8.521451e-002
1.521624e+003;8.446261e-002
1.523553e+003;8.388861e-002
1.525481e+003;8.330117e-002
1.527410e+003;8.297636e-002
1.529339e+003;8.272675e-002
1.531267e+003;8.218896e-002
1.533196e+003;8.158261e-002
1.535124e+003;8.091792e-002
1.537053e+003;7.944636e-002
1.538981e+003;7.681686e-002
1.540910e+003;7.388633e-002
1.542838e+003;7.049930e-002
1.544767e+003;6.644767e-002
1.546695e+003;6.200117e-002
1.548624e+003;5.730610e-002
1.550553e+003;5.265732e-002
1.552481e+003;4.788929e-002
1.554410e+003;4.350577e-002
1.556338e+003;3.982577e-002
1.558267e+003;3.653182e-002
1.560195e+003;3.416088e-002
1.562124e+003;3.170831e-002
1.564052e+003;2.954929e-002
1.565981e+003;2.808418e-002
1.567910e+003;2.641848e-002
1.569838e+003;2.502912e-002
1.571767e+003;2.438797e-002
1.573695e+003;2.371603e-002
1.575624e+003;2.281444e-002
1.577552e+003;2.276433e-002
1.579481e+003;2.347268e-002
1.581409e+003;2.464236e-002
1.583338e+003;2.647120e-002
1.585266e+003;2.895506e-002
1.587195e+003;3.251350e-002
1.589124e+003;3.636317e-002
1.591052e+003;3.979665e-002
1.592981e+003;4.291782e-002
1.594909e+003;4.521616e-002
1.596838e+003;4.638901e-002
1.598766e+003;4.647175e-002
1.600695e+003;4.537386e-002
1.602623e+003;4.344937e-002
1.604552e+003;4.132626e-002
1.606480e+003;3.913972e-002
1.608409e+003;3.721307e-002
1.610338e+003;3.565609e-002
1.612266e+003;3.407507e-002
1.614195e+003;3.232174e-002
1.616123e+003;2.996495e-002
1.618052e+003;2.730219e-002
1.619980e+003;2.462496e-002
1.621909e+003;2.225669e-002
1.623837e+003;2.065888e-002
1.625766e+003;1.977339e-002
1.627694e+003;1.970237e-002
1.629623e+003;2.031771e-002
1.631552e+003;2.161544e-002
1.633480e+003;2.321542e-002
1.635409e+003;2.497784e-002
1.637337e+003;2.690281e-002
1.639266e+003;2.865747e-002
1.641194e+003;3.011742e-002
1.643123e+003;3.118103e-002
1.645051e+003;3.182691e-002
1.646980e+003;3.255700e-002
1.648909e+003;3.324509e-002
1.650837e+003;3.344570e-002
1.652766e+003;3.346080e-002
1.654694e+003;3.439311e-002
1.656623e+003;3.540172e-002
1.658551e+003;3.595924e-002
1.660480e+003;3.639686e-002
1.662408e+003;3.662831e-002
1.664337e+003;3.697601e-002
1.666266e+003;3.766732e-002
1.668194e+003;3.833646e-002
1.670123e+003;3.881536e-002
1.672051e+003;3.924840e-002
1.673980e+003;3.982396e-002
1.675908e+003;4.058141e-002
1.677837e+003;4.150694e-002
1.679765e+003;4.214690e-002
1.681694e+003;4.307512e-002
1.683622e+003;4.443081e-002
1.685551e+003;4.642621e-002
1.687479e+003;4.857853e-002
1.689408e+003;5.015510e-002
1.691337e+003;5.157437e-002
1.693265e+003;5.313165e-002
1.695194e+003;5.439306e-002
1.697122e+003;5.536468e-002
1.699051e+003;5.606397e-002
1.700979e+003;5.685382e-002
1.702908e+003;5.731019e-002
1.704836e+003;5.671244e-002
1.706765e+003;5.585904e-002
1.708693e+003;5.466004e-002
1.710622e+003;5.301903e-002
1.712551e+003;5.155978e-002
1.714479e+003;5.064465e-002
1.716408e+003;5.076288e-002
1.718336e+003;5.260952e-002
1.720265e+003;5.595537e-002
1.722193e+003;6.035440e-002
1.724122e+003;6.597131e-002
1.726050e+003;7.137327e-002
1.727979e+003;7.479753e-002
1.729908e+003;7.531241e-002
1.731836e+003;7.299220e-002
1.733765e+003;6.783447e-002
1.735693e+003;6.056530e-002
1.737622e+003;5.216632e-002
1.739550e+003;4.347892e-002
1.741479e+003;3.507910e-002
1.743407e+003;2.755683e-002
1.745336e+003;2.111380e-002
1.747265e+003;1.548505e-002
1.749193e+003;1.097241e-002
1.751122e+003;7.659887e-003
1.753050e+003;5.558534e-003
1.754979e+003;4.003226e-003
1.756907e+003;3.085375e-003
1.758836e+003;2.596442e-003
1.760764e+003;1.640546e-003
1.762693e+003;8.388689e-004
1.764621e+003;7.553505e-004
1.766550e+003;4.419015e-004
1.768479e+003;-3.877933e-004
1.770407e+003;-1.243131e-003
1.772336e+003;-1.775003e-003
1.774264e+003;-1.695369e-003
1.776193e+003;-1.481147e-003
1.778121e+003;-1.781966e-003
1.780050e+003;-2.100415e-003
1.781978e+003;-2.140444e-003
1.783907e+003;-2.274583e-003
1.785835e+003;-2.513583e-003
1.787764e+003;-2.481199e-003
1.789693e+003;-2.597810e-003
1.791621e+003;-2.769374e-003
1.793550e+003;-2.840977e-003
1.795478e+003;-2.942451e-003
1.797407e+003;-3.356529e-003
1.799335e+003;-3.569565e-003
1.801264e+003;-3.570551e-003
1.803192e+003;-3.733421e-003
1.805121e+003;-3.865427e-003
1.807049e+003;-3.844769e-003
1.808978e+003;-3.851371e-003
1.810907e+003;-3.859942e-003
1.812835e+003;-4.008357e-003
1.814764e+003;-4.199351e-003
1.816692e+003;-4.410302e-003
1.818621e+003;-4.406497e-003
1.820549e+003;-4.172442e-003
1.822478e+003;-4.317929e-003
1.824406e+003;-4.715326e-003
1.826335e+003;-4.817183e-003
1.828264e+003;-4.709852e-003
1.830192e+003;-4.723422e-003
1.832121e+003;-4.927861e-003
1.834049e+003;-4.898212e-003
1.835978e+003;-4.908106e-003
1.837906e+003;-5.246337e-003
1.839835e+003;-5.381451e-003
1.841763e+003;-5.108299e-003
1.843692e+003;-5.127488e-003
1.845620e+003;-5.202337e-003
1.847549e+003;-5.220900e-003
1.849478e+003;-5.273802e-003
1.851406e+003;-5.313441e-003
1.853335e+003;-5.519402e-003
1.855263e+003;-5.320380e-003
1.857192e+003;-4.977162e-003
1.859120e+003;-5.080627e-003
1.861049e+003;-5.162426e-003
1.862977e+003;-5.036415e-003
1.864906e+003;-4.908565e-003
1.866834e+003;-4.893920e-003
1.868763e+003;-4.931170e-003
1.870692e+003;-4.844675e-003
1.872620e+003;-4.731189e-003
1.874549e+003;-4.676550e-003
1.876477e+003;-4.694480e-003
1.878406e+003;-4.525543e-003
1.880334e+003;-4.444772e-003
1.882263e+003;-4.393640e-003
1.884191e+003;-4.218318e-003
1.886120e+003;-4.088291e-003
1.888048e+003;-3.981437e-003
1.889977e+003;-3.872159e-003
1.891906e+003;-3.563913e-003
1.893834e+003;-3.341996e-003
1.895763e+003;-3.205259e-003
1.897691e+003;-3.095556e-003
1.899620e+003;-3.032090e-003
1.901548e+003;-2.798050e-003
1.903477e+003;-2.553639e-003
1.905405e+003;-2.667530e-003
1.907334e+003;-2.915464e-003
1.909262e+003;-3.312732e-003
1.911191e+003;-3.365702e-003
1.913120e+003;-3.144967e-003
1.915048e+003;-2.911646e-003
1.916977e+003;-2.988885e-003
1.918905e+003;-3.087298e-003
1.920834e+003;-3.241075e-003
1.922762e+003;-3.540908e-003
1.924691e+003;-3.357088e-003
1.926619e+003;-2.932117e-003
1.928548e+003;-2.876889e-003
1.930477e+003;-3.317269e-003
1.932405e+003;-3.518559e-003
1.934334e+003;-3.352057e-003
1.936262e+003;-3.233413e-003
1.938191e+003;-3.395982e-003
1.940119e+003;-3.553330e-003
1.942048e+003;-3.635647e-003
1.943976e+003;-3.643796e-003
1.945905e+003;-3.622504e-003
1.947833e+003;-3.525855e-003
1.949762e+003;-3.388354e-003
1.951691e+003;-3.351728e-003
1.953619e+003;-3.260347e-003
1.955548e+003;-3.225092e-003
1.957476e+003;-3.214304e-003
1.959405e+003;-2.906939e-003
1.961333e+003;-2.969042e-003
1.963262e+003;-3.125591e-003
1.965190e+003;-3.000106e-003
1.967119e+003;-3.003759e-003
1.969047e+003;-2.940707e-003
1.970976e+003;-3.129605e-003
1.972905e+003;-3.304215e-003
1.974833e+003;-3.163881e-003
1.976762e+003;-2.897296e-003
1.978690e+003;-2.637364e-003
1.980619e+003;-2.674841e-003
1.982547e+003;-2.693249e-003
1.984476e+003;-2.738689e-003
1.986404e+003;-2.765160e-003
1.988333e+003;-2.540859e-003
1.990261e+003;-2.502020e-003
1.992190e+003;-2.397312e-003
1.994119e+003;-2.069155e-003
1.996047e+003;-2.014179e-003
1.997976e+003;-2.238225e-003
1.999904e+003;-2.282427e-003
2.001833e+003;-2.138202e-003
2.003761e+003;-1.837795e-003
2.005690e+003;-1.497856e-003
2.007618e+003;-1.438482e-003
2.009547e+003;-1.574257e-003
2.011476e+003;-1.461169e-003
2.013404e+003;-1.176155e-003
2.015333e+003;-1.018703e-003
2.017261e+003;-1.017579e-003
2.019190e+003;-1.008687e-003
2.021118e+003;-1.008422e-003
2.023047e+003;-8.365572e-004
2.024975e+003;-7.247322e-004
2.026904e+003;-9.346326e-004
2.028833e+003;-6.855982e-004
2.030761e+003;-3.220428e-004
2.032690e+003;-2.796937e-004
2.034618e+003;-3.862374e-004
2.036547e+003;-4.131506e-004
2.038475e+003;-3.006536e-004
2.040404e+003;-9.873832e-006
2.042332e+003;1.948719e-004
2.044261e+003;2.871019e-004
2.046189e+003;7.197704e-004
2.048118e+003;1.168053e-003
2.050047e+003;1.211013e-003
2.051975e+003;1.016083e-003
2.053904e+003;9.736409e-004
2.055832e+003;1.068063e-003
2.057761e+003;1.167223e-003
2.059689e+003;1.250422e-003
2.061618e+003;1.174366e-003
2.063546e+003;1.015552e-003
2.065475e+003;1.208920e-003
2.067404e+003;1.611145e-003
2.069332e+003;1.710929e-003
2.071260e+003;1.619293e-003
2.073189e+003;1.753609e-003
2.075118e+003;2.018571e-003
2.077046e+003;2.061249e-003
2.078975e+003;1.743928e-003
2.080903e+003;1.365278e-003
2.082832e+003;1.601534e-003
2.084760e+003;1.835823e-003
2.086689e+003;1.466933e-003
2.088617e+003;1.465503e-003
2.090546e+003;1.757069e-003
2.092475e+003;1.769811e-003
2.094403e+003;1.851329e-003
2.096332e+003;1.763523e-003
2.098260e+003;1.669715e-003
2.100189e+003;1.479101e-003
2.102117e+003;1.211910e-003
2.104046e+003;1.130546e-003
2.105974e+003;1.181442e-003
2.107903e+003;1.255938e-003
2.109832e+003;8.298059e-004
2.111760e+003;5.603929e-004
2.113688e+003;5.544875e-004
2.115617e+003;3.584262e-004
2.117546e+003;2.473498e-004
2.119474e+003;2.804708e-004
2.121403e+003;2.236792e-004
2.123331e+003;1.536697e-004
2.125260e+003;-6.526915e-005
2.127188e+003;-3.379020e-004
2.129117e+003;-4.032859e-004
2.131045e+003;-3.805764e-004
2.132974e+003;-2.232991e-004
2.134903e+003;-2.660180e-004
2.136831e+003;-2.117411e-004
2.138760e+003;2.460236e-004
2.140688e+003;2.345529e-004
2.142617e+003;-4.497604e-004
2.144545e+003;-8.269006e-004
2.146474e+003;-6.576763e-004
2.148402e+003;-3.476026e-004
2.150331e+003;-7.186179e-005
2.152260e+003;-4.797544e-005
2.154188e+003;-2.889192e-005
2.156117e+003;1.303026e-004
2.158045e+003;3.385962e-004
2.159974e+003;1.288774e-004
2.161902e+003;-1.487132e-004
2.163831e+003;9.672903e-005
2.165759e+003;3.983212e-004
2.167688e+003;5.052234e-004
2.169616e+003;4.904950e-004
2.171545e+003;4.801456e-004
2.173474e+003;6.070089e-004
2.175402e+003;5.215778e-004
2.177331e+003;6.062125e-004
2.179259e+003;9.548786e-004
2.181188e+003;1.017511e-003
2.183116e+003;5.762849e-004
2.185045e+003;4.326809e-004
2.186973e+003;9.009206e-004
2.188902e+003;1.195264e-003
2.190831e+003;9.886846e-004
2.192759e+003;7.644119e-004
2.194688e+003;8.313330e-004
2.196616e+003;8.715038e-004
2.198545e+003;9.688921e-004
2.200473e+003;1.171409e-003
2.202402e+003;1.103040e-003
2.204330e+003;8.956082e-004
2.206259e+003;8.355823e-004
2.208188e+003;7.895061e-004
2.210116e+003;6.413187e-004
2.212044e+003;7.770917e-004
2.213973e+003;1.024054e-003
2.215902e+003;1.155030e-003
2.217830e+003;7.731416e-004
2.219759e+003;3.868133e-004
2.221687e+003;6.690274e-004
2.223616e+003;9.853636e-004
2.225544e+003;8.071327e-004
2.227473e+003;6.033922e-004
2.229401e+003;7.191399e-004
2.231330e+003;1.090085e-003
2.233259e+003;1.012330e-003
2.235187e+003;5.849113e-004
2.237116e+003;7.405141e-004
2.239044e+003;1.002434e-003
2.240973e+003;7.573420e-004
2.242901e+003;6.012687e-004
2.244830e+003;7.192062e-004
2.246758e+003;8.016886e-004
2.248687e+003;7.826682e-004
2.250615e+003;7.178123e-004
2.252544e+003;5.621845e-004
2.254473e+003;7.124026e-004
2.256401e+003;1.054810e-003
2.258330e+003;1.074806e-003
2.260258e+003;7.999957e-004
2.262187e+003;7.113073e-004
2.264115e+003;5.150094e-004
2.266044e+003;4.011402e-004
2.267972e+003;8.329929e-004
2.269901e+003;9.911088e-004
2.271830e+003;7.754320e-004
2.273758e+003;6.315963e-004
2.275687e+003;3.887368e-004
2.277615e+003;5.266866e-004
2.279544e+003;5.397242e-004
2.281472e+003;5.374684e-004
2.283401e+003;8.393337e-004
2.285329e+003;7.513675e-004
2.287258e+003;6.287094e-004
2.289187e+003;7.655073e-004
2.291115e+003;6.708858e-004
2.293043e+003;4.805768e-004
2.294972e+003;5.219095e-004
2.296901e+003;5.807308e-004
2.298829e+003;5.068820e-004
2.300758e+003;5.006788e-004
2.302686e+003;5.772139e-004
2.304615e+003;6.819366e-004
2.306543e+003;7.718139e-004
2.308472e+003;5.849445e-004
2.310400e+003;2.001426e-004
2.312329e+003;9.165842e-005
2.314258e+003;-1.004839e-004
2.316186e+003;-3.835228e-004
2.318115e+003;-5.488498e-004
2.320043e+003;-7.680302e-004
2.321972e+003;-1.243296e-003
2.323900e+003;-1.730122e-003
2.325829e+003;-1.882269e-003
2.327757e+003;-2.147994e-003
2.329686e+003;-2.461332e-003
2.331615e+003;-2.701053e-003
2.333543e+003;-2.761571e-003
2.335472e+003;-2.526826e-003
2.337400e+003;-2.173216e-003
2.339329e+003;-2.064208e-003
2.341257e+003;-1.976250e-003
2.343186e+003;-1.549364e-003
2.345114e+003;-8.954183e-004
2.347043e+003;-3.134012e-004
2.348971e+003;-2.073033e-004
2.350900e+003;-6.710751e-004
2.352829e+003;-1.516809e-003
2.354757e+003;-2.498561e-003
2.356686e+003;-2.979803e-003
2.358614e+003;-3.399269e-003
2.360543e+003;-3.858858e-003
2.362471e+003;-3.854622e-003
2.364400e+003;-3.563617e-003
2.366328e+003;-3.337722e-003
2.368257e+003;-2.903681e-003
2.370186e+003;-1.956558e-003
2.372114e+003;-9.016016e-004
2.374042e+003;-3.834566e-004
2.375971e+003;1.030481e-005
2.377900e+003;6.814388e-004
2.379828e+003;1.256303e-003
2.381757e+003;1.396889e-003
2.383685e+003;1.377643e-003
2.385614e+003;1.542475e-003
2.387542e+003;1.579486e-003
2.389471e+003;1.677199e-003
2.391399e+003;1.670514e-003
2.393328e+003;1.475710e-003
2.395257e+003;1.403803e-003
2.397185e+003;1.465670e-003
2.399114e+003;1.510488e-003
2.401042e+003;1.600004e-003
2.402971e+003;1.407925e-003
2.404899e+003;1.036941e-003
2.406828e+003;1.130047e-003
2.408756e+003;1.351285e-003
2.410685e+003;1.262683e-003
2.412614e+003;1.147057e-003
2.414542e+003;1.409221e-003
2.416471e+003;1.470623e-003
2.418399e+003;1.390440e-003
2.420328e+003;1.347995e-003
2.422256e+003;1.458788e-003
2.424185e+003;1.648761e-003
2.426113e+003;1.775400e-003
2.428042e+003;1.512915e-003
2.429970e+003;1.536390e-003
2.431899e+003;1.525749e-003
2.433828e+003;1.207591e-003
2.435756e+003;1.260557e-003
2.437685e+003;1.520363e-003
2.439613e+003;1.375283e-003
2.441542e+003;1.188519e-003
2.443470e+003;1.285214e-003
2.445399e+003;1.599472e-003
2.447327e+003;1.749185e-003
2.449256e+003;2.013677e-003
2.451185e+003;2.208856e-003
2.453113e+003;2.026960e-003
2.455042e+003;1.754275e-003
2.456970e+003;1.709930e-003
2.458899e+003;1.776765e-003
2.460827e+003;1.760496e-003
2.462756e+003;1.596978e-003
2.464684e+003;1.370895e-003
2.466613e+003;1.668085e-003
2.468542e+003;1.999763e-003
2.470470e+003;2.054557e-003
2.472398e+003;2.044037e-003
2.474327e+003;2.161768e-003
2.476256e+003;2.201296e-003
2.478184e+003;1.990509e-003
2.480113e+003;2.112587e-003
2.482041e+003;2.619576e-003
2.483970e+003;2.772875e-003
2.485898e+003;2.137593e-003
2.487827e+003;1.870662e-003
2.489755e+003;2.450203e-003
2.491684e+003;2.536381e-003
2.493613e+003;2.076530e-003
2.495541e+003;2.196634e-003
2.497470e+003;2.326465e-003
2.499398e+003;2.121311e-003
2.501327e+003;1.828269e-003
2.503255e+003;1.619560e-003
2.505184e+003;1.644603e-003
2.507112e+003;1.776365e-003
2.509041e+003;2.038578e-003
2.510969e+003;2.266307e-003
2.512898e+003;2.341555e-003
2.514827e+003;2.569744e-003
2.516755e+003;2.693618e-003
2.518684e+003;2.755668e-003
2.520612e+003;2.818962e-003
2.522541e+003;2.717157e-003
2.524469e+003;2.624876e-003
2.526398e+003;2.777143e-003
2.528326e+003;2.836071e-003
2.530255e+003;2.842007e-003
2.532184e+003;2.951047e-003
2.534112e+003;3.373924e-003
2.536041e+003;3.650267e-003
2.537969e+003;3.577097e-003
2.539898e+003;3.152521e-003
2.541826e+003;2.966059e-003
2.543755e+003;3.254863e-003
2.545683e+003;3.379066e-003
2.547612e+003;3.080870e-003
2.549541e+003;2.990013e-003
2.551469e+003;3.487874e-003
2.553397e+003;4.011185e-003
2.555326e+003;4.300517e-003
2.557255e+003;4.294560e-003
2.559183e+003;3.897566e-003
2.561112e+003;3.973699e-003
2.563040e+003;4.586961e-003
2.564969e+003;5.069056e-003
2.566897e+003;5.264807e-003
2.568826e+003;5.640396e-003
2.570754e+003;5.650534e-003
2.572683e+003;5.248911e-003
2.574612e+003;5.597634e-003
2.576540e+003;5.668258e-003
2.578469e+003;5.375464e-003
2.580397e+003;5.448938e-003
2.582326e+003;5.504068e-003
2.584254e+003;5.521887e-003
2.586183e+003;5.761792e-003
2.588111e+003;5.806989e-003
2.590040e+003;5.980397e-003
2.591969e+003;6.134753e-003
2.593897e+003;6.382764e-003
2.595826e+003;6.606829e-003
2.597754e+003;6.637007e-003
2.599683e+003;6.619613e-003
2.601611e+003;6.727890e-003
2.603540e+003;6.800886e-003
2.605468e+003;7.209842e-003
2.607397e+003;7.589916e-003
2.609325e+003;7.978557e-003
2.611254e+003;8.032693e-003
2.613183e+003;7.857890e-003
2.615111e+003;7.779217e-003
2.617040e+003;7.892811e-003
2.618968e+003;7.712836e-003
2.620897e+003;7.180669e-003
2.622825e+003;7.025369e-003
2.624754e+003;6.999911e-003
2.626682e+003;6.981830e-003
2.628611e+003;7.403764e-003
2.630540e+003;7.806981e-003
2.632468e+003;7.744642e-003
2.634396e+003;7.512708e-003
2.636325e+003;7.393282e-003
2.638254e+003;7.362613e-003
2.640182e+003;7.470637e-003
2.642111e+003;7.424391e-003
2.644039e+003;7.162546e-003
2.645968e+003;7.406999e-003
2.647896e+003;7.795443e-003
2.649825e+003;7.647645e-003
2.651753e+003;7.834307e-003
2.653682e+003;8.308674e-003
2.655611e+003;8.729433e-003
2.657539e+003;9.435656e-003
2.659468e+003;9.967068e-003
2.661396e+003;9.957508e-003
2.663325e+003;9.964865e-003
2.665253e+003;9.945710e-003
2.667182e+003;9.976968e-003
2.669110e+003;1.028086e-002
2.671039e+003;1.042925e-002
2.672968e+003;1.027651e-002
2.674896e+003;1.045854e-002
2.676825e+003;1.131542e-002
2.678753e+003;1.216562e-002
2.680682e+003;1.242979e-002
2.682610e+003;1.291729e-002
2.684539e+003;1.366462e-002
2.686467e+003;1.415058e-002
2.688396e+003;1.485498e-002
2.690324e+003;1.561201e-002
2.692253e+003;1.621171e-002
2.694182e+003;1.666137e-002
2.696110e+003;1.664381e-002
2.698039e+003;1.651758e-002
2.699967e+003;1.659575e-002
2.701896e+003;1.711443e-002
2.703824e+003;1.749475e-002
2.705753e+003;1.766105e-002
2.707681e+003;1.782024e-002
2.709610e+003;1.742383e-002
2.711539e+003;1.772901e-002
2.713467e+003;1.847741e-002
2.715396e+003;1.868757e-002
2.717324e+003;1.879077e-002
2.719253e+003;1.900475e-002
2.721181e+003;1.949838e-002
2.723110e+003;2.022460e-002
2.725038e+003;2.070857e-002
2.726967e+003;2.122718e-002
2.728896e+003;2.200154e-002
2.730824e+003;2.302776e-002
2.732752e+003;2.366504e-002
2.734681e+003;2.442768e-002
2.736610e+003;2.528753e-002
2.738538e+003;2.548569e-002
2.740467e+003;2.555840e-002
2.742395e+003;2.561350e-002
2.744324e+003;2.555864e-002
2.746252e+003;2.584691e-002
2.748181e+003;2.591292e-002
2.750109e+003;2.515996e-002
2.752038e+003;2.485815e-002
2.753967e+003;2.503699e-002
2.755895e+003;2.509494e-002
2.757824e+003;2.486053e-002
2.759752e+003;2.517344e-002
2.761681e+003;2.566211e-002
2.763609e+003;2.568493e-002
2.765538e+003;2.605479e-002
2.767466e+003;2.650592e-002
2.769395e+003;2.705908e-002
2.771323e+003;2.764228e-002
2.773252e+003;2.787395e-002
2.775181e+003;2.833840e-002
2.777109e+003;2.928022e-002
2.779038e+003;3.037703e-002
2.780966e+003;3.160438e-002
2.782895e+003;3.345100e-002
2.784823e+003;3.579942e-002
2.786752e+003;3.821317e-002
2.788680e+003;4.101319e-002
2.790609e+003;4.419887e-002
2.792538e+003;4.704241e-002
2.794466e+003;4.930120e-002
2.796395e+003;5.124320e-002
2.798323e+003;5.309185e-002
2.800252e+003;5.432937e-002
2.802180e+003;5.472746e-002
2.804109e+003;5.451227e-002
2.806037e+003;5.331495e-002
2.807966e+003;5.155512e-002
2.809895e+003;4.988414e-002
2.811823e+003;4.818989e-002
2.813751e+003;4.657963e-002
2.815680e+003;4.550604e-002
2.817609e+003;4.495330e-002
2.819537e+003;4.503081e-002
2.821466e+003;4.580513e-002
2.823394e+003;4.700604e-002
2.825323e+003;4.898782e-002
2.827251e+003;5.206874e-002
2.829180e+003;5.582603e-002
2.831108e+003;5.999985e-002
2.833037e+003;6.485222e-002
2.834966e+003;7.036775e-002
2.836894e+003;7.559203e-002
2.838823e+003;8.096271e-002
2.840751e+003;8.656801e-002
2.842680e+003;9.186393e-002
2.844608e+003;9.732977e-002
2.846537e+003;1.032155e-001
2.848465e+003;1.085668e-001
2.850394e+003;1.127274e-001
2.852323e+003;1.159152e-001
2.854251e+003;1.183666e-001
2.856180e+003;1.196555e-001
2.858108e+003;1.202652e-001
2.860037e+003;1.203691e-001
2.861965e+003;1.193894e-001
2.863894e+003;1.178545e-001
2.865822e+003;1.158043e-001
2.867751e+003;1.127306e-001
2.869679e+003;1.093632e-001
2.871608e+003;1.050204e-001
2.873536e+003;1.001171e-001
2.875465e+003;9.495615e-002
2.877394e+003;8.973736e-002
2.879322e+003;8.498646e-002
2.881251e+003;8.052364e-002
2.883179e+003;7.581638e-002
2.885108e+003;7.195237e-002
2.887036e+003;6.899095e-002
2.888965e+003;6.663706e-002
2.890893e+003;6.490416e-002
2.892822e+003;6.329857e-002
2.894750e+003;6.177085e-002
2.896679e+003;6.033178e-002
2.898608e+003;5.971701e-002
2.900536e+003;5.982595e-002
2.902465e+003;5.961286e-002
2.904393e+003;6.032767e-002
2.906322e+003;6.183614e-002
2.908250e+003;6.301933e-002
2.910179e+003;6.423552e-002
2.912107e+003;6.570464e-002
2.914036e+003;6.737496e-002
2.915965e+003;6.949563e-002
2.917893e+003;7.161261e-002
2.919822e+003;7.314046e-002
2.921750e+003;7.445719e-002
2.923679e+003;7.597837e-002
2.925607e+003;7.785176e-002
2.927536e+003;7.995137e-002
2.929464e+003;8.202423e-002
2.931393e+003;8.439966e-002
2.933322e+003;8.668482e-002
2.935250e+003;8.911300e-002
2.937178e+003;9.182590e-002
2.939107e+003;9.337755e-002
2.941036e+003;9.319752e-002
2.942964e+003;9.228757e-002
2.944893e+003;9.044162e-002
2.946821e+003;8.789234e-002
2.948750e+003;8.493242e-002
2.950678e+003;8.103685e-002
2.952607e+003;7.638422e-002
2.954535e+003;7.217881e-002
2.956464e+003;6.815761e-002
2.958393e+003;6.407278e-002
2.960321e+003;6.052527e-002
2.962250e+003;5.720645e-002
2.964178e+003;5.356159e-002
2.966107e+003;5.054150e-002
2.968035e+003;4.796152e-002
2.969964e+003;4.505775e-002
2.971892e+003;4.251772e-002
2.973821e+003;4.043086e-002
2.975750e+003;3.850352e-002
2.977678e+003;3.598436e-002
2.979607e+003;3.378033e-002
2.981535e+003;3.166404e-002
2.983464e+003;2.949535e-002
2.985392e+003;2.771676e-002
2.987321e+003;2.596877e-002
2.989249e+003;2.415406e-002
2.991178e+003;2.245243e-002
2.993106e+003;2.131135e-002
2.995035e+003;2.046228e-002
2.996964e+003;1.970234e-002
2.998892e+003;1.891970e-002
3.000821e+003;1.826780e-002
3.002749e+003;1.801247e-002
3.004678e+003;1.799537e-002
3.006606e+003;1.745346e-002
3.008535e+003;1.644572e-002
3.010463e+003;1.603475e-002
3.012392e+003;1.631769e-002
3.014321e+003;1.623485e-002
3.016249e+003;1.577278e-002
3.018177e+003;1.555781e-002
3.020106e+003;1.546362e-002
3.022035e+003;1.511265e-002
3.023963e+003;1.513900e-002
3.025892e+003;1.562365e-002
3.027820e+003;1.583082e-002
3.029749e+003;1.617081e-002
3.031677e+003;1.644913e-002
3.033606e+003;1.667600e-002
3.035534e+003;1.682370e-002
3.037463e+003;1.658914e-002
3.039392e+003;1.653482e-002
3.041320e+003;1.656350e-002
3.043249e+003;1.625240e-002
3.045177e+003;1.620177e-002
3.047106e+003;1.637521e-002
3.049034e+003;1.629436e-002
3.050963e+003;1.592578e-002
3.052891e+003;1.571276e-002
3.054820e+003;1.568964e-002
3.056749e+003;1.581182e-002
3.058677e+003;1.579690e-002
3.060606e+003;1.579494e-002
3.062534e+003;1.583298e-002
3.064463e+003;1.567394e-002
3.066391e+003;1.531769e-002
3.068320e+003;1.473417e-002
3.070248e+003;1.432933e-002
3.072177e+003;1.401456e-002
3.074105e+003;1.385878e-002
3.076034e+003;1.381568e-002
3.077963e+003;1.378993e-002
3.079891e+003;1.345517e-002
3.081820e+003;1.312560e-002
3.083748e+003;1.306874e-002
3.085677e+003;1.315165e-002
3.087605e+003;1.282552e-002
3.089534e+003;1.273874e-002
3.091462e+003;1.355775e-002
3.093391e+003;1.389799e-002
3.095320e+003;1.328169e-002
3.097248e+003;1.302640e-002
3.099177e+003;1.338512e-002
3.101105e+003;1.334985e-002
3.103034e+003;1.343439e-002
3.104962e+003;1.354353e-002
3.106891e+003;1.379656e-002
3.108819e+003;1.430759e-002
3.110748e+003;1.460914e-002
3.112677e+003;1.473232e-002
3.114605e+003;1.486749e-002
3.116533e+003;1.512614e-002
3.118462e+003;1.531371e-002
3.120391e+003;1.535129e-002
3.122319e+003;1.512229e-002
3.124248e+003;1.462374e-002
3.126176e+003;1.429742e-002
3.128105e+003;1.394862e-002
3.130033e+003;1.353334e-002
3.131962e+003;1.321426e-002
3.133890e+003;1.313851e-002
3.135819e+003;1.286040e-002
3.137748e+003;1.252291e-002
3.139676e+003;1.238874e-002
3.141605e+003;1.222686e-002
3.143533e+003;1.238707e-002
3.145462e+003;1.226173e-002
3.147390e+003;1.174758e-002
3.149319e+003;1.131944e-002
3.151247e+003;1.131957e-002
3.153176e+003;1.130060e-002
3.155104e+003;1.112760e-002
3.157033e+003;1.137056e-002
3.158962e+003;1.135797e-002
3.160890e+003;1.126186e-002
3.162819e+003;1.161919e-002
3.164747e+003;1.215833e-002
3.166676e+003;1.253024e-002
3.168604e+003;1.264594e-002
3.170533e+003;1.257827e-002
3.172461e+003;1.277945e-002
3.174390e+003;1.310347e-002
3.176319e+003;1.354168e-002
3.178247e+003;1.411799e-002
3.180176e+003;1.461226e-002
3.182104e+003;1.490809e-002
3.184033e+003;1.498433e-002
3.185961e+003;1.532157e-002
3.187890e+003;1.544251e-002
3.189818e+003;1.539921e-002
3.191747e+003;1.541078e-002
3.193676e+003;1.578148e-002
3.195604e+003;1.532428e-002
3.197532e+003;1.439578e-002
3.199461e+003;1.423890e-002
3.201390e+003;1.483636e-002
3.203318e+003;1.519603e-002
3.205247e+003;1.489119e-002
3.207175e+003;1.479862e-002
3.209104e+003;1.497798e-002
3.211032e+003;1.500093e-002
3.212961e+003;1.505337e-002
3.214889e+003;1.568967e-002
3.216818e+003;1.609017e-002
3.218747e+003;1.614323e-002
3.220675e+003;1.608491e-002
3.222604e+003;1.641079e-002
3.224532e+003;1.693135e-002
3.226461e+003;1.711415e-002
3.228389e+003;1.750351e-002
3.230318e+003;1.782960e-002
3.232246e+003;1.791826e-002
3.234175e+003;1.820765e-002
3.236104e+003;1.877914e-002
3.238032e+003;1.940541e-002
3.239961e+003;1.983727e-002
3.241889e+003;2.012325e-002
3.243818e+003;2.044613e-002
3.245746e+003;2.087197e-002
3.247675e+003;2.134723e-002
3.249603e+003;2.186775e-002
3.251532e+003;2.235746e-002
3.253460e+003;2.269960e-002
3.255389e+003;2.284126e-002
3.257318e+003;2.317134e-002
3.259246e+003;2.386023e-002
3.261175e+003;2.416877e-002
3.263103e+003;2.436789e-002
3.265032e+003;2.480114e-002
3.266960e+003;2.477122e-002
3.268889e+003;2.505250e-002
3.270817e+003;2.554177e-002
3.272746e+003;2.563473e-002
3.274675e+003;2.553812e-002
3.276603e+003;2.560289e-002
3.278531e+003;2.568001e-002
3.280460e+003;2.600574e-002
3.282389e+003;2.651895e-002
3.284317e+003;2.678699e-002
3.286246e+003;2.704980e-002
3.288174e+003;2.756368e-002
3.290103e+003;2.787328e-002
3.292031e+003;2.792783e-002
3.293960e+003;2.748270e-002
3.295888e+003;2.688974e-002
3.297817e+003;2.676863e-002
3.299746e+003;2.717536e-002
3.301674e+003;2.744832e-002
3.303603e+003;2.758988e-002
3.305531e+003;2.799215e-002
3.307460e+003;2.805339e-002
3.309388e+003;2.794571e-002
3.311317e+003;2.804647e-002
3.313245e+003;2.811949e-002
3.315174e+003;2.781025e-002
3.317103e+003;2.780580e-002
3.319031e+003;2.819734e-002
3.320960e+003;2.768561e-002
3.322888e+003;2.716852e-002
3.324817e+003;2.744271e-002
3.326745e+003;2.760199e-002
3.328674e+003;2.725321e-002
3.330602e+003;2.682717e-002
3.332531e+003;2.682210e-002
3.334459e+003;2.712026e-002
3.336388e+003;2.707657e-002
3.338317e+003;2.651381e-002
3.340245e+003;2.599920e-002
3.342174e+003;2.592723e-002
3.344102e+003;2.546377e-002
3.346031e+003;2.454375e-002
3.347959e+003;2.434613e-002
3.349888e+003;2.490724e-002
3.351816e+003;2.504822e-002
3.353745e+003;2.467490e-002
3.355674e+003;2.416583e-002
3.357602e+003;2.360399e-002
3.359531e+003;2.325089e-002
3.361459e+003;2.353242e-002
3.363388e+003;2.366508e-002
3.365316e+003;2.334081e-002
3.367245e+003;2.267513e-002
3.369173e+003;2.175361e-002
3.371102e+003;2.141549e-002
3.373031e+003;2.152490e-002
3.374959e+003;2.159562e-002
3.376887e+003;2.162066e-002
3.378816e+003;2.171244e-002
3.380745e+003;2.156205e-002
3.382673e+003;2.127018e-002
3.384602e+003;2.084461e-002
3.386530e+003;2.061562e-002
3.388459e+003;2.037285e-002
3.390387e+003;1.980113e-002
3.392316e+003;1.914808e-002
3.394244e+003;1.864973e-002
3.396173e+003;1.804072e-002
3.398102e+003;1.795231e-002
3.400030e+003;1.812645e-002
3.401959e+003;1.793186e-002
3.403887e+003;1.699860e-002
3.405816e+003;1.632928e-002
3.407744e+003;1.679109e-002
3.409673e+003;1.699616e-002
3.411601e+003;1.604864e-002
3.413530e+003;1.548326e-002
3.415458e+003;1.581347e-002
3.417387e+003;1.552931e-002
3.419316e+003;1.507245e-002
3.421244e+003;1.468539e-002
3.423173e+003;1.411477e-002
3.425101e+003;1.375843e-002
3.427030e+003;1.333154e-002
3.428958e+003;1.293238e-002
3.430887e+003;1.280231e-002
3.432815e+003;1.278685e-002
3.434744e+003;1.233228e-002
3.436673e+003;1.206017e-002
3.438601e+003;1.182759e-002
3.440530e+003;1.156784e-002
3.442458e+003;1.142168e-002
3.444387e+003;1.090456e-002
3.446315e+003;1.028696e-002
3.448244e+003;1.010111e-002
3.450172e+003;9.623696e-003
3.452101e+003;8.821870e-003
3.454030e+003;8.480989e-003
3.455958e+003;8.255990e-003
3.457886e+003;7.966981e-003
3.459815e+003;7.874456e-003
3.461744e+003;7.302429e-003
3.463672e+003;6.645351e-003
3.465601e+003;6.652349e-003
3.467529e+003;6.502383e-003
3.469458e+003;6.306510e-003
3.471386e+003;6.476520e-003
3.473315e+003;6.725972e-003
3.475243e+003;6.261060e-003
3.477172e+003;5.940725e-003
3.479101e+003;5.926382e-003
3.481029e+003;6.286709e-003
3.482958e+003;6.491722e-003
3.484886e+003;6.214707e-003
3.486815e+003;6.165637e-003
3.488743e+003;5.910259e-003
3.490672e+003;5.761289e-003
3.492600e+003;5.937265e-003
3.494529e+003;6.350082e-003
3.496458e+003;6.338449e-003
3.498386e+003;6.028203e-003
3.500315e+003;5.909890e-003
3.502243e+003;6.038316e-003
3.504172e+003;6.213867e-003
3.506100e+003;6.260791e-003
3.508029e+003;6.225295e-003
3.509957e+003;6.255883e-003
3.511886e+003;6.147456e-003
3.513814e+003;5.913182e-003
3.515743e+003;5.744568e-003
3.517672e+003;5.815887e-003
3.519600e+003;5.879897e-003
3.521529e+003;5.323470e-003
3.523457e+003;5.268598e-003
3.525386e+003;5.589578e-003
3.527314e+003;5.578066e-003
3.529243e+003;5.152570e-003
3.531171e+003;5.154079e-003
3.533100e+003;5.095171e-003
3.535029e+003;4.902009e-003
3.536957e+003;4.838345e-003
3.538885e+003;4.890515e-003
3.540814e+003;5.183720e-003
3.542743e+003;5.171950e-003
3.544671e+003;5.005602e-003
3.546600e+003;4.878084e-003
3.548528e+003;5.198172e-003
3.550457e+003;5.284596e-003
3.552385e+003;5.118539e-003
3.554314e+003;5.144355e-003
3.556242e+003;5.051088e-003
3.558171e+003;4.857242e-003
3.560100e+003;4.377156e-003
3.562028e+003;4.386493e-003
3.563957e+003;4.587563e-003
3.565885e+003;4.679626e-003
3.567814e+003;4.361024e-003
3.569742e+003;4.728696e-003
3.571671e+003;4.661473e-003
3.573599e+003;4.076267e-003
3.575528e+003;4.073759e-003
3.577457e+003;3.974334e-003
3.579385e+003;4.348339e-003
3.581314e+003;5.047300e-003
3.583242e+003;4.720355e-003
3.585171e+003;4.198865e-003
3.587099e+003;4.214423e-003
3.589028e+003;4.252967e-003
3.590956e+003;4.091084e-003
3.592885e+003;4.091218e-003
3.594813e+003;3.979952e-003
3.596742e+003;4.057370e-003
3.598671e+003;4.441757e-003
3.600599e+003;4.712484e-003
3.602528e+003;4.556523e-003
3.604456e+003;4.126674e-003
3.606385e+003;4.327924e-003
3.608313e+003;4.386360e-003
3.610242e+003;4.426057e-003
3.612170e+003;4.628150e-003
3.614099e+003;4.398811e-003
3.616028e+003;4.058006e-003
3.617956e+003;4.225096e-003
3.619885e+003;4.379565e-003
3.621813e+003;4.600456e-003
3.623742e+003;4.466830e-003
3.625670e+003;4.098442e-003
3.627599e+003;3.248653e-003
3.629527e+003;3.405113e-003
3.631456e+003;4.366680e-003
3.633385e+003;4.513800e-003
3.635313e+003;4.166381e-003
3.637241e+003;4.484640e-003
3.639170e+003;5.176611e-003
3.641099e+003;4.799078e-003
3.643027e+003;4.067069e-003
3.644956e+003;3.644587e-003
3.646884e+003;3.528625e-003
3.648813e+003;3.423281e-003
3.650741e+003;3.779631e-003
3.652670e+003;3.904887e-003
3.654598e+003;4.033290e-003
3.656527e+003;4.329464e-003
3.658456e+003;4.741927e-003
3.660384e+003;5.220271e-003
3.662313e+003;4.994642e-003
3.664241e+003;4.651694e-003
3.666170e+003;4.500978e-003
3.668098e+003;4.140757e-003
3.670027e+003;3.751656e-003
3.671955e+003;4.182272e-003
3.673884e+003;4.548152e-003
3.675813e+003;4.833654e-003
3.677741e+003;5.488330e-003
3.679669e+003;5.331688e-003
3.681598e+003;4.632973e-003
3.683527e+003;4.677683e-003
3.685455e+003;5.005635e-003
3.687384e+003;4.932270e-003
3.689312e+003;4.549826e-003
3.691241e+003;4.813451e-003
3.693169e+003;5.158136e-003
3.695098e+003;4.828193e-003
3.697026e+003;4.514637e-003
3.698955e+003;4.204419e-003
3.700884e+003;3.955542e-003
3.702812e+003;4.125704e-003
3.704741e+003;4.165377e-003
3.706669e+003;4.316512e-003
3.708598e+003;4.467767e-003
3.710526e+003;4.118679e-003
3.712455e+003;3.867076e-003
3.714383e+003;4.073457e-003
3.716312e+003;4.573466e-003
3.718240e+003;4.375281e-003
3.720169e+003;3.869049e-003
3.722098e+003;3.637871e-003
3.724026e+003;3.769470e-003
3.725955e+003;3.842037e-003
3.727883e+003;3.993461e-003
3.729812e+003;4.172169e-003
3.731740e+003;4.264946e-003
3.733669e+003;4.577317e-003
3.735597e+003;4.491436e-003
3.737526e+003;4.494449e-003
3.739455e+003;4.401288e-003
3.741383e+003;4.129785e-003
3.743312e+003;3.276796e-003
3.745240e+003;2.850045e-003
3.747169e+003;3.231728e-003
3.749097e+003;3.343571e-003
3.751026e+003;3.582643e-003
3.752954e+003;4.471450e-003
3.754883e+003;5.148613e-003
3.756812e+003;4.770100e-003
3.758740e+003;4.550496e-003
3.760668e+003;4.731711e-003
3.762597e+003;5.057591e-003
3.764526e+003;4.671018e-003
3.766454e+003;4.188662e-003
3.768383e+003;4.172704e-003
3.770311e+003;4.121690e-003
3.772240e+003;4.281577e-003
3.774168e+003;5.181373e-003
3.776097e+003;5.604212e-003
3.778025e+003;5.526686e-003
3.779954e+003;5.933537e-003
3.781883e+003;5.957319e-003
3.783811e+003;5.219735e-003
3.785740e+003;4.961561e-003
3.787668e+003;5.557560e-003
3.789597e+003;6.058441e-003
3.791525e+003;6.139558e-003
3.793454e+003;6.277196e-003
3.795382e+003;5.903239e-003
3.797311e+003;5.419781e-003
3.799240e+003;5.277989e-003
3.801168e+003;4.879190e-003
3.803097e+003;4.642852e-003
3.805025e+003;4.959785e-003
3.806954e+003;5.481585e-003
3.808882e+003;6.096377e-003
3.810811e+003;6.516712e-003
3.812739e+003;6.427084e-003
3.814668e+003;5.622572e-003
3.816596e+003;4.892560e-003
3.818525e+003;5.387172e-003
3.820454e+003;5.785901e-003
3.822382e+003;5.491450e-003
3.824311e+003;5.530377e-003
3.826239e+003;6.000587e-003
3.828168e+003;5.834323e-003
3.830096e+003;5.718951e-003
3.832025e+003;5.863037e-003
3.833953e+003;6.021484e-003
3.835882e+003;5.961014e-003
3.837811e+003;5.956681e-003
3.839739e+003;6.188189e-003
3.841667e+003;5.963500e-003
3.843596e+003;5.536653e-003
3.845525e+003;5.755916e-003
3.847453e+003;6.436500e-003
3.849382e+003;6.530401e-003
3.851310e+003;6.221430e-003
3.853239e+003;6.306107e-003
3.855167e+003;6.387741e-003
3.857096e+003;6.207716e-003
3.859024e+003;6.160327e-003
3.860953e+003;6.660794e-003
3.862882e+003;6.747273e-003
3.864810e+003;7.119465e-003
3.866739e+003;7.545107e-003
3.868667e+003;7.188653e-003
3.870596e+003;6.855716e-003
3.872524e+003;7.020721e-003
3.874453e+003;6.870864e-003
3.876381e+003;6.991931e-003
3.878310e+003;7.142773e-003
3.880239e+003;7.102658e-003
3.882167e+003;7.412763e-003
3.884096e+003;7.088647e-003
3.886024e+003;6.583146e-003
3.887953e+003;6.522228e-003
3.889881e+003;6.316058e-003
3.891810e+003;6.419585e-003
3.893738e+003;7.133510e-003
3.895667e+003;7.469255e-003
3.897595e+003;7.040185e-003
3.899524e+003;7.012539e-003
3.901453e+003;6.805093e-003
3.903381e+003;6.741519e-003
3.905310e+003;7.659246e-003
3.907238e+003;8.509507e-003
3.909167e+003;8.155536e-003
3.911095e+003;7.583105e-003
3.913024e+003;7.414482e-003
3.914952e+003;7.332352e-003
3.916881e+003;7.049177e-003
3.918810e+003;6.809670e-003
3.920738e+003;6.847065e-003
3.922667e+003;7.121317e-003
3.924595e+003;7.569618e-003
3.926524e+003;8.460785e-003
3.928452e+003;8.458859e-003
3.930381e+003;7.754087e-003
3.932309e+003;7.395237e-003
3.934238e+003;7.705180e-003
3.936167e+003;8.081502e-003
3.938095e+003;7.788325e-003
3.940023e+003;7.898783e-003
3.941952e+003;8.666556e-003
3.943881e+003;8.983633e-003
3.945809e+003;8.626706e-003
3.947738e+003;8.259502e-003
3.949666e+003;7.588331e-003
3.951595e+003;7.757123e-003
3.953523e+003;8.195410e-003
3.955452e+003;8.465177e-003
3.957380e+003;8.403657e-003
3.959309e+003;9.016276e-003
3.961238e+003;1.006503e-002
3.963166e+003;1.008876e-002
3.965095e+003;9.465658e-003
3.967023e+003;8.750833e-003
3.968952e+003;8.531032e-003
3.970880e+003;8.205000e-003
3.972809e+003;8.191190e-003
3.974737e+003;8.649284e-003
3.976666e+003;8.786975e-003
3.978594e+003;9.047670e-003
3.980523e+003;9.385576e-003
3.982452e+003;9.488144e-003
3.984380e+003;1.021138e-002
3.986309e+003;1.029887e-002
3.988237e+003;9.390350e-003
3.990166e+003;8.864004e-003
3.992094e+003;9.019321e-003
3.994023e+003;9.479542e-003
3.995951e+003;9.577797e-003
3.997880e+003;9.255954e-003
3.999809e+003;9.270881e-003
4.001737e+003;0.000000e+000
