3.992094e+002;0.000000e+000
4.011380e+002;0.000000e+000
4.030665e+002;0.000000e+000
4.049951e+002;0.000000e+000
4.069236e+002;0.000000e+000
4.088522e+002;0.000000e+000
4.107807e+002;0.000000e+000
4.127093e+002;0.000000e+000
4.146378e+002;0.000000e+000
4.165664e+002;0.000000e+000
4.184949e+002;0.000000e+000
4.204235e+002;0.000000e+000
4.223520e+002;0.000000e+000
4.242806e+002;0.000000e+000
4.262091e+002;0.000000e+000
4.281377e+002;0.000000e+000
4.300662e+002;0.000000e+000
4.319948e+002;0.000000e+000
4.339233e+002;0.000000e+000
4.358519e+002;0.000000e+000
4.377804e+002;0.000000e+000
4.397090e+002;0.000000e+000
4.416375e+002;0.000000e+000
4.435660e+002;0.000000e+000
4.454946e+002;0.000000e+000
4.474232e+002;0.000000e+000
4.493517e+002;0.000000e+000
4.512802e+002;0.000000e+000
4.532088e+002;0.000000e+000
4.551373e+002;0.000000e+000
4.570659e+002;0.000000e+000
4.589944e+002;0.000000e+000
4.609230e+002;0.000000e+000
4.628515e+002;0.000000e+000
4.647801e+002;0.000000e+000
4.667086e+002;0.000000e+000
4.686372e+002;0.000000e+000
4.705657e+002;0.000000e+000
4.724943e+002;0.000000e+000
4.744228e+002;0.000000e+000
4.763513e+002;0.000000e+000
4.782799e+002;0.000000e+000
4.802085e+002;0.000000e+000
4.821370e+002;0.000000e+000
4.840656e+002;0.000000e+000
4.859941e+002;0.000000e+000
4.879226e+002;0.000000e+000
4.898512e+002;0.000000e+000
4.917798e+002;0.000000e+000
4.937083e+002;0.000000e+000
4.956368e+002;0.000000e+000
4.975654e+002;0.000000e+000
4.994939e+002;0.000000e+000
5.014225e+002;0.000000e+000
5.033510e+002;0.000000e+000
5.052796e+002;0.000000e+000
5.072081e+002;0.000000e+000
5.091367e+002;0.000000e+000
5.110652e+002;0.000000e+000
5.129938e+002;0.000000e+000
5.149223e+002;0.000000e+000
5.168509e+002;0.000000e+000
5.187794e+002;0.000000e+000
5.207079e+002;0.000000e+000
5.226365e+002;0.000000e+000
5.245651e+002;0.000000e+000
5.264936e+002;0.000000e+000
5.284222e+002;0.000000e+000
5.303507e+002;0.000000e+000
5.322792e+002;0.000000e+000
5.342078e+002;0.000000e+000
5.361364e+002;0.000000e+000
5.380649e+002;0.000000e+000
5.399935e+002;0.000000e+000
5.419220e+002;0.000000e+000
5.438505e+002;0.000000e+000
5.457791e+002;0.000000e+000
5.477076e+002;0.000000e+000
5.496362e+002;0.000000e+000
5.515648e+002;0.000000e+000
5.534933e+002;0.000000e+000
5.554218e+002;0.000000e+000
5.573504e+002;0.000000e+000
5.592789e+002;0.000000e+000
5.612075e+002;0.000000e+000
5.631360e+002;0.000000e+000
5.650646e+002;0.000000e+000
5.669931e+002;0.000000e+000
5.689217e+002;0.000000e+000
5.708502e+002;0.000000e+000
5.727787e+002;0.000000e+000
5.747073e+002;0.000000e+000
5.766359e+002;0.000000e+000
5.785644e+002;0.000000e+000
5.804930e+002;0.000000e+000
5.824215e+002;0.000000e+000
5.843500e+002;0.000000e+000
5.862786e+002;0.000000e+000
5.882072e+002;0.000000e+000
5.901357e+002;0.000000e+000
5.920643e+002;0.000000e+000
5.939928e+002;0.000000e+000
5.959213e+002;0.000000e+000
5.978499e+002;0.000000e+000
5.997784e+002;5.610834e-002
6.017070e+002;6.271859e-002
6.036355e+002;6.407904e-002
6.055641e+002;5.540096e-002
6.074926e+002;5.167680e-002
6.094211e+002;5.503151e-002
6.113497e+002;6.186078e-002
6.132783e+002;6.861091e-002
6.152068e+002;6.892283e-002
6.171354e+002;6.714792e-002
6.190639e+002;6.594184e-002
6.209924e+002;6.174106e-002
6.229210e+002;5.466703e-002
6.248495e+002;5.442134e-002
6.267781e+002;6.193567e-002
6.287067e+002;6.549947e-002
6.306352e+002;5.954433e-002
6.325637e+002;5.605372e-002
6.344923e+002;5.831223e-002
6.364208e+002;6.036906e-002
6.383494e+002;6.073687e-002
6.402780e+002;5.977899e-002
6.422065e+002;6.560616e-002
6.441350e+002;6.758071e-002
6.460636e+002;6.403565e-002
6.479921e+002;6.255363e-002
6.499207e+002;6.172597e-002
6.518492e+002;6.018671e-002
6.537778e+002;5.791065e-002
6.557063e+002;5.508703e-002
6.576349e+002;5.524063e-002
6.595634e+002;5.643732e-002
6.614919e+002;5.807628e-002
6.634205e+002;5.878239e-002
6.653491e+002;5.804913e-002
6.672776e+002;5.472584e-002
6.692062e+002;5.210908e-002
6.711347e+002;5.136022e-002
6.730632e+002;5.290254e-002
6.749918e+002;5.349904e-002
6.769203e+002;5.305186e-002
6.788489e+002;5.209840e-002
6.807775e+002;5.087973e-002
6.827060e+002;4.996782e-002
6.846345e+002;4.995696e-002
6.865631e+002;5.011468e-002
6.884916e+002;5.133139e-002
6.904202e+002;5.255746e-002
6.923488e+002;5.207830e-002
6.942773e+002;5.140128e-002
6.962058e+002;5.179479e-002
6.981344e+002;5.198862e-002
7.000629e+002;5.266211e-002
7.019915e+002;5.343324e-002
7.039200e+002;5.422980e-002
7.058486e+002;5.489433e-002
7.077771e+002;5.604203e-002
7.097057e+002;5.605522e-002
7.116342e+002;5.548386e-002
7.135627e+002;5.532041e-002
7.154913e+002;5.541003e-002
7.174199e+002;5.462314e-002
7.193484e+002;5.466354e-002
7.212770e+002;5.539949e-002
7.232055e+002;5.703307e-002
7.251340e+002;5.896221e-002
7.270626e+002;5.990167e-002
7.289911e+002;5.996998e-002
7.309197e+002;6.092135e-002
7.328483e+002;6.304798e-002
7.347768e+002;6.636505e-002
7.367053e+002;7.010152e-002
7.386339e+002;7.429081e-002
7.405624e+002;7.929075e-002
7.424910e+002;8.428736e-002
7.444196e+002;8.909949e-002
7.463481e+002;9.124193e-002
7.482766e+002;9.070101e-002
7.502052e+002;8.945595e-002
7.521337e+002;8.734755e-002
7.540623e+002;8.477725e-002
7.559908e+002;8.169142e-002
7.579194e+002;7.959033e-002
7.598479e+002;7.892565e-002
7.617765e+002;8.023139e-002
7.637050e+002;8.198806e-002
7.656335e+002;8.314000e-002
7.675621e+002;8.357690e-002
7.694907e+002;8.331639e-002
7.714192e+002;8.041178e-002
7.733478e+002;7.558820e-002
7.752763e+002;7.084709e-002
7.772048e+002;6.591542e-002
7.791334e+002;6.058340e-002
7.810620e+002;5.532245e-002
7.829905e+002;4.916541e-002
7.849191e+002;4.249959e-002
7.868476e+002;3.616334e-002
7.887761e+002;3.023616e-002
7.907047e+002;2.623658e-002
7.926332e+002;2.539305e-002
7.945618e+002;2.698520e-002
7.964903e+002;3.003599e-002
7.984189e+002;3.393454e-002
8.003474e+002;3.913722e-002
8.022759e+002;4.658084e-002
8.042045e+002;5.550106e-002
8.061331e+002;6.333652e-002
8.080616e+002;6.882160e-002
8.099902e+002;7.313816e-002
8.119187e+002;7.713167e-002
8.138472e+002;8.052950e-002
8.157758e+002;8.209179e-002
8.177043e+002;8.146141e-002
8.196329e+002;8.117484e-002
8.215615e+002;8.124123e-002
8.234900e+002;8.078592e-002
8.254185e+002;7.917932e-002
8.273471e+002;7.743911e-002
8.292756e+002;7.495300e-002
8.312042e+002;7.164235e-002
8.331328e+002;6.831940e-002
8.350613e+002;6.521218e-002
8.369898e+002;6.291138e-002
8.389184e+002;6.182640e-002
8.408469e+002;6.043623e-002
8.427755e+002;5.953453e-002
8.447040e+002;5.949185e-002
8.466326e+002;5.982526e-002
8.485611e+002;5.993735e-002
8.504897e+002;5.946160e-002
8.524182e+002;5.861380e-002
8.543467e+002;5.712474e-002
8.562753e+002;5.637903e-002
8.582039e+002;5.565836e-002
8.601324e+002;5.526942e-002
8.620610e+002;5.529934e-002
8.639895e+002;5.522773e-002
8.659180e+002;5.390384e-002
8.678466e+002;5.146476e-002
8.697751e+002;4.922367e-002
8.717037e+002;4.723749e-002
8.736323e+002;4.529187e-002
8.755608e+002;4.380690e-002
8.774893e+002;4.245966e-002
8.794179e+002;4.128370e-002
8.813464e+002;4.067666e-002
8.832750e+002;4.023885e-002
8.852036e+002;3.964093e-002
8.871321e+002;3.956256e-002
8.890606e+002;4.032861e-002
8.909892e+002;4.111419e-002
8.929177e+002;4.147362e-002
8.948463e+002;4.197267e-002
8.967748e+002;4.288691e-002
8.987034e+002;4.346823e-002
9.006319e+002;4.405777e-002
9.025605e+002;4.540865e-002
9.044890e+002;4.723498e-002
9.064175e+002;4.959000e-002
9.083461e+002;5.207449e-002
9.102747e+002;5.435246e-002
9.122032e+002;5.656721e-002
9.141318e+002;5.773808e-002
9.160603e+002;5.820466e-002
9.179888e+002;5.827877e-002
9.199174e+002;5.767379e-002
9.218459e+002;5.727964e-002
9.237745e+002;5.776631e-002
9.257031e+002;5.862343e-002
9.276316e+002;5.920844e-002
9.295601e+002;5.965037e-002
9.314887e+002;6.071538e-002
9.334172e+002;6.241933e-002
9.353458e+002;6.469860e-002
9.372744e+002;6.736138e-002
9.392029e+002;7.052565e-002
9.411314e+002;7.414041e-002
9.430600e+002;7.747020e-002
9.449885e+002;8.039053e-002
9.469171e+002;8.348835e-002
9.488456e+002;8.759180e-002
9.507742e+002;9.150672e-002
9.527027e+002;9.549749e-002
9.546313e+002;9.973454e-002
9.565598e+002;1.029796e-001
9.584883e+002;1.050550e-001
9.604169e+002;1.059391e-001
9.623455e+002;1.060276e-001
9.642740e+002;1.051493e-001
9.662026e+002;1.044742e-001
9.681311e+002;1.044345e-001
9.700596e+002;1.050564e-001
9.719882e+002;1.063307e-001
9.739167e+002;1.081714e-001
9.758453e+002;1.114508e-001
9.777739e+002;1.158228e-001
9.797024e+002;1.208045e-001
9.816309e+002;1.259039e-001
9.835595e+002;1.309020e-001
9.854880e+002;1.353062e-001
9.874166e+002;1.390592e-001
9.893452e+002;1.433162e-001
9.912737e+002;1.470630e-001
9.932022e+002;1.489730e-001
9.951307e+002;1.492079e-001
9.970593e+002;1.464615e-001
9.989879e+002;1.400881e-001
1.000916e+003;1.321489e-001
1.002845e+003;1.243403e-001
1.004773e+003;1.179732e-001
1.006702e+003;1.126163e-001
1.008631e+003;1.077197e-001
1.010559e+003;1.035046e-001
1.012488e+003;9.961874e-002
1.014416e+003;9.631095e-002
1.016345e+003;9.468984e-002
1.018273e+003;9.312505e-002
1.020202e+003;9.048737e-002
1.022130e+003;8.761804e-002
1.024059e+003;8.502937e-002
1.025988e+003;8.409542e-002
1.027916e+003;8.483211e-002
1.029845e+003;8.623876e-002
1.031773e+003;8.839680e-002
1.033702e+003;9.033681e-002
1.035630e+003;9.204266e-002
1.037559e+003;9.443332e-002
1.039487e+003;9.752318e-002
1.041416e+003;1.012978e-001
1.043344e+003;1.055395e-001
1.045273e+003;1.102486e-001
1.047202e+003;1.152973e-001
1.049130e+003;1.200643e-001
1.051059e+003;1.249102e-001
1.052987e+003;1.301902e-001
1.054916e+003;1.366908e-001
1.056844e+003;1.443365e-001
1.058773e+003;1.504714e-001
1.060701e+003;1.554857e-001
1.062630e+003;1.606077e-001
1.064558e+003;1.654815e-001
1.066487e+003;1.701895e-001
1.068416e+003;1.738280e-001
1.070344e+003;1.769211e-001
1.072273e+003;1.813405e-001
1.074201e+003;1.873513e-001
1.076130e+003;1.944708e-001
1.078058e+003;2.014265e-001
1.079987e+003;2.090210e-001
1.081915e+003;2.176353e-001
1.083844e+003;2.263364e-001
1.085773e+003;2.342937e-001
1.087701e+003;2.424978e-001
1.089630e+003;2.515958e-001
1.091558e+003;2.612276e-001
1.093487e+003;2.688180e-001
1.095415e+003;2.760127e-001
1.097344e+003;2.827417e-001
1.099272e+003;2.871262e-001
1.101201e+003;2.884397e-001
1.103129e+003;2.858372e-001
1.105058e+003;2.801999e-001
1.106987e+003;2.720550e-001
1.108915e+003;2.613806e-001
1.110844e+003;2.485598e-001
1.112772e+003;2.338411e-001
1.114701e+003;2.182884e-001
1.116629e+003;2.024335e-001
1.118558e+003;1.859770e-001
1.120486e+003;1.712089e-001
1.122415e+003;1.584525e-001
1.124344e+003;1.465880e-001
1.126272e+003;1.360469e-001
1.128201e+003;1.263904e-001
1.130129e+003;1.175473e-001
1.132058e+003;1.096018e-001
1.133986e+003;1.024801e-001
1.135915e+003;9.648453e-002
1.137843e+003;9.130355e-002
1.139772e+003;8.689090e-002
1.141700e+003;8.305129e-002
1.143629e+003;7.931230e-002
1.145557e+003;7.574853e-002
1.147486e+003;7.270532e-002
1.149415e+003;6.986694e-002
1.151343e+003;6.692985e-002
1.153272e+003;6.441177e-002
1.155200e+003;6.234669e-002
1.157129e+003;6.056352e-002
1.159057e+003;5.912240e-002
1.160986e+003;5.801713e-002
1.162914e+003;5.673675e-002
1.164843e+003;5.517592e-002
1.166771e+003;5.444320e-002
1.168700e+003;5.484685e-002
1.170629e+003;5.608606e-002
1.172557e+003;5.852708e-002
1.174486e+003;6.174442e-002
1.176414e+003;6.556948e-002
1.178343e+003;6.985624e-002
1.180271e+003;7.357440e-002
1.182200e+003;7.600055e-002
1.184128e+003;7.847609e-002
1.186057e+003;8.164539e-002
1.187986e+003;8.591207e-002
1.189914e+003;9.154092e-002
1.191843e+003;9.842510e-002
1.193771e+003;1.060991e-001
1.195700e+003;1.142925e-001
1.197628e+003;1.224108e-001
1.199557e+003;1.310436e-001
1.201485e+003;1.402019e-001
1.203414e+003;1.483939e-001
1.205343e+003;1.548668e-001
1.207271e+003;1.591019e-001
1.209200e+003;1.606176e-001
1.211128e+003;1.599417e-001
1.213057e+003;1.580447e-001
1.214985e+003;1.566253e-001
1.216914e+003;1.561032e-001
1.218842e+003;1.562336e-001
1.220771e+003;1.560470e-001
1.222699e+003;1.536991e-001
1.224628e+003;1.493753e-001
1.226557e+003;1.443215e-001
1.228485e+003;1.391632e-001
1.230414e+003;1.349070e-001
1.232342e+003;1.315705e-001
1.234271e+003;1.289716e-001
1.236199e+003;1.266471e-001
1.238128e+003;1.241766e-001
1.240056e+003;1.216645e-001
1.241985e+003;1.202671e-001
1.243913e+003;1.195952e-001
1.245842e+003;1.193519e-001
1.247771e+003;1.199623e-001
1.249699e+003;1.195817e-001
1.251628e+003;1.152545e-001
1.253556e+003;1.065857e-001
1.255485e+003;9.618349e-002
1.257413e+003;8.716814e-002
1.259342e+003;8.118331e-002
1.261270e+003;7.919849e-002
1.263199e+003;8.074426e-002
1.265127e+003;8.276804e-002
1.267056e+003;8.305205e-002
1.268985e+003;8.135850e-002
1.270913e+003;7.857324e-002
1.272842e+003;7.586061e-002
1.274770e+003;7.384092e-002
1.276699e+003;7.237041e-002
1.278627e+003;7.111502e-002
1.280556e+003;7.035971e-002
1.282484e+003;6.979546e-002
1.284413e+003;6.948560e-002
1.286342e+003;6.950209e-002
1.288270e+003;6.993198e-002
1.290199e+003;7.125523e-002
1.292127e+003;7.310757e-002
1.294056e+003;7.544725e-002
1.295984e+003;7.875362e-002
1.297913e+003;8.314385e-002
1.299841e+003;8.822893e-002
1.301770e+003;9.318795e-002
1.303698e+003;9.774692e-002
1.305627e+003;1.014486e-001
1.307556e+003;1.033766e-001
1.309484e+003;1.036827e-001
1.311413e+003;1.025150e-001
1.313341e+003;1.001323e-001
1.315270e+003;9.722108e-002
1.317198e+003;9.386525e-002
1.319127e+003;8.953685e-002
1.321055e+003;8.387876e-002
1.322984e+003;7.767960e-002
1.324912e+003;7.210322e-002
1.326841e+003;6.774144e-002
1.328770e+003;6.448191e-002
1.330698e+003;6.217579e-002
1.332627e+003;6.082841e-002
1.334555e+003;6.037599e-002
1.336484e+003;5.990642e-002
1.338412e+003;5.950280e-002
1.340341e+003;5.924846e-002
1.342269e+003;5.895648e-002
1.344198e+003;5.858426e-002
1.346126e+003;5.893105e-002
1.348055e+003;6.031564e-002
1.349984e+003;6.319205e-002
1.351912e+003;6.721688e-002
1.353841e+003;7.161421e-002
1.355769e+003;7.640444e-002
1.357698e+003;8.156135e-002
1.359626e+003;8.722064e-002
1.361555e+003;9.407552e-002
1.363483e+003;1.027896e-001
1.365412e+003;1.120639e-001
1.367341e+003;1.196673e-001
1.369269e+003;1.233253e-001
1.371198e+003;1.208069e-001
1.373126e+003;1.131103e-001
1.375055e+003;1.039126e-001
1.376983e+003;9.556697e-002
1.378912e+003;8.798984e-002
1.380840e+003;8.100726e-002
1.382769e+003;7.434759e-002
1.384698e+003;6.837788e-002
1.386626e+003;6.344299e-002
1.388555e+003;6.044872e-002
1.390483e+003;5.851571e-002
1.392412e+003;5.660605e-002
1.394340e+003;5.519270e-002
1.396269e+003;5.538816e-002
1.398197e+003;5.681926e-002
1.400126e+003;5.989847e-002
1.402054e+003;6.462504e-002
1.403983e+003;7.063662e-002
1.405911e+003;7.835615e-002
1.407840e+003;8.674684e-002
1.409769e+003;9.384013e-002
1.411697e+003;9.767438e-002
1.413626e+003;9.655757e-002
1.415554e+003;9.082144e-002
1.417483e+003;8.161448e-002
1.419411e+003;7.260196e-002
1.421340e+003;6.726322e-002
1.423268e+003;6.474610e-002
1.425197e+003;6.469610e-002
1.427125e+003;6.677928e-002
1.429054e+003;6.989601e-002
1.430983e+003;7.295198e-002
1.432911e+003;7.509300e-002
1.434840e+003;7.482906e-002
1.436768e+003;7.341088e-002
1.438697e+003;7.429168e-002
1.440625e+003;7.635242e-002
1.442554e+003;7.936198e-002
1.444482e+003;8.296861e-002
1.446411e+003;8.515097e-002
1.448340e+003;8.562884e-002
1.450268e+003;8.564281e-002
1.452197e+003;8.559611e-002
1.454125e+003;8.523612e-002
1.456054e+003;8.394851e-002
1.457982e+003;8.504892e-002
1.459911e+003;8.722999e-002
1.461839e+003;8.743844e-002
1.463768e+003;8.652045e-002
1.465697e+003;8.670185e-002
1.467625e+003;8.798878e-002
1.469554e+003;8.873174e-002
1.471482e+003;8.921186e-002
1.473411e+003;9.100943e-002
1.475339e+003;9.306748e-002
1.477268e+003;9.425920e-002
1.479196e+003;9.604277e-002
1.481125e+003;9.890258e-002
1.483053e+003;1.024970e-001
1.484982e+003;1.047354e-001
1.486911e+003;1.039590e-001
1.488839e+003;1.002898e-001
1.490768e+003;9.555797e-002
1.492696e+003;9.092388e-002
1.494625e+003;8.578929e-002
1.496553e+003;8.275922e-002
1.498482e+003;8.391908e-002
1.500410e+003;8.710720e-002
1.502339e+003;9.096812e-002
1.504267e+003;9.426150e-002
1.506196e+003;9.866469e-002
1.508125e+003;1.076313e-001
1.510053e+003;1.175107e-001
1.511982e+003;1.247418e-001
1.513910e+003;1.293188e-001
1.515839e+003;1.311156e-001
1.517767e+003;1.311517e-001
1.519696e+003;1.298956e-001
1.521624e+003;1.293044e-001
1.523553e+003;1.303394e-001
1.525481e+003;1.303320e-001
1.527410e+003;1.304978e-001
1.529339e+003;1.310231e-001
1.531267e+003;1.303539e-001
1.533196e+003;1.290009e-001
1.535124e+003;1.287800e-001
1.537053e+003;1.261560e-001
1.538981e+003;1.208109e-001
1.540910e+003;1.175630e-001
1.542838e+003;1.151437e-001
1.544767e+003;1.113120e-001
1.546695e+003;1.070307e-001
1.548624e+003;1.020567e-001
1.550553e+003;9.674706e-002
1.552481e+003;9.131929e-002
1.554410e+003;8.586568e-002
1.556338e+003;8.023769e-002
1.558267e+003;7.373006e-002
1.560195e+003;7.129432e-002
1.562124e+003;7.175010e-002
1.564052e+003;7.018855e-002
1.565981e+003;6.774999e-002
1.567910e+003;6.518935e-002
1.569838e+003;6.320003e-002
1.571767e+003;6.282894e-002
1.573695e+003;6.160514e-002
1.575624e+003;5.947551e-002
1.577552e+003;5.995622e-002
1.579481e+003;6.122492e-002
1.581409e+003;6.225464e-002
1.583338e+003;6.469887e-002
1.585266e+003;6.817551e-002
1.587195e+003;7.274567e-002
1.589124e+003;7.761530e-002
1.591052e+003;8.195056e-002
1.592981e+003;8.561004e-002
1.594909e+003;8.819077e-002
1.596838e+003;8.919986e-002
1.598766e+003;8.889268e-002
1.600695e+003;8.745456e-002
1.602623e+003;8.492267e-002
1.604552e+003;8.199314e-002
1.606480e+003;7.918151e-002
1.608409e+003;7.683039e-002
1.610338e+003;7.519286e-002
1.612266e+003;7.353975e-002
1.614195e+003;7.041325e-002
1.616123e+003;6.610763e-002
1.618052e+003;6.365782e-002
1.619980e+003;6.161625e-002
1.621909e+003;5.826889e-002
1.623837e+003;5.627635e-002
1.625766e+003;5.654453e-002
1.627694e+003;5.754712e-002
1.629623e+003;5.972162e-002
1.631552e+003;6.307243e-002
1.633480e+003;6.517280e-002
1.635409e+003;6.680301e-002
1.637337e+003;7.070076e-002
1.639266e+003;7.422335e-002
1.641194e+003;7.611140e-002
1.643123e+003;7.655662e-002
1.645051e+003;7.542907e-002
1.646980e+003;7.545659e-002
1.648909e+003;7.665978e-002
1.650837e+003;7.495292e-002
1.652766e+003;7.221015e-002
1.654694e+003;7.497198e-002
1.656623e+003;7.781909e-002
1.658551e+003;7.767009e-002
1.660480e+003;7.677546e-002
1.662408e+003;7.596653e-002
1.664337e+003;7.614911e-002
1.666266e+003;7.603639e-002
1.668194e+003;7.477935e-002
1.670123e+003;7.458027e-002
1.672051e+003;7.510911e-002
1.673980e+003;7.473566e-002
1.675908e+003;7.523159e-002
1.677837e+003;7.666915e-002
1.679765e+003;7.731280e-002
1.681694e+003;7.715352e-002
1.683622e+003;7.580517e-002
1.685551e+003;7.788498e-002
1.687479e+003;8.161440e-002
1.689408e+003;8.319822e-002
1.691337e+003;8.445306e-002
1.693265e+003;8.460695e-002
1.695194e+003;8.335769e-002
1.697122e+003;8.440014e-002
1.699051e+003;8.466075e-002
1.700979e+003;8.529411e-002
1.702908e+003;8.735646e-002
1.704836e+003;8.675084e-002
1.706765e+003;8.534718e-002
1.708693e+003;8.382407e-002
1.710622e+003;8.217975e-002
1.712551e+003;7.998794e-002
1.714479e+003;7.749614e-002
1.716408e+003;7.543806e-002
1.718336e+003;7.672513e-002
1.720265e+003;8.140729e-002
1.722193e+003;8.666949e-002
1.724122e+003;9.218828e-002
1.726050e+003;9.762630e-002
1.727979e+003;1.009753e-001
1.729908e+003;1.008580e-001
1.731836e+003;9.632191e-002
1.733765e+003;8.854896e-002
1.735693e+003;8.194528e-002
1.737622e+003;7.385042e-002
1.739550e+003;6.367052e-002
1.741479e+003;5.507905e-002
1.743407e+003;4.728552e-002
1.745336e+003;4.016026e-002
1.747265e+003;3.414238e-002
1.749193e+003;2.901896e-002
1.751122e+003;2.518429e-002
1.753050e+003;2.348852e-002
1.754979e+003;2.222617e-002
1.756907e+003;2.098028e-002
1.758836e+003;2.020912e-002
1.760764e+003;1.918908e-002
1.762693e+003;1.851462e-002
1.764621e+003;1.853955e-002
1.766550e+003;1.773066e-002
1.768479e+003;1.667108e-002
1.770407e+003;1.540632e-002
1.772336e+003;1.433940e-002
1.774264e+003;1.496649e-002
1.776193e+003;1.530942e-002
1.778121e+003;1.509601e-002
1.780050e+003;1.518155e-002
1.781978e+003;1.545854e-002
1.783907e+003;1.521497e-002
1.785835e+003;1.477218e-002
1.787764e+003;1.471371e-002
1.789693e+003;1.430064e-002
1.791621e+003;1.363115e-002
1.793550e+003;1.378493e-002
1.795478e+003;1.430913e-002
1.797407e+003;1.415277e-002
1.799335e+003;1.370067e-002
1.801264e+003;1.341307e-002
1.803192e+003;1.364066e-002
1.805121e+003;1.347780e-002
1.807049e+003;1.326649e-002
1.808978e+003;1.323404e-002
1.810907e+003;1.299820e-002
1.812835e+003;1.251875e-002
1.814764e+003;1.248012e-002
1.816692e+003;1.243419e-002
1.818621e+003;1.215475e-002
1.820549e+003;1.204249e-002
1.822478e+003;1.190622e-002
1.824406e+003;1.137698e-002
1.826335e+003;1.137610e-002
1.828264e+003;1.120165e-002
1.830192e+003;1.089783e-002
1.832121e+003;1.123527e-002
1.834049e+003;1.126611e-002
1.835978e+003;1.099362e-002
1.837906e+003;1.084031e-002
1.839835e+003;1.067181e-002
1.841763e+003;1.001393e-002
1.843692e+003;9.190023e-003
1.845620e+003;9.659641e-003
1.847549e+003;1.029619e-002
1.849478e+003;1.025107e-002
1.851406e+003;1.025229e-002
1.853335e+003;1.023706e-002
1.855263e+003;1.012858e-002
1.857192e+003;1.010145e-002
1.859120e+003;1.010548e-002
1.861049e+003;1.006906e-002
1.862977e+003;1.012834e-002
1.864906e+003;9.964966e-003
1.866834e+003;9.480050e-003
1.868763e+003;9.339803e-003
1.870692e+003;9.570785e-003
1.872620e+003;9.824902e-003
1.874549e+003;9.843577e-003
1.876477e+003;9.786537e-003
1.878406e+003;9.872116e-003
1.880334e+003;9.930590e-003
1.882263e+003;1.008402e-002
1.884191e+003;1.006235e-002
1.886120e+003;9.895132e-003
1.888048e+003;9.954423e-003
1.889977e+003;1.036144e-002
1.891906e+003;1.082516e-002
1.893834e+003;1.082407e-002
1.895763e+003;1.066852e-002
1.897691e+003;1.074092e-002
1.899620e+003;1.089511e-002
1.901548e+003;1.081769e-002
1.903477e+003;1.093401e-002
1.905405e+003;1.096582e-002
1.907334e+003;1.064879e-002
1.909262e+003;1.045138e-002
1.911191e+003;1.039287e-002
1.913120e+003;1.025802e-002
1.915048e+003;9.920285e-003
1.916977e+003;9.352058e-003
1.918905e+003;9.382800e-003
1.920834e+003;9.538337e-003
1.922762e+003;9.096662e-003
1.924691e+003;8.910167e-003
1.926619e+003;8.781329e-003
1.928548e+003;8.755667e-003
1.930477e+003;8.946424e-003
1.932405e+003;8.796645e-003
1.934334e+003;8.614944e-003
1.936262e+003;8.394773e-003
1.938191e+003;8.183626e-003
1.940119e+003;8.279764e-003
1.942048e+003;8.214421e-003
1.943976e+003;7.946970e-003
1.945905e+003;7.967150e-003
1.947833e+003;8.132916e-003
1.949762e+003;8.197639e-003
1.951691e+003;8.010181e-003
1.953619e+003;7.830326e-003
1.955548e+003;7.770953e-003
1.957476e+003;7.837815e-003
1.959405e+003;7.888627e-003
1.961333e+003;7.845777e-003
1.963262e+003;7.622759e-003
1.965190e+003;7.473031e-003
1.967119e+003;7.587084e-003
1.969047e+003;7.712971e-003
1.970976e+003;7.757899e-003
1.972905e+003;7.594333e-003
1.974833e+003;7.482941e-003
1.976762e+003;7.693308e-003
1.978690e+003;7.837512e-003
1.980619e+003;7.668925e-003
1.982547e+003;7.434334e-003
1.984476e+003;7.529092e-003
1.986404e+003;7.565336e-003
1.988333e+003;7.435379e-003
1.990261e+003;7.283222e-003
1.992190e+003;7.413134e-003
1.994119e+003;7.603909e-003
1.996047e+003;7.602324e-003
1.997976e+003;7.668655e-003
1.999904e+003;8.010012e-003
2.001833e+003;8.093789e-003
2.003761e+003;8.118163e-003
2.005690e+003;8.103849e-003
2.007618e+003;8.185855e-003
2.009547e+003;8.391327e-003
2.011476e+003;8.621704e-003
2.013404e+003;8.743327e-003
2.015333e+003;8.731089e-003
2.017261e+003;8.802732e-003
2.019190e+003;8.900968e-003
2.021118e+003;9.073350e-003
2.023047e+003;9.276873e-003
2.024975e+003;9.363840e-003
2.026904e+003;9.435452e-003
2.028833e+003;9.483810e-003
2.030761e+003;9.628371e-003
2.032690e+003;9.977782e-003
2.034618e+003;1.014398e-002
2.036547e+003;9.991650e-003
2.038475e+003;9.882522e-003
2.040404e+003;9.945913e-003
2.042332e+003;1.016511e-002
2.044261e+003;1.026189e-002
2.046189e+003;1.025846e-002
2.048118e+003;1.043122e-002
2.050047e+003;1.058149e-002
2.051975e+003;1.067891e-002
2.053904e+003;1.094360e-002
2.055832e+003;1.097846e-002
2.057761e+003;1.081195e-002
2.059689e+003;1.083861e-002
2.061618e+003;1.111023e-002
2.063546e+003;1.127125e-002
2.065475e+003;1.130437e-002
2.067404e+003;1.137283e-002
2.069332e+003;1.151711e-002
2.071260e+003;1.172076e-002
2.073189e+003;1.189290e-002
2.075118e+003;1.189174e-002
2.077046e+003;1.178568e-002
2.078975e+003;1.172593e-002
2.080903e+003;1.161712e-002
2.082832e+003;1.168563e-002
2.084760e+003;1.165296e-002
2.086689e+003;1.136899e-002
2.088617e+003;1.112689e-002
2.090546e+003;1.106557e-002
2.092475e+003;1.086864e-002
2.094403e+003;1.052619e-002
2.096332e+003;1.053742e-002
2.098260e+003;1.057310e-002
2.100189e+003;1.043956e-002
2.102117e+003;1.040529e-002
2.104046e+003;1.026901e-002
2.105974e+003;1.003047e-002
2.107903e+003;9.731030e-003
2.109832e+003;9.259948e-003
2.111760e+003;8.955726e-003
2.113688e+003;8.824778e-003
2.115617e+003;8.689880e-003
2.117546e+003;8.584391e-003
2.119474e+003;8.278177e-003
2.121403e+003;8.038769e-003
2.123331e+003;8.149054e-003
2.125260e+003;8.105875e-003
2.127188e+003;7.828639e-003
2.129117e+003;7.558829e-003
2.131045e+003;7.436289e-003
2.132974e+003;7.257312e-003
2.134903e+003;7.238782e-003
2.136831e+003;7.274664e-003
2.138760e+003;7.074805e-003
2.140688e+003;6.891399e-003
2.142617e+003;6.935366e-003
2.144545e+003;6.876250e-003
2.146474e+003;6.831918e-003
2.148402e+003;6.805463e-003
2.150331e+003;6.730178e-003
2.152260e+003;6.877799e-003
2.154188e+003;6.998800e-003
2.156117e+003;6.792303e-003
2.158045e+003;6.837809e-003
2.159974e+003;6.991931e-003
2.161902e+003;7.116972e-003
2.163831e+003;7.223520e-003
2.165759e+003;7.337676e-003
2.167688e+003;7.200106e-003
2.169616e+003;6.929710e-003
2.171545e+003;6.915301e-003
2.173474e+003;7.041431e-003
2.175402e+003;7.185621e-003
2.177331e+003;7.361333e-003
2.179259e+003;7.420717e-003
2.181188e+003;7.455334e-003
2.183116e+003;7.377678e-003
2.185045e+003;7.394833e-003
2.186973e+003;7.580070e-003
2.188902e+003;7.591096e-003
2.190831e+003;7.613115e-003
2.192759e+003;7.700189e-003
2.194688e+003;7.641137e-003
2.196616e+003;7.715062e-003
2.198545e+003;7.914676e-003
2.200473e+003;7.727845e-003
2.202402e+003;7.400090e-003
2.204330e+003;7.497437e-003
2.206259e+003;7.627581e-003
2.208188e+003;7.802190e-003
2.210116e+003;7.782523e-003
2.212044e+003;7.991921e-003
2.213973e+003;8.094532e-003
2.215902e+003;7.887885e-003
2.217830e+003;7.644239e-003
2.219759e+003;7.687035e-003
2.221687e+003;7.992226e-003
2.223616e+003;7.926553e-003
2.225544e+003;7.976633e-003
2.227473e+003;8.272065e-003
2.229401e+003;8.293341e-003
2.231330e+003;7.919670e-003
2.233259e+003;7.737728e-003
2.235187e+003;7.753480e-003
2.237116e+003;7.620162e-003
2.239044e+003;7.595682e-003
2.240973e+003;7.801718e-003
2.242901e+003;7.836230e-003
2.244830e+003;7.529598e-003
2.246758e+003;7.487391e-003
2.248687e+003;7.486851e-003
2.250615e+003;7.455267e-003
2.252544e+003;7.571001e-003
2.254473e+003;7.340844e-003
2.256401e+003;7.103871e-003
2.258330e+003;7.311830e-003
2.260258e+003;7.421189e-003
2.262187e+003;7.271531e-003
2.264115e+003;7.174639e-003
2.266044e+003;7.160558e-003
2.267972e+003;7.257177e-003
2.269901e+003;7.420987e-003
2.271830e+003;7.263377e-003
2.273758e+003;7.121587e-003
2.275687e+003;7.096663e-003
2.277615e+003;7.019711e-003
2.279544e+003;6.922910e-003
2.281472e+003;6.701306e-003
2.283401e+003;6.704402e-003
2.285329e+003;6.991965e-003
2.287258e+003;7.069956e-003
2.289187e+003;7.054497e-003
2.291115e+003;7.131085e-003
2.293043e+003;7.237805e-003
2.294972e+003;7.210078e-003
2.296901e+003;7.037996e-003
2.298829e+003;6.835958e-003
2.300758e+003;6.873254e-003
2.302686e+003;6.832019e-003
2.304615e+003;6.668970e-003
2.306543e+003;6.527172e-003
2.308472e+003;6.355092e-003
2.310400e+003;6.145204e-003
2.312329e+003;5.918757e-003
2.314258e+003;5.424210e-003
2.316186e+003;4.967225e-003
2.318115e+003;5.019210e-003
2.320043e+003;5.086455e-003
2.321972e+003;4.750805e-003
2.323900e+003;4.066802e-003
2.325829e+003;3.508516e-003
2.327757e+003;3.218476e-003
2.329686e+003;2.845509e-003
2.331615e+003;2.492223e-003
2.333543e+003;2.402256e-003
2.335472e+003;2.286958e-003
2.337400e+003;2.054357e-003
2.339329e+003;2.148948e-003
2.341257e+003;2.652745e-003
2.343186e+003;3.257333e-003
2.345114e+003;4.035297e-003
2.347043e+003;5.123769e-003
2.348971e+003;5.733555e-003
2.350900e+003;4.815528e-003
2.352829e+003;3.328345e-003
2.354757e+003;2.334526e-003
2.356686e+003;1.510055e-003
2.358614e+003;7.276695e-004
2.360543e+003;6.558531e-004
2.362471e+003;8.218718e-004
2.364400e+003;8.705079e-004
2.366328e+003;1.166492e-003
2.368257e+003;1.875787e-003
2.370186e+003;2.852113e-003
2.372114e+003;3.856579e-003
2.374042e+003;4.476137e-003
2.375971e+003;5.255920e-003
2.377900e+003;6.168158e-003
2.379828e+003;6.312965e-003
2.381757e+003;6.292492e-003
2.383685e+003;6.540761e-003
2.385614e+003;6.624323e-003
2.387542e+003;6.657059e-003
2.389471e+003;6.602119e-003
2.391399e+003;6.522665e-003
2.393328e+003;6.803612e-003
2.395257e+003;6.981931e-003
2.397185e+003;6.825624e-003
2.399114e+003;6.379671e-003
2.401042e+003;6.028741e-003
2.402971e+003;6.270002e-003
2.404899e+003;6.256489e-003
2.406828e+003;5.971024e-003
2.408756e+003;6.139793e-003
2.410685e+003;6.375838e-003
2.412614e+003;6.246841e-003
2.414542e+003;6.112876e-003
2.416471e+003;6.125881e-003
2.418399e+003;6.126217e-003
2.420328e+003;6.150346e-003
2.422256e+003;6.092882e-003
2.424185e+003;6.045708e-003
2.426113e+003;5.975358e-003
2.428042e+003;5.744736e-003
2.429970e+003;5.812361e-003
2.431899e+003;5.991147e-003
2.433828e+003;5.878319e-003
2.435756e+003;5.898739e-003
2.437685e+003;6.093151e-003
2.439613e+003;6.301064e-003
2.441542e+003;6.538272e-003
2.443470e+003;6.664058e-003
2.445399e+003;6.621867e-003
2.447327e+003;6.534404e-003
2.449256e+003;6.592969e-003
2.451185e+003;6.584289e-003
2.453113e+003;6.253093e-003
2.455042e+003;6.086397e-003
2.456970e+003;6.150682e-003
2.458899e+003;6.292021e-003
2.460827e+003;6.545874e-003
2.462756e+003;6.533092e-003
2.464684e+003;6.466867e-003
2.466613e+003;6.442452e-003
2.468542e+003;6.315554e-003
2.470470e+003;6.309435e-003
2.472398e+003;6.530065e-003
2.474327e+003;6.622069e-003
2.476256e+003;6.480993e-003
2.478184e+003;6.580757e-003
2.480113e+003;6.782543e-003
2.482041e+003;6.642020e-003
2.483970e+003;6.618772e-003
2.485898e+003;6.892510e-003
2.487827e+003;7.123742e-003
2.489755e+003;7.220353e-003
2.491684e+003;7.117949e-003
2.493613e+003;7.351290e-003
2.495541e+003;7.382329e-003
2.497470e+003;6.884060e-003
2.499398e+003;6.891903e-003
2.501327e+003;7.255425e-003
2.503255e+003;7.164298e-003
2.505184e+003;7.248519e-003
2.507112e+003;7.361164e-003
2.509041e+003;7.205058e-003
2.510969e+003;7.457289e-003
2.512898e+003;7.777362e-003
2.514827e+003;7.717356e-003
2.516755e+003;7.702482e-003
2.518684e+003;7.801752e-003
2.520612e+003;7.718165e-003
2.522541e+003;7.939343e-003
2.524469e+003;8.352717e-003
2.526398e+003;8.413792e-003
2.528326e+003;8.352785e-003
2.530255e+003;8.471867e-003
2.532184e+003;8.726627e-003
2.534112e+003;8.966685e-003
2.536041e+003;8.942805e-003
2.537969e+003;8.892546e-003
2.539898e+003;8.966246e-003
2.541826e+003;9.021553e-003
2.543755e+003;9.009341e-003
2.545683e+003;9.092466e-003
2.547612e+003;9.366684e-003
2.549541e+003;9.835137e-003
2.551469e+003;9.996329e-003
2.553397e+003;9.967407e-003
2.555326e+003;1.025877e-002
2.557255e+003;1.045966e-002
2.559183e+003;1.052106e-002
2.561112e+003;1.085094e-002
2.563040e+003;1.109385e-002
2.564969e+003;1.136528e-002
2.566897e+003;1.198758e-002
2.568826e+003;1.213935e-002
2.570754e+003;1.200001e-002
2.572683e+003;1.233579e-002
2.574612e+003;1.263612e-002
2.576540e+003;1.251694e-002
2.578469e+003;1.240763e-002
2.580397e+003;1.249014e-002
2.582326e+003;1.271605e-002
2.584254e+003;1.312508e-002
2.586183e+003;1.348672e-002
2.588111e+003;1.347172e-002
2.590040e+003;1.345818e-002
2.591969e+003;1.353680e-002
2.593897e+003;1.359361e-002
2.595826e+003;1.378110e-002
2.597754e+003;1.401826e-002
2.599683e+003;1.435060e-002
2.601611e+003;1.479937e-002
2.603540e+003;1.517294e-002
2.605468e+003;1.552371e-002
2.607397e+003;1.587288e-002
2.609325e+003;1.599944e-002
2.611254e+003;1.608845e-002
2.613183e+003;1.606511e-002
2.615111e+003;1.613415e-002
2.617040e+003;1.625969e-002
2.618968e+003;1.614557e-002
2.620897e+003;1.605988e-002
2.622825e+003;1.591921e-002
2.624754e+003;1.582474e-002
2.626682e+003;1.591918e-002
2.628611e+003;1.590079e-002
2.630540e+003;1.560098e-002
2.632468e+003;1.564292e-002
2.634396e+003;1.590553e-002
2.636325e+003;1.596751e-002
2.638254e+003;1.586694e-002
2.640182e+003;1.588123e-002
2.642111e+003;1.611858e-002
2.644039e+003;1.652949e-002
2.645968e+003;1.667259e-002
2.647896e+003;1.657183e-002
2.649825e+003;1.670041e-002
2.651753e+003;1.701435e-002
2.653682e+003;1.753453e-002
2.655611e+003;1.810396e-002
2.657539e+003;1.848543e-002
2.659468e+003;1.902642e-002
2.661396e+003;1.958021e-002
2.663325e+003;1.967419e-002
2.665253e+003;1.981188e-002
2.667182e+003;2.021200e-002
2.669110e+003;2.072334e-002
2.671039e+003;2.096241e-002
2.672968e+003;2.132680e-002
2.674896e+003;2.177535e-002
2.676825e+003;2.240204e-002
2.678753e+003;2.309519e-002
2.680682e+003;2.389922e-002
2.682610e+003;2.489429e-002
2.684539e+003;2.558655e-002
2.686467e+003;2.624302e-002
2.688396e+003;2.719896e-002
2.690324e+003;2.804191e-002
2.692253e+003;2.881964e-002
2.694182e+003;2.952216e-002
2.696110e+003;2.989367e-002
2.698039e+003;3.033204e-002
2.699967e+003;3.068693e-002
2.701896e+003;3.079014e-002
2.703824e+003;3.077175e-002
2.705753e+003;3.091753e-002
2.707681e+003;3.120916e-002
2.709610e+003;3.141884e-002
2.711539e+003;3.188328e-002
2.713467e+003;3.241331e-002
2.715396e+003;3.276054e-002
2.717324e+003;3.353901e-002
2.719253e+003;3.420192e-002
2.721181e+003;3.446987e-002
2.723110e+003;3.492930e-002
2.725038e+003;3.603253e-002
2.726967e+003;3.725022e-002
2.728896e+003;3.841073e-002
2.730824e+003;3.948682e-002
2.732752e+003;4.043286e-002
2.734681e+003;4.158796e-002
2.736610e+003;4.244446e-002
2.738538e+003;4.311028e-002
2.740467e+003;4.355873e-002
2.742395e+003;4.345219e-002
2.744324e+003;4.337588e-002
2.746252e+003;4.348467e-002
2.748181e+003;4.310502e-002
2.750109e+003;4.279081e-002
2.752038e+003;4.270270e-002
2.753967e+003;4.291687e-002
2.755895e+003;4.291961e-002
2.757824e+003;4.279728e-002
2.759752e+003;4.272376e-002
2.761681e+003;4.283433e-002
2.763609e+003;4.323318e-002
2.765538e+003;4.377094e-002
2.767466e+003;4.417253e-002
2.769395e+003;4.453935e-002
2.771323e+003;4.505859e-002
2.773252e+003;4.589233e-002
2.775181e+003;4.718903e-002
2.777109e+003;4.864250e-002
2.779038e+003;5.019639e-002
2.780966e+003;5.227969e-002
2.782895e+003;5.504591e-002
2.784823e+003;5.824649e-002
2.786752e+003;6.139179e-002
2.788680e+003;6.479902e-002
2.790609e+003;6.865391e-002
2.792538e+003;7.228637e-002
2.794466e+003;7.554143e-002
2.796395e+003;7.833908e-002
2.798323e+003;8.081968e-002
2.800252e+003;8.261900e-002
2.802180e+003;8.315328e-002
2.804109e+003;8.228041e-002
2.806037e+003;8.073476e-002
2.807966e+003;7.864852e-002
2.809895e+003;7.564175e-002
2.811823e+003;7.302250e-002
2.813751e+003;7.097496e-002
2.815680e+003;6.957528e-002
2.817609e+003;6.898011e-002
2.819537e+003;6.884905e-002
2.821466e+003;6.951298e-002
2.823394e+003;7.155474e-002
2.825323e+003;7.489217e-002
2.827251e+003;7.890899e-002
2.829180e+003;8.329306e-002
2.831108e+003;8.824878e-002
2.833037e+003;9.369576e-002
2.834966e+003;9.939829e-002
2.836894e+003;1.049902e-001
2.838823e+003;1.105945e-001
2.840751e+003;1.161665e-001
2.842680e+003;1.210452e-001
2.844608e+003;1.256026e-001
2.846537e+003;1.297041e-001
2.848465e+003;1.331405e-001
2.850394e+003;1.361319e-001
2.852323e+003;1.383376e-001
2.854251e+003;1.398166e-001
2.856180e+003;1.407300e-001
2.858108e+003;1.408193e-001
2.860037e+003;1.405551e-001
2.861965e+003;1.396010e-001
2.863894e+003;1.378568e-001
2.865822e+003;1.352737e-001
2.867751e+003;1.316497e-001
2.869679e+003;1.274231e-001
2.871608e+003;1.226845e-001
2.873536e+003;1.175672e-001
2.875465e+003;1.128095e-001
2.877394e+003;1.082427e-001
2.879322e+003;1.036476e-001
2.881251e+003;9.933339e-002
2.883179e+003;9.553328e-002
2.885108e+003;9.219226e-002
2.887036e+003;8.913529e-002
2.888965e+003;8.657864e-002
2.890893e+003;8.416729e-002
2.892822e+003;8.219160e-002
2.894750e+003;8.077730e-002
2.896679e+003;7.984758e-002
2.898608e+003;7.970671e-002
2.900536e+003;7.968143e-002
2.902465e+003;8.016384e-002
2.904393e+003;8.056939e-002
2.906322e+003;8.115067e-002
2.908250e+003;8.204281e-002
2.910179e+003;8.291864e-002
2.912107e+003;8.361217e-002
2.914036e+003;8.407363e-002
2.915965e+003;8.455631e-002
2.917893e+003;8.475268e-002
2.919822e+003;8.476279e-002
2.921750e+003;8.549730e-002
2.923679e+003;8.721828e-002
2.925607e+003;8.933110e-002
2.927536e+003;9.119342e-002
2.929464e+003;9.308419e-002
2.931393e+003;9.575389e-002
2.933322e+003;9.898060e-002
2.935250e+003;1.020728e-001
2.937178e+003;1.049703e-001
2.939107e+003;1.072402e-001
2.941036e+003;1.080580e-001
2.942964e+003;1.076503e-001
2.944893e+003;1.058930e-001
2.946821e+003;1.027588e-001
2.948750e+003;9.880173e-002
2.950678e+003;9.398586e-002
2.952607e+003;8.904625e-002
2.954535e+003;8.434264e-002
2.956464e+003;7.996838e-002
2.958393e+003;7.532053e-002
2.960321e+003;7.103728e-002
2.962250e+003;6.765044e-002
2.964178e+003;6.516914e-002
2.966107e+003;6.351528e-002
2.968035e+003;6.197163e-002
2.969964e+003;6.016304e-002
2.971892e+003;5.819898e-002
2.973821e+003;5.624376e-002
2.975750e+003;5.452185e-002
2.977678e+003;5.269260e-002
2.979607e+003;5.042125e-002
2.981535e+003;4.805755e-002
2.983464e+003;4.608369e-002
2.985392e+003;4.410838e-002
2.987321e+003;4.198074e-002
2.989249e+003;4.009511e-002
2.991178e+003;3.859694e-002
2.993106e+003;3.733438e-002
2.995035e+003;3.624333e-002
2.996964e+003;3.519974e-002
2.998892e+003;3.399111e-002
3.000821e+003;3.322496e-002
3.002749e+003;3.239121e-002
3.004678e+003;3.155692e-002
3.006606e+003;3.129472e-002
3.008535e+003;3.113376e-002
3.010463e+003;3.077787e-002
3.012392e+003;3.018039e-002
3.014321e+003;2.981555e-002
3.016249e+003;2.975782e-002
3.018177e+003;2.956054e-002
3.020106e+003;2.943418e-002
3.022035e+003;2.982861e-002
3.023963e+003;3.003706e-002
3.025892e+003;3.019658e-002
3.027820e+003;3.071086e-002
3.029749e+003;3.088401e-002
3.031677e+003;3.071175e-002
3.033606e+003;3.073529e-002
3.035534e+003;3.097926e-002
3.037463e+003;3.111308e-002
3.039392e+003;3.118142e-002
3.041320e+003;3.078758e-002
3.043249e+003;3.046435e-002
3.045177e+003;3.047024e-002
3.047106e+003;3.048105e-002
3.049034e+003;3.031442e-002
3.050963e+003;3.016437e-002
3.052891e+003;3.014636e-002
3.054820e+003;2.990695e-002
3.056749e+003;2.964343e-002
3.058677e+003;2.952851e-002
3.060606e+003;2.930691e-002
3.062534e+003;2.901846e-002
3.064463e+003;2.892014e-002
3.066391e+003;2.873506e-002
3.068320e+003;2.853170e-002
3.070248e+003;2.831860e-002
3.072177e+003;2.785102e-002
3.074105e+003;2.700153e-002
3.076034e+003;2.629072e-002
3.077963e+003;2.601166e-002
3.079891e+003;2.583428e-002
3.081820e+003;2.565062e-002
3.083748e+003;2.531851e-002
3.085677e+003;2.499806e-002
3.087605e+003;2.497507e-002
3.089534e+003;2.531897e-002
3.091462e+003;2.538785e-002
3.093391e+003;2.511158e-002
3.095320e+003;2.496149e-002
3.097248e+003;2.512495e-002
3.099177e+003;2.540457e-002
3.101105e+003;2.547621e-002
3.103034e+003;2.558412e-002
3.104962e+003;2.578583e-002
3.106891e+003;2.599287e-002
3.108819e+003;2.659116e-002
3.110748e+003;2.714591e-002
3.112677e+003;2.744698e-002
3.114605e+003;2.712848e-002
3.116533e+003;2.692432e-002
3.118462e+003;2.714862e-002
3.120391e+003;2.738328e-002
3.122319e+003;2.732526e-002
3.124248e+003;2.689485e-002
3.126176e+003;2.651149e-002
3.128105e+003;2.644264e-002
3.130033e+003;2.623697e-002
3.131962e+003;2.555270e-002
3.133890e+003;2.510287e-002
3.135819e+003;2.484148e-002
3.137748e+003;2.425078e-002
3.139676e+003;2.347121e-002
3.141605e+003;2.315866e-002
3.143533e+003;2.320130e-002
3.145462e+003;2.297472e-002
3.147390e+003;2.241924e-002
3.149319e+003;2.220947e-002
3.151247e+003;2.213938e-002
3.153176e+003;2.235034e-002
3.155104e+003;2.250616e-002
3.157033e+003;2.252019e-002
3.158962e+003;2.272125e-002
3.160890e+003;2.287975e-002
3.162819e+003;2.283896e-002
3.164747e+003;2.294227e-002
3.166676e+003;2.359875e-002
3.168604e+003;2.416863e-002
3.170533e+003;2.437613e-002
3.172461e+003;2.464702e-002
3.174390e+003;2.530295e-002
3.176319e+003;2.578938e-002
3.178247e+003;2.609877e-002
3.180176e+003;2.659542e-002
3.182104e+003;2.693863e-002
3.184033e+003;2.711388e-002
3.185961e+003;2.760729e-002
3.187890e+003;2.780782e-002
3.189818e+003;2.806103e-002
3.191747e+003;2.821877e-002
3.193676e+003;2.853559e-002
3.195604e+003;2.863248e-002
3.197532e+003;2.848627e-002
3.199461e+003;2.813098e-002
3.201390e+003;2.777214e-002
3.203318e+003;2.741768e-002
3.205247e+003;2.711487e-002
3.207175e+003;2.738790e-002
3.209104e+003;2.786413e-002
3.211032e+003;2.817058e-002
3.212961e+003;2.856404e-002
3.214889e+003;2.840034e-002
3.216818e+003;2.836210e-002
3.218747e+003;2.883568e-002
3.220675e+003;2.936664e-002
3.222604e+003;2.977609e-002
3.224532e+003;2.988764e-002
3.226461e+003;3.034878e-002
3.228389e+003;3.094254e-002
3.230318e+003;3.136819e-002
3.232246e+003;3.191926e-002
3.234175e+003;3.254935e-002
3.236104e+003;3.305073e-002
3.238032e+003;3.399079e-002
3.239961e+003;3.494955e-002
3.241889e+003;3.540093e-002
3.243818e+003;3.571645e-002
3.245746e+003;3.633046e-002
3.247675e+003;3.728318e-002
3.249603e+003;3.832781e-002
3.251532e+003;3.893252e-002
3.253460e+003;3.891041e-002
3.255389e+003;3.899134e-002
3.257318e+003;3.962013e-002
3.259246e+003;4.022954e-002
3.261175e+003;4.081597e-002
3.263103e+003;4.128115e-002
3.265032e+003;4.198607e-002
3.266960e+003;4.257740e-002
3.268889e+003;4.294320e-002
3.270817e+003;4.341118e-002
3.272746e+003;4.380015e-002
3.274675e+003;4.394051e-002
3.276603e+003;4.415448e-002
3.278531e+003;4.471326e-002
3.280460e+003;4.568541e-002
3.282389e+003;4.619198e-002
3.284317e+003;4.626548e-002
3.286246e+003;4.647577e-002
3.288174e+003;4.669314e-002
3.290103e+003;4.671177e-002
3.292031e+003;4.648760e-002
3.293960e+003;4.657583e-002
3.295888e+003;4.726967e-002
3.297817e+003;4.788756e-002
3.299746e+003;4.806336e-002
3.301674e+003;4.791922e-002
3.303603e+003;4.779470e-002
3.305531e+003;4.775428e-002
3.307460e+003;4.759926e-002
3.309388e+003;4.769518e-002
3.311317e+003;4.764089e-002
3.313245e+003;4.816286e-002
3.315174e+003;4.884104e-002
3.317103e+003;4.861048e-002
3.319031e+003;4.821939e-002
3.320960e+003;4.799005e-002
3.322888e+003;4.780436e-002
3.324817e+003;4.797658e-002
3.326745e+003;4.789344e-002
3.328674e+003;4.746312e-002
3.330602e+003;4.698899e-002
3.332531e+003;4.668952e-002
3.334459e+003;4.663488e-002
3.336388e+003;4.590205e-002
3.338317e+003;4.528018e-002
3.340245e+003;4.490983e-002
3.342174e+003;4.420254e-002
3.344102e+003;4.374206e-002
3.346031e+003;4.356664e-002
3.347959e+003;4.334216e-002
3.349888e+003;4.244461e-002
3.351816e+003;4.163977e-002
3.353745e+003;4.132378e-002
3.355674e+003;4.071221e-002
3.357602e+003;4.009129e-002
3.359531e+003;3.923484e-002
3.361459e+003;3.834149e-002
3.363388e+003;3.788719e-002
3.365316e+003;3.788629e-002
3.367245e+003;3.762425e-002
3.369173e+003;3.752244e-002
3.371102e+003;3.707109e-002
3.373031e+003;3.609993e-002
3.374959e+003;3.550746e-002
3.376887e+003;3.492111e-002
3.378816e+003;3.439078e-002
3.380745e+003;3.411173e-002
3.382673e+003;3.401121e-002
3.384602e+003;3.360115e-002
3.386530e+003;3.293447e-002
3.388459e+003;3.231232e-002
3.390387e+003;3.214834e-002
3.392316e+003;3.197144e-002
3.394244e+003;3.144559e-002
3.396173e+003;3.136594e-002
3.398102e+003;3.100221e-002
3.400030e+003;3.013592e-002
3.401959e+003;2.931045e-002
3.403887e+003;2.881667e-002
3.405816e+003;2.842609e-002
3.407744e+003;2.766774e-002
3.409673e+003;2.706708e-002
3.411601e+003;2.671232e-002
3.413530e+003;2.586509e-002
3.415458e+003;2.497202e-002
3.417387e+003;2.432426e-002
3.419316e+003;2.355939e-002
3.421244e+003;2.335417e-002
3.423173e+003;2.339008e-002
3.425101e+003;2.298971e-002
3.427030e+003;2.233315e-002
3.428958e+003;2.176702e-002
3.430887e+003;2.139164e-002
3.432815e+003;2.115505e-002
3.434744e+003;2.053870e-002
3.436673e+003;2.024897e-002
3.438601e+003;1.985953e-002
3.440530e+003;1.918545e-002
3.442458e+003;1.892635e-002
3.444387e+003;1.858115e-002
3.446315e+003;1.791249e-002
3.448244e+003;1.717885e-002
3.450172e+003;1.630984e-002
3.452101e+003;1.524702e-002
3.454030e+003;1.427513e-002
3.455958e+003;1.387606e-002
3.457886e+003;1.339489e-002
3.459815e+003;1.291381e-002
3.461744e+003;1.261210e-002
3.463672e+003;1.257659e-002
3.465601e+003;1.229380e-002
3.467529e+003;1.160619e-002
3.469458e+003;1.124452e-002
3.471386e+003;1.120634e-002
3.473315e+003;1.106319e-002
3.475243e+003;1.091546e-002
3.477172e+003;1.087374e-002
3.479101e+003;1.083719e-002
3.481029e+003;1.047754e-002
3.482958e+003;1.025992e-002
3.484886e+003;1.012159e-002
3.486815e+003;9.860795e-003
3.488743e+003;9.548464e-003
3.490672e+003;9.624984e-003
3.492600e+003;9.869879e-003
3.494529e+003;9.706363e-003
3.496458e+003;9.118824e-003
3.498386e+003;8.833063e-003
3.500315e+003;8.885344e-003
3.502243e+003;8.805504e-003
3.504172e+003;8.597977e-003
3.506100e+003;8.315834e-003
3.508029e+003;8.193418e-003
3.509957e+003;8.174713e-003
3.511886e+003;8.685012e-003
3.513814e+003;8.728824e-003
3.515743e+003;8.141052e-003
3.517672e+003;8.188928e-003
3.519600e+003;8.253356e-003
3.521529e+003;7.734591e-003
3.523457e+003;7.602628e-003
3.525386e+003;7.387249e-003
3.527314e+003;7.221431e-003
3.529243e+003;7.218669e-003
3.531171e+003;7.210617e-003
3.533100e+003;7.434402e-003
3.535029e+003;6.843699e-003
3.536957e+003;6.681554e-003
3.538885e+003;7.026884e-003
3.540814e+003;7.005400e-003
3.542743e+003;6.592027e-003
3.544671e+003;6.005089e-003
3.546600e+003;5.962929e-003
3.548528e+003;5.988594e-003
3.550457e+003;6.014260e-003
3.552385e+003;6.299820e-003
3.554314e+003;6.337239e-003
3.556242e+003;5.927994e-003
3.558171e+003;5.581087e-003
3.560100e+003;5.549707e-003
3.562028e+003;5.344770e-003
3.563957e+003;4.428702e-003
3.565885e+003;3.707174e-003
3.567814e+003;4.200739e-003
3.569742e+003;5.246195e-003
3.571671e+003;5.422801e-003
3.573599e+003;5.007445e-003
3.575528e+003;4.541054e-003
3.577457e+003;4.076033e-003
3.579385e+003;3.826259e-003
3.581314e+003;4.281577e-003
3.583242e+003;5.022462e-003
3.585171e+003;4.583512e-003
3.587099e+003;3.574425e-003
3.589028e+003;3.630654e-003
3.590956e+003;4.219877e-003
3.592885e+003;4.387364e-003
3.594813e+003;4.163839e-003
3.596742e+003;3.977377e-003
3.598671e+003;4.253502e-003
3.600599e+003;4.316747e-003
3.602528e+003;4.440150e-003
3.604456e+003;4.556590e-003
3.606385e+003;3.913146e-003
3.608313e+003;2.968661e-003
3.610242e+003;2.981940e-003
3.612170e+003;3.315457e-003
3.614099e+003;3.516700e-003
3.616028e+003;3.704401e-003
3.617956e+003;3.228991e-003
3.619885e+003;3.036857e-003
3.621813e+003;3.451401e-003
3.623742e+003;3.747880e-003
3.625670e+003;3.195544e-003
3.627599e+003;1.604461e-003
3.629527e+003;1.669117e-003
3.631456e+003;3.057345e-003
3.633385e+003;3.330282e-003
3.635313e+003;3.428123e-003
3.637241e+003;3.607767e-003
3.639170e+003;3.419306e-003
3.641099e+003;2.969396e-003
3.643027e+003;2.826099e-003
3.644956e+003;2.710488e-003
3.646884e+003;1.798757e-003
3.648813e+003;8.332584e-004
3.650741e+003;1.875687e-003
3.652670e+003;3.113140e-003
3.654598e+003;2.486991e-003
3.656527e+003;2.405321e-003
3.658456e+003;3.444588e-003
3.660384e+003;4.046133e-003
3.662313e+003;4.322704e-003
3.664241e+003;4.112725e-003
3.666170e+003;3.465428e-003
3.668098e+003;2.012146e-003
3.670027e+003;1.430763e-003
3.671955e+003;2.722758e-003
3.673884e+003;1.918384e-003
3.675813e+003;1.134532e-003
3.677741e+003;2.635043e-003
3.679669e+003;3.459884e-003
3.681598e+003;3.585750e-003
3.683527e+003;3.620697e-003
3.685455e+003;3.579068e-003
3.687384e+003;2.308776e-003
3.689312e+003;1.950734e-003
3.691241e+003;2.913652e-003
3.693169e+003;3.676498e-003
3.695098e+003;3.543724e-003
3.697026e+003;3.174349e-003
3.698955e+003;3.038092e-003
3.700884e+003;2.796285e-003
3.702812e+003;2.849445e-003
3.704741e+003;3.433600e-003
3.706669e+003;3.671385e-003
3.708598e+003;2.866154e-003
3.710526e+003;1.756038e-003
3.712455e+003;2.045003e-003
3.714383e+003;3.247118e-003
3.716312e+003;3.173482e-003
3.718240e+003;2.675148e-003
3.720169e+003;2.437274e-003
3.722098e+003;2.496356e-003
3.724026e+003;2.680382e-003
3.725955e+003;2.447037e-003
3.727883e+003;2.433942e-003
3.729812e+003;1.941515e-003
3.731740e+003;8.113154e-004
3.733669e+003;7.332786e-004
3.735597e+003;9.921052e-004
3.737526e+003;2.058452e-003
3.739455e+003;3.072528e-003
3.741383e+003;2.138692e-003
3.743312e+003;-6.293887e-004
3.745240e+003;-2.841308e-004
3.747169e+003;8.677190e-004
3.749097e+003;4.874291e-005
3.751026e+003;2.535162e-004
3.752954e+003;1.770776e-003
3.754883e+003;3.310115e-003
3.756812e+003;3.306977e-003
3.758740e+003;3.200985e-003
3.760668e+003;3.584414e-003
3.762597e+003;3.844210e-003
3.764526e+003;3.126156e-003
3.766454e+003;3.020341e-003
3.768383e+003;3.099224e-003
3.770311e+003;3.404145e-003
3.772240e+003;4.174611e-003
3.774168e+003;4.407179e-003
3.776097e+003;3.935614e-003
3.778025e+003;3.300233e-003
3.779954e+003;3.087611e-003
3.781883e+003;3.323103e-003
3.783811e+003;3.416301e-003
3.785740e+003;3.768367e-003
3.787668e+003;4.037571e-003
3.789597e+003;3.813089e-003
3.791525e+003;3.788923e-003
3.793454e+003;4.063524e-003
3.795382e+003;3.557454e-003
3.797311e+003;3.320399e-003
3.799240e+003;2.519117e-003
3.801168e+003;2.031387e-003
3.803097e+003;3.771810e-003
3.805025e+003;4.048574e-003
3.806954e+003;3.308079e-003
3.808882e+003;3.993428e-003
3.810811e+003;4.214858e-003
3.812739e+003;4.027036e-003
3.814668e+003;2.902011e-003
3.816596e+003;3.137503e-003
3.818525e+003;4.123697e-003
3.820454e+003;3.167006e-003
3.822382e+003;3.696548e-003
3.824311e+003;5.090176e-003
3.826239e+003;5.290197e-003
3.828168e+003;5.282449e-003
3.830096e+003;5.188548e-003
3.832025e+003;4.529503e-003
3.833953e+003;4.161397e-003
3.835882e+003;3.114708e-003
3.837811e+003;2.348184e-003
3.839739e+003;3.518103e-003
3.841667e+003;4.288738e-003
3.843596e+003;4.473258e-003
3.845525e+003;4.865686e-003
3.847453e+003;5.282013e-003
3.849382e+003;4.654005e-003
3.851310e+003;1.775534e-003
3.853239e+003;-8.044200e-005
3.855167e+003;2.554512e-003
3.857096e+003;5.152905e-003
3.859024e+003;5.251795e-003
3.860953e+003;4.896581e-003
3.862882e+003;4.680999e-003
3.864810e+003;4.336860e-003
3.866739e+003;4.443263e-003
3.868667e+003;3.457613e-003
3.870596e+003;3.633093e-003
3.872524e+003;4.836066e-003
3.874453e+003;4.942391e-003
3.876381e+003;5.261756e-003
3.878310e+003;5.040830e-003
3.880239e+003;4.600857e-003
3.882167e+003;4.667837e-003
3.884096e+003;4.245004e-003
3.886024e+003;4.410660e-003
3.887953e+003;5.651507e-003
3.889881e+003;5.420151e-003
3.891810e+003;5.159243e-003
3.893738e+003;5.751081e-003
3.895667e+003;5.956412e-003
3.897595e+003;5.267524e-003
3.899524e+003;4.548521e-003
3.901453e+003;4.407648e-003
3.903381e+003;4.744909e-003
3.905310e+003;5.308510e-003
3.907238e+003;5.668829e-003
3.909167e+003;5.958159e-003
3.911095e+003;6.207145e-003
3.913024e+003;5.798761e-003
3.914952e+003;5.225335e-003
3.916881e+003;5.306129e-003
3.918810e+003;5.726907e-003
3.920738e+003;6.178207e-003
3.922667e+003;6.410304e-003
3.924595e+003;5.777775e-003
3.926524e+003;5.541418e-003
3.928452e+003;5.980397e-003
3.930381e+003;6.495455e-003
3.932309e+003;6.690707e-003
3.934238e+003;7.181747e-003
3.936167e+003;7.278876e-003
3.938095e+003;7.021631e-003
3.940023e+003;6.823302e-003
3.941952e+003;6.763360e-003
3.943881e+003;7.022068e-003
3.945809e+003;7.354155e-003
3.947738e+003;7.277259e-003
3.949666e+003;7.169586e-003
3.951595e+003;7.704371e-003
3.953523e+003;8.598316e-003
3.955452e+003;8.476969e-003
3.957380e+003;7.765084e-003
3.959309e+003;7.877290e-003
3.961238e+003;8.085147e-003
3.963166e+003;7.926453e-003
3.965095e+003;7.695871e-003
3.967023e+003;7.547062e-003
3.968952e+003;7.834948e-003
3.970880e+003;8.145778e-003
3.972809e+003;8.502445e-003
3.974737e+003;8.086802e-003
3.976666e+003;8.029554e-003
3.978594e+003;8.927281e-003
3.980523e+003;8.861400e-003
3.982452e+003;8.304689e-003
3.984380e+003;8.511839e-003
3.986309e+003;8.658275e-003
3.988237e+003;8.745153e-003
3.990166e+003;8.410279e-003
3.992094e+003;8.243326e-003
3.994023e+003;8.723584e-003
3.995951e+003;8.814904e-003
3.997880e+003;8.183323e-003
3.999809e+003;8.131667e-003
4.001737e+003;0.000000e+000
