3.992094e+002;0.000000e+000
4.011380e+002;0.000000e+000
4.030665e+002;0.000000e+000
4.049951e+002;0.000000e+000
4.069236e+002;0.000000e+000
4.088522e+002;0.000000e+000
4.107807e+002;0.000000e+000
4.127093e+002;0.000000e+000
4.146378e+002;0.000000e+000
4.165664e+002;0.000000e+000
4.184949e+002;0.000000e+000
4.204235e+002;0.000000e+000
4.223520e+002;0.000000e+000
4.242806e+002;0.000000e+000
4.262091e+002;0.000000e+000
4.281377e+002;0.000000e+000
4.300662e+002;0.000000e+000
4.319948e+002;0.000000e+000
4.339233e+002;0.000000e+000
4.358519e+002;0.000000e+000
4.377804e+002;0.000000e+000
4.397090e+002;0.000000e+000
4.416375e+002;0.000000e+000
4.435660e+002;0.000000e+000
4.454946e+002;0.000000e+000
4.474232e+002;0.000000e+000
4.493517e+002;0.000000e+000
4.512802e+002;0.000000e+000
4.532088e+002;0.000000e+000
4.551373e+002;0.000000e+000
4.570659e+002;0.000000e+000
4.589944e+002;0.000000e+000
4.609230e+002;0.000000e+000
4.628515e+002;0.000000e+000
4.647801e+002;0.000000e+000
4.667086e+002;0.000000e+000
4.686372e+002;0.000000e+000
4.705657e+002;0.000000e+000
4.724943e+002;0.000000e+000
4.744228e+002;0.000000e+000
4.763513e+002;0.000000e+000
4.782799e+002;0.000000e+000
4.802085e+002;0.000000e+000
4.821370e+002;0.000000e+000
4.840656e+002;0.000000e+000
4.859941e+002;0.000000e+000
4.879226e+002;0.000000e+000
4.898512e+002;0.000000e+000
4.917798e+002;0.000000e+000
4.937083e+002;0.000000e+000
4.956368e+002;0.000000e+000
4.975654e+002;0.000000e+000
4.994939e+002;0.000000e+000
5.014225e+002;0.000000e+000
5.033510e+002;0.000000e+000
5.052796e+002;0.000000e+000
5.072081e+002;0.000000e+000
5.091367e+002;0.000000e+000
5.110652e+002;0.000000e+000
5.129938e+002;0.000000e+000
5.149223e+002;0.000000e+000
5.168509e+002;0.000000e+000
5.187794e+002;0.000000e+000
5.207079e+002;0.000000e+000
5.226365e+002;0.000000e+000
5.245651e+002;0.000000e+000
5.264936e+002;0.000000e+000
5.284222e+002;0.000000e+000
5.303507e+002;0.000000e+000
5.322792e+002;0.000000e+000
5.342078e+002;0.000000e+000
5.361364e+002;0.000000e+000
5.380649e+002;0.000000e+000
5.399935e+002;0.000000e+000
5.419220e+002;0.000000e+000
5.438505e+002;0.000000e+000
5.457791e+002;0.000000e+000
5.477076e+002;0.000000e+000
5.496362e+002;0.000000e+000
5.515648e+002;0.000000e+000
5.534933e+002;0.000000e+000
5.554218e+002;0.000000e+000
5.573504e+002;0.000000e+000
5.592789e+002;0.000000e+000
5.612075e+002;0.000000e+000
5.631360e+002;0.000000e+000
5.650646e+002;0.000000e+000
5.669931e+002;0.000000e+000
5.689217e+002;0.000000e+000
5.708502e+002;0.000000e+000
5.727787e+002;0.000000e+000
5.747073e+002;0.000000e+000
5.766359e+002;0.000000e+000
5.785644e+002;0.000000e+000
5.804930e+002;0.000000e+000
5.824215e+002;0.000000e+000
5.843500e+002;0.000000e+000
5.862786e+002;0.000000e+000
5.882072e+002;0.000000e+000
5.901357e+002;0.000000e+000
5.920643e+002;0.000000e+000
5.939928e+002;0.000000e+000
5.959213e+002;0.000000e+000
5.978499e+002;0.000000e+000
5.997784e+002;5.437537e-002
6.017070e+002;5.471735e-002
6.036355e+002;6.090305e-002
6.055641e+002;6.277346e-002
6.074926e+002;6.513226e-002
6.094211e+002;6.428938e-002
6.113497e+002;6.239221e-002
6.132783e+002;6.216291e-002
6.152068e+002;6.000418e-002
6.171354e+002;6.064550e-002
6.190639e+002;6.581987e-002
6.209924e+002;7.052592e-002
6.229210e+002;6.747659e-002
6.248495e+002;6.362931e-002
6.267781e+002;6.324218e-002
6.287067e+002;5.763300e-002
6.306352e+002;5.853982e-002
6.325637e+002;6.568672e-002
6.344923e+002;6.565334e-002
6.364208e+002;6.332038e-002
6.383494e+002;6.076591e-002
6.402780e+002;6.321252e-002
6.422065e+002;6.506979e-002
6.441350e+002;6.800219e-002
6.460636e+002;6.961938e-002
6.479921e+002;6.547970e-002
6.499207e+002;6.700385e-002
6.518492e+002;6.865872e-002
6.537778e+002;6.759906e-002
6.557063e+002;6.857522e-002
6.576349e+002;6.858441e-002
6.595634e+002;6.641964e-002
6.614919e+002;6.401710e-002
6.634205e+002;6.592217e-002
6.653491e+002;6.802784e-002
6.672776e+002;6.958091e-002
6.692062e+002;6.889968e-002
6.711347e+002;6.567889e-002
6.730632e+002;6.400017e-002
6.749918e+002;6.310779e-002
6.769203e+002;6.213022e-002
6.788489e+002;6.212471e-002
6.807775e+002;6.373237e-002
6.827060e+002;6.496103e-002
6.846345e+002;6.438694e-002
6.865631e+002;6.305576e-002
6.884916e+002;6.251525e-002
6.904202e+002;6.234964e-002
6.923488e+002;6.062153e-002
6.942773e+002;5.990558e-002
6.962058e+002;6.164600e-002
6.981344e+002;6.385022e-002
7.000629e+002;6.461469e-002
7.019915e+002;6.431708e-002
7.039200e+002;6.391398e-002
7.058486e+002;6.388915e-002
7.077771e+002;6.353477e-002
7.097057e+002;6.204960e-002
7.116342e+002;6.176069e-002
7.135627e+002;6.281010e-002
7.154913e+002;6.230868e-002
7.174199e+002;6.159716e-002
7.193484e+002;6.366810e-002
7.212770e+002;6.505131e-002
7.232055e+002;6.534993e-002
7.251340e+002;6.643967e-002
7.270626e+002;6.748336e-002
7.289911e+002;6.801288e-002
7.309197e+002;6.849537e-002
7.328483e+002;6.941368e-002
7.347768e+002;7.108286e-002
7.367053e+002;7.362838e-002
7.386339e+002;7.777039e-002
7.405624e+002;8.060665e-002
7.424910e+002;8.132237e-002
7.444196e+002;8.322896e-002
7.463481e+002;8.693413e-002
7.482766e+002;8.842815e-002
7.502052e+002;8.680227e-002
7.521337e+002;8.599970e-002
7.540623e+002;8.461553e-002
7.559908e+002;8.108944e-002
7.579194e+002;7.953513e-002
7.598479e+002;8.023996e-002
7.617765e+002;8.059026e-002
7.637050e+002;8.113626e-002
7.656335e+002;8.169274e-002
7.675621e+002;8.174905e-002
7.694907e+002;8.228353e-002
7.714192e+002;8.245508e-002
7.733478e+002;8.082271e-002
7.752763e+002;7.766486e-002
7.772048e+002;7.592911e-002
7.791334e+002;7.400465e-002
7.810620e+002;7.081027e-002
7.829905e+002;6.698262e-002
7.849191e+002;6.331479e-002
7.868476e+002;5.979081e-002
7.887761e+002;5.797578e-002
7.907047e+002;5.828525e-002
7.926332e+002;5.927262e-002
7.945618e+002;6.111456e-002
7.964903e+002;6.232520e-002
7.984189e+002;6.422618e-002
8.003474e+002;6.779356e-002
8.022759e+002;7.051006e-002
8.042045e+002;7.287227e-002
8.061331e+002;7.616865e-002
8.080616e+002;7.929985e-002
8.099902e+002;8.200450e-002
8.119187e+002;8.273701e-002
8.138472e+002;8.168646e-002
8.157758e+002;8.145285e-002
8.177043e+002;8.114420e-002
8.196329e+002;7.976014e-002
8.215615e+002;7.901948e-002
8.234900e+002;7.777007e-002
8.254185e+002;7.517824e-002
8.273471e+002;7.356514e-002
8.292756e+002;7.152486e-002
8.312042e+002;6.786964e-002
8.331328e+002;6.592294e-002
8.350613e+002;6.543925e-002
8.369898e+002;6.453273e-002
8.389184e+002;6.223024e-002
8.408469e+002;6.153871e-002
8.427755e+002;6.241895e-002
8.447040e+002;6.339188e-002
8.466326e+002;6.396051e-002
8.485611e+002;6.484526e-002
8.504897e+002;6.535394e-002
8.524182e+002;6.492309e-002
8.543467e+002;6.305097e-002
8.562753e+002;6.183977e-002
8.582039e+002;6.166983e-002
8.601324e+002;6.226741e-002
8.620610e+002;6.227858e-002
8.639895e+002;6.078615e-002
8.659180e+002;5.972766e-002
8.678466e+002;5.883118e-002
8.697751e+002;5.692664e-002
8.717037e+002;5.531458e-002
8.736323e+002;5.468436e-002
8.755608e+002;5.364887e-002
8.774893e+002;5.249647e-002
8.794179e+002;5.214992e-002
8.813464e+002;5.188283e-002
8.832750e+002;5.137853e-002
8.852036e+002;5.185460e-002
8.871321e+002;5.243500e-002
8.890606e+002;5.236072e-002
8.909892e+002;5.258023e-002
8.929177e+002;5.333391e-002
8.948463e+002;5.418539e-002
8.967748e+002;5.507600e-002
8.987034e+002;5.582170e-002
9.006319e+002;5.678977e-002
9.025605e+002;5.781227e-002
9.044890e+002;5.959705e-002
9.064175e+002;6.143060e-002
9.083461e+002;6.301718e-002
9.102747e+002;6.514470e-002
9.122032e+002;6.685313e-002
9.141318e+002;6.772025e-002
9.160603e+002;6.820703e-002
9.179888e+002;6.829280e-002
9.199174e+002;6.800137e-002
9.218459e+002;6.820060e-002
9.237745e+002;6.894523e-002
9.257031e+002;6.994778e-002
9.276316e+002;7.075734e-002
9.295601e+002;7.099299e-002
9.314887e+002;7.197525e-002
9.334172e+002;7.387430e-002
9.353458e+002;7.619739e-002
9.372744e+002;7.773690e-002
9.392029e+002;7.933111e-002
9.411314e+002;8.217022e-002
9.430600e+002;8.515041e-002
9.449885e+002;8.737583e-002
9.469171e+002;8.958282e-002
9.488456e+002;9.197129e-002
9.507742e+002;9.460422e-002
9.527027e+002;9.810456e-002
9.546313e+002;1.015102e-001
9.565598e+002;1.034443e-001
9.584883e+002;1.045704e-001
9.604169e+002;1.050085e-001
9.623455e+002;1.042376e-001
9.642740e+002;1.033445e-001
9.662026e+002;1.028112e-001
9.681311e+002;1.026279e-001
9.700596e+002;1.032634e-001
9.719882e+002;1.046472e-001
9.739167e+002;1.065795e-001
9.758453e+002;1.083273e-001
9.777739e+002;1.106711e-001
9.797024e+002;1.140738e-001
9.816309e+002;1.175546e-001
9.835595e+002;1.205307e-001
9.854880e+002;1.234368e-001
9.874166e+002;1.263612e-001
9.893452e+002;1.296370e-001
9.912737e+002;1.319945e-001
9.932022e+002;1.334199e-001
9.951307e+002;1.331375e-001
9.970593e+002;1.303726e-001
9.989879e+002;1.256328e-001
1.000916e+003;1.201374e-001
1.002845e+003;1.148371e-001
1.004773e+003;1.104572e-001
1.006702e+003;1.078353e-001
1.008631e+003;1.067126e-001
1.010559e+003;1.052952e-001
1.012488e+003;1.037714e-001
1.014416e+003;1.035824e-001
1.016345e+003;1.034498e-001
1.018273e+003;1.026096e-001
1.020202e+003;1.005471e-001
1.022130e+003;9.758519e-002
1.024059e+003;9.538101e-002
1.025988e+003;9.434170e-002
1.027916e+003;9.446684e-002
1.029845e+003;9.557197e-002
1.031773e+003;9.667524e-002
1.033702e+003;9.709395e-002
1.035630e+003;9.850815e-002
1.037559e+003;1.013315e-001
1.039487e+003;1.037536e-001
1.041416e+003;1.058669e-001
1.043344e+003;1.080535e-001
1.045273e+003;1.107605e-001
1.047202e+003;1.139025e-001
1.049130e+003;1.169322e-001
1.051059e+003;1.203661e-001
1.052987e+003;1.240181e-001
1.054916e+003;1.274932e-001
1.056844e+003;1.312084e-001
1.058773e+003;1.351867e-001
1.060701e+003;1.381304e-001
1.062630e+003;1.412329e-001
1.064558e+003;1.446196e-001
1.066487e+003;1.473369e-001
1.068416e+003;1.498716e-001
1.070344e+003;1.526018e-001
1.072273e+003;1.560204e-001
1.074201e+003;1.608060e-001
1.076130e+003;1.665126e-001
1.078058e+003;1.716206e-001
1.079987e+003;1.761639e-001
1.081915e+003;1.816251e-001
1.083844e+003;1.881060e-001
1.085773e+003;1.944632e-001
1.087701e+003;2.015982e-001
1.089630e+003;2.100150e-001
1.091558e+003;2.189589e-001
1.093487e+003;2.269594e-001
1.095415e+003;2.345995e-001
1.097344e+003;2.422947e-001
1.099272e+003;2.479387e-001
1.101201e+003;2.507598e-001
1.103129e+003;2.517355e-001
1.105058e+003;2.509170e-001
1.106987e+003;2.466681e-001
1.108915e+003;2.377194e-001
1.110844e+003;2.267344e-001
1.112772e+003;2.145764e-001
1.114701e+003;2.009366e-001
1.116629e+003;1.867909e-001
1.118558e+003;1.728187e-001
1.120486e+003;1.592509e-001
1.122415e+003;1.456776e-001
1.124344e+003;1.336459e-001
1.126272e+003;1.237229e-001
1.128201e+003;1.142991e-001
1.130129e+003;1.053496e-001
1.132058e+003;9.838565e-002
1.133986e+003;9.257173e-002
1.135915e+003;8.705068e-002
1.137843e+003;8.256759e-002
1.139772e+003;7.862950e-002
1.141700e+003;7.467356e-002
1.143629e+003;7.190877e-002
1.145557e+003;6.967248e-002
1.147486e+003;6.720547e-002
1.149415e+003;6.554690e-002
1.151343e+003;6.413173e-002
1.153272e+003;6.245851e-002
1.155200e+003;6.078248e-002
1.157129e+003;5.927137e-002
1.159057e+003;5.834115e-002
1.160986e+003;5.728418e-002
1.162914e+003;5.639023e-002
1.164843e+003;5.591078e-002
1.166771e+003;5.579491e-002
1.168700e+003;5.609025e-002
1.170629e+003;5.695391e-002
1.172557e+003;5.842419e-002
1.174486e+003;6.051163e-002
1.176414e+003;6.288500e-002
1.178343e+003;6.579384e-002
1.180271e+003;6.813442e-002
1.182200e+003;6.948856e-002
1.184128e+003;7.068310e-002
1.186057e+003;7.224502e-002
1.187986e+003;7.480147e-002
1.189914e+003;7.891730e-002
1.191843e+003;8.433866e-002
1.193771e+003;8.993406e-002
1.195700e+003;9.506254e-002
1.197628e+003;1.006754e-001
1.199557e+003;1.067683e-001
1.201485e+003;1.130916e-001
1.203414e+003;1.193592e-001
1.205343e+003;1.244717e-001
1.207271e+003;1.277832e-001
1.209200e+003;1.292683e-001
1.211128e+003;1.289055e-001
1.213057e+003;1.274004e-001
1.214985e+003;1.263580e-001
1.216914e+003;1.264531e-001
1.218842e+003;1.267114e-001
1.220771e+003;1.259294e-001
1.222699e+003;1.239857e-001
1.224628e+003;1.202363e-001
1.226557e+003;1.154820e-001
1.228485e+003;1.107601e-001
1.230414e+003;1.068951e-001
1.232342e+003;1.041569e-001
1.234271e+003;1.015758e-001
1.236199e+003;9.902721e-002
1.238128e+003;9.663691e-002
1.240056e+003;9.478173e-002
1.241985e+003;9.344131e-002
1.243913e+003;9.272385e-002
1.245842e+003;9.280056e-002
1.247771e+003;9.286916e-002
1.249699e+003;9.238679e-002
1.251628e+003;9.026538e-002
1.253556e+003;8.566952e-002
1.255485e+003;7.974927e-002
1.257413e+003;7.422186e-002
1.259342e+003;6.925703e-002
1.261270e+003;6.480575e-002
1.263199e+003;6.227326e-002
1.265127e+003;6.139705e-002
1.267056e+003;6.063944e-002
1.268985e+003;5.965611e-002
1.270913e+003;5.869807e-002
1.272842e+003;5.797767e-002
1.274770e+003;5.776287e-002
1.276699e+003;5.751349e-002
1.278627e+003;5.679366e-002
1.280556e+003;5.601945e-002
1.282484e+003;5.525362e-002
1.284413e+003;5.466609e-002
1.286342e+003;5.431326e-002
1.288270e+003;5.436801e-002
1.290199e+003;5.524331e-002
1.292127e+003;5.701886e-002
1.294056e+003;5.910801e-002
1.295984e+003;6.127654e-002
1.297913e+003;6.360921e-002
1.299841e+003;6.667075e-002
1.301770e+003;6.997767e-002
1.303698e+003;7.327318e-002
1.305627e+003;7.588062e-002
1.307556e+003;7.725611e-002
1.309484e+003;7.760020e-002
1.311413e+003;7.657728e-002
1.313341e+003;7.481576e-002
1.315270e+003;7.328600e-002
1.317198e+003;7.111377e-002
1.319127e+003;6.743897e-002
1.321055e+003;6.308300e-002
1.322984e+003;5.911735e-002
1.324912e+003;5.549760e-002
1.326841e+003;5.243411e-002
1.328770e+003;5.025006e-002
1.330698e+003;4.862408e-002
1.332627e+003;4.720702e-002
1.334555e+003;4.665757e-002
1.336484e+003;4.678815e-002
1.338412e+003;4.664698e-002
1.340341e+003;4.621841e-002
1.342269e+003;4.579917e-002
1.344198e+003;4.551848e-002
1.346126e+003;4.581865e-002
1.348055e+003;4.703894e-002
1.349984e+003;4.910382e-002
1.351912e+003;5.160993e-002
1.353841e+003;5.477019e-002
1.355769e+003;5.832800e-002
1.357698e+003;6.208553e-002
1.359626e+003;6.604020e-002
1.361555e+003;7.051871e-002
1.363483e+003;7.596309e-002
1.365412e+003;8.222359e-002
1.367341e+003;8.814506e-002
1.369269e+003;9.137764e-002
1.371198e+003;9.013092e-002
1.373126e+003;8.521806e-002
1.375055e+003;7.843918e-002
1.376983e+003;7.167982e-002
1.378912e+003;6.575730e-002
1.380840e+003;6.044864e-002
1.382769e+003;5.559433e-002
1.384698e+003;5.149020e-002
1.386626e+003;4.816016e-002
1.388555e+003;4.540586e-002
1.390483e+003;4.333824e-002
1.392412e+003;4.234498e-002
1.394340e+003;4.185408e-002
1.396269e+003;4.229330e-002
1.398197e+003;4.345461e-002
1.400126e+003;4.502566e-002
1.402054e+003;4.782023e-002
1.403983e+003;5.198410e-002
1.405911e+003;5.727166e-002
1.407840e+003;6.260197e-002
1.409769e+003;6.703149e-002
1.411697e+003;6.969088e-002
1.413626e+003;6.958718e-002
1.415554e+003;6.591897e-002
1.417483e+003;6.011331e-002
1.419411e+003;5.450927e-002
1.421340e+003;5.024798e-002
1.423268e+003;4.806236e-002
1.425197e+003;4.801840e-002
1.427125e+003;4.994826e-002
1.429054e+003;5.224669e-002
1.430983e+003;5.431217e-002
1.432911e+003;5.579201e-002
1.434840e+003;5.620684e-002
1.436768e+003;5.596321e-002
1.438697e+003;5.563987e-002
1.440625e+003;5.647788e-002
1.442554e+003;5.884723e-002
1.444482e+003;6.137991e-002
1.446411e+003;6.308856e-002
1.448340e+003;6.343989e-002
1.450268e+003;6.311741e-002
1.452197e+003;6.334852e-002
1.454125e+003;6.420029e-002
1.456054e+003;6.527198e-002
1.457982e+003;6.614783e-002
1.459911e+003;6.667716e-002
1.461839e+003;6.659987e-002
1.463768e+003;6.600012e-002
1.465697e+003;6.572992e-002
1.467625e+003;6.594145e-002
1.469554e+003;6.661980e-002
1.471482e+003;6.755388e-002
1.473411e+003;6.813679e-002
1.475339e+003;6.805129e-002
1.477268e+003;6.801358e-002
1.479196e+003;6.897219e-002
1.481125e+003;7.091929e-002
1.483053e+003;7.335395e-002
1.484982e+003;7.535896e-002
1.486911e+003;7.532195e-002
1.488839e+003;7.318376e-002
1.490768e+003;6.946690e-002
1.492696e+003;6.531037e-002
1.494625e+003;6.148740e-002
1.496553e+003;5.935436e-002
1.498482e+003;5.905752e-002
1.500410e+003;5.990460e-002
1.502339e+003;6.217950e-002
1.504267e+003;6.557121e-002
1.506196e+003;7.007150e-002
1.508125e+003;7.564668e-002
1.510053e+003;8.108657e-002
1.511982e+003;8.600952e-002
1.513910e+003;8.956604e-002
1.515839e+003;9.092560e-002
1.517767e+003;9.126123e-002
1.519696e+003;9.088331e-002
1.521624e+003;9.026456e-002
1.523553e+003;9.015661e-002
1.525481e+003;8.996964e-002
1.527410e+003;8.952374e-002
1.529339e+003;8.945448e-002
1.531267e+003;8.947337e-002
1.533196e+003;8.916503e-002
1.535124e+003;8.832106e-002
1.537053e+003;8.718252e-002
1.538981e+003;8.513404e-002
1.540910e+003;8.220797e-002
1.542838e+003;7.880848e-002
1.544767e+003;7.505767e-002
1.546695e+003;7.101347e-002
1.548624e+003;6.692657e-002
1.550553e+003;6.308997e-002
1.552481e+003;5.952799e-002
1.554410e+003;5.608414e-002
1.556338e+003;5.337505e-002
1.558267e+003;5.108765e-002
1.560195e+003;4.819896e-002
1.562124e+003;4.584634e-002
1.564052e+003;4.416644e-002
1.565981e+003;4.232190e-002
1.567910e+003;4.095519e-002
1.569838e+003;3.991189e-002
1.571767e+003;3.886196e-002
1.573695e+003;3.795130e-002
1.575624e+003;3.725325e-002
1.577552e+003;3.682396e-002
1.579481e+003;3.728878e-002
1.581409e+003;3.853846e-002
1.583338e+003;4.016150e-002
1.585266e+003;4.250529e-002
1.587195e+003;4.555476e-002
1.589124e+003;4.898778e-002
1.591052e+003;5.206836e-002
1.592981e+003;5.492084e-002
1.594909e+003;5.728478e-002
1.596838e+003;5.862411e-002
1.598766e+003;5.874222e-002
1.600695e+003;5.812920e-002
1.602623e+003;5.680204e-002
1.604552e+003;5.485857e-002
1.606480e+003;5.287017e-002
1.608409e+003;5.087429e-002
1.610338e+003;4.926683e-002
1.612266e+003;4.809656e-002
1.614195e+003;4.670417e-002
1.616123e+003;4.492034e-002
1.618052e+003;4.261497e-002
1.619980e+003;4.031948e-002
1.621909e+003;3.879344e-002
1.623837e+003;3.770060e-002
1.625766e+003;3.660423e-002
1.627694e+003;3.633190e-002
1.629623e+003;3.739111e-002
1.631552e+003;3.898851e-002
1.633480e+003;4.041409e-002
1.635409e+003;4.205282e-002
1.637337e+003;4.351738e-002
1.639266e+003;4.480975e-002
1.641194e+003;4.610671e-002
1.643123e+003;4.721865e-002
1.645051e+003;4.797199e-002
1.646980e+003;4.857109e-002
1.648909e+003;4.921372e-002
1.650837e+003;4.952537e-002
1.652766e+003;4.965693e-002
1.654694e+003;5.033808e-002
1.656623e+003;5.110583e-002
1.658551e+003;5.177351e-002
1.660480e+003;5.227764e-002
1.662408e+003;5.240065e-002
1.664337e+003;5.245669e-002
1.666266e+003;5.285254e-002
1.668194e+003;5.351808e-002
1.670123e+003;5.408791e-002
1.672051e+003;5.408379e-002
1.673980e+003;5.405553e-002
1.675908e+003;5.468838e-002
1.677837e+003;5.582505e-002
1.679765e+003;5.691878e-002
1.681694e+003;5.778676e-002
1.683622e+003;5.899789e-002
1.685551e+003;6.064119e-002
1.687479e+003;6.194079e-002
1.689408e+003;6.277595e-002
1.691337e+003;6.418412e-002
1.693265e+003;6.588797e-002
1.695194e+003;6.727653e-002
1.697122e+003;6.827011e-002
1.699051e+003;6.879967e-002
1.700979e+003;6.927238e-002
1.702908e+003;6.947935e-002
1.704836e+003;6.931070e-002
1.706765e+003;6.903460e-002
1.708693e+003;6.809256e-002
1.710622e+003;6.637184e-002
1.712551e+003;6.523667e-002
1.714479e+003;6.461389e-002
1.716408e+003;6.447592e-002
1.718336e+003;6.552147e-002
1.720265e+003;6.800932e-002
1.722193e+003;7.205324e-002
1.724122e+003;7.719056e-002
1.726050e+003;8.230957e-002
1.727979e+003;8.574718e-002
1.729908e+003;8.674478e-002
1.731836e+003;8.534628e-002
1.733765e+003;8.160833e-002
1.735693e+003;7.563895e-002
1.737622e+003;6.839398e-002
1.739550e+003;6.080459e-002
1.741479e+003;5.392136e-002
1.743407e+003;4.771086e-002
1.745336e+003;4.210890e-002
1.747265e+003;3.730384e-002
1.749193e+003;3.344570e-002
1.751122e+003;3.037262e-002
1.753050e+003;2.813897e-002
1.754979e+003;2.621810e-002
1.756907e+003;2.479830e-002
1.758836e+003;2.394519e-002
1.760764e+003;2.320287e-002
1.762693e+003;2.244503e-002
1.764621e+003;2.175800e-002
1.766550e+003;2.127018e-002
1.768479e+003;2.084263e-002
1.770407e+003;2.019451e-002
1.772336e+003;1.943597e-002
1.774264e+003;1.917682e-002
1.776193e+003;1.916082e-002
1.778121e+003;1.913267e-002
1.780050e+003;1.909112e-002
1.781978e+003;1.884828e-002
1.783907e+003;1.878679e-002
1.785835e+003;1.878734e-002
1.787764e+003;1.873922e-002
1.789693e+003;1.877489e-002
1.791621e+003;1.884440e-002
1.793550e+003;1.885613e-002
1.795478e+003;1.877399e-002
1.797407e+003;1.837889e-002
1.799335e+003;1.825516e-002
1.801264e+003;1.817012e-002
1.803192e+003;1.782580e-002
1.805121e+003;1.781416e-002
1.807049e+003;1.793691e-002
1.808978e+003;1.781834e-002
1.810907e+003;1.765895e-002
1.812835e+003;1.775679e-002
1.814764e+003;1.806618e-002
1.816692e+003;1.786571e-002
1.818621e+003;1.738652e-002
1.820549e+003;1.721208e-002
1.822478e+003;1.725310e-002
1.824406e+003;1.702720e-002
1.826335e+003;1.686393e-002
1.828264e+003;1.720425e-002
1.830192e+003;1.754615e-002
1.832121e+003;1.732479e-002
1.834049e+003;1.736403e-002
1.835978e+003;1.758600e-002
1.837906e+003;1.747150e-002
1.839835e+003;1.731051e-002
1.841763e+003;1.719319e-002
1.843692e+003;1.699457e-002
1.845620e+003;1.684771e-002
1.847549e+003;1.697297e-002
1.849478e+003;1.705405e-002
1.851406e+003;1.702017e-002
1.853335e+003;1.712291e-002
1.855263e+003;1.697097e-002
1.857192e+003;1.679601e-002
1.859120e+003;1.689004e-002
1.861049e+003;1.720729e-002
1.862977e+003;1.746139e-002
1.864906e+003;1.743960e-002
1.866834e+003;1.763800e-002
1.868763e+003;1.777257e-002
1.870692e+003;1.780664e-002
1.872620e+003;1.789913e-002
1.874549e+003;1.790134e-002
1.876477e+003;1.780001e-002
1.878406e+003;1.766909e-002
1.880334e+003;1.794934e-002
1.882263e+003;1.797303e-002
1.884191e+003;1.808673e-002
1.886120e+003;1.852706e-002
1.888048e+003;1.866550e-002
1.889977e+003;1.867930e-002
1.891906e+003;1.873603e-002
1.893834e+003;1.897072e-002
1.895763e+003;1.955241e-002
1.897691e+003;1.961698e-002
1.899620e+003;1.941462e-002
1.901548e+003;1.939473e-002
1.903477e+003;1.934235e-002
1.905405e+003;1.934117e-002
1.907334e+003;1.933300e-002
1.909262e+003;1.904345e-002
1.911191e+003;1.881198e-002
1.913120e+003;1.884879e-002
1.915048e+003;1.902178e-002
1.916977e+003;1.911595e-002
1.918905e+003;1.912744e-002
1.920834e+003;1.921277e-002
1.922762e+003;1.920190e-002
1.924691e+003;1.916706e-002
1.926619e+003;1.902389e-002
1.928548e+003;1.883814e-002
1.930477e+003;1.909185e-002
1.932405e+003;1.915518e-002
1.934334e+003;1.928526e-002
1.936262e+003;1.919771e-002
1.938191e+003;1.879488e-002
1.940119e+003;1.877599e-002
1.942048e+003;1.903840e-002
1.943976e+003;1.919608e-002
1.945905e+003;1.893237e-002
1.947833e+003;1.871957e-002
1.949762e+003;1.887565e-002
1.951691e+003;1.890627e-002
1.953619e+003;1.892064e-002
1.955548e+003;1.927806e-002
1.957476e+003;1.937454e-002
1.959405e+003;1.922735e-002
1.961333e+003;1.919840e-002
1.963262e+003;1.951082e-002
1.965190e+003;1.956624e-002
1.967119e+003;1.933276e-002
1.969047e+003;1.945253e-002
1.970976e+003;1.958728e-002
1.972905e+003;1.962995e-002
1.974833e+003;1.965935e-002
1.976762e+003;1.958634e-002
1.978690e+003;1.937665e-002
1.980619e+003;1.964215e-002
1.982547e+003;1.987913e-002
1.984476e+003;1.997487e-002
1.986404e+003;1.994480e-002
1.988333e+003;1.985183e-002
1.990261e+003;2.001328e-002
1.992190e+003;1.996596e-002
1.994119e+003;1.993602e-002
1.996047e+003;2.020790e-002
1.997976e+003;2.012575e-002
1.999904e+003;1.996586e-002
2.001833e+003;2.019818e-002
2.003761e+003;2.042939e-002
2.005690e+003;2.020981e-002
2.007618e+003;2.009757e-002
2.009547e+003;2.008664e-002
2.011476e+003;2.008074e-002
2.013404e+003;2.037417e-002
2.015333e+003;2.089586e-002
2.017261e+003;2.115721e-002
2.019190e+003;2.162961e-002
2.021118e+003;2.172895e-002
2.023047e+003;2.155460e-002
2.024975e+003;2.154186e-002
2.026904e+003;2.166886e-002
2.028833e+003;2.183841e-002
2.030761e+003;2.208750e-002
2.032690e+003;2.230698e-002
2.034618e+003;2.245064e-002
2.036547e+003;2.235390e-002
2.038475e+003;2.225184e-002
2.040404e+003;2.243404e-002
2.042332e+003;2.234026e-002
2.044261e+003;2.237117e-002
2.046189e+003;2.285003e-002
2.048118e+003;2.301441e-002
2.050047e+003;2.272833e-002
2.051975e+003;2.267796e-002
2.053904e+003;2.300079e-002
2.055832e+003;2.344323e-002
2.057761e+003;2.365836e-002
2.059689e+003;2.363884e-002
2.061618e+003;2.355362e-002
2.063546e+003;2.370630e-002
2.065475e+003;2.377405e-002
2.067404e+003;2.385098e-002
2.069332e+003;2.410656e-002
2.071260e+003;2.431918e-002
2.073189e+003;2.415591e-002
2.075118e+003;2.374959e-002
2.077046e+003;2.368859e-002
2.078975e+003;2.425937e-002
2.080903e+003;2.435387e-002
2.082832e+003;2.413476e-002
2.084760e+003;2.409581e-002
2.086689e+003;2.387496e-002
2.088617e+003;2.370179e-002
2.090546e+003;2.358234e-002
2.092475e+003;2.361270e-002
2.094403e+003;2.362586e-002
2.096332e+003;2.344047e-002
2.098260e+003;2.356250e-002
2.100189e+003;2.363586e-002
2.102117e+003;2.344120e-002
2.104046e+003;2.333791e-002
2.105974e+003;2.329536e-002
2.107903e+003;2.305871e-002
2.109832e+003;2.269286e-002
2.111760e+003;2.258078e-002
2.113688e+003;2.227148e-002
2.115617e+003;2.225097e-002
2.117546e+003;2.222133e-002
2.119474e+003;2.195679e-002
2.121403e+003;2.193675e-002
2.123331e+003;2.202928e-002
2.125260e+003;2.188987e-002
2.127188e+003;2.167565e-002
2.129117e+003;2.149186e-002
2.131045e+003;2.110211e-002
2.132974e+003;2.114622e-002
2.134903e+003;2.141409e-002
2.136831e+003;2.139509e-002
2.138760e+003;2.137928e-002
2.140688e+003;2.179371e-002
2.142617e+003;2.188949e-002
2.144545e+003;2.132523e-002
2.146474e+003;2.091578e-002
2.148402e+003;2.108726e-002
2.150331e+003;2.132015e-002
2.152260e+003;2.145503e-002
2.154188e+003;2.171898e-002
2.156117e+003;2.173309e-002
2.158045e+003;2.146443e-002
2.159974e+003;2.111240e-002
2.161902e+003;2.105536e-002
2.163831e+003;2.132666e-002
2.165759e+003;2.167144e-002
2.167688e+003;2.174779e-002
2.169616e+003;2.171157e-002
2.171545e+003;2.173069e-002
2.173474e+003;2.183534e-002
2.175402e+003;2.189817e-002
2.177331e+003;2.180688e-002
2.179259e+003;2.184998e-002
2.181188e+003;2.167040e-002
2.183116e+003;2.136992e-002
2.185045e+003;2.141541e-002
2.186973e+003;2.186813e-002
2.188902e+003;2.183263e-002
2.190831e+003;2.151707e-002
2.192759e+003;2.132965e-002
2.194688e+003;2.121733e-002
2.196616e+003;2.140842e-002
2.198545e+003;2.162672e-002
2.200473e+003;2.171578e-002
2.202402e+003;2.174267e-002
2.204330e+003;2.170442e-002
2.206259e+003;2.153911e-002
2.208188e+003;2.127533e-002
2.210116e+003;2.136526e-002
2.212044e+003;2.158424e-002
2.213973e+003;2.171386e-002
2.215902e+003;2.170909e-002
2.217830e+003;2.157804e-002
2.219759e+003;2.130944e-002
2.221687e+003;2.124666e-002
2.223616e+003;2.140264e-002
2.225544e+003;2.143686e-002
2.227473e+003;2.112333e-002
2.229401e+003;2.081173e-002
2.231330e+003;2.088595e-002
2.233259e+003;2.119770e-002
2.235187e+003;2.148082e-002
2.237116e+003;2.159771e-002
2.239044e+003;2.137925e-002
2.240973e+003;2.098633e-002
2.242901e+003;2.079980e-002
2.244830e+003;2.091077e-002
2.246758e+003;2.127171e-002
2.248687e+003;2.105366e-002
2.250615e+003;2.091428e-002
2.252544e+003;2.091480e-002
2.254473e+003;2.052783e-002
2.256401e+003;2.021978e-002
2.258330e+003;2.061381e-002
2.260258e+003;2.065266e-002
2.262187e+003;2.026137e-002
2.264115e+003;2.023936e-002
2.266044e+003;2.042418e-002
2.267972e+003;2.058206e-002
2.269901e+003;2.065040e-002
2.271830e+003;2.068338e-002
2.273758e+003;2.037369e-002
2.275687e+003;2.045210e-002
2.277615e+003;2.068689e-002
2.279544e+003;2.075299e-002
2.281472e+003;2.065582e-002
2.283401e+003;2.060902e-002
2.285329e+003;2.065999e-002
2.287258e+003;2.082375e-002
2.289187e+003;2.075855e-002
2.291115e+003;2.053787e-002
2.293043e+003;2.032421e-002
2.294972e+003;2.023502e-002
2.296901e+003;2.012634e-002
2.298829e+003;2.027063e-002
2.300758e+003;2.016035e-002
2.302686e+003;2.000763e-002
2.304615e+003;2.014074e-002
2.306543e+003;2.017618e-002
2.308472e+003;2.021485e-002
2.310400e+003;1.999937e-002
2.312329e+003;1.976056e-002
2.314258e+003;1.981740e-002
2.316186e+003;1.956690e-002
2.318115e+003;1.934093e-002
2.320043e+003;1.936958e-002
2.321972e+003;1.966583e-002
2.323900e+003;1.989363e-002
2.325829e+003;1.992336e-002
2.327757e+003;1.971146e-002
2.329686e+003;1.995205e-002
2.331615e+003;2.042449e-002
2.333543e+003;2.014428e-002
2.335472e+003;1.952759e-002
2.337400e+003;1.932842e-002
2.339329e+003;1.950208e-002
2.341257e+003;1.995833e-002
2.343186e+003;2.017136e-002
2.345114e+003;1.996242e-002
2.347043e+003;2.024588e-002
2.348971e+003;2.040696e-002
2.350900e+003;2.020832e-002
2.352829e+003;2.020204e-002
2.354757e+003;1.992856e-002
2.356686e+003;1.991500e-002
2.358614e+003;2.001578e-002
2.360543e+003;1.960444e-002
2.362471e+003;1.952908e-002
2.364400e+003;1.990674e-002
2.366328e+003;2.018128e-002
2.368257e+003;1.996794e-002
2.370186e+003;1.972744e-002
2.372114e+003;1.996866e-002
2.374042e+003;2.044499e-002
2.375971e+003;2.049382e-002
2.377900e+003;2.037931e-002
2.379828e+003;2.027188e-002
2.381757e+003;2.022634e-002
2.383685e+003;2.024842e-002
2.385614e+003;2.054662e-002
2.387542e+003;2.064369e-002
2.389471e+003;2.053655e-002
2.391399e+003;2.031417e-002
2.393328e+003;2.005537e-002
2.395257e+003;2.015612e-002
2.397185e+003;2.018548e-002
2.399114e+003;1.996589e-002
2.401042e+003;2.007244e-002
2.402971e+003;2.021773e-002
2.404899e+003;1.993945e-002
2.406828e+003;1.996193e-002
2.408756e+003;2.012353e-002
2.410685e+003;2.014394e-002
2.412614e+003;2.019874e-002
2.414542e+003;2.005627e-002
2.416471e+003;1.991469e-002
2.418399e+003;2.006696e-002
2.420328e+003;2.032730e-002
2.422256e+003;2.037237e-002
2.424185e+003;1.996995e-002
2.426113e+003;1.983574e-002
2.428042e+003;2.019541e-002
2.429970e+003;2.036594e-002
2.431899e+003;2.019475e-002
2.433828e+003;2.011565e-002
2.435756e+003;2.030962e-002
2.437685e+003;2.011416e-002
2.439613e+003;2.017483e-002
2.441542e+003;2.034358e-002
2.443470e+003;2.000364e-002
2.445399e+003;1.975851e-002
2.447327e+003;1.990397e-002
2.449256e+003;2.011961e-002
2.451185e+003;2.017167e-002
2.453113e+003;1.993238e-002
2.455042e+003;1.978119e-002
2.456970e+003;1.975511e-002
2.458899e+003;1.979579e-002
2.460827e+003;2.001023e-002
2.462756e+003;2.015154e-002
2.464684e+003;2.021162e-002
2.466613e+003;2.014210e-002
2.468542e+003;2.004725e-002
2.470470e+003;2.034497e-002
2.472398e+003;2.072098e-002
2.474327e+003;2.082278e-002
2.476256e+003;2.058751e-002
2.478184e+003;2.023876e-002
2.480113e+003;2.052915e-002
2.482041e+003;2.092308e-002
2.483970e+003;2.076491e-002
2.485898e+003;2.057702e-002
2.487827e+003;2.074371e-002
2.489755e+003;2.097972e-002
2.491684e+003;2.070659e-002
2.493613e+003;2.059053e-002
2.495541e+003;2.078993e-002
2.497470e+003;2.053672e-002
2.499398e+003;2.024748e-002
2.501327e+003;2.050455e-002
2.503255e+003;2.090928e-002
2.505184e+003;2.090691e-002
2.507112e+003;2.064539e-002
2.509041e+003;2.062903e-002
2.510969e+003;2.077533e-002
2.512898e+003;2.085598e-002
2.514827e+003;2.063073e-002
2.516755e+003;2.056295e-002
2.518684e+003;2.088699e-002
2.520612e+003;2.107049e-002
2.522541e+003;2.102889e-002
2.524469e+003;2.091814e-002
2.526398e+003;2.116034e-002
2.528326e+003;2.155304e-002
2.530255e+003;2.162986e-002
2.532184e+003;2.131131e-002
2.534112e+003;2.090232e-002
2.536041e+003;2.090792e-002
2.537969e+003;2.119482e-002
2.539898e+003;2.127171e-002
2.541826e+003;2.122926e-002
2.543755e+003;2.135468e-002
2.545683e+003;2.137594e-002
2.547612e+003;2.156345e-002
2.549541e+003;2.201241e-002
2.551469e+003;2.220305e-002
2.553397e+003;2.219238e-002
2.555326e+003;2.267851e-002
2.557255e+003;2.281367e-002
2.559183e+003;2.254978e-002
2.561112e+003;2.239486e-002
2.563040e+003;2.256982e-002
2.564969e+003;2.314586e-002
2.566897e+003;2.312542e-002
2.568826e+003;2.316732e-002
2.570754e+003;2.339344e-002
2.572683e+003;2.384440e-002
2.574612e+003;2.419161e-002
2.576540e+003;2.392839e-002
2.578469e+003;2.373762e-002
2.580397e+003;2.385351e-002
2.582326e+003;2.379733e-002
2.584254e+003;2.385309e-002
2.586183e+003;2.413342e-002
2.588111e+003;2.435440e-002
2.590040e+003;2.430310e-002
2.591969e+003;2.429399e-002
2.593897e+003;2.437139e-002
2.595826e+003;2.433264e-002
2.597754e+003;2.469489e-002
2.599683e+003;2.493819e-002
2.601611e+003;2.510547e-002
2.603540e+003;2.505741e-002
2.605468e+003;2.479163e-002
2.607397e+003;2.445622e-002
2.609325e+003;2.432678e-002
2.611254e+003;2.495907e-002
2.613183e+003;2.552410e-002
2.615111e+003;2.578041e-002
2.617040e+003;2.607970e-002
2.618968e+003;2.630620e-002
2.620897e+003;2.617302e-002
2.622825e+003;2.619712e-002
2.624754e+003;2.617467e-002
2.626682e+003;2.558331e-002
2.628611e+003;2.533576e-002
2.630540e+003;2.530281e-002
2.632468e+003;2.522530e-002
2.634396e+003;2.558349e-002
2.636325e+003;2.594187e-002
2.638254e+003;2.594591e-002
2.640182e+003;2.580875e-002
2.642111e+003;2.574775e-002
2.644039e+003;2.570395e-002
2.645968e+003;2.588292e-002
2.647896e+003;2.609177e-002
2.649825e+003;2.603681e-002
2.651753e+003;2.636933e-002
2.653682e+003;2.657390e-002
2.655611e+003;2.662297e-002
2.657539e+003;2.684705e-002
2.659468e+003;2.730434e-002
2.661396e+003;2.771919e-002
2.663325e+003;2.806386e-002
2.665253e+003;2.860803e-002
2.667182e+003;2.864749e-002
2.669110e+003;2.854341e-002
2.671039e+003;2.872827e-002
2.672968e+003;2.923031e-002
2.674896e+003;2.968866e-002
2.676825e+003;2.985615e-002
2.678753e+003;3.041246e-002
2.680682e+003;3.094777e-002
2.682610e+003;3.112500e-002
2.684539e+003;3.149660e-002
2.686467e+003;3.214752e-002
2.688396e+003;3.240203e-002
2.690324e+003;3.280963e-002
2.692253e+003;3.359703e-002
2.694182e+003;3.407263e-002
2.696110e+003;3.405081e-002
2.698039e+003;3.392271e-002
2.699967e+003;3.402580e-002
2.701896e+003;3.446180e-002
2.703824e+003;3.477319e-002
2.705753e+003;3.475582e-002
2.707681e+003;3.467528e-002
2.709610e+003;3.485063e-002
2.711539e+003;3.510274e-002
2.713467e+003;3.534766e-002
2.715396e+003;3.573807e-002
2.717324e+003;3.614584e-002
2.719253e+003;3.654468e-002
2.721181e+003;3.664331e-002
2.723110e+003;3.698990e-002
2.725038e+003;3.740660e-002
2.726967e+003;3.818770e-002
2.728896e+003;3.882587e-002
2.730824e+003;3.943203e-002
2.732752e+003;4.035060e-002
2.734681e+003;4.113174e-002
2.736610e+003;4.173891e-002
2.738538e+003;4.188458e-002
2.740467e+003;4.169382e-002
2.742395e+003;4.154923e-002
2.744324e+003;4.160754e-002
2.746252e+003;4.162861e-002
2.748181e+003;4.140859e-002
2.750109e+003;4.108326e-002
2.752038e+003;4.086005e-002
2.753967e+003;4.081503e-002
2.755895e+003;4.119957e-002
2.757824e+003;4.148233e-002
2.759752e+003;4.146520e-002
2.761681e+003;4.151708e-002
2.763609e+003;4.164780e-002
2.765538e+003;4.177611e-002
2.767466e+003;4.179092e-002
2.769395e+003;4.215534e-002
2.771323e+003;4.290001e-002
2.773252e+003;4.354016e-002
2.775181e+003;4.390172e-002
2.777109e+003;4.466915e-002
2.779038e+003;4.581460e-002
2.780966e+003;4.724108e-002
2.782895e+003;4.868019e-002
2.784823e+003;5.020282e-002
2.786752e+003;5.216475e-002
2.788680e+003;5.444098e-002
2.790609e+003;5.684668e-002
2.792538e+003;5.883273e-002
2.794466e+003;6.068417e-002
2.796395e+003;6.273578e-002
2.798323e+003;6.453753e-002
2.800252e+003;6.548425e-002
2.802180e+003;6.566737e-002
2.804109e+003;6.529702e-002
2.806037e+003;6.428058e-002
2.807966e+003;6.269413e-002
2.809895e+003;6.081789e-002
2.811823e+003;5.885971e-002
2.813751e+003;5.753513e-002
2.815680e+003;5.675450e-002
2.817609e+003;5.685098e-002
2.819537e+003;5.761347e-002
2.821466e+003;5.875633e-002
2.823394e+003;6.019003e-002
2.825323e+003;6.163561e-002
2.827251e+003;6.362303e-002
2.829180e+003;6.675223e-002
2.831108e+003;7.054116e-002
2.833037e+003;7.431896e-002
2.834966e+003;7.870249e-002
2.836894e+003;8.360927e-002
2.838823e+003;8.844813e-002
2.840751e+003;9.315674e-002
2.842680e+003;9.753114e-002
2.844608e+003;1.019713e-001
2.846537e+003;1.068689e-001
2.848465e+003;1.117365e-001
2.850394e+003;1.156834e-001
2.852323e+003;1.183823e-001
2.854251e+003;1.201586e-001
2.856180e+003;1.218517e-001
2.858108e+003;1.235862e-001
2.860037e+003;1.239479e-001
2.861965e+003;1.229112e-001
2.863894e+003;1.208457e-001
2.865822e+003;1.186131e-001
2.867751e+003;1.163446e-001
2.869679e+003;1.129372e-001
2.871608e+003;1.090097e-001
2.873536e+003;1.048818e-001
2.875465e+003;1.006290e-001
2.877394e+003;9.672222e-002
2.879322e+003;9.272254e-002
2.881251e+003;8.875954e-002
2.883179e+003;8.500068e-002
2.885108e+003;8.179720e-002
2.887036e+003;7.948225e-002
2.888965e+003;7.730211e-002
2.890893e+003;7.536522e-002
2.892822e+003;7.384940e-002
2.894750e+003;7.247473e-002
2.896679e+003;7.172598e-002
2.898608e+003;7.187218e-002
2.900536e+003;7.233013e-002
2.902465e+003;7.243606e-002
2.904393e+003;7.267653e-002
2.906322e+003;7.372791e-002
2.908250e+003;7.523198e-002
2.910179e+003;7.646778e-002
2.912107e+003;7.803029e-002
2.914036e+003;7.956227e-002
2.915965e+003;8.035298e-002
2.917893e+003;8.141816e-002
2.919822e+003;8.288082e-002
2.921750e+003;8.490220e-002
2.923679e+003;8.651454e-002
2.925607e+003;8.756007e-002
2.927536e+003;8.952268e-002
2.929464e+003;9.136488e-002
2.931393e+003;9.318110e-002
2.933322e+003;9.549435e-002
2.935250e+003;9.676288e-002
2.937178e+003;9.856456e-002
2.939107e+003;1.006430e-001
2.941036e+003;1.009888e-001
2.942964e+003;9.935664e-002
2.944893e+003;9.713542e-002
2.946821e+003;9.509269e-002
2.948750e+003;9.264493e-002
2.950678e+003;8.937648e-002
2.952607e+003;8.557388e-002
2.954535e+003;8.173417e-002
2.956464e+003;7.780824e-002
2.958393e+003;7.451344e-002
2.960321e+003;7.157674e-002
2.962250e+003;6.897180e-002
2.964178e+003;6.625820e-002
2.966107e+003;6.347769e-002
2.968035e+003;6.097496e-002
2.969964e+003;5.897986e-002
2.971892e+003;5.703000e-002
2.973821e+003;5.487981e-002
2.975750e+003;5.254976e-002
2.977678e+003;5.018947e-002
2.979607e+003;4.815579e-002
2.981535e+003;4.651622e-002
2.983464e+003;4.511270e-002
2.985392e+003;4.358229e-002
2.987321e+003;4.224608e-002
2.989249e+003;4.124529e-002
2.991178e+003;4.000699e-002
2.993106e+003;3.878348e-002
2.995035e+003;3.794157e-002
2.996964e+003;3.679612e-002
2.998892e+003;3.598350e-002
3.000821e+003;3.584656e-002
3.002749e+003;3.511721e-002
3.004678e+003;3.422325e-002
3.006606e+003;3.386024e-002
3.008535e+003;3.340076e-002
3.010463e+003;3.321641e-002
3.012392e+003;3.324288e-002
3.014321e+003;3.299149e-002
3.016249e+003;3.224329e-002
3.018177e+003;3.191281e-002
3.020106e+003;3.229458e-002
3.022035e+003;3.220033e-002
3.023963e+003;3.249236e-002
3.025892e+003;3.314953e-002
3.027820e+003;3.340283e-002
3.029749e+003;3.341589e-002
3.031677e+003;3.324198e-002
3.033606e+003;3.305588e-002
3.035534e+003;3.320428e-002
3.037463e+003;3.335471e-002
3.039392e+003;3.332920e-002
3.041320e+003;3.304057e-002
3.043249e+003;3.279709e-002
3.045177e+003;3.267826e-002
3.047106e+003;3.242220e-002
3.049034e+003;3.218705e-002
3.050963e+003;3.241252e-002
3.052891e+003;3.264754e-002
3.054820e+003;3.246794e-002
3.056749e+003;3.219965e-002
3.058677e+003;3.229155e-002
3.060606e+003;3.272595e-002
3.062534e+003;3.281217e-002
3.064463e+003;3.217874e-002
3.066391e+003;3.147280e-002
3.068320e+003;3.141321e-002
3.070248e+003;3.159092e-002
3.072177e+003;3.147223e-002
3.074105e+003;3.129362e-002
3.076034e+003;3.101645e-002
3.077963e+003;3.056092e-002
3.079891e+003;3.018834e-002
3.081820e+003;3.016643e-002
3.083748e+003;3.007779e-002
3.085677e+003;2.984955e-002
3.087605e+003;3.011458e-002
3.089534e+003;3.054578e-002
3.091462e+003;3.072075e-002
3.093391e+003;3.067004e-002
3.095320e+003;3.047465e-002
3.097248e+003;3.072064e-002
3.099177e+003;3.090852e-002
3.101105e+003;3.095631e-002
3.103034e+003;3.063708e-002
3.104962e+003;3.042571e-002
3.106891e+003;3.076257e-002
3.108819e+003;3.136748e-002
3.110748e+003;3.195518e-002
3.112677e+003;3.209290e-002
3.114605e+003;3.166269e-002
3.116533e+003;3.192447e-002
3.118462e+003;3.216668e-002
3.120391e+003;3.190557e-002
3.122319e+003;3.171854e-002
3.124248e+003;3.142995e-002
3.126176e+003;3.149582e-002
3.128105e+003;3.107214e-002
3.130033e+003;3.056441e-002
3.131962e+003;3.054059e-002
3.133890e+003;2.991539e-002
3.135819e+003;2.971967e-002
3.137748e+003;3.059274e-002
3.139676e+003;3.094101e-002
3.141605e+003;3.029193e-002
3.143533e+003;2.983979e-002
3.145462e+003;2.960512e-002
3.147390e+003;2.936923e-002
3.149319e+003;2.880240e-002
3.151247e+003;2.842375e-002
3.153176e+003;2.869407e-002
3.155104e+003;2.896707e-002
3.157033e+003;2.895552e-002
3.158962e+003;2.914870e-002
3.160890e+003;2.953961e-002
3.162819e+003;2.960015e-002
3.164747e+003;2.963357e-002
3.166676e+003;2.989562e-002
3.168604e+003;2.994326e-002
3.170533e+003;2.972642e-002
3.172461e+003;2.952365e-002
3.174390e+003;2.995501e-002
3.176319e+003;3.084339e-002
3.178247e+003;3.121553e-002
3.180176e+003;3.133678e-002
3.182104e+003;3.146261e-002
3.184033e+003;3.167306e-002
3.185961e+003;3.182837e-002
3.187890e+003;3.164982e-002
3.189818e+003;3.150850e-002
3.191747e+003;3.171996e-002
3.193676e+003;3.182980e-002
3.195604e+003;3.239785e-002
3.197532e+003;3.281471e-002
3.199461e+003;3.271113e-002
3.201390e+003;3.265729e-002
3.203318e+003;3.227952e-002
3.205247e+003;3.182876e-002
3.207175e+003;3.158938e-002
3.209104e+003;3.217435e-002
3.211032e+003;3.270955e-002
3.212961e+003;3.254378e-002
3.214889e+003;3.247686e-002
3.216818e+003;3.265782e-002
3.218747e+003;3.291631e-002
3.220675e+003;3.299949e-002
3.222604e+003;3.295720e-002
3.224532e+003;3.358855e-002
3.226461e+003;3.415776e-002
3.228389e+003;3.402350e-002
3.230318e+003;3.386117e-002
3.232246e+003;3.454739e-002
3.234175e+003;3.540424e-002
3.236104e+003;3.585400e-002
3.238032e+003;3.608625e-002
3.239961e+003;3.647513e-002
3.241889e+003;3.666984e-002
3.243818e+003;3.642457e-002
3.245746e+003;3.649826e-002
3.247675e+003;3.687363e-002
3.249603e+003;3.740368e-002
3.251532e+003;3.742871e-002
3.253460e+003;3.747804e-002
3.255389e+003;3.813239e-002
3.257318e+003;3.868940e-002
3.259246e+003;3.889323e-002
3.261175e+003;3.950961e-002
3.263103e+003;4.023321e-002
3.265032e+003;4.035112e-002
3.266960e+003;4.034333e-002
3.268889e+003;4.056169e-002
3.270817e+003;4.059752e-002
3.272746e+003;4.058424e-002
3.274675e+003;4.126060e-002
3.276603e+003;4.219251e-002
3.278531e+003;4.246981e-002
3.280460e+003;4.189742e-002
3.282389e+003;4.138891e-002
3.284317e+003;4.131136e-002
3.286246e+003;4.132444e-002
3.288174e+003;4.202271e-002
3.290103e+003;4.246952e-002
3.292031e+003;4.252554e-002
3.293960e+003;4.273549e-002
3.295888e+003;4.273626e-002
3.297817e+003;4.287448e-002
3.299746e+003;4.309646e-002
3.301674e+003;4.311899e-002
3.303603e+003;4.286757e-002
3.305531e+003;4.278298e-002
3.307460e+003;4.257857e-002
3.309388e+003;4.270339e-002
3.311317e+003;4.320683e-002
3.313245e+003;4.331023e-002
3.315174e+003;4.265295e-002
3.317103e+003;4.255624e-002
3.319031e+003;4.318545e-002
3.320960e+003;4.312086e-002
3.322888e+003;4.278163e-002
3.324817e+003;4.279783e-002
3.326745e+003;4.282120e-002
3.328674e+003;4.277107e-002
3.330602e+003;4.328736e-002
3.332531e+003;4.370542e-002
3.334459e+003;4.304944e-002
3.336388e+003;4.206998e-002
3.338317e+003;4.161479e-002
3.340245e+003;4.172369e-002
3.342174e+003;4.174634e-002
3.344102e+003;4.181869e-002
3.346031e+003;4.132469e-002
3.347959e+003;4.046570e-002
3.349888e+003;4.026411e-002
3.351816e+003;4.048279e-002
3.353745e+003;4.047326e-002
3.355674e+003;4.023805e-002
3.357602e+003;4.011008e-002
3.359531e+003;3.962285e-002
3.361459e+003;3.902567e-002
3.363388e+003;3.868473e-002
3.365316e+003;3.860654e-002
3.367245e+003;3.874580e-002
3.369173e+003;3.828891e-002
3.371102e+003;3.817660e-002
3.373031e+003;3.837403e-002
3.374959e+003;3.780441e-002
3.376887e+003;3.761532e-002
3.378816e+003;3.747465e-002
3.380745e+003;3.706286e-002
3.382673e+003;3.686735e-002
3.384602e+003;3.647772e-002
3.386530e+003;3.627095e-002
3.388459e+003;3.585440e-002
3.390387e+003;3.564710e-002
3.392316e+003;3.587577e-002
3.394244e+003;3.566088e-002
3.396173e+003;3.543048e-002
3.398102e+003;3.531366e-002
3.400030e+003;3.502095e-002
3.401959e+003;3.463968e-002
3.403887e+003;3.395488e-002
3.405816e+003;3.354076e-002
3.407744e+003;3.345766e-002
3.409673e+003;3.295810e-002
3.411601e+003;3.229222e-002
3.413530e+003;3.257828e-002
3.415458e+003;3.301040e-002
3.417387e+003;3.248036e-002
3.419316e+003;3.199662e-002
3.421244e+003;3.182335e-002
3.423173e+003;3.157599e-002
3.425101e+003;3.126637e-002
3.427030e+003;3.095773e-002
3.428958e+003;3.045478e-002
3.430887e+003;2.998824e-002
3.432815e+003;2.957745e-002
3.434744e+003;2.925307e-002
3.436673e+003;2.906101e-002
3.438601e+003;2.889836e-002
3.440530e+003;2.895888e-002
3.442458e+003;2.848078e-002
3.444387e+003;2.811387e-002
3.446315e+003;2.785501e-002
3.448244e+003;2.727269e-002
3.450172e+003;2.713095e-002
3.452101e+003;2.722577e-002
3.454030e+003;2.631342e-002
3.455958e+003;2.568581e-002
3.457886e+003;2.564060e-002
3.459815e+003;2.525677e-002
3.461744e+003;2.483531e-002
3.463672e+003;2.472646e-002
3.465601e+003;2.519219e-002
3.467529e+003;2.530253e-002
3.469458e+003;2.503547e-002
3.471386e+003;2.448538e-002
3.473315e+003;2.399964e-002
3.475243e+003;2.397723e-002
3.477172e+003;2.401319e-002
3.479101e+003;2.401039e-002
3.481029e+003;2.366872e-002
3.482958e+003;2.308188e-002
3.484886e+003;2.262106e-002
3.486815e+003;2.246624e-002
3.488743e+003;2.296899e-002
3.490672e+003;2.308688e-002
3.492600e+003;2.323597e-002
3.494529e+003;2.336753e-002
3.496458e+003;2.324530e-002
3.498386e+003;2.323607e-002
3.500315e+003;2.324744e-002
3.502243e+003;2.361267e-002
3.504172e+003;2.365014e-002
3.506100e+003;2.322688e-002
3.508029e+003;2.323510e-002
3.509957e+003;2.335050e-002
3.511886e+003;2.346506e-002
3.513814e+003;2.361837e-002
3.515743e+003;2.312766e-002
3.517672e+003;2.326628e-002
3.519600e+003;2.369657e-002
3.521529e+003;2.357289e-002
3.523457e+003;2.299429e-002
3.525386e+003;2.267803e-002
3.527314e+003;2.251209e-002
3.529243e+003;2.263861e-002
3.531171e+003;2.271273e-002
3.533100e+003;2.266490e-002
3.535029e+003;2.206854e-002
3.536957e+003;2.157863e-002
3.538885e+003;2.173236e-002
3.540814e+003;2.194832e-002
3.542743e+003;2.224996e-002
3.544671e+003;2.227413e-002
3.546600e+003;2.179542e-002
3.548528e+003;2.167649e-002
3.550457e+003;2.182830e-002
3.552385e+003;2.159496e-002
3.554314e+003;2.130909e-002
3.556242e+003;2.125146e-002
3.558171e+003;2.157344e-002
3.560100e+003;2.188116e-002
3.562028e+003;2.194386e-002
3.563957e+003;2.199854e-002
3.565885e+003;2.205146e-002
3.567814e+003;2.123337e-002
3.569742e+003;2.108493e-002
3.571671e+003;2.186207e-002
3.573599e+003;2.222471e-002
3.575528e+003;2.174076e-002
3.577457e+003;2.128459e-002
3.579385e+003;2.150447e-002
3.581314e+003;2.181761e-002
3.583242e+003;2.211644e-002
3.585171e+003;2.214709e-002
3.587099e+003;2.168262e-002
3.589028e+003;2.114055e-002
3.590956e+003;2.099899e-002
3.592885e+003;2.142704e-002
3.594813e+003;2.174333e-002
3.596742e+003;2.130644e-002
3.598671e+003;2.076918e-002
3.600599e+003;2.095493e-002
3.602528e+003;2.078872e-002
3.604456e+003;2.047263e-002
3.606385e+003;2.084360e-002
3.608313e+003;2.086106e-002
3.610242e+003;2.145520e-002
3.612170e+003;2.208022e-002
3.614099e+003;2.177249e-002
3.616028e+003;2.120856e-002
3.617956e+003;2.098198e-002
3.619885e+003;2.107647e-002
3.621813e+003;2.098946e-002
3.623742e+003;2.067771e-002
3.625670e+003;2.063428e-002
3.627599e+003;2.107313e-002
3.629527e+003;2.109421e-002
3.631456e+003;2.119527e-002
3.633385e+003;2.091626e-002
3.635313e+003;2.087176e-002
3.637241e+003;2.144420e-002
3.639170e+003;2.174595e-002
3.641099e+003;2.143561e-002
3.643027e+003;2.104472e-002
3.644956e+003;2.085448e-002
3.646884e+003;2.104778e-002
3.648813e+003;2.140128e-002
3.650741e+003;2.157236e-002
3.652670e+003;2.120633e-002
3.654598e+003;2.077791e-002
3.656527e+003;2.032077e-002
3.658456e+003;2.045561e-002
3.660384e+003;2.121263e-002
3.662313e+003;2.178190e-002
3.664241e+003;2.201050e-002
3.666170e+003;2.204598e-002
3.668098e+003;2.175598e-002
3.670027e+003;2.139282e-002
3.671955e+003;2.153615e-002
3.673884e+003;2.192319e-002
3.675813e+003;2.221644e-002
3.677741e+003;2.250752e-002
3.679669e+003;2.213380e-002
3.681598e+003;2.181019e-002
3.683527e+003;2.168384e-002
3.685455e+003;2.110159e-002
3.687384e+003;2.051497e-002
3.689312e+003;2.088285e-002
3.691241e+003;2.139839e-002
3.693169e+003;2.113703e-002
3.695098e+003;2.065029e-002
3.697026e+003;2.088174e-002
3.698955e+003;2.184221e-002
3.700884e+003;2.188911e-002
3.702812e+003;2.162947e-002
3.704741e+003;2.176507e-002
3.706669e+003;2.181764e-002
3.708598e+003;2.151801e-002
3.710526e+003;2.136028e-002
3.712455e+003;2.135085e-002
3.714383e+003;2.117488e-002
3.716312e+003;2.127502e-002
3.718240e+003;2.144619e-002
3.720169e+003;2.106823e-002
3.722098e+003;2.094818e-002
3.724026e+003;2.110193e-002
3.725955e+003;2.084875e-002
3.727883e+003;2.085021e-002
3.729812e+003;2.111094e-002
3.731740e+003;2.116027e-002
3.733669e+003;2.102545e-002
3.735597e+003;2.103589e-002
3.737526e+003;2.085661e-002
3.739455e+003;2.099214e-002
3.741383e+003;2.110235e-002
3.743312e+003;2.079011e-002
3.745240e+003;2.118146e-002
3.747169e+003;2.146603e-002
3.749097e+003;2.199990e-002
3.751026e+003;2.220567e-002
3.752954e+003;2.183740e-002
3.754883e+003;2.226663e-002
3.756812e+003;2.213112e-002
3.758740e+003;2.115088e-002
3.760668e+003;2.063299e-002
3.762597e+003;2.112768e-002
3.764526e+003;2.169067e-002
3.766454e+003;2.171466e-002
3.768383e+003;2.155147e-002
3.770311e+003;2.102729e-002
3.772240e+003;2.129934e-002
3.774168e+003;2.233974e-002
3.776097e+003;2.245075e-002
3.778025e+003;2.148953e-002
3.779954e+003;2.165678e-002
3.781883e+003;2.224473e-002
3.783811e+003;2.204982e-002
3.785740e+003;2.174518e-002
3.787668e+003;2.179486e-002
3.789597e+003;2.193762e-002
3.791525e+003;2.244133e-002
3.793454e+003;2.273933e-002
3.795382e+003;2.220581e-002
3.797311e+003;2.201419e-002
3.799240e+003;2.192734e-002
3.801168e+003;2.209322e-002
3.803097e+003;2.213499e-002
3.805025e+003;2.278514e-002
3.806954e+003;2.339057e-002
3.808882e+003;2.282527e-002
3.810811e+003;2.247319e-002
3.812739e+003;2.254671e-002
3.814668e+003;2.217809e-002
3.816596e+003;2.219249e-002
3.818525e+003;2.257558e-002
3.820454e+003;2.288652e-002
3.822382e+003;2.336952e-002
3.824311e+003;2.310959e-002
3.826239e+003;2.291611e-002
3.828168e+003;2.291178e-002
3.830096e+003;2.278626e-002
3.832025e+003;2.277453e-002
3.833953e+003;2.294611e-002
3.835882e+003;2.343225e-002
3.837811e+003;2.331714e-002
3.839739e+003;2.295464e-002
3.841667e+003;2.292575e-002
3.843596e+003;2.338186e-002
3.845525e+003;2.352882e-002
3.847453e+003;2.308593e-002
3.849382e+003;2.294657e-002
3.851310e+003;2.331337e-002
3.853239e+003;2.373681e-002
3.855167e+003;2.389348e-002
3.857096e+003;2.367467e-002
3.859024e+003;2.331592e-002
3.860953e+003;2.318399e-002
3.862882e+003;2.330162e-002
3.864810e+003;2.322838e-002
3.866739e+003;2.304571e-002
3.868667e+003;2.338812e-002
3.870596e+003;2.417749e-002
3.872524e+003;2.387668e-002
3.874453e+003;2.278431e-002
3.876381e+003;2.272132e-002
3.878310e+003;2.317291e-002
3.880239e+003;2.355537e-002
3.882167e+003;2.364849e-002
3.884096e+003;2.325785e-002
3.886024e+003;2.310638e-002
3.887953e+003;2.339144e-002
3.889881e+003;2.296795e-002
3.891810e+003;2.252180e-002
3.893738e+003;2.286068e-002
3.895667e+003;2.325180e-002
3.897595e+003;2.310337e-002
3.899524e+003;2.314468e-002
3.901453e+003;2.364493e-002
3.903381e+003;2.294454e-002
3.905310e+003;2.267083e-002
3.907238e+003;2.344799e-002
3.909167e+003;2.379442e-002
3.911095e+003;2.386614e-002
3.913024e+003;2.398738e-002
3.914952e+003;2.411444e-002
3.916881e+003;2.381903e-002
3.918810e+003;2.376082e-002
3.920738e+003;2.435128e-002
3.922667e+003;2.425737e-002
3.924595e+003;2.433723e-002
3.926524e+003;2.456917e-002
3.928452e+003;2.441310e-002
3.930381e+003;2.417973e-002
3.932309e+003;2.389999e-002
3.934238e+003;2.374794e-002
3.936167e+003;2.400300e-002
3.938095e+003;2.426259e-002
3.940023e+003;2.452580e-002
3.941952e+003;2.454758e-002
3.943881e+003;2.429850e-002
3.945809e+003;2.477718e-002
3.947738e+003;2.468311e-002
3.949666e+003;2.422338e-002
3.951595e+003;2.463113e-002
3.953523e+003;2.476894e-002
3.955452e+003;2.519096e-002
3.957380e+003;2.557811e-002
3.959309e+003;2.601461e-002
3.961238e+003;2.583383e-002
3.963166e+003;2.504267e-002
3.965095e+003;2.492096e-002
3.967023e+003;2.516698e-002
3.968952e+003;2.520550e-002
3.970880e+003;2.508472e-002
3.972809e+003;2.508286e-002
3.974737e+003;2.497349e-002
3.976666e+003;2.450729e-002
3.978594e+003;2.523496e-002
3.980523e+003;2.560503e-002
3.982452e+003;2.513391e-002
3.984380e+003;2.497992e-002
3.986309e+003;2.485075e-002
3.988237e+003;2.439186e-002
3.990166e+003;2.421771e-002
3.992094e+003;2.468283e-002
3.994023e+003;2.516663e-002
3.995951e+003;2.533337e-002
3.997880e+003;2.529831e-002
3.999809e+003;2.545108e-002
4.001737e+003;0.000000e+000
