3.992094e+002;0.000000e+000
4.011380e+002;0.000000e+000
4.030665e+002;0.000000e+000
4.049951e+002;0.000000e+000
4.069236e+002;0.000000e+000
4.088522e+002;0.000000e+000
4.107807e+002;0.000000e+000
4.127093e+002;0.000000e+000
4.146378e+002;0.000000e+000
4.165664e+002;0.000000e+000
4.184949e+002;0.000000e+000
4.204235e+002;0.000000e+000
4.223520e+002;0.000000e+000
4.242806e+002;0.000000e+000
4.262091e+002;0.000000e+000
4.281377e+002;0.000000e+000
4.300662e+002;0.000000e+000
4.319948e+002;0.000000e+000
4.339233e+002;0.000000e+000
4.358519e+002;0.000000e+000
4.377804e+002;0.000000e+000
4.397090e+002;0.000000e+000
4.416375e+002;0.000000e+000
4.435660e+002;0.000000e+000
4.454946e+002;0.000000e+000
4.474232e+002;0.000000e+000
4.493517e+002;0.000000e+000
4.512802e+002;0.000000e+000
4.532088e+002;0.000000e+000
4.551373e+002;0.000000e+000
4.570659e+002;0.000000e+000
4.589944e+002;0.000000e+000
4.609230e+002;0.000000e+000
4.628515e+002;0.000000e+000
4.647801e+002;0.000000e+000
4.667086e+002;0.000000e+000
4.686372e+002;0.000000e+000
4.705657e+002;0.000000e+000
4.724943e+002;0.000000e+000
4.744228e+002;0.000000e+000
4.763513e+002;0.000000e+000
4.782799e+002;0.000000e+000
4.802085e+002;0.000000e+000
4.821370e+002;0.000000e+000
4.840656e+002;0.000000e+000
4.859941e+002;0.000000e+000
4.879226e+002;0.000000e+000
4.898512e+002;0.000000e+000
4.917798e+002;0.000000e+000
4.937083e+002;0.000000e+000
4.956368e+002;0.000000e+000
4.975654e+002;0.000000e+000
4.994939e+002;0.000000e+000
5.014225e+002;0.000000e+000
5.033510e+002;0.000000e+000
5.052796e+002;0.000000e+000
5.072081e+002;0.000000e+000
5.091367e+002;0.000000e+000
5.110652e+002;0.000000e+000
5.129938e+002;0.000000e+000
5.149223e+002;0.000000e+000
5.168509e+002;0.000000e+000
5.187794e+002;0.000000e+000
5.207079e+002;0.000000e+000
5.226365e+002;0.000000e+000
5.245651e+002;0.000000e+000
5.264936e+002;0.000000e+000
5.284222e+002;0.000000e+000
5.303507e+002;0.000000e+000
5.322792e+002;0.000000e+000
5.342078e+002;0.000000e+000
5.361364e+002;0.000000e+000
5.380649e+002;0.000000e+000
5.399935e+002;0.000000e+000
5.419220e+002;0.000000e+000
5.438505e+002;0.000000e+000
5.457791e+002;0.000000e+000
5.477076e+002;0.000000e+000
5.496362e+002;0.000000e+000
5.515648e+002;0.000000e+000
5.534933e+002;0.000000e+000
5.554218e+002;0.000000e+000
5.573504e+002;0.000000e+000
5.592789e+002;0.000000e+000
5.612075e+002;0.000000e+000
5.631360e+002;0.000000e+000
5.650646e+002;0.000000e+000
5.669931e+002;0.000000e+000
5.689217e+002;0.000000e+000
5.708502e+002;0.000000e+000
5.727787e+002;0.000000e+000
5.747073e+002;0.000000e+000
5.766359e+002;0.000000e+000
5.785644e+002;0.000000e+000
5.804930e+002;0.000000e+000
5.824215e+002;0.000000e+000
5.843500e+002;0.000000e+000
5.862786e+002;0.000000e+000
5.882072e+002;0.000000e+000
5.901357e+002;0.000000e+000
5.920643e+002;0.000000e+000
5.939928e+002;0.000000e+000
5.959213e+002;0.000000e+000
5.978499e+002;0.000000e+000
5.997784e+002;5.113968e-002
6.017070e+002;6.575787e-002
6.036355e+002;7.321925e-002
6.055641e+002;6.707046e-002
6.074926e+002;6.680644e-002
6.094211e+002;7.297428e-002
6.113497e+002;7.271484e-002
6.132783e+002;6.833631e-002
6.152068e+002;6.665576e-002
6.171354e+002;6.696565e-002
6.190639e+002;6.744814e-002
6.209924e+002;6.597686e-002
6.229210e+002;6.560779e-002
6.248495e+002;6.144194e-002
6.267781e+002;5.880288e-002
6.287067e+002;6.097244e-002
6.306352e+002;6.664958e-002
6.325637e+002;6.586996e-002
6.344923e+002;6.257655e-002
6.364208e+002;6.348671e-002
6.383494e+002;6.092623e-002
6.402780e+002;5.522475e-002
6.422065e+002;5.570480e-002
6.441350e+002;5.977922e-002
6.460636e+002;6.143476e-002
6.479921e+002;6.279072e-002
6.499207e+002;6.303714e-002
6.518492e+002;6.150343e-002
6.537778e+002;5.928204e-002
6.557063e+002;5.820656e-002
6.576349e+002;5.704618e-002
6.595634e+002;6.041349e-002
6.614919e+002;6.464849e-002
6.634205e+002;6.407240e-002
6.653491e+002;6.091372e-002
6.672776e+002;5.672414e-002
6.692062e+002;5.639427e-002
6.711347e+002;5.887777e-002
6.730632e+002;5.898548e-002
6.749918e+002;6.013972e-002
6.769203e+002;6.193552e-002
6.788489e+002;6.082693e-002
6.807775e+002;6.067080e-002
6.827060e+002;6.193552e-002
6.846345e+002;6.311695e-002
6.865631e+002;6.215958e-002
6.884916e+002;6.105084e-002
6.904202e+002;6.085929e-002
6.923488e+002;6.201344e-002
6.942773e+002;6.281749e-002
6.962058e+002;6.160144e-002
6.981344e+002;6.106536e-002
7.000629e+002;6.217036e-002
7.019915e+002;6.334510e-002
7.039200e+002;6.299550e-002
7.058486e+002;6.188405e-002
7.077771e+002;6.288377e-002
7.097057e+002;6.443317e-002
7.116342e+002;6.487123e-002
7.135627e+002;6.507579e-002
7.154913e+002;6.443582e-002
7.174199e+002;6.372075e-002
7.193484e+002;6.531250e-002
7.212770e+002;6.699341e-002
7.232055e+002;6.840022e-002
7.251340e+002;6.972464e-002
7.270626e+002;7.117637e-002
7.289911e+002;7.278336e-002
7.309197e+002;7.454766e-002
7.328483e+002;7.722148e-002
7.347768e+002;8.040166e-002
7.367053e+002;8.429497e-002
7.386339e+002;8.838225e-002
7.405624e+002;9.082952e-002
7.424910e+002;9.319033e-002
7.444196e+002;9.524045e-002
7.463481e+002;9.537337e-002
7.482766e+002;9.394164e-002
7.502052e+002;9.277057e-002
7.521337e+002;9.251162e-002
7.540623e+002;9.094863e-002
7.559908e+002;8.874138e-002
7.579194e+002;8.770302e-002
7.598479e+002;8.640780e-002
7.617765e+002;8.662030e-002
7.637050e+002;8.789015e-002
7.656335e+002;8.865818e-002
7.675621e+002;8.742859e-002
7.694907e+002;8.472699e-002
7.714192e+002;8.203103e-002
7.733478e+002;7.934162e-002
7.752763e+002;7.674485e-002
7.772048e+002;7.418416e-002
7.791334e+002;7.167424e-002
7.810620e+002;6.893712e-002
7.829905e+002;6.565480e-002
7.849191e+002;6.279770e-002
7.868476e+002;6.004699e-002
7.887761e+002;5.778974e-002
7.907047e+002;5.704191e-002
7.926332e+002;5.710127e-002
7.945618e+002;5.816383e-002
7.964903e+002;6.083352e-002
7.984189e+002;6.421839e-002
8.003474e+002;6.864111e-002
8.022759e+002;7.301724e-002
8.042045e+002;7.674386e-002
8.061331e+002;8.054423e-002
8.080616e+002;8.278087e-002
8.099902e+002;8.284815e-002
8.119187e+002;8.296962e-002
8.138472e+002;8.330277e-002
8.157758e+002;8.276307e-002
8.177043e+002;8.117308e-002
8.196329e+002;7.844941e-002
8.215615e+002;7.549432e-002
8.234900e+002;7.308985e-002
8.254185e+002;7.116509e-002
8.273471e+002;6.906820e-002
8.292756e+002;6.710581e-002
8.312042e+002;6.531788e-002
8.331328e+002;6.300864e-002
8.350613e+002;6.177135e-002
8.369898e+002;6.170328e-002
8.389184e+002;6.000856e-002
8.408469e+002;5.913436e-002
8.427755e+002;5.926392e-002
8.447040e+002;5.885736e-002
8.466326e+002;5.852033e-002
8.485611e+002;5.922499e-002
8.504897e+002;5.907449e-002
8.524182e+002;5.770932e-002
8.543467e+002;5.668586e-002
8.562753e+002;5.683595e-002
8.582039e+002;5.698297e-002
8.601324e+002;5.625549e-002
8.620610e+002;5.561629e-002
8.639895e+002;5.552264e-002
8.659180e+002;5.478298e-002
8.678466e+002;5.302779e-002
8.697751e+002;5.020212e-002
8.717037e+002;4.729209e-002
8.736323e+002;4.590423e-002
8.755608e+002;4.456145e-002
8.774893e+002;4.327700e-002
8.794179e+002;4.280950e-002
8.813464e+002;4.255953e-002
8.832750e+002;4.254663e-002
8.852036e+002;4.354159e-002
8.871321e+002;4.400819e-002
8.890606e+002;4.430163e-002
8.909892e+002;4.571670e-002
8.929177e+002;4.688570e-002
8.948463e+002;4.726819e-002
8.967748e+002;4.808457e-002
8.987034e+002;4.902139e-002
9.006319e+002;4.971737e-002
9.025605e+002;5.167434e-002
9.044890e+002;5.441198e-002
9.064175e+002;5.676583e-002
9.083461e+002;5.920494e-002
9.102747e+002;6.202108e-002
9.122032e+002;6.380747e-002
9.141318e+002;6.466899e-002
9.160603e+002;6.498562e-002
9.179888e+002;6.475956e-002
9.199174e+002;6.503099e-002
9.218459e+002;6.575938e-002
9.237745e+002;6.649991e-002
9.257031e+002;6.710341e-002
9.276316e+002;6.748161e-002
9.295601e+002;6.837253e-002
9.314887e+002;7.024401e-002
9.334172e+002;7.279033e-002
9.353458e+002;7.585098e-002
9.372744e+002;7.886839e-002
9.392029e+002;8.170041e-002
9.411314e+002;8.493467e-002
9.430600e+002;8.792289e-002
9.449885e+002;9.048472e-002
9.469171e+002;9.359883e-002
9.488456e+002;9.736978e-002
9.507742e+002;1.020327e-001
9.527027e+002;1.060182e-001
9.546313e+002;1.090371e-001
9.565598e+002;1.118177e-001
9.584883e+002;1.136127e-001
9.604169e+002;1.149131e-001
9.623455e+002;1.162416e-001
9.642740e+002;1.164985e-001
9.662026e+002;1.165063e-001
9.681311e+002;1.170327e-001
9.700596e+002;1.185958e-001
9.719882e+002;1.212284e-001
9.739167e+002;1.240692e-001
9.758453e+002;1.269659e-001
9.777739e+002;1.306396e-001
9.797024e+002;1.349581e-001
9.816309e+002;1.391511e-001
9.835595e+002;1.431439e-001
9.854880e+002;1.470133e-001
9.874166e+002;1.502175e-001
9.893452e+002;1.523747e-001
9.912737e+002;1.532201e-001
9.932022e+002;1.526106e-001
9.951307e+002;1.500793e-001
9.970593e+002;1.458979e-001
9.989879e+002;1.404984e-001
1.000916e+003;1.341825e-001
1.002845e+003;1.279362e-001
1.004773e+003;1.225754e-001
1.006702e+003;1.188644e-001
1.008631e+003;1.168191e-001
1.010559e+003;1.151447e-001
1.012488e+003;1.138639e-001
1.014416e+003;1.133708e-001
1.016345e+003;1.129974e-001
1.018273e+003;1.121482e-001
1.020202e+003;1.103014e-001
1.022130e+003;1.077900e-001
1.024059e+003;1.056349e-001
1.025988e+003;1.044613e-001
1.027916e+003;1.046749e-001
1.029845e+003;1.060001e-001
1.031773e+003;1.073628e-001
1.033702e+003;1.084328e-001
1.035630e+003;1.098236e-001
1.037559e+003;1.120985e-001
1.039487e+003;1.148871e-001
1.041416e+003;1.177701e-001
1.043344e+003;1.210376e-001
1.045273e+003;1.237458e-001
1.047202e+003;1.261360e-001
1.049130e+003;1.294974e-001
1.051059e+003;1.336469e-001
1.052987e+003;1.380735e-001
1.054916e+003;1.420772e-001
1.056844e+003;1.461964e-001
1.058773e+003;1.497675e-001
1.060701e+003;1.537128e-001
1.062630e+003;1.582075e-001
1.064558e+003;1.625303e-001
1.066487e+003;1.666187e-001
1.068416e+003;1.697436e-001
1.070344e+003;1.730475e-001
1.072273e+003;1.776522e-001
1.074201e+003;1.829816e-001
1.076130e+003;1.896390e-001
1.078058e+003;1.974278e-001
1.079987e+003;2.055518e-001
1.081915e+003;2.129304e-001
1.083844e+003;2.204728e-001
1.085773e+003;2.296019e-001
1.087701e+003;2.384866e-001
1.089630e+003;2.468490e-001
1.091558e+003;2.556805e-001
1.093487e+003;2.642959e-001
1.095415e+003;2.721553e-001
1.097344e+003;2.786777e-001
1.099272e+003;2.832327e-001
1.101201e+003;2.848108e-001
1.103129e+003;2.843460e-001
1.105058e+003;2.802109e-001
1.106987e+003;2.719658e-001
1.108915e+003;2.601970e-001
1.110844e+003;2.472283e-001
1.112772e+003;2.325703e-001
1.114701e+003;2.157476e-001
1.116629e+003;1.987282e-001
1.118558e+003;1.820751e-001
1.120486e+003;1.658189e-001
1.122415e+003;1.509285e-001
1.124344e+003;1.378940e-001
1.126272e+003;1.258267e-001
1.128201e+003;1.150752e-001
1.130129e+003;1.057239e-001
1.132058e+003;9.724613e-002
1.133986e+003;9.039290e-002
1.135915e+003;8.520991e-002
1.137843e+003;8.058898e-002
1.139772e+003;7.653192e-002
1.141700e+003;7.352585e-002
1.143629e+003;7.108095e-002
1.145557e+003;6.856362e-002
1.147486e+003;6.587856e-002
1.149415e+003;6.342087e-002
1.151343e+003;6.123419e-002
1.153272e+003;5.931379e-002
1.155200e+003;5.811056e-002
1.157129e+003;5.687055e-002
1.159057e+003;5.525956e-002
1.160986e+003;5.367893e-002
1.162914e+003;5.278613e-002
1.164843e+003;5.259482e-002
1.166771e+003;5.241209e-002
1.168700e+003;5.290524e-002
1.170629e+003;5.434687e-002
1.172557e+003;5.684211e-002
1.174486e+003;5.956390e-002
1.176414e+003;6.296309e-002
1.178343e+003;6.674389e-002
1.180271e+003;7.015347e-002
1.182200e+003;7.267430e-002
1.184128e+003;7.482497e-002
1.186057e+003;7.740299e-002
1.187986e+003;8.074334e-002
1.189914e+003;8.569277e-002
1.191843e+003;9.173425e-002
1.193771e+003;9.820604e-002
1.195700e+003;1.051530e-001
1.197628e+003;1.125737e-001
1.199557e+003;1.201458e-001
1.201485e+003;1.276634e-001
1.203414e+003;1.348553e-001
1.205343e+003;1.407499e-001
1.207271e+003;1.447761e-001
1.209200e+003;1.458080e-001
1.211128e+003;1.442190e-001
1.213057e+003;1.413500e-001
1.214985e+003;1.378709e-001
1.216914e+003;1.350465e-001
1.218842e+003;1.329123e-001
1.220771e+003;1.304744e-001
1.222699e+003;1.273168e-001
1.224628e+003;1.231809e-001
1.226557e+003;1.183260e-001
1.228485e+003;1.136754e-001
1.230414e+003;1.097782e-001
1.232342e+003;1.068961e-001
1.234271e+003;1.044461e-001
1.236199e+003;1.018763e-001
1.238128e+003;9.963688e-002
1.240056e+003;9.780398e-002
1.241985e+003;9.680466e-002
1.243913e+003;9.666361e-002
1.245842e+003;9.737642e-002
1.247771e+003;9.839945e-002
1.249699e+003;9.824484e-002
1.251628e+003;9.598602e-002
1.253556e+003;9.082238e-002
1.255485e+003;8.328134e-002
1.257413e+003;7.629870e-002
1.259342e+003;7.089171e-002
1.261270e+003;6.660450e-002
1.263199e+003;6.354401e-002
1.265127e+003;6.119982e-002
1.267056e+003;5.909764e-002
1.268985e+003;5.710154e-002
1.270913e+003;5.532798e-002
1.272842e+003;5.427518e-002
1.274770e+003;5.350972e-002
1.276699e+003;5.293222e-002
1.278627e+003;5.277932e-002
1.280556e+003;5.224513e-002
1.282484e+003;5.202022e-002
1.284413e+003;5.203366e-002
1.286342e+003;5.186401e-002
1.288270e+003;5.264756e-002
1.290199e+003;5.421035e-002
1.292127e+003;5.609202e-002
1.294056e+003;5.805277e-002
1.295984e+003;6.056923e-002
1.297913e+003;6.344020e-002
1.299841e+003;6.679200e-002
1.301770e+003;7.070271e-002
1.303698e+003;7.414046e-002
1.305627e+003;7.671587e-002
1.307556e+003;7.808680e-002
1.309484e+003;7.835301e-002
1.311413e+003;7.740747e-002
1.313341e+003;7.561604e-002
1.315270e+003;7.367600e-002
1.317198e+003;7.088044e-002
1.319127e+003;6.713010e-002
1.321055e+003;6.288109e-002
1.322984e+003;5.861858e-002
1.324912e+003;5.463678e-002
1.326841e+003;5.133493e-002
1.328770e+003;4.877134e-002
1.330698e+003;4.685229e-002
1.332627e+003;4.551943e-002
1.334555e+003;4.492192e-002
1.336484e+003;4.443576e-002
1.338412e+003;4.359870e-002
1.340341e+003;4.326221e-002
1.342269e+003;4.301878e-002
1.344198e+003;4.219886e-002
1.346126e+003;4.207692e-002
1.348055e+003;4.306513e-002
1.349984e+003;4.488367e-002
1.351912e+003;4.789666e-002
1.353841e+003;5.160191e-002
1.355769e+003;5.566329e-002
1.357698e+003;6.020293e-002
1.359626e+003;6.585507e-002
1.361555e+003;7.261934e-002
1.363483e+003;8.034026e-002
1.365412e+003;8.846991e-002
1.367341e+003;9.499520e-002
1.369269e+003;9.814693e-002
1.371198e+003;9.637912e-002
1.373126e+003;9.028288e-002
1.375055e+003;8.245645e-002
1.376983e+003;7.450329e-002
1.378912e+003;6.724005e-002
1.380840e+003;6.057167e-002
1.382769e+003;5.454514e-002
1.384698e+003;4.945612e-002
1.386626e+003;4.532027e-002
1.388555e+003;4.253449e-002
1.390483e+003;4.058548e-002
1.392412e+003;3.915477e-002
1.394340e+003;3.821882e-002
1.396269e+003;3.864942e-002
1.398197e+003;4.041224e-002
1.400126e+003;4.288819e-002
1.402054e+003;4.616313e-002
1.403983e+003;5.086337e-002
1.405911e+003;5.699551e-002
1.407840e+003;6.309614e-002
1.409769e+003;6.814272e-002
1.411697e+003;7.082053e-002
1.413626e+003;7.035122e-002
1.415554e+003;6.684954e-002
1.417483e+003;6.067537e-002
1.419411e+003;5.409918e-002
1.421340e+003;4.961934e-002
1.423268e+003;4.725412e-002
1.425197e+003;4.680088e-002
1.427125e+003;4.815383e-002
1.429054e+003;5.027409e-002
1.430983e+003;5.265425e-002
1.432911e+003;5.434108e-002
1.434840e+003;5.442002e-002
1.436768e+003;5.386367e-002
1.438697e+003;5.456918e-002
1.440625e+003;5.623625e-002
1.442554e+003;5.876816e-002
1.444482e+003;6.164990e-002
1.446411e+003;6.376779e-002
1.448340e+003;6.481349e-002
1.450268e+003;6.561141e-002
1.452197e+003;6.671023e-002
1.454125e+003;6.775220e-002
1.456054e+003;6.819416e-002
1.457982e+003;6.954303e-002
1.459911e+003;7.105301e-002
1.461839e+003;7.118012e-002
1.463768e+003;7.071578e-002
1.465697e+003;7.088715e-002
1.467625e+003;7.151834e-002
1.469554e+003;7.182276e-002
1.471482e+003;7.207859e-002
1.473411e+003;7.324883e-002
1.475339e+003;7.457276e-002
1.477268e+003;7.541472e-002
1.479196e+003;7.682343e-002
1.481125e+003;7.929063e-002
1.483053e+003;8.255485e-002
1.484982e+003;8.497030e-002
1.486911e+003;8.522020e-002
1.488839e+003;8.314682e-002
1.490768e+003;7.936214e-002
1.492696e+003;7.446612e-002
1.494625e+003;6.937639e-002
1.496553e+003;6.593389e-002
1.498482e+003;6.512314e-002
1.500410e+003;6.571370e-002
1.502339e+003;6.744237e-002
1.504267e+003;6.977452e-002
1.506196e+003;7.335309e-002
1.508125e+003;7.929298e-002
1.510053e+003;8.595282e-002
1.511982e+003;9.193689e-002
1.513910e+003;9.663828e-002
1.515839e+003;9.905023e-002
1.517767e+003;9.982134e-002
1.519696e+003;9.911679e-002
1.521624e+003;9.724566e-002
1.523553e+003;9.618283e-002
1.525481e+003;9.521814e-002
1.527410e+003;9.398150e-002
1.529339e+003;9.253708e-002
1.531267e+003;9.093075e-002
1.533196e+003;8.928979e-002
1.535124e+003;8.771287e-002
1.537053e+003;8.492187e-002
1.538981e+003;8.068457e-002
1.540910e+003;7.772271e-002
1.542838e+003;7.520756e-002
1.544767e+003;7.136421e-002
1.546695e+003;6.716915e-002
1.548624e+003;6.291487e-002
1.550553e+003;5.825388e-002
1.552481e+003;5.369419e-002
1.554410e+003;4.959935e-002
1.556338e+003;4.537647e-002
1.558267e+003;4.058541e-002
1.560195e+003;3.811137e-002
1.562124e+003;3.705968e-002
1.564052e+003;3.530208e-002
1.565981e+003;3.328863e-002
1.567910e+003;3.118854e-002
1.569838e+003;2.982453e-002
1.571767e+003;2.939607e-002
1.573695e+003;2.847806e-002
1.575624e+003;2.739457e-002
1.577552e+003;2.773226e-002
1.579481e+003;2.877620e-002
1.581409e+003;3.045997e-002
1.583338e+003;3.276761e-002
1.585266e+003;3.543461e-002
1.587195e+003;3.896256e-002
1.589124e+003;4.277436e-002
1.591052e+003;4.633079e-002
1.592981e+003;4.949206e-002
1.594909e+003;5.176452e-002
1.596838e+003;5.274542e-002
1.598766e+003;5.243284e-002
1.600695e+003;5.164889e-002
1.602623e+003;5.043152e-002
1.604552e+003;4.851162e-002
1.606480e+003;4.637459e-002
1.608409e+003;4.432684e-002
1.610338e+003;4.284599e-002
1.612266e+003;4.169933e-002
1.614195e+003;3.998585e-002
1.616123e+003;3.751597e-002
1.618052e+003;3.534327e-002
1.619980e+003;3.308187e-002
1.621909e+003;3.023726e-002
1.623837e+003;2.824950e-002
1.625766e+003;2.737837e-002
1.627694e+003;2.713176e-002
1.629623e+003;2.758370e-002
1.631552e+003;2.853969e-002
1.633480e+003;2.965500e-002
1.635409e+003;3.076965e-002
1.637337e+003;3.298645e-002
1.639266e+003;3.518311e-002
1.641194e+003;3.640634e-002
1.643123e+003;3.720737e-002
1.645051e+003;3.778713e-002
1.646980e+003;3.843488e-002
1.648909e+003;3.966681e-002
1.650837e+003;3.994955e-002
1.652766e+003;3.968565e-002
1.654694e+003;4.173500e-002
1.656623e+003;4.372165e-002
1.658551e+003;4.451979e-002
1.660480e+003;4.516752e-002
1.662408e+003;4.579707e-002
1.664337e+003;4.682856e-002
1.666266e+003;4.782648e-002
1.668194e+003;4.834074e-002
1.670123e+003;4.921398e-002
1.672051e+003;5.034943e-002
1.673980e+003;5.113990e-002
1.675908e+003;5.234252e-002
1.677837e+003;5.382556e-002
1.679765e+003;5.518781e-002
1.681694e+003;5.645102e-002
1.683622e+003;5.735420e-002
1.685551e+003;5.960510e-002
1.687479e+003;6.236264e-002
1.689408e+003;6.455933e-002
1.691337e+003;6.655803e-002
1.693265e+003;6.766852e-002
1.695194e+003;6.832211e-002
1.697122e+003;6.962444e-002
1.699051e+003;6.986344e-002
1.700979e+003;7.003829e-002
1.702908e+003;7.106151e-002
1.704836e+003;7.087712e-002
1.706765e+003;7.008801e-002
1.708693e+003;6.909555e-002
1.710622e+003;6.790865e-002
1.712551e+003;6.674933e-002
1.714479e+003;6.606766e-002
1.716408e+003;6.610432e-002
1.718336e+003;6.779016e-002
1.720265e+003;7.169627e-002
1.722193e+003;7.667310e-002
1.724122e+003;8.205997e-002
1.726050e+003;8.701440e-002
1.727979e+003;9.045235e-002
1.729908e+003;9.130199e-002
1.731836e+003;8.887281e-002
1.733765e+003;8.399912e-002
1.735693e+003;7.799301e-002
1.737622e+003;7.062146e-002
1.739550e+003;6.226527e-002
1.741479e+003;5.388261e-002
1.743407e+003;4.578794e-002
1.745336e+003;3.830509e-002
1.747265e+003;3.127973e-002
1.749193e+003;2.518836e-002
1.751122e+003;2.041352e-002
1.753050e+003;1.695119e-002
1.754979e+003;1.422528e-002
1.756907e+003;1.202597e-002
1.758836e+003;1.028296e-002
1.760764e+003;8.770307e-003
1.762693e+003;7.676310e-003
1.764621e+003;6.844238e-003
1.766550e+003;5.762833e-003
1.768479e+003;4.945910e-003
1.770407e+003;4.102323e-003
1.772336e+003;3.358864e-003
1.774264e+003;3.281870e-003
1.776193e+003;3.255630e-003
1.778121e+003;3.050104e-003
1.780050e+003;2.714389e-003
1.781978e+003;2.342121e-003
1.783907e+003;2.047599e-003
1.785835e+003;1.792036e-003
1.787764e+003;1.570407e-003
1.789693e+003;1.237961e-003
1.791621e+003;1.024752e-003
1.793550e+003;1.047901e-003
1.795478e+003;1.127058e-003
1.797407e+003;8.191497e-004
1.799335e+003;5.479518e-004
1.801264e+003;2.769232e-004
1.803192e+003;3.787386e-005
1.805121e+003;3.933188e-005
1.807049e+003;2.468525e-004
1.808978e+003;4.728485e-005
1.810907e+003;-2.011433e-004
1.812835e+003;-3.382331e-004
1.814764e+003;-4.111975e-004
1.816692e+003;-6.715714e-004
1.818621e+003;-1.125396e-003
1.820549e+003;-1.331602e-003
1.822478e+003;-1.316010e-003
1.824406e+003;-1.394557e-003
1.826335e+003;-1.300682e-003
1.828264e+003;-1.476524e-003
1.830192e+003;-1.747712e-003
1.832121e+003;-1.621630e-003
1.834049e+003;-1.658567e-003
1.835978e+003;-1.785001e-003
1.837906e+003;-1.860726e-003
1.839835e+003;-1.956822e-003
1.841763e+003;-2.193294e-003
1.843692e+003;-2.838311e-003
1.845620e+003;-2.754460e-003
1.847549e+003;-2.179711e-003
1.849478e+003;-2.122672e-003
1.851406e+003;-2.232358e-003
1.853335e+003;-2.181722e-003
1.855263e+003;-2.053787e-003
1.857192e+003;-2.213963e-003
1.859120e+003;-2.436061e-003
1.861049e+003;-1.896620e-003
1.862977e+003;-1.609911e-003
1.864906e+003;-2.108758e-003
1.866834e+003;-2.393654e-003
1.868763e+003;-2.319539e-003
1.870692e+003;-2.030208e-003
1.872620e+003;-1.789588e-003
1.874549e+003;-1.671770e-003
1.876477e+003;-1.845846e-003
1.878406e+003;-2.164117e-003
1.880334e+003;-1.990300e-003
1.882263e+003;-1.716195e-003
1.884191e+003;-1.369488e-003
1.886120e+003;-9.892819e-004
1.888048e+003;-6.269734e-004
1.889977e+003;-3.843504e-004
1.891906e+003;-9.157283e-005
1.893834e+003;-1.330790e-004
1.895763e+003;-3.482316e-004
1.897691e+003;-2.882367e-004
1.899620e+003;-5.745062e-005
1.901548e+003;-6.258569e-005
1.903477e+003;-1.377826e-004
1.905405e+003;-2.844951e-004
1.907334e+003;-5.702929e-004
1.909262e+003;-4.801118e-004
1.911191e+003;-3.805102e-004
1.913120e+003;-6.327966e-004
1.915048e+003;-8.940626e-004
1.916977e+003;-1.201731e-003
1.918905e+003;-1.118753e-003
1.920834e+003;-9.748681e-004
1.922762e+003;-1.143077e-003
1.924691e+003;-1.216038e-003
1.926619e+003;-1.375434e-003
1.928548e+003;-1.545006e-003
1.930477e+003;-1.560556e-003
1.932405e+003;-1.498946e-003
1.934334e+003;-1.382138e-003
1.936262e+003;-1.403508e-003
1.938191e+003;-1.773287e-003
1.940119e+003;-1.830867e-003
1.942048e+003;-1.984957e-003
1.943976e+003;-2.162468e-003
1.945905e+003;-2.022523e-003
1.947833e+003;-1.627539e-003
1.949762e+003;-1.476359e-003
1.951691e+003;-1.653352e-003
1.953619e+003;-1.699132e-003
1.955548e+003;-1.657874e-003
1.957476e+003;-1.802127e-003
1.959405e+003;-1.761836e-003
1.961333e+003;-1.649589e-003
1.963262e+003;-1.797871e-003
1.965190e+003;-1.789126e-003
1.967119e+003;-1.723951e-003
1.969047e+003;-1.708934e-003
1.970976e+003;-1.723786e-003
1.972905e+003;-1.939702e-003
1.974833e+003;-2.008605e-003
1.976762e+003;-1.897082e-003
1.978690e+003;-1.887779e-003
1.980619e+003;-2.097118e-003
1.982547e+003;-2.100382e-003
1.984476e+003;-1.817569e-003
1.986404e+003;-1.823047e-003
1.988333e+003;-1.976283e-003
1.990261e+003;-1.886855e-003
1.992190e+003;-1.635032e-003
1.994119e+003;-1.548836e-003
1.996047e+003;-1.413878e-003
1.997976e+003;-1.356772e-003
1.999904e+003;-1.522851e-003
2.001833e+003;-1.394293e-003
2.003761e+003;-1.088942e-003
2.005690e+003;-1.144002e-003
2.007618e+003;-1.226909e-003
2.009547e+003;-8.106624e-004
2.011476e+003;-3.796164e-004
2.013404e+003;-6.218119e-004
2.015333e+003;-5.479563e-004
2.017261e+003;9.169157e-005
2.019190e+003;3.806118e-004
2.021118e+003;2.731435e-004
2.023047e+003;2.032918e-004
2.024975e+003;3.937114e-004
2.026904e+003;7.454927e-004
2.028833e+003;8.829250e-004
2.030761e+003;9.022819e-004
2.032690e+003;1.116726e-003
2.034618e+003;1.308843e-003
2.036547e+003;1.420856e-003
2.038475e+003;1.683353e-003
2.040404e+003;1.794531e-003
2.042332e+003;1.956426e-003
2.044261e+003;2.207424e-003
2.046189e+003;2.338490e-003
2.048118e+003;2.377102e-003
2.050047e+003;2.419415e-003
2.051975e+003;2.234999e-003
2.053904e+003;2.229870e-003
2.055832e+003;2.302780e-003
2.057761e+003;2.224642e-003
2.059689e+003;2.299183e-003
2.061618e+003;2.695585e-003
2.063546e+003;2.718824e-003
2.065475e+003;2.559011e-003
2.067404e+003;2.626343e-003
2.069332e+003;2.757969e-003
2.071260e+003;2.713223e-003
2.073189e+003;2.655812e-003
2.075118e+003;2.596342e-003
2.077046e+003;2.555645e-003
2.078975e+003;2.669214e-003
2.080903e+003;2.759803e-003
2.082832e+003;2.709121e-003
2.084760e+003;2.258680e-003
2.086689e+003;1.772207e-003
2.088617e+003;1.765187e-003
2.090546e+003;1.688675e-003
2.092475e+003;1.451640e-003
2.094403e+003;1.440503e-003
2.096332e+003;1.547928e-003
2.098260e+003;1.446155e-003
2.100189e+003;1.218555e-003
2.102117e+003;8.178550e-004
2.104046e+003;5.546865e-004
2.105974e+003;5.293405e-004
2.107903e+003;4.045562e-004
2.109832e+003;1.384892e-004
2.111760e+003;-1.222805e-004
2.113688e+003;-5.810141e-004
2.115617e+003;-8.472388e-004
2.117546e+003;-9.206137e-004
2.119474e+003;-1.048453e-003
2.121403e+003;-1.231567e-003
2.123331e+003;-1.444889e-003
2.125260e+003;-1.560358e-003
2.127188e+003;-1.640182e-003
2.129117e+003;-1.854952e-003
2.131045e+003;-2.120298e-003
2.132974e+003;-2.000624e-003
2.134903e+003;-1.805559e-003
2.136831e+003;-1.882005e-003
2.138760e+003;-2.060844e-003
2.140688e+003;-2.011705e-003
2.142617e+003;-1.978163e-003
2.144545e+003;-1.974996e-003
2.146474e+003;-2.085280e-003
2.148402e+003;-2.182744e-003
2.150331e+003;-2.122771e-003
2.152260e+003;-1.929707e-003
2.154188e+003;-1.931818e-003
2.156117e+003;-1.944287e-003
2.158045e+003;-1.805295e-003
2.159974e+003;-1.665565e-003
2.161902e+003;-1.812224e-003
2.163831e+003;-2.205722e-003
2.165759e+003;-2.097348e-003
2.167688e+003;-1.893189e-003
2.169616e+003;-1.731112e-003
2.171545e+003;-1.489502e-003
2.173474e+003;-1.388315e-003
2.175402e+003;-1.344418e-003
2.177331e+003;-1.290970e-003
2.179259e+003;-1.227140e-003
2.181188e+003;-9.899762e-004
2.183116e+003;-9.525522e-004
2.185045e+003;-1.174867e-003
2.186973e+003;-1.482336e-003
2.188902e+003;-1.628496e-003
2.190831e+003;-1.456084e-003
2.192759e+003;-1.444096e-003
2.194688e+003;-1.567192e-003
2.196616e+003;-1.470614e-003
2.198545e+003;-1.189340e-003
2.200473e+003;-9.724217e-004
2.202402e+003;-1.037446e-003
2.204330e+003;-1.045941e-003
2.206259e+003;-9.421047e-004
2.208188e+003;-9.344672e-004
2.210116e+003;-8.929715e-004
2.212044e+003;-8.650298e-004
2.213973e+003;-9.158194e-004
2.215902e+003;-7.625396e-004
2.217830e+003;-7.275108e-004
2.219759e+003;-7.981940e-004
2.221687e+003;-7.786143e-004
2.223616e+003;-8.499505e-004
2.225544e+003;-8.514717e-004
2.227473e+003;-8.433366e-004
2.229401e+003;-9.395920e-004
2.231330e+003;-6.640946e-004
2.233259e+003;-4.142429e-004
2.235187e+003;-5.826025e-004
2.237116e+003;-8.388390e-004
2.239044e+003;-8.973692e-004
2.240973e+003;-6.474864e-004
2.242901e+003;-5.413378e-004
2.244830e+003;-6.223082e-004
2.246758e+003;-8.281242e-004
2.248687e+003;-9.367486e-004
2.250615e+003;-9.694794e-004
2.252544e+003;-1.013017e-003
2.254473e+003;-8.911198e-004
2.256401e+003;-6.715383e-004
2.258330e+003;-4.369506e-004
2.260258e+003;-5.501403e-004
2.262187e+003;-7.723630e-004
2.264115e+003;-8.045771e-004
2.266044e+003;-7.680964e-004
2.267972e+003;-7.778866e-004
2.269901e+003;-7.894295e-004
2.271830e+003;-5.486512e-004
2.273758e+003;-4.391022e-004
2.275687e+003;-2.261472e-004
2.277615e+003;-1.001195e-004
2.279544e+003;-1.434798e-004
2.281472e+003;-2.998258e-004
2.283401e+003;-4.191421e-004
2.285329e+003;-6.421266e-004
2.287258e+003;-9.039823e-004
2.289187e+003;-1.002241e-003
2.291115e+003;-6.558567e-004
2.293043e+003;-5.694657e-004
2.294972e+003;-7.517898e-004
2.296901e+003;-7.026350e-004
2.298829e+003;-4.558838e-004
2.300758e+003;-3.494897e-004
2.302686e+003;-4.594254e-004
2.304615e+003;-7.101442e-004
2.306543e+003;-7.907855e-004
2.308472e+003;-9.991003e-004
2.310400e+003;-1.196345e-003
2.312329e+003;-1.487289e-003
2.314258e+003;-1.795858e-003
2.316186e+003;-2.042509e-003
2.318115e+003;-2.490522e-003
2.320043e+003;-2.916089e-003
2.321972e+003;-3.333644e-003
2.323900e+003;-3.898331e-003
2.325829e+003;-4.733648e-003
2.327757e+003;-5.220147e-003
2.329686e+003;-4.937230e-003
2.331615e+003;-4.632263e-003
2.333543e+003;-4.814398e-003
2.335472e+003;-5.245878e-003
2.337400e+003;-5.412441e-003
2.339329e+003;-5.135871e-003
2.341257e+003;-4.751673e-003
2.343186e+003;-4.242271e-003
2.345114e+003;-3.220520e-003
2.347043e+003;-1.908892e-003
2.348971e+003;-1.452814e-003
2.350900e+003;-2.043399e-003
2.352829e+003;-3.143947e-003
2.354757e+003;-4.564004e-003
2.356686e+003;-5.967963e-003
2.358614e+003;-7.043105e-003
2.360543e+003;-7.512697e-003
2.362471e+003;-7.345016e-003
2.364400e+003;-7.007438e-003
2.366328e+003;-6.423701e-003
2.368257e+003;-5.462833e-003
2.370186e+003;-4.643507e-003
2.372114e+003;-3.485494e-003
2.374042e+003;-2.028591e-003
2.375971e+003;-8.581516e-004
2.377900e+003;-2.252530e-004
2.379828e+003;5.152649e-005
2.381757e+003;4.209400e-004
2.383685e+003;7.528611e-004
2.385614e+003;1.025947e-003
2.387542e+003;1.196228e-003
2.389471e+003;1.135595e-003
2.391399e+003;8.959070e-004
2.393328e+003;8.680510e-004
2.395257e+003;7.197704e-004
2.397185e+003;2.283204e-004
2.399114e+003;3.746425e-004
2.401042e+003;6.134791e-004
2.402971e+003;5.318950e-004
2.404899e+003;7.055658e-004
2.406828e+003;7.700547e-004
2.408756e+003;6.558863e-004
2.410685e+003;6.496809e-004
2.412614e+003;5.825888e-004
2.414542e+003;5.360418e-004
2.416471e+003;5.678246e-004
2.418399e+003;8.304035e-004
2.420328e+003;9.618521e-004
2.422256e+003;7.676316e-004
2.424185e+003;7.928588e-004
2.426113e+003;7.585037e-004
2.428042e+003;8.241292e-004
2.429970e+003;1.036243e-003
2.431899e+003;1.035911e-003
2.433828e+003;8.367774e-004
2.435756e+003;7.006872e-004
2.437685e+003;9.142020e-004
2.439613e+003;1.206428e-003
2.441542e+003;1.037505e-003
2.443470e+003;8.775464e-004
2.445399e+003;9.735081e-004
2.447327e+003;8.522812e-004
2.449256e+003;5.912484e-004
2.451185e+003;4.238254e-004
2.453113e+003;8.242952e-004
2.455042e+003;1.408789e-003
2.456970e+003;1.355672e-003
2.458899e+003;1.087461e-003
2.460827e+003;9.379765e-004
2.462756e+003;1.007349e-003
2.464684e+003;9.644423e-004
2.466613e+003;1.019770e-003
2.468542e+003;9.303725e-004
2.470470e+003;6.615940e-004
2.472398e+003;6.821358e-004
2.474327e+003;9.509934e-004
2.476256e+003;1.273384e-003
2.478184e+003;1.322503e-003
2.480113e+003;1.276740e-003
2.482041e+003;1.318049e-003
2.483970e+003;1.400147e-003
2.485898e+003;1.646133e-003
2.487827e+003;1.960387e-003
2.489755e+003;2.055289e-003
2.491684e+003;1.854956e-003
2.493613e+003;1.619460e-003
2.495541e+003;1.609017e-003
2.497470e+003;1.558469e-003
2.499398e+003;1.503472e-003
2.501327e+003;1.706438e-003
2.503255e+003;1.927071e-003
2.505184e+003;1.861345e-003
2.507112e+003;1.696591e-003
2.509041e+003;1.845772e-003
2.510969e+003;2.052593e-003
2.512898e+003;2.200064e-003
2.514827e+003;2.119247e-003
2.516755e+003;2.227872e-003
2.518684e+003;2.447537e-003
2.520612e+003;2.395892e-003
2.522541e+003;2.271770e-003
2.524469e+003;2.303380e-003
2.526398e+003;2.395159e-003
2.528326e+003;2.326564e-003
2.530255e+003;2.059917e-003
2.532184e+003;1.935857e-003
2.534112e+003;2.278964e-003
2.536041e+003;2.641077e-003
2.537969e+003;2.736996e-003
2.539898e+003;2.568577e-003
2.541826e+003;2.399724e-003
2.543755e+003;2.252651e-003
2.545683e+003;2.405288e-003
2.547612e+003;2.721591e-003
2.549541e+003;3.211500e-003
2.551469e+003;3.625575e-003
2.553397e+003;3.739591e-003
2.555326e+003;3.911808e-003
2.557255e+003;4.194015e-003
2.559183e+003;4.499739e-003
2.561112e+003;4.830739e-003
2.563040e+003;4.949764e-003
2.564969e+003;4.952479e-003
2.566897e+003;4.981938e-003
2.568826e+003;5.248609e-003
2.570754e+003;5.623042e-003
2.572683e+003;5.750276e-003
2.574612e+003;6.012950e-003
2.576540e+003;6.421737e-003
2.578469e+003;6.434583e-003
2.580397e+003;6.408588e-003
2.582326e+003;6.533159e-003
2.584254e+003;6.711872e-003
2.586183e+003;7.125460e-003
2.588111e+003;7.212672e-003
2.590040e+003;7.328308e-003
2.591969e+003;7.629368e-003
2.593897e+003;7.795038e-003
2.595826e+003;8.004409e-003
2.597754e+003;8.259468e-003
2.599683e+003;8.423656e-003
2.601611e+003;8.359135e-003
2.603540e+003;8.528430e-003
2.605468e+003;8.975954e-003
2.607397e+003;9.124205e-003
2.609325e+003;8.976461e-003
2.611254e+003;9.226169e-003
2.613183e+003;9.832765e-003
2.615111e+003;1.022054e-002
2.617040e+003;1.010497e-002
2.618968e+003;9.960390e-003
2.620897e+003;9.843881e-003
2.622825e+003;9.693827e-003
2.624754e+003;9.600255e-003
2.626682e+003;9.594631e-003
2.628611e+003;9.614076e-003
2.630540e+003;9.579490e-003
2.632468e+003;9.543316e-003
2.634396e+003;9.656659e-003
2.636325e+003;9.745466e-003
2.638254e+003;9.575019e-003
2.640182e+003;9.268072e-003
2.642111e+003;9.557304e-003
2.644039e+003;1.024259e-002
2.645968e+003;1.052765e-002
2.647896e+003;1.062967e-002
2.649825e+003;1.080186e-002
2.651753e+003;1.110561e-002
2.653682e+003;1.161018e-002
2.655611e+003;1.189886e-002
2.657539e+003;1.201708e-002
2.659468e+003;1.225041e-002
2.661396e+003;1.277945e-002
2.663325e+003;1.309052e-002
2.665253e+003;1.329570e-002
2.667182e+003;1.361918e-002
2.669110e+003;1.415325e-002
2.671039e+003;1.476385e-002
2.672968e+003;1.515324e-002
2.674896e+003;1.524884e-002
2.676825e+003;1.561507e-002
2.678753e+003;1.642487e-002
2.680682e+003;1.744201e-002
2.682610e+003;1.837232e-002
2.684539e+003;1.876849e-002
2.686467e+003;1.903971e-002
2.688396e+003;1.984622e-002
2.690324e+003;2.079953e-002
2.692253e+003;2.145583e-002
2.694182e+003;2.192793e-002
2.696110e+003;2.202967e-002
2.698039e+003;2.198073e-002
2.699967e+003;2.222645e-002
2.701896e+003;2.284025e-002
2.703824e+003;2.305679e-002
2.705753e+003;2.322982e-002
2.707681e+003;2.408768e-002
2.709610e+003;2.464379e-002
2.711539e+003;2.469191e-002
2.713467e+003;2.484134e-002
2.715396e+003;2.523573e-002
2.717324e+003;2.574107e-002
2.719253e+003;2.614870e-002
2.721181e+003;2.662466e-002
2.723110e+003;2.738645e-002
2.725038e+003;2.837200e-002
2.726967e+003;2.921203e-002
2.728896e+003;2.997397e-002
2.730824e+003;3.079782e-002
2.732752e+003;3.150195e-002
2.734681e+003;3.245404e-002
2.736610e+003;3.300099e-002
2.738538e+003;3.323751e-002
2.740467e+003;3.351438e-002
2.742395e+003;3.379466e-002
2.744324e+003;3.406540e-002
2.746252e+003;3.410862e-002
2.748181e+003;3.416640e-002
2.750109e+003;3.416747e-002
2.752038e+003;3.401451e-002
2.753967e+003;3.410353e-002
2.755895e+003;3.416930e-002
2.757824e+003;3.404260e-002
2.759752e+003;3.402605e-002
2.761681e+003;3.432035e-002
2.763609e+003;3.479053e-002
2.765538e+003;3.522252e-002
2.767466e+003;3.532293e-002
2.769395e+003;3.556445e-002
2.771323e+003;3.624675e-002
2.773252e+003;3.704298e-002
2.775181e+003;3.780068e-002
2.777109e+003;3.833610e-002
2.779038e+003;3.940282e-002
2.780966e+003;4.139601e-002
2.782895e+003;4.359254e-002
2.784823e+003;4.571777e-002
2.786752e+003;4.831578e-002
2.788680e+003;5.109372e-002
2.790609e+003;5.367687e-002
2.792538e+003;5.672376e-002
2.794466e+003;5.968508e-002
2.796395e+003;6.217327e-002
2.798323e+003;6.451485e-002
2.800252e+003;6.605350e-002
2.802180e+003;6.647841e-002
2.804109e+003;6.589425e-002
2.806037e+003;6.542781e-002
2.807966e+003;6.502248e-002
2.809895e+003;6.342946e-002
2.811823e+003;6.151183e-002
2.813751e+003;6.008347e-002
2.815680e+003;5.873778e-002
2.817609e+003;5.810636e-002
2.819537e+003;5.810359e-002
2.821466e+003;5.878088e-002
2.823394e+003;6.035680e-002
2.825323e+003;6.259844e-002
2.827251e+003;6.547812e-002
2.829180e+003;6.893545e-002
2.831108e+003;7.295649e-002
2.833037e+003;7.771015e-002
2.834966e+003;8.284719e-002
2.836894e+003;8.804526e-002
2.838823e+003;9.346843e-002
2.840751e+003;9.856024e-002
2.842680e+003;1.038072e-001
2.844608e+003;1.088839e-001
2.846537e+003;1.137295e-001
2.848465e+003;1.186279e-001
2.850394e+003;1.231184e-001
2.852323e+003;1.270270e-001
2.854251e+003;1.303205e-001
2.856180e+003;1.325440e-001
2.858108e+003;1.338030e-001
2.860037e+003;1.346129e-001
2.861965e+003;1.345815e-001
2.863894e+003;1.335015e-001
2.865822e+003;1.318706e-001
2.867751e+003;1.296567e-001
2.869679e+003;1.262328e-001
2.871608e+003;1.223585e-001
2.873536e+003;1.182572e-001
2.875465e+003;1.139639e-001
2.877394e+003;1.094967e-001
2.879322e+003;1.051009e-001
2.881251e+003;1.008440e-001
2.883179e+003;9.653258e-002
2.885108e+003;9.239003e-002
2.887036e+003;8.911910e-002
2.888965e+003;8.594042e-002
2.890893e+003;8.283740e-002
2.892822e+003;8.092510e-002
2.894750e+003;7.934516e-002
2.896679e+003;7.776456e-002
2.898608e+003;7.649390e-002
2.900536e+003;7.567181e-002
2.902465e+003;7.537007e-002
2.904393e+003;7.557325e-002
2.906322e+003;7.598026e-002
2.908250e+003;7.592808e-002
2.910179e+003;7.624202e-002
2.912107e+003;7.734424e-002
2.914036e+003;7.821164e-002
2.915965e+003;7.917475e-002
2.917893e+003;8.043515e-002
2.919822e+003;8.212914e-002
2.921750e+003;8.424786e-002
2.923679e+003;8.649028e-002
2.925607e+003;8.794890e-002
2.927536e+003;8.993667e-002
2.929464e+003;9.292264e-002
2.931393e+003;9.528168e-002
2.933322e+003;9.745976e-002
2.935250e+003;9.947752e-002
2.937178e+003;1.007477e-001
2.939107e+003;1.019801e-001
2.941036e+003;1.031089e-001
2.942964e+003;1.031323e-001
2.944893e+003;1.022497e-001
2.946821e+003;1.007852e-001
2.948750e+003;9.867080e-002
2.950678e+003;9.548985e-002
2.952607e+003;9.196965e-002
2.954535e+003;8.861356e-002
2.956464e+003;8.522987e-002
2.958393e+003;8.168898e-002
2.960321e+003;7.779936e-002
2.962250e+003;7.383059e-002
2.964178e+003;7.048157e-002
2.966107e+003;6.759635e-002
2.968035e+003;6.466737e-002
2.969964e+003;6.152057e-002
2.971892e+003;5.800607e-002
2.973821e+003;5.498296e-002
2.975750e+003;5.247460e-002
2.977678e+003;4.963438e-002
2.979607e+003;4.676372e-002
2.981535e+003;4.401739e-002
2.983464e+003;4.106862e-002
2.985392e+003;3.872896e-002
2.987321e+003;3.691518e-002
2.989249e+003;3.480310e-002
2.991178e+003;3.309042e-002
2.993106e+003;3.160271e-002
2.995035e+003;2.988288e-002
2.996964e+003;2.842772e-002
2.998892e+003;2.746258e-002
3.000821e+003;2.641429e-002
3.002749e+003;2.532834e-002
3.004678e+003;2.465337e-002
3.006606e+003;2.397075e-002
3.008535e+003;2.359458e-002
3.010463e+003;2.279300e-002
3.012392e+003;2.204961e-002
3.014321e+003;2.180998e-002
3.016249e+003;2.155502e-002
3.018177e+003;2.132433e-002
3.020106e+003;2.139088e-002
3.022035e+003;2.139982e-002
3.023963e+003;2.181123e-002
3.025892e+003;2.188256e-002
3.027820e+003;2.145242e-002
3.029749e+003;2.155697e-002
3.031677e+003;2.158204e-002
3.033606e+003;2.141486e-002
3.035534e+003;2.147620e-002
3.037463e+003;2.144072e-002
3.039392e+003;2.126531e-002
3.041320e+003;2.112253e-002
3.043249e+003;2.094165e-002
3.045177e+003;2.105929e-002
3.047106e+003;2.111202e-002
3.049034e+003;2.096546e-002
3.050963e+003;2.070138e-002
3.052891e+003;2.050650e-002
3.054820e+003;2.054943e-002
3.056749e+003;2.089071e-002
3.058677e+003;2.068876e-002
3.060606e+003;2.013172e-002
3.062534e+003;1.987941e-002
3.064463e+003;1.986592e-002
3.066391e+003;1.967107e-002
3.068320e+003;1.903030e-002
3.070248e+003;1.843862e-002
3.072177e+003;1.806082e-002
3.074105e+003;1.796329e-002
3.076034e+003;1.772998e-002
3.077963e+003;1.753891e-002
3.079891e+003;1.729493e-002
3.081820e+003;1.687275e-002
3.083748e+003;1.644682e-002
3.085677e+003;1.590031e-002
3.087605e+003;1.602409e-002
3.089534e+003;1.634370e-002
3.091462e+003;1.623754e-002
3.093391e+003;1.618113e-002
3.095320e+003;1.631026e-002
3.097248e+003;1.642112e-002
3.099177e+003;1.642992e-002
3.101105e+003;1.654546e-002
3.103034e+003;1.732427e-002
3.104962e+003;1.784710e-002
3.106891e+003;1.738158e-002
3.108819e+003;1.734268e-002
3.110748e+003;1.750151e-002
3.112677e+003;1.739955e-002
3.114605e+003;1.733831e-002
3.116533e+003;1.718536e-002
3.118462e+003;1.726465e-002
3.120391e+003;1.762085e-002
3.122319e+003;1.755923e-002
3.124248e+003;1.727410e-002
3.126176e+003;1.692070e-002
3.128105e+003;1.636888e-002
3.130033e+003;1.631989e-002
3.131962e+003;1.637803e-002
3.133890e+003;1.612074e-002
3.135819e+003;1.580759e-002
3.137748e+003;1.552097e-002
3.139676e+003;1.543121e-002
3.141605e+003;1.537735e-002
3.143533e+003;1.455185e-002
3.145462e+003;1.349602e-002
3.147390e+003;1.289446e-002
3.149319e+003;1.271417e-002
3.151247e+003;1.305641e-002
3.153176e+003;1.342691e-002
3.155104e+003;1.337808e-002
3.157033e+003;1.348747e-002
3.158962e+003;1.377002e-002
3.160890e+003;1.379393e-002
3.162819e+003;1.410176e-002
3.164747e+003;1.455925e-002
3.166676e+003;1.509890e-002
3.168604e+003;1.536681e-002
3.170533e+003;1.518721e-002
3.172461e+003;1.555448e-002
3.174390e+003;1.594712e-002
3.176319e+003;1.596984e-002
3.178247e+003;1.627503e-002
3.180176e+003;1.674487e-002
3.182104e+003;1.713138e-002
3.184033e+003;1.767327e-002
3.185961e+003;1.766658e-002
3.187890e+003;1.793338e-002
3.189818e+003;1.840834e-002
3.191747e+003;1.832490e-002
3.193676e+003;1.796450e-002
3.195604e+003;1.843330e-002
3.197532e+003;1.861753e-002
3.199461e+003;1.823981e-002
3.201390e+003;1.825170e-002
3.203318e+003;1.793311e-002
3.205247e+003;1.762779e-002
3.207175e+003;1.777012e-002
3.209104e+003;1.797572e-002
3.211032e+003;1.835393e-002
3.212961e+003;1.848008e-002
3.214889e+003;1.836420e-002
3.216818e+003;1.867733e-002
3.218747e+003;1.907191e-002
3.220675e+003;1.900641e-002
3.222604e+003;1.910798e-002
3.224532e+003;1.934149e-002
3.226461e+003;1.967852e-002
3.228389e+003;2.072272e-002
3.230318e+003;2.156397e-002
3.232246e+003;2.180054e-002
3.234175e+003;2.199018e-002
3.236104e+003;2.270906e-002
3.238032e+003;2.319410e-002
3.239961e+003;2.276381e-002
3.241889e+003;2.303139e-002
3.243818e+003;2.429511e-002
3.245746e+003;2.482152e-002
3.247675e+003;2.459119e-002
3.249603e+003;2.443914e-002
3.251532e+003;2.462132e-002
3.253460e+003;2.564988e-002
3.255389e+003;2.668276e-002
3.257318e+003;2.668431e-002
3.259246e+003;2.659666e-002
3.261175e+003;2.711430e-002
3.263103e+003;2.737107e-002
3.265032e+003;2.751715e-002
3.266960e+003;2.780287e-002
3.268889e+003;2.787670e-002
3.270817e+003;2.843210e-002
3.272746e+003;2.877068e-002
3.274675e+003;2.901340e-002
3.276603e+003;2.938823e-002
3.278531e+003;2.965319e-002
3.280460e+003;2.990063e-002
3.282389e+003;3.021925e-002
3.284317e+003;3.058442e-002
3.286246e+003;3.069265e-002
3.288174e+003;3.081781e-002
3.290103e+003;3.071879e-002
3.292031e+003;3.059235e-002
3.293960e+003;3.051254e-002
3.295888e+003;3.047021e-002
3.297817e+003;3.007935e-002
3.299746e+003;2.999850e-002
3.301674e+003;3.031556e-002
3.303603e+003;3.058858e-002
3.305531e+003;3.038055e-002
3.307460e+003;3.028383e-002
3.309388e+003;3.058488e-002
3.311317e+003;3.052161e-002
3.313245e+003;3.031957e-002
3.315174e+003;3.060262e-002
3.317103e+003;3.064394e-002
3.319031e+003;3.053931e-002
3.320960e+003;3.061390e-002
3.322888e+003;3.040855e-002
3.324817e+003;3.039060e-002
3.326745e+003;3.037820e-002
3.328674e+003;3.035983e-002
3.330602e+003;3.020912e-002
3.332531e+003;2.992090e-002
3.334459e+003;2.980452e-002
3.336388e+003;2.984299e-002
3.338317e+003;2.973972e-002
3.340245e+003;2.948624e-002
3.342174e+003;2.923464e-002
3.344102e+003;2.868423e-002
3.346031e+003;2.819823e-002
3.347959e+003;2.858064e-002
3.349888e+003;2.866168e-002
3.351816e+003;2.777147e-002
3.353745e+003;2.728821e-002
3.355674e+003;2.683947e-002
3.357602e+003;2.626213e-002
3.359531e+003;2.630262e-002
3.361459e+003;2.651522e-002
3.363388e+003;2.634528e-002
3.365316e+003;2.560429e-002
3.367245e+003;2.513865e-002
3.369173e+003;2.541420e-002
3.371102e+003;2.563888e-002
3.373031e+003;2.547501e-002
3.374959e+003;2.551911e-002
3.376887e+003;2.540741e-002
3.378816e+003;2.480602e-002
3.380745e+003;2.456325e-002
3.382673e+003;2.446722e-002
3.384602e+003;2.412463e-002
3.386530e+003;2.377934e-002
3.388459e+003;2.306654e-002
3.390387e+003;2.247912e-002
3.392316e+003;2.258863e-002
3.394244e+003;2.313115e-002
3.396173e+003;2.280620e-002
3.398102e+003;2.222652e-002
3.400030e+003;2.186161e-002
3.401959e+003;2.126114e-002
3.403887e+003;2.081284e-002
3.405816e+003;2.025769e-002
3.407744e+003;1.977498e-002
3.409673e+003;1.943049e-002
3.411601e+003;1.878952e-002
3.413530e+003;1.867363e-002
3.415458e+003;1.850034e-002
3.417387e+003;1.782677e-002
3.419316e+003;1.756844e-002
3.421244e+003;1.758842e-002
3.423173e+003;1.709278e-002
3.425101e+003;1.672528e-002
3.427030e+003;1.666688e-002
3.428958e+003;1.627830e-002
3.430887e+003;1.591870e-002
3.432815e+003;1.574698e-002
3.434744e+003;1.600219e-002
3.436673e+003;1.588835e-002
3.438601e+003;1.533053e-002
3.440530e+003;1.460572e-002
3.442458e+003;1.380959e-002
3.444387e+003;1.326188e-002
3.446315e+003;1.239702e-002
3.448244e+003;1.117992e-002
3.450172e+003;1.047642e-002
3.452101e+003;9.659404e-003
3.454030e+003;8.853893e-003
3.455958e+003;8.600580e-003
3.457886e+003;8.147703e-003
3.459815e+003;7.386171e-003
3.461744e+003;6.666750e-003
3.463672e+003;6.457720e-003
3.465601e+003;6.545773e-003
3.467529e+003;6.245900e-003
3.469458e+003;5.818842e-003
3.471386e+003;5.803731e-003
3.473315e+003;5.682525e-003
3.475243e+003;5.445281e-003
3.477172e+003;5.166217e-003
3.479101e+003;4.616295e-003
3.481029e+003;4.310556e-003
3.482958e+003;4.955428e-003
3.484886e+003;5.196630e-003
3.486815e+003;4.340775e-003
3.488743e+003;3.587454e-003
3.490672e+003;3.466764e-003
3.492600e+003;3.627981e-003
3.494529e+003;3.743100e-003
3.496458e+003;3.901110e-003
3.498386e+003;4.093793e-003
3.500315e+003;4.218538e-003
3.502243e+003;4.103493e-003
3.504172e+003;3.748314e-003
3.506100e+003;3.070592e-003
3.508029e+003;2.510652e-003
3.509957e+003;2.465931e-003
3.511886e+003;2.359645e-003
3.513814e+003;2.343620e-003
3.515743e+003;2.926161e-003
3.517672e+003;3.043664e-003
3.519600e+003;2.930531e-003
3.521529e+003;3.095486e-003
3.523457e+003;2.535681e-003
3.525386e+003;2.195401e-003
3.527314e+003;2.427945e-003
3.529243e+003;2.204560e-003
3.531171e+003;2.041407e-003
3.533100e+003;2.245690e-003
3.535029e+003;2.159304e-003
3.536957e+003;1.964680e-003
3.538885e+003;1.865970e-003
3.540814e+003;2.234666e-003
3.542743e+003;1.753942e-003
3.544671e+003;1.285081e-003
3.546600e+003;1.481429e-003
3.548528e+003;1.455762e-003
3.550457e+003;1.484919e-003
3.552385e+003;1.285646e-003
3.554314e+003;8.995593e-004
3.556242e+003;7.118715e-004
3.558171e+003;9.782901e-004
3.560100e+003;1.135928e-003
3.562028e+003;7.231557e-004
3.563957e+003;5.701470e-004
3.565885e+003;7.869502e-004
3.567814e+003;6.982313e-004
3.569742e+003;8.198468e-004
3.571671e+003;6.880429e-004
3.573599e+003;3.457256e-004
3.575528e+003;3.985865e-004
3.577457e+003;1.319266e-004
3.579385e+003;1.607031e-005
3.581314e+003;6.527455e-006
3.583242e+003;-1.187362e-004
3.585171e+003;-8.604058e-005
3.587099e+003;-2.993954e-004
3.589028e+003;-4.249349e-004
3.590956e+003;1.987835e-004
3.592885e+003;2.284199e-004
3.594813e+003;-5.174772e-004
3.596742e+003;-5.693664e-004
3.598671e+003;1.239058e-004
3.600599e+003;6.626227e-004
3.602528e+003;8.563647e-004
3.604456e+003;2.712537e-004
3.606385e+003;-3.487945e-004
3.608313e+003;-6.710751e-004
3.610242e+003;-1.062600e-003
3.612170e+003;-1.184945e-003
3.614099e+003;-8.046101e-004
3.616028e+003;-7.957796e-004
3.617956e+003;-9.265652e-004
3.619885e+003;-7.653842e-004
3.621813e+003;-5.077804e-004
3.623742e+003;-2.358172e-004
3.625670e+003;-3.872967e-004
3.627599e+003;-1.573432e-003
3.629527e+003;-2.052666e-003
3.631456e+003;-1.302168e-003
3.633385e+003;-1.106162e-003
3.635313e+003;-1.422366e-003
3.637241e+003;-1.413184e-003
3.639170e+003;-1.372626e-003
3.641099e+003;-8.871849e-004
3.643027e+003;-3.297573e-004
3.644956e+003;-4.922253e-004
3.646884e+003;-1.163301e-003
3.648813e+003;-1.448224e-003
3.650741e+003;-8.596066e-004
3.652670e+003;-4.821308e-004
3.654598e+003;-6.704465e-004
3.656527e+003;-8.896317e-004
3.658456e+003;-7.816240e-004
3.660384e+003;-5.723115e-004
3.662313e+003;-4.378112e-004
3.664241e+003;-2.722764e-004
3.666170e+003;-4.058730e-005
3.668098e+003;-6.691563e-004
3.670027e+003;-7.068362e-004
3.671955e+003;-9.856258e-005
3.673884e+003;-6.478503e-004
3.675813e+003;-4.810055e-004
3.677741e+003;4.351685e-004
3.679669e+003;-5.861016e-005
3.681598e+003;-3.012165e-004
3.683527e+003;2.361774e-004
3.685455e+003;1.883747e-004
3.687384e+003;-7.137168e-004
3.689312e+003;-1.273857e-003
3.691241e+003;-7.996492e-004
3.693169e+003;1.590463e-005
3.695098e+003;1.709750e-005
3.697026e+003;9.639762e-005
3.698955e+003;2.369067e-004
3.700884e+003;-8.442625e-004
3.702812e+003;-1.112044e-003
3.704741e+003;-7.855929e-004
3.706669e+003;-7.101442e-004
3.708598e+003;-9.217048e-004
3.710526e+003;-9.953647e-004
3.712455e+003;-1.090793e-003
3.714383e+003;-1.058005e-003
3.716312e+003;-7.597613e-004
3.718240e+003;-6.934386e-004
3.720169e+003;-6.212163e-004
3.722098e+003;-6.277343e-004
3.724026e+003;-1.137062e-003
3.725955e+003;-1.217096e-003
3.727883e+003;-9.099339e-004
3.729812e+003;-9.690826e-004
3.731740e+003;-1.428508e-003
3.733669e+003;-1.674477e-003
3.735597e+003;-1.965464e-003
3.737526e+003;-1.649259e-003
3.739455e+003;-1.232955e-003
3.741383e+003;-1.434519e-003
3.743312e+003;-2.036935e-003
3.745240e+003;-1.517535e-003
3.747169e+003;-8.218738e-004
3.749097e+003;-1.541704e-003
3.751026e+003;-1.845417e-003
3.752954e+003;-1.371966e-003
3.754883e+003;-7.047852e-004
3.756812e+003;-5.401133e-004
3.758740e+003;-2.710512e-004
3.760668e+003;1.631495e-004
3.762597e+003;3.946068e-004
3.764526e+003;-3.530322e-004
3.766454e+003;-6.816615e-004
3.768383e+003;-5.891211e-004
3.770311e+003;4.658896e-005
3.772240e+003;6.619259e-004
3.774168e+003;2.976788e-004
3.776097e+003;5.593386e-005
3.778025e+003;5.033352e-005
3.779954e+003;-1.597761e-004
3.781883e+003;-4.767727e-005
3.783811e+003;2.657500e-004
3.785740e+003;4.426975e-004
3.787668e+003;6.907310e-004
3.789597e+003;8.436163e-004
3.791525e+003;5.753228e-004
3.793454e+003;2.398904e-004
3.795382e+003;3.751399e-004
3.797311e+003;9.837032e-004
3.799240e+003;7.218614e-004
3.801168e+003;1.060302e-005
3.803097e+003;4.245882e-004
3.805025e+003;2.096234e-004
3.806954e+003;-3.215462e-004
3.808882e+003;7.145598e-004
3.810811e+003;1.452105e-003
3.812739e+003;1.110282e-003
3.814668e+003;2.772879e-004
3.816596e+003;1.740548e-004
3.818525e+003;8.762515e-004
3.820454e+003;2.466535e-004
3.822382e+003;-3.671096e-005
3.824311e+003;4.102274e-004
3.826239e+003;8.800365e-004
3.828168e+003;1.398385e-003
3.830096e+003;1.383959e-003
3.832025e+003;1.401942e-003
3.833953e+003;1.372125e-003
3.835882e+003;9.923376e-004
3.837811e+003;4.787856e-004
3.839739e+003;1.052319e-003
3.841667e+003;1.376779e-003
3.843596e+003;1.717182e-003
3.845525e+003;2.174155e-003
3.847453e+003;1.815459e-003
3.849382e+003;1.331775e-003
3.851310e+003;7.755315e-004
3.853239e+003;-2.882566e-005
3.855167e+003;5.546865e-004
3.857096e+003;1.880113e-003
3.859024e+003;2.714389e-003
3.860953e+003;2.781412e-003
3.862882e+003;2.191106e-003
3.864810e+003;1.709099e-003
3.866739e+003;2.109324e-003
3.868667e+003;1.462345e-003
3.870596e+003;1.111345e-003
3.872524e+003;1.877251e-003
3.874453e+003;2.158205e-003
3.876381e+003;2.554978e-003
3.878310e+003;2.964058e-003
3.880239e+003;2.517517e-003
3.882167e+003;2.273202e-003
3.884096e+003;2.106195e-003
3.886024e+003;1.943945e-003
3.887953e+003;2.358612e-003
3.889881e+003;2.098470e-003
3.891810e+003;1.961718e-003
3.893738e+003;2.365241e-003
3.895667e+003;2.512852e-003
3.897595e+003;2.186477e-003
3.899524e+003;1.918850e-003
3.901453e+003;1.534860e-003
3.903381e+003;1.948271e-003
3.905310e+003;2.645244e-003
3.907238e+003;3.028216e-003
3.909167e+003;3.058246e-003
3.911095e+003;3.094986e-003
3.913024e+003;3.040595e-003
3.914952e+003;2.326598e-003
3.916881e+003;2.123775e-003
3.918810e+003;2.533881e-003
3.920738e+003;2.524249e-003
3.922667e+003;2.423513e-003
3.924595e+003;2.947811e-003
3.926524e+003;3.236636e-003
3.928452e+003;3.218509e-003
3.930381e+003;3.171946e-003
3.932309e+003;3.029817e-003
3.934238e+003;3.431296e-003
3.936167e+003;3.803563e-003
3.938095e+003;3.507213e-003
3.940023e+003;3.124253e-003
3.941952e+003;3.156393e-003
3.943881e+003;3.883558e-003
3.945809e+003;3.889809e-003
3.947738e+003;3.645857e-003
3.949666e+003;4.015131e-003
3.951595e+003;4.209873e-003
3.953523e+003;4.103995e-003
3.955452e+003;4.196892e-003
3.957380e+003;4.306640e-003
3.959309e+003;4.441790e-003
3.961238e+003;4.740353e-003
3.963166e+003;4.448184e-003
3.965095e+003;4.619610e-003
3.967023e+003;4.826115e-003
3.968952e+003;4.868031e-003
3.970880e+003;4.291883e-003
3.972809e+003;4.072588e-003
3.974737e+003;4.491972e-003
3.976666e+003;4.493947e-003
3.978594e+003;4.760988e-003
3.980523e+003;5.025981e-003
3.982452e+003;5.018473e-003
3.984380e+003;5.391634e-003
3.986309e+003;5.269100e-003
3.988237e+003;4.862268e-003
3.990166e+003;4.599853e-003
3.992094e+003;4.596404e-003
3.994023e+003;4.801960e-003
3.995951e+003;4.670516e-003
3.997880e+003;4.611238e-003
3.999809e+003;4.909114e-003
4.001737e+003;0.000000e+000
