3.992094e+002;0.000000e+000
4.011380e+002;0.000000e+000
4.030665e+002;0.000000e+000
4.049951e+002;0.000000e+000
4.069236e+002;0.000000e+000
4.088522e+002;0.000000e+000
4.107807e+002;0.000000e+000
4.127093e+002;0.000000e+000
4.146378e+002;0.000000e+000
4.165664e+002;0.000000e+000
4.184949e+002;0.000000e+000
4.204235e+002;0.000000e+000
4.223520e+002;0.000000e+000
4.242806e+002;0.000000e+000
4.262091e+002;0.000000e+000
4.281377e+002;0.000000e+000
4.300662e+002;0.000000e+000
4.319948e+002;0.000000e+000
4.339233e+002;0.000000e+000
4.358519e+002;0.000000e+000
4.377804e+002;0.000000e+000
4.397090e+002;0.000000e+000
4.416375e+002;0.000000e+000
4.435660e+002;0.000000e+000
4.454946e+002;0.000000e+000
4.474232e+002;0.000000e+000
4.493517e+002;0.000000e+000
4.512802e+002;0.000000e+000
4.532088e+002;0.000000e+000
4.551373e+002;0.000000e+000
4.570659e+002;0.000000e+000
4.589944e+002;0.000000e+000
4.609230e+002;0.000000e+000
4.628515e+002;0.000000e+000
4.647801e+002;0.000000e+000
4.667086e+002;0.000000e+000
4.686372e+002;0.000000e+000
4.705657e+002;0.000000e+000
4.724943e+002;0.000000e+000
4.744228e+002;0.000000e+000
4.763513e+002;0.000000e+000
4.782799e+002;0.000000e+000
4.802085e+002;0.000000e+000
4.821370e+002;0.000000e+000
4.840656e+002;0.000000e+000
4.859941e+002;0.000000e+000
4.879226e+002;0.000000e+000
4.898512e+002;0.000000e+000
4.917798e+002;0.000000e+000
4.937083e+002;0.000000e+000
4.956368e+002;0.000000e+000
4.975654e+002;0.000000e+000
4.994939e+002;0.000000e+000
5.014225e+002;0.000000e+000
5.033510e+002;0.000000e+000
5.052796e+002;0.000000e+000
5.072081e+002;0.000000e+000
5.091367e+002;0.000000e+000
5.110652e+002;0.000000e+000
5.129938e+002;0.000000e+000
5.149223e+002;0.000000e+000
5.168509e+002;0.000000e+000
5.187794e+002;0.000000e+000
5.207079e+002;0.000000e+000
5.226365e+002;0.000000e+000
5.245651e+002;0.000000e+000
5.264936e+002;0.000000e+000
5.284222e+002;0.000000e+000
5.303507e+002;0.000000e+000
5.322792e+002;0.000000e+000
5.342078e+002;0.000000e+000
5.361364e+002;0.000000e+000
5.380649e+002;0.000000e+000
5.399935e+002;0.000000e+000
5.419220e+002;0.000000e+000
5.438505e+002;0.000000e+000
5.457791e+002;0.000000e+000
5.477076e+002;0.000000e+000
5.496362e+002;0.000000e+000
5.515648e+002;0.000000e+000
5.534933e+002;0.000000e+000
5.554218e+002;0.000000e+000
5.573504e+002;0.000000e+000
5.592789e+002;0.000000e+000
5.612075e+002;0.000000e+000
5.631360e+002;0.000000e+000
5.650646e+002;0.000000e+000
5.669931e+002;0.000000e+000
5.689217e+002;0.000000e+000
5.708502e+002;0.000000e+000
5.727787e+002;0.000000e+000
5.747073e+002;0.000000e+000
5.766359e+002;0.000000e+000
5.785644e+002;0.000000e+000
5.804930e+002;0.000000e+000
5.824215e+002;0.000000e+000
5.843500e+002;0.000000e+000
5.862786e+002;0.000000e+000
5.882072e+002;0.000000e+000
5.901357e+002;0.000000e+000
5.920643e+002;0.000000e+000
5.939928e+002;0.000000e+000
5.959213e+002;0.000000e+000
5.978499e+002;0.000000e+000
5.997784e+002;5.159885e-002
6.017070e+002;5.036271e-002
6.036355e+002;4.672708e-002
6.055641e+002;4.223611e-002
6.074926e+002;4.038526e-002
6.094211e+002;4.393424e-002
6.113497e+002;4.258101e-002
6.132783e+002;3.431597e-002
6.152068e+002;3.442230e-002
6.171354e+002;4.096895e-002
6.190639e+002;4.300817e-002
6.209924e+002;4.289463e-002
6.229210e+002;4.112795e-002
6.248495e+002;4.259768e-002
6.267781e+002;4.714777e-002
6.287067e+002;4.520296e-002
6.306352e+002;4.093876e-002
6.325637e+002;4.424920e-002
6.344923e+002;4.911272e-002
6.364208e+002;4.637536e-002
6.383494e+002;4.088015e-002
6.402780e+002;4.065716e-002
6.422065e+002;4.328706e-002
6.441350e+002;4.712203e-002
6.460636e+002;4.755072e-002
6.479921e+002;4.306327e-002
6.499207e+002;3.987382e-002
6.518492e+002;4.215559e-002
6.537778e+002;4.499056e-002
6.557063e+002;4.536121e-002
6.576349e+002;4.647876e-002
6.595634e+002;4.795208e-002
6.614919e+002;4.799353e-002
6.634205e+002;4.674966e-002
6.653491e+002;4.596194e-002
6.672776e+002;4.670741e-002
6.692062e+002;4.681214e-002
6.711347e+002;4.688603e-002
6.730632e+002;4.700796e-002
6.749918e+002;4.606781e-002
6.769203e+002;4.544095e-002
6.788489e+002;4.628509e-002
6.807775e+002;4.898826e-002
6.827060e+002;5.244024e-002
6.846345e+002;5.340435e-002
6.865631e+002;5.418708e-002
6.884916e+002;5.617297e-002
6.904202e+002;5.768174e-002
6.923488e+002;5.856894e-002
6.942773e+002;6.030612e-002
6.962058e+002;6.255800e-002
6.981344e+002;6.583483e-002
7.000629e+002;6.966559e-002
7.019915e+002;7.366861e-002
7.039200e+002;7.952625e-002
7.058486e+002;8.794861e-002
7.077771e+002;9.788330e-002
7.097057e+002;1.119464e-001
7.116342e+002;1.362225e-001
7.135627e+002;1.682382e-001
7.154913e+002;1.938113e-001
7.174199e+002;1.963428e-001
7.193484e+002;1.741067e-001
7.212770e+002;1.411197e-001
7.232055e+002;1.155578e-001
7.251340e+002;1.021440e-001
7.270626e+002;9.663281e-002
7.289911e+002;9.767409e-002
7.309197e+002;1.019442e-001
7.328483e+002;9.742410e-002
7.347768e+002;8.103825e-002
7.367053e+002;6.520564e-002
7.386339e+002;5.575415e-002
7.405624e+002;5.154788e-002
7.424910e+002;5.030333e-002
7.444196e+002;4.869565e-002
7.463481e+002;4.789684e-002
7.482766e+002;4.693863e-002
7.502052e+002;4.532295e-002
7.521337e+002;4.472780e-002
7.540623e+002;4.431374e-002
7.559908e+002;4.421864e-002
7.579194e+002;4.327194e-002
7.598479e+002;4.235255e-002
7.617765e+002;4.191337e-002
7.637050e+002;4.183664e-002
7.656335e+002;4.235236e-002
7.675621e+002;4.312800e-002
7.694907e+002;4.295323e-002
7.714192e+002;4.214526e-002
7.733478e+002;4.096265e-002
7.752763e+002;4.036238e-002
7.772048e+002;4.096130e-002
7.791334e+002;4.104280e-002
7.810620e+002;4.048996e-002
7.829905e+002;4.088266e-002
7.849191e+002;4.154865e-002
7.868476e+002;4.143250e-002
7.887761e+002;4.132790e-002
7.907047e+002;4.152601e-002
7.926332e+002;4.168343e-002
7.945618e+002;4.114664e-002
7.964903e+002;4.068030e-002
7.984189e+002;4.046828e-002
8.003474e+002;4.021522e-002
8.022759e+002;4.125397e-002
8.042045e+002;4.208367e-002
8.061331e+002;4.187936e-002
8.080616e+002;4.175641e-002
8.099902e+002;4.168908e-002
8.119187e+002;4.160681e-002
8.138472e+002;4.142831e-002
8.157758e+002;4.176174e-002
8.177043e+002;4.228253e-002
8.196329e+002;4.261417e-002
8.215615e+002;4.279615e-002
8.234900e+002;4.255587e-002
8.254185e+002;4.216618e-002
8.273471e+002;4.193114e-002
8.292756e+002;4.219039e-002
8.312042e+002;4.263953e-002
8.331328e+002;4.202300e-002
8.350613e+002;4.178461e-002
8.369898e+002;4.240496e-002
8.389184e+002;4.283912e-002
8.408469e+002;4.295026e-002
8.427755e+002;4.281674e-002
8.447040e+002;4.292276e-002
8.466326e+002;4.228169e-002
8.485611e+002;4.102838e-002
8.504897e+002;4.044268e-002
8.524182e+002;4.116922e-002
8.543467e+002;4.211686e-002
8.562753e+002;4.228048e-002
8.582039e+002;4.143990e-002
8.601324e+002;4.080298e-002
8.620610e+002;4.081259e-002
8.639895e+002;4.119589e-002
8.659180e+002;4.152477e-002
8.678466e+002;4.160958e-002
8.697751e+002;4.165633e-002
8.717037e+002;4.223841e-002
8.736323e+002;4.226660e-002
8.755608e+002;4.185576e-002
8.774893e+002;4.149564e-002
8.794179e+002;4.100791e-002
8.813464e+002;4.134197e-002
8.832750e+002;4.164484e-002
8.852036e+002;4.164707e-002
8.871321e+002;4.176167e-002
8.890606e+002;4.196034e-002
8.909892e+002;4.181278e-002
8.929177e+002;4.174452e-002
8.948463e+002;4.188900e-002
8.967748e+002;4.236299e-002
8.987034e+002;4.289335e-002
9.006319e+002;4.296650e-002
9.025605e+002;4.271619e-002
9.044890e+002;4.308376e-002
9.064175e+002;4.360723e-002
9.083461e+002;4.375284e-002
9.102747e+002;4.367036e-002
9.122032e+002;4.354767e-002
9.141318e+002;4.280463e-002
9.160603e+002;4.237746e-002
9.179888e+002;4.265847e-002
9.199174e+002;4.268160e-002
9.218459e+002;4.231956e-002
9.237745e+002;4.246408e-002
9.257031e+002;4.259055e-002
9.276316e+002;4.274050e-002
9.295601e+002;4.280639e-002
9.314887e+002;4.270738e-002
9.334172e+002;4.233702e-002
9.353458e+002;4.245560e-002
9.372744e+002;4.245915e-002
9.392029e+002;4.216363e-002
9.411314e+002;4.214175e-002
9.430600e+002;4.225784e-002
9.449885e+002;4.204465e-002
9.469171e+002;4.160305e-002
9.488456e+002;4.175631e-002
9.507742e+002;4.219101e-002
9.527027e+002;4.211934e-002
9.546313e+002;4.208623e-002
9.565598e+002;4.211211e-002
9.584883e+002;4.178308e-002
9.604169e+002;4.125444e-002
9.623455e+002;4.109765e-002
9.642740e+002;4.144263e-002
9.662026e+002;4.200545e-002
9.681311e+002;4.206513e-002
9.700596e+002;4.216092e-002
9.719882e+002;4.252945e-002
9.739167e+002;4.265828e-002
9.758453e+002;4.233940e-002
9.777739e+002;4.212777e-002
9.797024e+002;4.186447e-002
9.816309e+002;4.179840e-002
9.835595e+002;4.170637e-002
9.854880e+002;4.147832e-002
9.874166e+002;4.089187e-002
9.893452e+002;4.038824e-002
9.912737e+002;4.052335e-002
9.932022e+002;4.071214e-002
9.951307e+002;4.027425e-002
9.970593e+002;4.023394e-002
9.989879e+002;4.098858e-002
1.000916e+003;4.153075e-002
1.002845e+003;4.136347e-002
1.004773e+003;4.150577e-002
1.006702e+003;4.187870e-002
1.008631e+003;4.187254e-002
1.010559e+003;4.158052e-002
1.012488e+003;4.187455e-002
1.014416e+003;4.260481e-002
1.016345e+003;4.278123e-002
1.018273e+003;4.297331e-002
1.020202e+003;4.372177e-002
1.022130e+003;4.468219e-002
1.024059e+003;4.545372e-002
1.025988e+003;4.637628e-002
1.027916e+003;4.731496e-002
1.029845e+003;4.840815e-002
1.031773e+003;4.920801e-002
1.033702e+003;4.907232e-002
1.035630e+003;4.866092e-002
1.037559e+003;4.816490e-002
1.039487e+003;4.786073e-002
1.041416e+003;4.773815e-002
1.043344e+003;4.780480e-002
1.045273e+003;4.792392e-002
1.047202e+003;4.810419e-002
1.049130e+003;4.902209e-002
1.051059e+003;4.997800e-002
1.052987e+003;5.023500e-002
1.054916e+003;5.028715e-002
1.056844e+003;5.063013e-002
1.058773e+003;5.127318e-002
1.060701e+003;5.182570e-002
1.062630e+003;5.232910e-002
1.064558e+003;5.280872e-002
1.066487e+003;5.278781e-002
1.068416e+003;5.298743e-002
1.070344e+003;5.343069e-002
1.072273e+003;5.382890e-002
1.074201e+003;5.445052e-002
1.076130e+003;5.449450e-002
1.078058e+003;5.409204e-002
1.079987e+003;5.355305e-002
1.081915e+003;5.214681e-002
1.083844e+003;5.091281e-002
1.085773e+003;5.035531e-002
1.087701e+003;4.998098e-002
1.089630e+003;4.935309e-002
1.091558e+003;4.832608e-002
1.093487e+003;4.722992e-002
1.095415e+003;4.663588e-002
1.097344e+003;4.665053e-002
1.099272e+003;4.652825e-002
1.101201e+003;4.614920e-002
1.103129e+003;4.648801e-002
1.105058e+003;4.648808e-002
1.106987e+003;4.560988e-002
1.108915e+003;4.494419e-002
1.110844e+003;4.451094e-002
1.112772e+003;4.419010e-002
1.114701e+003;4.395561e-002
1.116629e+003;4.374368e-002
1.118558e+003;4.361207e-002
1.120486e+003;4.356818e-002
1.122415e+003;4.348072e-002
1.124344e+003;4.367563e-002
1.126272e+003;4.352533e-002
1.128201e+003;4.264995e-002
1.130129e+003;4.246342e-002
1.132058e+003;4.256523e-002
1.133986e+003;4.242148e-002
1.135915e+003;4.247131e-002
1.137843e+003;4.268990e-002
1.139772e+003;4.287627e-002
1.141700e+003;4.336255e-002
1.143629e+003;4.422865e-002
1.145557e+003;4.483109e-002
1.147486e+003;4.529956e-002
1.149415e+003;4.553886e-002
1.151343e+003;4.530133e-002
1.153272e+003;4.493243e-002
1.155200e+003;4.442934e-002
1.157129e+003;4.422642e-002
1.159057e+003;4.410012e-002
1.160986e+003;4.407079e-002
1.162914e+003;4.417572e-002
1.164843e+003;4.403778e-002
1.166771e+003;4.375343e-002
1.168700e+003;4.365665e-002
1.170629e+003;4.379872e-002
1.172557e+003;4.355448e-002
1.174486e+003;4.355991e-002
1.176414e+003;4.373477e-002
1.178343e+003;4.292327e-002
1.180271e+003;4.212996e-002
1.182200e+003;4.210985e-002
1.184128e+003;4.178706e-002
1.186057e+003;4.074303e-002
1.187986e+003;4.000521e-002
1.189914e+003;4.000252e-002
1.191843e+003;4.016833e-002
1.193771e+003;3.969193e-002
1.195700e+003;3.953715e-002
1.197628e+003;3.957603e-002
1.199557e+003;3.899982e-002
1.201485e+003;3.868335e-002
1.203414e+003;3.874750e-002
1.205343e+003;3.870447e-002
1.207271e+003;3.840838e-002
1.209200e+003;3.834240e-002
1.211128e+003;3.835528e-002
1.213057e+003;3.857880e-002
1.214985e+003;3.860570e-002
1.216914e+003;3.847115e-002
1.218842e+003;3.861888e-002
1.220771e+003;3.854842e-002
1.222699e+003;3.829940e-002
1.224628e+003;3.838206e-002
1.226557e+003;3.836397e-002
1.228485e+003;3.855732e-002
1.230414e+003;3.878938e-002
1.232342e+003;3.906079e-002
1.234271e+003;3.945017e-002
1.236199e+003;3.946269e-002
1.238128e+003;3.943210e-002
1.240056e+003;3.922378e-002
1.241985e+003;3.909516e-002
1.243913e+003;3.924938e-002
1.245842e+003;3.957232e-002
1.247771e+003;4.013613e-002
1.249699e+003;4.059345e-002
1.251628e+003;4.098741e-002
1.253556e+003;4.188235e-002
1.255485e+003;4.293527e-002
1.257413e+003;4.317912e-002
1.259342e+003;4.260857e-002
1.261270e+003;4.242378e-002
1.263199e+003;4.237023e-002
1.265127e+003;4.225849e-002
1.267056e+003;4.228541e-002
1.268985e+003;4.220416e-002
1.270913e+003;4.204837e-002
1.272842e+003;4.177217e-002
1.274770e+003;4.162179e-002
1.276699e+003;4.181329e-002
1.278627e+003;4.197289e-002
1.280556e+003;4.175163e-002
1.282484e+003;4.140349e-002
1.284413e+003;4.167402e-002
1.286342e+003;4.168977e-002
1.288270e+003;4.141438e-002
1.290199e+003;4.165294e-002
1.292127e+003;4.233129e-002
1.294056e+003;4.278328e-002
1.295984e+003;4.273443e-002
1.297913e+003;4.261442e-002
1.299841e+003;4.251980e-002
1.301770e+003;4.227979e-002
1.303698e+003;4.244921e-002
1.305627e+003;4.253376e-002
1.307556e+003;4.191545e-002
1.309484e+003;4.123112e-002
1.311413e+003;4.071967e-002
1.313341e+003;3.992471e-002
1.315270e+003;3.888182e-002
1.317198e+003;3.822761e-002
1.319127e+003;3.757088e-002
1.321055e+003;3.686212e-002
1.322984e+003;3.626433e-002
1.324912e+003;3.589399e-002
1.326841e+003;3.560534e-002
1.328770e+003;3.512720e-002
1.330698e+003;3.487799e-002
1.332627e+003;3.497968e-002
1.334555e+003;3.520711e-002
1.336484e+003;3.550354e-002
1.338412e+003;3.580057e-002
1.340341e+003;3.661205e-002
1.342269e+003;3.809513e-002
1.344198e+003;3.921464e-002
1.346126e+003;3.982981e-002
1.348055e+003;4.034137e-002
1.349984e+003;4.097936e-002
1.351912e+003;4.141344e-002
1.353841e+003;4.140021e-002
1.355769e+003;4.115218e-002
1.357698e+003;4.078216e-002
1.359626e+003;4.068284e-002
1.361555e+003;4.125101e-002
1.363483e+003;4.282149e-002
1.365412e+003;4.464440e-002
1.367341e+003;4.550125e-002
1.369269e+003;4.568376e-002
1.371198e+003;4.491435e-002
1.373126e+003;4.309836e-002
1.375055e+003;4.170112e-002
1.376983e+003;4.125364e-002
1.378912e+003;4.052237e-002
1.380840e+003;3.928960e-002
1.382769e+003;3.830038e-002
1.384698e+003;3.782270e-002
1.386626e+003;3.695108e-002
1.388555e+003;3.671207e-002
1.390483e+003;3.696713e-002
1.392412e+003;3.635608e-002
1.394340e+003;3.562383e-002
1.396269e+003;3.591547e-002
1.398197e+003;3.633590e-002
1.400126e+003;3.715413e-002
1.402054e+003;3.763650e-002
1.403983e+003;3.737280e-002
1.405911e+003;3.766100e-002
1.407840e+003;3.836038e-002
1.409769e+003;3.884225e-002
1.411697e+003;3.934180e-002
1.413626e+003;3.982356e-002
1.415554e+003;4.008824e-002
1.417483e+003;3.961170e-002
1.419411e+003;3.976640e-002
1.421340e+003;4.235218e-002
1.423268e+003;4.450147e-002
1.425197e+003;4.659951e-002
1.427125e+003;4.920626e-002
1.429054e+003;5.160821e-002
1.430983e+003;5.426779e-002
1.432911e+003;5.680880e-002
1.434840e+003;5.764496e-002
1.436768e+003;5.861069e-002
1.438697e+003;6.198202e-002
1.440625e+003;6.444389e-002
1.442554e+003;6.575587e-002
1.444482e+003;6.698760e-002
1.446411e+003;6.835538e-002
1.448340e+003;7.031503e-002
1.450268e+003;7.377585e-002
1.452197e+003;7.817998e-002
1.454125e+003;8.278544e-002
1.456054e+003;8.693308e-002
1.457982e+003;9.776521e-002
1.459911e+003;1.188800e-001
1.461839e+003;1.357092e-001
1.463768e+003;1.360259e-001
1.465697e+003;1.380462e-001
1.467625e+003;1.524864e-001
1.469554e+003;1.765837e-001
1.471482e+003;1.958740e-001
1.473411e+003;1.757344e-001
1.475339e+003;1.255848e-001
1.477268e+003;8.692817e-002
1.479196e+003;6.858624e-002
1.481125e+003;6.002218e-002
1.483053e+003;5.540002e-002
1.484982e+003;5.192476e-002
1.486911e+003;4.868994e-002
1.488839e+003;4.602622e-002
1.490768e+003;4.457974e-002
1.492696e+003;4.400826e-002
1.494625e+003;4.223122e-002
1.496553e+003;4.018375e-002
1.498482e+003;3.996289e-002
1.500410e+003;3.999791e-002
1.502339e+003;3.947376e-002
1.504267e+003;3.653001e-002
1.506196e+003;3.315875e-002
1.508125e+003;3.416798e-002
1.510053e+003;3.623655e-002
1.511982e+003;3.660347e-002
1.513910e+003;3.628302e-002
1.515839e+003;3.531466e-002
1.517767e+003;3.481745e-002
1.519696e+003;3.354946e-002
1.521624e+003;3.252560e-002
1.523553e+003;3.398484e-002
1.525481e+003;3.461147e-002
1.527410e+003;3.509620e-002
1.529339e+003;3.586768e-002
1.531267e+003;3.577790e-002
1.533196e+003;3.500292e-002
1.535124e+003;3.576970e-002
1.537053e+003;3.487730e-002
1.538981e+003;3.133724e-002
1.540910e+003;3.106236e-002
1.542838e+003;3.304182e-002
1.544767e+003;3.431497e-002
1.546695e+003;3.531750e-002
1.548624e+003;3.552148e-002
1.550553e+003;3.553331e-002
1.552481e+003;3.495052e-002
1.554410e+003;3.351138e-002
1.556338e+003;3.125979e-002
1.558267e+003;2.783597e-002
1.560195e+003;2.921362e-002
1.562124e+003;3.355000e-002
1.564052e+003;3.489339e-002
1.565981e+003;3.455608e-002
1.567910e+003;3.333628e-002
1.569838e+003;3.253942e-002
1.571767e+003;3.380214e-002
1.573695e+003;3.352358e-002
1.575624e+003;3.160663e-002
1.577552e+003;3.301683e-002
1.579481e+003;3.534982e-002
1.581409e+003;3.581896e-002
1.583338e+003;3.599682e-002
1.585266e+003;3.616834e-002
1.587195e+003;3.597302e-002
1.589124e+003;3.573336e-002
1.591052e+003;3.567836e-002
1.592981e+003;3.532803e-002
1.594909e+003;3.532919e-002
1.596838e+003;3.542739e-002
1.598766e+003;3.542200e-002
1.600695e+003;3.560552e-002
1.602623e+003;3.582957e-002
1.604552e+003;3.569890e-002
1.606480e+003;3.543792e-002
1.608409e+003;3.514815e-002
1.610338e+003;3.529767e-002
1.612266e+003;3.571070e-002
1.614195e+003;3.481239e-002
1.616123e+003;3.263575e-002
1.618052e+003;3.353833e-002
1.619980e+003;3.523783e-002
1.621909e+003;3.460656e-002
1.623837e+003;3.428313e-002
1.625766e+003;3.510859e-002
1.627694e+003;3.526133e-002
1.629623e+003;3.584505e-002
1.631552e+003;3.628500e-002
1.633480e+003;3.489192e-002
1.635409e+003;3.333296e-002
1.637337e+003;3.484499e-002
1.639266e+003;3.688506e-002
1.641194e+003;3.760409e-002
1.643123e+003;3.748173e-002
1.645051e+003;3.591954e-002
1.646980e+003;3.521476e-002
1.648909e+003;3.646810e-002
1.650837e+003;3.430852e-002
1.652766e+003;3.054599e-002
1.654694e+003;3.354663e-002
1.656623e+003;3.736338e-002
1.658551e+003;3.823857e-002
1.660480e+003;3.754866e-002
1.662408e+003;3.643480e-002
1.664337e+003;3.691262e-002
1.666266e+003;3.718145e-002
1.668194e+003;3.563120e-002
1.670123e+003;3.492219e-002
1.672051e+003;3.590424e-002
1.673980e+003;3.549246e-002
1.675908e+003;3.542984e-002
1.677837e+003;3.680088e-002
1.679765e+003;3.692114e-002
1.681694e+003;3.550005e-002
1.683622e+003;3.267883e-002
1.685551e+003;3.365994e-002
1.687479e+003;3.642299e-002
1.689408e+003;3.688308e-002
1.691337e+003;3.700866e-002
1.693265e+003;3.615052e-002
1.695194e+003;3.342956e-002
1.697122e+003;3.314921e-002
1.699051e+003;3.206165e-002
1.700979e+003;3.166183e-002
1.702908e+003;3.395277e-002
1.704836e+003;3.396331e-002
1.706765e+003;3.406074e-002
1.708693e+003;3.435969e-002
1.710622e+003;3.427836e-002
1.712551e+003;3.347380e-002
1.714479e+003;3.177853e-002
1.716408e+003;2.944219e-002
1.718336e+003;2.930375e-002
1.720265e+003;3.088718e-002
1.722193e+003;3.128215e-002
1.724122e+003;3.102100e-002
1.726050e+003;3.097172e-002
1.727979e+003;3.078896e-002
1.729908e+003;3.058524e-002
1.731836e+003;2.902038e-002
1.733765e+003;2.722908e-002
1.735693e+003;2.970569e-002
1.737622e+003;3.218002e-002
1.739550e+003;3.203693e-002
1.741479e+003;3.218902e-002
1.743407e+003;3.242759e-002
1.745336e+003;3.211159e-002
1.747265e+003;3.100762e-002
1.749193e+003;2.930577e-002
1.751122e+003;2.790200e-002
1.753050e+003;2.791101e-002
1.754979e+003;2.700908e-002
1.756907e+003;2.576667e-002
1.758836e+003;2.516266e-002
1.760764e+003;2.384668e-002
1.762693e+003;2.339945e-002
1.764621e+003;2.361533e-002
1.766550e+003;2.267715e-002
1.768479e+003;2.190559e-002
1.770407e+003;2.120752e-002
1.772336e+003;2.041536e-002
1.774264e+003;2.122095e-002
1.776193e+003;2.200332e-002
1.778121e+003;2.201210e-002
1.780050e+003;2.173647e-002
1.781978e+003;2.156265e-002
1.783907e+003;2.118302e-002
1.785835e+003;2.099603e-002
1.787764e+003;2.115791e-002
1.789693e+003;2.056833e-002
1.791621e+003;1.950704e-002
1.793550e+003;1.980952e-002
1.795478e+003;2.081955e-002
1.797407e+003;2.105648e-002
1.799335e+003;2.082984e-002
1.801264e+003;2.067927e-002
1.803192e+003;2.092656e-002
1.805121e+003;2.122655e-002
1.807049e+003;2.130916e-002
1.808978e+003;2.099666e-002
1.810907e+003;2.071688e-002
1.812835e+003;2.088845e-002
1.814764e+003;2.105731e-002
1.816692e+003;2.114295e-002
1.818621e+003;2.123292e-002
1.820549e+003;2.112510e-002
1.822478e+003;2.058261e-002
1.824406e+003;1.996044e-002
1.826335e+003;1.983872e-002
1.828264e+003;1.955792e-002
1.830192e+003;1.936387e-002
1.832121e+003;1.968750e-002
1.834049e+003;1.990012e-002
1.835978e+003;1.982277e-002
1.837906e+003;1.958828e-002
1.839835e+003;1.942374e-002
1.841763e+003;1.890825e-002
1.843692e+003;1.804352e-002
1.845620e+003;1.868449e-002
1.847549e+003;1.959820e-002
1.849478e+003;1.986911e-002
1.851406e+003;2.001314e-002
1.853335e+003;1.989710e-002
1.855263e+003;1.969658e-002
1.857192e+003;1.964988e-002
1.859120e+003;1.960756e-002
1.861049e+003;1.955615e-002
1.862977e+003;1.983546e-002
1.864906e+003;1.996922e-002
1.866834e+003;1.947797e-002
1.868763e+003;1.916806e-002
1.870692e+003;1.980408e-002
1.872620e+003;2.028935e-002
1.874549e+003;2.053255e-002
1.876477e+003;2.083147e-002
1.878406e+003;2.092923e-002
1.880334e+003;2.098925e-002
1.882263e+003;2.114823e-002
1.884191e+003;2.159096e-002
1.886120e+003;2.251656e-002
1.888048e+003;2.324604e-002
1.889977e+003;2.360273e-002
1.891906e+003;2.433796e-002
1.893834e+003;2.484727e-002
1.895763e+003;2.502080e-002
1.897691e+003;2.504952e-002
1.899620e+003;2.491169e-002
1.901548e+003;2.475810e-002
1.903477e+003;2.473039e-002
1.905405e+003;2.440234e-002
1.907334e+003;2.384710e-002
1.909262e+003;2.342403e-002
1.911191e+003;2.331047e-002
1.913120e+003;2.313360e-002
1.915048e+003;2.253740e-002
1.916977e+003;2.211055e-002
1.918905e+003;2.234804e-002
1.920834e+003;2.223789e-002
1.922762e+003;2.185454e-002
1.924691e+003;2.217488e-002
1.926619e+003;2.249946e-002
1.928548e+003;2.260919e-002
1.930477e+003;2.243491e-002
1.932405e+003;2.217610e-002
1.934334e+003;2.227810e-002
1.936262e+003;2.220424e-002
1.938191e+003;2.196017e-002
1.940119e+003;2.176385e-002
1.942048e+003;2.161558e-002
1.943976e+003;2.150777e-002
1.945905e+003;2.141789e-002
1.947833e+003;2.134124e-002
1.949762e+003;2.146220e-002
1.951691e+003;2.174957e-002
1.953619e+003;2.190301e-002
1.955548e+003;2.191807e-002
1.957476e+003;2.159458e-002
1.959405e+003;2.134309e-002
1.961333e+003;2.133564e-002
1.963262e+003;2.148532e-002
1.965190e+003;2.158716e-002
1.967119e+003;2.153510e-002
1.969047e+003;2.165685e-002
1.970976e+003;2.146272e-002
1.972905e+003;2.109275e-002
1.974833e+003;2.141235e-002
1.976762e+003;2.175013e-002
1.978690e+003;2.162111e-002
1.980619e+003;2.148755e-002
1.982547e+003;2.156345e-002
1.984476e+003;2.155547e-002
1.986404e+003;2.131893e-002
1.988333e+003;2.128775e-002
1.990261e+003;2.141183e-002
1.992190e+003;2.158521e-002
1.994119e+003;2.180277e-002
1.996047e+003;2.180618e-002
1.997976e+003;2.175549e-002
1.999904e+003;2.208768e-002
2.001833e+003;2.255443e-002
2.003761e+003;2.286009e-002
2.005690e+003;2.306521e-002
2.007618e+003;2.364223e-002
2.009547e+003;2.453853e-002
2.011476e+003;2.537331e-002
2.013404e+003;2.630536e-002
2.015333e+003;2.711903e-002
2.017261e+003;2.740833e-002
2.019190e+003;2.756979e-002
2.021118e+003;2.771206e-002
2.023047e+003;2.766333e-002
2.024975e+003;2.713264e-002
2.026904e+003;2.643986e-002
2.028833e+003;2.603178e-002
2.030761e+003;2.574367e-002
2.032690e+003;2.535346e-002
2.034618e+003;2.492798e-002
2.036547e+003;2.453152e-002
2.038475e+003;2.429777e-002
2.040404e+003;2.398434e-002
2.042332e+003;2.374297e-002
2.044261e+003;2.382557e-002
2.046189e+003;2.396869e-002
2.048118e+003;2.379344e-002
2.050047e+003;2.351105e-002
2.051975e+003;2.328372e-002
2.053904e+003;2.337441e-002
2.055832e+003;2.344684e-002
2.057761e+003;2.301619e-002
2.059689e+003;2.268721e-002
2.061618e+003;2.261369e-002
2.063546e+003;2.242894e-002
2.065475e+003;2.236813e-002
2.067404e+003;2.271803e-002
2.069332e+003;2.276601e-002
2.071260e+003;2.265073e-002
2.073189e+003;2.273273e-002
2.075118e+003;2.264898e-002
2.077046e+003;2.248428e-002
2.078975e+003;2.239461e-002
2.080903e+003;2.216602e-002
2.082832e+003;2.175898e-002
2.084760e+003;2.183998e-002
2.086689e+003;2.190552e-002
2.088617e+003;2.165744e-002
2.090546e+003;2.184067e-002
2.092475e+003;2.208321e-002
2.094403e+003;2.197379e-002
2.096332e+003;2.192845e-002
2.098260e+003;2.185830e-002
2.100189e+003;2.169551e-002
2.102117e+003;2.161753e-002
2.104046e+003;2.175549e-002
2.105974e+003;2.191650e-002
2.107903e+003;2.200290e-002
2.109832e+003;2.194881e-002
2.111760e+003;2.189242e-002
2.113688e+003;2.177615e-002
2.115617e+003;2.150673e-002
2.117546e+003;2.135586e-002
2.119474e+003;2.146871e-002
2.121403e+003;2.149736e-002
2.123331e+003;2.158375e-002
2.125260e+003;2.168697e-002
2.127188e+003;2.159726e-002
2.129117e+003;2.186900e-002
2.131045e+003;2.231654e-002
2.132974e+003;2.256521e-002
2.134903e+003;2.264406e-002
2.136831e+003;2.285045e-002
2.138760e+003;2.301319e-002
2.140688e+003;2.297518e-002
2.142617e+003;2.318843e-002
2.144545e+003;2.369111e-002
2.146474e+003;2.392229e-002
2.148402e+003;2.390826e-002
2.150331e+003;2.377517e-002
2.152260e+003;2.370466e-002
2.154188e+003;2.364857e-002
2.156117e+003;2.368079e-002
2.158045e+003;2.372558e-002
2.159974e+003;2.371708e-002
2.161902e+003;2.335162e-002
2.163831e+003;2.298744e-002
2.165759e+003;2.308108e-002
2.167688e+003;2.337907e-002
2.169616e+003;2.345673e-002
2.171545e+003;2.342813e-002
2.173474e+003;2.367824e-002
2.175402e+003;2.391928e-002
2.177331e+003;2.400290e-002
2.179259e+003;2.381385e-002
2.181188e+003;2.366617e-002
2.183116e+003;2.374532e-002
2.185045e+003;2.374654e-002
2.186973e+003;2.349524e-002
2.188902e+003;2.335281e-002
2.190831e+003;2.346740e-002
2.192759e+003;2.348261e-002
2.194688e+003;2.354659e-002
2.196616e+003;2.363488e-002
2.198545e+003;2.357866e-002
2.200473e+003;2.342771e-002
2.202402e+003;2.345901e-002
2.204330e+003;2.388690e-002
2.206259e+003;2.423848e-002
2.208188e+003;2.409465e-002
2.210116e+003;2.367551e-002
2.212044e+003;2.350223e-002
2.213973e+003;2.375095e-002
2.215902e+003;2.387997e-002
2.217830e+003;2.393374e-002
2.219759e+003;2.396687e-002
2.221687e+003;2.406660e-002
2.223616e+003;2.418012e-002
2.225544e+003;2.403014e-002
2.227473e+003;2.391946e-002
2.229401e+003;2.389460e-002
2.231330e+003;2.372635e-002
2.233259e+003;2.348303e-002
2.235187e+003;2.337102e-002
2.237116e+003;2.344288e-002
2.239044e+003;2.375865e-002
2.240973e+003;2.413020e-002
2.242901e+003;2.428081e-002
2.244830e+003;2.448563e-002
2.246758e+003;2.463808e-002
2.248687e+003;2.450771e-002
2.250615e+003;2.454824e-002
2.252544e+003;2.483808e-002
2.254473e+003;2.539477e-002
2.256401e+003;2.560205e-002
2.258330e+003;2.542814e-002
2.260258e+003;2.538676e-002
2.262187e+003;2.560549e-002
2.264115e+003;2.600297e-002
2.266044e+003;2.608244e-002
2.267972e+003;2.610359e-002
2.269901e+003;2.662125e-002
2.271830e+003;2.694776e-002
2.273758e+003;2.719737e-002
2.275687e+003;2.761216e-002
2.277615e+003;2.796797e-002
2.279544e+003;2.813466e-002
2.281472e+003;2.815944e-002
2.283401e+003;2.818684e-002
2.285329e+003;2.824179e-002
2.287258e+003;2.817136e-002
2.289187e+003;2.833335e-002
2.291115e+003;2.848149e-002
2.293043e+003;2.841378e-002
2.294972e+003;2.864912e-002
2.296901e+003;2.906218e-002
2.298829e+003;2.924885e-002
2.300758e+003;2.951039e-002
2.302686e+003;2.967029e-002
2.304615e+003;2.951152e-002
2.306543e+003;2.934360e-002
2.308472e+003;2.956880e-002
2.310400e+003;2.996218e-002
2.312329e+003;3.046626e-002
2.314258e+003;3.086694e-002
2.316186e+003;3.102057e-002
2.318115e+003;3.126310e-002
2.320043e+003;3.154431e-002
2.321972e+003;3.188100e-002
2.323900e+003;3.231053e-002
2.325829e+003;3.250568e-002
2.327757e+003;3.280395e-002
2.329686e+003;3.295409e-002
2.331615e+003;3.277476e-002
2.333543e+003;3.257474e-002
2.335472e+003;3.261836e-002
2.337400e+003;3.270573e-002
2.339329e+003;3.274771e-002
2.341257e+003;3.292007e-002
2.343186e+003;3.348278e-002
2.345114e+003;3.376260e-002
2.347043e+003;3.332948e-002
2.348971e+003;3.278501e-002
2.350900e+003;3.235380e-002
2.352829e+003;3.168757e-002
2.354757e+003;3.064792e-002
2.356686e+003;2.997720e-002
2.358614e+003;2.937522e-002
2.360543e+003;2.859175e-002
2.362471e+003;2.827414e-002
2.364400e+003;2.794543e-002
2.366328e+003;2.748510e-002
2.368257e+003;2.750197e-002
2.370186e+003;2.767237e-002
2.372114e+003;2.761308e-002
2.374042e+003;2.759570e-002
2.375971e+003;2.757459e-002
2.377900e+003;2.754667e-002
2.379828e+003;2.775483e-002
2.381757e+003;2.792836e-002
2.383685e+003;2.783841e-002
2.385614e+003;2.763349e-002
2.387542e+003;2.775988e-002
2.389471e+003;2.805693e-002
2.391399e+003;2.835948e-002
2.393328e+003;2.833525e-002
2.395257e+003;2.792147e-002
2.397185e+003;2.767477e-002
2.399114e+003;2.793522e-002
2.401042e+003;2.842482e-002
2.402971e+003;2.849179e-002
2.404899e+003;2.832684e-002
2.406828e+003;2.843451e-002
2.408756e+003;2.871032e-002
2.410685e+003;2.869729e-002
2.412614e+003;2.884294e-002
2.414542e+003;2.906987e-002
2.416471e+003;2.953021e-002
2.418399e+003;2.988210e-002
2.420328e+003;2.980129e-002
2.422256e+003;2.944184e-002
2.424185e+003;2.904950e-002
2.426113e+003;2.896625e-002
2.428042e+003;2.883936e-002
2.429970e+003;2.839719e-002
2.431899e+003;2.834427e-002
2.433828e+003;2.846423e-002
2.435756e+003;2.834622e-002
2.437685e+003;2.787939e-002
2.439613e+003;2.724150e-002
2.441542e+003;2.727181e-002
2.443470e+003;2.761784e-002
2.445399e+003;2.779987e-002
2.447327e+003;2.778701e-002
2.449256e+003;2.765167e-002
2.451185e+003;2.770397e-002
2.453113e+003;2.762056e-002
2.455042e+003;2.787254e-002
2.456970e+003;2.828472e-002
2.458899e+003;2.822871e-002
2.460827e+003;2.821159e-002
2.462756e+003;2.840713e-002
2.464684e+003;2.847725e-002
2.466613e+003;2.857657e-002
2.468542e+003;2.899268e-002
2.470470e+003;2.957302e-002
2.472398e+003;3.001679e-002
2.474327e+003;3.033247e-002
2.476256e+003;3.046100e-002
2.478184e+003;3.059050e-002
2.480113e+003;3.046207e-002
2.482041e+003;3.024653e-002
2.483970e+003;3.030895e-002
2.485898e+003;3.032906e-002
2.487827e+003;2.996854e-002
2.489755e+003;2.987585e-002
2.491684e+003;3.021779e-002
2.493613e+003;3.037877e-002
2.495541e+003;3.042692e-002
2.497470e+003;3.065006e-002
2.499398e+003;3.104645e-002
2.501327e+003;3.100879e-002
2.503255e+003;3.076563e-002
2.505184e+003;3.103004e-002
2.507112e+003;3.125185e-002
2.509041e+003;3.126566e-002
2.510969e+003;3.131751e-002
2.512898e+003;3.142592e-002
2.514827e+003;3.139836e-002
2.516755e+003;3.157884e-002
2.518684e+003;3.205490e-002
2.520612e+003;3.256217e-002
2.522541e+003;3.286234e-002
2.524469e+003;3.316841e-002
2.526398e+003;3.346481e-002
2.528326e+003;3.366799e-002
2.530255e+003;3.392139e-002
2.532184e+003;3.354198e-002
2.534112e+003;3.330229e-002
2.536041e+003;3.330512e-002
2.537969e+003;3.289429e-002
2.539898e+003;3.270137e-002
2.541826e+003;3.300471e-002
2.543755e+003;3.326359e-002
2.545683e+003;3.377263e-002
2.547612e+003;3.445272e-002
2.549541e+003;3.493328e-002
2.551469e+003;3.514542e-002
2.553397e+003;3.522403e-002
2.555326e+003;3.524645e-002
2.557255e+003;3.513733e-002
2.559183e+003;3.525748e-002
2.561112e+003;3.548254e-002
2.563040e+003;3.563020e-002
2.564969e+003;3.578265e-002
2.566897e+003;3.561437e-002
2.568826e+003;3.557794e-002
2.570754e+003;3.607951e-002
2.572683e+003;3.646468e-002
2.574612e+003;3.657658e-002
2.576540e+003;3.688449e-002
2.578469e+003;3.735305e-002
2.580397e+003;3.758483e-002
2.582326e+003;3.782346e-002
2.584254e+003;3.824990e-002
2.586183e+003;3.844780e-002
2.588111e+003;3.873207e-002
2.590040e+003;3.933114e-002
2.591969e+003;3.979280e-002
2.593897e+003;4.000060e-002
2.595826e+003;4.042068e-002
2.597754e+003;4.104174e-002
2.599683e+003;4.152758e-002
2.601611e+003;4.180271e-002
2.603540e+003;4.177976e-002
2.605468e+003;4.207831e-002
2.607397e+003;4.273652e-002
2.609325e+003;4.320632e-002
2.611254e+003;4.375409e-002
2.613183e+003;4.439091e-002
2.615111e+003;4.480174e-002
2.617040e+003;4.532615e-002
2.618968e+003;4.615259e-002
2.620897e+003;4.695332e-002
2.622825e+003;4.750529e-002
2.624754e+003;4.795060e-002
2.626682e+003;4.860073e-002
2.628611e+003;4.917231e-002
2.630540e+003;4.940317e-002
2.632468e+003;4.984928e-002
2.634396e+003;5.010118e-002
2.636325e+003;4.971392e-002
2.638254e+003;4.932473e-002
2.640182e+003;4.931040e-002
2.642111e+003;4.913484e-002
2.644039e+003;4.889692e-002
2.645968e+003;4.887916e-002
2.647896e+003;4.886466e-002
2.649825e+003;4.875466e-002
2.651753e+003;4.866974e-002
2.653682e+003;4.876081e-002
2.655611e+003;4.897154e-002
2.657539e+003;4.874324e-002
2.659468e+003;4.859050e-002
2.661396e+003;4.888283e-002
2.663325e+003;4.903523e-002
2.665253e+003;4.887282e-002
2.667182e+003;4.876081e-002
2.669110e+003;4.833126e-002
2.671039e+003;4.791541e-002
2.672968e+003;4.776415e-002
2.674896e+003;4.778375e-002
2.676825e+003;4.759338e-002
2.678753e+003;4.712063e-002
2.680682e+003;4.687879e-002
2.682610e+003;4.669125e-002
2.684539e+003;4.649262e-002
2.686467e+003;4.639498e-002
2.688396e+003;4.641235e-002
2.690324e+003;4.633835e-002
2.692253e+003;4.617618e-002
2.694182e+003;4.636135e-002
2.696110e+003;4.676029e-002
2.698039e+003;4.684214e-002
2.699967e+003;4.687964e-002
2.701896e+003;4.731862e-002
2.703824e+003;4.800951e-002
2.705753e+003;4.810259e-002
2.707681e+003;4.819774e-002
2.709610e+003;4.888357e-002
2.711539e+003;4.904316e-002
2.713467e+003;4.907833e-002
2.715396e+003;4.957633e-002
2.717324e+003;5.004823e-002
2.719253e+003;5.027037e-002
2.721181e+003;5.038846e-002
2.723110e+003;5.075558e-002
2.725038e+003;5.118273e-002
2.726967e+003;5.130830e-002
2.728896e+003;5.153068e-002
2.730824e+003;5.219061e-002
2.732752e+003;5.301562e-002
2.734681e+003;5.373447e-002
2.736610e+003;5.396169e-002
2.738538e+003;5.402127e-002
2.740467e+003;5.406611e-002
2.742395e+003;5.406022e-002
2.744324e+003;5.433012e-002
2.746252e+003;5.462528e-002
2.748181e+003;5.468341e-002
2.750109e+003;5.471746e-002
2.752038e+003;5.492080e-002
2.753967e+003;5.527480e-002
2.755895e+003;5.556688e-002
2.757824e+003;5.592533e-002
2.759752e+003;5.656110e-002
2.761681e+003;5.733820e-002
2.763609e+003;5.795552e-002
2.765538e+003;5.863724e-002
2.767466e+003;5.933187e-002
2.769395e+003;5.980028e-002
2.771323e+003;6.027377e-002
2.773252e+003;6.116236e-002
2.775181e+003;6.225223e-002
2.777109e+003;6.314664e-002
2.779038e+003;6.383211e-002
2.780966e+003;6.448368e-002
2.782895e+003;6.523994e-002
2.784823e+003;6.609980e-002
2.786752e+003;6.694183e-002
2.788680e+003;6.786910e-002
2.790609e+003;6.882118e-002
2.792538e+003;6.962323e-002
2.794466e+003;7.076787e-002
2.796395e+003;7.187390e-002
2.798323e+003;7.275147e-002
2.800252e+003;7.359564e-002
2.802180e+003;7.457465e-002
2.804109e+003;7.558871e-002
2.806037e+003;7.693112e-002
2.807966e+003;7.827543e-002
2.809895e+003;7.928363e-002
2.811823e+003;8.055364e-002
2.813751e+003;8.191003e-002
2.815680e+003;8.337387e-002
2.817609e+003;8.518778e-002
2.819537e+003;8.699946e-002
2.821466e+003;8.914156e-002
2.823394e+003;9.162299e-002
2.825323e+003;9.448455e-002
2.827251e+003;9.785686e-002
2.829180e+003;1.017640e-001
2.831108e+003;1.067951e-001
2.833037e+003;1.132359e-001
2.834966e+003;1.212185e-001
2.836894e+003;1.314310e-001
2.838823e+003;1.454132e-001
2.840751e+003;1.652867e-001
2.842680e+003;1.933927e-001
2.844608e+003;2.305472e-001
2.846537e+003;2.717463e-001
2.848465e+003;2.969171e-001
2.850394e+003;2.833824e-001
2.852323e+003;2.402408e-001
2.854251e+003;1.945009e-001
2.856180e+003;1.594674e-001
2.858108e+003;1.356568e-001
2.860037e+003;1.204609e-001
2.861965e+003;1.108148e-001
2.863894e+003;1.050310e-001
2.865822e+003;1.019658e-001
2.867751e+003;1.012636e-001
2.869679e+003;1.019902e-001
2.871608e+003;1.038259e-001
2.873536e+003;1.074029e-001
2.875465e+003;1.122386e-001
2.877394e+003;1.178722e-001
2.879322e+003;1.238850e-001
2.881251e+003;1.297518e-001
2.883179e+003;1.354650e-001
2.885108e+003;1.410171e-001
2.887036e+003;1.467525e-001
2.888965e+003;1.532966e-001
2.890893e+003;1.601636e-001
2.892822e+003;1.665877e-001
2.894750e+003;1.727894e-001
2.896679e+003;1.792227e-001
2.898608e+003;1.858849e-001
2.900536e+003;1.934335e-001
2.902465e+003;2.026580e-001
2.904393e+003;2.141309e-001
2.906322e+003;2.295113e-001
2.908250e+003;2.493789e-001
2.910179e+003;2.737094e-001
2.912107e+003;3.005690e-001
2.914036e+003;3.224526e-001
2.915965e+003;3.294165e-001
2.917893e+003;3.176104e-001
2.919822e+003;2.906498e-001
2.921750e+003;2.578370e-001
2.923679e+003;2.261149e-001
2.925607e+003;1.972452e-001
2.927536e+003;1.721796e-001
2.929464e+003;1.520679e-001
2.931393e+003;1.359144e-001
2.933322e+003;1.219307e-001
2.935250e+003;1.099862e-001
2.937178e+003;1.005311e-001
2.939107e+003;9.295916e-002
2.941036e+003;8.613604e-002
2.942964e+003;8.045736e-002
2.944893e+003;7.564227e-002
2.946821e+003;7.183050e-002
2.948750e+003;6.879858e-002
2.950678e+003;6.637505e-002
2.952607e+003;6.454287e-002
2.954535e+003;6.298856e-002
2.956464e+003;6.172013e-002
2.958393e+003;6.064477e-002
2.960321e+003;5.976701e-002
2.962250e+003;5.891409e-002
2.964178e+003;5.800819e-002
2.966107e+003;5.719458e-002
2.968035e+003;5.671799e-002
2.969964e+003;5.619077e-002
2.971892e+003;5.559369e-002
2.973821e+003;5.500086e-002
2.975750e+003;5.423682e-002
2.977678e+003;5.296748e-002
2.979607e+003;5.227289e-002
2.981535e+003;5.208585e-002
2.983464e+003;5.143045e-002
2.985392e+003;5.108280e-002
2.987321e+003;5.075692e-002
2.989249e+003;4.996254e-002
2.991178e+003;4.913009e-002
2.993106e+003;4.867978e-002
2.995035e+003;4.840819e-002
2.996964e+003;4.781527e-002
2.998892e+003;4.743891e-002
3.000821e+003;4.693719e-002
3.002749e+003;4.633927e-002
3.004678e+003;4.631745e-002
3.006606e+003;4.601737e-002
3.008535e+003;4.572012e-002
3.010463e+003;4.583466e-002
3.012392e+003;4.566237e-002
3.014321e+003;4.517958e-002
3.016249e+003;4.480108e-002
3.018177e+003;4.428108e-002
3.020106e+003;4.390810e-002
3.022035e+003;4.385634e-002
3.023963e+003;4.364310e-002
3.025892e+003;4.316243e-002
3.027820e+003;4.305233e-002
3.029749e+003;4.299826e-002
3.031677e+003;4.266841e-002
3.033606e+003;4.242615e-002
3.035534e+003;4.239634e-002
3.037463e+003;4.225879e-002
3.039392e+003;4.200308e-002
3.041320e+003;4.177203e-002
3.043249e+003;4.150205e-002
3.045177e+003;4.139237e-002
3.047106e+003;4.106553e-002
3.049034e+003;4.058763e-002
3.050963e+003;4.087447e-002
3.052891e+003;4.072240e-002
3.054820e+003;4.017073e-002
3.056749e+003;3.987818e-002
3.058677e+003;3.959998e-002
3.060606e+003;3.927655e-002
3.062534e+003;3.895241e-002
3.064463e+003;3.852593e-002
3.066391e+003;3.844367e-002
3.068320e+003;3.866017e-002
3.070248e+003;3.856373e-002
3.072177e+003;3.815275e-002
3.074105e+003;3.786955e-002
3.076034e+003;3.788079e-002
3.077963e+003;3.785870e-002
3.079891e+003;3.748137e-002
3.081820e+003;3.718401e-002
3.083748e+003;3.710356e-002
3.085677e+003;3.697601e-002
3.087605e+003;3.676759e-002
3.089534e+003;3.665748e-002
3.091462e+003;3.638750e-002
3.093391e+003;3.590709e-002
3.095320e+003;3.519018e-002
3.097248e+003;3.477765e-002
3.099177e+003;3.436808e-002
3.101105e+003;3.422074e-002
3.103034e+003;3.409134e-002
3.104962e+003;3.321068e-002
3.106891e+003;3.256939e-002
3.108819e+003;3.250843e-002
3.110748e+003;3.227959e-002
3.112677e+003;3.160460e-002
3.114605e+003;3.080995e-002
3.116533e+003;3.045123e-002
3.118462e+003;2.992562e-002
3.120391e+003;2.927540e-002
3.122319e+003;2.923864e-002
3.124248e+003;2.926927e-002
3.126176e+003;2.881769e-002
3.128105e+003;2.827503e-002
3.130033e+003;2.802515e-002
3.131962e+003;2.779524e-002
3.133890e+003;2.793550e-002
3.135819e+003;2.796656e-002
3.137748e+003;2.776034e-002
3.139676e+003;2.769514e-002
3.141605e+003;2.785805e-002
3.143533e+003;2.759200e-002
3.145462e+003;2.744444e-002
3.147390e+003;2.752637e-002
3.149319e+003;2.711240e-002
3.151247e+003;2.666856e-002
3.153176e+003;2.652244e-002
3.155104e+003;2.654562e-002
3.157033e+003;2.656055e-002
3.158962e+003;2.678019e-002
3.160890e+003;2.659046e-002
3.162819e+003;2.648465e-002
3.164747e+003;2.620652e-002
3.166676e+003;2.598647e-002
3.168604e+003;2.631553e-002
3.170533e+003;2.621743e-002
3.172461e+003;2.588636e-002
3.174390e+003;2.578340e-002
3.176319e+003;2.591236e-002
3.178247e+003;2.589590e-002
3.180176e+003;2.561431e-002
3.182104e+003;2.566514e-002
3.184033e+003;2.578273e-002
3.185961e+003;2.591725e-002
3.187890e+003;2.577402e-002
3.189818e+003;2.578467e-002
3.191747e+003;2.602506e-002
3.193676e+003;2.583133e-002
3.195604e+003;2.560862e-002
3.197532e+003;2.577658e-002
3.199461e+003;2.605876e-002
3.201390e+003;2.632511e-002
3.203318e+003;2.604754e-002
3.205247e+003;2.576733e-002
3.207175e+003;2.594116e-002
3.209104e+003;2.626347e-002
3.211032e+003;2.632543e-002
3.212961e+003;2.610320e-002
3.214889e+003;2.599431e-002
3.216818e+003;2.575693e-002
3.218747e+003;2.551739e-002
3.220675e+003;2.589051e-002
3.222604e+003;2.600772e-002
3.224532e+003;2.596818e-002
3.226461e+003;2.580851e-002
3.228389e+003;2.568851e-002
3.230318e+003;2.578917e-002
3.232246e+003;2.583998e-002
3.234175e+003;2.584976e-002
3.236104e+003;2.610088e-002
3.238032e+003;2.582018e-002
3.239961e+003;2.501101e-002
3.241889e+003;2.526923e-002
3.243818e+003;2.591967e-002
3.245746e+003;2.583172e-002
3.247675e+003;2.596867e-002
3.249603e+003;2.622204e-002
3.251532e+003;2.612055e-002
3.253460e+003;2.586175e-002
3.255389e+003;2.582096e-002
3.257318e+003;2.566693e-002
3.259246e+003;2.575137e-002
3.261175e+003;2.603523e-002
3.263103e+003;2.615211e-002
3.265032e+003;2.608610e-002
3.266960e+003;2.596230e-002
3.268889e+003;2.610623e-002
3.270817e+003;2.602369e-002
3.272746e+003;2.601939e-002
3.274675e+003;2.654819e-002
3.276603e+003;2.670397e-002
3.278531e+003;2.610711e-002
3.280460e+003;2.595864e-002
3.282389e+003;2.645229e-002
3.284317e+003;2.664717e-002
3.286246e+003;2.629276e-002
3.288174e+003;2.646377e-002
3.290103e+003;2.632655e-002
3.292031e+003;2.577226e-002
3.293960e+003;2.543521e-002
3.295888e+003;2.535718e-002
3.297817e+003;2.567023e-002
3.299746e+003;2.629698e-002
3.301674e+003;2.655196e-002
3.303603e+003;2.637729e-002
3.305531e+003;2.574842e-002
3.307460e+003;2.568721e-002
3.309388e+003;2.636275e-002
3.311317e+003;2.626780e-002
3.313245e+003;2.611295e-002
3.315174e+003;2.606270e-002
3.317103e+003;2.625274e-002
3.319031e+003;2.624485e-002
3.320960e+003;2.572638e-002
3.322888e+003;2.544595e-002
3.324817e+003;2.549750e-002
3.326745e+003;2.524546e-002
3.328674e+003;2.544258e-002
3.330602e+003;2.591204e-002
3.332531e+003;2.585559e-002
3.334459e+003;2.609750e-002
3.336388e+003;2.661734e-002
3.338317e+003;2.626974e-002
3.340245e+003;2.591918e-002
3.342174e+003;2.580228e-002
3.344102e+003;2.578797e-002
3.346031e+003;2.604656e-002
3.347959e+003;2.619206e-002
3.349888e+003;2.594450e-002
3.351816e+003;2.604444e-002
3.353745e+003;2.640000e-002
3.355674e+003;2.631779e-002
3.357602e+003;2.622803e-002
3.359531e+003;2.612688e-002
3.361459e+003;2.592122e-002
3.363388e+003;2.625358e-002
3.365316e+003;2.673716e-002
3.367245e+003;2.651001e-002
3.369173e+003;2.623158e-002
3.371102e+003;2.610714e-002
3.373031e+003;2.581266e-002
3.374959e+003;2.556659e-002
3.376887e+003;2.577577e-002
3.378816e+003;2.578963e-002
3.380745e+003;2.549079e-002
3.382673e+003;2.554539e-002
3.384602e+003;2.542214e-002
3.386530e+003;2.515940e-002
3.388459e+003;2.486103e-002
3.390387e+003;2.477683e-002
3.392316e+003;2.476213e-002
3.394244e+003;2.461535e-002
3.396173e+003;2.461812e-002
3.398102e+003;2.483355e-002
3.400030e+003;2.477585e-002
3.401959e+003;2.418149e-002
3.403887e+003;2.392177e-002
3.405816e+003;2.431017e-002
3.407744e+003;2.469805e-002
3.409673e+003;2.459228e-002
3.411601e+003;2.435741e-002
3.413530e+003;2.449863e-002
3.415458e+003;2.456332e-002
3.417387e+003;2.471211e-002
3.419316e+003;2.511811e-002
3.421244e+003;2.509389e-002
3.423173e+003;2.478469e-002
3.425101e+003;2.471671e-002
3.427030e+003;2.458348e-002
3.428958e+003;2.424703e-002
3.430887e+003;2.390465e-002
3.432815e+003;2.360063e-002
3.434744e+003;2.329330e-002
3.436673e+003;2.348331e-002
3.438601e+003;2.395790e-002
3.440530e+003;2.397012e-002
3.442458e+003;2.344666e-002
3.444387e+003;2.301099e-002
3.446315e+003;2.300121e-002
3.448244e+003;2.325439e-002
3.450172e+003;2.354529e-002
3.452101e+003;2.344250e-002
3.454030e+003;2.329589e-002
3.455958e+003;2.350773e-002
3.457886e+003;2.351133e-002
3.459815e+003;2.348079e-002
3.461744e+003;2.361414e-002
3.463672e+003;2.339036e-002
3.465601e+003;2.294877e-002
3.467529e+003;2.261024e-002
3.469458e+003;2.254814e-002
3.471386e+003;2.273525e-002
3.473315e+003;2.276175e-002
3.475243e+003;2.289746e-002
3.477172e+003;2.293267e-002
3.479101e+003;2.259662e-002
3.481029e+003;2.241478e-002
3.482958e+003;2.245410e-002
3.484886e+003;2.207307e-002
3.486815e+003;2.114183e-002
3.488743e+003;2.158072e-002
3.490672e+003;2.230852e-002
3.492600e+003;2.207175e-002
3.494529e+003;2.194229e-002
3.496458e+003;2.222028e-002
3.498386e+003;2.240515e-002
3.500315e+003;2.238087e-002
3.502243e+003;2.218952e-002
3.504172e+003;2.167862e-002
3.506100e+003;2.147647e-002
3.508029e+003;2.209932e-002
3.509957e+003;2.255970e-002
3.511886e+003;2.242381e-002
3.513814e+003;2.212303e-002
3.515743e+003;2.211327e-002
3.517672e+003;2.208440e-002
3.519600e+003;2.193905e-002
3.521529e+003;2.155892e-002
3.523457e+003;2.151084e-002
3.525386e+003;2.185600e-002
3.527314e+003;2.143672e-002
3.529243e+003;2.064605e-002
3.531171e+003;2.095403e-002
3.533100e+003;2.159601e-002
3.535029e+003;2.137594e-002
3.536957e+003;2.134782e-002
3.538885e+003;2.158869e-002
3.540814e+003;2.169523e-002
3.542743e+003;2.119036e-002
3.544671e+003;2.066961e-002
3.546600e+003;2.063580e-002
3.548528e+003;2.091759e-002
3.550457e+003;2.156331e-002
3.552385e+003;2.195748e-002
3.554314e+003;2.176309e-002
3.556242e+003;2.187162e-002
3.558171e+003;2.193082e-002
3.560100e+003;2.188935e-002
3.562028e+003;2.189489e-002
3.563957e+003;2.176681e-002
3.565885e+003;2.109724e-002
3.567814e+003;2.089638e-002
3.569742e+003;2.150983e-002
3.571671e+003;2.212240e-002
3.573599e+003;2.260298e-002
3.575528e+003;2.259310e-002
3.577457e+003;2.265600e-002
3.579385e+003;2.269559e-002
3.581314e+003;2.262723e-002
3.583242e+003;2.295093e-002
3.585171e+003;2.257146e-002
3.587099e+003;2.211696e-002
3.589028e+003;2.287070e-002
3.590956e+003;2.420391e-002
3.592885e+003;2.455585e-002
3.594813e+003;2.454074e-002
3.596742e+003;2.504727e-002
3.598671e+003;2.597282e-002
3.600599e+003;2.647898e-002
3.602528e+003;2.733772e-002
3.604456e+003;2.802643e-002
3.606385e+003;2.797486e-002
3.608313e+003;2.713920e-002
3.610242e+003;2.670707e-002
3.612170e+003;2.654488e-002
3.614099e+003;2.634197e-002
3.616028e+003;2.588232e-002
3.617956e+003;2.487815e-002
3.619885e+003;2.455252e-002
3.621813e+003;2.522783e-002
3.623742e+003;2.579075e-002
3.625670e+003;2.538121e-002
3.627599e+003;2.298793e-002
3.629527e+003;2.194469e-002
3.631456e+003;2.333539e-002
3.633385e+003;2.425271e-002
3.635313e+003;2.480289e-002
3.637241e+003;2.499939e-002
3.639170e+003;2.538184e-002
3.641099e+003;2.576361e-002
3.643027e+003;2.627442e-002
3.644956e+003;2.560387e-002
3.646884e+003;2.354708e-002
3.648813e+003;2.278155e-002
3.650741e+003;2.417143e-002
3.652670e+003;2.532585e-002
3.654598e+003;2.452461e-002
3.656527e+003;2.414306e-002
3.658456e+003;2.546521e-002
3.660384e+003;2.597535e-002
3.662313e+003;2.552452e-002
3.664241e+003;2.521291e-002
3.666170e+003;2.508248e-002
3.668098e+003;2.365248e-002
3.670027e+003;2.176096e-002
3.671955e+003;2.225983e-002
3.673884e+003;2.190751e-002
3.675813e+003;2.159817e-002
3.677741e+003;2.368877e-002
3.679669e+003;2.436421e-002
3.681598e+003;2.456139e-002
3.683527e+003;2.457797e-002
3.685455e+003;2.384433e-002
3.687384e+003;2.221843e-002
3.689312e+003;2.164344e-002
3.691241e+003;2.261383e-002
3.693169e+003;2.393700e-002
3.695098e+003;2.454298e-002
3.697026e+003;2.441377e-002
3.698955e+003;2.430506e-002
3.700884e+003;2.427632e-002
3.702812e+003;2.460624e-002
3.704741e+003;2.450319e-002
3.706669e+003;2.368223e-002
3.708598e+003;2.284266e-002
3.710526e+003;2.175748e-002
3.712455e+003;2.159663e-002
3.714383e+003;2.263593e-002
3.716312e+003;2.290738e-002
3.718240e+003;2.254396e-002
3.720169e+003;2.235669e-002
3.722098e+003;2.256071e-002
3.724026e+003;2.286906e-002
3.725955e+003;2.252539e-002
3.727883e+003;2.224277e-002
3.729812e+003;2.188643e-002
3.731740e+003;2.116417e-002
3.733669e+003;2.102295e-002
3.735597e+003;2.087548e-002
3.737526e+003;2.175657e-002
3.739455e+003;2.195633e-002
3.741383e+003;2.076877e-002
3.743312e+003;1.787175e-002
3.745240e+003;1.816964e-002
3.747169e+003;1.973126e-002
3.749097e+003;1.876205e-002
3.751026e+003;1.926105e-002
3.752954e+003;2.109512e-002
3.754883e+003;2.256252e-002
3.756812e+003;2.265558e-002
3.758740e+003;2.259107e-002
3.760668e+003;2.288481e-002
3.762597e+003;2.345054e-002
3.764526e+003;2.309621e-002
3.766454e+003;2.315492e-002
3.768383e+003;2.257107e-002
3.770311e+003;2.218747e-002
3.772240e+003;2.321647e-002
3.774168e+003;2.379659e-002
3.776097e+003;2.350444e-002
3.778025e+003;2.298929e-002
3.779954e+003;2.299649e-002
3.781883e+003;2.365644e-002
3.783811e+003;2.388718e-002
3.785740e+003;2.405938e-002
3.787668e+003;2.422051e-002
3.789597e+003;2.439635e-002
3.791525e+003;2.450410e-002
3.793454e+003;2.466112e-002
3.795382e+003;2.454484e-002
3.797311e+003;2.439358e-002
3.799240e+003;2.306832e-002
3.801168e+003;2.161081e-002
3.803097e+003;2.350755e-002
3.805025e+003;2.423488e-002
3.806954e+003;2.339564e-002
3.808882e+003;2.433747e-002
3.810811e+003;2.515911e-002
3.812739e+003;2.530218e-002
3.814668e+003;2.368782e-002
3.816596e+003;2.383936e-002
3.818525e+003;2.488952e-002
3.820454e+003;2.385624e-002
3.822382e+003;2.469338e-002
3.824311e+003;2.556834e-002
3.826239e+003;2.516642e-002
3.828168e+003;2.538290e-002
3.830096e+003;2.560110e-002
3.832025e+003;2.551398e-002
3.833953e+003;2.481864e-002
3.835882e+003;2.260298e-002
3.837811e+003;2.203350e-002
3.839739e+003;2.423386e-002
3.841667e+003;2.507798e-002
3.843596e+003;2.555566e-002
3.845525e+003;2.630029e-002
3.847453e+003;2.637134e-002
3.849382e+003;2.497342e-002
3.851310e+003;2.172254e-002
3.853239e+003;1.955102e-002
3.855167e+003;2.223576e-002
3.857096e+003;2.533776e-002
3.859024e+003;2.590736e-002
3.860953e+003;2.553907e-002
3.862882e+003;2.553432e-002
3.864810e+003;2.552136e-002
3.866739e+003;2.513570e-002
3.868667e+003;2.409304e-002
3.870596e+003;2.462037e-002
3.872524e+003;2.566971e-002
3.874453e+003;2.608272e-002
3.876381e+003;2.729569e-002
3.878310e+003;2.703690e-002
3.880239e+003;2.634581e-002
3.882167e+003;2.687976e-002
3.884096e+003;2.625745e-002
3.886024e+003;2.592424e-002
3.887953e+003;2.719141e-002
3.889881e+003;2.698351e-002
3.891810e+003;2.672092e-002
3.893738e+003;2.756541e-002
3.895667e+003;2.789840e-002
3.897595e+003;2.747571e-002
3.899524e+003;2.685854e-002
3.901453e+003;2.609581e-002
3.903381e+003;2.576920e-002
3.905310e+003;2.679795e-002
3.907238e+003;2.761936e-002
3.909167e+003;2.755514e-002
3.911095e+003;2.762293e-002
3.913024e+003;2.784346e-002
3.914952e+003;2.774664e-002
3.916881e+003;2.753752e-002
3.918810e+003;2.758631e-002
3.920738e+003;2.761011e-002
3.922667e+003;2.722739e-002
3.924595e+003;2.735427e-002
3.926524e+003;2.834526e-002
3.928452e+003;2.861737e-002
3.930381e+003;2.795009e-002
3.932309e+003;2.700093e-002
3.934238e+003;2.669344e-002
3.936167e+003;2.724838e-002
3.938095e+003;2.776716e-002
3.940023e+003;2.744528e-002
3.941952e+003;2.702995e-002
3.943881e+003;2.687606e-002
3.945809e+003;2.668618e-002
3.947738e+003;2.672909e-002
3.949666e+003;2.646539e-002
3.951595e+003;2.656717e-002
3.953523e+003;2.678731e-002
3.955452e+003;2.678446e-002
3.957380e+003;2.691748e-002
3.959309e+003;2.684596e-002
3.961238e+003;2.691935e-002
3.963166e+003;2.704938e-002
3.965095e+003;2.700012e-002
3.967023e+003;2.706373e-002
3.968952e+003;2.729968e-002
3.970880e+003;2.729202e-002
3.972809e+003;2.695975e-002
3.974737e+003;2.705626e-002
3.976666e+003;2.730723e-002
3.978594e+003;2.685999e-002
3.980523e+003;2.695368e-002
3.982452e+003;2.721589e-002
3.984380e+003;2.682601e-002
3.986309e+003;2.641479e-002
3.988237e+003;2.684014e-002
3.990166e+003;2.687151e-002
3.992094e+003;2.626044e-002
3.994023e+003;2.619698e-002
3.995951e+003;2.602717e-002
3.997880e+003;2.574940e-002
3.999809e+003;2.602323e-002
4.001737e+003;0.000000e+000
