3.992094e+002;0.000000e+000
4.011380e+002;0.000000e+000
4.030665e+002;0.000000e+000
4.049951e+002;0.000000e+000
4.069236e+002;0.000000e+000
4.088522e+002;0.000000e+000
4.107807e+002;0.000000e+000
4.127093e+002;0.000000e+000
4.146378e+002;0.000000e+000
4.165664e+002;0.000000e+000
4.184949e+002;0.000000e+000
4.204235e+002;0.000000e+000
4.223520e+002;0.000000e+000
4.242806e+002;0.000000e+000
4.262091e+002;0.000000e+000
4.281377e+002;0.000000e+000
4.300662e+002;0.000000e+000
4.319948e+002;0.000000e+000
4.339233e+002;0.000000e+000
4.358519e+002;0.000000e+000
4.377804e+002;0.000000e+000
4.397090e+002;0.000000e+000
4.416375e+002;0.000000e+000
4.435660e+002;0.000000e+000
4.454946e+002;0.000000e+000
4.474232e+002;0.000000e+000
4.493517e+002;0.000000e+000
4.512802e+002;0.000000e+000
4.532088e+002;0.000000e+000
4.551373e+002;0.000000e+000
4.570659e+002;0.000000e+000
4.589944e+002;0.000000e+000
4.609230e+002;0.000000e+000
4.628515e+002;0.000000e+000
4.647801e+002;0.000000e+000
4.667086e+002;0.000000e+000
4.686372e+002;0.000000e+000
4.705657e+002;0.000000e+000
4.724943e+002;0.000000e+000
4.744228e+002;0.000000e+000
4.763513e+002;0.000000e+000
4.782799e+002;0.000000e+000
4.802085e+002;0.000000e+000
4.821370e+002;0.000000e+000
4.840656e+002;0.000000e+000
4.859941e+002;0.000000e+000
4.879226e+002;0.000000e+000
4.898512e+002;0.000000e+000
4.917798e+002;0.000000e+000
4.937083e+002;0.000000e+000
4.956368e+002;0.000000e+000
4.975654e+002;0.000000e+000
4.994939e+002;0.000000e+000
5.014225e+002;0.000000e+000
5.033510e+002;0.000000e+000
5.052796e+002;0.000000e+000
5.072081e+002;0.000000e+000
5.091367e+002;0.000000e+000
5.110652e+002;0.000000e+000
5.129938e+002;0.000000e+000
5.149223e+002;0.000000e+000
5.168509e+002;0.000000e+000
5.187794e+002;0.000000e+000
5.207079e+002;0.000000e+000
5.226365e+002;0.000000e+000
5.245651e+002;0.000000e+000
5.264936e+002;0.000000e+000
5.284222e+002;0.000000e+000
5.303507e+002;0.000000e+000
5.322792e+002;0.000000e+000
5.342078e+002;0.000000e+000
5.361364e+002;0.000000e+000
5.380649e+002;0.000000e+000
5.399935e+002;0.000000e+000
5.419220e+002;0.000000e+000
5.438505e+002;0.000000e+000
5.457791e+002;0.000000e+000
5.477076e+002;0.000000e+000
5.496362e+002;0.000000e+000
5.515648e+002;0.000000e+000
5.534933e+002;0.000000e+000
5.554218e+002;0.000000e+000
5.573504e+002;0.000000e+000
5.592789e+002;0.000000e+000
5.612075e+002;0.000000e+000
5.631360e+002;0.000000e+000
5.650646e+002;0.000000e+000
5.669931e+002;0.000000e+000
5.689217e+002;0.000000e+000
5.708502e+002;0.000000e+000
5.727787e+002;0.000000e+000
5.747073e+002;0.000000e+000
5.766359e+002;0.000000e+000
5.785644e+002;0.000000e+000
5.804930e+002;0.000000e+000
5.824215e+002;0.000000e+000
5.843500e+002;0.000000e+000
5.862786e+002;0.000000e+000
5.882072e+002;0.000000e+000
5.901357e+002;0.000000e+000
5.920643e+002;0.000000e+000
5.939928e+002;0.000000e+000
5.959213e+002;0.000000e+000
5.978499e+002;0.000000e+000
5.997784e+002;3.406009e-002
6.017070e+002;3.830121e-002
6.036355e+002;4.233402e-002
6.055641e+002;4.286727e-002
6.074926e+002;4.340469e-002
6.094211e+002;4.271805e-002
6.113497e+002;4.265492e-002
6.132783e+002;3.741173e-002
6.152068e+002;3.173387e-002
6.171354e+002;3.425946e-002
6.190639e+002;3.974095e-002
6.209924e+002;4.084283e-002
6.229210e+002;3.907377e-002
6.248495e+002;3.537095e-002
6.267781e+002;3.460695e-002
6.287067e+002;3.709072e-002
6.306352e+002;3.765153e-002
6.325637e+002;4.068809e-002
6.344923e+002;4.189188e-002
6.364208e+002;3.924100e-002
6.383494e+002;3.790671e-002
6.402780e+002;3.923944e-002
6.422065e+002;4.202392e-002
6.441350e+002;4.305207e-002
6.460636e+002;4.370722e-002
6.479921e+002;4.126865e-002
6.499207e+002;3.990749e-002
6.518492e+002;3.997103e-002
6.537778e+002;4.015819e-002
6.557063e+002;4.271410e-002
6.576349e+002;4.401362e-002
6.595634e+002;4.449045e-002
6.614919e+002;4.374962e-002
6.634205e+002;4.283301e-002
6.653491e+002;4.114500e-002
6.672776e+002;4.105096e-002
6.692062e+002;4.157264e-002
6.711347e+002;4.109298e-002
6.730632e+002;4.080123e-002
6.749918e+002;4.068179e-002
6.769203e+002;4.099444e-002
6.788489e+002;4.335929e-002
6.807775e+002;4.604390e-002
6.827060e+002;4.759187e-002
6.846345e+002;4.700638e-002
6.865631e+002;4.653459e-002
6.884916e+002;4.871321e-002
6.904202e+002;4.997005e-002
6.923488e+002;5.108325e-002
6.942773e+002;5.321490e-002
6.962058e+002;5.628189e-002
6.981344e+002;5.996603e-002
7.000629e+002;6.294643e-002
7.019915e+002;6.649598e-002
7.039200e+002;7.221226e-002
7.058486e+002;8.051096e-002
7.077771e+002;9.072139e-002
7.097057e+002;1.054637e-001
7.116342e+002;1.303346e-001
7.135627e+002;1.649687e-001
7.154913e+002;1.932553e-001
7.174199e+002;1.929269e-001
7.193484e+002;1.676508e-001
7.212770e+002;1.345480e-001
7.232055e+002;1.085272e-001
7.251340e+002;9.492061e-002
7.270626e+002;9.171452e-002
7.289911e+002;9.779099e-002
7.309197e+002;1.032949e-001
7.328483e+002;9.252248e-002
7.347768e+002;7.209775e-002
7.367053e+002;5.757712e-002
7.386339e+002;5.123194e-002
7.405624e+002;4.887968e-002
7.424910e+002;4.712040e-002
7.444196e+002;4.521906e-002
7.463481e+002;4.437161e-002
7.482766e+002;4.397681e-002
7.502052e+002;4.356199e-002
7.521337e+002;4.231671e-002
7.540623e+002;4.063874e-002
7.559908e+002;3.989645e-002
7.579194e+002;3.954833e-002
7.598479e+002;3.902752e-002
7.617765e+002;3.837747e-002
7.637050e+002;3.900297e-002
7.656335e+002;4.022362e-002
7.675621e+002;4.039500e-002
7.694907e+002;3.937620e-002
7.714192e+002;3.795495e-002
7.733478e+002;3.706701e-002
7.752763e+002;3.746168e-002
7.772048e+002;3.850156e-002
7.791334e+002;3.841522e-002
7.810620e+002;3.762439e-002
7.829905e+002;3.746645e-002
7.849191e+002;3.779591e-002
7.868476e+002;3.764275e-002
7.887761e+002;3.736432e-002
7.907047e+002;3.788965e-002
7.926332e+002;3.812689e-002
7.945618e+002;3.771058e-002
7.964903e+002;3.724303e-002
7.984189e+002;3.728600e-002
8.003474e+002;3.813698e-002
8.022759e+002;3.905387e-002
8.042045e+002;3.938087e-002
8.061331e+002;3.924982e-002
8.080616e+002;3.829868e-002
8.099902e+002;3.825529e-002
8.119187e+002;3.853831e-002
8.138472e+002;3.833125e-002
8.157758e+002;3.866673e-002
8.177043e+002;3.860581e-002
8.196329e+002;3.896292e-002
8.215615e+002;3.937391e-002
8.234900e+002;3.916906e-002
8.254185e+002;3.936516e-002
8.273471e+002;3.929225e-002
8.292756e+002;3.891632e-002
8.312042e+002;3.942554e-002
8.331328e+002;3.973884e-002
8.350613e+002;3.968485e-002
8.369898e+002;3.973496e-002
8.389184e+002;3.977660e-002
8.408469e+002;3.990749e-002
8.427755e+002;3.923411e-002
8.447040e+002;3.957624e-002
8.466326e+002;4.023979e-002
8.485611e+002;3.913813e-002
8.504897e+002;3.799484e-002
8.524182e+002;3.777741e-002
8.543467e+002;3.799997e-002
8.562753e+002;3.790964e-002
8.582039e+002;3.789276e-002
8.601324e+002;3.797126e-002
8.620610e+002;3.800391e-002
8.639895e+002;3.812783e-002
8.659180e+002;3.815272e-002
8.678466e+002;3.794891e-002
8.697751e+002;3.835394e-002
8.717037e+002;3.920126e-002
8.736323e+002;3.932707e-002
8.755608e+002;3.881797e-002
8.774893e+002;3.821969e-002
8.794179e+002;3.787906e-002
8.813464e+002;3.777758e-002
8.832750e+002;3.829256e-002
8.852036e+002;3.866858e-002
8.871321e+002;3.869027e-002
8.890606e+002;3.874269e-002
8.909892e+002;3.872110e-002
8.929177e+002;3.905855e-002
8.948463e+002;3.945935e-002
8.967748e+002;3.959581e-002
8.987034e+002;3.961940e-002
9.006319e+002;3.960945e-002
9.025605e+002;3.965265e-002
9.044890e+002;4.010128e-002
9.064175e+002;4.087578e-002
9.083461e+002;4.107357e-002
9.102747e+002;4.085387e-002
9.122032e+002;4.100984e-002
9.141318e+002;4.061273e-002
9.160603e+002;4.000350e-002
9.179888e+002;3.964612e-002
9.199174e+002;3.961777e-002
9.218459e+002;3.947467e-002
9.237745e+002;3.961069e-002
9.257031e+002;3.990215e-002
9.276316e+002;4.019058e-002
9.295601e+002;4.037057e-002
9.314887e+002;4.026172e-002
9.334172e+002;3.987952e-002
9.353458e+002;4.001739e-002
9.372744e+002;4.015078e-002
9.392029e+002;3.996027e-002
9.411314e+002;3.989660e-002
9.430600e+002;4.013893e-002
9.449885e+002;4.021071e-002
9.469171e+002;3.963977e-002
9.488456e+002;3.946929e-002
9.507742e+002;3.984923e-002
9.527027e+002;3.984615e-002
9.546313e+002;3.979454e-002
9.565598e+002;3.972628e-002
9.584883e+002;3.930252e-002
9.604169e+002;3.868086e-002
9.623455e+002;3.846221e-002
9.642740e+002;3.877794e-002
9.662026e+002;3.950889e-002
9.681311e+002;3.956695e-002
9.700596e+002;3.950994e-002
9.719882e+002;3.977809e-002
9.739167e+002;3.973833e-002
9.758453e+002;3.963316e-002
9.777739e+002;3.964064e-002
9.797024e+002;3.937721e-002
9.816309e+002;3.965603e-002
9.835595e+002;3.977188e-002
9.854880e+002;3.923342e-002
9.874166e+002;3.857615e-002
9.893452e+002;3.792989e-002
9.912737e+002;3.793420e-002
9.932022e+002;3.817023e-002
9.951307e+002;3.803415e-002
9.970593e+002;3.802221e-002
9.989879e+002;3.835767e-002
1.000916e+003;3.879888e-002
1.002845e+003;3.879967e-002
1.004773e+003;3.861052e-002
1.006702e+003;3.855157e-002
1.008631e+003;3.851496e-002
1.010559e+003;3.881786e-002
1.012488e+003;3.952957e-002
1.014416e+003;3.957682e-002
1.016345e+003;3.920659e-002
1.018273e+003;3.921830e-002
1.020202e+003;3.952257e-002
1.022130e+003;3.998926e-002
1.024059e+003;4.060243e-002
1.025988e+003;4.090101e-002
1.027916e+003;4.134058e-002
1.029845e+003;4.209404e-002
1.031773e+003;4.271681e-002
1.033702e+003;4.277264e-002
1.035630e+003;4.252857e-002
1.037559e+003;4.221153e-002
1.039487e+003;4.224217e-002
1.041416e+003;4.193705e-002
1.043344e+003;4.158008e-002
1.045273e+003;4.171921e-002
1.047202e+003;4.278774e-002
1.049130e+003;4.380444e-002
1.051059e+003;4.388259e-002
1.052987e+003;4.400060e-002
1.054916e+003;4.443760e-002
1.056844e+003;4.460661e-002
1.058773e+003;4.499086e-002
1.060701e+003;4.556528e-002
1.062630e+003;4.554490e-002
1.064558e+003;4.600791e-002
1.066487e+003;4.669848e-002
1.068416e+003;4.721367e-002
1.070344e+003;4.785256e-002
1.072273e+003;4.807054e-002
1.074201e+003;4.809749e-002
1.076130e+003;4.791353e-002
1.078058e+003;4.777158e-002
1.079987e+003;4.746500e-002
1.081915e+003;4.610097e-002
1.083844e+003;4.467789e-002
1.085773e+003;4.455110e-002
1.087701e+003;4.477710e-002
1.089630e+003;4.407071e-002
1.091558e+003;4.274500e-002
1.093487e+003;4.195286e-002
1.095415e+003;4.145328e-002
1.097344e+003;4.152327e-002
1.099272e+003;4.170921e-002
1.101201e+003;4.125834e-002
1.103129e+003;4.135319e-002
1.105058e+003;4.140320e-002
1.106987e+003;4.085743e-002
1.108915e+003;3.993248e-002
1.110844e+003;3.948537e-002
1.112772e+003;3.970351e-002
1.114701e+003;3.973470e-002
1.116629e+003;3.959414e-002
1.118558e+003;3.956194e-002
1.120486e+003;3.949045e-002
1.122415e+003;3.901225e-002
1.124344e+003;3.872149e-002
1.126272e+003;3.893512e-002
1.128201e+003;3.884167e-002
1.130129e+003;3.870356e-002
1.132058e+003;3.889689e-002
1.133986e+003;3.916652e-002
1.135915e+003;3.900504e-002
1.137843e+003;3.893407e-002
1.139772e+003;3.896843e-002
1.141700e+003;3.949219e-002
1.143629e+003;4.080360e-002
1.145557e+003;4.166552e-002
1.147486e+003;4.179545e-002
1.149415e+003;4.142481e-002
1.151343e+003;4.069110e-002
1.153272e+003;4.024892e-002
1.155200e+003;4.007832e-002
1.157129e+003;4.019621e-002
1.159057e+003;3.987756e-002
1.160986e+003;3.979215e-002
1.162914e+003;4.020922e-002
1.164843e+003;4.019676e-002
1.166771e+003;3.998585e-002
1.168700e+003;4.007243e-002
1.170629e+003;4.029141e-002
1.172557e+003;4.020156e-002
1.174486e+003;4.031875e-002
1.176414e+003;4.042824e-002
1.178343e+003;3.970130e-002
1.180271e+003;3.920840e-002
1.182200e+003;3.906764e-002
1.184128e+003;3.877207e-002
1.186057e+003;3.827241e-002
1.187986e+003;3.795032e-002
1.189914e+003;3.783282e-002
1.191843e+003;3.799469e-002
1.193771e+003;3.799888e-002
1.195700e+003;3.788831e-002
1.197628e+003;3.767267e-002
1.199557e+003;3.738508e-002
1.201485e+003;3.727661e-002
1.203414e+003;3.733474e-002
1.205343e+003;3.767140e-002
1.207271e+003;3.745106e-002
1.209200e+003;3.722950e-002
1.211128e+003;3.727318e-002
1.213057e+003;3.722210e-002
1.214985e+003;3.735666e-002
1.216914e+003;3.764643e-002
1.218842e+003;3.760640e-002
1.220771e+003;3.714929e-002
1.222699e+003;3.707303e-002
1.224628e+003;3.730676e-002
1.226557e+003;3.742008e-002
1.228485e+003;3.789948e-002
1.230414e+003;3.816766e-002
1.232342e+003;3.807784e-002
1.234271e+003;3.816784e-002
1.236199e+003;3.827490e-002
1.238128e+003;3.813167e-002
1.240056e+003;3.770490e-002
1.241985e+003;3.749000e-002
1.243913e+003;3.783734e-002
1.245842e+003;3.812902e-002
1.247771e+003;3.883938e-002
1.249699e+003;3.943711e-002
1.251628e+003;3.988621e-002
1.253556e+003;4.102495e-002
1.255485e+003;4.209619e-002
1.257413e+003;4.220912e-002
1.259342e+003;4.155317e-002
1.261270e+003;4.108199e-002
1.263199e+003;4.101254e-002
1.265127e+003;4.123917e-002
1.267056e+003;4.170732e-002
1.268985e+003;4.202067e-002
1.270913e+003;4.200800e-002
1.272842e+003;4.218699e-002
1.274770e+003;4.240241e-002
1.276699e+003;4.226525e-002
1.278627e+003;4.214333e-002
1.280556e+003;4.192695e-002
1.282484e+003;4.186345e-002
1.284413e+003;4.226299e-002
1.286342e+003;4.264176e-002
1.288270e+003;4.263456e-002
1.290199e+003;4.268442e-002
1.292127e+003;4.320540e-002
1.294056e+003;4.369000e-002
1.295984e+003;4.389267e-002
1.297913e+003;4.406914e-002
1.299841e+003;4.409492e-002
1.301770e+003;4.378843e-002
1.303698e+003;4.381283e-002
1.305627e+003;4.410248e-002
1.307556e+003;4.380590e-002
1.309484e+003;4.300908e-002
1.311413e+003;4.213679e-002
1.313341e+003;4.152896e-002
1.315270e+003;4.086832e-002
1.317198e+003;3.999842e-002
1.319127e+003;3.907700e-002
1.321055e+003;3.860574e-002
1.322984e+003;3.833317e-002
1.324912e+003;3.777462e-002
1.326841e+003;3.742213e-002
1.328770e+003;3.705640e-002
1.330698e+003;3.691742e-002
1.332627e+003;3.713377e-002
1.334555e+003;3.735438e-002
1.336484e+003;3.747782e-002
1.338412e+003;3.782179e-002
1.340341e+003;3.871751e-002
1.342269e+003;4.024386e-002
1.344198e+003;4.160407e-002
1.346126e+003;4.243986e-002
1.348055e+003;4.315621e-002
1.349984e+003;4.391822e-002
1.351912e+003;4.432585e-002
1.353841e+003;4.430402e-002
1.355769e+003;4.407816e-002
1.357698e+003;4.391037e-002
1.359626e+003;4.401710e-002
1.361555e+003;4.443114e-002
1.363483e+003;4.568302e-002
1.365412e+003;4.744456e-002
1.367341e+003;4.825113e-002
1.369269e+003;4.837719e-002
1.371198e+003;4.751516e-002
1.373126e+003;4.526010e-002
1.375055e+003;4.361485e-002
1.376983e+003;4.319738e-002
1.378912e+003;4.229505e-002
1.380840e+003;4.088295e-002
1.382769e+003;3.982156e-002
1.384698e+003;3.938849e-002
1.386626e+003;3.842007e-002
1.388555e+003;3.803422e-002
1.390483e+003;3.851174e-002
1.392412e+003;3.804351e-002
1.394340e+003;3.690378e-002
1.396269e+003;3.712789e-002
1.398197e+003;3.768969e-002
1.400126e+003;3.833766e-002
1.402054e+003;3.911652e-002
1.403983e+003;3.915571e-002
1.405911e+003;3.933618e-002
1.407840e+003;3.993623e-002
1.409769e+003;4.025281e-002
1.411697e+003;4.069809e-002
1.413626e+003;4.125470e-002
1.415554e+003;4.139959e-002
1.417483e+003;4.025735e-002
1.419411e+003;4.008773e-002
1.421340e+003;4.321342e-002
1.423268e+003;4.595944e-002
1.425197e+003;4.837845e-002
1.427125e+003;5.122907e-002
1.429054e+003;5.355515e-002
1.430983e+003;5.619567e-002
1.432911e+003;5.890794e-002
1.434840e+003;5.924102e-002
1.436768e+003;5.988794e-002
1.438697e+003;6.373383e-002
1.440625e+003;6.634061e-002
1.442554e+003;6.758682e-002
1.444482e+003;6.879384e-002
1.446411e+003;6.989197e-002
1.448340e+003;7.141678e-002
1.450268e+003;7.494036e-002
1.452197e+003;7.963677e-002
1.454125e+003;8.372236e-002
1.456054e+003;8.624785e-002
1.457982e+003;9.698755e-002
1.459911e+003;1.195756e-001
1.461839e+003;1.379169e-001
1.463768e+003;1.382257e-001
1.465697e+003;1.388232e-001
1.467625e+003;1.525737e-001
1.469554e+003;1.775732e-001
1.471482e+003;1.974749e-001
1.473411e+003;1.747933e-001
1.475339e+003;1.236400e-001
1.477268e+003;8.722121e-002
1.479196e+003;7.125527e-002
1.481125e+003;6.382896e-002
1.483053e+003;5.951644e-002
1.484982e+003;5.577204e-002
1.486911e+003;5.220245e-002
1.488839e+003;4.934136e-002
1.490768e+003;4.815342e-002
1.492696e+003;4.814135e-002
1.494625e+003;4.585716e-002
1.496553e+003;4.320635e-002
1.498482e+003;4.335589e-002
1.500410e+003;4.383592e-002
1.502339e+003;4.347226e-002
1.504267e+003;3.961338e-002
1.506196e+003;3.488538e-002
1.508125e+003;3.625982e-002
1.510053e+003;3.923586e-002
1.511982e+003;3.990233e-002
1.513910e+003;3.976691e-002
1.515839e+003;3.854197e-002
1.517767e+003;3.777336e-002
1.519696e+003;3.585508e-002
1.521624e+003;3.429901e-002
1.523553e+003;3.611699e-002
1.525481e+003;3.692420e-002
1.527410e+003;3.774079e-002
1.529339e+003;3.873881e-002
1.531267e+003;3.841482e-002
1.533196e+003;3.720618e-002
1.535124e+003;3.802073e-002
1.537053e+003;3.627175e-002
1.538981e+003;3.125598e-002
1.540910e+003;3.092902e-002
1.542838e+003;3.370051e-002
1.544767e+003;3.550422e-002
1.546695e+003;3.698640e-002
1.548624e+003;3.727520e-002
1.550553e+003;3.715979e-002
1.552481e+003;3.620591e-002
1.554410e+003;3.418106e-002
1.556338e+003;3.139782e-002
1.558267e+003;2.652473e-002
1.560195e+003;2.835556e-002
1.562124e+003;3.435757e-002
1.564052e+003;3.595686e-002
1.565981e+003;3.558858e-002
1.567910e+003;3.451381e-002
1.569838e+003;3.366760e-002
1.571767e+003;3.525591e-002
1.573695e+003;3.470747e-002
1.575624e+003;3.183012e-002
1.577552e+003;3.365274e-002
1.579481e+003;3.655258e-002
1.581409e+003;3.705052e-002
1.583338e+003;3.727408e-002
1.585266e+003;3.714124e-002
1.587195e+003;3.696702e-002
1.589124e+003;3.692146e-002
1.591052e+003;3.685552e-002
1.592981e+003;3.658725e-002
1.594909e+003;3.662943e-002
1.596838e+003;3.673027e-002
1.598766e+003;3.694715e-002
1.600695e+003;3.700570e-002
1.602623e+003;3.686043e-002
1.604552e+003;3.693769e-002
1.606480e+003;3.696176e-002
1.608409e+003;3.666198e-002
1.610338e+003;3.648702e-002
1.612266e+003;3.682050e-002
1.614195e+003;3.585634e-002
1.616123e+003;3.278758e-002
1.618052e+003;3.383964e-002
1.619980e+003;3.657597e-002
1.621909e+003;3.602475e-002
1.623837e+003;3.552472e-002
1.625766e+003;3.635539e-002
1.627694e+003;3.660059e-002
1.629623e+003;3.751803e-002
1.631552e+003;3.792856e-002
1.633480e+003;3.559329e-002
1.635409e+003;3.287846e-002
1.637337e+003;3.502666e-002
1.639266e+003;3.802315e-002
1.641194e+003;3.883265e-002
1.643123e+003;3.786767e-002
1.645051e+003;3.506020e-002
1.646980e+003;3.427176e-002
1.648909e+003;3.619031e-002
1.650837e+003;3.264797e-002
1.652766e+003;2.715233e-002
1.654694e+003;3.164651e-002
1.656623e+003;3.688773e-002
1.658551e+003;3.787490e-002
1.660480e+003;3.711991e-002
1.662408e+003;3.617619e-002
1.664337e+003;3.706567e-002
1.666266e+003;3.737782e-002
1.668194e+003;3.528746e-002
1.670123e+003;3.429241e-002
1.672051e+003;3.534518e-002
1.673980e+003;3.450506e-002
1.675908e+003;3.442758e-002
1.677837e+003;3.653265e-002
1.679765e+003;3.674333e-002
1.681694e+003;3.463272e-002
1.683622e+003;3.042849e-002
1.685551e+003;3.165834e-002
1.687479e+003;3.587031e-002
1.689408e+003;3.705618e-002
1.691337e+003;3.730878e-002
1.693265e+003;3.586077e-002
1.695194e+003;3.220183e-002
1.697122e+003;3.218345e-002
1.699051e+003;3.075062e-002
1.700979e+003;3.045194e-002
1.702908e+003;3.401734e-002
1.704836e+003;3.406052e-002
1.706765e+003;3.433466e-002
1.708693e+003;3.502651e-002
1.710622e+003;3.504781e-002
1.712551e+003;3.402060e-002
1.714479e+003;3.174485e-002
1.716408e+003;2.830367e-002
1.718336e+003;2.830944e-002
1.720265e+003;3.132648e-002
1.722193e+003;3.219958e-002
1.724122e+003;3.195243e-002
1.726050e+003;3.196737e-002
1.727979e+003;3.163492e-002
1.729908e+003;3.099748e-002
1.731836e+003;2.837370e-002
1.733765e+003;2.538040e-002
1.735693e+003;2.802954e-002
1.737622e+003;3.077331e-002
1.739550e+003;3.029882e-002
1.741479e+003;3.064497e-002
1.743407e+003;3.087309e-002
1.745336e+003;3.053387e-002
1.747265e+003;2.954011e-002
1.749193e+003;2.815333e-002
1.751122e+003;2.734396e-002
1.753050e+003;2.828231e-002
1.754979e+003;2.793539e-002
1.756907e+003;2.702748e-002
1.758836e+003;2.698112e-002
1.760764e+003;2.611847e-002
1.762693e+003;2.590363e-002
1.764621e+003;2.637686e-002
1.766550e+003;2.544005e-002
1.768479e+003;2.460417e-002
1.770407e+003;2.365542e-002
1.772336e+003;2.238725e-002
1.774264e+003;2.371729e-002
1.776193e+003;2.514725e-002
1.778121e+003;2.536955e-002
1.780050e+003;2.502663e-002
1.781978e+003;2.484404e-002
1.783907e+003;2.460336e-002
1.785835e+003;2.452784e-002
1.787764e+003;2.472446e-002
1.789693e+003;2.394729e-002
1.791621e+003;2.247088e-002
1.793550e+003;2.274624e-002
1.795478e+003;2.423547e-002
1.797407e+003;2.468251e-002
1.799335e+003;2.423799e-002
1.801264e+003;2.401613e-002
1.803192e+003;2.461977e-002
1.805121e+003;2.515771e-002
1.807049e+003;2.514167e-002
1.808978e+003;2.475171e-002
1.810907e+003;2.460024e-002
1.812835e+003;2.472670e-002
1.814764e+003;2.497876e-002
1.816692e+003;2.502502e-002
1.818621e+003;2.516902e-002
1.820549e+003;2.494822e-002
1.822478e+003;2.428593e-002
1.824406e+003;2.354739e-002
1.826335e+003;2.359707e-002
1.828264e+003;2.324925e-002
1.830192e+003;2.304666e-002
1.832121e+003;2.369367e-002
1.834049e+003;2.376768e-002
1.835978e+003;2.362554e-002
1.837906e+003;2.364160e-002
1.839835e+003;2.371372e-002
1.841763e+003;2.296655e-002
1.843692e+003;2.149834e-002
1.845620e+003;2.204337e-002
1.847549e+003;2.306965e-002
1.849478e+003;2.328543e-002
1.851406e+003;2.354792e-002
1.853335e+003;2.351031e-002
1.855263e+003;2.344607e-002
1.857192e+003;2.351196e-002
1.859120e+003;2.349629e-002
1.861049e+003;2.338858e-002
1.862977e+003;2.357090e-002
1.864906e+003;2.375697e-002
1.866834e+003;2.331847e-002
1.868763e+003;2.289795e-002
1.870692e+003;2.364223e-002
1.872620e+003;2.432167e-002
1.874549e+003;2.447052e-002
1.876477e+003;2.472544e-002
1.878406e+003;2.492780e-002
1.880334e+003;2.533639e-002
1.882263e+003;2.553882e-002
1.884191e+003;2.600772e-002
1.886120e+003;2.680486e-002
1.888048e+003;2.720753e-002
1.889977e+003;2.760263e-002
1.891906e+003;2.852225e-002
1.893834e+003;2.916036e-002
1.895763e+003;2.929858e-002
1.897691e+003;2.921646e-002
1.899620e+003;2.916585e-002
1.901548e+003;2.905768e-002
1.903477e+003;2.883809e-002
1.905405e+003;2.848043e-002
1.907334e+003;2.797423e-002
1.909262e+003;2.755094e-002
1.911191e+003;2.753191e-002
1.913120e+003;2.730180e-002
1.915048e+003;2.674823e-002
1.916977e+003;2.606186e-002
1.918905e+003;2.607241e-002
1.920834e+003;2.620198e-002
1.922762e+003;2.583179e-002
1.924691e+003;2.594672e-002
1.926619e+003;2.605602e-002
1.928548e+003;2.608181e-002
1.930477e+003;2.585429e-002
1.932405e+003;2.582096e-002
1.934334e+003;2.609782e-002
1.936262e+003;2.610517e-002
1.938191e+003;2.600842e-002
1.940119e+003;2.562408e-002
1.942048e+003;2.516389e-002
1.943976e+003;2.516789e-002
1.945905e+003;2.554209e-002
1.947833e+003;2.550245e-002
1.949762e+003;2.544494e-002
1.951691e+003;2.567966e-002
1.953619e+003;2.593810e-002
1.955548e+003;2.611369e-002
1.957476e+003;2.594391e-002
1.959405e+003;2.569442e-002
1.961333e+003;2.582852e-002
1.963262e+003;2.602991e-002
1.965190e+003;2.577046e-002
1.967119e+003;2.533927e-002
1.969047e+003;2.532139e-002
1.970976e+003;2.542839e-002
1.972905e+003;2.526709e-002
1.974833e+003;2.546479e-002
1.976762e+003;2.563786e-002
1.978690e+003;2.553696e-002
1.980619e+003;2.551047e-002
1.982547e+003;2.562837e-002
1.984476e+003;2.560391e-002
1.986404e+003;2.542927e-002
1.988333e+003;2.562591e-002
1.990261e+003;2.570377e-002
1.992190e+003;2.563702e-002
1.994119e+003;2.586178e-002
1.996047e+003;2.598464e-002
1.997976e+003;2.598330e-002
1.999904e+003;2.630142e-002
2.001833e+003;2.663516e-002
2.003761e+003;2.693990e-002
2.005690e+003;2.737403e-002
2.007618e+003;2.800861e-002
2.009547e+003;2.877199e-002
2.011476e+003;2.976960e-002
2.013404e+003;3.083108e-002
2.015333e+003;3.155072e-002
2.017261e+003;3.207684e-002
2.019190e+003;3.237668e-002
2.021118e+003;3.247425e-002
2.023047e+003;3.210995e-002
2.024975e+003;3.115020e-002
2.026904e+003;3.028397e-002
2.028833e+003;2.987912e-002
2.030761e+003;2.972801e-002
2.032690e+003;2.947946e-002
2.034618e+003;2.901829e-002
2.036547e+003;2.874788e-002
2.038475e+003;2.856698e-002
2.040404e+003;2.829094e-002
2.042332e+003;2.823263e-002
2.044261e+003;2.818974e-002
2.046189e+003;2.801847e-002
2.048118e+003;2.775684e-002
2.050047e+003;2.763352e-002
2.051975e+003;2.768748e-002
2.053904e+003;2.780478e-002
2.055832e+003;2.781022e-002
2.057761e+003;2.746855e-002
2.059689e+003;2.711261e-002
2.061618e+003;2.709833e-002
2.063546e+003;2.710291e-002
2.065475e+003;2.696278e-002
2.067404e+003;2.688276e-002
2.069332e+003;2.691082e-002
2.071260e+003;2.690391e-002
2.073189e+003;2.685762e-002
2.075118e+003;2.683898e-002
2.077046e+003;2.697946e-002
2.078975e+003;2.704536e-002
2.080903e+003;2.693341e-002
2.082832e+003;2.663227e-002
2.084760e+003;2.652882e-002
2.086689e+003;2.660025e-002
2.088617e+003;2.625010e-002
2.090546e+003;2.620466e-002
2.092475e+003;2.632458e-002
2.094403e+003;2.624337e-002
2.096332e+003;2.619220e-002
2.098260e+003;2.611172e-002
2.100189e+003;2.605693e-002
2.102117e+003;2.610922e-002
2.104046e+003;2.631656e-002
2.105974e+003;2.671437e-002
2.107903e+003;2.665334e-002
2.109832e+003;2.625277e-002
2.111760e+003;2.638250e-002
2.113688e+003;2.630223e-002
2.115617e+003;2.590092e-002
2.117546e+003;2.592843e-002
2.119474e+003;2.618959e-002
2.121403e+003;2.620001e-002
2.123331e+003;2.617956e-002
2.125260e+003;2.607555e-002
2.127188e+003;2.604395e-002
2.129117e+003;2.629610e-002
2.131045e+003;2.658993e-002
2.132974e+003;2.705333e-002
2.134903e+003;2.749894e-002
2.136831e+003;2.750610e-002
2.138760e+003;2.738349e-002
2.140688e+003;2.757028e-002
2.142617e+003;2.799840e-002
2.144545e+003;2.812565e-002
2.146474e+003;2.799685e-002
2.148402e+003;2.793564e-002
2.150331e+003;2.801087e-002
2.152260e+003;2.806870e-002
2.154188e+003;2.793122e-002
2.156117e+003;2.769504e-002
2.158045e+003;2.766251e-002
2.159974e+003;2.775194e-002
2.161902e+003;2.746050e-002
2.163831e+003;2.725988e-002
2.165759e+003;2.719035e-002
2.167688e+003;2.738352e-002
2.169616e+003;2.757809e-002
2.171545e+003;2.753731e-002
2.173474e+003;2.778447e-002
2.175402e+003;2.803233e-002
2.177331e+003;2.810076e-002
2.179259e+003;2.795963e-002
2.181188e+003;2.786455e-002
2.183116e+003;2.784131e-002
2.185045e+003;2.770475e-002
2.186973e+003;2.757816e-002
2.188902e+003;2.752209e-002
2.190831e+003;2.748686e-002
2.192759e+003;2.761901e-002
2.194688e+003;2.789918e-002
2.196616e+003;2.807810e-002
2.198545e+003;2.785190e-002
2.200473e+003;2.757106e-002
2.202402e+003;2.780344e-002
2.204330e+003;2.835598e-002
2.206259e+003;2.832075e-002
2.208188e+003;2.806329e-002
2.210116e+003;2.782417e-002
2.212044e+003;2.770249e-002
2.213973e+003;2.794751e-002
2.215902e+003;2.822775e-002
2.217830e+003;2.839853e-002
2.219759e+003;2.826647e-002
2.221687e+003;2.827450e-002
2.223616e+003;2.836203e-002
2.225544e+003;2.823107e-002
2.227473e+003;2.801116e-002
2.229401e+003;2.773421e-002
2.231330e+003;2.776292e-002
2.233259e+003;2.770249e-002
2.235187e+003;2.758953e-002
2.237116e+003;2.781983e-002
2.239044e+003;2.796433e-002
2.240973e+003;2.818921e-002
2.242901e+003;2.836762e-002
2.244830e+003;2.850941e-002
2.246758e+003;2.866133e-002
2.248687e+003;2.857052e-002
2.250615e+003;2.858747e-002
2.252544e+003;2.903093e-002
2.254473e+003;2.958753e-002
2.256401e+003;2.960512e-002
2.258330e+003;2.957096e-002
2.260258e+003;2.980611e-002
2.262187e+003;2.995995e-002
2.264115e+003;2.994596e-002
2.266044e+003;2.990872e-002
2.267972e+003;3.021292e-002
2.269901e+003;3.091539e-002
2.271830e+003;3.125487e-002
2.273758e+003;3.137559e-002
2.275687e+003;3.160517e-002
2.277615e+003;3.192475e-002
2.279544e+003;3.210164e-002
2.281472e+003;3.222663e-002
2.283401e+003;3.233624e-002
2.285329e+003;3.225111e-002
2.287258e+003;3.211544e-002
2.289187e+003;3.226849e-002
2.291115e+003;3.240553e-002
2.293043e+003;3.227606e-002
2.294972e+003;3.260243e-002
2.296901e+003;3.293808e-002
2.298829e+003;3.307057e-002
2.300758e+003;3.330433e-002
2.302686e+003;3.332981e-002
2.304615e+003;3.324188e-002
2.306543e+003;3.318540e-002
2.308472e+003;3.335185e-002
2.310400e+003;3.372328e-002
2.312329e+003;3.413253e-002
2.314258e+003;3.424867e-002
2.316186e+003;3.430159e-002
2.318115e+003;3.483846e-002
2.320043e+003;3.527815e-002
2.321972e+003;3.557172e-002
2.323900e+003;3.614735e-002
2.325829e+003;3.639715e-002
2.327757e+003;3.652792e-002
2.329686e+003;3.647768e-002
2.331615e+003;3.629505e-002
2.333543e+003;3.620565e-002
2.335472e+003;3.618196e-002
2.337400e+003;3.640461e-002
2.339329e+003;3.656108e-002
2.341257e+003;3.654397e-002
2.343186e+003;3.674149e-002
2.345114e+003;3.672793e-002
2.347043e+003;3.656833e-002
2.348971e+003;3.624218e-002
2.350900e+003;3.578297e-002
2.352829e+003;3.493860e-002
2.354757e+003;3.385433e-002
2.356686e+003;3.314620e-002
2.358614e+003;3.258821e-002
2.360543e+003;3.198232e-002
2.362471e+003;3.163001e-002
2.364400e+003;3.118815e-002
2.366328e+003;3.074440e-002
2.368257e+003;3.083883e-002
2.370186e+003;3.108229e-002
2.372114e+003;3.102876e-002
2.374042e+003;3.100862e-002
2.375971e+003;3.078423e-002
2.377900e+003;3.070446e-002
2.379828e+003;3.113091e-002
2.381757e+003;3.128760e-002
2.383685e+003;3.121190e-002
2.385614e+003;3.093990e-002
2.387542e+003;3.092532e-002
2.389471e+003;3.133375e-002
2.391399e+003;3.168389e-002
2.393328e+003;3.188678e-002
2.395257e+003;3.157221e-002
2.397185e+003;3.123725e-002
2.399114e+003;3.163364e-002
2.401042e+003;3.206671e-002
2.402971e+003;3.201938e-002
2.404899e+003;3.191794e-002
2.406828e+003;3.196145e-002
2.408756e+003;3.209479e-002
2.410685e+003;3.247454e-002
2.412614e+003;3.308609e-002
2.414542e+003;3.310243e-002
2.416471e+003;3.316033e-002
2.418399e+003;3.323812e-002
2.420328e+003;3.308130e-002
2.422256e+003;3.254803e-002
2.424185e+003;3.196773e-002
2.426113e+003;3.181458e-002
2.428042e+003;3.196281e-002
2.429970e+003;3.195018e-002
2.431899e+003;3.174777e-002
2.433828e+003;3.179457e-002
2.435756e+003;3.172724e-002
2.437685e+003;3.125722e-002
2.439613e+003;3.101620e-002
2.441542e+003;3.105858e-002
2.443470e+003;3.105107e-002
2.445399e+003;3.100730e-002
2.447327e+003;3.108318e-002
2.449256e+003;3.114048e-002
2.451185e+003;3.127396e-002
2.453113e+003;3.108592e-002
2.455042e+003;3.102467e-002
2.456970e+003;3.121361e-002
2.458899e+003;3.121097e-002
2.460827e+003;3.149870e-002
2.462756e+003;3.172364e-002
2.464684e+003;3.178213e-002
2.466613e+003;3.181344e-002
2.468542e+003;3.225475e-002
2.470470e+003;3.307826e-002
2.472398e+003;3.376321e-002
2.474327e+003;3.407478e-002
2.476256e+003;3.395195e-002
2.478184e+003;3.355895e-002
2.480113e+003;3.323300e-002
2.482041e+003;3.328459e-002
2.483970e+003;3.347705e-002
2.485898e+003;3.341733e-002
2.487827e+003;3.324084e-002
2.489755e+003;3.340555e-002
2.491684e+003;3.358715e-002
2.493613e+003;3.358486e-002
2.495541e+003;3.362482e-002
2.497470e+003;3.361171e-002
2.499398e+003;3.361390e-002
2.501327e+003;3.384859e-002
2.503255e+003;3.388309e-002
2.505184e+003;3.397603e-002
2.507112e+003;3.422150e-002
2.509041e+003;3.448605e-002
2.510969e+003;3.459838e-002
2.512898e+003;3.456494e-002
2.514827e+003;3.462558e-002
2.516755e+003;3.484571e-002
2.518684e+003;3.507278e-002
2.520612e+003;3.539604e-002
2.522541e+003;3.597137e-002
2.524469e+003;3.635485e-002
2.526398e+003;3.670511e-002
2.528326e+003;3.693769e-002
2.530255e+003;3.694477e-002
2.532184e+003;3.653059e-002
2.534112e+003;3.636534e-002
2.536041e+003;3.636642e-002
2.537969e+003;3.600247e-002
2.539898e+003;3.609791e-002
2.541826e+003;3.667017e-002
2.543755e+003;3.670792e-002
2.545683e+003;3.709032e-002
2.547612e+003;3.760076e-002
2.549541e+003;3.780647e-002
2.551469e+003;3.813810e-002
2.553397e+003;3.831305e-002
2.555326e+003;3.820261e-002
2.557255e+003;3.821523e-002
2.559183e+003;3.840758e-002
2.561112e+003;3.852876e-002
2.563040e+003;3.867712e-002
2.564969e+003;3.872432e-002
2.566897e+003;3.891204e-002
2.568826e+003;3.924133e-002
2.570754e+003;3.934572e-002
2.572683e+003;3.956913e-002
2.574612e+003;3.995566e-002
2.576540e+003;4.032864e-002
2.578469e+003;4.073965e-002
2.580397e+003;4.105420e-002
2.582326e+003;4.110479e-002
2.584254e+003;4.127113e-002
2.586183e+003;4.158723e-002
2.588111e+003;4.213705e-002
2.590040e+003;4.270336e-002
2.591969e+003;4.319537e-002
2.593897e+003;4.359910e-002
2.595826e+003;4.405373e-002
2.597754e+003;4.448748e-002
2.599683e+003;4.487996e-002
2.601611e+003;4.516733e-002
2.603540e+003;4.516851e-002
2.605468e+003;4.545413e-002
2.607397e+003;4.614054e-002
2.609325e+003;4.676199e-002
2.611254e+003;4.752440e-002
2.613183e+003;4.807302e-002
2.615111e+003;4.842927e-002
2.617040e+003;4.911057e-002
2.618968e+003;4.988102e-002
2.620897e+003;5.026554e-002
2.622825e+003;5.082788e-002
2.624754e+003;5.164295e-002
2.626682e+003;5.230208e-002
2.628611e+003;5.286676e-002
2.630540e+003;5.317857e-002
2.632468e+003;5.364740e-002
2.634396e+003;5.392789e-002
2.636325e+003;5.364017e-002
2.638254e+003;5.333975e-002
2.640182e+003;5.310177e-002
2.642111e+003;5.302053e-002
2.644039e+003;5.299260e-002
2.645968e+003;5.288637e-002
2.647896e+003;5.253289e-002
2.649825e+003;5.248948e-002
2.651753e+003;5.261393e-002
2.653682e+003;5.277423e-002
2.655611e+003;5.283267e-002
2.657539e+003;5.266544e-002
2.659468e+003;5.289734e-002
2.661396e+003;5.318872e-002
2.663325e+003;5.301693e-002
2.665253e+003;5.264075e-002
2.667182e+003;5.246047e-002
2.669110e+003;5.210344e-002
2.671039e+003;5.183466e-002
2.672968e+003;5.156004e-002
2.674896e+003;5.121401e-002
2.676825e+003;5.084132e-002
2.678753e+003;5.045589e-002
2.680682e+003;5.017132e-002
2.682610e+003;4.991295e-002
2.684539e+003;4.995406e-002
2.686467e+003;5.015600e-002
2.688396e+003;5.029202e-002
2.690324e+003;4.983788e-002
2.692253e+003;4.950925e-002
2.694182e+003;4.980361e-002
2.696110e+003;5.021666e-002
2.698039e+003;5.043077e-002
2.699967e+003;5.065557e-002
2.701896e+003;5.097947e-002
2.703824e+003;5.138140e-002
2.705753e+003;5.170416e-002
2.707681e+003;5.204901e-002
2.709610e+003;5.249568e-002
2.711539e+003;5.265676e-002
2.713467e+003;5.282560e-002
2.715396e+003;5.318277e-002
2.717324e+003;5.358521e-002
2.719253e+003;5.363897e-002
2.721181e+003;5.371414e-002
2.723110e+003;5.422721e-002
2.725038e+003;5.472487e-002
2.726967e+003;5.527871e-002
2.728896e+003;5.581628e-002
2.730824e+003;5.609963e-002
2.732752e+003;5.664746e-002
2.734681e+003;5.712746e-002
2.736610e+003;5.706027e-002
2.738538e+003;5.709651e-002
2.740467e+003;5.757810e-002
2.742395e+003;5.789017e-002
2.744324e+003;5.784160e-002
2.746252e+003;5.769048e-002
2.748181e+003;5.761983e-002
2.750109e+003;5.789256e-002
2.752038e+003;5.843375e-002
2.753967e+003;5.877253e-002
2.755895e+003;5.905524e-002
2.757824e+003;5.993301e-002
2.759752e+003;6.034549e-002
2.761681e+003;6.070101e-002
2.763609e+003;6.131214e-002
2.765538e+003;6.187518e-002
2.767466e+003;6.237519e-002
2.769395e+003;6.274022e-002
2.771323e+003;6.336661e-002
2.773252e+003;6.436753e-002
2.775181e+003;6.555815e-002
2.777109e+003;6.637937e-002
2.779038e+003;6.719607e-002
2.780966e+003;6.827822e-002
2.782895e+003;6.934254e-002
2.784823e+003;6.997401e-002
2.786752e+003;7.077466e-002
2.788680e+003;7.180533e-002
2.790609e+003;7.272592e-002
2.792538e+003;7.366096e-002
2.794466e+003;7.484107e-002
2.796395e+003;7.598741e-002
2.798323e+003;7.706266e-002
2.800252e+003;7.773872e-002
2.802180e+003;7.843377e-002
2.804109e+003;7.970201e-002
2.806037e+003;8.121315e-002
2.807966e+003;8.239872e-002
2.809895e+003;8.340847e-002
2.811823e+003;8.462112e-002
2.813751e+003;8.614437e-002
2.815680e+003;8.743848e-002
2.817609e+003;8.898874e-002
2.819537e+003;9.107395e-002
2.821466e+003;9.353307e-002
2.823394e+003;9.617316e-002
2.825323e+003;9.925156e-002
2.827251e+003;1.029719e-001
2.829180e+003;1.072985e-001
2.831108e+003;1.123818e-001
2.833037e+003;1.188926e-001
2.834966e+003;1.274532e-001
2.836894e+003;1.387735e-001
2.838823e+003;1.541014e-001
2.840751e+003;1.753348e-001
2.842680e+003;2.050283e-001
2.844608e+003;2.432064e-001
2.846537e+003;2.829630e-001
2.848465e+003;3.022850e-001
2.850394e+003;2.808577e-001
2.852323e+003;2.342564e-001
2.854251e+003;1.890339e-001
2.856180e+003;1.557461e-001
2.858108e+003;1.335660e-001
2.860037e+003;1.194658e-001
2.861965e+003;1.106756e-001
2.863894e+003;1.057303e-001
2.865822e+003;1.035946e-001
2.867751e+003;1.030987e-001
2.869679e+003;1.038908e-001
2.871608e+003;1.064598e-001
2.873536e+003;1.105420e-001
2.875465e+003;1.153819e-001
2.877394e+003;1.209359e-001
2.879322e+003;1.269012e-001
2.881251e+003;1.328343e-001
2.883179e+003;1.386697e-001
2.885108e+003;1.448753e-001
2.887036e+003;1.509558e-001
2.888965e+003;1.574750e-001
2.890893e+003;1.644607e-001
2.892822e+003;1.711188e-001
2.894750e+003;1.772200e-001
2.896679e+003;1.838118e-001
2.898608e+003;1.912947e-001
2.900536e+003;1.995135e-001
2.902465e+003;2.095418e-001
2.904393e+003;2.222866e-001
2.906322e+003;2.386301e-001
2.908250e+003;2.596039e-001
2.910179e+003;2.854529e-001
2.912107e+003;3.138360e-001
2.914036e+003;3.348733e-001
2.915965e+003;3.362551e-001
2.917893e+003;3.162347e-001
2.919822e+003;2.836596e-001
2.921750e+003;2.485231e-001
2.923679e+003;2.160352e-001
2.925607e+003;1.881240e-001
2.927536e+003;1.657188e-001
2.929464e+003;1.473807e-001
2.931393e+003;1.322254e-001
2.933322e+003;1.193369e-001
2.935250e+003;1.085564e-001
2.937178e+003;1.001268e-001
2.939107e+003;9.288361e-002
2.941036e+003;8.665731e-002
2.942964e+003;8.160964e-002
2.944893e+003;7.739928e-002
2.946821e+003;7.419714e-002
2.948750e+003;7.150662e-002
2.950678e+003;6.942845e-002
2.952607e+003;6.781537e-002
2.954535e+003;6.644558e-002
2.956464e+003;6.525061e-002
2.958393e+003;6.455195e-002
2.960321e+003;6.381810e-002
2.962250e+003;6.307212e-002
2.964178e+003;6.251590e-002
2.966107e+003;6.190782e-002
2.968035e+003;6.114370e-002
2.969964e+003;6.035227e-002
2.971892e+003;5.975081e-002
2.973821e+003;5.916302e-002
2.975750e+003;5.862112e-002
2.977678e+003;5.794193e-002
2.979607e+003;5.746088e-002
2.981535e+003;5.738528e-002
2.983464e+003;5.679003e-002
2.985392e+003;5.592307e-002
2.987321e+003;5.515086e-002
2.989249e+003;5.436087e-002
2.991178e+003;5.387901e-002
2.993106e+003;5.366202e-002
2.995035e+003;5.337838e-002
2.996964e+003;5.306002e-002
2.998892e+003;5.278878e-002
3.000821e+003;5.217816e-002
3.002749e+003;5.153109e-002
3.004678e+003;5.124525e-002
3.006606e+003;5.097712e-002
3.008535e+003;5.086185e-002
3.010463e+003;5.091028e-002
3.012392e+003;5.069276e-002
3.014321e+003;5.056655e-002
3.016249e+003;5.038080e-002
3.018177e+003;4.980989e-002
3.020106e+003;4.946269e-002
3.022035e+003;4.947045e-002
3.023963e+003;4.937054e-002
3.025892e+003;4.890156e-002
3.027820e+003;4.862360e-002
3.029749e+003;4.880716e-002
3.031677e+003;4.877156e-002
3.033606e+003;4.842249e-002
3.035534e+003;4.814250e-002
3.037463e+003;4.806129e-002
3.039392e+003;4.781046e-002
3.041320e+003;4.745827e-002
3.043249e+003;4.726321e-002
3.045177e+003;4.719579e-002
3.047106e+003;4.661898e-002
3.049034e+003;4.605259e-002
3.050963e+003;4.608141e-002
3.052891e+003;4.600824e-002
3.054820e+003;4.538552e-002
3.056749e+003;4.485747e-002
3.058677e+003;4.473056e-002
3.060606e+003;4.457041e-002
3.062534e+003;4.470158e-002
3.064463e+003;4.444718e-002
3.066391e+003;4.428923e-002
3.068320e+003;4.443716e-002
3.070248e+003;4.424153e-002
3.072177e+003;4.354390e-002
3.074105e+003;4.298684e-002
3.076034e+003;4.291493e-002
3.077963e+003;4.303093e-002
3.079891e+003;4.286256e-002
3.081820e+003;4.213252e-002
3.083748e+003;4.181091e-002
3.085677e+003;4.217907e-002
3.087605e+003;4.222472e-002
3.089534e+003;4.188710e-002
3.091462e+003;4.127936e-002
3.093391e+003;4.077619e-002
3.095320e+003;4.018781e-002
3.097248e+003;3.989739e-002
3.099177e+003;3.976694e-002
3.101105e+003;3.946309e-002
3.103034e+003;3.866930e-002
3.104962e+003;3.749990e-002
3.106891e+003;3.710992e-002
3.108819e+003;3.731643e-002
3.110748e+003;3.706286e-002
3.112677e+003;3.634736e-002
3.114605e+003;3.551817e-002
3.116533e+003;3.505029e-002
3.118462e+003;3.475647e-002
3.120391e+003;3.438601e-002
3.122319e+003;3.402745e-002
3.124248e+003;3.358393e-002
3.126176e+003;3.331149e-002
3.128105e+003;3.319395e-002
3.130033e+003;3.282579e-002
3.131962e+003;3.244473e-002
3.133890e+003;3.249997e-002
3.135819e+003;3.222509e-002
3.137748e+003;3.190097e-002
3.139676e+003;3.200547e-002
3.141605e+003;3.233259e-002
3.143533e+003;3.194626e-002
3.145462e+003;3.184267e-002
3.147390e+003;3.214545e-002
3.149319e+003;3.196855e-002
3.151247e+003;3.164127e-002
3.153176e+003;3.136438e-002
3.155104e+003;3.139105e-002
3.157033e+003;3.150732e-002
3.158962e+003;3.162142e-002
3.160890e+003;3.141011e-002
3.162819e+003;3.120634e-002
3.164747e+003;3.112222e-002
3.166676e+003;3.110154e-002
3.168604e+003;3.141282e-002
3.170533e+003;3.140694e-002
3.172461e+003;3.139864e-002
3.174390e+003;3.130665e-002
3.176319e+003;3.083929e-002
3.178247e+003;3.065244e-002
3.180176e+003;3.074454e-002
3.182104e+003;3.105559e-002
3.184033e+003;3.114814e-002
3.185961e+003;3.108101e-002
3.187890e+003;3.093151e-002
3.189818e+003;3.090088e-002
3.191747e+003;3.078213e-002
3.193676e+003;3.068320e-002
3.195604e+003;3.056405e-002
3.197532e+003;3.051436e-002
3.199461e+003;3.085954e-002
3.201390e+003;3.090333e-002
3.203318e+003;3.051304e-002
3.205247e+003;3.025278e-002
3.207175e+003;3.056242e-002
3.209104e+003;3.099243e-002
3.211032e+003;3.083769e-002
3.212961e+003;3.059964e-002
3.214889e+003;3.066588e-002
3.216818e+003;3.052200e-002
3.218747e+003;3.052275e-002
3.220675e+003;3.097937e-002
3.222604e+003;3.104445e-002
3.224532e+003;3.113657e-002
3.226461e+003;3.117815e-002
3.228389e+003;3.077545e-002
3.230318e+003;3.074269e-002
3.232246e+003;3.074166e-002
3.234175e+003;3.090767e-002
3.236104e+003;3.127959e-002
3.238032e+003;3.093891e-002
3.239961e+003;2.994734e-002
3.241889e+003;2.984945e-002
3.243818e+003;3.061457e-002
3.245746e+003;3.103346e-002
3.247675e+003;3.092688e-002
3.249603e+003;3.080269e-002
3.251532e+003;3.093823e-002
3.253460e+003;3.057098e-002
3.255389e+003;3.057518e-002
3.257318e+003;3.059633e-002
3.259246e+003;3.019300e-002
3.261175e+003;3.020589e-002
3.263103e+003;3.040304e-002
3.265032e+003;3.063242e-002
3.266960e+003;3.068931e-002
3.268889e+003;3.079085e-002
3.270817e+003;3.085164e-002
3.272746e+003;3.095706e-002
3.274675e+003;3.090322e-002
3.276603e+003;3.086046e-002
3.278531e+003;3.071150e-002
3.280460e+003;3.051674e-002
3.282389e+003;3.066517e-002
3.284317e+003;3.101509e-002
3.286246e+003;3.109713e-002
3.288174e+003;3.113739e-002
3.290103e+003;3.094058e-002
3.292031e+003;3.062147e-002
3.293960e+003;3.074678e-002
3.295888e+003;3.041178e-002
3.297817e+003;3.027964e-002
3.299746e+003;3.047558e-002
3.301674e+003;3.072281e-002
3.303603e+003;3.083798e-002
3.305531e+003;3.041313e-002
3.307460e+003;3.020554e-002
3.309388e+003;3.058275e-002
3.311317e+003;3.088109e-002
3.313245e+003;3.098090e-002
3.315174e+003;3.100317e-002
3.317103e+003;3.089774e-002
3.319031e+003;3.085078e-002
3.320960e+003;3.073238e-002
3.322888e+003;3.074173e-002
3.324817e+003;3.085061e-002
3.326745e+003;3.060799e-002
3.328674e+003;3.061738e-002
3.330602e+003;3.086822e-002
3.332531e+003;3.098303e-002
3.334459e+003;3.116551e-002
3.336388e+003;3.127909e-002
3.338317e+003;3.097574e-002
3.340245e+003;3.088917e-002
3.342174e+003;3.081546e-002
3.344102e+003;3.085630e-002
3.346031e+003;3.124401e-002
3.347959e+003;3.139330e-002
3.349888e+003;3.120189e-002
3.351816e+003;3.130337e-002
3.353745e+003;3.104645e-002
3.355674e+003;3.066918e-002
3.357602e+003;3.074692e-002
3.359531e+003;3.097698e-002
3.361459e+003;3.109891e-002
3.363388e+003;3.137787e-002
3.365316e+003;3.149112e-002
3.367245e+003;3.162883e-002
3.369173e+003;3.153821e-002
3.371102e+003;3.154794e-002
3.373031e+003;3.166486e-002
3.374959e+003;3.120300e-002
3.376887e+003;3.065795e-002
3.378816e+003;3.060597e-002
3.380745e+003;3.043023e-002
3.382673e+003;3.023498e-002
3.384602e+003;3.044309e-002
3.386530e+003;3.040905e-002
3.388459e+003;3.037610e-002
3.390387e+003;3.058606e-002
3.392316e+003;3.013109e-002
3.394244e+003;2.971524e-002
3.396173e+003;2.998767e-002
3.398102e+003;3.019470e-002
3.400030e+003;3.022241e-002
3.401959e+003;2.998235e-002
3.403887e+003;2.992246e-002
3.405816e+003;3.022152e-002
3.407744e+003;3.058826e-002
3.409673e+003;3.010659e-002
3.411601e+003;2.992899e-002
3.413530e+003;2.998238e-002
3.415458e+003;2.976555e-002
3.417387e+003;3.006681e-002
3.419316e+003;3.038037e-002
3.421244e+003;3.011085e-002
3.423173e+003;3.022401e-002
3.425101e+003;3.055353e-002
3.427030e+003;3.031179e-002
3.428958e+003;3.008936e-002
3.430887e+003;3.008553e-002
3.432815e+003;2.969838e-002
3.434744e+003;2.926214e-002
3.436673e+003;2.947305e-002
3.438601e+003;2.983514e-002
3.440530e+003;2.971932e-002
3.442458e+003;2.923325e-002
3.444387e+003;2.880980e-002
3.446315e+003;2.868950e-002
3.448244e+003;2.910746e-002
3.450172e+003;2.921869e-002
3.452101e+003;2.906724e-002
3.454030e+003;2.897550e-002
3.455958e+003;2.909431e-002
3.457886e+003;2.925090e-002
3.459815e+003;2.901939e-002
3.461744e+003;2.872359e-002
3.463672e+003;2.870703e-002
3.465601e+003;2.850700e-002
3.467529e+003;2.856039e-002
3.469458e+003;2.865025e-002
3.471386e+003;2.869627e-002
3.473315e+003;2.878278e-002
3.475243e+003;2.876891e-002
3.477172e+003;2.899183e-002
3.479101e+003;2.871587e-002
3.481029e+003;2.838891e-002
3.482958e+003;2.821375e-002
3.484886e+003;2.804233e-002
3.486815e+003;2.808446e-002
3.488743e+003;2.845340e-002
3.490672e+003;2.856192e-002
3.492600e+003;2.789688e-002
3.494529e+003;2.779559e-002
3.496458e+003;2.789918e-002
3.498386e+003;2.827043e-002
3.500315e+003;2.828511e-002
3.502243e+003;2.775130e-002
3.504172e+003;2.728613e-002
3.506100e+003;2.768010e-002
3.508029e+003;2.836366e-002
3.509957e+003;2.870504e-002
3.511886e+003;2.860707e-002
3.513814e+003;2.844056e-002
3.515743e+003;2.843108e-002
3.517672e+003;2.837264e-002
3.519600e+003;2.839270e-002
3.521529e+003;2.790490e-002
3.523457e+003;2.760121e-002
3.525386e+003;2.814028e-002
3.527314e+003;2.799564e-002
3.529243e+003;2.725900e-002
3.531171e+003;2.742944e-002
3.533100e+003;2.803392e-002
3.535029e+003;2.755923e-002
3.536957e+003;2.759588e-002
3.538885e+003;2.795709e-002
3.540814e+003;2.799324e-002
3.542743e+003;2.783297e-002
3.544671e+003;2.755020e-002
3.546600e+003;2.747476e-002
3.548528e+003;2.766562e-002
3.550457e+003;2.775762e-002
3.552385e+003;2.777740e-002
3.554314e+003;2.802745e-002
3.556242e+003;2.845648e-002
3.558171e+003;2.840105e-002
3.560100e+003;2.832581e-002
3.562028e+003;2.828627e-002
3.563957e+003;2.775211e-002
3.565885e+003;2.691321e-002
3.567814e+003;2.716855e-002
3.569742e+003;2.830926e-002
3.571671e+003;2.908053e-002
3.573599e+003;2.931768e-002
3.575528e+003;2.947024e-002
3.577457e+003;2.964279e-002
3.579385e+003;2.970211e-002
3.581314e+003;2.994990e-002
3.583242e+003;3.014491e-002
3.585171e+003;2.913952e-002
3.587099e+003;2.846185e-002
3.589028e+003;2.955092e-002
3.590956e+003;3.082012e-002
3.592885e+003;3.136292e-002
3.594813e+003;3.168539e-002
3.596742e+003;3.264800e-002
3.598671e+003;3.392174e-002
3.600599e+003;3.463333e-002
3.602528e+003;3.534356e-002
3.604456e+003;3.577578e-002
3.606385e+003;3.484129e-002
3.608313e+003;3.326223e-002
3.610242e+003;3.292468e-002
3.612170e+003;3.298602e-002
3.614099e+003;3.298770e-002
3.616028e+003;3.253224e-002
3.617956e+003;3.133147e-002
3.619885e+003;3.120093e-002
3.621813e+003;3.174492e-002
3.623742e+003;3.215223e-002
3.625670e+003;3.162081e-002
3.627599e+003;2.849416e-002
3.629527e+003;2.747246e-002
3.631456e+003;3.008045e-002
3.633385e+003;3.130170e-002
3.635313e+003;3.164647e-002
3.637241e+003;3.220094e-002
3.639170e+003;3.245305e-002
3.641099e+003;3.252717e-002
3.643027e+003;3.295939e-002
3.644956e+003;3.219369e-002
3.646884e+003;2.974923e-002
3.648813e+003;2.867368e-002
3.650741e+003;3.042522e-002
3.652670e+003;3.224247e-002
3.654598e+003;3.107930e-002
3.656527e+003;3.031783e-002
3.658456e+003;3.197665e-002
3.660384e+003;3.268926e-002
3.662313e+003;3.255421e-002
3.664241e+003;3.219876e-002
3.666170e+003;3.124302e-002
3.668098e+003;2.892921e-002
3.670027e+003;2.726221e-002
3.671955e+003;2.859023e-002
3.673884e+003;2.753780e-002
3.675813e+003;2.657464e-002
3.677741e+003;2.971715e-002
3.679669e+003;3.172050e-002
3.681598e+003;3.224897e-002
3.683527e+003;3.174025e-002
3.685455e+003;3.035475e-002
3.687384e+003;2.771174e-002
3.689312e+003;2.753526e-002
3.691241e+003;2.937416e-002
3.693169e+003;3.104271e-002
3.695098e+003;3.187498e-002
3.697026e+003;3.174502e-002
3.698955e+003;3.118947e-002
3.700884e+003;3.041139e-002
3.702812e+003;3.084214e-002
3.704741e+003;3.136698e-002
3.706669e+003;3.063110e-002
3.708598e+003;2.914640e-002
3.710526e+003;2.747493e-002
3.712455e+003;2.770750e-002
3.714383e+003;2.969484e-002
3.716312e+003;3.042113e-002
3.718240e+003;3.024500e-002
3.720169e+003;2.981325e-002
3.722098e+003;2.980856e-002
3.724026e+003;2.977765e-002
3.725955e+003;2.931985e-002
3.727883e+003;2.960069e-002
3.729812e+003;2.884496e-002
3.731740e+003;2.715254e-002
3.733669e+003;2.701204e-002
3.735597e+003;2.670355e-002
3.737526e+003;2.797486e-002
3.739455e+003;2.938050e-002
3.741383e+003;2.828026e-002
3.743312e+003;2.367110e-002
3.745240e+003;2.379572e-002
3.747169e+003;2.568271e-002
3.749097e+003;2.368090e-002
3.751026e+003;2.395524e-002
3.752954e+003;2.674093e-002
3.754883e+003;2.885813e-002
3.756812e+003;2.893516e-002
3.758740e+003;2.904376e-002
3.760668e+003;2.982865e-002
3.762597e+003;3.076115e-002
3.764526e+003;2.994543e-002
3.766454e+003;2.997805e-002
3.768383e+003;2.956777e-002
3.770311e+003;2.930854e-002
3.772240e+003;3.083993e-002
3.774168e+003;3.174709e-002
3.776097e+003;3.135893e-002
3.778025e+003;3.045379e-002
3.779954e+003;3.015130e-002
3.781883e+003;3.105798e-002
3.783811e+003;3.116740e-002
3.785740e+003;3.160881e-002
3.787668e+003;3.215704e-002
3.789597e+003;3.222556e-002
3.791525e+003;3.225928e-002
3.793454e+003;3.217085e-002
3.795382e+003;3.159975e-002
3.797311e+003;3.143583e-002
3.799240e+003;2.945709e-002
3.801168e+003;2.726793e-002
3.803097e+003;2.961846e-002
3.805025e+003;3.054606e-002
3.806954e+003;2.985583e-002
3.808882e+003;3.128571e-002
3.810811e+003;3.193021e-002
3.812739e+003;3.161589e-002
3.814668e+003;2.938876e-002
3.816596e+003;2.933328e-002
3.818525e+003;3.087170e-002
3.820454e+003;2.999488e-002
3.822382e+003;3.125640e-002
3.824311e+003;3.270208e-002
3.826239e+003;3.265872e-002
3.828168e+003;3.294795e-002
3.830096e+003;3.262064e-002
3.832025e+003;3.182217e-002
3.833953e+003;3.122290e-002
3.835882e+003;2.980792e-002
3.837811e+003;2.859907e-002
3.839739e+003;3.045336e-002
3.841667e+003;3.178438e-002
3.843596e+003;3.228216e-002
3.845525e+003;3.317417e-002
3.847453e+003;3.319781e-002
3.849382e+003;3.118794e-002
3.851310e+003;2.733662e-002
3.853239e+003;2.425106e-002
3.855167e+003;2.809157e-002
3.857096e+003;3.237782e-002
3.859024e+003;3.268111e-002
3.860953e+003;3.176449e-002
3.862882e+003;3.127036e-002
3.864810e+003;3.154409e-002
3.866739e+003;3.176609e-002
3.868667e+003;3.034682e-002
3.870596e+003;3.139907e-002
3.872524e+003;3.341639e-002
3.874453e+003;3.398746e-002
3.876381e+003;3.469437e-002
3.878310e+003;3.397767e-002
3.880239e+003;3.322091e-002
3.882167e+003;3.337410e-002
3.884096e+003;3.279334e-002
3.886024e+003;3.279477e-002
3.887953e+003;3.411958e-002
3.889881e+003;3.310293e-002
3.891810e+003;3.270662e-002
3.893738e+003;3.449078e-002
3.895667e+003;3.514003e-002
3.897595e+003;3.452440e-002
3.899524e+003;3.360330e-002
3.901453e+003;3.254171e-002
3.903381e+003;3.206325e-002
3.905310e+003;3.353321e-002
3.907238e+003;3.525759e-002
3.909167e+003;3.547999e-002
3.911095e+003;3.520793e-002
3.913024e+003;3.525192e-002
3.914952e+003;3.434151e-002
3.916881e+003;3.349169e-002
3.918810e+003;3.414496e-002
3.920738e+003;3.416270e-002
3.922667e+003;3.364136e-002
3.924595e+003;3.396936e-002
3.926524e+003;3.505945e-002
3.928452e+003;3.564660e-002
3.930381e+003;3.510518e-002
3.932309e+003;3.401569e-002
3.934238e+003;3.373345e-002
3.936167e+003;3.436292e-002
3.938095e+003;3.465917e-002
3.940023e+003;3.424494e-002
3.941952e+003;3.386038e-002
3.943881e+003;3.375999e-002
3.945809e+003;3.362080e-002
3.947738e+003;3.319133e-002
3.949666e+003;3.333821e-002
3.951595e+003;3.404862e-002
3.953523e+003;3.392945e-002
3.955452e+003;3.405987e-002
3.957380e+003;3.425825e-002
3.959309e+003;3.413948e-002
3.961238e+003;3.382159e-002
3.963166e+003;3.333546e-002
3.965095e+003;3.349216e-002
3.967023e+003;3.415547e-002
3.968952e+003;3.454732e-002
3.970880e+003;3.440480e-002
3.972809e+003;3.403762e-002
3.974737e+003;3.444695e-002
3.976666e+003;3.508898e-002
3.978594e+003;3.454621e-002
3.980523e+003;3.377274e-002
3.982452e+003;3.392436e-002
3.984380e+003;3.387406e-002
3.986309e+003;3.340387e-002
3.988237e+003;3.374083e-002
3.990166e+003;3.397893e-002
3.992094e+003;3.393858e-002
3.994023e+003;3.423713e-002
3.995951e+003;3.436263e-002
3.997880e+003;3.386400e-002
3.999809e+003;3.337385e-002
4.001737e+003;0.000000e+000
