3.992094e+002;0.000000e+000
4.011380e+002;0.000000e+000
4.030665e+002;0.000000e+000
4.049951e+002;0.000000e+000
4.069236e+002;0.000000e+000
4.088522e+002;0.000000e+000
4.107807e+002;0.000000e+000
4.127093e+002;0.000000e+000
4.146378e+002;0.000000e+000
4.165664e+002;0.000000e+000
4.184949e+002;0.000000e+000
4.204235e+002;0.000000e+000
4.223520e+002;0.000000e+000
4.242806e+002;0.000000e+000
4.262091e+002;0.000000e+000
4.281377e+002;0.000000e+000
4.300662e+002;0.000000e+000
4.319948e+002;0.000000e+000
4.339233e+002;0.000000e+000
4.358519e+002;0.000000e+000
4.377804e+002;0.000000e+000
4.397090e+002;0.000000e+000
4.416375e+002;0.000000e+000
4.435660e+002;0.000000e+000
4.454946e+002;0.000000e+000
4.474232e+002;0.000000e+000
4.493517e+002;0.000000e+000
4.512802e+002;0.000000e+000
4.532088e+002;0.000000e+000
4.551373e+002;0.000000e+000
4.570659e+002;0.000000e+000
4.589944e+002;0.000000e+000
4.609230e+002;0.000000e+000
4.628515e+002;0.000000e+000
4.647801e+002;0.000000e+000
4.667086e+002;0.000000e+000
4.686372e+002;0.000000e+000
4.705657e+002;0.000000e+000
4.724943e+002;0.000000e+000
4.744228e+002;0.000000e+000
4.763513e+002;0.000000e+000
4.782799e+002;0.000000e+000
4.802085e+002;0.000000e+000
4.821370e+002;0.000000e+000
4.840656e+002;0.000000e+000
4.859941e+002;0.000000e+000
4.879226e+002;0.000000e+000
4.898512e+002;0.000000e+000
4.917798e+002;0.000000e+000
4.937083e+002;0.000000e+000
4.956368e+002;0.000000e+000
4.975654e+002;0.000000e+000
4.994939e+002;0.000000e+000
5.014225e+002;0.000000e+000
5.033510e+002;0.000000e+000
5.052796e+002;0.000000e+000
5.072081e+002;0.000000e+000
5.091367e+002;0.000000e+000
5.110652e+002;0.000000e+000
5.129938e+002;0.000000e+000
5.149223e+002;0.000000e+000
5.168509e+002;0.000000e+000
5.187794e+002;0.000000e+000
5.207079e+002;0.000000e+000
5.226365e+002;0.000000e+000
5.245651e+002;0.000000e+000
5.264936e+002;0.000000e+000
5.284222e+002;0.000000e+000
5.303507e+002;0.000000e+000
5.322792e+002;0.000000e+000
5.342078e+002;0.000000e+000
5.361364e+002;0.000000e+000
5.380649e+002;0.000000e+000
5.399935e+002;0.000000e+000
5.419220e+002;0.000000e+000
5.438505e+002;0.000000e+000
5.457791e+002;0.000000e+000
5.477076e+002;0.000000e+000
5.496362e+002;0.000000e+000
5.515648e+002;0.000000e+000
5.534933e+002;0.000000e+000
5.554218e+002;0.000000e+000
5.573504e+002;0.000000e+000
5.592789e+002;0.000000e+000
5.612075e+002;0.000000e+000
5.631360e+002;0.000000e+000
5.650646e+002;0.000000e+000
5.669931e+002;0.000000e+000
5.689217e+002;0.000000e+000
5.708502e+002;0.000000e+000
5.727787e+002;0.000000e+000
5.747073e+002;0.000000e+000
5.766359e+002;0.000000e+000
5.785644e+002;0.000000e+000
5.804930e+002;0.000000e+000
5.824215e+002;0.000000e+000
5.843500e+002;0.000000e+000
5.862786e+002;0.000000e+000
5.882072e+002;0.000000e+000
5.901357e+002;0.000000e+000
5.920643e+002;0.000000e+000
5.939928e+002;0.000000e+000
5.959213e+002;0.000000e+000
5.978499e+002;0.000000e+000
5.997784e+002;3.238853e-002
6.017070e+002;3.316408e-002
6.036355e+002;2.709219e-002
6.055641e+002;2.597820e-002
6.074926e+002;2.724538e-002
6.094211e+002;2.747525e-002
6.113497e+002;2.750476e-002
6.132783e+002;2.354935e-002
6.152068e+002;2.336239e-002
6.171354e+002;2.818935e-002
6.190639e+002;2.727625e-002
6.209924e+002;2.470373e-002
6.229210e+002;2.380541e-002
6.248495e+002;2.596789e-002
6.267781e+002;3.002200e-002
6.287067e+002;2.950861e-002
6.306352e+002;2.562798e-002
6.325637e+002;2.788515e-002
6.344923e+002;3.038325e-002
6.364208e+002;2.714929e-002
6.383494e+002;2.544595e-002
6.402780e+002;2.533277e-002
6.422065e+002;2.522141e-002
6.441350e+002;2.596835e-002
6.460636e+002;2.956291e-002
6.479921e+002;3.000908e-002
6.499207e+002;3.082318e-002
6.518492e+002;3.127770e-002
6.537778e+002;3.115882e-002
6.557063e+002;3.135925e-002
6.576349e+002;2.982794e-002
6.595634e+002;3.002687e-002
6.614919e+002;3.131459e-002
6.634205e+002;3.133414e-002
6.653491e+002;3.082517e-002
6.672776e+002;3.169986e-002
6.692062e+002;3.192668e-002
6.711347e+002;3.164533e-002
6.730632e+002;3.157239e-002
6.749918e+002;3.129589e-002
6.769203e+002;3.160478e-002
6.788489e+002;3.326573e-002
6.807775e+002;3.608513e-002
6.827060e+002;3.790538e-002
6.846345e+002;3.859774e-002
6.865631e+002;4.075675e-002
6.884916e+002;4.311911e-002
6.904202e+002;4.462160e-002
6.923488e+002;4.687942e-002
6.942773e+002;4.939096e-002
6.962058e+002;5.219853e-002
6.981344e+002;5.623961e-002
7.000629e+002;6.022603e-002
7.019915e+002;6.445808e-002
7.039200e+002;7.106635e-002
7.058486e+002;8.019739e-002
7.077771e+002;9.225602e-002
7.097057e+002;1.095629e-001
7.116342e+002;1.349737e-001
7.135627e+002;1.661492e-001
7.154913e+002;1.887593e-001
7.174199e+002;1.885592e-001
7.193484e+002;1.651175e-001
7.212770e+002;1.324870e-001
7.232055e+002;1.085491e-001
7.251340e+002;9.394908e-002
7.270626e+002;8.637643e-002
7.289911e+002;8.711368e-002
7.309197e+002;9.146933e-002
7.328483e+002;8.616635e-002
7.347768e+002;6.955983e-002
7.367053e+002;5.396623e-002
7.386339e+002;4.394755e-002
7.405624e+002;3.954714e-002
7.424910e+002;3.781966e-002
7.444196e+002;3.590223e-002
7.463481e+002;3.471153e-002
7.482766e+002;3.408557e-002
7.502052e+002;3.283926e-002
7.521337e+002;3.072317e-002
7.540623e+002;2.917308e-002
7.559908e+002;2.932009e-002
7.579194e+002;2.915200e-002
7.598479e+002;2.832747e-002
7.617765e+002;2.823712e-002
7.637050e+002;2.772877e-002
7.656335e+002;2.728797e-002
7.675621e+002;2.764440e-002
7.694907e+002;2.676134e-002
7.714192e+002;2.569593e-002
7.733478e+002;2.572729e-002
7.752763e+002;2.624939e-002
7.772048e+002;2.667497e-002
7.791334e+002;2.663097e-002
7.810620e+002;2.608681e-002
7.829905e+002;2.647560e-002
7.849191e+002;2.675362e-002
7.868476e+002;2.600318e-002
7.887761e+002;2.640415e-002
7.907047e+002;2.763049e-002
7.926332e+002;2.831149e-002
7.945618e+002;2.741648e-002
7.964903e+002;2.704053e-002
7.984189e+002;2.746593e-002
8.003474e+002;2.762766e-002
8.022759e+002;2.882010e-002
8.042045e+002;2.948177e-002
8.061331e+002;2.893764e-002
8.080616e+002;2.878314e-002
8.099902e+002;2.852282e-002
8.119187e+002;2.828182e-002
8.138472e+002;2.873290e-002
8.157758e+002;2.941500e-002
8.177043e+002;2.946893e-002
8.196329e+002;2.944443e-002
8.215615e+002;2.884414e-002
8.234900e+002;2.853364e-002
8.254185e+002;2.956018e-002
8.273471e+002;3.025719e-002
8.292756e+002;3.026404e-002
8.312042e+002;3.076848e-002
8.331328e+002;3.110809e-002
8.350613e+002;3.132919e-002
8.369898e+002;3.113155e-002
8.389184e+002;3.118541e-002
8.408469e+002;3.137392e-002
8.427755e+002;3.023793e-002
8.447040e+002;2.938210e-002
8.466326e+002;2.956309e-002
8.485611e+002;2.934466e-002
8.504897e+002;2.890845e-002
8.524182e+002;2.870186e-002
8.543467e+002;2.854079e-002
8.562753e+002;2.824670e-002
8.582039e+002;2.810189e-002
8.601324e+002;2.765704e-002
8.620610e+002;2.731757e-002
8.639895e+002;2.761795e-002
8.659180e+002;2.824380e-002
8.678466e+002;2.861203e-002
8.697751e+002;2.911405e-002
8.717037e+002;2.992377e-002
8.736323e+002;3.039085e-002
8.755608e+002;3.007995e-002
8.774893e+002;2.981616e-002
8.794179e+002;2.976999e-002
8.813464e+002;3.020568e-002
8.832750e+002;3.045553e-002
8.852036e+002;3.052090e-002
8.871321e+002;3.090127e-002
8.890606e+002;3.120332e-002
8.909892e+002;3.103755e-002
8.929177e+002;3.079006e-002
8.948463e+002;3.077463e-002
8.967748e+002;3.112835e-002
8.987034e+002;3.133695e-002
9.006319e+002;3.148549e-002
9.025605e+002;3.136965e-002
9.044890e+002;3.130732e-002
9.064175e+002;3.192654e-002
9.083461e+002;3.240706e-002
9.102747e+002;3.241577e-002
9.122032e+002;3.229797e-002
9.141318e+002;3.173312e-002
9.160603e+002;3.148969e-002
9.179888e+002;3.125605e-002
9.199174e+002;3.094471e-002
9.218459e+002;3.081948e-002
9.237745e+002;3.104260e-002
9.257031e+002;3.110524e-002
9.276316e+002;3.105663e-002
9.295601e+002;3.139341e-002
9.314887e+002;3.181368e-002
9.334172e+002;3.151256e-002
9.353458e+002;3.112308e-002
9.372744e+002;3.080917e-002
9.392029e+002;3.107019e-002
9.411314e+002;3.136915e-002
9.430600e+002;3.158607e-002
9.449885e+002;3.186449e-002
9.469171e+002;3.150914e-002
9.488456e+002;3.109015e-002
9.507742e+002;3.125644e-002
9.527027e+002;3.147779e-002
9.546313e+002;3.138489e-002
9.565598e+002;3.140890e-002
9.584883e+002;3.144028e-002
9.604169e+002;3.112411e-002
9.623455e+002;3.111482e-002
9.642740e+002;3.169926e-002
9.662026e+002;3.240835e-002
9.681311e+002;3.242784e-002
9.700596e+002;3.235098e-002
9.719882e+002;3.253128e-002
9.739167e+002;3.293980e-002
9.758453e+002;3.297326e-002
9.777739e+002;3.289101e-002
9.797024e+002;3.277404e-002
9.816309e+002;3.272477e-002
9.835595e+002;3.246179e-002
9.854880e+002;3.205797e-002
9.874166e+002;3.174770e-002
9.893452e+002;3.140199e-002
9.912737e+002;3.132310e-002
9.932022e+002;3.171961e-002
9.951307e+002;3.173337e-002
9.970593e+002;3.169437e-002
9.989879e+002;3.187647e-002
1.000916e+003;3.256310e-002
1.002845e+003;3.311584e-002
1.004773e+003;3.333521e-002
1.006702e+003;3.355361e-002
1.008631e+003;3.327418e-002
1.010559e+003;3.309835e-002
1.012488e+003;3.354574e-002
1.014416e+003;3.374817e-002
1.016345e+003;3.369535e-002
1.018273e+003;3.400641e-002
1.020202e+003;3.512717e-002
1.022130e+003;3.634804e-002
1.024059e+003;3.717434e-002
1.025988e+003;3.861918e-002
1.027916e+003;4.051146e-002
1.029845e+003;4.152535e-002
1.031773e+003;4.160852e-002
1.033702e+003;4.128709e-002
1.035630e+003;4.102663e-002
1.037559e+003;4.062787e-002
1.039487e+003;3.996656e-002
1.041416e+003;3.922439e-002
1.043344e+003;3.885229e-002
1.045273e+003;3.890092e-002
1.047202e+003;3.892099e-002
1.049130e+003;3.939074e-002
1.051059e+003;4.014449e-002
1.052987e+003;4.074216e-002
1.054916e+003;4.123374e-002
1.056844e+003;4.155379e-002
1.058773e+003;4.180989e-002
1.060701e+003;4.252645e-002
1.062630e+003;4.346621e-002
1.064558e+003;4.391972e-002
1.066487e+003;4.435208e-002
1.068416e+003;4.510476e-002
1.070344e+003;4.554453e-002
1.072273e+003;4.556308e-002
1.074201e+003;4.638945e-002
1.076130e+003;4.732627e-002
1.078058e+003;4.701642e-002
1.079987e+003;4.618970e-002
1.081915e+003;4.508576e-002
1.083844e+003;4.350108e-002
1.085773e+003;4.271626e-002
1.087701e+003;4.252152e-002
1.089630e+003;4.199366e-002
1.091558e+003;4.060487e-002
1.093487e+003;3.856725e-002
1.095415e+003;3.746894e-002
1.097344e+003;3.713142e-002
1.099272e+003;3.700321e-002
1.101201e+003;3.703598e-002
1.103129e+003;3.725199e-002
1.105058e+003;3.710551e-002
1.106987e+003;3.624823e-002
1.108915e+003;3.505679e-002
1.110844e+003;3.446155e-002
1.112772e+003;3.444013e-002
1.114701e+003;3.449247e-002
1.116629e+003;3.411062e-002
1.118558e+003;3.361196e-002
1.120486e+003;3.359449e-002
1.122415e+003;3.372618e-002
1.124344e+003;3.412059e-002
1.126272e+003;3.462805e-002
1.128201e+003;3.414303e-002
1.130129e+003;3.355189e-002
1.132058e+003;3.336630e-002
1.133986e+003;3.346216e-002
1.135915e+003;3.344939e-002
1.137843e+003;3.345859e-002
1.139772e+003;3.352877e-002
1.141700e+003;3.374054e-002
1.143629e+003;3.499085e-002
1.145557e+003;3.623097e-002
1.147486e+003;3.659940e-002
1.149415e+003;3.640198e-002
1.151343e+003;3.618862e-002
1.153272e+003;3.611876e-002
1.155200e+003;3.545266e-002
1.157129e+003;3.468281e-002
1.159057e+003;3.418013e-002
1.160986e+003;3.397764e-002
1.162914e+003;3.392293e-002
1.164843e+003;3.363376e-002
1.166771e+003;3.336759e-002
1.168700e+003;3.325450e-002
1.170629e+003;3.307096e-002
1.172557e+003;3.248589e-002
1.174486e+003;3.280402e-002
1.176414e+003;3.299971e-002
1.178343e+003;3.217389e-002
1.180271e+003;3.187305e-002
1.182200e+003;3.189098e-002
1.184128e+003;3.125174e-002
1.186057e+003;3.026877e-002
1.187986e+003;2.941631e-002
1.189914e+003;2.923425e-002
1.191843e+003;2.923439e-002
1.193771e+003;2.908960e-002
1.195700e+003;2.907114e-002
1.197628e+003;2.879794e-002
1.199557e+003;2.849076e-002
1.201485e+003;2.838690e-002
1.203414e+003;2.851599e-002
1.205343e+003;2.880449e-002
1.207271e+003;2.852084e-002
1.209200e+003;2.811628e-002
1.211128e+003;2.799282e-002
1.213057e+003;2.792536e-002
1.214985e+003;2.792469e-002
1.216914e+003;2.800466e-002
1.218842e+003;2.803650e-002
1.220771e+003;2.805845e-002
1.222699e+003;2.827517e-002
1.224628e+003;2.863956e-002
1.226557e+003;2.873450e-002
1.228485e+003;2.885300e-002
1.230414e+003;2.883869e-002
1.232342e+003;2.914983e-002
1.234271e+003;2.954968e-002
1.236199e+003;2.945035e-002
1.238128e+003;2.934034e-002
1.240056e+003;2.897833e-002
1.241985e+003;2.885902e-002
1.243913e+003;2.947219e-002
1.245842e+003;3.003454e-002
1.247771e+003;3.052864e-002
1.249699e+003;3.087341e-002
1.251628e+003;3.148976e-002
1.253556e+003;3.254149e-002
1.255485e+003;3.322134e-002
1.257413e+003;3.304290e-002
1.259342e+003;3.216211e-002
1.261270e+003;3.158749e-002
1.263199e+003;3.115433e-002
1.265127e+003;3.141745e-002
1.267056e+003;3.210916e-002
1.268985e+003;3.217603e-002
1.270913e+003;3.188421e-002
1.272842e+003;3.199936e-002
1.274770e+003;3.243294e-002
1.276699e+003;3.257160e-002
1.278627e+003;3.213678e-002
1.280556e+003;3.172877e-002
1.282484e+003;3.166739e-002
1.284413e+003;3.205783e-002
1.286342e+003;3.222031e-002
1.288270e+003;3.203703e-002
1.290199e+003;3.224643e-002
1.292127e+003;3.276676e-002
1.294056e+003;3.330984e-002
1.295984e+003;3.362055e-002
1.297913e+003;3.366248e-002
1.299841e+003;3.369069e-002
1.301770e+003;3.378803e-002
1.303698e+003;3.378158e-002
1.305627e+003;3.356807e-002
1.307556e+003;3.299792e-002
1.309484e+003;3.235701e-002
1.311413e+003;3.165417e-002
1.313341e+003;3.076193e-002
1.315270e+003;2.971911e-002
1.317198e+003;2.880222e-002
1.319127e+003;2.797024e-002
1.321055e+003;2.761523e-002
1.322984e+003;2.734139e-002
1.324912e+003;2.678555e-002
1.326841e+003;2.627695e-002
1.328770e+003;2.589312e-002
1.330698e+003;2.568595e-002
1.332627e+003;2.570268e-002
1.334555e+003;2.610260e-002
1.336484e+003;2.626826e-002
1.338412e+003;2.633954e-002
1.340341e+003;2.731513e-002
1.342269e+003;2.888182e-002
1.344198e+003;2.993162e-002
1.346126e+003;3.075724e-002
1.348055e+003;3.167737e-002
1.349984e+003;3.249443e-002
1.351912e+003;3.264468e-002
1.353841e+003;3.247939e-002
1.355769e+003;3.212418e-002
1.357698e+003;3.178748e-002
1.359626e+003;3.177796e-002
1.361555e+003;3.223908e-002
1.363483e+003;3.365364e-002
1.365412e+003;3.551497e-002
1.367341e+003;3.643116e-002
1.369269e+003;3.670511e-002
1.371198e+003;3.561933e-002
1.373126e+003;3.337832e-002
1.375055e+003;3.199894e-002
1.376983e+003;3.167160e-002
1.378912e+003;3.086612e-002
1.380840e+003;2.982222e-002
1.382769e+003;2.888416e-002
1.384698e+003;2.806202e-002
1.386626e+003;2.697230e-002
1.388555e+003;2.682819e-002
1.390483e+003;2.729315e-002
1.392412e+003;2.680088e-002
1.394340e+003;2.586512e-002
1.396269e+003;2.610566e-002
1.398197e+003;2.635046e-002
1.400126e+003;2.702339e-002
1.402054e+003;2.791423e-002
1.403983e+003;2.795571e-002
1.405911e+003;2.821035e-002
1.407840e+003;2.867800e-002
1.409769e+003;2.908630e-002
1.411697e+003;2.969204e-002
1.413626e+003;3.027758e-002
1.415554e+003;3.049665e-002
1.417483e+003;2.951131e-002
1.419411e+003;2.954830e-002
1.421340e+003;3.297758e-002
1.423268e+003;3.573333e-002
1.425197e+003;3.820815e-002
1.427125e+003;4.104954e-002
1.429054e+003;4.364764e-002
1.430983e+003;4.676745e-002
1.432911e+003;4.950740e-002
1.434840e+003;5.007396e-002
1.436768e+003;5.109111e-002
1.438697e+003;5.529407e-002
1.440625e+003;5.816030e-002
1.442554e+003;5.966261e-002
1.444482e+003;6.137037e-002
1.446411e+003;6.292839e-002
1.448340e+003;6.502152e-002
1.450268e+003;6.897413e-002
1.452197e+003;7.387399e-002
1.454125e+003;7.850090e-002
1.456054e+003;8.200786e-002
1.457982e+003;9.329181e-002
1.459911e+003;1.151983e-001
1.461839e+003;1.323185e-001
1.463768e+003;1.343240e-001
1.465697e+003;1.383910e-001
1.467625e+003;1.540951e-001
1.469554e+003;1.789297e-001
1.471482e+003;1.966719e-001
1.473411e+003;1.744316e-001
1.475339e+003;1.247322e-001
1.477268e+003;8.622628e-002
1.479196e+003;6.689093e-002
1.481125e+003;5.711612e-002
1.483053e+003;5.136387e-002
1.484982e+003;4.668860e-002
1.486911e+003;4.252324e-002
1.488839e+003;3.916311e-002
1.490768e+003;3.755166e-002
1.492696e+003;3.730077e-002
1.494625e+003;3.502852e-002
1.496553e+003;3.243130e-002
1.498482e+003;3.259789e-002
1.500410e+003;3.302928e-002
1.502339e+003;3.258892e-002
1.504267e+003;2.842874e-002
1.506196e+003;2.324929e-002
1.508125e+003;2.486285e-002
1.510053e+003;2.816071e-002
1.511982e+003;2.855870e-002
1.513910e+003;2.823397e-002
1.515839e+003;2.700742e-002
1.517767e+003;2.646497e-002
1.519696e+003;2.474705e-002
1.521624e+003;2.305934e-002
1.523553e+003;2.506640e-002
1.525481e+003;2.602492e-002
1.527410e+003;2.676433e-002
1.529339e+003;2.784713e-002
1.531267e+003;2.765715e-002
1.533196e+003;2.642651e-002
1.535124e+003;2.713331e-002
1.537053e+003;2.526042e-002
1.538981e+003;1.998261e-002
1.540910e+003;1.965869e-002
1.542838e+003;2.264291e-002
1.544767e+003;2.462675e-002
1.546695e+003;2.628244e-002
1.548624e+003;2.664365e-002
1.550553e+003;2.641926e-002
1.552481e+003;2.544536e-002
1.554410e+003;2.342568e-002
1.556338e+003;2.063136e-002
1.558267e+003;1.564416e-002
1.560195e+003;1.747647e-002
1.562124e+003;2.360126e-002
1.564052e+003;2.531507e-002
1.565981e+003;2.506443e-002
1.567910e+003;2.384797e-002
1.569838e+003;2.297689e-002
1.571767e+003;2.459747e-002
1.573695e+003;2.405455e-002
1.575624e+003;2.123699e-002
1.577552e+003;2.297567e-002
1.579481e+003;2.589266e-002
1.581409e+003;2.654910e-002
1.583338e+003;2.674425e-002
1.585266e+003;2.670982e-002
1.587195e+003;2.664443e-002
1.589124e+003;2.655203e-002
1.591052e+003;2.647546e-002
1.592981e+003;2.604096e-002
1.594909e+003;2.592688e-002
1.596838e+003;2.609342e-002
1.598766e+003;2.645384e-002
1.600695e+003;2.664253e-002
1.602623e+003;2.663960e-002
1.604552e+003;2.659641e-002
1.606480e+003;2.650085e-002
1.608409e+003;2.616161e-002
1.610338e+003;2.639838e-002
1.612266e+003;2.684902e-002
1.614195e+003;2.550927e-002
1.616123e+003;2.227786e-002
1.618052e+003;2.357719e-002
1.619980e+003;2.629378e-002
1.621909e+003;2.558683e-002
1.623837e+003;2.512562e-002
1.625766e+003;2.611928e-002
1.627694e+003;2.649148e-002
1.629623e+003;2.743367e-002
1.631552e+003;2.783286e-002
1.633480e+003;2.548791e-002
1.635409e+003;2.309890e-002
1.637337e+003;2.555552e-002
1.639266e+003;2.838424e-002
1.641194e+003;2.921252e-002
1.643123e+003;2.860905e-002
1.645051e+003;2.590409e-002
1.646980e+003;2.522127e-002
1.648909e+003;2.741056e-002
1.650837e+003;2.391697e-002
1.652766e+003;1.776660e-002
1.654694e+003;2.215005e-002
1.656623e+003;2.803092e-002
1.658551e+003;2.944507e-002
1.660480e+003;2.864515e-002
1.662408e+003;2.724602e-002
1.664337e+003;2.776416e-002
1.666266e+003;2.791016e-002
1.668194e+003;2.576343e-002
1.670123e+003;2.524750e-002
1.672051e+003;2.664020e-002
1.673980e+003;2.571558e-002
1.675908e+003;2.571245e-002
1.677837e+003;2.785088e-002
1.679765e+003;2.781541e-002
1.681694e+003;2.552442e-002
1.683622e+003;2.120484e-002
1.685551e+003;2.245326e-002
1.687479e+003;2.653885e-002
1.689408e+003;2.736687e-002
1.691337e+003;2.766032e-002
1.693265e+003;2.651519e-002
1.695194e+003;2.256957e-002
1.697122e+003;2.231396e-002
1.699051e+003;2.094245e-002
1.700979e+003;2.044342e-002
1.702908e+003;2.416467e-002
1.704836e+003;2.448514e-002
1.706765e+003;2.453523e-002
1.708693e+003;2.490826e-002
1.710622e+003;2.492605e-002
1.712551e+003;2.372646e-002
1.714479e+003;2.103923e-002
1.716408e+003;1.767790e-002
1.718336e+003;1.794433e-002
1.720265e+003;2.100093e-002
1.722193e+003;2.187967e-002
1.724122e+003;2.152748e-002
1.726050e+003;2.115262e-002
1.727979e+003;2.063970e-002
1.729908e+003;2.008830e-002
1.731836e+003;1.730538e-002
1.733765e+003;1.407445e-002
1.735693e+003;1.686621e-002
1.737622e+003;1.966250e-002
1.739550e+003;1.907814e-002
1.741479e+003;1.908558e-002
1.743407e+003;1.918832e-002
1.745336e+003;1.907921e-002
1.747265e+003;1.812172e-002
1.749193e+003;1.653025e-002
1.751122e+003;1.552759e-002
1.753050e+003;1.653534e-002
1.754979e+003;1.612294e-002
1.756907e+003;1.494040e-002
1.758836e+003;1.487788e-002
1.760764e+003;1.402965e-002
1.762693e+003;1.373411e-002
1.764621e+003;1.409519e-002
1.766550e+003;1.300605e-002
1.768479e+003;1.215605e-002
1.770407e+003;1.124139e-002
1.772336e+003;1.005919e-002
1.774264e+003;1.145107e-002
1.776193e+003;1.277163e-002
1.778121e+003;1.277248e-002
1.780050e+003;1.242188e-002
1.781978e+003;1.231670e-002
1.783907e+003;1.207543e-002
1.785835e+003;1.214068e-002
1.787764e+003;1.237244e-002
1.789693e+003;1.128574e-002
1.791621e+003;9.889132e-003
1.793550e+003;1.059735e-002
1.795478e+003;1.226227e-002
1.797407e+003;1.245082e-002
1.799335e+003;1.174867e-002
1.801264e+003;1.154746e-002
1.803192e+003;1.215714e-002
1.805121e+003;1.259420e-002
1.807049e+003;1.263847e-002
1.808978e+003;1.222727e-002
1.810907e+003;1.205172e-002
1.812835e+003;1.220151e-002
1.814764e+003;1.235938e-002
1.816692e+003;1.246232e-002
1.818621e+003;1.264069e-002
1.820549e+003;1.269633e-002
1.822478e+003;1.227055e-002
1.824406e+003;1.141923e-002
1.826335e+003;1.115820e-002
1.828264e+003;1.059344e-002
1.830192e+003;1.038228e-002
1.832121e+003;1.106543e-002
1.834049e+003;1.123803e-002
1.835978e+003;1.112192e-002
1.837906e+003;1.113188e-002
1.839835e+003;1.125819e-002
1.841763e+003;1.043841e-002
1.843692e+003;8.871038e-003
1.845620e+003;9.407246e-003
1.847549e+003;1.067527e-002
1.849478e+003;1.115752e-002
1.851406e+003;1.144665e-002
1.853335e+003;1.169571e-002
1.855263e+003;1.160504e-002
1.857192e+003;1.123231e-002
1.859120e+003;1.106115e-002
1.861049e+003;1.104279e-002
1.862977e+003;1.133182e-002
1.864906e+003;1.142277e-002
1.866834e+003;1.074279e-002
1.868763e+003;1.029246e-002
1.870692e+003;1.135263e-002
1.872620e+003;1.226616e-002
1.874549e+003;1.237551e-002
1.876477e+003;1.253481e-002
1.878406e+003;1.292197e-002
1.880334e+003;1.311682e-002
1.882263e+003;1.312836e-002
1.884191e+003;1.365177e-002
1.886120e+003;1.465565e-002
1.888048e+003;1.517582e-002
1.889977e+003;1.546743e-002
1.891906e+003;1.632959e-002
1.893834e+003;1.665424e-002
1.895763e+003;1.664880e-002
1.897691e+003;1.681802e-002
1.899620e+003;1.692773e-002
1.901548e+003;1.687392e-002
1.903477e+003;1.670279e-002
1.905405e+003;1.633651e-002
1.907334e+003;1.600467e-002
1.909262e+003;1.568222e-002
1.911191e+003;1.549518e-002
1.913120e+003;1.513488e-002
1.915048e+003;1.445476e-002
1.916977e+003;1.372936e-002
1.918905e+003;1.378346e-002
1.920834e+003;1.377943e-002
1.922762e+003;1.365078e-002
1.924691e+003;1.415626e-002
1.926619e+003;1.436019e-002
1.928548e+003;1.436899e-002
1.930477e+003;1.413148e-002
1.932405e+003;1.395427e-002
1.934334e+003;1.405577e-002
1.936262e+003;1.393593e-002
1.938191e+003;1.368377e-002
1.940119e+003;1.352360e-002
1.942048e+003;1.314332e-002
1.943976e+003;1.309315e-002
1.945905e+003;1.325846e-002
1.947833e+003;1.334046e-002
1.949762e+003;1.344834e-002
1.951691e+003;1.361269e-002
1.953619e+003;1.369673e-002
1.955548e+003;1.370368e-002
1.957476e+003;1.350049e-002
1.959405e+003;1.348330e-002
1.961333e+003;1.359443e-002
1.963262e+003;1.354459e-002
1.965190e+003;1.339106e-002
1.967119e+003;1.317765e-002
1.969047e+003;1.316733e-002
1.970976e+003;1.310278e-002
1.972905e+003;1.293852e-002
1.974833e+003;1.315398e-002
1.976762e+003;1.325867e-002
1.978690e+003;1.305081e-002
1.980619e+003;1.301018e-002
1.982547e+003;1.324900e-002
1.984476e+003;1.344055e-002
1.986404e+003;1.329905e-002
1.988333e+003;1.335529e-002
1.990261e+003;1.331647e-002
1.992190e+003;1.312464e-002
1.994119e+003;1.335638e-002
1.996047e+003;1.354968e-002
1.997976e+003;1.345278e-002
1.999904e+003;1.357166e-002
2.001833e+003;1.389525e-002
2.003761e+003;1.432461e-002
2.005690e+003;1.459372e-002
2.007618e+003;1.507739e-002
2.009547e+003;1.595279e-002
2.011476e+003;1.700694e-002
2.013404e+003;1.785998e-002
2.015333e+003;1.852769e-002
2.017261e+003;1.904549e-002
2.019190e+003;1.922801e-002
2.021118e+003;1.934176e-002
2.023047e+003;1.928429e-002
2.024975e+003;1.874669e-002
2.026904e+003;1.790431e-002
2.028833e+003;1.739114e-002
2.030761e+003;1.707359e-002
2.032690e+003;1.674546e-002
2.034618e+003;1.646850e-002
2.036547e+003;1.611754e-002
2.038475e+003;1.574416e-002
2.040404e+003;1.546029e-002
2.042332e+003;1.518642e-002
2.044261e+003;1.517791e-002
2.046189e+003;1.532514e-002
2.048118e+003;1.527568e-002
2.050047e+003;1.506126e-002
2.051975e+003;1.488718e-002
2.053904e+003;1.482457e-002
2.055832e+003;1.493988e-002
2.057761e+003;1.485038e-002
2.059689e+003;1.449875e-002
2.061618e+003;1.441184e-002
2.063546e+003;1.438197e-002
2.065475e+003;1.421925e-002
2.067404e+003;1.439793e-002
2.069332e+003;1.433957e-002
2.071260e+003;1.404348e-002
2.073189e+003;1.414311e-002
2.075118e+003;1.427218e-002
2.077046e+003;1.433276e-002
2.078975e+003;1.426492e-002
2.080903e+003;1.403896e-002
2.082832e+003;1.365341e-002
2.084760e+003;1.352281e-002
2.086689e+003;1.365974e-002
2.088617e+003;1.347192e-002
2.090546e+003;1.357577e-002
2.092475e+003;1.390391e-002
2.094403e+003;1.379338e-002
2.096332e+003;1.362664e-002
2.098260e+003;1.378996e-002
2.100189e+003;1.402295e-002
2.102117e+003;1.395266e-002
2.104046e+003;1.371075e-002
2.105974e+003;1.373695e-002
2.107903e+003;1.383966e-002
2.109832e+003;1.379311e-002
2.111760e+003;1.365423e-002
2.113688e+003;1.330561e-002
2.115617e+003;1.303074e-002
2.117546e+003;1.319483e-002
2.119474e+003;1.354042e-002
2.121403e+003;1.328907e-002
2.123331e+003;1.329737e-002
2.125260e+003;1.347120e-002
2.127188e+003;1.333386e-002
2.129117e+003;1.349263e-002
2.131045e+003;1.385338e-002
2.132974e+003;1.418128e-002
2.134903e+003;1.445312e-002
2.136831e+003;1.483633e-002
2.138760e+003;1.514144e-002
2.140688e+003;1.500535e-002
2.142617e+003;1.487997e-002
2.144545e+003;1.494726e-002
2.146474e+003;1.506579e-002
2.148402e+003;1.516182e-002
2.150331e+003;1.517839e-002
2.152260e+003;1.522907e-002
2.154188e+003;1.520018e-002
2.156117e+003;1.525066e-002
2.158045e+003;1.528676e-002
2.159974e+003;1.531113e-002
2.161902e+003;1.480047e-002
2.163831e+003;1.421316e-002
2.165759e+003;1.445202e-002
2.167688e+003;1.500347e-002
2.169616e+003;1.501115e-002
2.171545e+003;1.498995e-002
2.173474e+003;1.535727e-002
2.175402e+003;1.534419e-002
2.177331e+003;1.516745e-002
2.179259e+003;1.490676e-002
2.181188e+003;1.481994e-002
2.183116e+003;1.494815e-002
2.185045e+003;1.494801e-002
2.186973e+003;1.485381e-002
2.188902e+003;1.494177e-002
2.190831e+003;1.493302e-002
2.192759e+003;1.480952e-002
2.194688e+003;1.478007e-002
2.196616e+003;1.495820e-002
2.198545e+003;1.506703e-002
2.200473e+003;1.501146e-002
2.202402e+003;1.515451e-002
2.204330e+003;1.544209e-002
2.206259e+003;1.542689e-002
2.208188e+003;1.522125e-002
2.210116e+003;1.501588e-002
2.212044e+003;1.511509e-002
2.213973e+003;1.535998e-002
2.215902e+003;1.531154e-002
2.217830e+003;1.521339e-002
2.219759e+003;1.518337e-002
2.221687e+003;1.520811e-002
2.223616e+003;1.541775e-002
2.225544e+003;1.547794e-002
2.227473e+003;1.545981e-002
2.229401e+003;1.541816e-002
2.231330e+003;1.533200e-002
2.233259e+003;1.503523e-002
2.235187e+003;1.472683e-002
2.237116e+003;1.493971e-002
2.239044e+003;1.518495e-002
2.240973e+003;1.521473e-002
2.242901e+003;1.562575e-002
2.244830e+003;1.615341e-002
2.246758e+003;1.612800e-002
2.248687e+003;1.576784e-002
2.250615e+003;1.580618e-002
2.252544e+003;1.631497e-002
2.254473e+003;1.692236e-002
2.256401e+003;1.697135e-002
2.258330e+003;1.700095e-002
2.260258e+003;1.699419e-002
2.262187e+003;1.699581e-002
2.264115e+003;1.725924e-002
2.266044e+003;1.752173e-002
2.267972e+003;1.777133e-002
2.269901e+003;1.842925e-002
2.271830e+003;1.868387e-002
2.273758e+003;1.881855e-002
2.275687e+003;1.915854e-002
2.277615e+003;1.949869e-002
2.279544e+003;1.984521e-002
2.281472e+003;1.988794e-002
2.283401e+003;1.972162e-002
2.285329e+003;1.963817e-002
2.287258e+003;1.961671e-002
2.289187e+003;1.970809e-002
2.291115e+003;1.979797e-002
2.293043e+003;1.981490e-002
2.294972e+003;2.018718e-002
2.296901e+003;2.068946e-002
2.298829e+003;2.077839e-002
2.300758e+003;2.049962e-002
2.302686e+003;2.051772e-002
2.304615e+003;2.077460e-002
2.306543e+003;2.100066e-002
2.308472e+003;2.108705e-002
2.310400e+003;2.098713e-002
2.312329e+003;2.127596e-002
2.314258e+003;2.173529e-002
2.316186e+003;2.203863e-002
2.318115e+003;2.253464e-002
2.320043e+003;2.298283e-002
2.321972e+003;2.306822e-002
2.323900e+003;2.325733e-002
2.325829e+003;2.331421e-002
2.327757e+003;2.342911e-002
2.329686e+003;2.383359e-002
2.331615e+003;2.385550e-002
2.333543e+003;2.338907e-002
2.335472e+003;2.325831e-002
2.337400e+003;2.346009e-002
2.339329e+003;2.363272e-002
2.341257e+003;2.374465e-002
2.343186e+003;2.413080e-002
2.345114e+003;2.419578e-002
2.347043e+003;2.393147e-002
2.348971e+003;2.380674e-002
2.350900e+003;2.333857e-002
2.352829e+003;2.245410e-002
2.354757e+003;2.153852e-002
2.356686e+003;2.078858e-002
2.358614e+003;1.996606e-002
2.360543e+003;1.914355e-002
2.362471e+003;1.874379e-002
2.364400e+003;1.875883e-002
2.366328e+003;1.856469e-002
2.368257e+003;1.833924e-002
2.370186e+003;1.839907e-002
2.372114e+003;1.852814e-002
2.374042e+003;1.856541e-002
2.375971e+003;1.843741e-002
2.377900e+003;1.855348e-002
2.379828e+003;1.898187e-002
2.381757e+003;1.921298e-002
2.383685e+003;1.914517e-002
2.385614e+003;1.891880e-002
2.387542e+003;1.901392e-002
2.389471e+003;1.938888e-002
2.391399e+003;1.958849e-002
2.393328e+003;1.950319e-002
2.395257e+003;1.946071e-002
2.397185e+003;1.942394e-002
2.399114e+003;1.950985e-002
2.401042e+003;1.977484e-002
2.402971e+003;1.970438e-002
2.404899e+003;1.957449e-002
2.406828e+003;1.969960e-002
2.408756e+003;1.971076e-002
2.410685e+003;1.987209e-002
2.412614e+003;2.047590e-002
2.414542e+003;2.081788e-002
2.416471e+003;2.108420e-002
2.418399e+003;2.111759e-002
2.420328e+003;2.096616e-002
2.422256e+003;2.062486e-002
2.424185e+003;2.032636e-002
2.426113e+003;2.022665e-002
2.428042e+003;2.009274e-002
2.429970e+003;1.975182e-002
2.431899e+003;1.982180e-002
2.433828e+003;2.001411e-002
2.435756e+003;1.972221e-002
2.437685e+003;1.916062e-002
2.439613e+003;1.878381e-002
2.441542e+003;1.875095e-002
2.443470e+003;1.876901e-002
2.445399e+003;1.891479e-002
2.447327e+003;1.922160e-002
2.449256e+003;1.917132e-002
2.451185e+003;1.910722e-002
2.453113e+003;1.907679e-002
2.455042e+003;1.918721e-002
2.456970e+003;1.951137e-002
2.458899e+003;1.960201e-002
2.460827e+003;1.965768e-002
2.462756e+003;1.983765e-002
2.464684e+003;1.986841e-002
2.466613e+003;1.985929e-002
2.468542e+003;2.013401e-002
2.470470e+003;2.088004e-002
2.472398e+003;2.160311e-002
2.474327e+003;2.203096e-002
2.476256e+003;2.221010e-002
2.478184e+003;2.197777e-002
2.480113e+003;2.161338e-002
2.482041e+003;2.137960e-002
2.483970e+003;2.148525e-002
2.485898e+003;2.167356e-002
2.487827e+003;2.163605e-002
2.489755e+003;2.185778e-002
2.491684e+003;2.185984e-002
2.493613e+003;2.166803e-002
2.495541e+003;2.175535e-002
2.497470e+003;2.202475e-002
2.499398e+003;2.220413e-002
2.501327e+003;2.210595e-002
2.503255e+003;2.201144e-002
2.505184e+003;2.236416e-002
2.507112e+003;2.264692e-002
2.509041e+003;2.270519e-002
2.510969e+003;2.295202e-002
2.512898e+003;2.296686e-002
2.514827e+003;2.305173e-002
2.516755e+003;2.326481e-002
2.518684e+003;2.344320e-002
2.520612e+003;2.394712e-002
2.522541e+003;2.430162e-002
2.524469e+003;2.465021e-002
2.526398e+003;2.506517e-002
2.528326e+003;2.511937e-002
2.530255e+003;2.520083e-002
2.532184e+003;2.498879e-002
2.534112e+003;2.471681e-002
2.536041e+003;2.468963e-002
2.537969e+003;2.419350e-002
2.539898e+003;2.410330e-002
2.541826e+003;2.478009e-002
2.543755e+003;2.487022e-002
2.545683e+003;2.503720e-002
2.547612e+003;2.572184e-002
2.549541e+003;2.611928e-002
2.551469e+003;2.636222e-002
2.553397e+003;2.663083e-002
2.555326e+003;2.666863e-002
2.557255e+003;2.641338e-002
2.559183e+003;2.630796e-002
2.561112e+003;2.652107e-002
2.563040e+003;2.662399e-002
2.564969e+003;2.697717e-002
2.566897e+003;2.701355e-002
2.568826e+003;2.698104e-002
2.570754e+003;2.751948e-002
2.572683e+003;2.800632e-002
2.574612e+003;2.819554e-002
2.576540e+003;2.860891e-002
2.578469e+003;2.924059e-002
2.580397e+003;2.958086e-002
2.582326e+003;2.975771e-002
2.584254e+003;2.992800e-002
2.586183e+003;3.006738e-002
2.588111e+003;3.041168e-002
2.590040e+003;3.098360e-002
2.591969e+003;3.154969e-002
2.593897e+003;3.170799e-002
2.595826e+003;3.188435e-002
2.597754e+003;3.244347e-002
2.599683e+003;3.311627e-002
2.601611e+003;3.358364e-002
2.603540e+003;3.376156e-002
2.605468e+003;3.403400e-002
2.607397e+003;3.455593e-002
2.609325e+003;3.539374e-002
2.611254e+003;3.610270e-002
2.613183e+003;3.639434e-002
2.615111e+003;3.660499e-002
2.617040e+003;3.711479e-002
2.618968e+003;3.814769e-002
2.620897e+003;3.899337e-002
2.622825e+003;3.958938e-002
2.624754e+003;4.018894e-002
2.626682e+003;4.080141e-002
2.628611e+003;4.128650e-002
2.630540e+003;4.157432e-002
2.632468e+003;4.206133e-002
2.634396e+003;4.233322e-002
2.636325e+003;4.218239e-002
2.638254e+003;4.223154e-002
2.640182e+003;4.241867e-002
2.642111e+003;4.222289e-002
2.644039e+003;4.192027e-002
2.645968e+003;4.165618e-002
2.647896e+003;4.146801e-002
2.649825e+003;4.139445e-002
2.651753e+003;4.110519e-002
2.653682e+003;4.117447e-002
2.655611e+003;4.122657e-002
2.657539e+003;4.120212e-002
2.659468e+003;4.142051e-002
2.661396e+003;4.169601e-002
2.663325e+003;4.168368e-002
2.665253e+003;4.146808e-002
2.667182e+003;4.125666e-002
2.669110e+003;4.077120e-002
2.671039e+003;4.026411e-002
2.672968e+003;3.973485e-002
2.674896e+003;3.949528e-002
2.676825e+003;3.948729e-002
2.678753e+003;3.920031e-002
2.680682e+003;3.870310e-002
2.682610e+003;3.834888e-002
2.684539e+003;3.842163e-002
2.686467e+003;3.839144e-002
2.688396e+003;3.817844e-002
2.690324e+003;3.801903e-002
2.692253e+003;3.805234e-002
2.694182e+003;3.842927e-002
2.696110e+003;3.894132e-002
2.698039e+003;3.924873e-002
2.699967e+003;3.936622e-002
2.701896e+003;3.927470e-002
2.703824e+003;3.961236e-002
2.705753e+003;4.012501e-002
2.707681e+003;4.072884e-002
2.709610e+003;4.123280e-002
2.711539e+003;4.127022e-002
2.713467e+003;4.141096e-002
2.715396e+003;4.206524e-002
2.717324e+003;4.232723e-002
2.719253e+003;4.227226e-002
2.721181e+003;4.287163e-002
2.723110e+003;4.349951e-002
2.725038e+003;4.383299e-002
2.726967e+003;4.411061e-002
2.728896e+003;4.454427e-002
2.730824e+003;4.504055e-002
2.732752e+003;4.541760e-002
2.734681e+003;4.578989e-002
2.736610e+003;4.594234e-002
2.738538e+003;4.598551e-002
2.740467e+003;4.634805e-002
2.742395e+003;4.666085e-002
2.744324e+003;4.698906e-002
2.746252e+003;4.742239e-002
2.748181e+003;4.740616e-002
2.750109e+003;4.739031e-002
2.752038e+003;4.764914e-002
2.753967e+003;4.789569e-002
2.755895e+003;4.801591e-002
2.757824e+003;4.837474e-002
2.759752e+003;4.930213e-002
2.761681e+003;5.037611e-002
2.763609e+003;5.077208e-002
2.765538e+003;5.140538e-002
2.767466e+003;5.240723e-002
2.769395e+003;5.308698e-002
2.771323e+003;5.387102e-002
2.773252e+003;5.488876e-002
2.775181e+003;5.583218e-002
2.777109e+003;5.673675e-002
2.779038e+003;5.748523e-002
2.780966e+003;5.808803e-002
2.782895e+003;5.908713e-002
2.784823e+003;6.017556e-002
2.786752e+003;6.105564e-002
2.788680e+003;6.180722e-002
2.790609e+003;6.268675e-002
2.792538e+003;6.362172e-002
2.794466e+003;6.483595e-002
2.796395e+003;6.618904e-002
2.798323e+003;6.729812e-002
2.800252e+003;6.826736e-002
2.802180e+003;6.933426e-002
2.804109e+003;7.049143e-002
2.806037e+003;7.188953e-002
2.807966e+003;7.325086e-002
2.809895e+003;7.455683e-002
2.811823e+003;7.636486e-002
2.813751e+003;7.786393e-002
2.815680e+003;7.906129e-002
2.817609e+003;8.069598e-002
2.819537e+003;8.274579e-002
2.821466e+003;8.524717e-002
2.823394e+003;8.813950e-002
2.825323e+003;9.127591e-002
2.827251e+003;9.475663e-002
2.829180e+003;9.918531e-002
2.831108e+003;1.045807e-001
2.833037e+003;1.106345e-001
2.834966e+003;1.184151e-001
2.836894e+003;1.289319e-001
2.838823e+003;1.428724e-001
2.840751e+003;1.614304e-001
2.842680e+003;1.869685e-001
2.844608e+003;2.209096e-001
2.846537e+003;2.599747e-001
2.848465e+003;2.866955e-001
2.850394e+003;2.774963e-001
2.852323e+003;2.379051e-001
2.854251e+003;1.933719e-001
2.856180e+003;1.583397e-001
2.858108e+003;1.341531e-001
2.860037e+003;1.183978e-001
2.861965e+003;1.085529e-001
2.863894e+003;1.027494e-001
2.865822e+003;9.986763e-002
2.867751e+003;9.928600e-002
2.869679e+003;1.003581e-001
2.871608e+003;1.026946e-001
2.873536e+003;1.064056e-001
2.875465e+003;1.109862e-001
2.877394e+003;1.164005e-001
2.879322e+003;1.226579e-001
2.881251e+003;1.285853e-001
2.883179e+003;1.339967e-001
2.885108e+003;1.397239e-001
2.887036e+003;1.451802e-001
2.888965e+003;1.510921e-001
2.890893e+003;1.574101e-001
2.892822e+003;1.634647e-001
2.894750e+003;1.697263e-001
2.896679e+003;1.761200e-001
2.898608e+003;1.831165e-001
2.900536e+003;1.908405e-001
2.902465e+003;2.000857e-001
2.904393e+003;2.113373e-001
2.906322e+003;2.252408e-001
2.908250e+003;2.430865e-001
2.910179e+003;2.655759e-001
2.912107e+003;2.913348e-001
2.914036e+003;3.135572e-001
2.915965e+003;3.225687e-001
2.917893e+003;3.122475e-001
2.919822e+003;2.869130e-001
2.921750e+003;2.555109e-001
2.923679e+003;2.244308e-001
2.925607e+003;1.961453e-001
2.927536e+003;1.716890e-001
2.929464e+003;1.513397e-001
2.931393e+003;1.348629e-001
2.933322e+003;1.209438e-001
2.935250e+003;1.085393e-001
2.937178e+003;9.846907e-002
2.939107e+003;9.076014e-002
2.941036e+003;8.433190e-002
2.942964e+003;7.854299e-002
2.944893e+003;7.368844e-002
2.946821e+003;6.981658e-002
2.948750e+003;6.645219e-002
2.950678e+003;6.387794e-002
2.952607e+003;6.202965e-002
2.954535e+003;6.035657e-002
2.956464e+003;5.892183e-002
2.958393e+003;5.812386e-002
2.960321e+003;5.707455e-002
2.962250e+003;5.596720e-002
2.964178e+003;5.499127e-002
2.966107e+003;5.404754e-002
2.968035e+003;5.305220e-002
2.969964e+003;5.245059e-002
2.971892e+003;5.179404e-002
2.973821e+003;5.126949e-002
2.975750e+003;5.054570e-002
2.977678e+003;4.928008e-002
2.979607e+003;4.819014e-002
2.981535e+003;4.739208e-002
2.983464e+003;4.661573e-002
2.985392e+003;4.638222e-002
2.987321e+003;4.611869e-002
2.989249e+003;4.489219e-002
2.991178e+003;4.339342e-002
2.993106e+003;4.275904e-002
2.995035e+003;4.276156e-002
2.996964e+003;4.240617e-002
2.998892e+003;4.209324e-002
3.000821e+003;4.159087e-002
3.002749e+003;4.114489e-002
3.004678e+003;4.088626e-002
3.006606e+003;4.019567e-002
3.008535e+003;3.995515e-002
3.010463e+003;4.003192e-002
3.012392e+003;3.963185e-002
3.014321e+003;3.918189e-002
3.016249e+003;3.866572e-002
3.018177e+003;3.813836e-002
3.020106e+003;3.793546e-002
3.022035e+003;3.777466e-002
3.023963e+003;3.749451e-002
3.025892e+003;3.732781e-002
3.027820e+003;3.724971e-002
3.029749e+003;3.687705e-002
3.031677e+003;3.637971e-002
3.033606e+003;3.580384e-002
3.035534e+003;3.567516e-002
3.037463e+003;3.582226e-002
3.039392e+003;3.541750e-002
3.041320e+003;3.489590e-002
3.043249e+003;3.442668e-002
3.045177e+003;3.401455e-002
3.047106e+003;3.361773e-002
3.049034e+003;3.352240e-002
3.050963e+003;3.357209e-002
3.052891e+003;3.321619e-002
3.054820e+003;3.299456e-002
3.056749e+003;3.269333e-002
3.058677e+003;3.217813e-002
3.060606e+003;3.213556e-002
3.062534e+003;3.211081e-002
3.064463e+003;3.201360e-002
3.066391e+003;3.179828e-002
3.068320e+003;3.127599e-002
3.070248e+003;3.081148e-002
3.072177e+003;3.036033e-002
3.074105e+003;3.025655e-002
3.076034e+003;3.042905e-002
3.077963e+003;3.017176e-002
3.079891e+003;2.956142e-002
3.081820e+003;2.942177e-002
3.083748e+003;2.951227e-002
3.085677e+003;2.951890e-002
3.087605e+003;2.927309e-002
3.089534e+003;2.852791e-002
3.091462e+003;2.786455e-002
3.093391e+003;2.767021e-002
3.095320e+003;2.737848e-002
3.097248e+003;2.723981e-002
3.099177e+003;2.714446e-002
3.101105e+003;2.666817e-002
3.103034e+003;2.598904e-002
3.104962e+003;2.534703e-002
3.106891e+003;2.502494e-002
3.108819e+003;2.479437e-002
3.110748e+003;2.451714e-002
3.112677e+003;2.414810e-002
3.114605e+003;2.347793e-002
3.116533e+003;2.261729e-002
3.118462e+003;2.187635e-002
3.120391e+003;2.148525e-002
3.122319e+003;2.130442e-002
3.124248e+003;2.079942e-002
3.126176e+003;2.039744e-002
3.128105e+003;2.027390e-002
3.130033e+003;2.018826e-002
3.131962e+003;1.971936e-002
3.133890e+003;1.921062e-002
3.135819e+003;1.862310e-002
3.137748e+003;1.857015e-002
3.139676e+003;1.863147e-002
3.141605e+003;1.846562e-002
3.143533e+003;1.847406e-002
3.145462e+003;1.863264e-002
3.147390e+003;1.883603e-002
3.149319e+003;1.882399e-002
3.151247e+003;1.853201e-002
3.153176e+003;1.818678e-002
3.155104e+003;1.811789e-002
3.157033e+003;1.818215e-002
3.158962e+003;1.800718e-002
3.160890e+003;1.781475e-002
3.162819e+003;1.809201e-002
3.164747e+003;1.815851e-002
3.166676e+003;1.774202e-002
3.168604e+003;1.744035e-002
3.170533e+003;1.729124e-002
3.172461e+003;1.752076e-002
3.174390e+003;1.738941e-002
3.176319e+003;1.722783e-002
3.178247e+003;1.744301e-002
3.180176e+003;1.727731e-002
3.182104e+003;1.714886e-002
3.184033e+003;1.731706e-002
3.185961e+003;1.731044e-002
3.187890e+003;1.697996e-002
3.189818e+003;1.720481e-002
3.191747e+003;1.743063e-002
3.193676e+003;1.729100e-002
3.195604e+003;1.711163e-002
3.197532e+003;1.713962e-002
3.199461e+003;1.767389e-002
3.201390e+003;1.782601e-002
3.203318e+003;1.732189e-002
3.205247e+003;1.704581e-002
3.207175e+003;1.706883e-002
3.209104e+003;1.706239e-002
3.211032e+003;1.724052e-002
3.212961e+003;1.711422e-002
3.214889e+003;1.709020e-002
3.216818e+003;1.724400e-002
3.218747e+003;1.749772e-002
3.220675e+003;1.801557e-002
3.222604e+003;1.769353e-002
3.224532e+003;1.748278e-002
3.226461e+003;1.757745e-002
3.228389e+003;1.729334e-002
3.230318e+003;1.715841e-002
3.232246e+003;1.691722e-002
3.234175e+003;1.695416e-002
3.236104e+003;1.733113e-002
3.238032e+003;1.701183e-002
3.239961e+003;1.616737e-002
3.241889e+003;1.646069e-002
3.243818e+003;1.712222e-002
3.245746e+003;1.724614e-002
3.247675e+003;1.700618e-002
3.249603e+003;1.672469e-002
3.251532e+003;1.694975e-002
3.253460e+003;1.694985e-002
3.255389e+003;1.698465e-002
3.257318e+003;1.720394e-002
3.259246e+003;1.689073e-002
3.261175e+003;1.666702e-002
3.263103e+003;1.689349e-002
3.265032e+003;1.721194e-002
3.266960e+003;1.727279e-002
3.268889e+003;1.745950e-002
3.270817e+003;1.732851e-002
3.272746e+003;1.721404e-002
3.274675e+003;1.748164e-002
3.276603e+003;1.759515e-002
3.278531e+003;1.724331e-002
3.280460e+003;1.717123e-002
3.282389e+003;1.761595e-002
3.284317e+003;1.779998e-002
3.286246e+003;1.742859e-002
3.288174e+003;1.749796e-002
3.290103e+003;1.716334e-002
3.292031e+003;1.673244e-002
3.293960e+003;1.691306e-002
3.295888e+003;1.675220e-002
3.297817e+003;1.687651e-002
3.299746e+003;1.746236e-002
3.301674e+003;1.732220e-002
3.303603e+003;1.688963e-002
3.305531e+003;1.665142e-002
3.307460e+003;1.669060e-002
3.309388e+003;1.687327e-002
3.311317e+003;1.726083e-002
3.313245e+003;1.741245e-002
3.315174e+003;1.728658e-002
3.317103e+003;1.745501e-002
3.319031e+003;1.735331e-002
3.320960e+003;1.712153e-002
3.322888e+003;1.731569e-002
3.324817e+003;1.715393e-002
3.326745e+003;1.652546e-002
3.328674e+003;1.640067e-002
3.330602e+003;1.670658e-002
3.332531e+003;1.692277e-002
3.334459e+003;1.692198e-002
3.336388e+003;1.706521e-002
3.338317e+003;1.698451e-002
3.340245e+003;1.705119e-002
3.342174e+003;1.681661e-002
3.344102e+003;1.671488e-002
3.346031e+003;1.721356e-002
3.347959e+003;1.720170e-002
3.349888e+003;1.691168e-002
3.351816e+003;1.728738e-002
3.353745e+003;1.754985e-002
3.355674e+003;1.761892e-002
3.357602e+003;1.765060e-002
3.359531e+003;1.747299e-002
3.361459e+003;1.731269e-002
3.363388e+003;1.736420e-002
3.365316e+003;1.735738e-002
3.367245e+003;1.762427e-002
3.369173e+003;1.771003e-002
3.371102e+003;1.750803e-002
3.373031e+003;1.733324e-002
3.374959e+003;1.707993e-002
3.376887e+003;1.705929e-002
3.378816e+003;1.733331e-002
3.380745e+003;1.702910e-002
3.382673e+003;1.662663e-002
3.384602e+003;1.664391e-002
3.386530e+003;1.634487e-002
3.388459e+003;1.606748e-002
3.390387e+003;1.617236e-002
3.392316e+003;1.604087e-002
3.394244e+003;1.566844e-002
3.396173e+003;1.574705e-002
3.398102e+003;1.625106e-002
3.400030e+003;1.643333e-002
3.401959e+003;1.588611e-002
3.403887e+003;1.544532e-002
3.405816e+003;1.563643e-002
3.407744e+003;1.597662e-002
3.409673e+003;1.560857e-002
3.411601e+003;1.526291e-002
3.413530e+003;1.553048e-002
3.415458e+003;1.551849e-002
3.417387e+003;1.518772e-002
3.419316e+003;1.531326e-002
3.421244e+003;1.575045e-002
3.423173e+003;1.594589e-002
3.425101e+003;1.602605e-002
3.427030e+003;1.596129e-002
3.428958e+003;1.580446e-002
3.430887e+003;1.557220e-002
3.432815e+003;1.544711e-002
3.434744e+003;1.523930e-002
3.436673e+003;1.527358e-002
3.438601e+003;1.574086e-002
3.440530e+003;1.594898e-002
3.442458e+003;1.540316e-002
3.444387e+003;1.499578e-002
3.446315e+003;1.484342e-002
3.448244e+003;1.507948e-002
3.450172e+003;1.541126e-002
3.452101e+003;1.515225e-002
3.454030e+003;1.442640e-002
3.455958e+003;1.451057e-002
3.457886e+003;1.480139e-002
3.459815e+003;1.472402e-002
3.461744e+003;1.470558e-002
3.463672e+003;1.454308e-002
3.465601e+003;1.438951e-002
3.467529e+003;1.445127e-002
3.469458e+003;1.454986e-002
3.471386e+003;1.441670e-002
3.473315e+003;1.434108e-002
3.475243e+003;1.450779e-002
3.477172e+003;1.447877e-002
3.479101e+003;1.424914e-002
3.481029e+003;1.421244e-002
3.482958e+003;1.426530e-002
3.484886e+003;1.400943e-002
3.486815e+003;1.363430e-002
3.488743e+003;1.367697e-002
3.490672e+003;1.372361e-002
3.492600e+003;1.323291e-002
3.494529e+003;1.298700e-002
3.496458e+003;1.357812e-002
3.498386e+003;1.442331e-002
3.500315e+003;1.420939e-002
3.502243e+003;1.321412e-002
3.504172e+003;1.276532e-002
3.506100e+003;1.329912e-002
3.508029e+003;1.431190e-002
3.509957e+003;1.445490e-002
3.511886e+003;1.369930e-002
3.513814e+003;1.336824e-002
3.515743e+003;1.314834e-002
3.517672e+003;1.316972e-002
3.519600e+003;1.385567e-002
3.521529e+003;1.359628e-002
3.523457e+003;1.292910e-002
3.525386e+003;1.315944e-002
3.527314e+003;1.335761e-002
3.529243e+003;1.264277e-002
3.531171e+003;1.244639e-002
3.533100e+003;1.315579e-002
3.535029e+003;1.298164e-002
3.536957e+003;1.275136e-002
3.538885e+003;1.286036e-002
3.540814e+003;1.285657e-002
3.542743e+003;1.279129e-002
3.544671e+003;1.263274e-002
3.546600e+003;1.291146e-002
3.548528e+003;1.333882e-002
3.550457e+003;1.290436e-002
3.552385e+003;1.284278e-002
3.554314e+003;1.307048e-002
3.556242e+003;1.308899e-002
3.558171e+003;1.316224e-002
3.560100e+003;1.360062e-002
3.562028e+003;1.427540e-002
3.563957e+003;1.378760e-002
3.565885e+003;1.245799e-002
3.567814e+003;1.205322e-002
3.569742e+003;1.314742e-002
3.571671e+003;1.428858e-002
3.573599e+003;1.418026e-002
3.575528e+003;1.396874e-002
3.577457e+003;1.425684e-002
3.579385e+003;1.447648e-002
3.581314e+003;1.472316e-002
3.583242e+003;1.452526e-002
3.585171e+003;1.336984e-002
3.587099e+003;1.260334e-002
3.589028e+003;1.362640e-002
3.590956e+003;1.564289e-002
3.592885e+003;1.629158e-002
3.594813e+003;1.606294e-002
3.596742e+003;1.647714e-002
3.598671e+003;1.782811e-002
3.600599e+003;1.854408e-002
3.602528e+003;1.909458e-002
3.604456e+003;1.928156e-002
3.606385e+003;1.870241e-002
3.608313e+003;1.776197e-002
3.610242e+003;1.814017e-002
3.612170e+003;1.845577e-002
3.614099e+003;1.799036e-002
3.616028e+003;1.685222e-002
3.617956e+003;1.571733e-002
3.619885e+003;1.594259e-002
3.621813e+003;1.662997e-002
3.623742e+003;1.706301e-002
3.625670e+003;1.639290e-002
3.627599e+003;1.318191e-002
3.629527e+003;1.220573e-002
3.631456e+003;1.447624e-002
3.633385e+003;1.562249e-002
3.635313e+003;1.607432e-002
3.637241e+003;1.629911e-002
3.639170e+003;1.643811e-002
3.641099e+003;1.666560e-002
3.643027e+003;1.730593e-002
3.644956e+003;1.650498e-002
3.646884e+003;1.386655e-002
3.648813e+003;1.242945e-002
3.650741e+003;1.413620e-002
3.652670e+003;1.626337e-002
3.654598e+003;1.568129e-002
3.656527e+003;1.523426e-002
3.658456e+003;1.672927e-002
3.660384e+003;1.738117e-002
3.662313e+003;1.718178e-002
3.664241e+003;1.698420e-002
3.666170e+003;1.604750e-002
3.668098e+003;1.336321e-002
3.670027e+003;1.177084e-002
3.671955e+003;1.336639e-002
3.673884e+003;1.197852e-002
3.675813e+003;1.095070e-002
3.677741e+003;1.401114e-002
3.679669e+003;1.524531e-002
3.681598e+003;1.601240e-002
3.683527e+003;1.651362e-002
3.685455e+003;1.562084e-002
3.687384e+003;1.287504e-002
3.689312e+003;1.250593e-002
3.691241e+003;1.424798e-002
3.693169e+003;1.563186e-002
3.695098e+003;1.621927e-002
3.697026e+003;1.641148e-002
3.698955e+003;1.608667e-002
3.700884e+003;1.567367e-002
3.702812e+003;1.567631e-002
3.704741e+003;1.547729e-002
3.706669e+003;1.483691e-002
3.708598e+003;1.374088e-002
3.710526e+003;1.214835e-002
3.712455e+003;1.227952e-002
3.714383e+003;1.421048e-002
3.716312e+003;1.472011e-002
3.718240e+003;1.421281e-002
3.720169e+003;1.341850e-002
3.722098e+003;1.343723e-002
3.724026e+003;1.397453e-002
3.725955e+003;1.393022e-002
3.727883e+003;1.404108e-002
3.729812e+003;1.346146e-002
3.731740e+003;1.199889e-002
3.733669e+003;1.165367e-002
3.735597e+003;1.123109e-002
3.737526e+003;1.252547e-002
3.739455e+003;1.382714e-002
3.741383e+003;1.231159e-002
3.743312e+003;7.460929e-003
3.745240e+003;7.823713e-003
3.747169e+003;1.054615e-002
3.749097e+003;9.206438e-003
3.751026e+003;9.372068e-003
3.752954e+003;1.175245e-002
3.754883e+003;1.352917e-002
3.756812e+003;1.351359e-002
3.758740e+003;1.380262e-002
3.760668e+003;1.433327e-002
3.762597e+003;1.477242e-002
3.764526e+003;1.446682e-002
3.766454e+003;1.502110e-002
3.768383e+003;1.439441e-002
3.770311e+003;1.401169e-002
3.772240e+003;1.529665e-002
3.774168e+003;1.604579e-002
3.776097e+003;1.581130e-002
3.778025e+003;1.486262e-002
3.779954e+003;1.500576e-002
3.781883e+003;1.577581e-002
3.783811e+003;1.576935e-002
3.785740e+003;1.623723e-002
3.787668e+003;1.620813e-002
3.789597e+003;1.606762e-002
3.791525e+003;1.642500e-002
3.793454e+003;1.668554e-002
3.795382e+003;1.581096e-002
3.797311e+003;1.550002e-002
3.799240e+003;1.408181e-002
3.801168e+003;1.270128e-002
3.803097e+003;1.512264e-002
3.805025e+003;1.529864e-002
3.806954e+003;1.392744e-002
3.808882e+003;1.563578e-002
3.810811e+003;1.688670e-002
3.812739e+003;1.689959e-002
3.814668e+003;1.417135e-002
3.816596e+003;1.380214e-002
3.818525e+003;1.531892e-002
3.820454e+003;1.437279e-002
3.822382e+003;1.589509e-002
3.824311e+003;1.738293e-002
3.826239e+003;1.699977e-002
3.828168e+003;1.695175e-002
3.830096e+003;1.660801e-002
3.832025e+003;1.632195e-002
3.833953e+003;1.582123e-002
3.835882e+003;1.384421e-002
3.837811e+003;1.276157e-002
3.839739e+003;1.502885e-002
3.841667e+003;1.634614e-002
3.843596e+003;1.635274e-002
3.845525e+003;1.690927e-002
3.847453e+003;1.742352e-002
3.849382e+003;1.623709e-002
3.851310e+003;1.178544e-002
3.853239e+003;8.112660e-003
3.855167e+003;1.202938e-002
3.857096e+003;1.665421e-002
3.859024e+003;1.747509e-002
3.860953e+003;1.667283e-002
3.862882e+003;1.620355e-002
3.864810e+003;1.636840e-002
3.866739e+003;1.678640e-002
3.868667e+003;1.517067e-002
3.870596e+003;1.552179e-002
3.872524e+003;1.715806e-002
3.874453e+003;1.752235e-002
3.876381e+003;1.875901e-002
3.878310e+003;1.866965e-002
3.880239e+003;1.797741e-002
3.882167e+003;1.819037e-002
3.884096e+003;1.741207e-002
3.886024e+003;1.709440e-002
3.887953e+003;1.835020e-002
3.889881e+003;1.782241e-002
3.891810e+003;1.750783e-002
3.893738e+003;1.887129e-002
3.895667e+003;1.957040e-002
3.897595e+003;1.854933e-002
3.899524e+003;1.736772e-002
3.901453e+003;1.652357e-002
3.903381e+003;1.650350e-002
3.905310e+003;1.851787e-002
3.907238e+003;2.002234e-002
3.909167e+003;1.984198e-002
3.911095e+003;1.969169e-002
3.913024e+003;1.927903e-002
3.914952e+003;1.849601e-002
3.916881e+003;1.807799e-002
3.918810e+003;1.825806e-002
3.920738e+003;1.847378e-002
3.922667e+003;1.867661e-002
3.924595e+003;1.938032e-002
3.926524e+003;2.035219e-002
3.928452e+003;2.024817e-002
3.930381e+003;1.932305e-002
3.932309e+003;1.848153e-002
3.934238e+003;1.904629e-002
3.936167e+003;1.983096e-002
3.938095e+003;1.982860e-002
3.940023e+003;1.929881e-002
3.941952e+003;1.855445e-002
3.943881e+003;1.847292e-002
3.945809e+003;1.854159e-002
3.947738e+003;1.797251e-002
3.949666e+003;1.793107e-002
3.951595e+003;1.883855e-002
3.953523e+003;1.910591e-002
3.955452e+003;1.897771e-002
3.957380e+003;1.877077e-002
3.959309e+003;1.866239e-002
3.961238e+003;1.841307e-002
3.963166e+003;1.804061e-002
3.965095e+003;1.858253e-002
3.967023e+003;1.915563e-002
3.968952e+003;1.938004e-002
3.970880e+003;1.917073e-002
3.972809e+003;1.857223e-002
3.974737e+003;1.864935e-002
3.976666e+003;1.938483e-002
3.978594e+003;1.909680e-002
3.980523e+003;1.857520e-002
3.982452e+003;1.862521e-002
3.984380e+003;1.854345e-002
3.986309e+003;1.831501e-002
3.988237e+003;1.878693e-002
3.990166e+003;1.870061e-002
3.992094e+003;1.817264e-002
3.994023e+003;1.864637e-002
3.995951e+003;1.899073e-002
3.997880e+003;1.836019e-002
3.999809e+003;1.804694e-002
4.001737e+003;0.000000e+000
