3.992094e+002;0.000000e+000
4.011380e+002;0.000000e+000
4.030665e+002;0.000000e+000
4.049951e+002;0.000000e+000
4.069236e+002;0.000000e+000
4.088522e+002;0.000000e+000
4.107807e+002;0.000000e+000
4.127093e+002;0.000000e+000
4.146378e+002;0.000000e+000
4.165664e+002;0.000000e+000
4.184949e+002;0.000000e+000
4.204235e+002;0.000000e+000
4.223520e+002;0.000000e+000
4.242806e+002;0.000000e+000
4.262091e+002;0.000000e+000
4.281377e+002;0.000000e+000
4.300662e+002;0.000000e+000
4.319948e+002;0.000000e+000
4.339233e+002;0.000000e+000
4.358519e+002;0.000000e+000
4.377804e+002;0.000000e+000
4.397090e+002;0.000000e+000
4.416375e+002;0.000000e+000
4.435660e+002;0.000000e+000
4.454946e+002;0.000000e+000
4.474232e+002;0.000000e+000
4.493517e+002;0.000000e+000
4.512802e+002;0.000000e+000
4.532088e+002;0.000000e+000
4.551373e+002;0.000000e+000
4.570659e+002;0.000000e+000
4.589944e+002;0.000000e+000
4.609230e+002;0.000000e+000
4.628515e+002;0.000000e+000
4.647801e+002;0.000000e+000
4.667086e+002;0.000000e+000
4.686372e+002;0.000000e+000
4.705657e+002;0.000000e+000
4.724943e+002;0.000000e+000
4.744228e+002;0.000000e+000
4.763513e+002;0.000000e+000
4.782799e+002;0.000000e+000
4.802085e+002;0.000000e+000
4.821370e+002;0.000000e+000
4.840656e+002;0.000000e+000
4.859941e+002;0.000000e+000
4.879226e+002;0.000000e+000
4.898512e+002;0.000000e+000
4.917798e+002;0.000000e+000
4.937083e+002;0.000000e+000
4.956368e+002;0.000000e+000
4.975654e+002;0.000000e+000
4.994939e+002;0.000000e+000
5.014225e+002;0.000000e+000
5.033510e+002;0.000000e+000
5.052796e+002;0.000000e+000
5.072081e+002;0.000000e+000
5.091367e+002;0.000000e+000
5.110652e+002;0.000000e+000
5.129938e+002;0.000000e+000
5.149223e+002;0.000000e+000
5.168509e+002;0.000000e+000
5.187794e+002;0.000000e+000
5.207079e+002;0.000000e+000
5.226365e+002;0.000000e+000
5.245651e+002;0.000000e+000
5.264936e+002;0.000000e+000
5.284222e+002;0.000000e+000
5.303507e+002;0.000000e+000
5.322792e+002;0.000000e+000
5.342078e+002;0.000000e+000
5.361364e+002;0.000000e+000
5.380649e+002;0.000000e+000
5.399935e+002;0.000000e+000
5.419220e+002;0.000000e+000
5.438505e+002;0.000000e+000
5.457791e+002;0.000000e+000
5.477076e+002;0.000000e+000
5.496362e+002;0.000000e+000
5.515648e+002;0.000000e+000
5.534933e+002;0.000000e+000
5.554218e+002;0.000000e+000
5.573504e+002;0.000000e+000
5.592789e+002;0.000000e+000
5.612075e+002;0.000000e+000
5.631360e+002;0.000000e+000
5.650646e+002;0.000000e+000
5.669931e+002;0.000000e+000
5.689217e+002;0.000000e+000
5.708502e+002;0.000000e+000
5.727787e+002;0.000000e+000
5.747073e+002;0.000000e+000
5.766359e+002;0.000000e+000
5.785644e+002;0.000000e+000
5.804930e+002;0.000000e+000
5.824215e+002;0.000000e+000
5.843500e+002;0.000000e+000
5.862786e+002;0.000000e+000
5.882072e+002;0.000000e+000
5.901357e+002;0.000000e+000
5.920643e+002;0.000000e+000
5.939928e+002;0.000000e+000
5.959213e+002;0.000000e+000
5.978499e+002;0.000000e+000
5.997784e+002;3.011405e-002
6.017070e+002;3.706878e-002
6.036355e+002;3.988025e-002
6.055641e+002;4.086293e-002
6.074926e+002;4.232825e-002
6.094211e+002;4.032744e-002
6.113497e+002;3.303618e-002
6.132783e+002;2.923035e-002
6.152068e+002;3.341869e-002
6.171354e+002;3.798851e-002
6.190639e+002;3.726910e-002
6.209924e+002;3.542854e-002
6.229210e+002;3.111108e-002
6.248495e+002;3.058193e-002
6.267781e+002;3.365711e-002
6.287067e+002;3.576495e-002
6.306352e+002;3.563552e-002
6.325637e+002;3.864684e-002
6.344923e+002;4.510726e-002
6.364208e+002;4.306854e-002
6.383494e+002;3.892074e-002
6.402780e+002;3.999660e-002
6.422065e+002;4.228428e-002
6.441350e+002;4.264903e-002
6.460636e+002;4.533023e-002
6.479921e+002;4.419601e-002
6.499207e+002;3.986325e-002
6.518492e+002;3.662957e-002
6.537778e+002;3.861074e-002
6.557063e+002;4.207670e-002
6.576349e+002;4.345149e-002
6.595634e+002;4.309279e-002
6.614919e+002;4.196603e-002
6.634205e+002;4.118525e-002
6.653491e+002;4.135301e-002
6.672776e+002;4.211945e-002
6.692062e+002;4.243215e-002
6.711347e+002;4.222628e-002
6.730632e+002;4.283133e-002
6.749918e+002;4.128621e-002
6.769203e+002;3.895419e-002
6.788489e+002;4.153454e-002
6.807775e+002;4.561746e-002
6.827060e+002;4.732021e-002
6.846345e+002;4.824886e-002
6.865631e+002;4.940313e-002
6.884916e+002;5.181824e-002
6.904202e+002;5.407568e-002
6.923488e+002;5.544105e-002
6.942773e+002;5.759664e-002
6.962058e+002;6.060816e-002
6.981344e+002;6.501117e-002
7.000629e+002;6.896053e-002
7.019915e+002;7.373909e-002
7.039200e+002;8.188178e-002
7.058486e+002;9.159251e-002
7.077771e+002;1.024776e-001
7.097057e+002;1.198083e-001
7.116342e+002;1.483026e-001
7.135627e+002;1.836134e-001
7.154913e+002;2.078099e-001
7.174199e+002;2.045803e-001
7.193484e+002;1.757491e-001
7.212770e+002;1.391086e-001
7.232055e+002;1.119756e-001
7.251340e+002;9.696315e-002
7.270626e+002;9.005353e-002
7.289911e+002;9.175836e-002
7.309197e+002;9.864598e-002
7.328483e+002;9.598602e-002
7.347768e+002;7.876402e-002
7.367053e+002;6.113295e-002
7.386339e+002;5.154568e-002
7.405624e+002;4.760969e-002
7.424910e+002;4.569896e-002
7.444196e+002;4.450859e-002
7.463481e+002;4.389754e-002
7.482766e+002;4.313616e-002
7.502052e+002;4.207684e-002
7.521337e+002;4.042373e-002
7.540623e+002;3.897035e-002
7.559908e+002;3.926959e-002
7.579194e+002;3.856609e-002
7.598479e+002;3.754690e-002
7.617765e+002;3.725462e-002
7.637050e+002;3.740685e-002
7.656335e+002;3.742863e-002
7.675621e+002;3.775698e-002
7.694907e+002;3.776826e-002
7.714192e+002;3.690043e-002
7.733478e+002;3.584450e-002
7.752763e+002;3.561085e-002
7.772048e+002;3.623655e-002
7.791334e+002;3.628140e-002
7.810620e+002;3.573505e-002
7.829905e+002;3.562160e-002
7.849191e+002;3.557560e-002
7.868476e+002;3.514926e-002
7.887761e+002;3.556402e-002
7.907047e+002;3.631623e-002
7.926332e+002;3.595384e-002
7.945618e+002;3.473403e-002
7.964903e+002;3.390380e-002
7.984189e+002;3.338079e-002
8.003474e+002;3.348926e-002
8.022759e+002;3.434125e-002
8.042045e+002;3.420794e-002
8.061331e+002;3.367641e-002
8.080616e+002;3.414636e-002
8.099902e+002;3.528764e-002
8.119187e+002;3.520995e-002
8.138472e+002;3.488438e-002
8.157758e+002;3.509792e-002
8.177043e+002;3.539511e-002
8.196329e+002;3.612891e-002
8.215615e+002;3.600132e-002
8.234900e+002;3.558883e-002
8.254185e+002;3.619067e-002
8.273471e+002;3.699791e-002
8.292756e+002;3.739126e-002
8.312042e+002;3.707769e-002
8.331328e+002;3.690281e-002
8.350613e+002;3.732597e-002
8.369898e+002;3.753042e-002
8.389184e+002;3.762898e-002
8.408469e+002;3.757829e-002
8.427755e+002;3.747082e-002
8.447040e+002;3.813915e-002
8.466326e+002;3.811875e-002
8.485611e+002;3.717496e-002
8.504897e+002;3.710061e-002
8.524182e+002;3.753378e-002
8.543467e+002;3.750730e-002
8.562753e+002;3.712774e-002
8.582039e+002;3.704045e-002
8.601324e+002;3.717817e-002
8.620610e+002;3.725885e-002
8.639895e+002;3.740588e-002
8.659180e+002;3.765576e-002
8.678466e+002;3.745843e-002
8.697751e+002;3.734539e-002
8.717037e+002;3.752359e-002
8.736323e+002;3.751897e-002
8.755608e+002;3.746768e-002
8.774893e+002;3.761081e-002
8.794179e+002;3.742542e-002
8.813464e+002;3.737703e-002
8.832750e+002;3.756572e-002
8.852036e+002;3.768412e-002
8.871321e+002;3.809459e-002
8.890606e+002;3.822453e-002
8.909892e+002;3.760983e-002
8.929177e+002;3.729174e-002
8.948463e+002;3.780477e-002
8.967748e+002;3.842181e-002
8.987034e+002;3.857876e-002
9.006319e+002;3.820283e-002
9.025605e+002;3.777784e-002
9.044890e+002;3.836773e-002
9.064175e+002;3.925246e-002
9.083461e+002;3.910705e-002
9.102747e+002;3.862435e-002
9.122032e+002;3.827635e-002
9.141318e+002;3.806836e-002
9.160603e+002;3.791861e-002
9.179888e+002;3.769478e-002
9.199174e+002;3.776085e-002
9.218459e+002;3.789525e-002
9.237745e+002;3.793702e-002
9.257031e+002;3.811387e-002
9.276316e+002;3.785039e-002
9.295601e+002;3.787396e-002
9.314887e+002;3.814849e-002
9.334172e+002;3.749358e-002
9.353458e+002;3.729622e-002
9.372744e+002;3.754747e-002
9.392029e+002;3.777227e-002
9.411314e+002;3.776295e-002
9.430600e+002;3.769128e-002
9.449885e+002;3.774787e-002
9.469171e+002;3.748101e-002
9.488456e+002;3.737370e-002
9.507742e+002;3.751640e-002
9.527027e+002;3.731105e-002
9.546313e+002;3.696771e-002
9.565598e+002;3.694946e-002
9.584883e+002;3.676424e-002
9.604169e+002;3.641160e-002
9.623455e+002;3.633396e-002
9.642740e+002;3.652900e-002
9.662026e+002;3.681069e-002
9.681311e+002;3.651661e-002
9.700596e+002;3.609683e-002
9.719882e+002;3.592001e-002
9.739167e+002;3.615607e-002
9.758453e+002;3.615614e-002
9.777739e+002;3.581557e-002
9.797024e+002;3.578553e-002
9.816309e+002;3.573127e-002
9.835595e+002;3.546086e-002
9.854880e+002;3.517020e-002
9.874166e+002;3.478443e-002
9.893452e+002;3.424527e-002
9.912737e+002;3.390817e-002
9.932022e+002;3.389796e-002
9.951307e+002;3.355777e-002
9.970593e+002;3.310236e-002
9.989879e+002;3.269291e-002
1.000916e+003;3.285216e-002
1.002845e+003;3.309456e-002
1.004773e+003;3.310876e-002
1.006702e+003;3.279420e-002
1.008631e+003;3.213264e-002
1.010559e+003;3.187986e-002
1.012488e+003;3.199773e-002
1.014416e+003;3.171622e-002
1.016345e+003;3.103961e-002
1.018273e+003;3.063260e-002
1.020202e+003;3.079316e-002
1.022130e+003;3.099470e-002
1.024059e+003;3.109674e-002
1.025988e+003;3.096496e-002
1.027916e+003;3.111781e-002
1.029845e+003;3.139764e-002
1.031773e+003;3.142429e-002
1.033702e+003;3.162067e-002
1.035630e+003;3.157082e-002
1.037559e+003;3.162780e-002
1.039487e+003;3.184413e-002
1.041416e+003;3.191716e-002
1.043344e+003;3.223402e-002
1.045273e+003;3.262043e-002
1.047202e+003;3.289376e-002
1.049130e+003;3.286971e-002
1.051059e+003;3.270527e-002
1.052987e+003;3.293529e-002
1.054916e+003;3.326012e-002
1.056844e+003;3.328208e-002
1.058773e+003;3.333703e-002
1.060701e+003;3.352505e-002
1.062630e+003;3.343153e-002
1.064558e+003;3.309127e-002
1.066487e+003;3.302438e-002
1.068416e+003;3.326302e-002
1.070344e+003;3.352122e-002
1.072273e+003;3.391483e-002
1.074201e+003;3.409417e-002
1.076130e+003;3.418672e-002
1.078058e+003;3.466792e-002
1.079987e+003;3.491680e-002
1.081915e+003;3.417249e-002
1.083844e+003;3.336619e-002
1.085773e+003;3.347716e-002
1.087701e+003;3.390795e-002
1.089630e+003;3.398731e-002
1.091558e+003;3.348632e-002
1.093487e+003;3.246958e-002
1.095415e+003;3.191556e-002
1.097344e+003;3.201110e-002
1.099272e+003;3.231275e-002
1.101201e+003;3.230875e-002
1.103129e+003;3.266493e-002
1.105058e+003;3.249072e-002
1.106987e+003;3.133628e-002
1.108915e+003;3.106883e-002
1.110844e+003;3.149525e-002
1.112772e+003;3.225975e-002
1.114701e+003;3.283293e-002
1.116629e+003;3.278655e-002
1.118558e+003;3.265497e-002
1.120486e+003;3.291992e-002
1.122415e+003;3.298970e-002
1.124344e+003;3.275532e-002
1.126272e+003;3.254478e-002
1.128201e+003;3.250257e-002
1.130129e+003;3.264739e-002
1.132058e+003;3.286242e-002
1.133986e+003;3.296486e-002
1.135915e+003;3.284547e-002
1.137843e+003;3.295055e-002
1.139772e+003;3.274839e-002
1.141700e+003;3.270373e-002
1.143629e+003;3.342974e-002
1.145557e+003;3.361862e-002
1.147486e+003;3.385508e-002
1.149415e+003;3.381528e-002
1.151343e+003;3.384874e-002
1.153272e+003;3.400397e-002
1.155200e+003;3.381840e-002
1.157129e+003;3.356836e-002
1.159057e+003;3.357505e-002
1.160986e+003;3.381776e-002
1.162914e+003;3.414629e-002
1.164843e+003;3.427094e-002
1.166771e+003;3.459328e-002
1.168700e+003;3.477904e-002
1.170629e+003;3.463124e-002
1.172557e+003;3.431117e-002
1.174486e+003;3.485842e-002
1.176414e+003;3.507026e-002
1.178343e+003;3.382517e-002
1.180271e+003;3.301390e-002
1.182200e+003;3.305727e-002
1.184128e+003;3.322345e-002
1.186057e+003;3.286878e-002
1.187986e+003;3.240320e-002
1.189914e+003;3.219483e-002
1.191843e+003;3.208993e-002
1.193771e+003;3.205208e-002
1.195700e+003;3.217421e-002
1.197628e+003;3.212608e-002
1.199557e+003;3.175532e-002
1.201485e+003;3.159038e-002
1.203414e+003;3.192558e-002
1.205343e+003;3.184998e-002
1.207271e+003;3.120104e-002
1.209200e+003;3.105755e-002
1.211128e+003;3.112585e-002
1.213057e+003;3.107225e-002
1.214985e+003;3.098381e-002
1.216914e+003;3.087679e-002
1.218842e+003;3.079458e-002
1.220771e+003;3.085523e-002
1.222699e+003;3.094578e-002
1.224628e+003;3.051457e-002
1.226557e+003;2.988412e-002
1.228485e+003;3.001718e-002
1.230414e+003;3.027133e-002
1.232342e+003;3.054745e-002
1.234271e+003;3.087064e-002
1.236199e+003;3.100730e-002
1.238128e+003;3.134714e-002
1.240056e+003;3.129885e-002
1.241985e+003;3.134027e-002
1.243913e+003;3.172342e-002
1.245842e+003;3.211994e-002
1.247771e+003;3.261425e-002
1.249699e+003;3.300482e-002
1.251628e+003;3.352204e-002
1.253556e+003;3.407246e-002
1.255485e+003;3.414876e-002
1.257413e+003;3.389165e-002
1.259342e+003;3.342774e-002
1.261270e+003;3.339689e-002
1.263199e+003;3.384236e-002
1.265127e+003;3.451697e-002
1.267056e+003;3.539777e-002
1.268985e+003;3.592969e-002
1.270913e+003;3.631195e-002
1.272842e+003;3.693391e-002
1.274770e+003;3.737807e-002
1.276699e+003;3.743575e-002
1.278627e+003;3.709346e-002
1.280556e+003;3.692770e-002
1.282484e+003;3.714543e-002
1.284413e+003;3.762754e-002
1.286342e+003;3.798587e-002
1.288270e+003;3.812812e-002
1.290199e+003;3.875276e-002
1.292127e+003;3.962604e-002
1.294056e+003;4.007236e-002
1.295984e+003;4.024470e-002
1.297913e+003;4.051382e-002
1.299841e+003;4.071061e-002
1.301770e+003;4.064784e-002
1.303698e+003;4.064850e-002
1.305627e+003;4.065821e-002
1.307556e+003;4.034850e-002
1.309484e+003;3.985494e-002
1.311413e+003;3.950362e-002
1.313341e+003;3.903284e-002
1.315270e+003;3.813141e-002
1.317198e+003;3.714431e-002
1.319127e+003;3.652616e-002
1.321055e+003;3.635572e-002
1.322984e+003;3.608617e-002
1.324912e+003;3.566602e-002
1.326841e+003;3.519715e-002
1.328770e+003;3.471372e-002
1.330698e+003;3.470995e-002
1.332627e+003;3.491263e-002
1.334555e+003;3.499196e-002
1.336484e+003;3.511635e-002
1.338412e+003;3.528563e-002
1.340341e+003;3.595481e-002
1.342269e+003;3.742560e-002
1.344198e+003;3.865401e-002
1.346126e+003;3.935765e-002
1.348055e+003;4.000746e-002
1.349984e+003;4.080156e-002
1.351912e+003;4.129066e-002
1.353841e+003;4.098956e-002
1.355769e+003;4.053281e-002
1.357698e+003;4.036177e-002
1.359626e+003;4.023187e-002
1.361555e+003;4.057439e-002
1.363483e+003;4.187316e-002
1.365412e+003;4.338203e-002
1.367341e+003;4.419432e-002
1.369269e+003;4.449493e-002
1.371198e+003;4.357991e-002
1.373126e+003;4.135928e-002
1.375055e+003;3.964017e-002
1.376983e+003;3.879685e-002
1.378912e+003;3.775355e-002
1.380840e+003;3.648893e-002
1.382769e+003;3.548865e-002
1.384698e+003;3.492014e-002
1.386626e+003;3.419156e-002
1.388555e+003;3.405461e-002
1.390483e+003;3.437615e-002
1.392412e+003;3.388890e-002
1.394340e+003;3.300378e-002
1.396269e+003;3.338172e-002
1.398197e+003;3.383946e-002
1.400126e+003;3.429621e-002
1.402054e+003;3.488319e-002
1.403983e+003;3.493055e-002
1.405911e+003;3.523621e-002
1.407840e+003;3.602659e-002
1.409769e+003;3.666685e-002
1.411697e+003;3.709754e-002
1.413626e+003;3.735648e-002
1.415554e+003;3.771437e-002
1.417483e+003;3.717622e-002
1.419411e+003;3.736262e-002
1.421340e+003;4.027018e-002
1.423268e+003;4.276869e-002
1.425197e+003;4.521388e-002
1.427125e+003;4.795752e-002
1.429054e+003;5.026211e-002
1.430983e+003;5.283881e-002
1.432911e+003;5.525791e-002
1.434840e+003;5.602130e-002
1.436768e+003;5.718997e-002
1.438697e+003;6.082033e-002
1.440625e+003;6.318684e-002
1.442554e+003;6.446876e-002
1.444482e+003;6.563658e-002
1.446411e+003;6.671236e-002
1.448340e+003;6.864359e-002
1.450268e+003;7.220385e-002
1.452197e+003;7.688793e-002
1.454125e+003;8.159549e-002
1.456054e+003;8.566270e-002
1.457982e+003;9.736808e-002
1.459911e+003;1.193938e-001
1.461839e+003;1.354286e-001
1.463768e+003;1.377274e-001
1.465697e+003;1.451920e-001
1.467625e+003;1.673638e-001
1.469554e+003;2.013775e-001
1.471482e+003;2.238710e-001
1.473411e+003;1.957840e-001
1.475339e+003;1.382102e-001
1.477268e+003;9.506980e-002
1.479196e+003;7.410835e-002
1.481125e+003;6.442717e-002
1.483053e+003;5.925040e-002
1.484982e+003;5.536076e-002
1.486911e+003;5.173771e-002
1.488839e+003;4.881497e-002
1.490768e+003;4.740117e-002
1.492696e+003;4.693874e-002
1.494625e+003;4.475403e-002
1.496553e+003;4.235894e-002
1.498482e+003;4.229644e-002
1.500410e+003;4.248418e-002
1.502339e+003;4.210017e-002
1.504267e+003;3.877203e-002
1.506196e+003;3.439921e-002
1.508125e+003;3.524340e-002
1.510053e+003;3.780318e-002
1.511982e+003;3.824357e-002
1.513910e+003;3.784457e-002
1.515839e+003;3.673348e-002
1.517767e+003;3.587405e-002
1.519696e+003;3.436819e-002
1.521624e+003;3.315618e-002
1.523553e+003;3.453089e-002
1.525481e+003;3.492872e-002
1.527410e+003;3.521817e-002
1.529339e+003;3.593843e-002
1.531267e+003;3.584990e-002
1.533196e+003;3.506685e-002
1.535124e+003;3.572081e-002
1.537053e+003;3.408442e-002
1.538981e+003;2.996140e-002
1.540910e+003;2.967919e-002
1.542838e+003;3.199141e-002
1.544767e+003;3.366448e-002
1.546695e+003;3.483824e-002
1.548624e+003;3.482334e-002
1.550553e+003;3.462357e-002
1.552481e+003;3.390885e-002
1.554410e+003;3.228776e-002
1.556338e+003;2.994131e-002
1.558267e+003;2.564598e-002
1.560195e+003;2.697575e-002
1.562124e+003;3.189562e-002
1.564052e+003;3.335342e-002
1.565981e+003;3.321562e-002
1.567910e+003;3.228052e-002
1.569838e+003;3.149991e-002
1.571767e+003;3.286092e-002
1.573695e+003;3.249275e-002
1.575624e+003;3.027346e-002
1.577552e+003;3.190924e-002
1.579481e+003;3.454510e-002
1.581409e+003;3.508319e-002
1.583338e+003;3.510705e-002
1.585266e+003;3.477718e-002
1.587195e+003;3.458288e-002
1.589124e+003;3.454570e-002
1.591052e+003;3.462037e-002
1.592981e+003;3.436933e-002
1.594909e+003;3.410643e-002
1.596838e+003;3.408772e-002
1.598766e+003;3.423179e-002
1.600695e+003;3.437755e-002
1.602623e+003;3.442424e-002
1.604552e+003;3.437902e-002
1.606480e+003;3.425477e-002
1.608409e+003;3.397423e-002
1.610338e+003;3.388793e-002
1.612266e+003;3.410529e-002
1.614195e+003;3.312135e-002
1.616123e+003;3.037461e-002
1.618052e+003;3.116953e-002
1.619980e+003;3.320188e-002
1.621909e+003;3.260164e-002
1.623837e+003;3.229458e-002
1.625766e+003;3.277179e-002
1.627694e+003;3.279309e-002
1.629623e+003;3.370749e-002
1.631552e+003;3.406507e-002
1.633480e+003;3.191338e-002
1.635409e+003;2.977943e-002
1.637337e+003;3.154737e-002
1.639266e+003;3.375769e-002
1.641194e+003;3.434394e-002
1.643123e+003;3.381088e-002
1.645051e+003;3.152874e-002
1.646980e+003;3.064525e-002
1.648909e+003;3.210891e-002
1.650837e+003;2.910076e-002
1.652766e+003;2.427671e-002
1.654694e+003;2.794606e-002
1.656623e+003;3.241574e-002
1.658551e+003;3.327661e-002
1.660480e+003;3.259721e-002
1.662408e+003;3.157869e-002
1.664337e+003;3.188282e-002
1.666266e+003;3.195190e-002
1.668194e+003;3.036232e-002
1.670123e+003;2.970676e-002
1.672051e+003;3.067384e-002
1.673980e+003;3.006731e-002
1.675908e+003;3.004185e-002
1.677837e+003;3.167930e-002
1.679765e+003;3.153451e-002
1.681694e+003;2.968551e-002
1.683622e+003;2.659289e-002
1.685551e+003;2.790575e-002
1.687479e+003;3.127243e-002
1.689408e+003;3.216918e-002
1.691337e+003;3.259710e-002
1.693265e+003;3.169587e-002
1.695194e+003;2.857335e-002
1.697122e+003;2.847976e-002
1.699051e+003;2.761763e-002
1.700979e+003;2.743050e-002
1.702908e+003;3.043005e-002
1.704836e+003;3.080216e-002
1.706765e+003;3.130594e-002
1.708693e+003;3.180260e-002
1.710622e+003;3.170966e-002
1.712551e+003;3.073099e-002
1.714479e+003;2.874066e-002
1.716408e+003;2.622437e-002
1.718336e+003;2.648747e-002
1.720265e+003;2.905517e-002
1.722193e+003;3.004537e-002
1.724122e+003;2.992658e-002
1.726050e+003;2.959469e-002
1.727979e+003;2.921539e-002
1.729908e+003;2.899307e-002
1.731836e+003;2.691251e-002
1.733765e+003;2.421393e-002
1.735693e+003;2.631462e-002
1.737622e+003;2.847074e-002
1.739550e+003;2.804784e-002
1.741479e+003;2.819158e-002
1.743407e+003;2.841877e-002
1.745336e+003;2.838039e-002
1.747265e+003;2.761830e-002
1.749193e+003;2.629526e-002
1.751122e+003;2.569097e-002
1.753050e+003;2.681029e-002
1.754979e+003;2.685861e-002
1.756907e+003;2.643542e-002
1.758836e+003;2.657161e-002
1.760764e+003;2.595488e-002
1.762693e+003;2.603083e-002
1.764621e+003;2.665595e-002
1.766550e+003;2.584782e-002
1.768479e+003;2.500459e-002
1.770407e+003;2.404453e-002
1.772336e+003;2.304254e-002
1.774264e+003;2.423018e-002
1.776193e+003;2.543127e-002
1.778121e+003;2.560184e-002
1.780050e+003;2.547722e-002
1.781978e+003;2.549630e-002
1.783907e+003;2.518808e-002
1.785835e+003;2.508160e-002
1.787764e+003;2.533179e-002
1.789693e+003;2.468388e-002
1.791621e+003;2.324799e-002
1.793550e+003;2.344858e-002
1.795478e+003;2.481815e-002
1.797407e+003;2.500325e-002
1.799335e+003;2.473123e-002
1.801264e+003;2.490941e-002
1.803192e+003;2.539238e-002
1.805121e+003;2.562531e-002
1.807049e+003;2.564784e-002
1.808978e+003;2.542684e-002
1.810907e+003;2.534390e-002
1.812835e+003;2.547188e-002
1.814764e+003;2.542526e-002
1.816692e+003;2.542916e-002
1.818621e+003;2.575264e-002
1.820549e+003;2.571984e-002
1.822478e+003;2.526541e-002
1.824406e+003;2.463923e-002
1.826335e+003;2.449765e-002
1.828264e+003;2.393861e-002
1.830192e+003;2.356054e-002
1.832121e+003;2.398206e-002
1.834049e+003;2.417402e-002
1.835978e+003;2.429160e-002
1.837906e+003;2.432934e-002
1.839835e+003;2.431063e-002
1.841763e+003;2.360305e-002
1.843692e+003;2.228445e-002
1.845620e+003;2.288813e-002
1.847549e+003;2.397107e-002
1.849478e+003;2.418425e-002
1.851406e+003;2.424076e-002
1.853335e+003;2.425502e-002
1.855263e+003;2.425271e-002
1.857192e+003;2.386166e-002
1.859120e+003;2.352238e-002
1.861049e+003;2.366148e-002
1.862977e+003;2.400300e-002
1.864906e+003;2.413847e-002
1.866834e+003;2.363691e-002
1.868763e+003;2.340550e-002
1.870692e+003;2.419168e-002
1.872620e+003;2.471702e-002
1.874549e+003;2.473119e-002
1.876477e+003;2.479156e-002
1.878406e+003;2.498213e-002
1.880334e+003;2.533526e-002
1.882263e+003;2.558563e-002
1.884191e+003;2.598306e-002
1.886120e+003;2.701235e-002
1.888048e+003;2.783000e-002
1.889977e+003;2.819890e-002
1.891906e+003;2.893572e-002
1.893834e+003;2.937100e-002
1.895763e+003;2.927501e-002
1.897691e+003;2.922617e-002
1.899620e+003;2.940830e-002
1.901548e+003;2.927845e-002
1.903477e+003;2.909725e-002
1.905405e+003;2.883384e-002
1.907334e+003;2.835966e-002
1.909262e+003;2.802653e-002
1.911191e+003;2.794211e-002
1.913120e+003;2.757283e-002
1.915048e+003;2.695580e-002
1.916977e+003;2.645806e-002
1.918905e+003;2.666958e-002
1.920834e+003;2.673248e-002
1.922762e+003;2.636683e-002
1.924691e+003;2.648271e-002
1.926619e+003;2.671652e-002
1.928548e+003;2.675905e-002
1.930477e+003;2.649377e-002
1.932405e+003;2.625935e-002
1.934334e+003;2.629931e-002
1.936262e+003;2.628396e-002
1.938191e+003;2.622461e-002
1.940119e+003;2.607840e-002
1.942048e+003;2.567192e-002
1.943976e+003;2.550456e-002
1.945905e+003;2.562011e-002
1.947833e+003;2.578790e-002
1.949762e+003;2.603202e-002
1.951691e+003;2.624672e-002
1.953619e+003;2.634581e-002
1.955548e+003;2.628315e-002
1.957476e+003;2.612030e-002
1.959405e+003;2.607002e-002
1.961333e+003;2.615268e-002
1.963262e+003;2.638274e-002
1.965190e+003;2.636186e-002
1.967119e+003;2.602675e-002
1.969047e+003;2.582859e-002
1.970976e+003;2.583710e-002
1.972905e+003;2.582145e-002
1.974833e+003;2.603361e-002
1.976762e+003;2.622412e-002
1.978690e+003;2.612766e-002
1.980619e+003;2.594187e-002
1.982547e+003;2.592618e-002
1.984476e+003;2.599368e-002
1.986404e+003;2.582549e-002
1.988333e+003;2.590064e-002
1.990261e+003;2.603498e-002
1.992190e+003;2.616981e-002
1.994119e+003;2.656073e-002
1.996047e+003;2.664076e-002
1.997976e+003;2.644982e-002
1.999904e+003;2.671606e-002
2.001833e+003;2.707872e-002
2.003761e+003;2.745220e-002
2.005690e+003;2.802265e-002
2.007618e+003;2.871212e-002
2.009547e+003;2.951592e-002
2.011476e+003;3.032970e-002
2.013404e+003;3.120243e-002
2.015333e+003;3.205198e-002
2.017261e+003;3.244565e-002
2.019190e+003;3.263864e-002
2.021118e+003;3.278948e-002
2.023047e+003;3.266472e-002
2.024975e+003;3.206218e-002
2.026904e+003;3.127243e-002
2.028833e+003;3.076218e-002
2.030761e+003;3.060170e-002
2.032690e+003;3.033890e-002
2.034618e+003;2.994976e-002
2.036547e+003;2.951922e-002
2.038475e+003;2.914689e-002
2.040404e+003;2.890222e-002
2.042332e+003;2.893005e-002
2.044261e+003;2.890332e-002
2.046189e+003;2.879882e-002
2.048118e+003;2.854178e-002
2.050047e+003;2.823334e-002
2.051975e+003;2.809835e-002
2.053904e+003;2.833699e-002
2.055832e+003;2.853272e-002
2.057761e+003;2.823408e-002
2.059689e+003;2.787681e-002
2.061618e+003;2.811112e-002
2.063546e+003;2.839210e-002
2.065475e+003;2.820314e-002
2.067404e+003;2.812359e-002
2.069332e+003;2.810122e-002
2.071260e+003;2.802568e-002
2.073189e+003;2.815364e-002
2.075118e+003;2.798865e-002
2.077046e+003;2.773742e-002
2.078975e+003;2.759405e-002
2.080903e+003;2.747659e-002
2.082832e+003;2.743579e-002
2.084760e+003;2.741126e-002
2.086689e+003;2.732731e-002
2.088617e+003;2.704469e-002
2.090546e+003;2.707191e-002
2.092475e+003;2.716530e-002
2.094403e+003;2.698778e-002
2.096332e+003;2.696715e-002
2.098260e+003;2.711730e-002
2.100189e+003;2.725170e-002
2.102117e+003;2.737237e-002
2.104046e+003;2.721995e-002
2.105974e+003;2.716495e-002
2.107903e+003;2.727523e-002
2.109832e+003;2.710323e-002
2.111760e+003;2.692298e-002
2.113688e+003;2.700773e-002
2.115617e+003;2.688660e-002
2.117546e+003;2.670048e-002
2.119474e+003;2.682284e-002
2.121403e+003;2.688656e-002
2.123331e+003;2.718830e-002
2.125260e+003;2.720266e-002
2.127188e+003;2.701006e-002
2.129117e+003;2.705090e-002
2.131045e+003;2.721363e-002
2.132974e+003;2.764676e-002
2.134903e+003;2.821785e-002
2.136831e+003;2.828992e-002
2.138760e+003;2.824663e-002
2.140688e+003;2.840005e-002
2.142617e+003;2.876968e-002
2.144545e+003;2.913283e-002
2.146474e+003;2.905336e-002
2.148402e+003;2.897727e-002
2.150331e+003;2.903040e-002
2.152260e+003;2.900259e-002
2.154188e+003;2.880544e-002
2.156117e+003;2.862919e-002
2.158045e+003;2.866929e-002
2.159974e+003;2.892708e-002
2.161902e+003;2.884475e-002
2.163831e+003;2.852310e-002
2.165759e+003;2.854776e-002
2.167688e+003;2.886015e-002
2.169616e+003;2.903200e-002
2.171545e+003;2.872285e-002
2.173474e+003;2.875184e-002
2.175402e+003;2.891731e-002
2.177331e+003;2.887141e-002
2.179259e+003;2.873860e-002
2.181188e+003;2.883274e-002
2.183116e+003;2.896604e-002
2.185045e+003;2.892244e-002
2.186973e+003;2.863432e-002
2.188902e+003;2.859302e-002
2.190831e+003;2.852614e-002
2.192759e+003;2.841534e-002
2.194688e+003;2.855027e-002
2.196616e+003;2.870320e-002
2.198545e+003;2.878356e-002
2.200473e+003;2.869984e-002
2.202402e+003;2.871711e-002
2.204330e+003;2.895060e-002
2.206259e+003;2.910689e-002
2.208188e+003;2.906236e-002
2.210116e+003;2.871095e-002
2.212044e+003;2.857957e-002
2.213973e+003;2.901435e-002
2.215902e+003;2.906151e-002
2.217830e+003;2.892319e-002
2.219759e+003;2.895626e-002
2.221687e+003;2.902123e-002
2.223616e+003;2.925413e-002
2.225544e+003;2.932889e-002
2.227473e+003;2.914937e-002
2.229401e+003;2.894415e-002
2.231330e+003;2.903536e-002
2.233259e+003;2.902098e-002
2.235187e+003;2.872211e-002
2.237116e+003;2.862027e-002
2.239044e+003;2.899579e-002
2.240973e+003;2.959796e-002
2.242901e+003;2.981030e-002
2.244830e+003;2.990769e-002
2.246758e+003;3.008439e-002
2.248687e+003;2.993030e-002
2.250615e+003;2.966042e-002
2.252544e+003;3.000067e-002
2.254473e+003;3.067957e-002
2.256401e+003;3.085480e-002
2.258330e+003;3.084926e-002
2.260258e+003;3.095368e-002
2.262187e+003;3.104275e-002
2.264115e+003;3.110062e-002
2.266044e+003;3.108940e-002
2.267972e+003;3.136278e-002
2.269901e+003;3.198135e-002
2.271830e+003;3.214081e-002
2.273758e+003;3.230993e-002
2.275687e+003;3.275911e-002
2.277615e+003;3.315432e-002
2.279544e+003;3.318597e-002
2.281472e+003;3.296453e-002
2.283401e+003;3.295710e-002
2.285329e+003;3.310325e-002
2.287258e+003;3.323161e-002
2.289187e+003;3.334118e-002
2.291115e+003;3.333979e-002
2.293043e+003;3.327768e-002
2.294972e+003;3.371236e-002
2.296901e+003;3.406177e-002
2.298829e+003;3.407138e-002
2.300758e+003;3.415242e-002
2.302686e+003;3.411876e-002
2.304615e+003;3.413704e-002
2.306543e+003;3.432200e-002
2.308472e+003;3.453243e-002
2.310400e+003;3.486750e-002
2.312329e+003;3.522037e-002
2.314258e+003;3.539184e-002
2.316186e+003;3.569724e-002
2.318115e+003;3.599991e-002
2.320043e+003;3.626977e-002
2.321972e+003;3.678159e-002
2.323900e+003;3.719268e-002
2.325829e+003;3.721127e-002
2.327757e+003;3.736980e-002
2.329686e+003;3.764462e-002
2.331615e+003;3.747057e-002
2.333543e+003;3.714048e-002
2.335472e+003;3.708184e-002
2.337400e+003;3.731232e-002
2.339329e+003;3.767733e-002
2.341257e+003;3.796092e-002
2.343186e+003;3.821487e-002
2.345114e+003;3.816248e-002
2.347043e+003;3.778492e-002
2.348971e+003;3.727632e-002
2.350900e+003;3.666094e-002
2.352829e+003;3.580024e-002
2.354757e+003;3.490517e-002
2.356686e+003;3.435130e-002
2.358614e+003;3.394521e-002
2.360543e+003;3.316941e-002
2.362471e+003;3.269301e-002
2.364400e+003;3.247436e-002
2.366328e+003;3.227584e-002
2.368257e+003;3.223127e-002
2.370186e+003;3.205676e-002
2.372114e+003;3.197504e-002
2.374042e+003;3.190225e-002
2.375971e+003;3.177611e-002
2.377900e+003;3.179151e-002
2.379828e+003;3.196901e-002
2.381757e+003;3.204292e-002
2.383685e+003;3.200176e-002
2.385614e+003;3.192725e-002
2.387542e+003;3.209757e-002
2.389471e+003;3.223676e-002
2.391399e+003;3.222235e-002
2.393328e+003;3.235101e-002
2.395257e+003;3.232132e-002
2.397185e+003;3.207503e-002
2.399114e+003;3.208851e-002
2.401042e+003;3.234027e-002
2.402971e+003;3.241966e-002
2.404899e+003;3.258317e-002
2.406828e+003;3.276890e-002
2.408756e+003;3.284351e-002
2.410685e+003;3.316087e-002
2.412614e+003;3.360290e-002
2.414542e+003;3.390641e-002
2.416471e+003;3.399616e-002
2.418399e+003;3.387192e-002
2.420328e+003;3.383201e-002
2.422256e+003;3.371186e-002
2.424185e+003;3.335496e-002
2.426113e+003;3.307837e-002
2.428042e+003;3.292697e-002
2.429970e+003;3.255114e-002
2.431899e+003;3.263982e-002
2.433828e+003;3.306968e-002
2.435756e+003;3.290873e-002
2.437685e+003;3.207453e-002
2.439613e+003;3.160004e-002
2.441542e+003;3.177311e-002
2.443470e+003;3.185800e-002
2.445399e+003;3.189958e-002
2.447327e+003;3.185872e-002
2.449256e+003;3.172898e-002
2.451185e+003;3.199833e-002
2.453113e+003;3.217806e-002
2.455042e+003;3.216104e-002
2.456970e+003;3.214459e-002
2.458899e+003;3.204302e-002
2.460827e+003;3.225796e-002
2.462756e+003;3.247558e-002
2.464684e+003;3.250596e-002
2.466613e+003;3.275768e-002
2.468542e+003;3.322642e-002
2.470470e+003;3.387048e-002
2.472398e+003;3.445821e-002
2.474327e+003;3.465938e-002
2.476256e+003;3.444533e-002
2.478184e+003;3.437486e-002
2.480113e+003;3.457129e-002
2.482041e+003;3.457713e-002
2.483970e+003;3.456293e-002
2.485898e+003;3.458855e-002
2.487827e+003;3.411141e-002
2.489755e+003;3.417249e-002
2.491684e+003;3.467879e-002
2.493613e+003;3.469746e-002
2.495541e+003;3.441786e-002
2.497470e+003;3.446463e-002
2.499398e+003;3.460118e-002
2.501327e+003;3.465831e-002
2.503255e+003;3.472538e-002
2.505184e+003;3.468145e-002
2.507112e+003;3.487838e-002
2.509041e+003;3.499013e-002
2.510969e+003;3.514103e-002
2.512898e+003;3.567509e-002
2.514827e+003;3.589827e-002
2.516755e+003;3.567498e-002
2.518684e+003;3.579866e-002
2.520612e+003;3.633201e-002
2.522541e+003;3.698080e-002
2.524469e+003;3.720286e-002
2.526398e+003;3.740086e-002
2.528326e+003;3.759545e-002
2.530255e+003;3.753132e-002
2.532184e+003;3.728975e-002
2.534112e+003;3.718376e-002
2.536041e+003;3.713944e-002
2.537969e+003;3.686403e-002
2.539898e+003;3.682104e-002
2.541826e+003;3.722708e-002
2.543755e+003;3.707708e-002
2.545683e+003;3.734417e-002
2.547612e+003;3.838601e-002
2.549541e+003;3.907229e-002
2.551469e+003;3.928529e-002
2.553397e+003;3.937968e-002
2.555326e+003;3.931884e-002
2.557255e+003;3.910930e-002
2.559183e+003;3.916024e-002
2.561112e+003;3.933676e-002
2.563040e+003;3.915876e-002
2.564969e+003;3.930886e-002
2.566897e+003;3.942278e-002
2.568826e+003;3.963294e-002
2.570754e+003;4.016739e-002
2.572683e+003;4.053350e-002
2.574612e+003;4.064828e-002
2.576540e+003;4.090479e-002
2.578469e+003;4.107485e-002
2.580397e+003;4.127965e-002
2.582326e+003;4.169437e-002
2.584254e+003;4.205184e-002
2.586183e+003;4.228337e-002
2.588111e+003;4.276587e-002
2.590040e+003;4.329640e-002
2.591969e+003;4.368234e-002
2.593897e+003;4.385451e-002
2.595826e+003;4.431880e-002
2.597754e+003;4.507646e-002
2.599683e+003;4.551042e-002
2.601611e+003;4.572734e-002
2.603540e+003;4.594529e-002
2.605468e+003;4.629662e-002
2.607397e+003;4.686613e-002
2.609325e+003;4.759863e-002
2.611254e+003;4.822624e-002
2.613183e+003;4.840707e-002
2.615111e+003;4.882250e-002
2.617040e+003;4.966005e-002
2.618968e+003;5.048820e-002
2.620897e+003;5.102310e-002
2.622825e+003;5.132587e-002
2.624754e+003;5.181981e-002
2.626682e+003;5.248114e-002
2.628611e+003;5.302846e-002
2.630540e+003;5.339940e-002
2.632468e+003;5.375066e-002
2.634396e+003;5.398990e-002
2.636325e+003;5.376191e-002
2.638254e+003;5.349230e-002
2.640182e+003;5.351111e-002
2.642111e+003;5.336265e-002
2.644039e+003;5.316580e-002
2.645968e+003;5.312128e-002
2.647896e+003;5.308515e-002
2.649825e+003;5.292047e-002
2.651753e+003;5.276330e-002
2.653682e+003;5.300997e-002
2.655611e+003;5.312637e-002
2.657539e+003;5.305886e-002
2.659468e+003;5.331806e-002
2.661396e+003;5.364782e-002
2.663325e+003;5.351602e-002
2.665253e+003;5.316756e-002
2.667182e+003;5.282489e-002
2.669110e+003;5.235923e-002
2.671039e+003;5.189399e-002
2.672968e+003;5.147756e-002
2.674896e+003;5.136790e-002
2.676825e+003;5.116685e-002
2.678753e+003;5.064186e-002
2.680682e+003;5.042054e-002
2.682610e+003;5.039129e-002
2.684539e+003;5.055583e-002
2.686467e+003;5.059927e-002
2.688396e+003;5.027908e-002
2.690324e+003;5.001908e-002
2.692253e+003;4.993184e-002
2.694182e+003;5.021119e-002
2.696110e+003;5.063058e-002
2.698039e+003;5.085805e-002
2.699967e+003;5.107412e-002
2.701896e+003;5.139885e-002
2.703824e+003;5.182376e-002
2.705753e+003;5.223672e-002
2.707681e+003;5.249012e-002
2.709610e+003;5.292844e-002
2.711539e+003;5.317472e-002
2.713467e+003;5.328191e-002
2.715396e+003;5.355826e-002
2.717324e+003;5.404641e-002
2.719253e+003;5.427211e-002
2.721181e+003;5.452174e-002
2.723110e+003;5.484308e-002
2.725038e+003;5.521426e-002
2.726967e+003;5.577653e-002
2.728896e+003;5.628023e-002
2.730824e+003;5.682028e-002
2.732752e+003;5.723828e-002
2.734681e+003;5.753248e-002
2.736610e+003;5.754159e-002
2.738538e+003;5.738815e-002
2.740467e+003;5.780386e-002
2.742395e+003;5.825343e-002
2.744324e+003;5.832160e-002
2.746252e+003;5.856966e-002
2.748181e+003;5.890058e-002
2.750109e+003;5.883813e-002
2.752038e+003;5.874207e-002
2.753967e+003;5.910539e-002
2.755895e+003;5.957109e-002
2.757824e+003;6.007575e-002
2.759752e+003;6.060473e-002
2.761681e+003;6.111342e-002
2.763609e+003;6.177643e-002
2.765538e+003;6.252830e-002
2.767466e+003;6.298784e-002
2.769395e+003;6.344426e-002
2.771323e+003;6.409045e-002
2.773252e+003;6.527191e-002
2.775181e+003;6.658268e-002
2.777109e+003;6.766786e-002
2.779038e+003;6.835209e-002
2.780966e+003;6.876395e-002
2.782895e+003;6.950543e-002
2.784823e+003;7.052931e-002
2.786752e+003;7.144076e-002
2.788680e+003;7.197259e-002
2.790609e+003;7.282285e-002
2.792538e+003;7.395252e-002
2.794466e+003;7.491189e-002
2.796395e+003;7.568952e-002
2.798323e+003;7.645332e-002
2.800252e+003;7.717936e-002
2.802180e+003;7.808895e-002
2.804109e+003;7.913809e-002
2.806037e+003;8.063027e-002
2.807966e+003;8.209704e-002
2.809895e+003;8.323141e-002
2.811823e+003;8.454375e-002
2.813751e+003;8.586959e-002
2.815680e+003;8.710076e-002
2.817609e+003;8.864933e-002
2.819537e+003;9.074213e-002
2.821466e+003;9.329797e-002
2.823394e+003;9.564869e-002
2.825323e+003;9.815665e-002
2.827251e+003;1.015909e-001
2.829180e+003;1.057774e-001
2.831108e+003;1.109321e-001
2.833037e+003;1.173236e-001
2.834966e+003;1.253183e-001
2.836894e+003;1.361953e-001
2.838823e+003;1.508236e-001
2.840751e+003;1.703285e-001
2.842680e+003;1.974007e-001
2.844608e+003;2.336278e-001
2.846537e+003;2.755766e-001
2.848465e+003;3.069981e-001
2.850394e+003;3.016076e-001
2.852323e+003;2.608165e-001
2.854251e+003;2.126970e-001
2.856180e+003;1.739946e-001
2.858108e+003;1.467998e-001
2.860037e+003;1.291811e-001
2.861965e+003;1.185833e-001
2.863894e+003;1.118949e-001
2.865822e+003;1.084788e-001
2.867751e+003;1.077133e-001
2.869679e+003;1.086446e-001
2.871608e+003;1.109815e-001
2.873536e+003;1.148554e-001
2.875465e+003;1.198347e-001
2.877394e+003;1.257612e-001
2.879322e+003;1.325576e-001
2.881251e+003;1.390253e-001
2.883179e+003;1.452563e-001
2.885108e+003;1.511521e-001
2.887036e+003;1.567140e-001
2.888965e+003;1.633206e-001
2.890893e+003;1.703819e-001
2.892822e+003;1.770380e-001
2.894750e+003;1.839229e-001
2.896679e+003;1.910714e-001
2.898608e+003;1.985381e-001
2.900536e+003;2.066009e-001
2.902465e+003;2.163820e-001
2.904393e+003;2.286007e-001
2.906322e+003;2.432741e-001
2.908250e+003;2.621877e-001
2.910179e+003;2.852662e-001
2.912107e+003;3.099926e-001
2.914036e+003;3.317621e-001
2.915965e+003;3.424689e-001
2.917893e+003;3.352558e-001
2.919822e+003;3.118643e-001
2.921750e+003;2.810763e-001
2.923679e+003;2.485370e-001
2.925607e+003;2.176075e-001
2.927536e+003;1.906642e-001
2.929464e+003;1.680970e-001
2.931393e+003;1.494439e-001
2.933322e+003;1.332881e-001
2.935250e+003;1.194914e-001
2.937178e+003;1.085280e-001
2.939107e+003;9.947827e-002
2.941036e+003;9.144643e-002
2.942964e+003;8.501128e-002
2.944893e+003;7.961524e-002
2.946821e+003;7.508650e-002
2.948750e+003;7.163457e-002
2.950678e+003;6.849584e-002
2.952607e+003;6.557784e-002
2.954535e+003;6.324755e-002
2.956464e+003;6.162091e-002
2.958393e+003;6.042499e-002
2.960321e+003;5.944690e-002
2.962250e+003;5.844462e-002
2.964178e+003;5.771644e-002
2.966107e+003;5.733132e-002
2.968035e+003;5.677538e-002
2.969964e+003;5.610857e-002
2.971892e+003;5.572714e-002
2.973821e+003;5.548657e-002
2.975750e+003;5.463674e-002
2.977678e+003;5.362285e-002
2.979607e+003;5.308766e-002
2.981535e+003;5.296153e-002
2.983464e+003;5.269701e-002
2.985392e+003;5.221288e-002
2.987321e+003;5.150445e-002
2.989249e+003;5.086516e-002
2.991178e+003;5.020996e-002
2.993106e+003;4.969928e-002
2.995035e+003;4.948385e-002
2.996964e+003;4.911699e-002
2.998892e+003;4.881116e-002
3.000821e+003;4.826542e-002
3.002749e+003;4.790302e-002
3.004678e+003;4.781956e-002
3.006606e+003;4.734752e-002
3.008535e+003;4.714977e-002
3.010463e+003;4.747443e-002
3.012392e+003;4.715752e-002
3.014321e+003;4.683151e-002
3.016249e+003;4.667037e-002
3.018177e+003;4.635022e-002
3.020106e+003;4.625740e-002
3.022035e+003;4.623872e-002
3.023963e+003;4.587248e-002
3.025892e+003;4.545703e-002
3.027820e+003;4.533825e-002
3.029749e+003;4.516546e-002
3.031677e+003;4.483121e-002
3.033606e+003;4.445804e-002
3.035534e+003;4.452676e-002
3.037463e+003;4.457819e-002
3.039392e+003;4.437623e-002
3.041320e+003;4.406763e-002
3.043249e+003;4.378117e-002
3.045177e+003;4.338123e-002
3.047106e+003;4.286175e-002
3.049034e+003;4.269221e-002
3.050963e+003;4.287624e-002
3.052891e+003;4.267071e-002
3.054820e+003;4.213990e-002
3.056749e+003;4.160174e-002
3.058677e+003;4.101971e-002
3.060606e+003;4.083967e-002
3.062534e+003;4.094204e-002
3.064463e+003;4.093960e-002
3.066391e+003;4.079257e-002
3.068320e+003;4.059483e-002
3.070248e+003;4.035148e-002
3.072177e+003;3.995341e-002
3.074105e+003;3.968870e-002
3.076034e+003;3.975144e-002
3.077963e+003;3.965603e-002
3.079891e+003;3.915303e-002
3.081820e+003;3.885732e-002
3.083748e+003;3.909603e-002
3.085677e+003;3.948947e-002
3.087605e+003;3.959599e-002
3.089534e+003;3.918004e-002
3.091462e+003;3.831087e-002
3.093391e+003;3.760499e-002
3.095320e+003;3.701923e-002
3.097248e+003;3.693946e-002
3.099177e+003;3.687860e-002
3.101105e+003;3.680932e-002
3.103034e+003;3.661086e-002
3.104962e+003;3.579852e-002
3.106891e+003;3.516000e-002
3.108819e+003;3.502540e-002
3.110748e+003;3.467977e-002
3.112677e+003;3.374548e-002
3.114605e+003;3.275146e-002
3.116533e+003;3.223744e-002
3.118462e+003;3.177518e-002
3.120391e+003;3.129874e-002
3.122319e+003;3.096496e-002
3.124248e+003;3.065969e-002
3.126176e+003;3.041548e-002
3.128105e+003;3.005325e-002
3.130033e+003;2.977503e-002
3.131962e+003;2.969391e-002
3.133890e+003;2.973348e-002
3.135819e+003;2.948060e-002
3.137748e+003;2.914569e-002
3.139676e+003;2.884584e-002
3.141605e+003;2.885852e-002
3.143533e+003;2.891129e-002
3.145462e+003;2.885307e-002
3.147390e+003;2.894787e-002
3.149319e+003;2.911139e-002
3.151247e+003;2.882233e-002
3.153176e+003;2.853103e-002
3.155104e+003;2.835216e-002
3.157033e+003;2.822216e-002
3.158962e+003;2.837038e-002
3.160890e+003;2.833688e-002
3.162819e+003;2.828245e-002
3.164747e+003;2.793684e-002
3.166676e+003;2.742093e-002
3.168604e+003;2.743607e-002
3.170533e+003;2.762176e-002
3.172461e+003;2.779846e-002
3.174390e+003;2.798285e-002
3.176319e+003;2.809001e-002
3.178247e+003;2.804117e-002
3.180176e+003;2.746883e-002
3.182104e+003;2.718640e-002
3.184033e+003;2.736962e-002
3.185961e+003;2.749873e-002
3.187890e+003;2.748040e-002
3.189818e+003;2.759528e-002
3.191747e+003;2.799490e-002
3.193676e+003;2.792264e-002
3.195604e+003;2.766188e-002
3.197532e+003;2.756442e-002
3.199461e+003;2.773735e-002
3.201390e+003;2.784402e-002
3.203318e+003;2.761707e-002
3.205247e+003;2.727826e-002
3.207175e+003;2.724789e-002
3.209104e+003;2.770955e-002
3.211032e+003;2.783919e-002
3.212961e+003;2.757103e-002
3.214889e+003;2.743378e-002
3.216818e+003;2.763847e-002
3.218747e+003;2.774851e-002
3.220675e+003;2.767537e-002
3.222604e+003;2.739136e-002
3.224532e+003;2.766322e-002
3.226461e+003;2.786649e-002
3.228389e+003;2.748874e-002
3.230318e+003;2.754663e-002
3.232246e+003;2.772467e-002
3.234175e+003;2.761788e-002
3.236104e+003;2.760955e-002
3.238032e+003;2.705717e-002
3.239961e+003;2.628128e-002
3.241889e+003;2.643588e-002
3.243818e+003;2.737057e-002
3.245746e+003;2.765312e-002
3.247675e+003;2.765796e-002
3.249603e+003;2.779217e-002
3.251532e+003;2.792592e-002
3.253460e+003;2.736447e-002
3.255389e+003;2.711505e-002
3.257318e+003;2.723441e-002
3.259246e+003;2.732950e-002
3.261175e+003;2.718633e-002
3.263103e+003;2.689386e-002
3.265032e+003;2.701581e-002
3.266960e+003;2.745397e-002
3.268889e+003;2.796780e-002
3.270817e+003;2.791483e-002
3.272746e+003;2.752746e-002
3.274675e+003;2.770690e-002
3.276603e+003;2.791734e-002
3.278531e+003;2.783131e-002
3.280460e+003;2.742199e-002
3.282389e+003;2.727590e-002
3.284317e+003;2.741024e-002
3.286246e+003;2.778256e-002
3.288174e+003;2.791645e-002
3.290103e+003;2.714947e-002
3.292031e+003;2.669914e-002
3.293960e+003;2.694166e-002
3.295888e+003;2.694431e-002
3.297817e+003;2.693743e-002
3.299746e+003;2.705643e-002
3.301674e+003;2.702470e-002
3.303603e+003;2.707262e-002
3.305531e+003;2.719740e-002
3.307460e+003;2.723579e-002
3.309388e+003;2.752178e-002
3.311317e+003;2.778418e-002
3.313245e+003;2.762519e-002
3.315174e+003;2.721229e-002
3.317103e+003;2.706729e-002
3.319031e+003;2.731002e-002
3.320960e+003;2.702085e-002
3.322888e+003;2.679573e-002
3.324817e+003;2.722101e-002
3.326745e+003;2.721476e-002
3.328674e+003;2.720319e-002
3.330602e+003;2.769257e-002
3.332531e+003;2.779754e-002
3.334459e+003;2.793765e-002
3.336388e+003;2.803498e-002
3.338317e+003;2.758448e-002
3.340245e+003;2.757562e-002
3.342174e+003;2.748814e-002
3.344102e+003;2.749922e-002
3.346031e+003;2.810719e-002
3.347959e+003;2.833087e-002
3.349888e+003;2.781068e-002
3.351816e+003;2.810214e-002
3.353745e+003;2.841969e-002
3.355674e+003;2.838771e-002
3.357602e+003;2.840812e-002
3.359531e+003;2.837642e-002
3.361459e+003;2.832252e-002
3.363388e+003;2.831573e-002
3.365316e+003;2.832005e-002
3.367245e+003;2.834650e-002
3.369173e+003;2.847498e-002
3.371102e+003;2.855544e-002
3.373031e+003;2.867191e-002
3.374959e+003;2.869131e-002
3.376887e+003;2.863737e-002
3.378816e+003;2.844463e-002
3.380745e+003;2.780442e-002
3.382673e+003;2.768172e-002
3.384602e+003;2.787695e-002
3.386530e+003;2.747359e-002
3.388459e+003;2.709681e-002
3.390387e+003;2.725611e-002
3.392316e+003;2.730585e-002
3.394244e+003;2.724097e-002
3.396173e+003;2.723028e-002
3.398102e+003;2.711991e-002
3.400030e+003;2.729241e-002
3.401959e+003;2.708538e-002
3.403887e+003;2.651846e-002
3.405816e+003;2.681216e-002
3.407744e+003;2.745930e-002
3.409673e+003;2.725050e-002
3.411601e+003;2.726133e-002
3.413530e+003;2.734319e-002
3.415458e+003;2.727946e-002
3.417387e+003;2.755344e-002
3.419316e+003;2.783816e-002
3.421244e+003;2.741733e-002
3.423173e+003;2.711064e-002
3.425101e+003;2.742192e-002
3.427030e+003;2.790034e-002
3.428958e+003;2.811963e-002
3.430887e+003;2.760746e-002
3.432815e+003;2.695940e-002
3.434744e+003;2.658211e-002
3.436673e+003;2.659722e-002
3.438601e+003;2.715970e-002
3.440530e+003;2.775190e-002
3.442458e+003;2.752344e-002
3.444387e+003;2.691212e-002
3.446315e+003;2.663735e-002
3.448244e+003;2.641450e-002
3.450172e+003;2.640647e-002
3.452101e+003;2.648687e-002
3.454030e+003;2.639521e-002
3.455958e+003;2.686207e-002
3.457886e+003;2.689531e-002
3.459815e+003;2.643007e-002
3.461744e+003;2.633057e-002
3.463672e+003;2.617344e-002
3.465601e+003;2.619079e-002
3.467529e+003;2.651075e-002
3.469458e+003;2.662709e-002
3.471386e+003;2.654069e-002
3.473315e+003;2.617150e-002
3.475243e+003;2.608462e-002
3.477172e+003;2.675820e-002
3.479101e+003;2.683144e-002
3.481029e+003;2.591394e-002
3.482958e+003;2.562162e-002
3.484886e+003;2.576185e-002
3.486815e+003;2.549592e-002
3.488743e+003;2.594588e-002
3.490672e+003;2.629255e-002
3.492600e+003;2.605693e-002
3.494529e+003;2.617112e-002
3.496458e+003;2.634831e-002
3.498386e+003;2.648655e-002
3.500315e+003;2.653308e-002
3.502243e+003;2.658479e-002
3.504172e+003;2.646651e-002
3.506100e+003;2.613248e-002
3.508029e+003;2.633007e-002
3.509957e+003;2.653142e-002
3.511886e+003;2.661977e-002
3.513814e+003;2.666941e-002
3.515743e+003;2.650705e-002
3.517672e+003;2.668494e-002
3.519600e+003;2.670175e-002
3.521529e+003;2.605081e-002
3.523457e+003;2.596104e-002
3.525386e+003;2.645965e-002
3.527314e+003;2.647518e-002
3.529243e+003;2.586702e-002
3.531171e+003;2.596153e-002
3.533100e+003;2.650198e-002
3.535029e+003;2.637676e-002
3.536957e+003;2.616151e-002
3.538885e+003;2.605655e-002
3.540814e+003;2.580190e-002
3.542743e+003;2.576508e-002
3.544671e+003;2.596747e-002
3.546600e+003;2.608610e-002
3.548528e+003;2.643376e-002
3.550457e+003;2.643225e-002
3.552385e+003;2.627234e-002
3.554314e+003;2.633856e-002
3.556242e+003;2.689382e-002
3.558171e+003;2.723071e-002
3.560100e+003;2.726348e-002
3.562028e+003;2.764104e-002
3.563957e+003;2.752976e-002
3.565885e+003;2.648768e-002
3.567814e+003;2.619737e-002
3.569742e+003;2.680335e-002
3.571671e+003;2.740897e-002
3.573599e+003;2.779711e-002
3.575528e+003;2.776246e-002
3.577457e+003;2.785724e-002
3.579385e+003;2.795543e-002
3.581314e+003;2.792589e-002
3.583242e+003;2.818444e-002
3.585171e+003;2.770637e-002
3.587099e+003;2.736997e-002
3.589028e+003;2.845715e-002
3.590956e+003;2.981740e-002
3.592885e+003;3.026376e-002
3.594813e+003;3.050277e-002
3.596742e+003;3.114696e-002
3.598671e+003;3.219651e-002
3.600599e+003;3.283944e-002
3.602528e+003;3.361773e-002
3.604456e+003;3.398333e-002
3.606385e+003;3.315972e-002
3.608313e+003;3.204484e-002
3.610242e+003;3.196149e-002
3.612170e+003;3.213214e-002
3.614099e+003;3.207103e-002
3.616028e+003;3.164822e-002
3.617956e+003;3.069361e-002
3.619885e+003;3.034498e-002
3.621813e+003;3.108051e-002
3.623742e+003;3.131993e-002
3.625670e+003;3.010304e-002
3.627599e+003;2.739662e-002
3.629527e+003;2.697181e-002
3.631456e+003;2.894203e-002
3.633385e+003;2.996499e-002
3.635313e+003;3.042291e-002
3.637241e+003;3.088682e-002
3.639170e+003;3.149204e-002
3.641099e+003;3.168935e-002
3.643027e+003;3.229801e-002
3.644956e+003;3.167481e-002
3.646884e+003;2.888504e-002
3.648813e+003;2.777422e-002
3.650741e+003;2.970147e-002
3.652670e+003;3.146301e-002
3.654598e+003;3.065791e-002
3.656527e+003;2.999321e-002
3.658456e+003;3.094240e-002
3.660384e+003;3.159423e-002
3.662313e+003;3.174634e-002
3.664241e+003;3.156048e-002
3.666170e+003;3.109275e-002
3.668098e+003;2.934023e-002
3.670027e+003;2.748503e-002
3.671955e+003;2.827658e-002
3.673884e+003;2.766414e-002
3.675813e+003;2.685086e-002
3.677741e+003;2.915263e-002
3.679669e+003;3.032963e-002
3.681598e+003;3.064433e-002
3.683527e+003;3.085125e-002
3.685455e+003;3.060184e-002
3.687384e+003;2.844813e-002
3.689312e+003;2.746562e-002
3.691241e+003;2.876367e-002
3.693169e+003;3.065350e-002
3.695098e+003;3.113938e-002
3.697026e+003;3.046100e-002
3.698955e+003;3.013567e-002
3.700884e+003;3.000425e-002
3.702812e+003;3.015091e-002
3.704741e+003;3.032558e-002
3.706669e+003;2.996839e-002
3.708598e+003;2.886493e-002
3.710526e+003;2.748577e-002
3.712455e+003;2.741405e-002
3.714383e+003;2.867127e-002
3.716312e+003;2.919243e-002
3.718240e+003;2.931226e-002
3.720169e+003;2.899601e-002
3.722098e+003;2.848846e-002
3.724026e+003;2.858187e-002
3.725955e+003;2.842114e-002
3.727883e+003;2.855856e-002
3.729812e+003;2.812504e-002
3.731740e+003;2.711025e-002
3.733669e+003;2.670404e-002
3.735597e+003;2.625432e-002
3.737526e+003;2.780375e-002
3.739455e+003;2.894670e-002
3.741383e+003;2.741267e-002
3.743312e+003;2.338375e-002
3.745240e+003;2.387335e-002
3.747169e+003;2.578147e-002
3.749097e+003;2.402625e-002
3.751026e+003;2.433779e-002
3.752954e+003;2.669692e-002
3.754883e+003;2.832426e-002
3.756812e+003;2.850286e-002
3.758740e+003;2.861387e-002
3.760668e+003;2.884011e-002
3.762597e+003;2.949861e-002
3.764526e+003;2.930790e-002
3.766454e+003;2.937607e-002
3.768383e+003;2.901142e-002
3.770311e+003;2.913811e-002
3.772240e+003;3.021179e-002
3.774168e+003;3.034736e-002
3.776097e+003;2.979816e-002
3.778025e+003;2.913718e-002
3.779954e+003;2.922883e-002
3.781883e+003;2.994386e-002
3.783811e+003;3.000113e-002
3.785740e+003;3.060149e-002
3.787668e+003;3.125174e-002
3.789597e+003;3.123589e-002
3.791525e+003;3.143390e-002
3.793454e+003;3.183058e-002
3.795382e+003;3.100755e-002
3.797311e+003;3.043673e-002
3.799240e+003;2.892662e-002
3.801168e+003;2.740378e-002
3.803097e+003;2.940986e-002
3.805025e+003;3.023420e-002
3.806954e+003;2.968299e-002
3.808882e+003;3.100417e-002
3.810811e+003;3.145442e-002
3.812739e+003;3.107876e-002
3.814668e+003;2.920320e-002
3.816596e+003;2.931038e-002
3.818525e+003;3.034430e-002
3.820454e+003;2.905672e-002
3.822382e+003;3.020138e-002
3.824311e+003;3.170482e-002
3.826239e+003;3.196830e-002
3.828168e+003;3.226360e-002
3.830096e+003;3.184153e-002
3.832025e+003;3.140213e-002
3.833953e+003;3.083218e-002
3.835882e+003;2.922184e-002
3.837811e+003;2.822825e-002
3.839739e+003;2.968813e-002
3.841667e+003;3.101452e-002
3.843596e+003;3.142724e-002
3.845525e+003;3.183697e-002
3.847453e+003;3.231100e-002
3.849382e+003;3.125270e-002
3.851310e+003;2.759073e-002
3.853239e+003;2.445860e-002
3.855167e+003;2.740787e-002
3.857096e+003;3.104346e-002
3.859024e+003;3.137802e-002
3.860953e+003;3.089881e-002
3.862882e+003;3.097090e-002
3.864810e+003;3.089532e-002
3.866739e+003;3.113835e-002
3.868667e+003;3.007942e-002
3.870596e+003;3.044629e-002
3.872524e+003;3.173796e-002
3.874453e+003;3.248586e-002
3.876381e+003;3.389437e-002
3.878310e+003;3.363613e-002
3.880239e+003;3.250793e-002
3.882167e+003;3.283583e-002
3.884096e+003;3.233427e-002
3.886024e+003;3.175921e-002
3.887953e+003;3.326534e-002
3.889881e+003;3.320568e-002
3.891810e+003;3.238593e-002
3.893738e+003;3.282968e-002
3.895667e+003;3.310518e-002
3.897595e+003;3.270859e-002
3.899524e+003;3.193339e-002
3.901453e+003;3.097271e-002
3.903381e+003;3.112504e-002
3.905310e+003;3.257596e-002
3.907238e+003;3.369020e-002
3.909167e+003;3.366198e-002
3.911095e+003;3.405866e-002
3.913024e+003;3.422164e-002
3.914952e+003;3.330608e-002
3.916881e+003;3.276422e-002
3.918810e+003;3.316408e-002
3.920738e+003;3.335099e-002
3.922667e+003;3.295427e-002
3.924595e+003;3.311856e-002
3.926524e+003;3.450036e-002
3.928452e+003;3.505841e-002
3.930381e+003;3.405425e-002
3.932309e+003;3.285455e-002
3.934238e+003;3.262400e-002
3.936167e+003;3.330315e-002
3.938095e+003;3.367534e-002
3.940023e+003;3.302541e-002
3.941952e+003;3.220686e-002
3.943881e+003;3.231093e-002
3.945809e+003;3.264907e-002
3.947738e+003;3.272877e-002
3.949666e+003;3.285752e-002
3.951595e+003;3.343994e-002
3.953523e+003;3.348246e-002
3.955452e+003;3.340917e-002
3.957380e+003;3.333467e-002
3.959309e+003;3.320006e-002
3.961238e+003;3.302745e-002
3.963166e+003;3.282332e-002
3.965095e+003;3.270102e-002
3.967023e+003;3.288275e-002
3.968952e+003;3.348951e-002
3.970880e+003;3.364469e-002
3.972809e+003;3.358028e-002
3.974737e+003;3.374065e-002
3.976666e+003;3.384283e-002
3.978594e+003;3.349770e-002
3.980523e+003;3.345461e-002
3.982452e+003;3.346152e-002
3.984380e+003;3.276511e-002
3.986309e+003;3.211701e-002
3.988237e+003;3.228726e-002
3.990166e+003;3.261071e-002
3.992094e+003;3.266050e-002
3.994023e+003;3.288257e-002
3.995951e+003;3.281635e-002
3.997880e+003;3.231135e-002
3.999809e+003;3.222591e-002
4.001737e+003;0.000000e+000
