3.992094e+002;0.000000e+000
4.011380e+002;0.000000e+000
4.030665e+002;0.000000e+000
4.049951e+002;0.000000e+000
4.069236e+002;0.000000e+000
4.088522e+002;0.000000e+000
4.107807e+002;0.000000e+000
4.127093e+002;0.000000e+000
4.146378e+002;0.000000e+000
4.165664e+002;0.000000e+000
4.184949e+002;0.000000e+000
4.204235e+002;0.000000e+000
4.223520e+002;0.000000e+000
4.242806e+002;0.000000e+000
4.262091e+002;0.000000e+000
4.281377e+002;0.000000e+000
4.300662e+002;0.000000e+000
4.319948e+002;0.000000e+000
4.339233e+002;0.000000e+000
4.358519e+002;0.000000e+000
4.377804e+002;0.000000e+000
4.397090e+002;0.000000e+000
4.416375e+002;0.000000e+000
4.435660e+002;0.000000e+000
4.454946e+002;0.000000e+000
4.474232e+002;0.000000e+000
4.493517e+002;0.000000e+000
4.512802e+002;0.000000e+000
4.532088e+002;0.000000e+000
4.551373e+002;0.000000e+000
4.570659e+002;0.000000e+000
4.589944e+002;0.000000e+000
4.609230e+002;0.000000e+000
4.628515e+002;0.000000e+000
4.647801e+002;0.000000e+000
4.667086e+002;0.000000e+000
4.686372e+002;0.000000e+000
4.705657e+002;0.000000e+000
4.724943e+002;0.000000e+000
4.744228e+002;0.000000e+000
4.763513e+002;0.000000e+000
4.782799e+002;0.000000e+000
4.802085e+002;0.000000e+000
4.821370e+002;0.000000e+000
4.840656e+002;0.000000e+000
4.859941e+002;0.000000e+000
4.879226e+002;0.000000e+000
4.898512e+002;0.000000e+000
4.917798e+002;0.000000e+000
4.937083e+002;0.000000e+000
4.956368e+002;0.000000e+000
4.975654e+002;0.000000e+000
4.994939e+002;0.000000e+000
5.014225e+002;0.000000e+000
5.033510e+002;0.000000e+000
5.052796e+002;0.000000e+000
5.072081e+002;0.000000e+000
5.091367e+002;0.000000e+000
5.110652e+002;0.000000e+000
5.129938e+002;0.000000e+000
5.149223e+002;0.000000e+000
5.168509e+002;0.000000e+000
5.187794e+002;0.000000e+000
5.207079e+002;0.000000e+000
5.226365e+002;0.000000e+000
5.245651e+002;0.000000e+000
5.264936e+002;0.000000e+000
5.284222e+002;0.000000e+000
5.303507e+002;0.000000e+000
5.322792e+002;0.000000e+000
5.342078e+002;0.000000e+000
5.361364e+002;0.000000e+000
5.380649e+002;0.000000e+000
5.399935e+002;0.000000e+000
5.419220e+002;0.000000e+000
5.438505e+002;0.000000e+000
5.457791e+002;0.000000e+000
5.477076e+002;0.000000e+000
5.496362e+002;0.000000e+000
5.515648e+002;0.000000e+000
5.534933e+002;0.000000e+000
5.554218e+002;0.000000e+000
5.573504e+002;0.000000e+000
5.592789e+002;0.000000e+000
5.612075e+002;0.000000e+000
5.631360e+002;0.000000e+000
5.650646e+002;0.000000e+000
5.669931e+002;0.000000e+000
5.689217e+002;0.000000e+000
5.708502e+002;0.000000e+000
5.727787e+002;0.000000e+000
5.747073e+002;0.000000e+000
5.766359e+002;0.000000e+000
5.785644e+002;0.000000e+000
5.804930e+002;0.000000e+000
5.824215e+002;0.000000e+000
5.843500e+002;0.000000e+000
5.862786e+002;0.000000e+000
5.882072e+002;0.000000e+000
5.901357e+002;0.000000e+000
5.920643e+002;0.000000e+000
5.939928e+002;0.000000e+000
5.959213e+002;0.000000e+000
5.978499e+002;0.000000e+000
5.997784e+002;3.212297e-002
6.017070e+002;3.182869e-002
6.036355e+002;3.442284e-002
6.055641e+002;3.688481e-002
6.074926e+002;3.717105e-002
6.094211e+002;3.532545e-002
6.113497e+002;3.154887e-002
6.132783e+002;2.679852e-002
6.152068e+002;2.691149e-002
6.171354e+002;2.985683e-002
6.190639e+002;3.041303e-002
6.209924e+002;3.053416e-002
6.229210e+002;2.885749e-002
6.248495e+002;3.023282e-002
6.267781e+002;3.459310e-002
6.287067e+002;3.414690e-002
6.306352e+002;3.096517e-002
6.325637e+002;3.217264e-002
6.344923e+002;3.330673e-002
6.364208e+002;3.270369e-002
6.383494e+002;2.982861e-002
6.402780e+002;2.976378e-002
6.422065e+002;3.363563e-002
6.441350e+002;3.429815e-002
6.460636e+002;3.385920e-002
6.479921e+002;3.103285e-002
6.499207e+002;3.014473e-002
6.518492e+002;2.901156e-002
6.537778e+002;2.863517e-002
6.557063e+002;3.029182e-002
6.576349e+002;3.210560e-002
6.595634e+002;3.290641e-002
6.614919e+002;3.171159e-002
6.634205e+002;3.061578e-002
6.653491e+002;3.066794e-002
6.672776e+002;3.101815e-002
6.692062e+002;3.111058e-002
6.711347e+002;3.150576e-002
6.730632e+002;3.265515e-002
6.749918e+002;3.128674e-002
6.769203e+002;3.090216e-002
6.788489e+002;3.336777e-002
6.807775e+002;3.615495e-002
6.827060e+002;3.757930e-002
6.846345e+002;3.861501e-002
6.865631e+002;3.956437e-002
6.884916e+002;4.154070e-002
6.904202e+002;4.402238e-002
6.923488e+002;4.587675e-002
6.942773e+002;4.804426e-002
6.962058e+002;5.178718e-002
6.981344e+002;5.529651e-002
7.000629e+002;5.888798e-002
7.019915e+002;6.356257e-002
7.039200e+002;7.022096e-002
7.058486e+002;7.959025e-002
7.077771e+002;9.054389e-002
7.097057e+002;1.058757e-001
7.116342e+002;1.319211e-001
7.135627e+002;1.645263e-001
7.154913e+002;1.890352e-001
7.174199e+002;1.900857e-001
7.193484e+002;1.690764e-001
7.212770e+002;1.399128e-001
7.232055e+002;1.157660e-001
7.251340e+002;1.000070e-001
7.270626e+002;9.127676e-002
7.289911e+002;9.024128e-002
7.309197e+002;9.467405e-002
7.328483e+002;9.148926e-002
7.347768e+002;7.452060e-002
7.367053e+002;5.669333e-002
7.386339e+002;4.601340e-002
7.405624e+002;4.118642e-002
7.424910e+002;3.927930e-002
7.444196e+002;3.715337e-002
7.463481e+002;3.557945e-002
7.482766e+002;3.491400e-002
7.502052e+002;3.387636e-002
7.521337e+002;3.186100e-002
7.540623e+002;3.106752e-002
7.559908e+002;3.163642e-002
7.579194e+002;3.027385e-002
7.598479e+002;2.867860e-002
7.617765e+002;2.846196e-002
7.637050e+002;2.874048e-002
7.656335e+002;2.900295e-002
7.675621e+002;2.846210e-002
7.694907e+002;2.781742e-002
7.714192e+002;2.715201e-002
7.733478e+002;2.649835e-002
7.752763e+002;2.681124e-002
7.772048e+002;2.731873e-002
7.791334e+002;2.737431e-002
7.810620e+002;2.740671e-002
7.829905e+002;2.729188e-002
7.849191e+002;2.729188e-002
7.868476e+002;2.686037e-002
7.887761e+002;2.726278e-002
7.907047e+002;2.790939e-002
7.926332e+002;2.820795e-002
7.945618e+002;2.804042e-002
7.964903e+002;2.780944e-002
7.984189e+002;2.810309e-002
8.003474e+002;2.812080e-002
8.022759e+002;2.873120e-002
8.042045e+002;2.937391e-002
8.061331e+002;2.933374e-002
8.080616e+002;2.908808e-002
8.099902e+002;2.980384e-002
8.119187e+002;3.088849e-002
8.138472e+002;3.101449e-002
8.157758e+002;3.065653e-002
8.177043e+002;3.032281e-002
8.196329e+002;3.050874e-002
8.215615e+002;3.098150e-002
8.234900e+002;3.183230e-002
8.254185e+002;3.217885e-002
8.273471e+002;3.202077e-002
8.292756e+002;3.189491e-002
8.312042e+002;3.199334e-002
8.331328e+002;3.197811e-002
8.350613e+002;3.228965e-002
8.369898e+002;3.252735e-002
8.389184e+002;3.254635e-002
8.408469e+002;3.277011e-002
8.427755e+002;3.189377e-002
8.447040e+002;3.083129e-002
8.466326e+002;3.019186e-002
8.485611e+002;2.952046e-002
8.504897e+002;2.977187e-002
8.524182e+002;3.041853e-002
8.543467e+002;3.067395e-002
8.562753e+002;3.026504e-002
8.582039e+002;2.979121e-002
8.601324e+002;2.907330e-002
8.620610e+002;2.824455e-002
8.639895e+002;2.840430e-002
8.659180e+002;2.943234e-002
8.678466e+002;2.984288e-002
8.697751e+002;3.009018e-002
8.717037e+002;3.104008e-002
8.736323e+002;3.152208e-002
8.755608e+002;3.133015e-002
8.774893e+002;3.115131e-002
8.794179e+002;3.056217e-002
8.813464e+002;3.068899e-002
8.832750e+002;3.111115e-002
8.852036e+002;3.119769e-002
8.871321e+002;3.151741e-002
8.890606e+002;3.169947e-002
8.909892e+002;3.134087e-002
8.929177e+002;3.105182e-002
8.948463e+002;3.100552e-002
8.967748e+002;3.171879e-002
8.987034e+002;3.207356e-002
9.006319e+002;3.210542e-002
9.025605e+002;3.211227e-002
9.044890e+002;3.245383e-002
9.064175e+002;3.296818e-002
9.083461e+002;3.344903e-002
9.102747e+002;3.378857e-002
9.122032e+002;3.334294e-002
9.141318e+002;3.218181e-002
9.160603e+002;3.162605e-002
9.179888e+002;3.177033e-002
9.199174e+002;3.198193e-002
9.218459e+002;3.140997e-002
9.237745e+002;3.108004e-002
9.257031e+002;3.114465e-002
9.276316e+002;3.144338e-002
9.295601e+002;3.187754e-002
9.314887e+002;3.193435e-002
9.334172e+002;3.174912e-002
9.353458e+002;3.173814e-002
9.372744e+002;3.142204e-002
9.392029e+002;3.103267e-002
9.411314e+002;3.119456e-002
9.430600e+002;3.168115e-002
9.449885e+002;3.171251e-002
9.469171e+002;3.139088e-002
9.488456e+002;3.117865e-002
9.507742e+002;3.125879e-002
9.527027e+002;3.157395e-002
9.546313e+002;3.144655e-002
9.565598e+002;3.117566e-002
9.584883e+002;3.129863e-002
9.604169e+002;3.115551e-002
9.623455e+002;3.110144e-002
9.642740e+002;3.113287e-002
9.662026e+002;3.129308e-002
9.681311e+002;3.122066e-002
9.700596e+002;3.158389e-002
9.719882e+002;3.185266e-002
9.739167e+002;3.194879e-002
9.758453e+002;3.216218e-002
9.777739e+002;3.203971e-002
9.797024e+002;3.142265e-002
9.816309e+002;3.136837e-002
9.835595e+002;3.145870e-002
9.854880e+002;3.111389e-002
9.874166e+002;3.058723e-002
9.893452e+002;3.001608e-002
9.912737e+002;3.026418e-002
9.932022e+002;3.087220e-002
9.951307e+002;3.074205e-002
9.970593e+002;3.063619e-002
9.989879e+002;3.096339e-002
1.000916e+003;3.156583e-002
1.002845e+003;3.194851e-002
1.004773e+003;3.196855e-002
1.006702e+003;3.210164e-002
1.008631e+003;3.209914e-002
1.010559e+003;3.226881e-002
1.012488e+003;3.280517e-002
1.014416e+003;3.304132e-002
1.016345e+003;3.283704e-002
1.018273e+003;3.290370e-002
1.020202e+003;3.389147e-002
1.022130e+003;3.503140e-002
1.024059e+003;3.636555e-002
1.025988e+003;3.785845e-002
1.027916e+003;3.925490e-002
1.029845e+003;4.033162e-002
1.031773e+003;4.106363e-002
1.033702e+003;4.079683e-002
1.035630e+003;4.018832e-002
1.037559e+003;3.982320e-002
1.039487e+003;3.950918e-002
1.041416e+003;3.865155e-002
1.043344e+003;3.837324e-002
1.045273e+003;3.862080e-002
1.047202e+003;3.905079e-002
1.049130e+003;3.993459e-002
1.051059e+003;4.051931e-002
1.052987e+003;4.127772e-002
1.054916e+003;4.204498e-002
1.056844e+003;4.241173e-002
1.058773e+003;4.319230e-002
1.060701e+003;4.413904e-002
1.062630e+003;4.437374e-002
1.064558e+003;4.479083e-002
1.066487e+003;4.579030e-002
1.068416e+003;4.677210e-002
1.070344e+003;4.750444e-002
1.072273e+003;4.755660e-002
1.074201e+003;4.794568e-002
1.076130e+003;4.829052e-002
1.078058e+003;4.809738e-002
1.079987e+003;4.725471e-002
1.081915e+003;4.534083e-002
1.083844e+003;4.386521e-002
1.085773e+003;4.334113e-002
1.087701e+003;4.280116e-002
1.089630e+003;4.190950e-002
1.091558e+003;4.080604e-002
1.093487e+003;3.936814e-002
1.095415e+003;3.821462e-002
1.097344e+003;3.762764e-002
1.099272e+003;3.754957e-002
1.101201e+003;3.763054e-002
1.103129e+003;3.744463e-002
1.105058e+003;3.706791e-002
1.106987e+003;3.607552e-002
1.108915e+003;3.511750e-002
1.110844e+003;3.481329e-002
1.112772e+003;3.492825e-002
1.114701e+003;3.496568e-002
1.116629e+003;3.477240e-002
1.118558e+003;3.453232e-002
1.120486e+003;3.457606e-002
1.122415e+003;3.434473e-002
1.124344e+003;3.451040e-002
1.126272e+003;3.498859e-002
1.128201e+003;3.499933e-002
1.130129e+003;3.474336e-002
1.132058e+003;3.446668e-002
1.133986e+003;3.431977e-002
1.135915e+003;3.406826e-002
1.137843e+003;3.415274e-002
1.139772e+003;3.448626e-002
1.141700e+003;3.488341e-002
1.143629e+003;3.569232e-002
1.145557e+003;3.673961e-002
1.147486e+003;3.752879e-002
1.149415e+003;3.802467e-002
1.151343e+003;3.780961e-002
1.153272e+003;3.728004e-002
1.155200e+003;3.659511e-002
1.157129e+003;3.582335e-002
1.159057e+003;3.551447e-002
1.160986e+003;3.559178e-002
1.162914e+003;3.562013e-002
1.164843e+003;3.534284e-002
1.166771e+003;3.513094e-002
1.168700e+003;3.504329e-002
1.170629e+003;3.509171e-002
1.172557e+003;3.482348e-002
1.174486e+003;3.484747e-002
1.176414e+003;3.494262e-002
1.178343e+003;3.447406e-002
1.180271e+003;3.392984e-002
1.182200e+003;3.367999e-002
1.184128e+003;3.315300e-002
1.186057e+003;3.239214e-002
1.187986e+003;3.184132e-002
1.189914e+003;3.143672e-002
1.191843e+003;3.119694e-002
1.193771e+003;3.110457e-002
1.195700e+003;3.127289e-002
1.197628e+003;3.097969e-002
1.199557e+003;3.029861e-002
1.201485e+003;2.981062e-002
1.203414e+003;2.974075e-002
1.205343e+003;2.978784e-002
1.207271e+003;2.946936e-002
1.209200e+003;2.946280e-002
1.211128e+003;2.965117e-002
1.213057e+003;2.960274e-002
1.214985e+003;2.935959e-002
1.216914e+003;2.941996e-002
1.218842e+003;2.976041e-002
1.220771e+003;2.979916e-002
1.222699e+003;2.988199e-002
1.224628e+003;2.998423e-002
1.226557e+003;2.968497e-002
1.228485e+003;2.980626e-002
1.230414e+003;3.009000e-002
1.232342e+003;3.030223e-002
1.234271e+003;3.069397e-002
1.236199e+003;3.091269e-002
1.238128e+003;3.054265e-002
1.240056e+003;2.987390e-002
1.241985e+003;2.965276e-002
1.243913e+003;2.997915e-002
1.245842e+003;3.066858e-002
1.247771e+003;3.149386e-002
1.249699e+003;3.168229e-002
1.251628e+003;3.208409e-002
1.253556e+003;3.316523e-002
1.255485e+003;3.371197e-002
1.257413e+003;3.381829e-002
1.259342e+003;3.339542e-002
1.261270e+003;3.285655e-002
1.263199e+003;3.262703e-002
1.265127e+003;3.276676e-002
1.267056e+003;3.328115e-002
1.268985e+003;3.363710e-002
1.270913e+003;3.369757e-002
1.272842e+003;3.355687e-002
1.274770e+003;3.363069e-002
1.276699e+003;3.386808e-002
1.278627e+003;3.352702e-002
1.280556e+003;3.324635e-002
1.282484e+003;3.352702e-002
1.284413e+003;3.388524e-002
1.286342e+003;3.386597e-002
1.288270e+003;3.371995e-002
1.290199e+003;3.390140e-002
1.292127e+003;3.440950e-002
1.294056e+003;3.471845e-002
1.295984e+003;3.501391e-002
1.297913e+003;3.533318e-002
1.299841e+003;3.544554e-002
1.301770e+003;3.534640e-002
1.303698e+003;3.546194e-002
1.305627e+003;3.546528e-002
1.307556e+003;3.476461e-002
1.309484e+003;3.363169e-002
1.311413e+003;3.287732e-002
1.313341e+003;3.229322e-002
1.315270e+003;3.124886e-002
1.317198e+003;3.029492e-002
1.319127e+003;2.937107e-002
1.321055e+003;2.880767e-002
1.322984e+003;2.827216e-002
1.324912e+003;2.769974e-002
1.326841e+003;2.731633e-002
1.328770e+003;2.685403e-002
1.330698e+003;2.675313e-002
1.332627e+003;2.689249e-002
1.334555e+003;2.716337e-002
1.336484e+003;2.715007e-002
1.338412e+003;2.744490e-002
1.340341e+003;2.875074e-002
1.342269e+003;3.024525e-002
1.344198e+003;3.108375e-002
1.346126e+003;3.202262e-002
1.348055e+003;3.281571e-002
1.349984e+003;3.337979e-002
1.351912e+003;3.379652e-002
1.353841e+003;3.388642e-002
1.355769e+003;3.358730e-002
1.357698e+003;3.327972e-002
1.359626e+003;3.317928e-002
1.361555e+003;3.365532e-002
1.363483e+003;3.511811e-002
1.365412e+003;3.709642e-002
1.367341e+003;3.795549e-002
1.369269e+003;3.812765e-002
1.371198e+003;3.724831e-002
1.373126e+003;3.521034e-002
1.375055e+003;3.394729e-002
1.376983e+003;3.373227e-002
1.378912e+003;3.298863e-002
1.380840e+003;3.174150e-002
1.382769e+003;3.085612e-002
1.384698e+003;3.022919e-002
1.386626e+003;2.887392e-002
1.388555e+003;2.855976e-002
1.390483e+003;2.901471e-002
1.392412e+003;2.838573e-002
1.394340e+003;2.728349e-002
1.396269e+003;2.741920e-002
1.398197e+003;2.757014e-002
1.400126e+003;2.840027e-002
1.402054e+003;2.953993e-002
1.403983e+003;2.960274e-002
1.405911e+003;2.976868e-002
1.407840e+003;3.028173e-002
1.409769e+003;3.090422e-002
1.411697e+003;3.174395e-002
1.413626e+003;3.220329e-002
1.415554e+003;3.232724e-002
1.417483e+003;3.148453e-002
1.419411e+003;3.140388e-002
1.421340e+003;3.461958e-002
1.423268e+003;3.751120e-002
1.425197e+003;3.990619e-002
1.427125e+003;4.275951e-002
1.429054e+003;4.555903e-002
1.430983e+003;4.874346e-002
1.432911e+003;5.176041e-002
1.434840e+003;5.273307e-002
1.436768e+003;5.397546e-002
1.438697e+003;5.839652e-002
1.440625e+003;6.153958e-002
1.442554e+003;6.326733e-002
1.444482e+003;6.475233e-002
1.446411e+003;6.613954e-002
1.448340e+003;6.849110e-002
1.450268e+003;7.278763e-002
1.452197e+003;7.840163e-002
1.454125e+003;8.376969e-002
1.456054e+003;8.771190e-002
1.457982e+003;9.981608e-002
1.459911e+003;1.225166e-001
1.461839e+003;1.403025e-001
1.463768e+003;1.425358e-001
1.465697e+003;1.454276e-001
1.467625e+003;1.586533e-001
1.469554e+003;1.799852e-001
1.471482e+003;1.969738e-001
1.473411e+003;1.793156e-001
1.475339e+003;1.313803e-001
1.477268e+003;9.127101e-002
1.479196e+003;7.072950e-002
1.481125e+003;6.010714e-002
1.483053e+003;5.368456e-002
1.484982e+003;4.859547e-002
1.486911e+003;4.420837e-002
1.488839e+003;4.076087e-002
1.490768e+003;3.915386e-002
1.492696e+003;3.884529e-002
1.494625e+003;3.623641e-002
1.496553e+003;3.344334e-002
1.498482e+003;3.369302e-002
1.500410e+003;3.414751e-002
1.502339e+003;3.349126e-002
1.504267e+003;2.908556e-002
1.506196e+003;2.407672e-002
1.508125e+003;2.570729e-002
1.510053e+003;2.900727e-002
1.511982e+003;2.965528e-002
1.513910e+003;2.937455e-002
1.515839e+003;2.817546e-002
1.517767e+003;2.747010e-002
1.519696e+003;2.532954e-002
1.521624e+003;2.377871e-002
1.523553e+003;2.603216e-002
1.525481e+003;2.707710e-002
1.527410e+003;2.783756e-002
1.529339e+003;2.880782e-002
1.531267e+003;2.860495e-002
1.533196e+003;2.756873e-002
1.535124e+003;2.829179e-002
1.537053e+003;2.626062e-002
1.538981e+003;2.114938e-002
1.540910e+003;2.098292e-002
1.542838e+003;2.378623e-002
1.544767e+003;2.566373e-002
1.546695e+003;2.761823e-002
1.548624e+003;2.827425e-002
1.550553e+003;2.794850e-002
1.552481e+003;2.679675e-002
1.554410e+003;2.502396e-002
1.556338e+003;2.243822e-002
1.558267e+003;1.754488e-002
1.560195e+003;1.935992e-002
1.562124e+003;2.561414e-002
1.564052e+003;2.747804e-002
1.565981e+003;2.707198e-002
1.567910e+003;2.563892e-002
1.569838e+003;2.466203e-002
1.571767e+003;2.634289e-002
1.573695e+003;2.554954e-002
1.575624e+003;2.221512e-002
1.577552e+003;2.412092e-002
1.579481e+003;2.743657e-002
1.581409e+003;2.816885e-002
1.583338e+003;2.814279e-002
1.585266e+003;2.783682e-002
1.587195e+003;2.753173e-002
1.589124e+003;2.732703e-002
1.591052e+003;2.731912e-002
1.592981e+003;2.697308e-002
1.594909e+003;2.700403e-002
1.596838e+003;2.731609e-002
1.598766e+003;2.768607e-002
1.600695e+003;2.768091e-002
1.602623e+003;2.761717e-002
1.604552e+003;2.763363e-002
1.606480e+003;2.753237e-002
1.608409e+003;2.765361e-002
1.610338e+003;2.788398e-002
1.612266e+003;2.794172e-002
1.614195e+003;2.666581e-002
1.616123e+003;2.364433e-002
1.618052e+003;2.491026e-002
1.619980e+003;2.725473e-002
1.621909e+003;2.654424e-002
1.623837e+003;2.629962e-002
1.625766e+003;2.718922e-002
1.627694e+003;2.756411e-002
1.629623e+003;2.862402e-002
1.631552e+003;2.902335e-002
1.633480e+003;2.668854e-002
1.635409e+003;2.429970e-002
1.637337e+003;2.663284e-002
1.639266e+003;2.955454e-002
1.641194e+003;3.037493e-002
1.643123e+003;2.986716e-002
1.645051e+003;2.746177e-002
1.646980e+003;2.687951e-002
1.648909e+003;2.877089e-002
1.650837e+003;2.529255e-002
1.652766e+003;1.974093e-002
1.654694e+003;2.407633e-002
1.656623e+003;2.960870e-002
1.658551e+003;3.082617e-002
1.660480e+003;2.983596e-002
1.662408e+003;2.838619e-002
1.664337e+003;2.901761e-002
1.666266e+003;2.933176e-002
1.668194e+003;2.739901e-002
1.670123e+003;2.712252e-002
1.672051e+003;2.833441e-002
1.673980e+003;2.695524e-002
1.675908e+003;2.657866e-002
1.677837e+003;2.889280e-002
1.679765e+003;2.914540e-002
1.681694e+003;2.689178e-002
1.683622e+003;2.248194e-002
1.685551e+003;2.368691e-002
1.687479e+003;2.783943e-002
1.689408e+003;2.876675e-002
1.691337e+003;2.910377e-002
1.693265e+003;2.772626e-002
1.695194e+003;2.388323e-002
1.697122e+003;2.382186e-002
1.699051e+003;2.250163e-002
1.700979e+003;2.205644e-002
1.702908e+003;2.563758e-002
1.704836e+003;2.590325e-002
1.706765e+003;2.618234e-002
1.708693e+003;2.668043e-002
1.710622e+003;2.675820e-002
1.712551e+003;2.565747e-002
1.714479e+003;2.297738e-002
1.716408e+003;1.961237e-002
1.718336e+003;1.973809e-002
1.720265e+003;2.255512e-002
1.722193e+003;2.330508e-002
1.724122e+003;2.320077e-002
1.726050e+003;2.334836e-002
1.727979e+003;2.318340e-002
1.729908e+003;2.256713e-002
1.731836e+003;1.967339e-002
1.733765e+003;1.674359e-002
1.735693e+003;1.996270e-002
1.737622e+003;2.306455e-002
1.739550e+003;2.260469e-002
1.741479e+003;2.288230e-002
1.743407e+003;2.342312e-002
1.745336e+003;2.322143e-002
1.747265e+003;2.195546e-002
1.749193e+003;2.008761e-002
1.751122e+003;1.856835e-002
1.753050e+003;1.905335e-002
1.754979e+003;1.849764e-002
1.756907e+003;1.731665e-002
1.758836e+003;1.690513e-002
1.760764e+003;1.548532e-002
1.762693e+003;1.493138e-002
1.764621e+003;1.522629e-002
1.766550e+003;1.426232e-002
1.768479e+003;1.337480e-002
1.770407e+003;1.215349e-002
1.772336e+003;1.096687e-002
1.774264e+003;1.251128e-002
1.776193e+003;1.381342e-002
1.778121e+003;1.374150e-002
1.780050e+003;1.332460e-002
1.781978e+003;1.315927e-002
1.783907e+003;1.307615e-002
1.785835e+003;1.322055e-002
1.787764e+003;1.342093e-002
1.789693e+003;1.256650e-002
1.791621e+003;1.082659e-002
1.793550e+003;1.113331e-002
1.795478e+003;1.272775e-002
1.797407e+003;1.292180e-002
1.799335e+003;1.243701e-002
1.801264e+003;1.225205e-002
1.803192e+003;1.265618e-002
1.805121e+003;1.302138e-002
1.807049e+003;1.324114e-002
1.808978e+003;1.317365e-002
1.810907e+003;1.318557e-002
1.812835e+003;1.313383e-002
1.814764e+003;1.305252e-002
1.816692e+003;1.325320e-002
1.818621e+003;1.348730e-002
1.820549e+003;1.341980e-002
1.822478e+003;1.299598e-002
1.824406e+003;1.221445e-002
1.826335e+003;1.210262e-002
1.828264e+003;1.159306e-002
1.830192e+003;1.141532e-002
1.832121e+003;1.213656e-002
1.834049e+003;1.216709e-002
1.835978e+003;1.199034e-002
1.837906e+003;1.193121e-002
1.839835e+003;1.178575e-002
1.841763e+003;1.098903e-002
1.843692e+003;9.854694e-003
1.845620e+003;1.059045e-002
1.847549e+003;1.165091e-002
1.849478e+003;1.202808e-002
1.851406e+003;1.227754e-002
1.853335e+003;1.218798e-002
1.855263e+003;1.201647e-002
1.857192e+003;1.199736e-002
1.859120e+003;1.205857e-002
1.861049e+003;1.207329e-002
1.862977e+003;1.231630e-002
1.864906e+003;1.228132e-002
1.866834e+003;1.145515e-002
1.868763e+003;1.111533e-002
1.870692e+003;1.213373e-002
1.872620e+003;1.282988e-002
1.874549e+003;1.303388e-002
1.876477e+003;1.328501e-002
1.878406e+003;1.339957e-002
1.880334e+003;1.356777e-002
1.882263e+003;1.371407e-002
1.884191e+003;1.407048e-002
1.886120e+003;1.489784e-002
1.888048e+003;1.546857e-002
1.889977e+003;1.570204e-002
1.891906e+003;1.665221e-002
1.893834e+003;1.733165e-002
1.895763e+003;1.737696e-002
1.897691e+003;1.738124e-002
1.899620e+003;1.747368e-002
1.901548e+003;1.741190e-002
1.903477e+003;1.729269e-002
1.905405e+003;1.691299e-002
1.907334e+003;1.626337e-002
1.909262e+003;1.580859e-002
1.911191e+003;1.593111e-002
1.913120e+003;1.582027e-002
1.915048e+003;1.522883e-002
1.916977e+003;1.442225e-002
1.918905e+003;1.435920e-002
1.920834e+003;1.454154e-002
1.922762e+003;1.427869e-002
1.924691e+003;1.447870e-002
1.926619e+003;1.465870e-002
1.928548e+003;1.467799e-002
1.930477e+003;1.451841e-002
1.932405e+003;1.451238e-002
1.934334e+003;1.466209e-002
1.936262e+003;1.452756e-002
1.938191e+003;1.429067e-002
1.940119e+003;1.409725e-002
1.942048e+003;1.391393e-002
1.943976e+003;1.381435e-002
1.945905e+003;1.373876e-002
1.947833e+003;1.368244e-002
1.949762e+003;1.397651e-002
1.951691e+003;1.441581e-002
1.953619e+003;1.475861e-002
1.955548e+003;1.461223e-002
1.957476e+003;1.425914e-002
1.959405e+003;1.419166e-002
1.961333e+003;1.429235e-002
1.963262e+003;1.439331e-002
1.965190e+003;1.409653e-002
1.967119e+003;1.393213e-002
1.969047e+003;1.423654e-002
1.970976e+003;1.422336e-002
1.972905e+003;1.401682e-002
1.974833e+003;1.406227e-002
1.976762e+003;1.420918e-002
1.978690e+003;1.406682e-002
1.980619e+003;1.384561e-002
1.982547e+003;1.397370e-002
1.984476e+003;1.407329e-002
1.986404e+003;1.387975e-002
1.988333e+003;1.405577e-002
1.990261e+003;1.430283e-002
1.992190e+003;1.422976e-002
1.994119e+003;1.430718e-002
1.996047e+003;1.437362e-002
1.997976e+003;1.426438e-002
1.999904e+003;1.439886e-002
2.001833e+003;1.477757e-002
2.003761e+003;1.509282e-002
2.005690e+003;1.551887e-002
2.007618e+003;1.601271e-002
2.009547e+003;1.658773e-002
2.011476e+003;1.747054e-002
2.013404e+003;1.837854e-002
2.015333e+003;1.915456e-002
2.017261e+003;1.954624e-002
2.019190e+003;1.976923e-002
2.021118e+003;2.004854e-002
2.023047e+003;2.012262e-002
2.024975e+003;1.960350e-002
2.026904e+003;1.879111e-002
2.028833e+003;1.818944e-002
2.030761e+003;1.781834e-002
2.032690e+003;1.760871e-002
2.034618e+003;1.730100e-002
2.036547e+003;1.708237e-002
2.038475e+003;1.686521e-002
2.040404e+003;1.637759e-002
2.042332e+003;1.617546e-002
2.044261e+003;1.610032e-002
2.046189e+003;1.603922e-002
2.048118e+003;1.583855e-002
2.050047e+003;1.564787e-002
2.051975e+003;1.559910e-002
2.053904e+003;1.567751e-002
2.055832e+003;1.579171e-002
2.057761e+003;1.548618e-002
2.059689e+003;1.518978e-002
2.061618e+003;1.532720e-002
2.063546e+003;1.533609e-002
2.065475e+003;1.526751e-002
2.067404e+003;1.516988e-002
2.069332e+003;1.491680e-002
2.071260e+003;1.498573e-002
2.073189e+003;1.520258e-002
2.075118e+003;1.524760e-002
2.077046e+003;1.543619e-002
2.078975e+003;1.532479e-002
2.080903e+003;1.482477e-002
2.082832e+003;1.465688e-002
2.084760e+003;1.485278e-002
2.086689e+003;1.470987e-002
2.088617e+003;1.449015e-002
2.090546e+003;1.462323e-002
2.092475e+003;1.466716e-002
2.094403e+003;1.442753e-002
2.096332e+003;1.440335e-002
2.098260e+003;1.450087e-002
2.100189e+003;1.467247e-002
2.102117e+003;1.473650e-002
2.104046e+003;1.456439e-002
2.105974e+003;1.459934e-002
2.107903e+003;1.465441e-002
2.109832e+003;1.452567e-002
2.111760e+003;1.445928e-002
2.113688e+003;1.446617e-002
2.115617e+003;1.408968e-002
2.117546e+003;1.376127e-002
2.119474e+003;1.404194e-002
2.121403e+003;1.421172e-002
2.123331e+003;1.443034e-002
2.125260e+003;1.448213e-002
2.127188e+003;1.431636e-002
2.129117e+003;1.436971e-002
2.131045e+003;1.448391e-002
2.132974e+003;1.477462e-002
2.134903e+003;1.522856e-002
2.136831e+003;1.564423e-002
2.138760e+003;1.585639e-002
2.140688e+003;1.590292e-002
2.142617e+003;1.591279e-002
2.144545e+003;1.610290e-002
2.146474e+003;1.636868e-002
2.148402e+003;1.653403e-002
2.150331e+003;1.651001e-002
2.152260e+003;1.634039e-002
2.154188e+003;1.618715e-002
2.156117e+003;1.604455e-002
2.158045e+003;1.589588e-002
2.159974e+003;1.599394e-002
2.161902e+003;1.574203e-002
2.163831e+003;1.554020e-002
2.165759e+003;1.578931e-002
2.167688e+003;1.603774e-002
2.169616e+003;1.588364e-002
2.171545e+003;1.562980e-002
2.173474e+003;1.589594e-002
2.175402e+003;1.614385e-002
2.177331e+003;1.620538e-002
2.179259e+003;1.608914e-002
2.181188e+003;1.599920e-002
2.183116e+003;1.592162e-002
2.185045e+003;1.591382e-002
2.186973e+003;1.603454e-002
2.188902e+003;1.611421e-002
2.190831e+003;1.590371e-002
2.192759e+003;1.566635e-002
2.194688e+003;1.578038e-002
2.196616e+003;1.592313e-002
2.198545e+003;1.592420e-002
2.200473e+003;1.577309e-002
2.202402e+003;1.559178e-002
2.204330e+003;1.604919e-002
2.206259e+003;1.639156e-002
2.208188e+003;1.616596e-002
2.210116e+003;1.574468e-002
2.212044e+003;1.578422e-002
2.213973e+003;1.625429e-002
2.215902e+003;1.632220e-002
2.217830e+003;1.625591e-002
2.219759e+003;1.622471e-002
2.221687e+003;1.637088e-002
2.223616e+003;1.667397e-002
2.225544e+003;1.678981e-002
2.227473e+003;1.661193e-002
2.229401e+003;1.627809e-002
2.231330e+003;1.598445e-002
2.233259e+003;1.564488e-002
2.235187e+003;1.547983e-002
2.237116e+003;1.586171e-002
2.239044e+003;1.612377e-002
2.240973e+003;1.633523e-002
2.242901e+003;1.666719e-002
2.244830e+003;1.690761e-002
2.246758e+003;1.708182e-002
2.248687e+003;1.694017e-002
2.250615e+003;1.699226e-002
2.252544e+003;1.727510e-002
2.254473e+003;1.742625e-002
2.256401e+003;1.754119e-002
2.258330e+003;1.786795e-002
2.260258e+003;1.802628e-002
2.262187e+003;1.805588e-002
2.264115e+003;1.817793e-002
2.266044e+003;1.835331e-002
2.267972e+003;1.861075e-002
2.269901e+003;1.904625e-002
2.271830e+003;1.920145e-002
2.273758e+003;1.952562e-002
2.275687e+003;1.983477e-002
2.277615e+003;1.979749e-002
2.279544e+003;2.009535e-002
2.281472e+003;2.045641e-002
2.283401e+003;2.056983e-002
2.285329e+003;2.074965e-002
2.287258e+003;2.075532e-002
2.289187e+003;2.067862e-002
2.291115e+003;2.067563e-002
2.293043e+003;2.068094e-002
2.294972e+003;2.088233e-002
2.296901e+003;2.104406e-002
2.298829e+003;2.128010e-002
2.300758e+003;2.152598e-002
2.302686e+003;2.149315e-002
2.304615e+003;2.132697e-002
2.306543e+003;2.142450e-002
2.308472e+003;2.178625e-002
2.310400e+003;2.200649e-002
2.312329e+003;2.222063e-002
2.314258e+003;2.235857e-002
2.316186e+003;2.258870e-002
2.318115e+003;2.312385e-002
2.320043e+003;2.347324e-002
2.321972e+003;2.363523e-002
2.323900e+003;2.406618e-002
2.325829e+003;2.433015e-002
2.327757e+003;2.452223e-002
2.329686e+003;2.471380e-002
2.331615e+003;2.454421e-002
2.333543e+003;2.425407e-002
2.335472e+003;2.432307e-002
2.337400e+003;2.458474e-002
2.339329e+003;2.483243e-002
2.341257e+003;2.494752e-002
2.343186e+003;2.514911e-002
2.345114e+003;2.519507e-002
2.347043e+003;2.491966e-002
2.348971e+003;2.444104e-002
2.350900e+003;2.380982e-002
2.352829e+003;2.307122e-002
2.354757e+003;2.221072e-002
2.356686e+003;2.153270e-002
2.358614e+003;2.112660e-002
2.360543e+003;2.030921e-002
2.362471e+003;1.947942e-002
2.364400e+003;1.909767e-002
2.366328e+003;1.922610e-002
2.368257e+003;1.938912e-002
2.370186e+003;1.943292e-002
2.372114e+003;1.947031e-002
2.374042e+003;1.932874e-002
2.375971e+003;1.907953e-002
2.377900e+003;1.922025e-002
2.379828e+003;1.961809e-002
2.381757e+003;1.997762e-002
2.383685e+003;1.987455e-002
2.385614e+003;1.959012e-002
2.387542e+003;1.959126e-002
2.389471e+003;1.981361e-002
2.391399e+003;2.004878e-002
2.393328e+003;2.017632e-002
2.395257e+003;2.020270e-002
2.397185e+003;2.010170e-002
2.399114e+003;2.012773e-002
2.401042e+003;2.036653e-002
2.402971e+003;2.031771e-002
2.404899e+003;2.027286e-002
2.406828e+003;2.034497e-002
2.408756e+003;2.052963e-002
2.410685e+003;2.094290e-002
2.412614e+003;2.117746e-002
2.414542e+003;2.104329e-002
2.416471e+003;2.129715e-002
2.418399e+003;2.181008e-002
2.420328e+003;2.207927e-002
2.422256e+003;2.162846e-002
2.424185e+003;2.116692e-002
2.426113e+003;2.106201e-002
2.428042e+003;2.096898e-002
2.429970e+003;2.072713e-002
2.431899e+003;2.052783e-002
2.433828e+003;2.058820e-002
2.435756e+003;2.055273e-002
2.437685e+003;2.016816e-002
2.439613e+003;1.982006e-002
2.441542e+003;1.980980e-002
2.443470e+003;1.969110e-002
2.445399e+003;1.972391e-002
2.447327e+003;1.994344e-002
2.449256e+003;1.966756e-002
2.451185e+003;1.967942e-002
2.453113e+003;1.986935e-002
2.455042e+003;1.981140e-002
2.456970e+003;1.982960e-002
2.458899e+003;1.995749e-002
2.460827e+003;2.017937e-002
2.462756e+003;2.032820e-002
2.464684e+003;2.033455e-002
2.466613e+003;2.030407e-002
2.468542e+003;2.066020e-002
2.470470e+003;2.134709e-002
2.472398e+003;2.206087e-002
2.474327e+003;2.246540e-002
2.476256e+003;2.256441e-002
2.478184e+003;2.237591e-002
2.480113e+003;2.207227e-002
2.482041e+003;2.192183e-002
2.483970e+003;2.209130e-002
2.485898e+003;2.230737e-002
2.487827e+003;2.215008e-002
2.489755e+003;2.211219e-002
2.491684e+003;2.243767e-002
2.493613e+003;2.249967e-002
2.495541e+003;2.238760e-002
2.497470e+003;2.237759e-002
2.499398e+003;2.247217e-002
2.501327e+003;2.264221e-002
2.503255e+003;2.259722e-002
2.505184e+003;2.265809e-002
2.507112e+003;2.275141e-002
2.509041e+003;2.292100e-002
2.510969e+003;2.308719e-002
2.512898e+003;2.308684e-002
2.514827e+003;2.342410e-002
2.516755e+003;2.371309e-002
2.518684e+003;2.395023e-002
2.520612e+003;2.427261e-002
2.522541e+003;2.476971e-002
2.524469e+003;2.504088e-002
2.526398e+003;2.522541e-002
2.528326e+003;2.540218e-002
2.530255e+003;2.557175e-002
2.532184e+003;2.554223e-002
2.534112e+003;2.533966e-002
2.536041e+003;2.511081e-002
2.537969e+003;2.480366e-002
2.539898e+003;2.494198e-002
2.541826e+003;2.515002e-002
2.543755e+003;2.516642e-002
2.545683e+003;2.576118e-002
2.547612e+003;2.622342e-002
2.549541e+003;2.612833e-002
2.551469e+003;2.646715e-002
2.553397e+003;2.693525e-002
2.555326e+003;2.689636e-002
2.557255e+003;2.685103e-002
2.559183e+003;2.699081e-002
2.561112e+003;2.711638e-002
2.563040e+003;2.731214e-002
2.564969e+003;2.748524e-002
2.566897e+003;2.748969e-002
2.568826e+003;2.783551e-002
2.570754e+003;2.840016e-002
2.572683e+003;2.872649e-002
2.574612e+003;2.884850e-002
2.576540e+003;2.902902e-002
2.578469e+003;2.938189e-002
2.580397e+003;2.976616e-002
2.582326e+003;2.993073e-002
2.584254e+003;3.017495e-002
2.586183e+003;3.052040e-002
2.588111e+003;3.093870e-002
2.590040e+003;3.150038e-002
2.591969e+003;3.184078e-002
2.593897e+003;3.206421e-002
2.595826e+003;3.257132e-002
2.597754e+003;3.312195e-002
2.599683e+003;3.364701e-002
2.601611e+003;3.413582e-002
2.603540e+003;3.438479e-002
2.605468e+003;3.452189e-002
2.607397e+003;3.505651e-002
2.609325e+003;3.589597e-002
2.611254e+003;3.671470e-002
2.613183e+003;3.722109e-002
2.615111e+003;3.743441e-002
2.617040e+003;3.795516e-002
2.618968e+003;3.888750e-002
2.620897e+003;3.978648e-002
2.622825e+003;4.040650e-002
2.624754e+003;4.099779e-002
2.626682e+003;4.167402e-002
2.628611e+003;4.220799e-002
2.630540e+003;4.255335e-002
2.632468e+003;4.308215e-002
2.634396e+003;4.349215e-002
2.636325e+003;4.336951e-002
2.638254e+003;4.296427e-002
2.640182e+003;4.300725e-002
2.642111e+003;4.297689e-002
2.644039e+003;4.255119e-002
2.645968e+003;4.227968e-002
2.647896e+003;4.221676e-002
2.649825e+003;4.205790e-002
2.651753e+003;4.191049e-002
2.653682e+003;4.216213e-002
2.655611e+003;4.233702e-002
2.657539e+003;4.235488e-002
2.659468e+003;4.242170e-002
2.661396e+003;4.258990e-002
2.663325e+003;4.251125e-002
2.665253e+003;4.219952e-002
2.667182e+003;4.192614e-002
2.669110e+003;4.137225e-002
2.671039e+003;4.085878e-002
2.672968e+003;4.071785e-002
2.674896e+003;4.076502e-002
2.676825e+003;4.053768e-002
2.678753e+003;3.993971e-002
2.680682e+003;3.956674e-002
2.682610e+003;3.935229e-002
2.684539e+003;3.960677e-002
2.686467e+003;3.974135e-002
2.688396e+003;3.912620e-002
2.690324e+003;3.863891e-002
2.692253e+003;3.884543e-002
2.694182e+003;3.921504e-002
2.696110e+003;3.933992e-002
2.698039e+003;3.960662e-002
2.699967e+003;3.980754e-002
2.701896e+003;4.018229e-002
2.703824e+003;4.090735e-002
2.705753e+003;4.100747e-002
2.707681e+003;4.106305e-002
2.709610e+003;4.155583e-002
2.711539e+003;4.186006e-002
2.713467e+003;4.221807e-002
2.715396e+003;4.264669e-002
2.717324e+003;4.300923e-002
2.719253e+003;4.309990e-002
2.721181e+003;4.349679e-002
2.723110e+003;4.389655e-002
2.725038e+003;4.434706e-002
2.726967e+003;4.475002e-002
2.728896e+003;4.513601e-002
2.730824e+003;4.606969e-002
2.732752e+003;4.671092e-002
2.734681e+003;4.705988e-002
2.736610e+003;4.742852e-002
2.738538e+003;4.760344e-002
2.740467e+003;4.779093e-002
2.742395e+003;4.800881e-002
2.744324e+003;4.792773e-002
2.746252e+003;4.781494e-002
2.748181e+003;4.776837e-002
2.750109e+003;4.819755e-002
2.752038e+003;4.859050e-002
2.753967e+003;4.880934e-002
2.755895e+003;4.912452e-002
2.757824e+003;4.997797e-002
2.759752e+003;5.089586e-002
2.761681e+003;5.153837e-002
2.763609e+003;5.190176e-002
2.765538e+003;5.262059e-002
2.767466e+003;5.341450e-002
2.769395e+003;5.405065e-002
2.771323e+003;5.474851e-002
2.773252e+003;5.574944e-002
2.775181e+003;5.690775e-002
2.777109e+003;5.783615e-002
2.779038e+003;5.884351e-002
2.780966e+003;6.004436e-002
2.782895e+003;6.128604e-002
2.784823e+003;6.217946e-002
2.786752e+003;6.292303e-002
2.788680e+003;6.387594e-002
2.790609e+003;6.501798e-002
2.792538e+003;6.603298e-002
2.794466e+003;6.705298e-002
2.796395e+003;6.826402e-002
2.798323e+003;6.958730e-002
2.800252e+003;7.076237e-002
2.802180e+003;7.196896e-002
2.804109e+003;7.338466e-002
2.806037e+003;7.475534e-002
2.807966e+003;7.607532e-002
2.809895e+003;7.771673e-002
2.811823e+003;7.956477e-002
2.813751e+003;8.111281e-002
2.815680e+003;8.233223e-002
2.817609e+003;8.408123e-002
2.819537e+003;8.656371e-002
2.821466e+003;8.940820e-002
2.823394e+003;9.246869e-002
2.825323e+003;9.583589e-002
2.827251e+003;9.966601e-002
2.829180e+003;1.038767e-001
2.831108e+003;1.092926e-001
2.833037e+003;1.156506e-001
2.834966e+003;1.237394e-001
2.836894e+003;1.347672e-001
2.838823e+003;1.490400e-001
2.840751e+003;1.676241e-001
2.842680e+003;1.927737e-001
2.844608e+003;2.256755e-001
2.846537e+003;2.638208e-001
2.848465e+003;2.922081e-001
2.850394e+003;2.878358e-001
2.852323e+003;2.515543e-001
2.854251e+003;2.073034e-001
2.856180e+003;1.709941e-001
2.858108e+003;1.453834e-001
2.860037e+003;1.287640e-001
2.861965e+003;1.180315e-001
2.863894e+003;1.111992e-001
2.865822e+003;1.075881e-001
2.867751e+003;1.065784e-001
2.869679e+003;1.072659e-001
2.871608e+003;1.091603e-001
2.873536e+003;1.125125e-001
2.875465e+003;1.170377e-001
2.877394e+003;1.226580e-001
2.879322e+003;1.289106e-001
2.881251e+003;1.346508e-001
2.883179e+003;1.402249e-001
2.885108e+003;1.461216e-001
2.887036e+003;1.519464e-001
2.888965e+003;1.578995e-001
2.890893e+003;1.641862e-001
2.892822e+003;1.703467e-001
2.894750e+003;1.764100e-001
2.896679e+003;1.826866e-001
2.898608e+003;1.894353e-001
2.900536e+003;1.966722e-001
2.902465e+003;2.053843e-001
2.904393e+003;2.159918e-001
2.906322e+003;2.286358e-001
2.908250e+003;2.448183e-001
2.910179e+003;2.655427e-001
2.912107e+003;2.900231e-001
2.914036e+003;3.139639e-001
2.915965e+003;3.284549e-001
2.917893e+003;3.255256e-001
2.919822e+003;3.049774e-001
2.921750e+003;2.752319e-001
2.923679e+003;2.432042e-001
2.925607e+003;2.135000e-001
2.927536e+003;1.878293e-001
2.929464e+003;1.654307e-001
2.931393e+003;1.475878e-001
2.933322e+003;1.328050e-001
2.935250e+003;1.195990e-001
2.937178e+003;1.088729e-001
2.939107e+003;9.993310e-002
2.941036e+003;9.232617e-002
2.942964e+003;8.649954e-002
2.944893e+003;8.173349e-002
2.946821e+003;7.749198e-002
2.948750e+003;7.392977e-002
2.950678e+003;7.109788e-002
2.952607e+003;6.822273e-002
2.954535e+003;6.606982e-002
2.956464e+003;6.481221e-002
2.958393e+003;6.386282e-002
2.960321e+003;6.289710e-002
2.962250e+003;6.142125e-002
2.964178e+003;5.981990e-002
2.966107e+003;5.893397e-002
2.968035e+003;5.814984e-002
2.969964e+003;5.718929e-002
2.971892e+003;5.617384e-002
2.973821e+003;5.535997e-002
2.975750e+003;5.470491e-002
2.977678e+003;5.355567e-002
2.979607e+003;5.238648e-002
2.981535e+003;5.140012e-002
2.983464e+003;5.030508e-002
2.985392e+003;4.941231e-002
2.987321e+003;4.869394e-002
2.989249e+003;4.780047e-002
2.991178e+003;4.679520e-002
2.993106e+003;4.594515e-002
2.995035e+003;4.556377e-002
2.996964e+003;4.522168e-002
2.998892e+003;4.478400e-002
3.000821e+003;4.416937e-002
3.002749e+003;4.356316e-002
3.004678e+003;4.293915e-002
3.006606e+003;4.248757e-002
3.008535e+003;4.246579e-002
3.010463e+003;4.231521e-002
3.012392e+003;4.160564e-002
3.014321e+003;4.106716e-002
3.016249e+003;4.099932e-002
3.018177e+003;4.055405e-002
3.020106e+003;4.010506e-002
3.022035e+003;3.975776e-002
3.023963e+003;3.937881e-002
3.025892e+003;3.918128e-002
3.027820e+003;3.902817e-002
3.029749e+003;3.878029e-002
3.031677e+003;3.826571e-002
3.033606e+003;3.770877e-002
3.035534e+003;3.746410e-002
3.037463e+003;3.726101e-002
3.039392e+003;3.705614e-002
3.041320e+003;3.675324e-002
3.043249e+003;3.659717e-002
3.045177e+003;3.637777e-002
3.047106e+003;3.561541e-002
3.049034e+003;3.531948e-002
3.050963e+003;3.570897e-002
3.052891e+003;3.559797e-002
3.054820e+003;3.492047e-002
3.056749e+003;3.424777e-002
3.058677e+003;3.386318e-002
3.060606e+003;3.363828e-002
3.062534e+003;3.353171e-002
3.064463e+003;3.364998e-002
3.066391e+003;3.365510e-002
3.068320e+003;3.316909e-002
3.070248e+003;3.248407e-002
3.072177e+003;3.185772e-002
3.074105e+003;3.163410e-002
3.076034e+003;3.209108e-002
3.077963e+003;3.212215e-002
3.079891e+003;3.145955e-002
3.081820e+003;3.097460e-002
3.083748e+003;3.091770e-002
3.085677e+003;3.104392e-002
3.087605e+003;3.130822e-002
3.089534e+003;3.098211e-002
3.091462e+003;3.006614e-002
3.093391e+003;2.966975e-002
3.095320e+003;2.907592e-002
3.097248e+003;2.872855e-002
3.099177e+003;2.847293e-002
3.101105e+003;2.820236e-002
3.103034e+003;2.806919e-002
3.104962e+003;2.759680e-002
3.106891e+003;2.705418e-002
3.108819e+003;2.666451e-002
3.110748e+003;2.631733e-002
3.112677e+003;2.555938e-002
3.114605e+003;2.461714e-002
3.116533e+003;2.416523e-002
3.118462e+003;2.381283e-002
3.120391e+003;2.333665e-002
3.122319e+003;2.305173e-002
3.124248e+003;2.267544e-002
3.126176e+003;2.244293e-002
3.128105e+003;2.234235e-002
3.130033e+003;2.202026e-002
3.131962e+003;2.161241e-002
3.133890e+003;2.148420e-002
3.135819e+003;2.127526e-002
3.137748e+003;2.118623e-002
3.139676e+003;2.087180e-002
3.141605e+003;2.069665e-002
3.143533e+003;2.065815e-002
3.145462e+003;2.083745e-002
3.147390e+003;2.081527e-002
3.149319e+003;2.030428e-002
3.151247e+003;1.997127e-002
3.153176e+003;2.003355e-002
3.155104e+003;2.031952e-002
3.157033e+003;2.015341e-002
3.158962e+003;1.993932e-002
3.160890e+003;1.990220e-002
3.162819e+003;1.981074e-002
3.164747e+003;1.953764e-002
3.166676e+003;1.935080e-002
3.168604e+003;1.948250e-002
3.170533e+003;1.944771e-002
3.172461e+003;1.921772e-002
3.174390e+003;1.923189e-002
3.176319e+003;1.944345e-002
3.178247e+003;1.935829e-002
3.180176e+003;1.922614e-002
3.182104e+003;1.911924e-002
3.184033e+003;1.914240e-002
3.185961e+003;1.911127e-002
3.187890e+003;1.902559e-002
3.189818e+003;1.936116e-002
3.191747e+003;1.956967e-002
3.193676e+003;1.944401e-002
3.195604e+003;1.938663e-002
3.197532e+003;1.957927e-002
3.199461e+003;1.989096e-002
3.201390e+003;1.985610e-002
3.203318e+003;1.940173e-002
3.205247e+003;1.904940e-002
3.207175e+003;1.929275e-002
3.209104e+003;1.948573e-002
3.211032e+003;1.932946e-002
3.212961e+003;1.913624e-002
3.214889e+003;1.923837e-002
3.216818e+003;1.942017e-002
3.218747e+003;1.955827e-002
3.220675e+003;1.974110e-002
3.222604e+003;1.940076e-002
3.224532e+003;1.922766e-002
3.226461e+003;1.926365e-002
3.228389e+003;1.921637e-002
3.230318e+003;1.963161e-002
3.232246e+003;1.979055e-002
3.234175e+003;1.943652e-002
3.236104e+003;1.956856e-002
3.238032e+003;1.931239e-002
3.239961e+003;1.869781e-002
3.241889e+003;1.876312e-002
3.243818e+003;1.920086e-002
3.245746e+003;1.924197e-002
3.247675e+003;1.914628e-002
3.249603e+003;1.930141e-002
3.251532e+003;1.932365e-002
3.253460e+003;1.900433e-002
3.255389e+003;1.901929e-002
3.257318e+003;1.901039e-002
3.259246e+003;1.900142e-002
3.261175e+003;1.909850e-002
3.263103e+003;1.905477e-002
3.265032e+003;1.894282e-002
3.266960e+003;1.907350e-002
3.268889e+003;1.963702e-002
3.270817e+003;1.975206e-002
3.272746e+003;1.969124e-002
3.274675e+003;1.978847e-002
3.276603e+003;1.971739e-002
3.278531e+003;1.958516e-002
3.280460e+003;1.960943e-002
3.282389e+003;1.971825e-002
3.284317e+003;1.965723e-002
3.286246e+003;1.953910e-002
3.288174e+003;1.970085e-002
3.290103e+003;1.939744e-002
3.292031e+003;1.912163e-002
3.293960e+003;1.898727e-002
3.295888e+003;1.856908e-002
3.297817e+003;1.876817e-002
3.299746e+003;1.945645e-002
3.301674e+003;1.968545e-002
3.303603e+003;1.963702e-002
3.305531e+003;1.969263e-002
3.307460e+003;1.983331e-002
3.309388e+003;1.972827e-002
3.311317e+003;1.952603e-002
3.313245e+003;1.958641e-002
3.315174e+003;1.988707e-002
3.317103e+003;2.000912e-002
3.319031e+003;1.979860e-002
3.320960e+003;1.968767e-002
3.322888e+003;1.974648e-002
3.324817e+003;1.957199e-002
3.326745e+003;1.938354e-002
3.328674e+003;1.939858e-002
3.330602e+003;1.956163e-002
3.332531e+003;1.946043e-002
3.334459e+003;1.938095e-002
3.336388e+003;1.951130e-002
3.338317e+003;1.933961e-002
3.340245e+003;1.933944e-002
3.342174e+003;1.949647e-002
3.344102e+003;1.948316e-002
3.346031e+003;1.963199e-002
3.347959e+003;1.970057e-002
3.349888e+003;1.947006e-002
3.351816e+003;1.974818e-002
3.353745e+003;1.948961e-002
3.355674e+003;1.928845e-002
3.357602e+003;1.964732e-002
3.359531e+003;1.975196e-002
3.361459e+003;1.961362e-002
3.363388e+003;1.958804e-002
3.365316e+003;1.947599e-002
3.367245e+003;1.942145e-002
3.369173e+003;1.965890e-002
3.371102e+003;1.995149e-002
3.373031e+003;1.986155e-002
3.374959e+003;1.927841e-002
3.376887e+003;1.931772e-002
3.378816e+003;1.982398e-002
3.380745e+003;1.981153e-002
3.382673e+003;1.930906e-002
3.384602e+003;1.881077e-002
3.386530e+003;1.868588e-002
3.388459e+003;1.863531e-002
3.390387e+003;1.875070e-002
3.392316e+003;1.880904e-002
3.394244e+003;1.840485e-002
3.396173e+003;1.805516e-002
3.398102e+003;1.828284e-002
3.400030e+003;1.850476e-002
3.401959e+003;1.780712e-002
3.403887e+003;1.764428e-002
3.405816e+003;1.830865e-002
3.407744e+003;1.859785e-002
3.409673e+003;1.820606e-002
3.411601e+003;1.846614e-002
3.413530e+003;1.869138e-002
3.415458e+003;1.780812e-002
3.417387e+003;1.778475e-002
3.419316e+003;1.885001e-002
3.421244e+003;1.891562e-002
3.423173e+003;1.844208e-002
3.425101e+003;1.821483e-002
3.427030e+003;1.783826e-002
3.428958e+003;1.799016e-002
3.430887e+003;1.824800e-002
3.432815e+003;1.791470e-002
3.434744e+003;1.749817e-002
3.436673e+003;1.736510e-002
3.438601e+003;1.771520e-002
3.440530e+003;1.818097e-002
3.442458e+003;1.788577e-002
3.444387e+003;1.719474e-002
3.446315e+003;1.721074e-002
3.448244e+003;1.747468e-002
3.450172e+003;1.731724e-002
3.452101e+003;1.698413e-002
3.454030e+003;1.701804e-002
3.455958e+003;1.741097e-002
3.457886e+003;1.740459e-002
3.459815e+003;1.719029e-002
3.461744e+003;1.693555e-002
3.463672e+003;1.679594e-002
3.465601e+003;1.679271e-002
3.467529e+003;1.692601e-002
3.469458e+003;1.679498e-002
3.471386e+003;1.676078e-002
3.473315e+003;1.682139e-002
3.475243e+003;1.672479e-002
3.477172e+003;1.688071e-002
3.479101e+003;1.663176e-002
3.481029e+003;1.607924e-002
3.482958e+003;1.595964e-002
3.484886e+003;1.601357e-002
3.486815e+003;1.590900e-002
3.488743e+003;1.634838e-002
3.490672e+003;1.662529e-002
3.492600e+003;1.622904e-002
3.494529e+003;1.612494e-002
3.496458e+003;1.612927e-002
3.498386e+003;1.607876e-002
3.500315e+003;1.617896e-002
3.502243e+003;1.602265e-002
3.504172e+003;1.560875e-002
3.506100e+003;1.560243e-002
3.508029e+003;1.595376e-002
3.509957e+003;1.637852e-002
3.511886e+003;1.624703e-002
3.513814e+003;1.604541e-002
3.515743e+003;1.621590e-002
3.517672e+003;1.645752e-002
3.519600e+003;1.634545e-002
3.521529e+003;1.550119e-002
3.523457e+003;1.520986e-002
3.525386e+003;1.588801e-002
3.527314e+003;1.606507e-002
3.529243e+003;1.551478e-002
3.531171e+003;1.543537e-002
3.533100e+003;1.570122e-002
3.535029e+003;1.508703e-002
3.536957e+003;1.494129e-002
3.538885e+003;1.525955e-002
3.540814e+003;1.559769e-002
3.542743e+003;1.544948e-002
3.544671e+003;1.531439e-002
3.546600e+003;1.535067e-002
3.548528e+003;1.557866e-002
3.550457e+003;1.545167e-002
3.552385e+003;1.530880e-002
3.554314e+003;1.549974e-002
3.556242e+003;1.570324e-002
3.558171e+003;1.574859e-002
3.560100e+003;1.560559e-002
3.562028e+003;1.546918e-002
3.563957e+003;1.525845e-002
3.565885e+003;1.474346e-002
3.567814e+003;1.472090e-002
3.569742e+003;1.543506e-002
3.571671e+003;1.610011e-002
3.573599e+003;1.644579e-002
3.575528e+003;1.650977e-002
3.577457e+003;1.662601e-002
3.579385e+003;1.671161e-002
3.581314e+003;1.711567e-002
3.583242e+003;1.737058e-002
3.585171e+003;1.614743e-002
3.587099e+003;1.528498e-002
3.589028e+003;1.638636e-002
3.590956e+003;1.751838e-002
3.592885e+003;1.781862e-002
3.594813e+003;1.820001e-002
3.596742e+003;1.884329e-002
3.598671e+003;1.967356e-002
3.600599e+003;2.028261e-002
3.602528e+003;2.125007e-002
3.604456e+003;2.165974e-002
3.606385e+003;2.103550e-002
3.608313e+003;1.980952e-002
3.610242e+003;1.972706e-002
3.612170e+003;1.980782e-002
3.614099e+003;1.998070e-002
3.616028e+003;1.948046e-002
3.617956e+003;1.816114e-002
3.619885e+003;1.809675e-002
3.621813e+003;1.930868e-002
3.623742e+003;1.948465e-002
3.625670e+003;1.783698e-002
3.627599e+003;1.465647e-002
3.629527e+003;1.406487e-002
3.631456e+003;1.645749e-002
3.633385e+003;1.807668e-002
3.635313e+003;1.860276e-002
3.637241e+003;1.869131e-002
3.639170e+003;1.892988e-002
3.641099e+003;1.925156e-002
3.643027e+003;1.963591e-002
3.644956e+003;1.847613e-002
3.646884e+003;1.559570e-002
3.648813e+003;1.418453e-002
3.650741e+003;1.596032e-002
3.652670e+003;1.854211e-002
3.654598e+003;1.792209e-002
3.656527e+003;1.737396e-002
3.658456e+003;1.894909e-002
3.660384e+003;1.956475e-002
3.662313e+003;1.926216e-002
3.664241e+003;1.897525e-002
3.666170e+003;1.822395e-002
3.668098e+003;1.586828e-002
3.670027e+003;1.456562e-002
3.671955e+003;1.588639e-002
3.673884e+003;1.421230e-002
3.675813e+003;1.339458e-002
3.677741e+003;1.657410e-002
3.679669e+003;1.786381e-002
3.681598e+003;1.846683e-002
3.683527e+003;1.861148e-002
3.685455e+003;1.753794e-002
3.687384e+003;1.507341e-002
3.689312e+003;1.464814e-002
3.691241e+003;1.630417e-002
3.693169e+003;1.803827e-002
3.695098e+003;1.872912e-002
3.697026e+003;1.854307e-002
3.698955e+003;1.800086e-002
3.700884e+003;1.760105e-002
3.702812e+003;1.810193e-002
3.704741e+003;1.805965e-002
3.706669e+003;1.710188e-002
3.708598e+003;1.599068e-002
3.710526e+003;1.457947e-002
3.712455e+003;1.478250e-002
3.714383e+003;1.653582e-002
3.716312e+003;1.731255e-002
3.718240e+003;1.681637e-002
3.720169e+003;1.601821e-002
3.722098e+003;1.618701e-002
3.724026e+003;1.644730e-002
3.725955e+003;1.623293e-002
3.727883e+003;1.648027e-002
3.729812e+003;1.613278e-002
3.731740e+003;1.449313e-002
3.733669e+003;1.348505e-002
3.735597e+003;1.299369e-002
3.737526e+003;1.432677e-002
3.739455e+003;1.574725e-002
3.741383e+003;1.481497e-002
3.743312e+003;1.001135e-002
3.745240e+003;1.008032e-002
3.747169e+003;1.256756e-002
3.749097e+003;1.094577e-002
3.751026e+003;1.082502e-002
3.752954e+003;1.328026e-002
3.754883e+003;1.551530e-002
3.756812e+003;1.538222e-002
3.758740e+003;1.550651e-002
3.760668e+003;1.632890e-002
3.762597e+003;1.746750e-002
3.764526e+003;1.719664e-002
3.766454e+003;1.713804e-002
3.768383e+003;1.636740e-002
3.770311e+003;1.606346e-002
3.772240e+003;1.729303e-002
3.774168e+003;1.788346e-002
3.776097e+003;1.754650e-002
3.778025e+003;1.685436e-002
3.779954e+003;1.669924e-002
3.781883e+003;1.718964e-002
3.783811e+003;1.763925e-002
3.785740e+003;1.850621e-002
3.787668e+003;1.876489e-002
3.789597e+003;1.882101e-002
3.791525e+003;1.890309e-002
3.793454e+003;1.856835e-002
3.795382e+003;1.764432e-002
3.797311e+003;1.761678e-002
3.799240e+003;1.585556e-002
3.801168e+003;1.405156e-002
3.803097e+003;1.645935e-002
3.805025e+003;1.724004e-002
3.806954e+003;1.651018e-002
3.808882e+003;1.842711e-002
3.810811e+003;1.902299e-002
3.812739e+003;1.854207e-002
3.814668e+003;1.622897e-002
3.816596e+003;1.599243e-002
3.818525e+003;1.718909e-002
3.820454e+003;1.625374e-002
3.822382e+003;1.793936e-002
3.824311e+003;1.975730e-002
3.826239e+003;1.941684e-002
3.828168e+003;1.929811e-002
3.830096e+003;1.923843e-002
3.832025e+003;1.856247e-002
3.833953e+003;1.767544e-002
3.835882e+003;1.566491e-002
3.837811e+003;1.454048e-002
3.839739e+003;1.686410e-002
3.841667e+003;1.855767e-002
3.843596e+003;1.915805e-002
3.845525e+003;1.952056e-002
3.847453e+003;1.960839e-002
3.849382e+003;1.800556e-002
3.851310e+003;1.360558e-002
3.853239e+003;1.043590e-002
3.855167e+003;1.436649e-002
3.857096e+003;1.862804e-002
3.859024e+003;1.928828e-002
3.860953e+003;1.886419e-002
3.862882e+003;1.839538e-002
3.864810e+003;1.808728e-002
3.866739e+003;1.825861e-002
3.868667e+003;1.659035e-002
3.870596e+003;1.753218e-002
3.872524e+003;1.958908e-002
3.874453e+003;2.009018e-002
3.876381e+003;2.119562e-002
3.878310e+003;2.069356e-002
3.880239e+003;2.019839e-002
3.882167e+003;2.044429e-002
3.884096e+003;1.917925e-002
3.886024e+003;1.879796e-002
3.887953e+003;2.067083e-002
3.889881e+003;2.056211e-002
3.891810e+003;2.022561e-002
3.893738e+003;2.098278e-002
3.895667e+003;2.109456e-002
3.897595e+003;2.015081e-002
3.899524e+003;1.922964e-002
3.901453e+003;1.883689e-002
3.903381e+003;1.872033e-002
3.905310e+003;2.014046e-002
3.907238e+003;2.145663e-002
3.909167e+003;2.157483e-002
3.911095e+003;2.178448e-002
3.913024e+003;2.184054e-002
3.914952e+003;2.100966e-002
3.916881e+003;2.028567e-002
3.918810e+003;2.072056e-002
3.920738e+003;2.142300e-002
3.922667e+003;2.151125e-002
3.924595e+003;2.120115e-002
3.926524e+003;2.171149e-002
3.928452e+003;2.182789e-002
3.930381e+003;2.117408e-002
3.932309e+003;2.077909e-002
3.934238e+003;2.058966e-002
3.936167e+003;2.090736e-002
3.938095e+003;2.186214e-002
3.940023e+003;2.139843e-002
3.941952e+003;2.077200e-002
3.943881e+003;2.086783e-002
3.945809e+003;2.087826e-002
3.947738e+003;2.062271e-002
3.949666e+003;2.015966e-002
3.951595e+003;2.041376e-002
3.953523e+003;2.068171e-002
3.955452e+003;2.103575e-002
3.957380e+003;2.097433e-002
3.959309e+003;2.066433e-002
3.961238e+003;2.060780e-002
3.963166e+003;2.022214e-002
3.965095e+003;2.051073e-002
3.967023e+003;2.101112e-002
3.968952e+003;2.126708e-002
3.970880e+003;2.127450e-002
3.972809e+003;2.082501e-002
3.974737e+003;2.085643e-002
3.976666e+003;2.157518e-002
3.978594e+003;2.170467e-002
3.980523e+003;2.148612e-002
3.982452e+003;2.104973e-002
3.984380e+003;2.084131e-002
3.986309e+003;2.065947e-002
3.988237e+003;2.086735e-002
3.990166e+003;2.079327e-002
3.992094e+003;2.008015e-002
3.994023e+003;2.027129e-002
3.995951e+003;2.050101e-002
3.997880e+003;2.047010e-002
3.999809e+003;2.084670e-002
4.001737e+003;0.000000e+000
