3.992094e+002;0.000000e+000
4.011380e+002;0.000000e+000
4.030665e+002;0.000000e+000
4.049951e+002;0.000000e+000
4.069236e+002;0.000000e+000
4.088522e+002;0.000000e+000
4.107807e+002;0.000000e+000
4.127093e+002;0.000000e+000
4.146378e+002;0.000000e+000
4.165664e+002;0.000000e+000
4.184949e+002;0.000000e+000
4.204235e+002;0.000000e+000
4.223520e+002;0.000000e+000
4.242806e+002;0.000000e+000
4.262091e+002;0.000000e+000
4.281377e+002;0.000000e+000
4.300662e+002;0.000000e+000
4.319948e+002;0.000000e+000
4.339233e+002;0.000000e+000
4.358519e+002;0.000000e+000
4.377804e+002;0.000000e+000
4.397090e+002;0.000000e+000
4.416375e+002;0.000000e+000
4.435660e+002;0.000000e+000
4.454946e+002;0.000000e+000
4.474232e+002;0.000000e+000
4.493517e+002;0.000000e+000
4.512802e+002;0.000000e+000
4.532088e+002;0.000000e+000
4.551373e+002;0.000000e+000
4.570659e+002;0.000000e+000
4.589944e+002;0.000000e+000
4.609230e+002;0.000000e+000
4.628515e+002;0.000000e+000
4.647801e+002;0.000000e+000
4.667086e+002;0.000000e+000
4.686372e+002;0.000000e+000
4.705657e+002;0.000000e+000
4.724943e+002;0.000000e+000
4.744228e+002;0.000000e+000
4.763513e+002;0.000000e+000
4.782799e+002;0.000000e+000
4.802085e+002;0.000000e+000
4.821370e+002;0.000000e+000
4.840656e+002;0.000000e+000
4.859941e+002;0.000000e+000
4.879226e+002;0.000000e+000
4.898512e+002;0.000000e+000
4.917798e+002;0.000000e+000
4.937083e+002;0.000000e+000
4.956368e+002;0.000000e+000
4.975654e+002;0.000000e+000
4.994939e+002;0.000000e+000
5.014225e+002;0.000000e+000
5.033510e+002;0.000000e+000
5.052796e+002;0.000000e+000
5.072081e+002;0.000000e+000
5.091367e+002;0.000000e+000
5.110652e+002;0.000000e+000
5.129938e+002;0.000000e+000
5.149223e+002;0.000000e+000
5.168509e+002;0.000000e+000
5.187794e+002;0.000000e+000
5.207079e+002;0.000000e+000
5.226365e+002;0.000000e+000
5.245651e+002;0.000000e+000
5.264936e+002;0.000000e+000
5.284222e+002;0.000000e+000
5.303507e+002;0.000000e+000
5.322792e+002;0.000000e+000
5.342078e+002;0.000000e+000
5.361364e+002;0.000000e+000
5.380649e+002;0.000000e+000
5.399935e+002;0.000000e+000
5.419220e+002;0.000000e+000
5.438505e+002;0.000000e+000
5.457791e+002;0.000000e+000
5.477076e+002;0.000000e+000
5.496362e+002;0.000000e+000
5.515648e+002;0.000000e+000
5.534933e+002;0.000000e+000
5.554218e+002;0.000000e+000
5.573504e+002;0.000000e+000
5.592789e+002;0.000000e+000
5.612075e+002;0.000000e+000
5.631360e+002;0.000000e+000
5.650646e+002;0.000000e+000
5.669931e+002;0.000000e+000
5.689217e+002;0.000000e+000
5.708502e+002;0.000000e+000
5.727787e+002;0.000000e+000
5.747073e+002;0.000000e+000
5.766359e+002;0.000000e+000
5.785644e+002;0.000000e+000
5.804930e+002;0.000000e+000
5.824215e+002;0.000000e+000
5.843500e+002;0.000000e+000
5.862786e+002;0.000000e+000
5.882072e+002;0.000000e+000
5.901357e+002;0.000000e+000
5.920643e+002;0.000000e+000
5.939928e+002;0.000000e+000
5.959213e+002;0.000000e+000
5.978499e+002;0.000000e+000
5.997784e+002;2.579479e-002
6.017070e+002;2.835810e-002
6.036355e+002;2.754038e-002
6.055641e+002;3.060739e-002
6.074926e+002;3.479329e-002
6.094211e+002;3.461108e-002
6.113497e+002;3.069806e-002
6.132783e+002;2.594071e-002
6.152068e+002;2.151394e-002
6.171354e+002;1.973306e-002
6.190639e+002;2.199394e-002
6.209924e+002;2.620906e-002
6.229210e+002;2.591271e-002
6.248495e+002;2.474049e-002
6.267781e+002;2.824854e-002
6.287067e+002;2.792416e-002
6.306352e+002;2.514904e-002
6.325637e+002;2.705446e-002
6.344923e+002;3.002360e-002
6.364208e+002;2.903710e-002
6.383494e+002;2.858265e-002
6.402780e+002;2.853315e-002
6.422065e+002;2.815205e-002
6.441350e+002;2.851295e-002
6.460636e+002;2.981328e-002
6.479921e+002;2.833366e-002
6.499207e+002;2.857536e-002
6.518492e+002;2.777899e-002
6.537778e+002;2.726052e-002
6.557063e+002;2.716866e-002
6.576349e+002;2.615120e-002
6.595634e+002;2.631289e-002
6.614919e+002;2.677269e-002
6.634205e+002;2.659902e-002
6.653491e+002;2.461998e-002
6.672776e+002;2.541269e-002
6.692062e+002;2.882166e-002
6.711347e+002;2.816913e-002
6.730632e+002;2.724838e-002
6.749918e+002;2.807973e-002
6.769203e+002;2.854808e-002
6.788489e+002;3.023122e-002
6.807775e+002;3.237040e-002
6.827060e+002;3.370982e-002
6.846345e+002;3.482155e-002
6.865631e+002;3.572689e-002
6.884916e+002;3.731138e-002
6.904202e+002;3.801697e-002
6.923488e+002;3.876714e-002
6.942773e+002;4.154478e-002
6.962058e+002;4.511498e-002
6.981344e+002;4.943376e-002
7.000629e+002;5.386374e-002
7.019915e+002;5.874722e-002
7.039200e+002;6.559842e-002
7.058486e+002;7.496154e-002
7.077771e+002;8.612575e-002
7.097057e+002;1.029115e-001
7.116342e+002;1.297029e-001
7.135627e+002;1.661068e-001
7.154913e+002;1.944565e-001
7.174199e+002;1.938795e-001
7.193484e+002;1.667457e-001
7.212770e+002;1.313156e-001
7.232055e+002;1.049831e-001
7.251340e+002;9.088086e-002
7.270626e+002;8.666160e-002
7.289911e+002;9.159398e-002
7.309197e+002;9.788504e-002
7.328483e+002;8.847019e-002
7.347768e+002;6.655016e-002
7.367053e+002;5.050409e-002
7.386339e+002;4.149513e-002
7.405624e+002;3.637460e-002
7.424910e+002;3.423741e-002
7.444196e+002;3.251471e-002
7.463481e+002;3.092735e-002
7.482766e+002;3.018319e-002
7.502052e+002;2.965074e-002
7.521337e+002;2.842659e-002
7.540623e+002;2.735720e-002
7.559908e+002;2.759295e-002
7.579194e+002;2.698951e-002
7.598479e+002;2.582511e-002
7.617765e+002;2.539249e-002
7.637050e+002;2.515118e-002
7.656335e+002;2.500304e-002
7.675621e+002;2.537144e-002
7.694907e+002;2.500403e-002
7.714192e+002;2.409693e-002
7.733478e+002;2.357762e-002
7.752763e+002;2.333396e-002
7.772048e+002;2.322629e-002
7.791334e+002;2.281430e-002
7.810620e+002;2.197927e-002
7.829905e+002;2.211508e-002
7.849191e+002;2.223419e-002
7.868476e+002;2.186479e-002
7.887761e+002;2.218216e-002
7.907047e+002;2.290182e-002
7.926332e+002;2.297972e-002
7.945618e+002;2.185691e-002
7.964903e+002;2.109501e-002
7.984189e+002;2.091143e-002
8.003474e+002;2.071934e-002
8.022759e+002;2.135830e-002
8.042045e+002;2.228197e-002
8.061331e+002;2.207073e-002
8.080616e+002;2.074294e-002
8.099902e+002;2.118156e-002
8.119187e+002;2.279719e-002
8.138472e+002;2.325778e-002
8.157758e+002;2.241589e-002
8.177043e+002;2.164434e-002
8.196329e+002;2.185785e-002
8.215615e+002;2.241663e-002
8.234900e+002;2.315492e-002
8.254185e+002;2.370819e-002
8.273471e+002;2.326407e-002
8.292756e+002;2.363726e-002
8.312042e+002;2.466785e-002
8.331328e+002;2.509181e-002
8.350613e+002;2.557734e-002
8.369898e+002;2.587458e-002
8.389184e+002;2.562837e-002
8.408469e+002;2.513752e-002
8.427755e+002;2.459256e-002
8.447040e+002;2.500613e-002
8.466326e+002;2.544251e-002
8.485611e+002;2.514156e-002
8.504897e+002;2.475027e-002
8.524182e+002;2.435808e-002
8.543467e+002;2.424675e-002
8.562753e+002;2.457892e-002
8.582039e+002;2.482794e-002
8.601324e+002;2.441745e-002
8.620610e+002;2.354830e-002
8.639895e+002;2.350094e-002
8.659180e+002;2.411139e-002
8.678466e+002;2.457331e-002
8.697751e+002;2.470257e-002
8.717037e+002;2.467711e-002
8.736323e+002;2.482594e-002
8.755608e+002;2.467097e-002
8.774893e+002;2.449215e-002
8.794179e+002;2.397611e-002
8.813464e+002;2.402027e-002
8.832750e+002;2.481700e-002
8.852036e+002;2.542934e-002
8.871321e+002;2.565533e-002
8.890606e+002;2.533744e-002
8.909892e+002;2.507356e-002
8.929177e+002;2.474887e-002
8.948463e+002;2.473895e-002
8.967748e+002;2.509413e-002
8.987034e+002;2.515926e-002
9.006319e+002;2.521417e-002
9.025605e+002;2.543001e-002
9.044890e+002;2.578453e-002
9.064175e+002;2.626893e-002
9.083461e+002;2.632159e-002
9.102747e+002;2.596149e-002
9.122032e+002;2.566559e-002
9.141318e+002;2.536354e-002
9.160603e+002;2.513967e-002
9.179888e+002;2.511432e-002
9.199174e+002;2.483068e-002
9.218459e+002;2.403158e-002
9.237745e+002;2.393605e-002
9.257031e+002;2.414435e-002
9.276316e+002;2.431035e-002
9.295601e+002;2.462759e-002
9.314887e+002;2.440070e-002
9.334172e+002;2.396764e-002
9.353458e+002;2.406845e-002
9.372744e+002;2.395440e-002
9.392029e+002;2.381381e-002
9.411314e+002;2.409647e-002
9.430600e+002;2.431666e-002
9.449885e+002;2.438647e-002
9.469171e+002;2.411938e-002
9.488456e+002;2.377118e-002
9.507742e+002;2.369839e-002
9.527027e+002;2.352140e-002
9.546313e+002;2.317582e-002
9.565598e+002;2.317851e-002
9.584883e+002;2.310599e-002
9.604169e+002;2.280826e-002
9.623455e+002;2.273071e-002
9.642740e+002;2.278975e-002
9.662026e+002;2.293490e-002
9.681311e+002;2.267502e-002
9.700596e+002;2.249276e-002
9.719882e+002;2.255795e-002
9.739167e+002;2.254088e-002
9.758453e+002;2.223695e-002
9.777739e+002;2.185144e-002
9.797024e+002;2.151132e-002
9.816309e+002;2.166580e-002
9.835595e+002;2.148323e-002
9.854880e+002;2.090236e-002
9.874166e+002;2.056698e-002
9.893452e+002;2.043540e-002
9.912737e+002;2.072431e-002
9.932022e+002;2.093845e-002
9.951307e+002;2.029869e-002
9.970593e+002;1.949068e-002
9.989879e+002;1.930941e-002
1.000916e+003;1.980366e-002
1.002845e+003;1.979839e-002
1.004773e+003;1.942086e-002
1.006702e+003;1.914767e-002
1.008631e+003;1.882672e-002
1.010559e+003;1.823505e-002
1.012488e+003;1.816238e-002
1.014416e+003;1.812362e-002
1.016345e+003;1.767772e-002
1.018273e+003;1.750452e-002
1.020202e+003;1.753280e-002
1.022130e+003;1.771099e-002
1.024059e+003;1.804352e-002
1.025988e+003;1.851469e-002
1.027916e+003;1.869857e-002
1.029845e+003;1.914098e-002
1.031773e+003;1.965044e-002
1.033702e+003;1.949841e-002
1.035630e+003;1.967755e-002
1.037559e+003;2.005416e-002
1.039487e+003;2.026949e-002
1.041416e+003;1.993984e-002
1.043344e+003;1.984410e-002
1.045273e+003;1.996537e-002
1.047202e+003;2.013130e-002
1.049130e+003;2.050084e-002
1.051059e+003;2.092572e-002
1.052987e+003;2.137372e-002
1.054916e+003;2.157863e-002
1.056844e+003;2.130053e-002
1.058773e+003;2.127095e-002
1.060701e+003;2.165462e-002
1.062630e+003;2.185830e-002
1.064558e+003;2.145419e-002
1.066487e+003;2.135708e-002
1.068416e+003;2.177179e-002
1.070344e+003;2.182106e-002
1.072273e+003;2.167252e-002
1.074201e+003;2.227549e-002
1.076130e+003;2.293661e-002
1.078058e+003;2.286808e-002
1.079987e+003;2.230290e-002
1.081915e+003;2.164441e-002
1.083844e+003;2.145155e-002
1.085773e+003;2.144396e-002
1.087701e+003;2.112702e-002
1.089630e+003;2.082337e-002
1.091558e+003;2.027678e-002
1.093487e+003;1.935756e-002
1.095415e+003;1.893068e-002
1.097344e+003;1.881436e-002
1.099272e+003;1.907066e-002
1.101201e+003;1.959816e-002
1.103129e+003;2.016639e-002
1.105058e+003;1.980120e-002
1.106987e+003;1.947627e-002
1.108915e+003;1.963432e-002
1.110844e+003;1.974984e-002
1.112772e+003;2.001575e-002
1.114701e+003;2.024946e-002
1.116629e+003;2.026116e-002
1.118558e+003;2.020096e-002
1.120486e+003;2.009896e-002
1.122415e+003;2.006408e-002
1.124344e+003;2.051397e-002
1.126272e+003;2.082852e-002
1.128201e+003;2.060558e-002
1.130129e+003;2.018493e-002
1.132058e+003;2.002171e-002
1.133986e+003;2.015758e-002
1.135915e+003;2.017139e-002
1.137843e+003;1.996082e-002
1.139772e+003;1.982059e-002
1.141700e+003;2.018822e-002
1.143629e+003;2.084816e-002
1.145557e+003;2.100855e-002
1.147486e+003;2.095935e-002
1.149415e+003;2.104444e-002
1.151343e+003;2.109651e-002
1.153272e+003;2.107206e-002
1.155200e+003;2.075625e-002
1.157129e+003;2.060356e-002
1.159057e+003;2.066131e-002
1.160986e+003;2.103349e-002
1.162914e+003;2.161801e-002
1.164843e+003;2.170258e-002
1.166771e+003;2.155519e-002
1.168700e+003;2.164765e-002
1.170629e+003;2.182419e-002
1.172557e+003;2.148584e-002
1.174486e+003;2.139860e-002
1.176414e+003;2.121517e-002
1.178343e+003;2.036438e-002
1.180271e+003;1.996422e-002
1.182200e+003;1.992051e-002
1.184128e+003;1.945184e-002
1.186057e+003;1.856324e-002
1.187986e+003;1.828419e-002
1.189914e+003;1.856282e-002
1.191843e+003;1.868114e-002
1.193771e+003;1.865699e-002
1.195700e+003;1.882976e-002
1.197628e+003;1.896041e-002
1.199557e+003;1.880527e-002
1.201485e+003;1.822233e-002
1.203414e+003;1.805446e-002
1.205343e+003;1.840651e-002
1.207271e+003;1.803405e-002
1.209200e+003;1.771679e-002
1.211128e+003;1.767624e-002
1.213057e+003;1.759746e-002
1.214985e+003;1.758266e-002
1.216914e+003;1.756848e-002
1.218842e+003;1.740376e-002
1.220771e+003;1.716206e-002
1.222699e+003;1.692556e-002
1.224628e+003;1.684013e-002
1.226557e+003;1.676374e-002
1.228485e+003;1.702362e-002
1.230414e+003;1.687799e-002
1.232342e+003;1.697683e-002
1.234271e+003;1.744553e-002
1.236199e+003;1.763583e-002
1.238128e+003;1.781921e-002
1.240056e+003;1.781599e-002
1.241985e+003;1.778931e-002
1.243913e+003;1.794274e-002
1.245842e+003;1.818035e-002
1.247771e+003;1.887766e-002
1.249699e+003;1.944304e-002
1.251628e+003;1.950829e-002
1.253556e+003;1.979745e-002
1.255485e+003;1.978473e-002
1.257413e+003;1.955411e-002
1.259342e+003;1.910449e-002
1.261270e+003;1.908198e-002
1.263199e+003;1.978490e-002
1.265127e+003;2.098539e-002
1.267056e+003;2.202493e-002
1.268985e+003;2.263265e-002
1.270913e+003;2.318074e-002
1.272842e+003;2.349772e-002
1.274770e+003;2.391001e-002
1.276699e+003;2.405196e-002
1.278627e+003;2.380149e-002
1.280556e+003;2.391253e-002
1.282484e+003;2.436137e-002
1.284413e+003;2.478335e-002
1.286342e+003;2.502445e-002
1.288270e+003;2.513359e-002
1.290199e+003;2.557794e-002
1.292127e+003;2.620603e-002
1.294056e+003;2.662523e-002
1.295984e+003;2.700869e-002
1.297913e+003;2.727865e-002
1.299841e+003;2.766163e-002
1.301770e+003;2.782852e-002
1.303698e+003;2.786360e-002
1.305627e+003;2.804993e-002
1.307556e+003;2.785992e-002
1.309484e+003;2.714245e-002
1.311413e+003;2.649018e-002
1.313341e+003;2.611270e-002
1.315270e+003;2.553408e-002
1.317198e+003;2.467764e-002
1.319127e+003;2.399967e-002
1.321055e+003;2.386859e-002
1.322984e+003;2.362393e-002
1.324912e+003;2.308667e-002
1.326841e+003;2.288897e-002
1.328770e+003;2.259233e-002
1.330698e+003;2.229293e-002
1.332627e+003;2.266535e-002
1.334555e+003;2.308125e-002
1.336484e+003;2.315848e-002
1.338412e+003;2.329732e-002
1.340341e+003;2.418499e-002
1.342269e+003;2.547617e-002
1.344198e+003;2.649145e-002
1.346126e+003;2.742813e-002
1.348055e+003;2.820328e-002
1.349984e+003;2.865860e-002
1.351912e+003;2.878261e-002
1.353841e+003;2.896515e-002
1.355769e+003;2.878059e-002
1.357698e+003;2.832613e-002
1.359626e+003;2.809295e-002
1.361555e+003;2.860530e-002
1.363483e+003;3.006827e-002
1.365412e+003;3.183725e-002
1.367341e+003;3.279491e-002
1.369269e+003;3.299814e-002
1.371198e+003;3.176581e-002
1.373126e+003;2.924385e-002
1.375055e+003;2.736687e-002
1.376983e+003;2.656157e-002
1.378912e+003;2.549146e-002
1.380840e+003;2.434287e-002
1.382769e+003;2.360927e-002
1.384698e+003;2.316449e-002
1.386626e+003;2.224581e-002
1.388555e+003;2.208363e-002
1.390483e+003;2.249960e-002
1.392412e+003;2.205010e-002
1.394340e+003;2.109154e-002
1.396269e+003;2.122408e-002
1.398197e+003;2.178486e-002
1.400126e+003;2.262053e-002
1.402054e+003;2.303695e-002
1.403983e+003;2.269978e-002
1.405911e+003;2.302821e-002
1.407840e+003;2.379022e-002
1.409769e+003;2.437904e-002
1.411697e+003;2.490324e-002
1.413626e+003;2.546700e-002
1.415554e+003;2.596353e-002
1.417483e+003;2.538030e-002
1.419411e+003;2.556131e-002
1.421340e+003;2.834406e-002
1.423268e+003;3.060579e-002
1.425197e+003;3.291574e-002
1.427125e+003;3.572901e-002
1.429054e+003;3.818940e-002
1.430983e+003;4.107809e-002
1.432911e+003;4.385836e-002
1.434840e+003;4.482261e-002
1.436768e+003;4.618867e-002
1.438697e+003;4.988831e-002
1.440625e+003;5.242012e-002
1.442554e+003;5.403639e-002
1.444482e+003;5.537751e-002
1.446411e+003;5.672580e-002
1.448340e+003;5.891804e-002
1.450268e+003;6.271710e-002
1.452197e+003;6.813248e-002
1.454125e+003;7.397864e-002
1.456054e+003;7.910044e-002
1.457982e+003;9.178615e-002
1.459911e+003;1.155002e-001
1.461839e+003;1.346243e-001
1.463768e+003;1.360029e-001
1.465697e+003;1.391297e-001
1.467625e+003;1.563031e-001
1.469554e+003;1.838063e-001
1.471482e+003;2.028415e-001
1.473411e+003;1.775616e-001
1.475339e+003;1.245779e-001
1.477268e+003;8.581177e-002
1.479196e+003;6.705964e-002
1.481125e+003;5.723272e-002
1.483053e+003;5.108787e-002
1.484982e+003;4.634204e-002
1.486911e+003;4.211178e-002
1.488839e+003;3.863609e-002
1.490768e+003;3.684474e-002
1.492696e+003;3.629026e-002
1.494625e+003;3.362109e-002
1.496553e+003;3.071595e-002
1.498482e+003;3.055684e-002
1.500410e+003;3.080330e-002
1.502339e+003;3.019733e-002
1.504267e+003;2.646208e-002
1.506196e+003;2.227409e-002
1.508125e+003;2.363859e-002
1.510053e+003;2.606598e-002
1.511982e+003;2.627730e-002
1.513910e+003;2.599998e-002
1.515839e+003;2.487046e-002
1.517767e+003;2.418415e-002
1.519696e+003;2.234117e-002
1.521624e+003;2.088956e-002
1.523553e+003;2.261491e-002
1.525481e+003;2.322283e-002
1.527410e+003;2.365980e-002
1.529339e+003;2.440385e-002
1.531267e+003;2.392072e-002
1.533196e+003;2.271716e-002
1.535124e+003;2.358202e-002
1.537053e+003;2.238687e-002
1.538981e+003;1.784772e-002
1.540910e+003;1.732834e-002
1.542838e+003;1.988305e-002
1.544767e+003;2.156783e-002
1.546695e+003;2.303219e-002
1.548624e+003;2.339609e-002
1.550553e+003;2.299436e-002
1.552481e+003;2.208667e-002
1.554410e+003;2.069509e-002
1.556338e+003;1.820830e-002
1.558267e+003;1.375018e-002
1.560195e+003;1.531745e-002
1.562124e+003;2.059706e-002
1.564052e+003;2.221205e-002
1.565981e+003;2.216431e-002
1.567910e+003;2.086046e-002
1.569838e+003;1.987584e-002
1.571767e+003;2.142147e-002
1.573695e+003;2.103102e-002
1.575624e+003;1.855376e-002
1.577552e+003;2.016663e-002
1.579481e+003;2.283152e-002
1.581409e+003;2.350391e-002
1.583338e+003;2.360235e-002
1.585266e+003;2.321391e-002
1.587195e+003;2.306207e-002
1.589124e+003;2.315492e-002
1.591052e+003;2.319392e-002
1.592981e+003;2.276395e-002
1.594909e+003;2.261523e-002
1.596838e+003;2.248868e-002
1.598766e+003;2.260298e-002
1.600695e+003;2.285334e-002
1.602623e+003;2.285747e-002
1.604552e+003;2.268113e-002
1.606480e+003;2.254588e-002
1.608409e+003;2.242950e-002
1.610338e+003;2.233803e-002
1.612266e+003;2.233283e-002
1.614195e+003;2.102531e-002
1.616123e+003;1.835196e-002
1.618052e+003;1.949515e-002
1.619980e+003;2.170119e-002
1.621909e+003;2.121364e-002
1.623837e+003;2.067639e-002
1.625766e+003;2.121663e-002
1.627694e+003;2.161983e-002
1.629623e+003;2.238844e-002
1.631552e+003;2.261355e-002
1.633480e+003;2.077002e-002
1.635409e+003;1.844765e-002
1.637337e+003;1.995548e-002
1.639266e+003;2.224811e-002
1.641194e+003;2.292096e-002
1.643123e+003;2.228295e-002
1.645051e+003;1.993682e-002
1.646980e+003;1.921433e-002
1.648909e+003;2.069877e-002
1.650837e+003;1.739431e-002
1.652766e+003;1.231248e-002
1.654694e+003;1.607322e-002
1.656623e+003;2.061315e-002
1.658551e+003;2.158110e-002
1.660480e+003;2.095107e-002
1.662408e+003;1.981511e-002
1.664337e+003;2.029837e-002
1.666266e+003;2.047590e-002
1.668194e+003;1.868553e-002
1.670123e+003;1.796488e-002
1.672051e+003;1.903833e-002
1.673980e+003;1.812621e-002
1.675908e+003;1.796446e-002
1.677837e+003;1.983248e-002
1.679765e+003;1.987590e-002
1.681694e+003;1.786591e-002
1.683622e+003;1.437557e-002
1.685551e+003;1.569892e-002
1.687479e+003;1.939941e-002
1.689408e+003;2.033646e-002
1.691337e+003;2.057229e-002
1.693265e+003;1.952801e-002
1.695194e+003;1.643595e-002
1.697122e+003;1.663111e-002
1.699051e+003;1.552138e-002
1.700979e+003;1.520872e-002
1.702908e+003;1.832120e-002
1.704836e+003;1.860767e-002
1.706765e+003;1.908541e-002
1.708693e+003;1.976017e-002
1.710622e+003;1.998601e-002
1.712551e+003;1.910179e-002
1.714479e+003;1.706952e-002
1.716408e+003;1.437947e-002
1.718336e+003;1.452886e-002
1.720265e+003;1.715906e-002
1.722193e+003;1.813561e-002
1.724122e+003;1.811029e-002
1.726050e+003;1.793297e-002
1.727979e+003;1.746678e-002
1.729908e+003;1.694733e-002
1.731836e+003;1.456898e-002
1.733765e+003;1.206079e-002
1.735693e+003;1.464375e-002
1.737622e+003;1.697414e-002
1.739550e+003;1.636300e-002
1.741479e+003;1.641719e-002
1.743407e+003;1.659936e-002
1.745336e+003;1.643798e-002
1.747265e+003;1.579333e-002
1.749193e+003;1.461905e-002
1.751122e+003;1.389032e-002
1.753050e+003;1.499342e-002
1.754979e+003;1.516096e-002
1.756907e+003;1.476646e-002
1.758836e+003;1.481469e-002
1.760764e+003;1.410717e-002
1.762693e+003;1.404427e-002
1.764621e+003;1.452746e-002
1.766550e+003;1.366780e-002
1.768479e+003;1.290777e-002
1.770407e+003;1.215128e-002
1.772336e+003;1.124483e-002
1.774264e+003;1.240544e-002
1.776193e+003;1.356011e-002
1.778121e+003;1.371339e-002
1.780050e+003;1.356626e-002
1.781978e+003;1.348816e-002
1.783907e+003;1.314602e-002
1.785835e+003;1.313748e-002
1.787764e+003;1.337914e-002
1.789693e+003;1.258744e-002
1.791621e+003;1.124184e-002
1.793550e+003;1.166187e-002
1.795478e+003;1.307738e-002
1.797407e+003;1.320610e-002
1.799335e+003;1.270772e-002
1.801264e+003;1.264683e-002
1.803192e+003;1.300953e-002
1.805121e+003;1.328320e-002
1.807049e+003;1.362083e-002
1.808978e+003;1.367745e-002
1.810907e+003;1.359720e-002
1.812835e+003;1.351201e-002
1.814764e+003;1.339045e-002
1.816692e+003;1.351444e-002
1.818621e+003;1.385731e-002
1.820549e+003;1.365091e-002
1.822478e+003;1.316009e-002
1.824406e+003;1.259116e-002
1.826335e+003;1.243326e-002
1.828264e+003;1.188946e-002
1.830192e+003;1.179971e-002
1.832121e+003;1.254757e-002
1.834049e+003;1.268282e-002
1.835978e+003;1.236862e-002
1.837906e+003;1.222168e-002
1.839835e+003;1.232789e-002
1.841763e+003;1.169274e-002
1.843692e+003;1.040454e-002
1.845620e+003;1.101958e-002
1.847549e+003;1.209223e-002
1.849478e+003;1.227079e-002
1.851406e+003;1.232025e-002
1.853335e+003;1.234336e-002
1.855263e+003;1.246538e-002
1.857192e+003;1.224755e-002
1.859120e+003;1.197494e-002
1.861049e+003;1.198118e-002
1.862977e+003;1.211404e-002
1.864906e+003;1.214617e-002
1.866834e+003;1.174571e-002
1.868763e+003;1.150571e-002
1.870692e+003;1.220461e-002
1.872620e+003;1.255586e-002
1.874549e+003;1.270271e-002
1.876477e+003;1.310162e-002
1.878406e+003;1.324497e-002
1.880334e+003;1.321764e-002
1.882263e+003;1.319387e-002
1.884191e+003;1.379201e-002
1.886120e+003;1.473691e-002
1.888048e+003;1.515653e-002
1.889977e+003;1.559666e-002
1.891906e+003;1.664013e-002
1.893834e+003;1.723731e-002
1.895763e+003;1.735872e-002
1.897691e+003;1.726745e-002
1.899620e+003;1.736548e-002
1.901548e+003;1.728927e-002
1.903477e+003;1.705050e-002
1.905405e+003;1.673485e-002
1.907334e+003;1.627840e-002
1.909262e+003;1.598342e-002
1.911191e+003;1.595025e-002
1.913120e+003;1.560009e-002
1.915048e+003;1.493443e-002
1.916977e+003;1.436776e-002
1.918905e+003;1.448014e-002
1.920834e+003;1.445551e-002
1.922762e+003;1.421048e-002
1.924691e+003;1.437324e-002
1.926619e+003;1.437005e-002
1.928548e+003;1.435721e-002
1.930477e+003;1.425914e-002
1.932405e+003;1.417005e-002
1.934334e+003;1.417848e-002
1.936262e+003;1.396915e-002
1.938191e+003;1.394486e-002
1.940119e+003;1.392430e-002
1.942048e+003;1.355392e-002
1.943976e+003;1.332484e-002
1.945905e+003;1.350337e-002
1.947833e+003;1.367228e-002
1.949762e+003;1.371824e-002
1.951691e+003;1.387188e-002
1.953619e+003;1.390828e-002
1.955548e+003;1.375189e-002
1.957476e+003;1.362688e-002
1.959405e+003;1.357142e-002
1.961333e+003;1.368011e-002
1.963262e+003;1.405125e-002
1.965190e+003;1.400279e-002
1.967119e+003;1.357221e-002
1.969047e+003;1.363905e-002
1.970976e+003;1.375179e-002
1.972905e+003;1.347554e-002
1.974833e+003;1.354261e-002
1.976762e+003;1.378473e-002
1.978690e+003;1.379420e-002
1.980619e+003;1.375891e-002
1.982547e+003;1.387264e-002
1.984476e+003;1.398315e-002
1.986404e+003;1.374676e-002
1.988333e+003;1.368329e-002
1.990261e+003;1.371140e-002
1.992190e+003;1.381599e-002
1.994119e+003;1.412086e-002
1.996047e+003;1.428109e-002
1.997976e+003;1.416752e-002
1.999904e+003;1.421959e-002
2.001833e+003;1.437187e-002
2.003761e+003;1.475196e-002
2.005690e+003;1.523374e-002
2.007618e+003;1.580494e-002
2.009547e+003;1.646874e-002
2.011476e+003;1.725997e-002
2.013404e+003;1.807091e-002
2.015333e+003;1.879689e-002
2.017261e+003;1.914528e-002
2.019190e+003;1.920044e-002
2.021118e+003;1.943202e-002
2.023047e+003;1.957151e-002
2.024975e+003;1.908974e-002
2.026904e+003;1.844879e-002
2.028833e+003;1.784524e-002
2.030761e+003;1.737476e-002
2.032690e+003;1.720053e-002
2.034618e+003;1.698992e-002
2.036547e+003;1.659854e-002
2.038475e+003;1.631352e-002
2.040404e+003;1.618013e-002
2.042332e+003;1.611063e-002
2.044261e+003;1.602254e-002
2.046189e+003;1.599157e-002
2.048118e+003;1.577735e-002
2.050047e+003;1.559978e-002
2.051975e+003;1.563664e-002
2.053904e+003;1.588893e-002
2.055832e+003;1.584945e-002
2.057761e+003;1.552103e-002
2.059689e+003;1.520979e-002
2.061618e+003;1.512257e-002
2.063546e+003;1.533255e-002
2.065475e+003;1.525090e-002
2.067404e+003;1.500789e-002
2.069332e+003;1.486688e-002
2.071260e+003;1.487713e-002
2.073189e+003;1.507207e-002
2.075118e+003;1.508562e-002
2.077046e+003;1.497781e-002
2.078975e+003;1.500069e-002
2.080903e+003;1.485752e-002
2.082832e+003;1.464965e-002
2.084760e+003;1.466987e-002
2.086689e+003;1.468193e-002
2.088617e+003;1.461404e-002
2.090546e+003;1.491228e-002
2.092475e+003;1.510387e-002
2.094403e+003;1.489842e-002
2.096332e+003;1.480828e-002
2.098260e+003;1.493350e-002
2.100189e+003;1.490435e-002
2.102117e+003;1.469136e-002
2.104046e+003;1.451988e-002
2.105974e+003;1.459489e-002
2.107903e+003;1.479563e-002
2.109832e+003;1.475357e-002
2.111760e+003;1.460239e-002
2.113688e+003;1.444914e-002
2.115617e+003;1.438095e-002
2.117546e+003;1.439913e-002
2.119474e+003;1.459410e-002
2.121403e+003;1.463162e-002
2.123331e+003;1.461432e-002
2.125260e+003;1.460129e-002
2.127188e+003;1.438170e-002
2.129117e+003;1.446034e-002
2.131045e+003;1.505138e-002
2.132974e+003;1.541075e-002
2.134903e+003;1.553748e-002
2.136831e+003;1.574608e-002
2.138760e+003;1.584182e-002
2.140688e+003;1.583144e-002
2.142617e+003;1.619926e-002
2.144545e+003;1.662309e-002
2.146474e+003;1.652639e-002
2.148402e+003;1.630596e-002
2.150331e+003;1.628160e-002
2.152260e+003;1.625821e-002
2.154188e+003;1.626904e-002
2.156117e+003;1.634401e-002
2.158045e+003;1.645432e-002
2.159974e+003;1.644510e-002
2.161902e+003;1.614265e-002
2.163831e+003;1.579275e-002
2.165759e+003;1.569201e-002
2.167688e+003;1.597301e-002
2.169616e+003;1.609210e-002
2.171545e+003;1.603829e-002
2.173474e+003;1.623578e-002
2.175402e+003;1.630193e-002
2.177331e+003;1.627059e-002
2.179259e+003;1.632010e-002
2.181188e+003;1.631167e-002
2.183116e+003;1.627541e-002
2.185045e+003;1.630878e-002
2.186973e+003;1.625628e-002
2.188902e+003;1.622894e-002
2.190831e+003;1.619317e-002
2.192759e+003;1.594396e-002
2.194688e+003;1.578742e-002
2.196616e+003;1.603578e-002
2.198545e+003;1.608986e-002
2.200473e+003;1.594052e-002
2.202402e+003;1.606053e-002
2.204330e+003;1.645941e-002
2.206259e+003;1.659169e-002
2.208188e+003;1.643515e-002
2.210116e+003;1.613869e-002
2.212044e+003;1.599167e-002
2.213973e+003;1.640735e-002
2.215902e+003;1.651885e-002
2.217830e+003;1.652071e-002
2.219759e+003;1.668285e-002
2.221687e+003;1.676295e-002
2.223616e+003;1.686896e-002
2.225544e+003;1.671691e-002
2.227473e+003;1.654873e-002
2.229401e+003;1.647074e-002
2.231330e+003;1.643061e-002
2.233259e+003;1.632361e-002
2.235187e+003;1.609457e-002
2.237116e+003;1.620245e-002
2.239044e+003;1.635402e-002
2.240973e+003;1.656043e-002
2.242901e+003;1.671350e-002
2.244830e+003;1.686442e-002
2.246758e+003;1.711708e-002
2.248687e+003;1.695330e-002
2.250615e+003;1.682697e-002
2.252544e+003;1.723387e-002
2.254473e+003;1.771841e-002
2.256401e+003;1.778544e-002
2.258330e+003;1.789620e-002
2.260258e+003;1.800729e-002
2.262187e+003;1.803288e-002
2.264115e+003;1.817517e-002
2.266044e+003;1.826698e-002
2.267972e+003;1.848374e-002
2.269901e+003;1.889506e-002
2.271830e+003;1.927065e-002
2.273758e+003;1.976926e-002
2.275687e+003;2.010024e-002
2.277615e+003;2.013411e-002
2.279544e+003;2.027289e-002
2.281472e+003;2.045381e-002
2.283401e+003;2.054356e-002
2.285329e+003;2.052164e-002
2.287258e+003;2.032959e-002
2.289187e+003;2.053245e-002
2.291115e+003;2.066315e-002
2.293043e+003;2.044755e-002
2.294972e+003;2.065349e-002
2.296901e+003;2.096769e-002
2.298829e+003;2.127304e-002
2.300758e+003;2.150718e-002
2.302686e+003;2.153674e-002
2.304615e+003;2.149287e-002
2.306543e+003;2.135534e-002
2.308472e+003;2.156850e-002
2.310400e+003;2.199603e-002
2.312329e+003;2.236234e-002
2.314258e+003;2.253303e-002
2.316186e+003;2.275920e-002
2.318115e+003;2.332417e-002
2.320043e+003;2.372478e-002
2.321972e+003;2.382599e-002
2.323900e+003;2.418607e-002
2.325829e+003;2.460953e-002
2.327757e+003;2.494275e-002
2.329686e+003;2.494029e-002
2.331615e+003;2.475262e-002
2.333543e+003;2.461602e-002
2.335472e+003;2.454134e-002
2.337400e+003;2.475999e-002
2.339329e+003;2.513823e-002
2.341257e+003;2.525456e-002
2.343186e+003;2.533737e-002
2.345114e+003;2.527910e-002
2.347043e+003;2.497181e-002
2.348971e+003;2.457026e-002
2.350900e+003;2.403161e-002
2.352829e+003;2.317938e-002
2.354757e+003;2.212854e-002
2.356686e+003;2.141169e-002
2.358614e+003;2.087680e-002
2.360543e+003;1.994761e-002
2.362471e+003;1.956399e-002
2.364400e+003;1.950347e-002
2.366328e+003;1.924363e-002
2.368257e+003;1.922856e-002
2.370186e+003;1.926303e-002
2.372114e+003;1.899239e-002
2.374042e+003;1.877067e-002
2.375971e+003;1.890229e-002
2.377900e+003;1.920768e-002
2.379828e+003;1.934301e-002
2.381757e+003;1.942353e-002
2.383685e+003;1.950195e-002
2.385614e+003;1.948618e-002
2.387542e+003;1.935330e-002
2.389471e+003;1.931197e-002
2.391399e+003;1.939525e-002
2.393328e+003;1.940440e-002
2.395257e+003;1.943281e-002
2.397185e+003;1.944605e-002
2.399114e+003;1.970064e-002
2.401042e+003;1.985978e-002
2.402971e+003;1.979683e-002
2.404899e+003;1.984469e-002
2.406828e+003;2.000263e-002
2.408756e+003;2.009288e-002
2.410685e+003;2.048868e-002
2.412614e+003;2.071750e-002
2.414542e+003;2.058167e-002
2.416471e+003;2.076877e-002
2.418399e+003;2.086123e-002
2.420328e+003;2.092391e-002
2.422256e+003;2.088956e-002
2.424185e+003;2.054718e-002
2.426113e+003;2.035046e-002
2.428042e+003;2.020214e-002
2.429970e+003;1.975764e-002
2.431899e+003;1.965210e-002
2.433828e+003;1.984105e-002
2.435756e+003;1.962510e-002
2.437685e+003;1.920543e-002
2.439613e+003;1.905297e-002
2.441542e+003;1.915359e-002
2.443470e+003;1.901773e-002
2.445399e+003;1.911758e-002
2.447327e+003;1.945049e-002
2.449256e+003;1.946185e-002
2.451185e+003;1.935091e-002
2.453113e+003;1.910598e-002
2.455042e+003;1.913080e-002
2.456970e+003;1.928821e-002
2.458899e+003;1.931734e-002
2.460827e+003;1.953768e-002
2.462756e+003;1.963134e-002
2.464684e+003;1.957515e-002
2.466613e+003;1.982912e-002
2.468542e+003;2.048521e-002
2.470470e+003;2.099798e-002
2.472398e+003;2.128250e-002
2.474327e+003;2.168513e-002
2.476256e+003;2.180123e-002
2.478184e+003;2.177740e-002
2.480113e+003;2.159531e-002
2.482041e+003;2.124008e-002
2.483970e+003;2.140797e-002
2.485898e+003;2.176612e-002
2.487827e+003;2.167046e-002
2.489755e+003;2.186336e-002
2.491684e+003;2.219747e-002
2.493613e+003;2.199286e-002
2.495541e+003;2.153584e-002
2.497470e+003;2.146408e-002
2.499398e+003;2.191514e-002
2.501327e+003;2.214095e-002
2.503255e+003;2.197090e-002
2.505184e+003;2.199858e-002
2.507112e+003;2.228961e-002
2.509041e+003;2.235048e-002
2.510969e+003;2.224222e-002
2.512898e+003;2.237539e-002
2.514827e+003;2.265732e-002
2.516755e+003;2.279433e-002
2.518684e+003;2.298203e-002
2.520612e+003;2.347887e-002
2.522541e+003;2.397923e-002
2.524469e+003;2.439726e-002
2.526398e+003;2.470948e-002
2.528326e+003;2.501013e-002
2.530255e+003;2.525350e-002
2.532184e+003;2.475936e-002
2.534112e+003;2.415871e-002
2.536041e+003;2.390465e-002
2.537969e+003;2.385014e-002
2.539898e+003;2.408800e-002
2.541826e+003;2.454098e-002
2.543755e+003;2.472632e-002
2.545683e+003;2.523370e-002
2.547612e+003;2.603762e-002
2.549541e+003;2.616626e-002
2.551469e+003;2.623316e-002
2.553397e+003;2.641887e-002
2.555326e+003;2.633113e-002
2.557255e+003;2.617464e-002
2.559183e+003;2.632053e-002
2.561112e+003;2.647028e-002
2.563040e+003;2.649032e-002
2.564969e+003;2.643229e-002
2.566897e+003;2.641486e-002
2.568826e+003;2.696733e-002
2.570754e+003;2.775974e-002
2.572683e+003;2.810663e-002
2.574612e+003;2.800420e-002
2.576540e+003;2.801363e-002
2.578469e+003;2.818560e-002
2.580397e+003;2.867669e-002
2.582326e+003;2.914339e-002
2.584254e+003;2.943709e-002
2.586183e+003;2.982411e-002
2.588111e+003;3.024944e-002
2.590040e+003;3.062449e-002
2.591969e+003;3.137246e-002
2.593897e+003;3.188945e-002
2.595826e+003;3.196484e-002
2.597754e+003;3.238425e-002
2.599683e+003;3.317839e-002
2.601611e+003;3.358010e-002
2.603540e+003;3.370398e-002
2.605468e+003;3.409145e-002
2.607397e+003;3.451521e-002
2.609325e+003;3.502400e-002
2.611254e+003;3.562703e-002
2.613183e+003;3.608358e-002
2.615111e+003;3.660413e-002
2.617040e+003;3.736338e-002
2.618968e+003;3.812758e-002
2.620897e+003;3.889983e-002
2.622825e+003;3.961297e-002
2.624754e+003;4.028887e-002
2.626682e+003;4.092864e-002
2.628611e+003;4.137130e-002
2.630540e+003;4.195990e-002
2.632468e+003;4.262849e-002
2.634396e+003;4.270888e-002
2.636325e+003;4.242495e-002
2.638254e+003;4.224268e-002
2.640182e+003;4.218732e-002
2.642111e+003;4.204242e-002
2.644039e+003;4.161374e-002
2.645968e+003;4.136835e-002
2.647896e+003;4.128866e-002
2.649825e+003;4.124711e-002
2.651753e+003;4.114562e-002
2.653682e+003;4.139456e-002
2.655611e+003;4.165031e-002
2.657539e+003;4.157246e-002
2.659468e+003;4.145011e-002
2.661396e+003;4.135706e-002
2.663325e+003;4.134514e-002
2.665253e+003;4.109969e-002
2.667182e+003;4.067866e-002
2.669110e+003;4.026622e-002
2.671039e+003;3.995828e-002
2.672968e+003;3.951535e-002
2.674896e+003;3.898069e-002
2.676825e+003;3.845844e-002
2.678753e+003;3.792121e-002
2.680682e+003;3.779931e-002
2.682610e+003;3.752168e-002
2.684539e+003;3.759184e-002
2.686467e+003;3.781413e-002
2.688396e+003;3.761908e-002
2.690324e+003;3.742611e-002
2.692253e+003;3.748816e-002
2.694182e+003;3.797639e-002
2.696110e+003;3.833675e-002
2.698039e+003;3.832955e-002
2.699967e+003;3.880678e-002
2.701896e+003;3.918719e-002
2.703824e+003;3.936466e-002
2.705753e+003;3.948069e-002
2.707681e+003;3.992940e-002
2.709610e+003;4.031254e-002
2.711539e+003;4.035915e-002
2.713467e+003;4.067153e-002
2.715396e+003;4.116012e-002
2.717324e+003;4.140604e-002
2.719253e+003;4.154989e-002
2.721181e+003;4.194278e-002
2.723110e+003;4.247702e-002
2.725038e+003;4.299950e-002
2.726967e+003;4.350247e-002
2.728896e+003;4.396243e-002
2.730824e+003;4.443543e-002
2.732752e+003;4.486243e-002
2.734681e+003;4.504452e-002
2.736610e+003;4.521646e-002
2.738538e+003;4.549246e-002
2.740467e+003;4.621461e-002
2.742395e+003;4.657509e-002
2.744324e+003;4.623304e-002
2.746252e+003;4.622777e-002
2.748181e+003;4.626363e-002
2.750109e+003;4.631863e-002
2.752038e+003;4.665510e-002
2.753967e+003;4.713222e-002
2.755895e+003;4.774618e-002
2.757824e+003;4.829238e-002
2.759752e+003;4.877638e-002
2.761681e+003;4.927670e-002
2.763609e+003;5.010125e-002
2.765538e+003;5.100544e-002
2.767466e+003;5.144100e-002
2.769395e+003;5.181174e-002
2.771323e+003;5.281086e-002
2.773252e+003;5.409974e-002
2.775181e+003;5.510606e-002
2.777109e+003;5.624768e-002
2.779038e+003;5.716847e-002
2.780966e+003;5.793807e-002
2.782895e+003;5.908466e-002
2.784823e+003;6.030102e-002
2.786752e+003;6.123461e-002
2.788680e+003;6.215025e-002
2.790609e+003;6.352027e-002
2.792538e+003;6.452181e-002
2.794466e+003;6.558693e-002
2.796395e+003;6.690581e-002
2.798323e+003;6.773435e-002
2.800252e+003;6.897898e-002
2.802180e+003;7.029945e-002
2.804109e+003;7.137647e-002
2.806037e+003;7.293509e-002
2.807966e+003;7.468969e-002
2.809895e+003;7.615088e-002
2.811823e+003;7.785232e-002
2.813751e+003;7.949645e-002
2.815680e+003;8.098818e-002
2.817609e+003;8.293493e-002
2.819537e+003;8.537641e-002
2.821466e+003;8.830335e-002
2.823394e+003;9.143551e-002
2.825323e+003;9.474732e-002
2.827251e+003;9.835786e-002
2.829180e+003;1.029467e-001
2.831108e+003;1.087721e-001
2.833037e+003;1.155504e-001
2.834966e+003;1.240988e-001
2.836894e+003;1.352650e-001
2.838823e+003;1.502624e-001
2.840751e+003;1.708868e-001
2.842680e+003;1.997429e-001
2.844608e+003;2.371961e-001
2.846537e+003;2.767166e-001
2.848465e+003;2.982651e-001
2.850394e+003;2.819898e-001
2.852323e+003;2.385463e-001
2.854251e+003;1.936489e-001
2.856180e+003;1.591088e-001
2.858108e+003;1.356425e-001
2.860037e+003;1.211358e-001
2.861965e+003;1.122631e-001
2.863894e+003;1.069821e-001
2.865822e+003;1.044051e-001
2.867751e+003;1.036449e-001
2.869679e+003;1.046363e-001
2.871608e+003;1.073699e-001
2.873536e+003;1.111218e-001
2.875465e+003;1.156686e-001
2.877394e+003;1.214714e-001
2.879322e+003;1.282062e-001
2.881251e+003;1.345181e-001
2.883179e+003;1.404890e-001
2.885108e+003;1.467095e-001
2.887036e+003;1.527570e-001
2.888965e+003;1.588964e-001
2.890893e+003;1.658125e-001
2.892822e+003;1.725003e-001
2.894750e+003;1.789977e-001
2.896679e+003;1.858524e-001
2.898608e+003;1.928927e-001
2.900536e+003;2.008383e-001
2.902465e+003;2.105838e-001
2.904393e+003;2.225807e-001
2.906322e+003;2.377348e-001
2.908250e+003;2.573283e-001
2.910179e+003;2.805247e-001
2.912107e+003;3.040328e-001
2.914036e+003;3.224806e-001
2.915965e+003;3.264612e-001
2.917893e+003;3.123522e-001
2.919822e+003;2.852781e-001
2.921750e+003;2.529306e-001
2.923679e+003;2.215239e-001
2.925607e+003;1.936368e-001
2.927536e+003;1.700581e-001
2.929464e+003;1.505720e-001
2.931393e+003;1.348728e-001
2.933322e+003;1.210119e-001
2.935250e+003;1.090283e-001
2.937178e+003;9.969810e-002
2.939107e+003;9.204222e-002
2.941036e+003;8.531378e-002
2.942964e+003;7.987829e-002
2.944893e+003;7.527667e-002
2.946821e+003;7.142123e-002
2.948750e+003;6.826980e-002
2.950678e+003;6.570298e-002
2.952607e+003;6.380912e-002
2.954535e+003;6.226179e-002
2.956464e+003;6.064706e-002
2.958393e+003;5.918721e-002
2.960321e+003;5.785811e-002
2.962250e+003;5.660775e-002
2.964178e+003;5.522995e-002
2.966107e+003;5.433676e-002
2.968035e+003;5.400011e-002
2.969964e+003;5.358079e-002
2.971892e+003;5.265137e-002
2.973821e+003;5.154396e-002
2.975750e+003;5.057764e-002
2.977678e+003;4.976690e-002
2.979607e+003;4.911755e-002
2.981535e+003;4.857501e-002
2.983464e+003;4.790580e-002
2.985392e+003;4.708407e-002
2.987321e+003;4.635214e-002
2.989249e+003;4.567580e-002
2.991178e+003;4.492559e-002
2.993106e+003;4.440614e-002
2.995035e+003;4.412085e-002
2.996964e+003;4.352928e-002
2.998892e+003;4.290974e-002
3.000821e+003;4.212091e-002
3.002749e+003;4.174905e-002
3.004678e+003;4.152528e-002
3.006606e+003;4.067921e-002
3.008535e+003;4.033519e-002
3.010463e+003;4.049905e-002
3.012392e+003;4.012690e-002
3.014321e+003;3.966783e-002
3.016249e+003;3.932660e-002
3.018177e+003;3.891320e-002
3.020106e+003;3.850497e-002
3.022035e+003;3.833356e-002
3.023963e+003;3.825370e-002
3.025892e+003;3.806583e-002
3.027820e+003;3.798373e-002
3.029749e+003;3.754249e-002
3.031677e+003;3.710670e-002
3.033606e+003;3.667853e-002
3.035534e+003;3.623068e-002
3.037463e+003;3.625629e-002
3.039392e+003;3.624142e-002
3.041320e+003;3.586224e-002
3.043249e+003;3.567501e-002
3.045177e+003;3.540133e-002
3.047106e+003;3.474179e-002
3.049034e+003;3.436733e-002
3.050963e+003;3.430916e-002
3.052891e+003;3.377789e-002
3.054820e+003;3.325064e-002
3.056749e+003;3.286720e-002
3.058677e+003;3.274550e-002
3.060606e+003;3.267383e-002
3.062534e+003;3.247350e-002
3.064463e+003;3.242898e-002
3.066391e+003;3.234362e-002
3.068320e+003;3.224101e-002
3.070248e+003;3.168646e-002
3.072177e+003;3.103951e-002
3.074105e+003;3.073501e-002
3.076034e+003;3.079803e-002
3.077963e+003;3.069482e-002
3.079891e+003;3.034647e-002
3.081820e+003;3.009792e-002
3.083748e+003;3.009245e-002
3.085677e+003;3.015190e-002
3.087605e+003;2.999751e-002
3.089534e+003;2.961442e-002
3.091462e+003;2.916497e-002
3.093391e+003;2.910675e-002
3.095320e+003;2.869283e-002
3.097248e+003;2.797320e-002
3.099177e+003;2.733878e-002
3.101105e+003;2.728969e-002
3.103034e+003;2.714213e-002
3.104962e+003;2.615401e-002
3.106891e+003;2.551904e-002
3.108819e+003;2.516207e-002
3.110748e+003;2.498388e-002
3.112677e+003;2.453867e-002
3.114605e+003;2.369997e-002
3.116533e+003;2.287755e-002
3.118462e+003;2.239084e-002
3.120391e+003;2.216602e-002
3.122319e+003;2.206951e-002
3.124248e+003;2.179064e-002
3.126176e+003;2.131083e-002
3.128105e+003;2.087559e-002
3.130033e+003;2.072421e-002
3.131962e+003;2.035289e-002
3.133890e+003;2.028657e-002
3.135819e+003;2.016417e-002
3.137748e+003;1.981250e-002
3.139676e+003;1.990050e-002
3.141605e+003;2.027487e-002
3.143533e+003;2.016379e-002
3.145462e+003;2.016014e-002
3.147390e+003;2.012474e-002
3.149319e+003;1.955123e-002
3.151247e+003;1.933709e-002
3.153176e+003;1.931613e-002
3.155104e+003;1.909147e-002
3.157033e+003;1.896428e-002
3.158962e+003;1.900077e-002
3.160890e+003;1.871597e-002
3.162819e+003;1.882336e-002
3.164747e+003;1.885797e-002
3.166676e+003;1.841045e-002
3.168604e+003;1.848647e-002
3.170533e+003;1.862694e-002
3.172461e+003;1.867287e-002
3.174390e+003;1.888714e-002
3.176319e+003;1.886800e-002
3.178247e+003;1.883866e-002
3.180176e+003;1.888084e-002
3.182104e+003;1.861563e-002
3.184033e+003;1.864772e-002
3.185961e+003;1.863890e-002
3.187890e+003;1.824821e-002
3.189818e+003;1.818688e-002
3.191747e+003;1.794108e-002
3.193676e+003;1.777920e-002
3.195604e+003;1.813948e-002
3.197532e+003;1.852841e-002
3.199461e+003;1.894476e-002
3.201390e+003;1.890662e-002
3.203318e+003;1.807768e-002
3.205247e+003;1.765415e-002
3.207175e+003;1.781354e-002
3.209104e+003;1.800704e-002
3.211032e+003;1.805688e-002
3.212961e+003;1.791463e-002
3.214889e+003;1.834961e-002
3.216818e+003;1.851475e-002
3.218747e+003;1.838027e-002
3.220675e+003;1.852305e-002
3.222604e+003;1.849020e-002
3.224532e+003;1.838971e-002
3.226461e+003;1.811716e-002
3.228389e+003;1.796712e-002
3.230318e+003;1.821611e-002
3.232246e+003;1.820796e-002
3.234175e+003;1.830824e-002
3.236104e+003;1.856590e-002
3.238032e+003;1.820111e-002
3.239961e+003;1.759960e-002
3.241889e+003;1.782922e-002
3.243818e+003;1.821711e-002
3.245746e+003;1.806973e-002
3.247675e+003;1.784247e-002
3.249603e+003;1.778344e-002
3.251532e+003;1.775662e-002
3.253460e+003;1.748599e-002
3.255389e+003;1.738521e-002
3.257318e+003;1.739914e-002
3.259246e+003;1.740204e-002
3.261175e+003;1.767648e-002
3.263103e+003;1.802324e-002
3.265032e+003;1.814625e-002
3.266960e+003;1.801323e-002
3.268889e+003;1.827489e-002
3.270817e+003;1.846503e-002
3.272746e+003;1.840934e-002
3.274675e+003;1.831432e-002
3.276603e+003;1.837142e-002
3.278531e+003;1.800349e-002
3.280460e+003;1.750151e-002
3.282389e+003;1.766071e-002
3.284317e+003;1.835110e-002
3.286246e+003;1.865194e-002
3.288174e+003;1.859747e-002
3.290103e+003;1.838186e-002
3.292031e+003;1.814632e-002
3.293960e+003;1.816860e-002
3.295888e+003;1.802162e-002
3.297817e+003;1.809315e-002
3.299746e+003;1.810569e-002
3.301674e+003;1.797165e-002
3.303603e+003;1.783015e-002
3.305531e+003;1.764394e-002
3.307460e+003;1.775068e-002
3.309388e+003;1.841650e-002
3.311317e+003;1.844664e-002
3.313245e+003;1.817275e-002
3.315174e+003;1.810756e-002
3.317103e+003;1.812659e-002
3.319031e+003;1.811989e-002
3.320960e+003;1.825063e-002
3.322888e+003;1.840588e-002
3.324817e+003;1.822862e-002
3.326745e+003;1.775766e-002
3.328674e+003;1.767496e-002
3.330602e+003;1.802884e-002
3.332531e+003;1.834052e-002
3.334459e+003;1.882928e-002
3.336388e+003;1.896736e-002
3.338317e+003;1.850355e-002
3.340245e+003;1.835452e-002
3.342174e+003;1.838711e-002
3.344102e+003;1.862299e-002
3.346031e+003;1.886367e-002
3.347959e+003;1.871680e-002
3.349888e+003;1.847022e-002
3.351816e+003;1.862348e-002
3.353745e+003;1.870407e-002
3.355674e+003;1.870089e-002
3.357602e+003;1.866177e-002
3.359531e+003;1.878167e-002
3.361459e+003;1.880620e-002
3.363388e+003;1.898554e-002
3.365316e+003;1.930740e-002
3.367245e+003;1.934097e-002
3.369173e+003;1.928360e-002
3.371102e+003;1.954374e-002
3.373031e+003;1.951546e-002
3.374959e+003;1.899118e-002
3.376887e+003;1.874929e-002
3.378816e+003;1.876766e-002
3.380745e+003;1.872009e-002
3.382673e+003;1.869065e-002
3.384602e+003;1.867930e-002
3.386530e+003;1.822924e-002
3.388459e+003;1.797016e-002
3.390387e+003;1.852565e-002
3.392316e+003;1.873344e-002
3.394244e+003;1.839465e-002
3.396173e+003;1.788349e-002
3.398102e+003;1.785894e-002
3.400030e+003;1.810289e-002
3.401959e+003;1.776252e-002
3.403887e+003;1.782014e-002
3.405816e+003;1.810742e-002
3.407744e+003;1.792430e-002
3.409673e+003;1.762472e-002
3.411601e+003;1.800725e-002
3.413530e+003;1.799644e-002
3.415458e+003;1.748947e-002
3.417387e+003;1.752307e-002
3.419316e+003;1.807194e-002
3.421244e+003;1.815012e-002
3.423173e+003;1.794060e-002
3.425101e+003;1.794354e-002
3.427030e+003;1.788273e-002
3.428958e+003;1.786018e-002
3.430887e+003;1.783785e-002
3.432815e+003;1.757075e-002
3.434744e+003;1.710864e-002
3.436673e+003;1.732231e-002
3.438601e+003;1.807004e-002
3.440530e+003;1.850054e-002
3.442458e+003;1.796574e-002
3.444387e+003;1.720408e-002
3.446315e+003;1.705543e-002
3.448244e+003;1.730234e-002
3.450172e+003;1.723297e-002
3.452101e+003;1.704002e-002
3.454030e+003;1.740579e-002
3.455958e+003;1.813564e-002
3.457886e+003;1.800269e-002
3.459815e+003;1.760512e-002
3.461744e+003;1.740431e-002
3.463672e+003;1.744135e-002
3.465601e+003;1.712873e-002
3.467529e+003;1.672789e-002
3.469458e+003;1.667683e-002
3.471386e+003;1.683056e-002
3.473315e+003;1.701814e-002
3.475243e+003;1.691919e-002
3.477172e+003;1.694165e-002
3.479101e+003;1.681705e-002
3.481029e+003;1.695956e-002
3.482958e+003;1.740628e-002
3.484886e+003;1.727245e-002
3.486815e+003;1.664498e-002
3.488743e+003;1.678929e-002
3.490672e+003;1.664140e-002
3.492600e+003;1.616717e-002
3.494529e+003;1.633124e-002
3.496458e+003;1.654622e-002
3.498386e+003;1.708120e-002
3.500315e+003;1.740697e-002
3.502243e+003;1.679329e-002
3.504172e+003;1.629973e-002
3.506100e+003;1.659517e-002
3.508029e+003;1.680607e-002
3.509957e+003;1.730807e-002
3.511886e+003;1.753525e-002
3.513814e+003;1.715896e-002
3.515743e+003;1.671254e-002
3.517672e+003;1.687881e-002
3.519600e+003;1.734613e-002
3.521529e+003;1.665682e-002
3.523457e+003;1.606267e-002
3.525386e+003;1.611142e-002
3.527314e+003;1.623706e-002
3.529243e+003;1.628845e-002
3.531171e+003;1.635405e-002
3.533100e+003;1.626853e-002
3.535029e+003;1.589629e-002
3.536957e+003;1.600422e-002
3.538885e+003;1.630286e-002
3.540814e+003;1.606050e-002
3.542743e+003;1.576399e-002
3.544671e+003;1.597002e-002
3.546600e+003;1.610479e-002
3.548528e+003;1.643134e-002
3.550457e+003;1.684833e-002
3.552385e+003;1.687936e-002
3.554314e+003;1.664161e-002
3.556242e+003;1.669570e-002
3.558171e+003;1.702031e-002
3.560100e+003;1.690996e-002
3.562028e+003;1.662112e-002
3.563957e+003;1.652997e-002
3.565885e+003;1.639469e-002
3.567814e+003;1.640656e-002
3.569742e+003;1.689128e-002
3.571671e+003;1.762258e-002
3.573599e+003;1.769318e-002
3.575528e+003;1.770023e-002
3.577457e+003;1.793825e-002
3.579385e+003;1.798321e-002
3.581314e+003;1.809858e-002
3.583242e+003;1.829956e-002
3.585171e+003;1.737386e-002
3.587099e+003;1.679808e-002
3.589028e+003;1.803744e-002
3.590956e+003;1.926504e-002
3.592885e+003;1.974943e-002
3.594813e+003;2.018420e-002
3.596742e+003;2.062392e-002
3.598671e+003;2.157330e-002
3.600599e+003;2.236426e-002
3.602528e+003;2.314911e-002
3.604456e+003;2.369556e-002
3.606385e+003;2.315481e-002
3.608313e+003;2.192821e-002
3.610242e+003;2.195323e-002
3.612170e+003;2.220246e-002
3.614099e+003;2.204720e-002
3.616028e+003;2.122227e-002
3.617956e+003;1.994535e-002
3.619885e+003;1.996048e-002
3.621813e+003;2.056597e-002
3.623742e+003;2.070725e-002
3.625670e+003;2.003310e-002
3.627599e+003;1.722732e-002
3.629527e+003;1.671846e-002
3.631456e+003;1.892081e-002
3.633385e+003;1.978819e-002
3.635313e+003;1.986075e-002
3.637241e+003;2.000752e-002
3.639170e+003;2.050566e-002
3.641099e+003;2.090524e-002
3.643027e+003;2.142116e-002
3.644956e+003;2.038640e-002
3.646884e+003;1.761630e-002
3.648813e+003;1.679791e-002
3.650741e+003;1.912596e-002
3.652670e+003;2.146666e-002
3.654598e+003;2.054586e-002
3.656527e+003;1.943801e-002
3.658456e+003;2.069728e-002
3.660384e+003;2.117575e-002
3.662313e+003;2.092798e-002
3.664241e+003;2.080425e-002
3.666170e+003;2.031567e-002
3.668098e+003;1.830886e-002
3.670027e+003;1.672180e-002
3.671955e+003;1.775566e-002
3.673884e+003;1.629970e-002
3.675813e+003;1.536767e-002
3.677741e+003;1.838459e-002
3.679669e+003;1.992339e-002
3.681598e+003;2.024765e-002
3.683527e+003;2.041449e-002
3.685455e+003;1.990702e-002
3.687384e+003;1.768991e-002
3.689312e+003;1.713859e-002
3.691241e+003;1.842514e-002
3.693169e+003;1.993505e-002
3.695098e+003;2.065592e-002
3.697026e+003;2.038796e-002
3.698955e+003;1.997148e-002
3.700884e+003;1.955515e-002
3.702812e+003;1.972956e-002
3.704741e+003;2.001564e-002
3.706669e+003;1.939626e-002
3.708598e+003;1.834899e-002
3.710526e+003;1.693269e-002
3.712455e+003;1.675262e-002
3.714383e+003;1.822330e-002
3.716312e+003;1.884270e-002
3.718240e+003;1.873994e-002
3.720169e+003;1.862853e-002
3.722098e+003;1.866561e-002
3.724026e+003;1.860273e-002
3.725955e+003;1.819134e-002
3.727883e+003;1.817347e-002
3.729812e+003;1.740780e-002
3.731740e+003;1.593867e-002
3.733669e+003;1.577374e-002
3.735597e+003;1.586625e-002
3.737526e+003;1.713256e-002
3.739455e+003;1.802853e-002
3.741383e+003;1.685801e-002
3.743312e+003;1.302848e-002
3.745240e+003;1.343597e-002
3.747169e+003;1.509646e-002
3.749097e+003;1.341727e-002
3.751026e+003;1.360988e-002
3.752954e+003;1.598538e-002
3.754883e+003;1.811806e-002
3.756812e+003;1.838096e-002
3.758740e+003;1.835172e-002
3.760668e+003;1.845774e-002
3.762597e+003;1.890918e-002
3.764526e+003;1.879558e-002
3.766454e+003;1.925883e-002
3.768383e+003;1.899447e-002
3.770311e+003;1.869736e-002
3.772240e+003;1.948576e-002
3.774168e+003;2.017823e-002
3.776097e+003;1.988416e-002
3.778025e+003;1.883575e-002
3.779954e+003;1.863825e-002
3.781883e+003;1.955210e-002
3.783811e+003;1.988017e-002
3.785740e+003;2.025817e-002
3.787668e+003;2.013095e-002
3.789597e+003;1.990629e-002
3.791525e+003;2.026036e-002
3.793454e+003;2.053877e-002
3.795382e+003;2.030410e-002
3.797311e+003;2.027619e-002
3.799240e+003;1.838338e-002
3.801168e+003;1.658680e-002
3.803097e+003;1.872012e-002
3.805025e+003;1.944387e-002
3.806954e+003;1.849055e-002
3.808882e+003;1.978487e-002
3.810811e+003;2.071830e-002
3.812739e+003;2.084061e-002
3.814668e+003;1.864683e-002
3.816596e+003;1.846486e-002
3.818525e+003;1.988919e-002
3.820454e+003;1.901835e-002
3.822382e+003;2.008643e-002
3.824311e+003;2.129900e-002
3.826239e+003;2.125814e-002
3.828168e+003;2.159224e-002
3.830096e+003;2.110357e-002
3.832025e+003;2.046093e-002
3.833953e+003;2.015889e-002
3.835882e+003;1.854162e-002
3.837811e+003;1.747129e-002
3.839739e+003;1.918908e-002
3.841667e+003;2.067775e-002
3.843596e+003;2.110409e-002
3.845525e+003;2.169533e-002
3.847453e+003;2.197338e-002
3.849382e+003;2.018770e-002
3.851310e+003;1.639961e-002
3.853239e+003;1.382300e-002
3.855167e+003;1.715386e-002
3.857096e+003;2.088723e-002
3.859024e+003;2.132071e-002
3.860953e+003;2.074134e-002
3.862882e+003;2.020041e-002
3.864810e+003;2.031139e-002
3.866739e+003;2.091404e-002
3.868667e+003;1.976517e-002
3.870596e+003;2.021710e-002
3.872524e+003;2.151752e-002
3.874453e+003;2.240058e-002
3.876381e+003;2.370032e-002
3.878310e+003;2.296176e-002
3.880239e+003;2.199948e-002
3.882167e+003;2.223807e-002
3.884096e+003;2.154907e-002
3.886024e+003;2.095089e-002
3.887953e+003;2.191751e-002
3.889881e+003;2.117231e-002
3.891810e+003;2.087816e-002
3.893738e+003;2.198397e-002
3.895667e+003;2.212411e-002
3.897595e+003;2.192298e-002
3.899524e+003;2.169903e-002
3.901453e+003;2.112667e-002
3.903381e+003;2.101843e-002
3.905310e+003;2.250361e-002
3.907238e+003;2.369132e-002
3.909167e+003;2.367243e-002
3.911095e+003;2.389138e-002
3.913024e+003;2.375046e-002
3.914952e+003;2.302311e-002
3.916881e+003;2.264472e-002
3.918810e+003;2.285726e-002
3.920738e+003;2.298122e-002
3.922667e+003;2.290112e-002
3.924595e+003;2.306343e-002
3.926524e+003;2.370231e-002
3.928452e+003;2.383674e-002
3.930381e+003;2.315072e-002
3.932309e+003;2.239022e-002
3.934238e+003;2.268825e-002
3.936167e+003;2.316421e-002
3.938095e+003;2.328718e-002
3.940023e+003;2.291848e-002
3.941952e+003;2.263764e-002
3.943881e+003;2.256811e-002
3.945809e+003;2.214604e-002
3.947738e+003;2.229467e-002
3.949666e+003;2.260678e-002
3.951595e+003;2.284643e-002
3.953523e+003;2.256992e-002
3.955452e+003;2.268211e-002
3.957380e+003;2.354578e-002
3.959309e+003;2.347244e-002
3.961238e+003;2.269150e-002
3.963166e+003;2.167667e-002
3.965095e+003;2.204312e-002
3.967023e+003;2.290947e-002
3.968952e+003;2.304159e-002
3.970880e+003;2.273989e-002
3.972809e+003;2.243795e-002
3.974737e+003;2.242169e-002
3.976666e+003;2.281531e-002
3.978594e+003;2.268560e-002
3.980523e+003;2.242032e-002
3.982452e+003;2.215218e-002
3.984380e+003;2.194790e-002
3.986309e+003;2.198031e-002
3.988237e+003;2.212840e-002
3.990166e+003;2.203918e-002
3.992094e+003;2.166197e-002
3.994023e+003;2.162188e-002
3.995951e+003;2.187834e-002
3.997880e+003;2.218244e-002
3.999809e+003;2.248627e-002
4.001737e+003;0.000000e+000
