3.992094e+002;0.000000e+000
4.011380e+002;0.000000e+000
4.030665e+002;0.000000e+000
4.049951e+002;0.000000e+000
4.069236e+002;0.000000e+000
4.088522e+002;0.000000e+000
4.107807e+002;0.000000e+000
4.127093e+002;0.000000e+000
4.146378e+002;0.000000e+000
4.165664e+002;0.000000e+000
4.184949e+002;0.000000e+000
4.204235e+002;0.000000e+000
4.223520e+002;0.000000e+000
4.242806e+002;0.000000e+000
4.262091e+002;0.000000e+000
4.281377e+002;0.000000e+000
4.300662e+002;0.000000e+000
4.319948e+002;0.000000e+000
4.339233e+002;0.000000e+000
4.358519e+002;0.000000e+000
4.377804e+002;0.000000e+000
4.397090e+002;0.000000e+000
4.416375e+002;0.000000e+000
4.435660e+002;0.000000e+000
4.454946e+002;0.000000e+000
4.474232e+002;0.000000e+000
4.493517e+002;0.000000e+000
4.512802e+002;0.000000e+000
4.532088e+002;0.000000e+000
4.551373e+002;0.000000e+000
4.570659e+002;0.000000e+000
4.589944e+002;0.000000e+000
4.609230e+002;0.000000e+000
4.628515e+002;0.000000e+000
4.647801e+002;0.000000e+000
4.667086e+002;0.000000e+000
4.686372e+002;0.000000e+000
4.705657e+002;0.000000e+000
4.724943e+002;0.000000e+000
4.744228e+002;0.000000e+000
4.763513e+002;0.000000e+000
4.782799e+002;0.000000e+000
4.802085e+002;0.000000e+000
4.821370e+002;0.000000e+000
4.840656e+002;0.000000e+000
4.859941e+002;0.000000e+000
4.879226e+002;0.000000e+000
4.898512e+002;0.000000e+000
4.917798e+002;0.000000e+000
4.937083e+002;0.000000e+000
4.956368e+002;0.000000e+000
4.975654e+002;0.000000e+000
4.994939e+002;0.000000e+000
5.014225e+002;0.000000e+000
5.033510e+002;0.000000e+000
5.052796e+002;0.000000e+000
5.072081e+002;0.000000e+000
5.091367e+002;0.000000e+000
5.110652e+002;0.000000e+000
5.129938e+002;0.000000e+000
5.149223e+002;0.000000e+000
5.168509e+002;0.000000e+000
5.187794e+002;0.000000e+000
5.207079e+002;0.000000e+000
5.226365e+002;0.000000e+000
5.245651e+002;0.000000e+000
5.264936e+002;0.000000e+000
5.284222e+002;0.000000e+000
5.303507e+002;0.000000e+000
5.322792e+002;0.000000e+000
5.342078e+002;0.000000e+000
5.361364e+002;0.000000e+000
5.380649e+002;0.000000e+000
5.399935e+002;0.000000e+000
5.419220e+002;0.000000e+000
5.438505e+002;0.000000e+000
5.457791e+002;0.000000e+000
5.477076e+002;0.000000e+000
5.496362e+002;0.000000e+000
5.515648e+002;0.000000e+000
5.534933e+002;0.000000e+000
5.554218e+002;0.000000e+000
5.573504e+002;0.000000e+000
5.592789e+002;0.000000e+000
5.612075e+002;0.000000e+000
5.631360e+002;0.000000e+000
5.650646e+002;0.000000e+000
5.669931e+002;0.000000e+000
5.689217e+002;0.000000e+000
5.708502e+002;0.000000e+000
5.727787e+002;0.000000e+000
5.747073e+002;0.000000e+000
5.766359e+002;0.000000e+000
5.785644e+002;0.000000e+000
5.804930e+002;0.000000e+000
5.824215e+002;0.000000e+000
5.843500e+002;0.000000e+000
5.862786e+002;0.000000e+000
5.882072e+002;0.000000e+000
5.901357e+002;0.000000e+000
5.920643e+002;0.000000e+000
5.939928e+002;0.000000e+000
5.959213e+002;0.000000e+000
5.978499e+002;0.000000e+000
5.997784e+002;4.894098e-002
6.017070e+002;5.059629e-002
6.036355e+002;4.792026e-002
6.055641e+002;4.763102e-002
6.074926e+002;4.976371e-002
6.094211e+002;4.835118e-002
6.113497e+002;4.345739e-002
6.132783e+002;3.551972e-002
6.152068e+002;3.165210e-002
6.171354e+002;3.232039e-002
6.190639e+002;3.483907e-002
6.209924e+002;3.770299e-002
6.229210e+002;3.605625e-002
6.248495e+002;3.667139e-002
6.267781e+002;4.161505e-002
6.287067e+002;4.303049e-002
6.306352e+002;4.235788e-002
6.325637e+002;4.569347e-002
6.344923e+002;4.805729e-002
6.364208e+002;4.683200e-002
6.383494e+002;4.498674e-002
6.402780e+002;4.455804e-002
6.422065e+002;4.475348e-002
6.441350e+002;4.393636e-002
6.460636e+002;4.350460e-002
6.479921e+002;4.148135e-002
6.499207e+002;3.979894e-002
6.518492e+002;3.929501e-002
6.537778e+002;4.068951e-002
6.557063e+002;4.096705e-002
6.576349e+002;4.215877e-002
6.595634e+002;4.465626e-002
6.614919e+002;4.392936e-002
6.634205e+002;4.336112e-002
6.653491e+002;4.371861e-002
6.672776e+002;4.383798e-002
6.692062e+002;4.472229e-002
6.711347e+002;4.488631e-002
6.730632e+002;4.539983e-002
6.749918e+002;4.498549e-002
6.769203e+002;4.505959e-002
6.788489e+002;4.586884e-002
6.807775e+002;4.726971e-002
6.827060e+002;4.957083e-002
6.846345e+002;5.086520e-002
6.865631e+002;5.132867e-002
6.884916e+002;5.337209e-002
6.904202e+002;5.582487e-002
6.923488e+002;5.721488e-002
6.942773e+002;5.935040e-002
6.962058e+002;6.243575e-002
6.981344e+002;6.652255e-002
7.000629e+002;7.004942e-002
7.019915e+002;7.347303e-002
7.039200e+002;7.997857e-002
7.058486e+002;8.788926e-002
7.077771e+002;9.843428e-002
7.097057e+002;1.143900e-001
7.116342e+002;1.384762e-001
7.135627e+002;1.692919e-001
7.154913e+002;1.935372e-001
7.174199e+002;1.939630e-001
7.193484e+002;1.719444e-001
7.212770e+002;1.402016e-001
7.232055e+002;1.149506e-001
7.251340e+002;1.014240e-001
7.270626e+002;9.606587e-002
7.289911e+002;9.832931e-002
7.309197e+002;1.038616e-001
7.328483e+002;9.829083e-002
7.347768e+002;7.974748e-002
7.367053e+002;6.320466e-002
7.386339e+002;5.372468e-002
7.405624e+002;5.036580e-002
7.424910e+002;4.966874e-002
7.444196e+002;4.807443e-002
7.463481e+002;4.712894e-002
7.482766e+002;4.663923e-002
7.502052e+002;4.537169e-002
7.521337e+002;4.420059e-002
7.540623e+002;4.415272e-002
7.559908e+002;4.437488e-002
7.579194e+002;4.367149e-002
7.598479e+002;4.213862e-002
7.617765e+002;4.139015e-002
7.637050e+002;4.149491e-002
7.656335e+002;4.162610e-002
7.675621e+002;4.165833e-002
7.694907e+002;4.131351e-002
7.714192e+002;4.056104e-002
7.733478e+002;4.016648e-002
7.752763e+002;4.048130e-002
7.772048e+002;4.084083e-002
7.791334e+002;4.014300e-002
7.810620e+002;3.929381e-002
7.829905e+002;3.962532e-002
7.849191e+002;3.998294e-002
7.868476e+002;4.006055e-002
7.887761e+002;4.010717e-002
7.907047e+002;4.116303e-002
7.926332e+002;4.191691e-002
7.945618e+002;4.092275e-002
7.964903e+002;4.035235e-002
7.984189e+002;4.028022e-002
8.003474e+002;4.013170e-002
8.022759e+002;4.086340e-002
8.042045e+002;4.096385e-002
8.061331e+002;4.076469e-002
8.080616e+002;4.132313e-002
8.099902e+002;4.217725e-002
8.119187e+002;4.234729e-002
8.138472e+002;4.210919e-002
8.157758e+002;4.222665e-002
8.177043e+002;4.212248e-002
8.196329e+002;4.276185e-002
8.215615e+002;4.312610e-002
8.234900e+002;4.319998e-002
8.254185e+002;4.327806e-002
8.273471e+002;4.315779e-002
8.292756e+002;4.352159e-002
8.312042e+002;4.458256e-002
8.331328e+002;4.469754e-002
8.350613e+002;4.380488e-002
8.369898e+002;4.317733e-002
8.389184e+002;4.358101e-002
8.408469e+002;4.362844e-002
8.427755e+002;4.306949e-002
8.447040e+002;4.338199e-002
8.466326e+002;4.333509e-002
8.485611e+002;4.203695e-002
8.504897e+002;4.104017e-002
8.524182e+002;4.123935e-002
8.543467e+002;4.178910e-002
8.562753e+002;4.213591e-002
8.582039e+002;4.190286e-002
8.601324e+002;4.153075e-002
8.620610e+002;4.139113e-002
8.639895e+002;4.124110e-002
8.659180e+002;4.155868e-002
8.678466e+002;4.182117e-002
8.697751e+002;4.196603e-002
8.717037e+002;4.223436e-002
8.736323e+002;4.275373e-002
8.755608e+002;4.330408e-002
8.774893e+002;4.319943e-002
8.794179e+002;4.261950e-002
8.813464e+002;4.242900e-002
8.832750e+002;4.263734e-002
8.852036e+002;4.277026e-002
8.871321e+002;4.340466e-002
8.890606e+002;4.373309e-002
8.909892e+002;4.350233e-002
8.929177e+002;4.320525e-002
8.948463e+002;4.332748e-002
8.967748e+002;4.361276e-002
8.987034e+002;4.402227e-002
9.006319e+002;4.420199e-002
9.025605e+002;4.368421e-002
9.044890e+002;4.386165e-002
9.064175e+002;4.483594e-002
9.083461e+002;4.524514e-002
9.102747e+002;4.518498e-002
9.122032e+002;4.489289e-002
9.141318e+002;4.393039e-002
9.160603e+002;4.345479e-002
9.179888e+002;4.397636e-002
9.199174e+002;4.451105e-002
9.218459e+002;4.413350e-002
9.237745e+002;4.351507e-002
9.257031e+002;4.335365e-002
9.276316e+002;4.390751e-002
9.295601e+002;4.441950e-002
9.314887e+002;4.421424e-002
9.334172e+002;4.367395e-002
9.353458e+002;4.377358e-002
9.372744e+002;4.385066e-002
9.392029e+002;4.359078e-002
9.411314e+002;4.327498e-002
9.430600e+002;4.341432e-002
9.449885e+002;4.409613e-002
9.469171e+002;4.416233e-002
9.488456e+002;4.363116e-002
9.507742e+002;4.355991e-002
9.527027e+002;4.356873e-002
9.546313e+002;4.314201e-002
9.565598e+002;4.295264e-002
9.584883e+002;4.319812e-002
9.604169e+002;4.299171e-002
9.623455e+002;4.289606e-002
9.642740e+002;4.315219e-002
9.662026e+002;4.358617e-002
9.681311e+002;4.378274e-002
9.700596e+002;4.409455e-002
9.719882e+002;4.420987e-002
9.739167e+002;4.414924e-002
9.758453e+002;4.442530e-002
9.777739e+002;4.453935e-002
9.797024e+002;4.431957e-002
9.816309e+002;4.439840e-002
9.835595e+002;4.409873e-002
9.854880e+002;4.351046e-002
9.874166e+002;4.315845e-002
9.893452e+002;4.259545e-002
9.912737e+002;4.265390e-002
9.932022e+002;4.306096e-002
9.951307e+002;4.305632e-002
9.970593e+002;4.324764e-002
9.989879e+002;4.356543e-002
1.000916e+003;4.376240e-002
1.002845e+003;4.393505e-002
1.004773e+003;4.419329e-002
1.006702e+003;4.460544e-002
1.008631e+003;4.502460e-002
1.010559e+003;4.538647e-002
1.012488e+003;4.575620e-002
1.014416e+003;4.596791e-002
1.016345e+003;4.605827e-002
1.018273e+003;4.614102e-002
1.020202e+003;4.676376e-002
1.022130e+003;4.766852e-002
1.024059e+003;4.810859e-002
1.025988e+003;4.854067e-002
1.027916e+003;4.928168e-002
1.029845e+003;4.979049e-002
1.031773e+003;5.039051e-002
1.033702e+003;5.099478e-002
1.035630e+003;5.089135e-002
1.037559e+003;5.002730e-002
1.039487e+003;4.977975e-002
1.041416e+003;5.017299e-002
1.043344e+003;5.025252e-002
1.045273e+003;5.018545e-002
1.047202e+003;5.051954e-002
1.049130e+003;5.138117e-002
1.051059e+003;5.220443e-002
1.052987e+003;5.233452e-002
1.054916e+003;5.251012e-002
1.056844e+003;5.279832e-002
1.058773e+003;5.299615e-002
1.060701e+003;5.348233e-002
1.062630e+003;5.399939e-002
1.064558e+003;5.448688e-002
1.066487e+003;5.522543e-002
1.068416e+003;5.590901e-002
1.070344e+003;5.600433e-002
1.072273e+003;5.587495e-002
1.074201e+003;5.637903e-002
1.076130e+003;5.703703e-002
1.078058e+003;5.691871e-002
1.079987e+003;5.569237e-002
1.081915e+003;5.406457e-002
1.083844e+003;5.300226e-002
1.085773e+003;5.278867e-002
1.087701e+003;5.239190e-002
1.089630e+003;5.197588e-002
1.091558e+003;5.162303e-002
1.093487e+003;5.083518e-002
1.095415e+003;4.980618e-002
1.097344e+003;4.893757e-002
1.099272e+003;4.890916e-002
1.101201e+003;4.929600e-002
1.103129e+003;4.940102e-002
1.105058e+003;4.922779e-002
1.106987e+003;4.815261e-002
1.108915e+003;4.720565e-002
1.110844e+003;4.733658e-002
1.112772e+003;4.770483e-002
1.114701e+003;4.764718e-002
1.116629e+003;4.742993e-002
1.118558e+003;4.743676e-002
1.120486e+003;4.739463e-002
1.122415e+003;4.715955e-002
1.124344e+003;4.680114e-002
1.126272e+003;4.692316e-002
1.128201e+003;4.704596e-002
1.130129e+003;4.709847e-002
1.132058e+003;4.708558e-002
1.133986e+003;4.707088e-002
1.135915e+003;4.711638e-002
1.137843e+003;4.708089e-002
1.139772e+003;4.680863e-002
1.141700e+003;4.669819e-002
1.143629e+003;4.761143e-002
1.145557e+003;4.850313e-002
1.147486e+003;4.884045e-002
1.149415e+003;4.854348e-002
1.151343e+003;4.808794e-002
1.153272e+003;4.761930e-002
1.155200e+003;4.721337e-002
1.157129e+003;4.685033e-002
1.159057e+003;4.645574e-002
1.160986e+003;4.668247e-002
1.162914e+003;4.710117e-002
1.164843e+003;4.670037e-002
1.166771e+003;4.631870e-002
1.168700e+003;4.609809e-002
1.170629e+003;4.626923e-002
1.172557e+003;4.625604e-002
1.174486e+003;4.661917e-002
1.176414e+003;4.671306e-002
1.178343e+003;4.586688e-002
1.180271e+003;4.533351e-002
1.182200e+003;4.546233e-002
1.184128e+003;4.507164e-002
1.186057e+003;4.420804e-002
1.187986e+003;4.357884e-002
1.189914e+003;4.299811e-002
1.191843e+003;4.290590e-002
1.193771e+003;4.307823e-002
1.195700e+003;4.334706e-002
1.197628e+003;4.309631e-002
1.199557e+003;4.242276e-002
1.201485e+003;4.211624e-002
1.203414e+003;4.239404e-002
1.205343e+003;4.267279e-002
1.207271e+003;4.270961e-002
1.209200e+003;4.256720e-002
1.211128e+003;4.260247e-002
1.213057e+003;4.263288e-002
1.214985e+003;4.256603e-002
1.216914e+003;4.257469e-002
1.218842e+003;4.266527e-002
1.220771e+003;4.277267e-002
1.222699e+003;4.314563e-002
1.224628e+003;4.342110e-002
1.226557e+003;4.296753e-002
1.228485e+003;4.291782e-002
1.230414e+003;4.293479e-002
1.232342e+003;4.310966e-002
1.234271e+003;4.377043e-002
1.236199e+003;4.405260e-002
1.238128e+003;4.383973e-002
1.240056e+003;4.360167e-002
1.241985e+003;4.377919e-002
1.243913e+003;4.419443e-002
1.245842e+003;4.487452e-002
1.247771e+003;4.548198e-002
1.249699e+003;4.544202e-002
1.251628e+003;4.584578e-002
1.253556e+003;4.705242e-002
1.255485e+003;4.775838e-002
1.257413e+003;4.755449e-002
1.259342e+003;4.691914e-002
1.261270e+003;4.654348e-002
1.263199e+003;4.638473e-002
1.265127e+003;4.662979e-002
1.267056e+003;4.706601e-002
1.268985e+003;4.738225e-002
1.270913e+003;4.740676e-002
1.272842e+003;4.734892e-002
1.274770e+003;4.731770e-002
1.276699e+003;4.697042e-002
1.278627e+003;4.674586e-002
1.280556e+003;4.689607e-002
1.282484e+003;4.729376e-002
1.284413e+003;4.784749e-002
1.286342e+003;4.763387e-002
1.288270e+003;4.710741e-002
1.290199e+003;4.720990e-002
1.292127e+003;4.761764e-002
1.294056e+003;4.791848e-002
1.295984e+003;4.806747e-002
1.297913e+003;4.817600e-002
1.299841e+003;4.838448e-002
1.301770e+003;4.844019e-002
1.303698e+003;4.851088e-002
1.305627e+003;4.851395e-002
1.307556e+003;4.794535e-002
1.309484e+003;4.730599e-002
1.311413e+003;4.668922e-002
1.313341e+003;4.591995e-002
1.315270e+003;4.514347e-002
1.317198e+003;4.422601e-002
1.319127e+003;4.320965e-002
1.321055e+003;4.256720e-002
1.322984e+003;4.222983e-002
1.324912e+003;4.199618e-002
1.326841e+003;4.170090e-002
1.328770e+003;4.110267e-002
1.330698e+003;4.081281e-002
1.332627e+003;4.095468e-002
1.334555e+003;4.095620e-002
1.336484e+003;4.102128e-002
1.338412e+003;4.147158e-002
1.340341e+003;4.263953e-002
1.342269e+003;4.411010e-002
1.344198e+003;4.526882e-002
1.346126e+003;4.614367e-002
1.348055e+003;4.674335e-002
1.349984e+003;4.749719e-002
1.351912e+003;4.803431e-002
1.353841e+003;4.807402e-002
1.355769e+003;4.796503e-002
1.357698e+003;4.784383e-002
1.359626e+003;4.783894e-002
1.361555e+003;4.855474e-002
1.363483e+003;5.003808e-002
1.365412e+003;5.160385e-002
1.367341e+003;5.246540e-002
1.369269e+003;5.280872e-002
1.371198e+003;5.188645e-002
1.373126e+003;4.970337e-002
1.375055e+003;4.847287e-002
1.376983e+003;4.834833e-002
1.378912e+003;4.752000e-002
1.380840e+003;4.616228e-002
1.382769e+003;4.515707e-002
1.384698e+003;4.464007e-002
1.386626e+003;4.375753e-002
1.388555e+003;4.358555e-002
1.390483e+003;4.390792e-002
1.392412e+003;4.343176e-002
1.394340e+003;4.272251e-002
1.396269e+003;4.317250e-002
1.398197e+003;4.350613e-002
1.400126e+003;4.410790e-002
1.402054e+003;4.488936e-002
1.403983e+003;4.496330e-002
1.405911e+003;4.558250e-002
1.407840e+003;4.654632e-002
1.409769e+003;4.712838e-002
1.411697e+003;4.792773e-002
1.413626e+003;4.884920e-002
1.415554e+003;4.938346e-002
1.417483e+003;4.871281e-002
1.419411e+003;4.914752e-002
1.421340e+003;5.282983e-002
1.423268e+003;5.570962e-002
1.425197e+003;5.775110e-002
1.427125e+003;5.968531e-002
1.429054e+003;6.162137e-002
1.430983e+003;6.412032e-002
1.432911e+003;6.647095e-002
1.434840e+003;6.693175e-002
1.436768e+003;6.801560e-002
1.438697e+003;7.238904e-002
1.440625e+003;7.545060e-002
1.442554e+003;7.707022e-002
1.444482e+003;7.867021e-002
1.446411e+003;8.002287e-002
1.448340e+003;8.158290e-002
1.450268e+003;8.474623e-002
1.452197e+003;8.887251e-002
1.454125e+003;9.257694e-002
1.456054e+003;9.513505e-002
1.457982e+003;1.060972e-001
1.459911e+003;1.282489e-001
1.461839e+003;1.446033e-001
1.463768e+003;1.436594e-001
1.465697e+003;1.449584e-001
1.467625e+003;1.591264e-001
1.469554e+003;1.828547e-001
1.471482e+003;2.016607e-001
1.473411e+003;1.822610e-001
1.475339e+003;1.330056e-001
1.477268e+003;9.437019e-002
1.479196e+003;7.610879e-002
1.481125e+003;6.785256e-002
1.483053e+003;6.316362e-002
1.484982e+003;5.890771e-002
1.486911e+003;5.524515e-002
1.488839e+003;5.237650e-002
1.490768e+003;5.119884e-002
1.492696e+003;5.108336e-002
1.494625e+003;4.876133e-002
1.496553e+003;4.624100e-002
1.498482e+003;4.637116e-002
1.500410e+003;4.691515e-002
1.502339e+003;4.645313e-002
1.504267e+003;4.219327e-002
1.506196e+003;3.747595e-002
1.508125e+003;3.922360e-002
1.510053e+003;4.245319e-002
1.511982e+003;4.306985e-002
1.513910e+003;4.271169e-002
1.515839e+003;4.144416e-002
1.517767e+003;4.083210e-002
1.519696e+003;3.897434e-002
1.521624e+003;3.753273e-002
1.523553e+003;3.966910e-002
1.525481e+003;4.064144e-002
1.527410e+003;4.142922e-002
1.529339e+003;4.243149e-002
1.531267e+003;4.221088e-002
1.533196e+003;4.128031e-002
1.535124e+003;4.248801e-002
1.537053e+003;4.090334e-002
1.538981e+003;3.588679e-002
1.540910e+003;3.574610e-002
1.542838e+003;3.906779e-002
1.544767e+003;4.152400e-002
1.546695e+003;4.381324e-002
1.548624e+003;4.466291e-002
1.550553e+003;4.515439e-002
1.552481e+003;4.520142e-002
1.554410e+003;4.444835e-002
1.556338e+003;4.299895e-002
1.558267e+003;3.973626e-002
1.560195e+003;4.329244e-002
1.562124e+003;5.059361e-002
1.564052e+003;5.309425e-002
1.565981e+003;5.279847e-002
1.567910e+003;5.075957e-002
1.569838e+003;4.871314e-002
1.571767e+003;4.907295e-002
1.573695e+003;4.754499e-002
1.575624e+003;4.386246e-002
1.577552e+003;4.520862e-002
1.579481e+003;4.785344e-002
1.581409e+003;4.783832e-002
1.583338e+003;4.763480e-002
1.585266e+003;4.741902e-002
1.587195e+003;4.721031e-002
1.589124e+003;4.701775e-002
1.591052e+003;4.698097e-002
1.592981e+003;4.669004e-002
1.594909e+003;4.635542e-002
1.596838e+003;4.611453e-002
1.598766e+003;4.623411e-002
1.600695e+003;4.623846e-002
1.602623e+003;4.617522e-002
1.604552e+003;4.615388e-002
1.606480e+003;4.592485e-002
1.608409e+003;4.565361e-002
1.610338e+003;4.560392e-002
1.612266e+003;4.536551e-002
1.614195e+003;4.369439e-002
1.616123e+003;4.059152e-002
1.618052e+003;4.171833e-002
1.619980e+003;4.398909e-002
1.621909e+003;4.323369e-002
1.623837e+003;4.289214e-002
1.625766e+003;4.345065e-002
1.627694e+003;4.352082e-002
1.629623e+003;4.446740e-002
1.631552e+003;4.469732e-002
1.633480e+003;4.208210e-002
1.635409e+003;3.953240e-002
1.637337e+003;4.176353e-002
1.639266e+003;4.436240e-002
1.641194e+003;4.484021e-002
1.643123e+003;4.416692e-002
1.645051e+003;4.154314e-002
1.646980e+003;4.063322e-002
1.648909e+003;4.247935e-002
1.650837e+003;3.921776e-002
1.652766e+003;3.367899e-002
1.654694e+003;3.778608e-002
1.656623e+003;4.311036e-002
1.658551e+003;4.421035e-002
1.660480e+003;4.333626e-002
1.662408e+003;4.212328e-002
1.664337e+003;4.268153e-002
1.666266e+003;4.277308e-002
1.668194e+003;4.066742e-002
1.670123e+003;3.998389e-002
1.672051e+003;4.118886e-002
1.673980e+003;4.007421e-002
1.675908e+003;3.979022e-002
1.677837e+003;4.197975e-002
1.679765e+003;4.214128e-002
1.681694e+003;3.983932e-002
1.683622e+003;3.536898e-002
1.685551e+003;3.663592e-002
1.687479e+003;4.094758e-002
1.689408e+003;4.179198e-002
1.691337e+003;4.190242e-002
1.693265e+003;4.040242e-002
1.695194e+003;3.657046e-002
1.697122e+003;3.655871e-002
1.699051e+003;3.513633e-002
1.700979e+003;3.456899e-002
1.702908e+003;3.797777e-002
1.704836e+003;3.810887e-002
1.706765e+003;3.828286e-002
1.708693e+003;3.886569e-002
1.710622e+003;3.903466e-002
1.712551e+003;3.795835e-002
1.714479e+003;3.520621e-002
1.716408e+003;3.158778e-002
1.718336e+003;3.170574e-002
1.720265e+003;3.478062e-002
1.722193e+003;3.570505e-002
1.724122e+003;3.543544e-002
1.726050e+003;3.527118e-002
1.727979e+003;3.465655e-002
1.729908e+003;3.390437e-002
1.731836e+003;3.138058e-002
1.733765e+003;2.833968e-002
1.735693e+003;3.100435e-002
1.737622e+003;3.378305e-002
1.739550e+003;3.318529e-002
1.741479e+003;3.327342e-002
1.743407e+003;3.345079e-002
1.745336e+003;3.310250e-002
1.747265e+003;3.187818e-002
1.749193e+003;3.014661e-002
1.751122e+003;2.906856e-002
1.753050e+003;2.995569e-002
1.754979e+003;2.976318e-002
1.756907e+003;2.872720e-002
1.758836e+003;2.839075e-002
1.760764e+003;2.727579e-002
1.762693e+003;2.684476e-002
1.764621e+003;2.732858e-002
1.766550e+003;2.637105e-002
1.768479e+003;2.560823e-002
1.770407e+003;2.470534e-002
1.772336e+003;2.365721e-002
1.774264e+003;2.511505e-002
1.776193e+003;2.643961e-002
1.778121e+003;2.638031e-002
1.780050e+003;2.598974e-002
1.781978e+003;2.590870e-002
1.783907e+003;2.553141e-002
1.785835e+003;2.548042e-002
1.787764e+003;2.577609e-002
1.789693e+003;2.500185e-002
1.791621e+003;2.348496e-002
1.793550e+003;2.366036e-002
1.795478e+003;2.505039e-002
1.797407e+003;2.530597e-002
1.799335e+003;2.467195e-002
1.801264e+003;2.444006e-002
1.803192e+003;2.522650e-002
1.805121e+003;2.583597e-002
1.807049e+003;2.592196e-002
1.808978e+003;2.549328e-002
1.810907e+003;2.517088e-002
1.812835e+003;2.540928e-002
1.814764e+003;2.577634e-002
1.816692e+003;2.582148e-002
1.818621e+003;2.598422e-002
1.820549e+003;2.581765e-002
1.822478e+003;2.512913e-002
1.824406e+003;2.440809e-002
1.826335e+003;2.436309e-002
1.828264e+003;2.396431e-002
1.830192e+003;2.379946e-002
1.832121e+003;2.452124e-002
1.834049e+003;2.456588e-002
1.835978e+003;2.434557e-002
1.837906e+003;2.434855e-002
1.839835e+003;2.433772e-002
1.841763e+003;2.350986e-002
1.843692e+003;2.210009e-002
1.845620e+003;2.295111e-002
1.847549e+003;2.409567e-002
1.849478e+003;2.443031e-002
1.851406e+003;2.468405e-002
1.853335e+003;2.464969e-002
1.855263e+003;2.460378e-002
1.857192e+003;2.445920e-002
1.859120e+003;2.432342e-002
1.861049e+003;2.437217e-002
1.862977e+003;2.474901e-002
1.864906e+003;2.485285e-002
1.866834e+003;2.419266e-002
1.868763e+003;2.366074e-002
1.870692e+003;2.454323e-002
1.872620e+003;2.525203e-002
1.874549e+003;2.533554e-002
1.876477e+003;2.560630e-002
1.878406e+003;2.580569e-002
1.880334e+003;2.600814e-002
1.882263e+003;2.617685e-002
1.884191e+003;2.666345e-002
1.886120e+003;2.767025e-002
1.888048e+003;2.829356e-002
1.889977e+003;2.856220e-002
1.891906e+003;2.932811e-002
1.893834e+003;2.986077e-002
1.895763e+003;2.988490e-002
1.897691e+003;2.977535e-002
1.899620e+003;2.987482e-002
1.901548e+003;2.979902e-002
1.903477e+003;2.955404e-002
1.905405e+003;2.934923e-002
1.907334e+003;2.890279e-002
1.909262e+003;2.840571e-002
1.911191e+003;2.838683e-002
1.913120e+003;2.819080e-002
1.915048e+003;2.747056e-002
1.916977e+003;2.666165e-002
1.918905e+003;2.674301e-002
1.920834e+003;2.689626e-002
1.922762e+003;2.656562e-002
1.924691e+003;2.692062e-002
1.926619e+003;2.724087e-002
1.928548e+003;2.718294e-002
1.930477e+003;2.685681e-002
1.932405e+003;2.663527e-002
1.934334e+003;2.684377e-002
1.936262e+003;2.688956e-002
1.938191e+003;2.679929e-002
1.940119e+003;2.647395e-002
1.942048e+003;2.603438e-002
1.943976e+003;2.601443e-002
1.945905e+003;2.622982e-002
1.947833e+003;2.640059e-002
1.949762e+003;2.658479e-002
1.951691e+003;2.678502e-002
1.953619e+003;2.675665e-002
1.955548e+003;2.679390e-002
1.957476e+003;2.680800e-002
1.959405e+003;2.669118e-002
1.961333e+003;2.648779e-002
1.963262e+003;2.656936e-002
1.965190e+003;2.651297e-002
1.967119e+003;2.611590e-002
1.969047e+003;2.605018e-002
1.970976e+003;2.602066e-002
1.972905e+003;2.590740e-002
1.974833e+003;2.624675e-002
1.976762e+003;2.638070e-002
1.978690e+003;2.607840e-002
1.980619e+003;2.586541e-002
1.982547e+003;2.590420e-002
1.984476e+003;2.604926e-002
1.986404e+003;2.598731e-002
1.988333e+003;2.630335e-002
1.990261e+003;2.637151e-002
1.992190e+003;2.604856e-002
1.994119e+003;2.618614e-002
1.996047e+003;2.654347e-002
1.997976e+003;2.652952e-002
1.999904e+003;2.660878e-002
2.001833e+003;2.694032e-002
2.003761e+003;2.725854e-002
2.005690e+003;2.767240e-002
2.007618e+003;2.821477e-002
2.009547e+003;2.899551e-002
2.011476e+003;3.002495e-002
2.013404e+003;3.087907e-002
2.015333e+003;3.148570e-002
2.017261e+003;3.193920e-002
2.019190e+003;3.204196e-002
2.021118e+003;3.227780e-002
2.023047e+003;3.244580e-002
2.024975e+003;3.193474e-002
2.026904e+003;3.115867e-002
2.028833e+003;3.060547e-002
2.030761e+003;3.020802e-002
2.032690e+003;2.974249e-002
2.034618e+003;2.916298e-002
2.036547e+003;2.877145e-002
2.038475e+003;2.853485e-002
2.040404e+003;2.831587e-002
2.042332e+003;2.835941e-002
2.044261e+003;2.831312e-002
2.046189e+003;2.812200e-002
2.048118e+003;2.790412e-002
2.050047e+003;2.773767e-002
2.051975e+003;2.766746e-002
2.053904e+003;2.776391e-002
2.055832e+003;2.774547e-002
2.057761e+003;2.758822e-002
2.059689e+003;2.744147e-002
2.061618e+003;2.739136e-002
2.063546e+003;2.734481e-002
2.065475e+003;2.714774e-002
2.067404e+003;2.702434e-002
2.069332e+003;2.684853e-002
2.071260e+003;2.673389e-002
2.073189e+003;2.678854e-002
2.075118e+003;2.681896e-002
2.077046e+003;2.702745e-002
2.078975e+003;2.720104e-002
2.080903e+003;2.700661e-002
2.082832e+003;2.668512e-002
2.084760e+003;2.675031e-002
2.086689e+003;2.678037e-002
2.088617e+003;2.632620e-002
2.090546e+003;2.614845e-002
2.092475e+003;2.641028e-002
2.094403e+003;2.630064e-002
2.096332e+003;2.622961e-002
2.098260e+003;2.641419e-002
2.100189e+003;2.664513e-002
2.102117e+003;2.657520e-002
2.104046e+003;2.648275e-002
2.105974e+003;2.649236e-002
2.107903e+003;2.641989e-002
2.109832e+003;2.616886e-002
2.111760e+003;2.610035e-002
2.113688e+003;2.610155e-002
2.115617e+003;2.594777e-002
2.117546e+003;2.598605e-002
2.119474e+003;2.641486e-002
2.121403e+003;2.650332e-002
2.123331e+003;2.650649e-002
2.125260e+003;2.654819e-002
2.127188e+003;2.645683e-002
2.129117e+003;2.638507e-002
2.131045e+003;2.651878e-002
2.132974e+003;2.695443e-002
2.134903e+003;2.739220e-002
2.136831e+003;2.765224e-002
2.138760e+003;2.774413e-002
2.140688e+003;2.776585e-002
2.142617e+003;2.799154e-002
2.144545e+003;2.825028e-002
2.146474e+003;2.828047e-002
2.148402e+003;2.820604e-002
2.150331e+003;2.808623e-002
2.152260e+003;2.798893e-002
2.154188e+003;2.784551e-002
2.156117e+003;2.790963e-002
2.158045e+003;2.797013e-002
2.159974e+003;2.801695e-002
2.161902e+003;2.762529e-002
2.163831e+003;2.719275e-002
2.165759e+003;2.738377e-002
2.167688e+003;2.787988e-002
2.169616e+003;2.794536e-002
2.171545e+003;2.776002e-002
2.173474e+003;2.791027e-002
2.175402e+003;2.799105e-002
2.177331e+003;2.795444e-002
2.179259e+003;2.799419e-002
2.181188e+003;2.816224e-002
2.183116e+003;2.813936e-002
2.185045e+003;2.787349e-002
2.186973e+003;2.747183e-002
2.188902e+003;2.751433e-002
2.190831e+003;2.776062e-002
2.192759e+003;2.773827e-002
2.194688e+003;2.776281e-002
2.196616e+003;2.786600e-002
2.198545e+003;2.794105e-002
2.200473e+003;2.783251e-002
2.202402e+003;2.783067e-002
2.204330e+003;2.808591e-002
2.206259e+003;2.812861e-002
2.208188e+003;2.808471e-002
2.210116e+003;2.798320e-002
2.212044e+003;2.797002e-002
2.213973e+003;2.814145e-002
2.215902e+003;2.806905e-002
2.217830e+003;2.805566e-002
2.219759e+003;2.813770e-002
2.221687e+003;2.827492e-002
2.223616e+003;2.827789e-002
2.225544e+003;2.827234e-002
2.227473e+003;2.834947e-002
2.229401e+003;2.828992e-002
2.231330e+003;2.815110e-002
2.233259e+003;2.783597e-002
2.235187e+003;2.774349e-002
2.237116e+003;2.798971e-002
2.239044e+003;2.816315e-002
2.240973e+003;2.848092e-002
2.242901e+003;2.868299e-002
2.244830e+003;2.854688e-002
2.246758e+003;2.866006e-002
2.248687e+003;2.858626e-002
2.250615e+003;2.879822e-002
2.252544e+003;2.935310e-002
2.254473e+003;2.978010e-002
2.256401e+003;2.991816e-002
2.258330e+003;3.007722e-002
2.260258e+003;3.003006e-002
2.262187e+003;2.970459e-002
2.264115e+003;2.980051e-002
2.266044e+003;3.017155e-002
2.267972e+003;3.064856e-002
2.269901e+003;3.112788e-002
2.271830e+003;3.123006e-002
2.273758e+003;3.129376e-002
2.275687e+003;3.151955e-002
2.277615e+003;3.193824e-002
2.279544e+003;3.233948e-002
2.281472e+003;3.238460e-002
2.283401e+003;3.234291e-002
2.285329e+003;3.228994e-002
2.287258e+003;3.221482e-002
2.289187e+003;3.231078e-002
2.291115e+003;3.243923e-002
2.293043e+003;3.223658e-002
2.294972e+003;3.240709e-002
2.296901e+003;3.290781e-002
2.298829e+003;3.327196e-002
2.300758e+003;3.366592e-002
2.302686e+003;3.366785e-002
2.304615e+003;3.350672e-002
2.306543e+003;3.334787e-002
2.308472e+003;3.345780e-002
2.310400e+003;3.391845e-002
2.312329e+003;3.448895e-002
2.314258e+003;3.476336e-002
2.316186e+003;3.476479e-002
2.318115e+003;3.519187e-002
2.320043e+003;3.559610e-002
2.321972e+003;3.572271e-002
2.323900e+003;3.590100e-002
2.325829e+003;3.587851e-002
2.327757e+003;3.628295e-002
2.329686e+003;3.673359e-002
2.331615e+003;3.664976e-002
2.333543e+003;3.612974e-002
2.335472e+003;3.604632e-002
2.337400e+003;3.645898e-002
2.339329e+003;3.665070e-002
2.341257e+003;3.658527e-002
2.343186e+003;3.691594e-002
2.345114e+003;3.719535e-002
2.347043e+003;3.687485e-002
2.348971e+003;3.616719e-002
2.350900e+003;3.550577e-002
2.352829e+003;3.482822e-002
2.354757e+003;3.391279e-002
2.356686e+003;3.324824e-002
2.358614e+003;3.271931e-002
2.360543e+003;3.201388e-002
2.362471e+003;3.145602e-002
2.364400e+003;3.104175e-002
2.366328e+003;3.105865e-002
2.368257e+003;3.131527e-002
2.370186e+003;3.142475e-002
2.372114e+003;3.148862e-002
2.374042e+003;3.132987e-002
2.375971e+003;3.106816e-002
2.377900e+003;3.105798e-002
2.379828e+003;3.123767e-002
2.381757e+003;3.139508e-002
2.383685e+003;3.159847e-002
2.385614e+003;3.138870e-002
2.387542e+003;3.142881e-002
2.389471e+003;3.189313e-002
2.391399e+003;3.210221e-002
2.393328e+003;3.194112e-002
2.395257e+003;3.200432e-002
2.397185e+003;3.215851e-002
2.399114e+003;3.218880e-002
2.401042e+003;3.235683e-002
2.402971e+003;3.231271e-002
2.404899e+003;3.226471e-002
2.406828e+003;3.239124e-002
2.408756e+003;3.272391e-002
2.410685e+003;3.307633e-002
2.412614e+003;3.330079e-002
2.414542e+003;3.323991e-002
2.416471e+003;3.328620e-002
2.418399e+003;3.358408e-002
2.420328e+003;3.366459e-002
2.422256e+003;3.353847e-002
2.424185e+003;3.315618e-002
2.426113e+003;3.290409e-002
2.428042e+003;3.279956e-002
2.429970e+003;3.244283e-002
2.431899e+003;3.231907e-002
2.433828e+003;3.266529e-002
2.435756e+003;3.268497e-002
2.437685e+003;3.203871e-002
2.439613e+003;3.146889e-002
2.441542e+003;3.151025e-002
2.443470e+003;3.168671e-002
2.445399e+003;3.176748e-002
2.447327e+003;3.177910e-002
2.449256e+003;3.166785e-002
2.451185e+003;3.184067e-002
2.453113e+003;3.171030e-002
2.455042e+003;3.172089e-002
2.456970e+003;3.202555e-002
2.458899e+003;3.209061e-002
2.460827e+003;3.228633e-002
2.462756e+003;3.246193e-002
2.464684e+003;3.251750e-002
2.466613e+003;3.259146e-002
2.468542e+003;3.302316e-002
2.470470e+003;3.385064e-002
2.472398e+003;3.460695e-002
2.474327e+003;3.483734e-002
2.476256e+003;3.473565e-002
2.478184e+003;3.452343e-002
2.480113e+003;3.445111e-002
2.482041e+003;3.430142e-002
2.483970e+003;3.422759e-002
2.485898e+003;3.435492e-002
2.487827e+003;3.416106e-002
2.489755e+003;3.427459e-002
2.491684e+003;3.445104e-002
2.493613e+003;3.432885e-002
2.495541e+003;3.399971e-002
2.497470e+003;3.414923e-002
2.499398e+003;3.469039e-002
2.501327e+003;3.478191e-002
2.503255e+003;3.478583e-002
2.505184e+003;3.506775e-002
2.507112e+003;3.523643e-002
2.509041e+003;3.539511e-002
2.510969e+003;3.549164e-002
2.512898e+003;3.564181e-002
2.514827e+003;3.563728e-002
2.516755e+003;3.559409e-002
2.518684e+003;3.598066e-002
2.520612e+003;3.657630e-002
2.522541e+003;3.708274e-002
2.524469e+003;3.747552e-002
2.526398e+003;3.791178e-002
2.528326e+003;3.813854e-002
2.530255e+003;3.805306e-002
2.532184e+003;3.764080e-002
2.534112e+003;3.734991e-002
2.536041e+003;3.713370e-002
2.537969e+003;3.675836e-002
2.539898e+003;3.681058e-002
2.541826e+003;3.732355e-002
2.543755e+003;3.759624e-002
2.545683e+003;3.792316e-002
2.547612e+003;3.826542e-002
2.549541e+003;3.850938e-002
2.551469e+003;3.883689e-002
2.553397e+003;3.925464e-002
2.555326e+003;3.928126e-002
2.557255e+003;3.886634e-002
2.559183e+003;3.882551e-002
2.561112e+003;3.925714e-002
2.563040e+003;3.951785e-002
2.564969e+003;3.972464e-002
2.566897e+003;3.972356e-002
2.568826e+003;3.997466e-002
2.570754e+003;4.049538e-002
2.572683e+003;4.054208e-002
2.574612e+003;4.037708e-002
2.576540e+003;4.056678e-002
2.578469e+003;4.115801e-002
2.580397e+003;4.181146e-002
2.582326e+003;4.194782e-002
2.584254e+003;4.198680e-002
2.586183e+003;4.238443e-002
2.588111e+003;4.288823e-002
2.590040e+003;4.342059e-002
2.591969e+003;4.372726e-002
2.593897e+003;4.410005e-002
2.595826e+003;4.475384e-002
2.597754e+003;4.526308e-002
2.599683e+003;4.572462e-002
2.601611e+003;4.612131e-002
2.603540e+003;4.618473e-002
2.605468e+003;4.630433e-002
2.607397e+003;4.664355e-002
2.609325e+003;4.727617e-002
2.611254e+003;4.805230e-002
2.613183e+003;4.872204e-002
2.615111e+003;4.907436e-002
2.617040e+003;4.942779e-002
2.618968e+003;4.996217e-002
2.620897e+003;5.094485e-002
2.622825e+003;5.177374e-002
2.624754e+003;5.220208e-002
2.626682e+003;5.285535e-002
2.628611e+003;5.362761e-002
2.630540e+003;5.408585e-002
2.632468e+003;5.445097e-002
2.634396e+003;5.465711e-002
2.636325e+003;5.460015e-002
2.638254e+003;5.421110e-002
2.640182e+003;5.394916e-002
2.642111e+003;5.391168e-002
2.644039e+003;5.367744e-002
2.645968e+003;5.353513e-002
2.647896e+003;5.355249e-002
2.649825e+003;5.356055e-002
2.651753e+003;5.335845e-002
2.653682e+003;5.336624e-002
2.655611e+003;5.362802e-002
2.657539e+003;5.363098e-002
2.659468e+003;5.374718e-002
2.661396e+003;5.396180e-002
2.663325e+003;5.386963e-002
2.665253e+003;5.359867e-002
2.667182e+003;5.312716e-002
2.669110e+003;5.247808e-002
2.671039e+003;5.223799e-002
2.672968e+003;5.217648e-002
2.674896e+003;5.194496e-002
2.676825e+003;5.158090e-002
2.678753e+003;5.122780e-002
2.680682e+003;5.111351e-002
2.682610e+003;5.099705e-002
2.684539e+003;5.100059e-002
2.686467e+003;5.098513e-002
2.688396e+003;5.083037e-002
2.690324e+003;5.060713e-002
2.692253e+003;5.057976e-002
2.694182e+003;5.084516e-002
2.696110e+003;5.121789e-002
2.698039e+003;5.145935e-002
2.699967e+003;5.155609e-002
2.701896e+003;5.182249e-002
2.703824e+003;5.223754e-002
2.705753e+003;5.243014e-002
2.707681e+003;5.278324e-002
2.709610e+003;5.326933e-002
2.711539e+003;5.351471e-002
2.713467e+003;5.378558e-002
2.715396e+003;5.409955e-002
2.717324e+003;5.456284e-002
2.719253e+003;5.473126e-002
2.721181e+003;5.500153e-002
2.723110e+003;5.569421e-002
2.725038e+003;5.624059e-002
2.726967e+003;5.646822e-002
2.728896e+003;5.673505e-002
2.730824e+003;5.708718e-002
2.732752e+003;5.736142e-002
2.734681e+003;5.798824e-002
2.736610e+003;5.830735e-002
2.738538e+003;5.819053e-002
2.740467e+003;5.827146e-002
2.742395e+003;5.845122e-002
2.744324e+003;5.868718e-002
2.746252e+003;5.897253e-002
2.748181e+003;5.918729e-002
2.750109e+003;5.933217e-002
2.752038e+003;5.946415e-002
2.753967e+003;5.972329e-002
2.755895e+003;6.009557e-002
2.757824e+003;6.053643e-002
2.759752e+003;6.105911e-002
2.761681e+003;6.189559e-002
2.763609e+003;6.273356e-002
2.765538e+003;6.367305e-002
2.767466e+003;6.423986e-002
2.769395e+003;6.450932e-002
2.771323e+003;6.501114e-002
2.773252e+003;6.602438e-002
2.775181e+003;6.719805e-002
2.777109e+003;6.792182e-002
2.779038e+003;6.850910e-002
2.780966e+003;6.935373e-002
2.782895e+003;7.056014e-002
2.784823e+003;7.172880e-002
2.786752e+003;7.267214e-002
2.788680e+003;7.327636e-002
2.790609e+003;7.416899e-002
2.792538e+003;7.513026e-002
2.794466e+003;7.604792e-002
2.796395e+003;7.700134e-002
2.798323e+003;7.789826e-002
2.800252e+003;7.908009e-002
2.802180e+003;8.022211e-002
2.804109e+003;8.109636e-002
2.806037e+003;8.233720e-002
2.807966e+003;8.376539e-002
2.809895e+003;8.486035e-002
2.811823e+003;8.605307e-002
2.813751e+003;8.771011e-002
2.815680e+003;8.932760e-002
2.817609e+003;9.065080e-002
2.819537e+003;9.237048e-002
2.821466e+003;9.483016e-002
2.823394e+003;9.745889e-002
2.825323e+003;1.001452e-001
2.827251e+003;1.033491e-001
2.829180e+003;1.075255e-001
2.831108e+003;1.125852e-001
2.833037e+003;1.185403e-001
2.834966e+003;1.261699e-001
2.836894e+003;1.362549e-001
2.838823e+003;1.496609e-001
2.840751e+003;1.682936e-001
2.842680e+003;1.943954e-001
2.844608e+003;2.289484e-001
2.846537e+003;2.687179e-001
2.848465e+003;2.965032e-001
2.850394e+003;2.877193e-001
2.852323e+003;2.470571e-001
2.854251e+003;2.019498e-001
2.856180e+003;1.671071e-001
2.858108e+003;1.431401e-001
2.860037e+003;1.275156e-001
2.861965e+003;1.177085e-001
2.863894e+003;1.120877e-001
2.865822e+003;1.090612e-001
2.867751e+003;1.084064e-001
2.869679e+003;1.094242e-001
2.871608e+003;1.115823e-001
2.873536e+003;1.151424e-001
2.875465e+003;1.194131e-001
2.877394e+003;1.244058e-001
2.879322e+003;1.301063e-001
2.881251e+003;1.356997e-001
2.883179e+003;1.415085e-001
2.885108e+003;1.472676e-001
2.887036e+003;1.527083e-001
2.888965e+003;1.589130e-001
2.890893e+003;1.658605e-001
2.892822e+003;1.720557e-001
2.894750e+003;1.777692e-001
2.896679e+003;1.838811e-001
2.898608e+003;1.904025e-001
2.900536e+003;1.976726e-001
2.902465e+003;2.068481e-001
2.904393e+003;2.179631e-001
2.906322e+003;2.315666e-001
2.908250e+003;2.496656e-001
2.910179e+003;2.724733e-001
2.912107e+003;2.986168e-001
2.914036e+003;3.228767e-001
2.915965e+003;3.349584e-001
2.917893e+003;3.269466e-001
2.919822e+003;3.019149e-001
2.921750e+003;2.692452e-001
2.923679e+003;2.365978e-001
2.925607e+003;2.078085e-001
2.927536e+003;1.834189e-001
2.929464e+003;1.630694e-001
2.931393e+003;1.464156e-001
2.933322e+003;1.320915e-001
2.935250e+003;1.196293e-001
2.937178e+003;1.096070e-001
2.939107e+003;1.015070e-001
2.941036e+003;9.418601e-002
2.942964e+003;8.807968e-002
2.944893e+003;8.365948e-002
2.946821e+003;8.043882e-002
2.948750e+003;7.688310e-002
2.950678e+003;7.371530e-002
2.952607e+003;7.170382e-002
2.954535e+003;7.019112e-002
2.956464e+003;6.900415e-002
2.958393e+003;6.802850e-002
2.960321e+003;6.682171e-002
2.962250e+003;6.562848e-002
2.964178e+003;6.488112e-002
2.966107e+003;6.389160e-002
2.968035e+003;6.284962e-002
2.969964e+003;6.254292e-002
2.971892e+003;6.211993e-002
2.973821e+003;6.136991e-002
2.975750e+003;6.051663e-002
2.977678e+003;5.935344e-002
2.979607e+003;5.834918e-002
2.981535e+003;5.794310e-002
2.983464e+003;5.737004e-002
2.985392e+003;5.678920e-002
2.987321e+003;5.639491e-002
2.989249e+003;5.553868e-002
2.991178e+003;5.461893e-002
2.993106e+003;5.416827e-002
2.995035e+003;5.385144e-002
2.996964e+003;5.329274e-002
2.998892e+003;5.270049e-002
3.000821e+003;5.214020e-002
3.002749e+003;5.185161e-002
3.004678e+003;5.161777e-002
3.006606e+003;5.102694e-002
3.008535e+003;5.054533e-002
3.010463e+003;5.053755e-002
3.012392e+003;5.026636e-002
3.014321e+003;5.009635e-002
3.016249e+003;5.031085e-002
3.018177e+003;4.984813e-002
3.020106e+003;4.907588e-002
3.022035e+003;4.885836e-002
3.023963e+003;4.895537e-002
3.025892e+003;4.892281e-002
3.027820e+003;4.873301e-002
3.029749e+003;4.830804e-002
3.031677e+003;4.794420e-002
3.033606e+003;4.764748e-002
3.035534e+003;4.753556e-002
3.037463e+003;4.780828e-002
3.039392e+003;4.755438e-002
3.041320e+003;4.666048e-002
3.043249e+003;4.632268e-002
3.045177e+003;4.646290e-002
3.047106e+003;4.585790e-002
3.049034e+003;4.524238e-002
3.050963e+003;4.580532e-002
3.052891e+003;4.572878e-002
3.054820e+003;4.505455e-002
3.056749e+003;4.486640e-002
3.058677e+003;4.463173e-002
3.060606e+003;4.411902e-002
3.062534e+003;4.406177e-002
3.064463e+003;4.420375e-002
3.066391e+003;4.361108e-002
3.068320e+003;4.297148e-002
3.070248e+003;4.272544e-002
3.072177e+003;4.236036e-002
3.074105e+003;4.217728e-002
3.076034e+003;4.256464e-002
3.077963e+003;4.292356e-002
3.079891e+003;4.238929e-002
3.081820e+003;4.169083e-002
3.083748e+003;4.143731e-002
3.085677e+003;4.149185e-002
3.087605e+003;4.160101e-002
3.089534e+003;4.136934e-002
3.091462e+003;4.061579e-002
3.093391e+003;4.029665e-002
3.095320e+003;4.024997e-002
3.097248e+003;3.990567e-002
3.099177e+003;3.924496e-002
3.101105e+003;3.897590e-002
3.103034e+003;3.873863e-002
3.104962e+003;3.795433e-002
3.106891e+003;3.711443e-002
3.108819e+003;3.679965e-002
3.110748e+003;3.648839e-002
3.112677e+003;3.583630e-002
3.114605e+003;3.516514e-002
3.116533e+003;3.475614e-002
3.118462e+003;3.420705e-002
3.120391e+003;3.351234e-002
3.122319e+003;3.340491e-002
3.124248e+003;3.337542e-002
3.126176e+003;3.311931e-002
3.128105e+003;3.274364e-002
3.130033e+003;3.232688e-002
3.131962e+003;3.206443e-002
3.133890e+003;3.205523e-002
3.135819e+003;3.195164e-002
3.137748e+003;3.195910e-002
3.139676e+003;3.229983e-002
3.141605e+003;3.238678e-002
3.143533e+003;3.185152e-002
3.145462e+003;3.171066e-002
3.147390e+003;3.198703e-002
3.149319e+003;3.206457e-002
3.151247e+003;3.174492e-002
3.153176e+003;3.116636e-002
3.155104e+003;3.100477e-002
3.157033e+003;3.111422e-002
3.158962e+003;3.124462e-002
3.160890e+003;3.100790e-002
3.162819e+003;3.092880e-002
3.164747e+003;3.107375e-002
3.166676e+003;3.091596e-002
3.168604e+003;3.103036e-002
3.170533e+003;3.108862e-002
3.172461e+003;3.116708e-002
3.174390e+003;3.093044e-002
3.176319e+003;3.060942e-002
3.178247e+003;3.067103e-002
3.180176e+003;3.051219e-002
3.182104e+003;3.012512e-002
3.184033e+003;2.987206e-002
3.185961e+003;2.991877e-002
3.187890e+003;3.025893e-002
3.189818e+003;3.079547e-002
3.191747e+003;3.104663e-002
3.193676e+003;3.105695e-002
3.195604e+003;3.104232e-002
3.197532e+003;3.080298e-002
3.199461e+003;3.079216e-002
3.201390e+003;3.089575e-002
3.203318e+003;3.067520e-002
3.205247e+003;3.039334e-002
3.207175e+003;3.056569e-002
3.209104e+003;3.048404e-002
3.211032e+003;3.028536e-002
3.212961e+003;3.001693e-002
3.214889e+003;3.003670e-002
3.216818e+003;3.008446e-002
3.218747e+003;3.012498e-002
3.220675e+003;3.048503e-002
3.222604e+003;3.080582e-002
3.224532e+003;3.108734e-002
3.226461e+003;3.085199e-002
3.228389e+003;3.048027e-002
3.230318e+003;3.053010e-002
3.232246e+003;3.060522e-002
3.234175e+003;3.054286e-002
3.236104e+003;3.040421e-002
3.238032e+003;3.010666e-002
3.239961e+003;2.969129e-002
3.241889e+003;2.983685e-002
3.243818e+003;3.055619e-002
3.245746e+003;3.091429e-002
3.247675e+003;3.075670e-002
3.249603e+003;3.033094e-002
3.251532e+003;3.054247e-002
3.253460e+003;3.050998e-002
3.255389e+003;3.015158e-002
3.257318e+003;3.035731e-002
3.259246e+003;3.075994e-002
3.261175e+003;3.104253e-002
3.263103e+003;3.090874e-002
3.265032e+003;3.094389e-002
3.266960e+003;3.107161e-002
3.268889e+003;3.106026e-002
3.270817e+003;3.096310e-002
3.272746e+003;3.112585e-002
3.274675e+003;3.121774e-002
3.276603e+003;3.095481e-002
3.278531e+003;3.056039e-002
3.280460e+003;3.065631e-002
3.282389e+003;3.139227e-002
3.284317e+003;3.159793e-002
3.286246e+003;3.130989e-002
3.288174e+003;3.109699e-002
3.290103e+003;3.071787e-002
3.292031e+003;3.050593e-002
3.293960e+003;3.046655e-002
3.295888e+003;3.004150e-002
3.297817e+003;3.036783e-002
3.299746e+003;3.087846e-002
3.301674e+003;3.095158e-002
3.303603e+003;3.105061e-002
3.305531e+003;3.054148e-002
3.307460e+003;3.025449e-002
3.309388e+003;3.080031e-002
3.311317e+003;3.088476e-002
3.313245e+003;3.094780e-002
3.315174e+003;3.116861e-002
3.317103e+003;3.110870e-002
3.319031e+003;3.081276e-002
3.320960e+003;3.035684e-002
3.322888e+003;3.028930e-002
3.324817e+003;3.052360e-002
3.326745e+003;3.038950e-002
3.328674e+003;3.018089e-002
3.330602e+003;3.005087e-002
3.332531e+003;3.026795e-002
3.334459e+003;3.090828e-002
3.336388e+003;3.096186e-002
3.338317e+003;3.043744e-002
3.340245e+003;3.042123e-002
3.342174e+003;3.042429e-002
3.344102e+003;3.026152e-002
3.346031e+003;3.060952e-002
3.347959e+003;3.064774e-002
3.349888e+003;3.048642e-002
3.351816e+003;3.081848e-002
3.353745e+003;3.054976e-002
3.355674e+003;3.029584e-002
3.357602e+003;3.065507e-002
3.359531e+003;3.081962e-002
3.361459e+003;3.083318e-002
3.363388e+003;3.104872e-002
3.365316e+003;3.118203e-002
3.367245e+003;3.088042e-002
3.369173e+003;3.078854e-002
3.371102e+003;3.098029e-002
3.373031e+003;3.080995e-002
3.374959e+003;3.042682e-002
3.376887e+003;3.027747e-002
3.378816e+003;3.015119e-002
3.380745e+003;3.016409e-002
3.382673e+003;3.067480e-002
3.384602e+003;3.074973e-002
3.386530e+003;3.017105e-002
3.388459e+003;2.948478e-002
3.390387e+003;2.948375e-002
3.392316e+003;2.969079e-002
3.394244e+003;2.955025e-002
3.396173e+003;2.924718e-002
3.398102e+003;2.943138e-002
3.400030e+003;2.975909e-002
3.401959e+003;2.941099e-002
3.403887e+003;2.886932e-002
3.405816e+003;2.891288e-002
3.407744e+003;2.920710e-002
3.409673e+003;2.889907e-002
3.411601e+003;2.858244e-002
3.413530e+003;2.888143e-002
3.415458e+003;2.869864e-002
3.417387e+003;2.886157e-002
3.419316e+003;2.967334e-002
3.421244e+003;2.982844e-002
3.423173e+003;2.955248e-002
3.425101e+003;2.954997e-002
3.427030e+003;2.918077e-002
3.428958e+003;2.914452e-002
3.430887e+003;2.918502e-002
3.432815e+003;2.863652e-002
3.434744e+003;2.817910e-002
3.436673e+003;2.819317e-002
3.438601e+003;2.843316e-002
3.440530e+003;2.873648e-002
3.442458e+003;2.849809e-002
3.444387e+003;2.823850e-002
3.446315e+003;2.829494e-002
3.448244e+003;2.830785e-002
3.450172e+003;2.795811e-002
3.452101e+003;2.743487e-002
3.454030e+003;2.730741e-002
3.455958e+003;2.792871e-002
3.457886e+003;2.839966e-002
3.459815e+003;2.802261e-002
3.461744e+003;2.755987e-002
3.463672e+003;2.723102e-002
3.465601e+003;2.676751e-002
3.467529e+003;2.699568e-002
3.469458e+003;2.730007e-002
3.471386e+003;2.732551e-002
3.473315e+003;2.728222e-002
3.475243e+003;2.746731e-002
3.477172e+003;2.761470e-002
3.479101e+003;2.694755e-002
3.481029e+003;2.625759e-002
3.482958e+003;2.638605e-002
3.484886e+003;2.667314e-002
3.486815e+003;2.622250e-002
3.488743e+003;2.633701e-002
3.490672e+003;2.660409e-002
3.492600e+003;2.613698e-002
3.494529e+003;2.612991e-002
3.496458e+003;2.685265e-002
3.498386e+003;2.771291e-002
3.500315e+003;2.727611e-002
3.502243e+003;2.621536e-002
3.504172e+003;2.596800e-002
3.506100e+003;2.618928e-002
3.508029e+003;2.676514e-002
3.509957e+003;2.705121e-002
3.511886e+003;2.672547e-002
3.513814e+003;2.668512e-002
3.515743e+003;2.661984e-002
3.517672e+003;2.662523e-002
3.519600e+003;2.680402e-002
3.521529e+003;2.617309e-002
3.523457e+003;2.571119e-002
3.525386e+003;2.620374e-002
3.527314e+003;2.633064e-002
3.529243e+003;2.581445e-002
3.531171e+003;2.570440e-002
3.533100e+003;2.587578e-002
3.535029e+003;2.567561e-002
3.536957e+003;2.542263e-002
3.538885e+003;2.546106e-002
3.540814e+003;2.585566e-002
3.542743e+003;2.582683e-002
3.544671e+003;2.568858e-002
3.546600e+003;2.575988e-002
3.548528e+003;2.597373e-002
3.550457e+003;2.595245e-002
3.552385e+003;2.617446e-002
3.554314e+003;2.637707e-002
3.556242e+003;2.640341e-002
3.558171e+003;2.613804e-002
3.560100e+003;2.604955e-002
3.562028e+003;2.641306e-002
3.563957e+003;2.621782e-002
3.565885e+003;2.510845e-002
3.567814e+003;2.478921e-002
3.569742e+003;2.599558e-002
3.571671e+003;2.675489e-002
3.573599e+003;2.655456e-002
3.575528e+003;2.635521e-002
3.577457e+003;2.707981e-002
3.579385e+003;2.769373e-002
3.581314e+003;2.771951e-002
3.583242e+003;2.772015e-002
3.585171e+003;2.674213e-002
3.587099e+003;2.620807e-002
3.589028e+003;2.762487e-002
3.590956e+003;2.897387e-002
3.592885e+003;2.907143e-002
3.594813e+003;2.924336e-002
3.596742e+003;2.982120e-002
3.598671e+003;3.083204e-002
3.600599e+003;3.169120e-002
3.602528e+003;3.217724e-002
3.604456e+003;3.227067e-002
3.606385e+003;3.200760e-002
3.608313e+003;3.094691e-002
3.610242e+003;3.096229e-002
3.612170e+003;3.125548e-002
3.614099e+003;3.108303e-002
3.616028e+003;3.015574e-002
3.617956e+003;2.910962e-002
3.619885e+003;2.915859e-002
3.621813e+003;2.993162e-002
3.623742e+003;3.011028e-002
3.625670e+003;2.923797e-002
3.627599e+003;2.618833e-002
3.629527e+003;2.513615e-002
3.631456e+003;2.726905e-002
3.633385e+003;2.851970e-002
3.635313e+003;2.881851e-002
3.637241e+003;2.874724e-002
3.639170e+003;2.931581e-002
3.641099e+003;2.999531e-002
3.643027e+003;3.038808e-002
3.644956e+003;2.953539e-002
3.646884e+003;2.690130e-002
3.648813e+003;2.552217e-002
3.650741e+003;2.729781e-002
3.652670e+003;2.942819e-002
3.654598e+003;2.889060e-002
3.656527e+003;2.810026e-002
3.658456e+003;2.943284e-002
3.660384e+003;2.998039e-002
3.662313e+003;2.984604e-002
3.664241e+003;2.984572e-002
3.666170e+003;2.921922e-002
3.668098e+003;2.667272e-002
3.670027e+003;2.464642e-002
3.671955e+003;2.602049e-002
3.673884e+003;2.501968e-002
3.675813e+003;2.403613e-002
3.677741e+003;2.684003e-002
3.679669e+003;2.824179e-002
3.681598e+003;2.876013e-002
3.683527e+003;2.871322e-002
3.685455e+003;2.812522e-002
3.687384e+003;2.583098e-002
3.689312e+003;2.529698e-002
3.691241e+003;2.720065e-002
3.693169e+003;2.885434e-002
3.695098e+003;2.930804e-002
3.697026e+003;2.915455e-002
3.698955e+003;2.875595e-002
3.700884e+003;2.835014e-002
3.702812e+003;2.863277e-002
3.704741e+003;2.857795e-002
3.706669e+003;2.767335e-002
3.708598e+003;2.643538e-002
3.710526e+003;2.498241e-002
3.712455e+003;2.523317e-002
3.714383e+003;2.708990e-002
3.716312e+003;2.761357e-002
3.718240e+003;2.725738e-002
3.720169e+003;2.656228e-002
3.722098e+003;2.626914e-002
3.724026e+003;2.677632e-002
3.725955e+003;2.672723e-002
3.727883e+003;2.661071e-002
3.729812e+003;2.613374e-002
3.731740e+003;2.492243e-002
3.733669e+003;2.422930e-002
3.735597e+003;2.368558e-002
3.737526e+003;2.493306e-002
3.739455e+003;2.588496e-002
3.741383e+003;2.444787e-002
3.743312e+003;1.992978e-002
3.745240e+003;2.077262e-002
3.747169e+003;2.335319e-002
3.749097e+003;2.140400e-002
3.751026e+003;2.128963e-002
3.752954e+003;2.378574e-002
3.754883e+003;2.621057e-002
3.756812e+003;2.634792e-002
3.758740e+003;2.646704e-002
3.760668e+003;2.734961e-002
3.762597e+003;2.818108e-002
3.764526e+003;2.733020e-002
3.766454e+003;2.711039e-002
3.768383e+003;2.631515e-002
3.770311e+003;2.635665e-002
3.772240e+003;2.782039e-002
3.774168e+003;2.848315e-002
3.776097e+003;2.819119e-002
3.778025e+003;2.748326e-002
3.779954e+003;2.752520e-002
3.781883e+003;2.812893e-002
3.783811e+003;2.836942e-002
3.785740e+003;2.883876e-002
3.787668e+003;2.899863e-002
3.789597e+003;2.909725e-002
3.791525e+003;2.926083e-002
3.793454e+003;2.917648e-002
3.795382e+003;2.862342e-002
3.797311e+003;2.835407e-002
3.799240e+003;2.616464e-002
3.801168e+003;2.445131e-002
3.803097e+003;2.700157e-002
3.805025e+003;2.730582e-002
3.806954e+003;2.593761e-002
3.808882e+003;2.778383e-002
3.810811e+003;2.916422e-002
3.812739e+003;2.935608e-002
3.814668e+003;2.707830e-002
3.816596e+003;2.659962e-002
3.818525e+003;2.756259e-002
3.820454e+003;2.622919e-002
3.822382e+003;2.766368e-002
3.824311e+003;2.948719e-002
3.826239e+003;2.936175e-002
3.828168e+003;2.969129e-002
3.830096e+003;2.978745e-002
3.832025e+003;2.920186e-002
3.833953e+003;2.851769e-002
3.835882e+003;2.635849e-002
3.837811e+003;2.519230e-002
3.839739e+003;2.738162e-002
3.841667e+003;2.894628e-002
3.843596e+003;2.976229e-002
3.845525e+003;3.056992e-002
3.847453e+003;3.011639e-002
3.849382e+003;2.845429e-002
3.851310e+003;2.418166e-002
3.853239e+003;2.062430e-002
3.855167e+003;2.483219e-002
3.857096e+003;2.949273e-002
3.859024e+003;2.993109e-002
3.860953e+003;2.908050e-002
3.862882e+003;2.832320e-002
3.864810e+003;2.859331e-002
3.866739e+003;2.896087e-002
3.868667e+003;2.707685e-002
3.870596e+003;2.789250e-002
3.872524e+003;2.996484e-002
3.874453e+003;3.043499e-002
3.876381e+003;3.171629e-002
3.878310e+003;3.135537e-002
3.880239e+003;3.038609e-002
3.882167e+003;3.057461e-002
3.884096e+003;2.988607e-002
3.886024e+003;2.955493e-002
3.887953e+003;3.088953e-002
3.889881e+003;3.002243e-002
3.891810e+003;2.969005e-002
3.893738e+003;3.096047e-002
3.895667e+003;3.123369e-002
3.897595e+003;3.080056e-002
3.899524e+003;3.003383e-002
3.901453e+003;2.895967e-002
3.903381e+003;2.831895e-002
3.905310e+003;3.019598e-002
3.907238e+003;3.229776e-002
3.909167e+003;3.277101e-002
3.911095e+003;3.284283e-002
3.913024e+003;3.270502e-002
3.914952e+003;3.181932e-002
3.916881e+003;3.126314e-002
3.918810e+003;3.137894e-002
3.920738e+003;3.162712e-002
3.922667e+003;3.144238e-002
3.924595e+003;3.184485e-002
3.926524e+003;3.288418e-002
3.928452e+003;3.308852e-002
3.930381e+003;3.225832e-002
3.932309e+003;3.119666e-002
3.934238e+003;3.059228e-002
3.936167e+003;3.097474e-002
3.938095e+003;3.181625e-002
3.940023e+003;3.142015e-002
3.941952e+003;3.076125e-002
3.943881e+003;3.082951e-002
3.945809e+003;3.104499e-002
3.947738e+003;3.124529e-002
3.949666e+003;3.137852e-002
3.951595e+003;3.130362e-002
3.953523e+003;3.103040e-002
3.955452e+003;3.120072e-002
3.957380e+003;3.152086e-002
3.959309e+003;3.137613e-002
3.961238e+003;3.100741e-002
3.963166e+003;3.068611e-002
3.965095e+003;3.101634e-002
3.967023e+003;3.143999e-002
3.968952e+003;3.181283e-002
3.970880e+003;3.194173e-002
3.972809e+003;3.132794e-002
3.974737e+003;3.134116e-002
3.976666e+003;3.178053e-002
3.978594e+003;3.151071e-002
3.980523e+003;3.139269e-002
3.982452e+003;3.129664e-002
3.984380e+003;3.095787e-002
3.986309e+003;3.042689e-002
3.988237e+003;3.049921e-002
3.990166e+003;3.062022e-002
3.992094e+003;3.038662e-002
3.994023e+003;3.031655e-002
3.995951e+003;3.050572e-002
3.997880e+003;3.040780e-002
3.999809e+003;3.042898e-002
4.001737e+003;0.000000e+000
