3.992094e+002;0.000000e+000
4.011380e+002;0.000000e+000
4.030665e+002;0.000000e+000
4.049951e+002;0.000000e+000
4.069236e+002;0.000000e+000
4.088522e+002;0.000000e+000
4.107807e+002;0.000000e+000
4.127093e+002;0.000000e+000
4.146378e+002;0.000000e+000
4.165664e+002;0.000000e+000
4.184949e+002;0.000000e+000
4.204235e+002;0.000000e+000
4.223520e+002;0.000000e+000
4.242806e+002;0.000000e+000
4.262091e+002;0.000000e+000
4.281377e+002;0.000000e+000
4.300662e+002;0.000000e+000
4.319948e+002;0.000000e+000
4.339233e+002;0.000000e+000
4.358519e+002;0.000000e+000
4.377804e+002;0.000000e+000
4.397090e+002;0.000000e+000
4.416375e+002;0.000000e+000
4.435660e+002;0.000000e+000
4.454946e+002;0.000000e+000
4.474232e+002;0.000000e+000
4.493517e+002;0.000000e+000
4.512802e+002;0.000000e+000
4.532088e+002;0.000000e+000
4.551373e+002;0.000000e+000
4.570659e+002;0.000000e+000
4.589944e+002;0.000000e+000
4.609230e+002;0.000000e+000
4.628515e+002;0.000000e+000
4.647801e+002;0.000000e+000
4.667086e+002;0.000000e+000
4.686372e+002;0.000000e+000
4.705657e+002;0.000000e+000
4.724943e+002;0.000000e+000
4.744228e+002;0.000000e+000
4.763513e+002;0.000000e+000
4.782799e+002;0.000000e+000
4.802085e+002;0.000000e+000
4.821370e+002;0.000000e+000
4.840656e+002;0.000000e+000
4.859941e+002;0.000000e+000
4.879226e+002;0.000000e+000
4.898512e+002;0.000000e+000
4.917798e+002;0.000000e+000
4.937083e+002;0.000000e+000
4.956368e+002;0.000000e+000
4.975654e+002;0.000000e+000
4.994939e+002;0.000000e+000
5.014225e+002;0.000000e+000
5.033510e+002;0.000000e+000
5.052796e+002;0.000000e+000
5.072081e+002;0.000000e+000
5.091367e+002;0.000000e+000
5.110652e+002;0.000000e+000
5.129938e+002;0.000000e+000
5.149223e+002;0.000000e+000
5.168509e+002;0.000000e+000
5.187794e+002;0.000000e+000
5.207079e+002;0.000000e+000
5.226365e+002;0.000000e+000
5.245651e+002;0.000000e+000
5.264936e+002;0.000000e+000
5.284222e+002;0.000000e+000
5.303507e+002;0.000000e+000
5.322792e+002;0.000000e+000
5.342078e+002;0.000000e+000
5.361364e+002;0.000000e+000
5.380649e+002;0.000000e+000
5.399935e+002;0.000000e+000
5.419220e+002;0.000000e+000
5.438505e+002;0.000000e+000
5.457791e+002;0.000000e+000
5.477076e+002;0.000000e+000
5.496362e+002;0.000000e+000
5.515648e+002;0.000000e+000
5.534933e+002;0.000000e+000
5.554218e+002;0.000000e+000
5.573504e+002;0.000000e+000
5.592789e+002;0.000000e+000
5.612075e+002;0.000000e+000
5.631360e+002;0.000000e+000
5.650646e+002;0.000000e+000
5.669931e+002;0.000000e+000
5.689217e+002;0.000000e+000
5.708502e+002;0.000000e+000
5.727787e+002;0.000000e+000
5.747073e+002;0.000000e+000
5.766359e+002;0.000000e+000
5.785644e+002;0.000000e+000
5.804930e+002;0.000000e+000
5.824215e+002;0.000000e+000
5.843500e+002;0.000000e+000
5.862786e+002;0.000000e+000
5.882072e+002;0.000000e+000
5.901357e+002;0.000000e+000
5.920643e+002;0.000000e+000
5.939928e+002;0.000000e+000
5.959213e+002;0.000000e+000
5.978499e+002;0.000000e+000
5.997784e+002;5.683739e-002
6.017070e+002;5.521083e-002
6.036355e+002;5.305897e-002
6.055641e+002;5.593072e-002
6.074926e+002;6.057064e-002
6.094211e+002;6.292000e-002
6.113497e+002;5.919435e-002
6.132783e+002;5.309773e-002
6.152068e+002;5.079357e-002
6.171354e+002;5.332271e-002
6.190639e+002;5.602382e-002
6.209924e+002;5.707395e-002
6.229210e+002;5.434694e-002
6.248495e+002;5.419019e-002
6.267781e+002;5.602800e-002
6.287067e+002;5.649611e-002
6.306352e+002;5.499251e-002
6.325637e+002;5.599525e-002
6.344923e+002;5.717402e-002
6.364208e+002;5.284166e-002
6.383494e+002;4.954929e-002
6.402780e+002;5.233886e-002
6.422065e+002;5.868081e-002
6.441350e+002;5.939755e-002
6.460636e+002;5.690232e-002
6.479921e+002;5.533317e-002
6.499207e+002;5.611901e-002
6.518492e+002;5.536012e-002
6.537778e+002;5.543751e-002
6.557063e+002;5.839978e-002
6.576349e+002;5.931478e-002
6.595634e+002;5.940405e-002
6.614919e+002;6.023734e-002
6.634205e+002;5.957329e-002
6.653491e+002;5.907893e-002
6.672776e+002;6.037321e-002
6.692062e+002;6.111010e-002
6.711347e+002;6.199265e-002
6.730632e+002;6.201795e-002
6.749918e+002;6.063342e-002
6.769203e+002;6.081850e-002
6.788489e+002;6.202498e-002
6.807775e+002;6.328358e-002
6.827060e+002;6.522705e-002
6.846345e+002;6.574754e-002
6.865631e+002;6.551296e-002
6.884916e+002;6.820843e-002
6.904202e+002;7.043024e-002
6.923488e+002;7.127780e-002
6.942773e+002;7.281196e-002
6.962058e+002;7.549286e-002
6.981344e+002;7.939608e-002
7.000629e+002;8.283924e-002
7.019915e+002;8.619710e-002
7.039200e+002;9.120453e-002
7.058486e+002;9.991141e-002
7.077771e+002;1.098545e-001
7.097057e+002;1.234043e-001
7.116342e+002;1.454103e-001
7.135627e+002;1.723798e-001
7.154913e+002;1.938892e-001
7.174199e+002;1.973017e-001
7.193484e+002;1.784381e-001
7.212770e+002;1.479178e-001
7.232055e+002;1.243110e-001
7.251340e+002;1.111459e-001
7.270626e+002;1.049803e-001
7.289911e+002;1.080257e-001
7.309197e+002;1.161997e-001
7.328483e+002;1.135714e-001
7.347768e+002;9.422643e-002
7.367053e+002;7.584392e-002
7.386339e+002;6.668798e-002
7.405624e+002;6.287561e-002
7.424910e+002;6.131367e-002
7.444196e+002;5.974055e-002
7.463481e+002;5.873323e-002
7.482766e+002;5.792046e-002
7.502052e+002;5.725181e-002
7.521337e+002;5.591225e-002
7.540623e+002;5.517577e-002
7.559908e+002;5.568506e-002
7.579194e+002;5.478087e-002
7.598479e+002;5.379514e-002
7.617765e+002;5.371028e-002
7.637050e+002;5.359904e-002
7.656335e+002;5.362184e-002
7.675621e+002;5.351463e-002
7.694907e+002;5.340922e-002
7.714192e+002;5.315659e-002
7.733478e+002;5.284349e-002
7.752763e+002;5.282130e-002
7.772048e+002;5.291886e-002
7.791334e+002;5.259695e-002
7.810620e+002;5.237153e-002
7.829905e+002;5.311634e-002
7.849191e+002;5.308189e-002
7.868476e+002;5.264891e-002
7.887761e+002;5.355893e-002
7.907047e+002;5.467398e-002
7.926332e+002;5.527021e-002
7.945618e+002;5.579303e-002
7.964903e+002;5.617282e-002
7.984189e+002;5.604471e-002
8.003474e+002;5.539712e-002
8.022759e+002;5.570401e-002
8.042045e+002;5.662440e-002
8.061331e+002;5.724074e-002
8.080616e+002;5.695520e-002
8.099902e+002;5.741440e-002
8.119187e+002;5.828393e-002
8.138472e+002;5.760432e-002
8.157758e+002;5.706477e-002
8.177043e+002;5.746330e-002
8.196329e+002;5.846384e-002
8.215615e+002;5.885395e-002
8.234900e+002;5.880485e-002
8.254185e+002;5.866659e-002
8.273471e+002;5.825324e-002
8.292756e+002;5.814647e-002
8.312042e+002;5.809000e-002
8.331328e+002;5.747665e-002
8.350613e+002;5.618715e-002
8.369898e+002;5.516648e-002
8.389184e+002;5.531503e-002
8.408469e+002;5.603909e-002
8.427755e+002;5.578662e-002
8.447040e+002;5.503907e-002
8.466326e+002;5.399155e-002
8.485611e+002;5.301300e-002
8.504897e+002;5.272256e-002
8.524182e+002;5.350658e-002
8.543467e+002;5.378442e-002
8.562753e+002;5.318176e-002
8.582039e+002;5.306549e-002
8.601324e+002;5.339794e-002
8.620610e+002;5.370402e-002
8.639895e+002;5.354166e-002
8.659180e+002;5.386239e-002
8.678466e+002;5.428431e-002
8.697751e+002;5.424594e-002
8.717037e+002;5.442885e-002
8.736323e+002;5.431889e-002
8.755608e+002;5.420149e-002
8.774893e+002;5.475550e-002
8.794179e+002;5.482553e-002
8.813464e+002;5.456637e-002
8.832750e+002;5.496050e-002
8.852036e+002;5.554252e-002
8.871321e+002;5.589085e-002
8.890606e+002;5.612132e-002
8.909892e+002;5.606480e-002
8.929177e+002;5.612056e-002
8.948463e+002;5.669359e-002
8.967748e+002;5.756180e-002
8.987034e+002;5.777407e-002
9.006319e+002;5.763792e-002
9.025605e+002;5.749851e-002
9.044890e+002;5.764635e-002
9.064175e+002;5.775042e-002
9.083461e+002;5.784062e-002
9.102747e+002;5.797957e-002
9.122032e+002;5.768136e-002
9.141318e+002;5.679181e-002
9.160603e+002;5.617463e-002
9.179888e+002;5.610970e-002
9.199174e+002;5.607758e-002
9.218459e+002;5.545961e-002
9.237745e+002;5.568099e-002
9.257031e+002;5.668272e-002
9.276316e+002;5.717606e-002
9.295601e+002;5.729582e-002
9.314887e+002;5.722135e-002
9.334172e+002;5.704799e-002
9.353458e+002;5.724592e-002
9.372744e+002;5.704096e-002
9.392029e+002;5.705445e-002
9.411314e+002;5.766043e-002
9.430600e+002;5.805030e-002
9.449885e+002;5.778657e-002
9.469171e+002;5.738441e-002
9.488456e+002;5.711412e-002
9.507742e+002;5.758650e-002
9.527027e+002;5.815136e-002
9.546313e+002;5.783823e-002
9.565598e+002;5.752779e-002
9.584883e+002;5.750260e-002
9.604169e+002;5.735295e-002
9.623455e+002;5.748017e-002
9.642740e+002;5.774558e-002
9.662026e+002;5.803519e-002
9.681311e+002;5.836086e-002
9.700596e+002;5.877317e-002
9.719882e+002;5.889470e-002
9.739167e+002;5.913758e-002
9.758453e+002;5.904154e-002
9.777739e+002;5.888977e-002
9.797024e+002;5.859036e-002
9.816309e+002;5.836495e-002
9.835595e+002;5.793818e-002
9.854880e+002;5.753513e-002
9.874166e+002;5.717327e-002
9.893452e+002;5.664841e-002
9.912737e+002;5.675521e-002
9.932022e+002;5.738872e-002
9.951307e+002;5.735578e-002
9.970593e+002;5.722142e-002
9.989879e+002;5.741901e-002
1.000916e+003;5.821917e-002
1.002845e+003;5.878717e-002
1.004773e+003;5.915399e-002
1.006702e+003;5.993019e-002
1.008631e+003;6.023863e-002
1.010559e+003;6.064535e-002
1.012488e+003;6.143713e-002
1.014416e+003;6.211099e-002
1.016345e+003;6.300615e-002
1.018273e+003;6.412762e-002
1.020202e+003;6.526786e-002
1.022130e+003;6.696063e-002
1.024059e+003;6.917982e-002
1.025988e+003;7.149415e-002
1.027916e+003;7.340566e-002
1.029845e+003;7.478002e-002
1.031773e+003;7.516879e-002
1.033702e+003;7.441404e-002
1.035630e+003;7.278109e-002
1.037559e+003;7.143779e-002
1.039487e+003;7.028990e-002
1.041416e+003;6.930293e-002
1.043344e+003;6.936796e-002
1.045273e+003;7.002349e-002
1.047202e+003;7.070953e-002
1.049130e+003;7.143182e-002
1.051059e+003;7.220244e-002
1.052987e+003;7.283167e-002
1.054916e+003;7.337070e-002
1.056844e+003;7.376312e-002
1.058773e+003;7.407223e-002
1.060701e+003;7.498477e-002
1.062630e+003;7.610887e-002
1.064558e+003;7.731228e-002
1.066487e+003;7.851408e-002
1.068416e+003;7.944063e-002
1.070344e+003;8.042742e-002
1.072273e+003;8.098551e-002
1.074201e+003;8.095381e-002
1.076130e+003;8.108589e-002
1.078058e+003;8.091836e-002
1.079987e+003;7.999033e-002
1.081915e+003;7.797648e-002
1.083844e+003;7.581737e-002
1.085773e+003;7.406276e-002
1.087701e+003;7.292838e-002
1.089630e+003;7.202163e-002
1.091558e+003;7.089764e-002
1.093487e+003;6.961568e-002
1.095415e+003;6.850666e-002
1.097344e+003;6.745867e-002
1.099272e+003;6.689723e-002
1.101201e+003;6.735801e-002
1.103129e+003;6.790478e-002
1.105058e+003;6.742968e-002
1.106987e+003;6.638188e-002
1.108915e+003;6.513368e-002
1.110844e+003;6.397383e-002
1.112772e+003;6.365629e-002
1.114701e+003;6.334181e-002
1.116629e+003;6.283801e-002
1.118558e+003;6.240009e-002
1.120486e+003;6.211359e-002
1.122415e+003;6.174770e-002
1.124344e+003;6.122728e-002
1.126272e+003;6.135301e-002
1.128201e+003;6.149480e-002
1.130129e+003;6.118799e-002
1.132058e+003;6.020179e-002
1.133986e+003;5.945135e-002
1.135915e+003;5.980819e-002
1.137843e+003;6.051838e-002
1.139772e+003;6.122904e-002
1.141700e+003;6.245044e-002
1.143629e+003;6.409674e-002
1.145557e+003;6.535852e-002
1.147486e+003;6.646350e-002
1.149415e+003;6.698436e-002
1.151343e+003;6.683203e-002
1.153272e+003;6.610003e-002
1.155200e+003;6.441741e-002
1.157129e+003;6.314668e-002
1.159057e+003;6.242136e-002
1.160986e+003;6.171967e-002
1.162914e+003;6.148224e-002
1.164843e+003;6.120195e-002
1.166771e+003;6.071782e-002
1.168700e+003;6.021770e-002
1.170629e+003;6.028404e-002
1.172557e+003;6.033944e-002
1.174486e+003;6.031210e-002
1.176414e+003;6.017362e-002
1.178343e+003;5.967698e-002
1.180271e+003;5.932754e-002
1.182200e+003;5.917734e-002
1.184128e+003;5.877367e-002
1.186057e+003;5.783085e-002
1.187986e+003;5.678372e-002
1.189914e+003;5.588150e-002
1.191843e+003;5.553770e-002
1.193771e+003;5.555261e-002
1.195700e+003;5.551466e-002
1.197628e+003;5.525346e-002
1.199557e+003;5.471025e-002
1.201485e+003;5.452178e-002
1.203414e+003;5.465508e-002
1.205343e+003;5.472690e-002
1.207271e+003;5.454345e-002
1.209200e+003;5.456449e-002
1.211128e+003;5.493791e-002
1.213057e+003;5.534322e-002
1.214985e+003;5.585177e-002
1.216914e+003;5.651675e-002
1.218842e+003;5.745456e-002
1.220771e+003;5.816250e-002
1.222699e+003;5.849406e-002
1.224628e+003;5.872564e-002
1.226557e+003;5.887777e-002
1.228485e+003;5.958633e-002
1.230414e+003;6.008694e-002
1.232342e+003;6.037877e-002
1.234271e+003;6.079133e-002
1.236199e+003;6.123034e-002
1.238128e+003;6.118597e-002
1.240056e+003;6.082037e-002
1.241985e+003;6.070676e-002
1.243913e+003;6.054896e-002
1.245842e+003;6.052325e-002
1.247771e+003;6.089005e-002
1.249699e+003;6.102273e-002
1.251628e+003;6.126086e-002
1.253556e+003;6.209612e-002
1.255485e+003;6.260162e-002
1.257413e+003;6.237037e-002
1.259342e+003;6.158124e-002
1.261270e+003;6.049442e-002
1.263199e+003;5.959921e-002
1.265127e+003;5.931417e-002
1.267056e+003;5.878456e-002
1.268985e+003;5.795810e-002
1.270913e+003;5.728433e-002
1.272842e+003;5.677912e-002
1.274770e+003;5.651875e-002
1.276699e+003;5.620397e-002
1.278627e+003;5.573912e-002
1.280556e+003;5.539942e-002
1.282484e+003;5.520492e-002
1.284413e+003;5.532658e-002
1.286342e+003;5.508251e-002
1.288270e+003;5.465260e-002
1.290199e+003;5.459207e-002
1.292127e+003;5.472637e-002
1.294056e+003;5.491177e-002
1.295984e+003;5.479936e-002
1.297913e+003;5.479775e-002
1.299841e+003;5.495220e-002
1.301770e+003;5.488557e-002
1.303698e+003;5.473404e-002
1.305627e+003;5.465177e-002
1.307556e+003;5.423002e-002
1.309484e+003;5.331349e-002
1.311413e+003;5.272963e-002
1.313341e+003;5.230211e-002
1.315270e+003;5.128217e-002
1.317198e+003;5.017128e-002
1.319127e+003;4.936360e-002
1.321055e+003;4.882562e-002
1.322984e+003;4.835315e-002
1.324912e+003;4.804989e-002
1.326841e+003;4.777403e-002
1.328770e+003;4.733130e-002
1.330698e+003;4.710777e-002
1.332627e+003;4.707099e-002
1.334555e+003;4.724318e-002
1.336484e+003;4.758788e-002
1.338412e+003;4.814035e-002
1.340341e+003;4.890482e-002
1.342269e+003;4.999269e-002
1.344198e+003;5.092090e-002
1.346126e+003;5.154370e-002
1.348055e+003;5.210374e-002
1.349984e+003;5.284386e-002
1.351912e+003;5.351913e-002
1.353841e+003;5.374553e-002
1.355769e+003;5.370586e-002
1.357698e+003;5.378093e-002
1.359626e+003;5.397880e-002
1.361555e+003;5.464042e-002
1.363483e+003;5.615951e-002
1.365412e+003;5.767530e-002
1.367341e+003;5.855862e-002
1.369269e+003;5.894107e-002
1.371198e+003;5.829484e-002
1.373126e+003;5.691221e-002
1.375055e+003;5.616818e-002
1.376983e+003;5.580705e-002
1.378912e+003;5.495204e-002
1.380840e+003;5.370931e-002
1.382769e+003;5.241893e-002
1.384698e+003;5.155191e-002
1.386626e+003;5.047859e-002
1.388555e+003;4.992459e-002
1.390483e+003;4.967331e-002
1.392412e+003;4.875536e-002
1.394340e+003;4.785855e-002
1.396269e+003;4.804541e-002
1.398197e+003;4.858546e-002
1.400126e+003;4.903326e-002
1.402054e+003;4.920749e-002
1.403983e+003;4.918723e-002
1.405911e+003;4.954810e-002
1.407840e+003;4.999510e-002
1.409769e+003;5.047029e-002
1.411697e+003;5.095350e-002
1.413626e+003;5.148972e-002
1.415554e+003;5.181279e-002
1.417483e+003;5.129641e-002
1.419411e+003;5.156668e-002
1.421340e+003;5.389686e-002
1.423268e+003;5.587917e-002
1.425197e+003;5.789381e-002
1.427125e+003;6.041014e-002
1.429054e+003;6.295723e-002
1.430983e+003;6.579249e-002
1.432911e+003;6.822378e-002
1.434840e+003;6.951018e-002
1.436768e+003;7.102666e-002
1.438697e+003;7.441931e-002
1.440625e+003;7.704557e-002
1.442554e+003;7.850316e-002
1.444482e+003;8.038204e-002
1.446411e+003;8.254439e-002
1.448340e+003;8.488762e-002
1.450268e+003;8.829483e-002
1.452197e+003;9.252503e-002
1.454125e+003;9.700429e-002
1.456054e+003;1.017548e-001
1.457982e+003;1.130137e-001
1.459911e+003;1.338409e-001
1.461839e+003;1.473022e-001
1.463768e+003;1.425485e-001
1.465697e+003;1.406763e-001
1.467625e+003;1.510264e-001
1.469554e+003;1.722044e-001
1.471482e+003;1.936733e-001
1.473411e+003;1.808973e-001
1.475339e+003;1.343285e-001
1.477268e+003;9.496172e-002
1.479196e+003;7.600544e-002
1.481125e+003;6.794891e-002
1.483053e+003;6.364286e-002
1.484982e+003;6.014634e-002
1.486911e+003;5.715255e-002
1.488839e+003;5.481451e-002
1.490768e+003;5.375363e-002
1.492696e+003;5.357839e-002
1.494625e+003;5.198877e-002
1.496553e+003;5.002347e-002
1.498482e+003;4.983825e-002
1.500410e+003;4.987248e-002
1.502339e+003;4.964564e-002
1.504267e+003;4.743780e-002
1.506196e+003;4.454115e-002
1.508125e+003;4.506951e-002
1.510053e+003;4.674933e-002
1.511982e+003;4.723565e-002
1.513910e+003;4.724566e-002
1.515839e+003;4.647046e-002
1.517767e+003;4.593292e-002
1.519696e+003;4.489160e-002
1.521624e+003;4.400863e-002
1.523553e+003;4.516675e-002
1.525481e+003;4.581206e-002
1.527410e+003;4.615790e-002
1.529339e+003;4.677479e-002
1.531267e+003;4.698242e-002
1.533196e+003;4.664761e-002
1.535124e+003;4.727137e-002
1.537053e+003;4.651700e-002
1.538981e+003;4.368864e-002
1.540910e+003;4.342908e-002
1.542838e+003;4.517388e-002
1.544767e+003;4.642658e-002
1.546695e+003;4.728955e-002
1.548624e+003;4.768220e-002
1.550553e+003;4.774891e-002
1.552481e+003;4.716413e-002
1.554410e+003;4.615351e-002
1.556338e+003;4.479858e-002
1.558267e+003;4.187637e-002
1.560195e+003;4.251198e-002
1.562124e+003;4.595232e-002
1.564052e+003;4.700346e-002
1.565981e+003;4.660032e-002
1.567910e+003;4.575624e-002
1.569838e+003;4.510311e-002
1.571767e+003;4.606552e-002
1.573695e+003;4.594989e-002
1.575624e+003;4.449097e-002
1.577552e+003;4.581485e-002
1.579481e+003;4.785344e-002
1.581409e+003;4.809075e-002
1.583338e+003;4.788108e-002
1.585266e+003;4.762522e-002
1.587195e+003;4.765750e-002
1.589124e+003;4.791945e-002
1.591052e+003;4.797984e-002
1.592981e+003;4.767795e-002
1.594909e+003;4.774189e-002
1.596838e+003;4.791616e-002
1.598766e+003;4.801329e-002
1.600695e+003;4.817204e-002
1.602623e+003;4.835996e-002
1.604552e+003;4.830500e-002
1.606480e+003;4.809378e-002
1.608409e+003;4.813343e-002
1.610338e+003;4.841585e-002
1.612266e+003;4.873101e-002
1.614195e+003;4.834026e-002
1.616123e+003;4.658184e-002
1.618052e+003;4.707007e-002
1.619980e+003;4.890263e-002
1.621909e+003;4.890464e-002
1.623837e+003;4.875818e-002
1.625766e+003;4.930127e-002
1.627694e+003;4.961454e-002
1.629623e+003;5.027115e-002
1.631552e+003;5.068952e-002
1.633480e+003;4.948761e-002
1.635409e+003;4.782833e-002
1.637337e+003;4.887864e-002
1.639266e+003;5.073316e-002
1.641194e+003;5.168292e-002
1.643123e+003;5.171528e-002
1.645051e+003;5.051622e-002
1.646980e+003;5.023529e-002
1.648909e+003;5.138006e-002
1.650837e+003;4.960901e-002
1.652766e+003;4.647035e-002
1.654694e+003;4.854811e-002
1.656623e+003;5.123716e-002
1.658551e+003;5.193219e-002
1.660480e+003;5.152874e-002
1.662408e+003;5.052277e-002
1.664337e+003;5.060378e-002
1.666266e+003;5.070833e-002
1.668194e+003;4.958498e-002
1.670123e+003;4.915839e-002
1.672051e+003;4.984516e-002
1.673980e+003;4.912905e-002
1.675908e+003;4.902387e-002
1.677837e+003;5.023373e-002
1.679765e+003;5.014320e-002
1.681694e+003;4.862285e-002
1.683622e+003;4.615141e-002
1.685551e+003;4.658361e-002
1.687479e+003;4.872574e-002
1.689408e+003;4.932807e-002
1.691337e+003;4.937188e-002
1.693265e+003;4.865558e-002
1.695194e+003;4.650040e-002
1.697122e+003;4.610605e-002
1.699051e+003;4.486291e-002
1.700979e+003;4.412481e-002
1.702908e+003;4.591653e-002
1.704836e+003;4.585466e-002
1.706765e+003;4.582734e-002
1.708693e+003;4.634421e-002
1.710622e+003;4.668096e-002
1.712551e+003;4.623765e-002
1.714479e+003;4.473926e-002
1.716408e+003;4.297799e-002
1.718336e+003;4.335395e-002
1.720265e+003;4.535734e-002
1.722193e+003;4.617264e-002
1.724122e+003;4.638915e-002
1.726050e+003;4.712048e-002
1.727979e+003;4.796796e-002
1.729908e+003;4.860807e-002
1.731836e+003;4.794079e-002
1.733765e+003;4.721633e-002
1.735693e+003;4.983988e-002
1.737622e+003;5.228866e-002
1.739550e+003;5.213964e-002
1.741479e+003;5.197376e-002
1.743407e+003;5.164792e-002
1.745336e+003;5.058922e-002
1.747265e+003;4.864250e-002
1.749193e+003;4.605709e-002
1.751122e+003;4.355020e-002
1.753050e+003;4.195351e-002
1.754979e+003;3.991483e-002
1.756907e+003;3.780444e-002
1.758836e+003;3.622287e-002
1.760764e+003;3.458252e-002
1.762693e+003;3.376174e-002
1.764621e+003;3.345615e-002
1.766550e+003;3.245101e-002
1.768479e+003;3.154481e-002
1.770407e+003;3.064838e-002
1.772336e+003;2.993708e-002
1.774264e+003;3.060117e-002
1.776193e+003;3.126655e-002
1.778121e+003;3.135077e-002
1.780050e+003;3.109969e-002
1.781978e+003;3.085786e-002
1.783907e+003;3.062467e-002
1.785835e+003;3.036797e-002
1.787764e+003;3.010105e-002
1.789693e+003;2.950897e-002
1.791621e+003;2.859001e-002
1.793550e+003;2.871386e-002
1.795478e+003;2.971013e-002
1.797407e+003;2.980345e-002
1.799335e+003;2.940479e-002
1.801264e+003;2.926051e-002
1.803192e+003;2.950865e-002
1.805121e+003;2.997525e-002
1.807049e+003;3.018529e-002
1.808978e+003;3.006174e-002
1.810907e+003;2.993222e-002
1.812835e+003;2.979554e-002
1.814764e+003;2.964886e-002
1.816692e+003;2.968153e-002
1.818621e+003;2.995849e-002
1.820549e+003;3.005687e-002
1.822478e+003;2.982581e-002
1.824406e+003;2.932566e-002
1.826335e+003;2.902937e-002
1.828264e+003;2.868827e-002
1.830192e+003;2.861146e-002
1.832121e+003;2.888196e-002
1.834049e+003;2.872349e-002
1.835978e+003;2.848584e-002
1.837906e+003;2.844795e-002
1.839835e+003;2.846486e-002
1.841763e+003;2.820151e-002
1.843692e+003;2.761181e-002
1.845620e+003;2.799805e-002
1.847549e+003;2.862130e-002
1.849478e+003;2.870596e-002
1.851406e+003;2.873092e-002
1.853335e+003;2.876830e-002
1.855263e+003;2.880335e-002
1.857192e+003;2.862816e-002
1.859120e+003;2.844247e-002
1.861049e+003;2.862502e-002
1.862977e+003;2.915972e-002
1.864906e+003;2.924559e-002
1.866834e+003;2.885445e-002
1.868763e+003;2.873963e-002
1.870692e+003;2.917024e-002
1.872620e+003;2.939529e-002
1.874549e+003;2.947191e-002
1.876477e+003;2.963176e-002
1.878406e+003;2.966216e-002
1.880334e+003;2.972233e-002
1.882263e+003;3.011689e-002
1.884191e+003;3.080333e-002
1.886120e+003;3.142724e-002
1.888048e+003;3.203218e-002
1.889977e+003;3.256446e-002
1.891906e+003;3.324552e-002
1.893834e+003;3.364290e-002
1.895763e+003;3.382445e-002
1.897691e+003;3.371612e-002
1.899620e+003;3.350486e-002
1.901548e+003;3.348518e-002
1.903477e+003;3.341478e-002
1.905405e+003;3.305709e-002
1.907334e+003;3.250871e-002
1.909262e+003;3.213960e-002
1.911191e+003;3.204010e-002
1.913120e+003;3.179440e-002
1.915048e+003;3.128831e-002
1.916977e+003;3.101125e-002
1.918905e+003;3.123062e-002
1.920834e+003;3.130170e-002
1.922762e+003;3.089963e-002
1.924691e+003;3.090970e-002
1.926619e+003;3.114760e-002
1.928548e+003;3.121410e-002
1.930477e+003;3.101563e-002
1.932405e+003;3.095773e-002
1.934334e+003;3.106335e-002
1.936262e+003;3.101086e-002
1.938191e+003;3.079647e-002
1.940119e+003;3.061055e-002
1.942048e+003;3.040386e-002
1.943976e+003;3.029857e-002
1.945905e+003;3.031378e-002
1.947833e+003;3.041885e-002
1.949762e+003;3.049584e-002
1.951691e+003;3.059932e-002
1.953619e+003;3.060543e-002
1.955548e+003;3.067758e-002
1.957476e+003;3.060376e-002
1.959405e+003;3.036370e-002
1.961333e+003;3.039764e-002
1.963262e+003;3.061958e-002
1.965190e+003;3.053590e-002
1.967119e+003;3.020980e-002
1.969047e+003;3.023846e-002
1.970976e+003;3.029602e-002
1.972905e+003;3.011486e-002
1.974833e+003;3.021570e-002
1.976762e+003;3.042468e-002
1.978690e+003;3.030298e-002
1.980619e+003;3.011419e-002
1.982547e+003;3.000223e-002
1.984476e+003;3.001817e-002
1.986404e+003;3.019967e-002
1.988333e+003;3.040325e-002
1.990261e+003;3.039202e-002
1.992190e+003;3.042379e-002
1.994119e+003;3.055723e-002
1.996047e+003;3.048564e-002
1.997976e+003;3.050899e-002
1.999904e+003;3.072398e-002
2.001833e+003;3.106865e-002
2.003761e+003;3.133838e-002
2.005690e+003;3.170004e-002
2.007618e+003;3.211819e-002
2.009547e+003;3.273420e-002
2.011476e+003;3.369567e-002
2.013404e+003;3.473019e-002
2.015333e+003;3.558891e-002
2.017261e+003;3.591954e-002
2.019190e+003;3.595614e-002
2.021118e+003;3.597393e-002
2.023047e+003;3.583342e-002
2.024975e+003;3.532430e-002
2.026904e+003;3.462185e-002
2.028833e+003;3.417798e-002
2.030761e+003;3.402225e-002
2.032690e+003;3.381589e-002
2.034618e+003;3.340863e-002
2.036547e+003;3.312432e-002
2.038475e+003;3.269698e-002
2.040404e+003;3.243298e-002
2.042332e+003;3.267758e-002
2.044261e+003;3.284176e-002
2.046189e+003;3.253571e-002
2.048118e+003;3.211352e-002
2.050047e+003;3.200878e-002
2.051975e+003;3.192932e-002
2.053904e+003;3.178769e-002
2.055832e+003;3.182135e-002
2.057761e+003;3.189109e-002
2.059689e+003;3.167277e-002
2.061618e+003;3.145688e-002
2.063546e+003;3.137869e-002
2.065475e+003;3.127923e-002
2.067404e+003;3.134051e-002
2.069332e+003;3.139800e-002
2.071260e+003;3.121450e-002
2.073189e+003;3.132367e-002
2.075118e+003;3.158603e-002
2.077046e+003;3.152724e-002
2.078975e+003;3.144979e-002
2.080903e+003;3.137296e-002
2.082832e+003;3.095214e-002
2.084760e+003;3.080490e-002
2.086689e+003;3.099410e-002
2.088617e+003;3.061240e-002
2.090546e+003;3.044423e-002
2.092475e+003;3.085491e-002
2.094403e+003;3.091664e-002
2.096332e+003;3.069610e-002
2.098260e+003;3.058058e-002
2.100189e+003;3.079038e-002
2.102117e+003;3.089013e-002
2.104046e+003;3.082286e-002
2.105974e+003;3.080653e-002
2.107903e+003;3.057219e-002
2.109832e+003;3.038353e-002
2.111760e+003;3.054404e-002
2.113688e+003;3.053739e-002
2.115617e+003;3.010318e-002
2.117546e+003;3.019083e-002
2.119474e+003;3.065663e-002
2.121403e+003;3.057525e-002
2.123331e+003;3.053600e-002
2.125260e+003;3.036733e-002
2.127188e+003;3.034295e-002
2.129117e+003;3.061144e-002
2.131045e+003;3.081621e-002
2.132974e+003;3.114006e-002
2.134903e+003;3.154559e-002
2.136831e+003;3.181953e-002
2.138760e+003;3.195917e-002
2.140688e+003;3.205255e-002
2.142617e+003;3.209568e-002
2.144545e+003;3.233770e-002
2.146474e+003;3.261857e-002
2.148402e+003;3.258957e-002
2.150331e+003;3.246890e-002
2.152260e+003;3.230825e-002
2.154188e+003;3.219658e-002
2.156117e+003;3.223177e-002
2.158045e+003;3.242566e-002
2.159974e+003;3.255739e-002
2.161902e+003;3.226749e-002
2.163831e+003;3.185529e-002
2.165759e+003;3.172538e-002
2.167688e+003;3.215804e-002
2.169616e+003;3.246490e-002
2.171545e+003;3.235540e-002
2.173474e+003;3.249704e-002
2.175402e+003;3.259632e-002
2.177331e+003;3.251718e-002
2.179259e+003;3.255071e-002
2.181188e+003;3.249997e-002
2.183116e+003;3.232567e-002
2.185045e+003;3.236036e-002
2.186973e+003;3.230543e-002
2.188902e+003;3.232777e-002
2.190831e+003;3.231178e-002
2.192759e+003;3.228566e-002
2.194688e+003;3.225268e-002
2.196616e+003;3.236147e-002
2.198545e+003;3.235266e-002
2.200473e+003;3.222224e-002
2.202402e+003;3.221688e-002
2.204330e+003;3.230582e-002
2.206259e+003;3.248882e-002
2.208188e+003;3.257575e-002
2.210116e+003;3.248172e-002
2.212044e+003;3.249875e-002
2.213973e+003;3.278637e-002
2.215902e+003;3.283397e-002
2.217830e+003;3.270387e-002
2.219759e+003;3.274325e-002
2.221687e+003;3.286781e-002
2.223616e+003;3.310969e-002
2.225544e+003;3.330655e-002
2.227473e+003;3.322935e-002
2.229401e+003;3.303342e-002
2.231330e+003;3.318139e-002
2.233259e+003;3.355011e-002
2.235187e+003;3.433713e-002
2.237116e+003;3.573915e-002
2.239044e+003;3.719824e-002
2.240973e+003;3.833353e-002
2.242901e+003;3.890197e-002
2.244830e+003;3.901019e-002
2.246758e+003;3.870106e-002
2.248687e+003;3.794464e-002
2.250615e+003;3.741910e-002
2.252544e+003;3.720845e-002
2.254473e+003;3.696504e-002
2.256401e+003;3.638893e-002
2.258330e+003;3.604978e-002
2.260258e+003;3.575869e-002
2.262187e+003;3.530291e-002
2.264115e+003;3.523783e-002
2.266044e+003;3.546798e-002
2.267972e+003;3.547452e-002
2.269901e+003;3.578683e-002
2.271830e+003;3.594319e-002
2.273758e+003;3.613543e-002
2.275687e+003;3.651286e-002
2.277615e+003;3.687190e-002
2.279544e+003;3.725531e-002
2.281472e+003;3.734792e-002
2.283401e+003;3.717517e-002
2.285329e+003;3.717333e-002
2.287258e+003;3.723809e-002
2.289187e+003;3.750850e-002
2.291115e+003;3.740725e-002
2.293043e+003;3.701851e-002
2.294972e+003;3.730502e-002
2.296901e+003;3.788093e-002
2.298829e+003;3.813926e-002
2.300758e+003;3.807918e-002
2.302686e+003;3.780816e-002
2.304615e+003;3.773967e-002
2.306543e+003;3.797632e-002
2.308472e+003;3.830320e-002
2.310400e+003;3.860208e-002
2.312329e+003;3.898250e-002
2.314258e+003;3.911267e-002
2.316186e+003;3.943577e-002
2.318115e+003;3.987150e-002
2.320043e+003;3.995283e-002
2.321972e+003;4.034737e-002
2.323900e+003;4.089002e-002
2.325829e+003;4.099305e-002
2.327757e+003;4.113698e-002
2.329686e+003;4.133125e-002
2.331615e+003;4.122660e-002
2.333543e+003;4.113797e-002
2.335472e+003;4.100791e-002
2.337400e+003;4.105077e-002
2.339329e+003;4.131963e-002
2.341257e+003;4.139846e-002
2.343186e+003;4.165250e-002
2.345114e+003;4.160662e-002
2.347043e+003;4.128541e-002
2.348971e+003;4.093236e-002
2.350900e+003;4.042475e-002
2.352829e+003;3.969088e-002
2.354757e+003;3.893030e-002
2.356686e+003;3.839144e-002
2.358614e+003;3.775930e-002
2.360543e+003;3.712858e-002
2.362471e+003;3.690508e-002
2.364400e+003;3.660719e-002
2.366328e+003;3.627085e-002
2.368257e+003;3.632207e-002
2.370186e+003;3.632873e-002
2.372114e+003;3.630629e-002
2.374042e+003;3.622308e-002
2.375971e+003;3.599127e-002
2.377900e+003;3.597400e-002
2.379828e+003;3.638713e-002
2.381757e+003;3.661050e-002
2.383685e+003;3.660949e-002
2.385614e+003;3.647916e-002
2.387542e+003;3.652436e-002
2.389471e+003;3.674632e-002
2.391399e+003;3.681884e-002
2.393328e+003;3.686555e-002
2.395257e+003;3.690674e-002
2.397185e+003;3.689318e-002
2.399114e+003;3.696093e-002
2.401042e+003;3.704121e-002
2.402971e+003;3.689845e-002
2.404899e+003;3.684542e-002
2.406828e+003;3.693712e-002
2.408756e+003;3.706495e-002
2.410685e+003;3.752674e-002
2.412614e+003;3.795726e-002
2.414542e+003;3.805530e-002
2.416471e+003;3.826690e-002
2.418399e+003;3.830385e-002
2.420328e+003;3.830990e-002
2.422256e+003;3.812566e-002
2.424185e+003;3.769894e-002
2.426113e+003;3.760925e-002
2.428042e+003;3.762002e-002
2.429970e+003;3.720762e-002
2.431899e+003;3.710356e-002
2.433828e+003;3.734521e-002
2.435756e+003;3.708483e-002
2.437685e+003;3.645815e-002
2.439613e+003;3.619139e-002
2.441542e+003;3.619921e-002
2.443470e+003;3.625954e-002
2.445399e+003;3.637737e-002
2.447327e+003;3.654587e-002
2.449256e+003;3.667493e-002
2.451185e+003;3.681873e-002
2.453113e+003;3.657262e-002
2.455042e+003;3.654508e-002
2.456970e+003;3.688470e-002
2.458899e+003;3.692774e-002
2.460827e+003;3.721571e-002
2.462756e+003;3.741480e-002
2.464684e+003;3.723238e-002
2.466613e+003;3.728120e-002
2.468542e+003;3.761131e-002
2.470470e+003;3.832861e-002
2.472398e+003;3.901465e-002
2.474327e+003;3.925533e-002
2.476256e+003;3.926606e-002
2.478184e+003;3.918280e-002
2.480113e+003;3.911637e-002
2.482041e+003;3.907751e-002
2.483970e+003;3.911728e-002
2.485898e+003;3.911564e-002
2.487827e+003;3.880880e-002
2.489755e+003;3.893190e-002
2.491684e+003;3.946483e-002
2.493613e+003;3.942709e-002
2.495541e+003;3.906935e-002
2.497470e+003;3.908244e-002
2.499398e+003;3.937191e-002
2.501327e+003;3.933847e-002
2.503255e+003;3.930571e-002
2.505184e+003;3.953490e-002
2.507112e+003;3.997143e-002
2.509041e+003;4.030294e-002
2.510969e+003;4.021457e-002
2.512898e+003;4.013086e-002
2.514827e+003;4.006716e-002
2.516755e+003;4.017953e-002
2.518684e+003;4.060207e-002
2.520612e+003;4.098384e-002
2.522541e+003;4.139055e-002
2.524469e+003;4.168003e-002
2.526398e+003;4.206746e-002
2.528326e+003;4.220324e-002
2.530255e+003;4.208798e-002
2.532184e+003;4.179519e-002
2.534112e+003;4.155900e-002
2.536041e+003;4.135181e-002
2.537969e+003;4.098723e-002
2.539898e+003;4.126530e-002
2.541826e+003;4.206593e-002
2.543755e+003;4.209597e-002
2.545683e+003;4.217264e-002
2.547612e+003;4.280171e-002
2.549541e+003;4.306195e-002
2.551469e+003;4.302138e-002
2.553397e+003;4.320646e-002
2.555326e+003;4.321488e-002
2.557255e+003;4.304413e-002
2.559183e+003;4.329288e-002
2.561112e+003;4.348947e-002
2.563040e+003;4.348877e-002
2.564969e+003;4.377069e-002
2.566897e+003;4.401376e-002
2.568826e+003;4.431991e-002
2.570754e+003;4.472226e-002
2.572683e+003;4.486082e-002
2.574612e+003;4.505477e-002
2.576540e+003;4.519774e-002
2.578469e+003;4.517696e-002
2.580397e+003;4.551465e-002
2.582326e+003;4.572719e-002
2.584254e+003;4.598201e-002
2.586183e+003;4.648307e-002
2.588111e+003;4.701361e-002
2.590040e+003;4.734020e-002
2.591969e+003;4.757120e-002
2.593897e+003;4.807761e-002
2.595826e+003;4.831385e-002
2.597754e+003;4.869943e-002
2.599683e+003;4.923424e-002
2.601611e+003;4.944371e-002
2.603540e+003;4.953239e-002
2.605468e+003;4.996997e-002
2.607397e+003;5.070296e-002
2.609325e+003;5.130722e-002
2.611254e+003;5.167031e-002
2.613183e+003;5.185475e-002
2.615111e+003;5.196349e-002
2.617040e+003;5.237627e-002
2.618968e+003;5.330371e-002
2.620897e+003;5.417473e-002
2.622825e+003;5.487730e-002
2.624754e+003;5.550069e-002
2.626682e+003;5.611377e-002
2.628611e+003;5.647245e-002
2.630540e+003;5.646615e-002
2.632468e+003;5.689926e-002
2.634396e+003;5.743043e-002
2.636325e+003;5.722377e-002
2.638254e+003;5.676443e-002
2.640182e+003;5.664376e-002
2.642111e+003;5.661783e-002
2.644039e+003;5.668476e-002
2.645968e+003;5.670213e-002
2.647896e+003;5.646049e-002
2.649825e+003;5.626016e-002
2.651753e+003;5.597237e-002
2.653682e+003;5.607747e-002
2.655611e+003;5.621178e-002
2.657539e+003;5.598639e-002
2.659468e+003;5.608203e-002
2.661396e+003;5.639661e-002
2.663325e+003;5.647758e-002
2.665253e+003;5.633263e-002
2.667182e+003;5.616969e-002
2.669110e+003;5.584868e-002
2.671039e+003;5.556432e-002
2.672968e+003;5.527529e-002
2.674896e+003;5.515519e-002
2.676825e+003;5.495426e-002
2.678753e+003;5.440286e-002
2.680682e+003;5.421902e-002
2.682610e+003;5.414102e-002
2.684539e+003;5.411152e-002
2.686467e+003;5.407166e-002
2.688396e+003;5.381157e-002
2.690324e+003;5.356201e-002
2.692253e+003;5.377774e-002
2.694182e+003;5.412676e-002
2.696110e+003;5.438539e-002
2.698039e+003;5.458643e-002
2.699967e+003;5.488128e-002
2.701896e+003;5.500315e-002
2.703824e+003;5.518491e-002
2.705753e+003;5.555694e-002
2.707681e+003;5.597685e-002
2.709610e+003;5.621408e-002
2.711539e+003;5.644694e-002
2.713467e+003;5.690624e-002
2.715396e+003;5.726312e-002
2.717324e+003;5.759876e-002
2.719253e+003;5.777839e-002
2.721181e+003;5.808594e-002
2.723110e+003;5.835949e-002
2.725038e+003;5.877313e-002
2.726967e+003;5.912585e-002
2.728896e+003;5.939911e-002
2.730824e+003;5.991517e-002
2.732752e+003;6.014607e-002
2.734681e+003;6.060386e-002
2.736610e+003;6.088239e-002
2.738538e+003;6.095143e-002
2.740467e+003;6.134366e-002
2.742395e+003;6.158097e-002
2.744324e+003;6.142537e-002
2.746252e+003;6.162794e-002
2.748181e+003;6.187316e-002
2.750109e+003;6.215885e-002
2.752038e+003;6.237515e-002
2.753967e+003;6.249734e-002
2.755895e+003;6.289147e-002
2.757824e+003;6.334691e-002
2.759752e+003;6.389352e-002
2.761681e+003;6.459801e-002
2.763609e+003;6.504650e-002
2.765538e+003;6.547708e-002
2.767466e+003;6.594916e-002
2.769395e+003;6.649698e-002
2.771323e+003;6.733476e-002
2.773252e+003;6.826073e-002
2.775181e+003;6.899747e-002
2.777109e+003;6.981973e-002
2.779038e+003;7.074846e-002
2.780966e+003;7.148056e-002
2.782895e+003;7.221907e-002
2.784823e+003;7.285459e-002
2.786752e+003;7.374887e-002
2.788680e+003;7.444484e-002
2.790609e+003;7.543802e-002
2.792538e+003;7.649496e-002
2.794466e+003;7.739286e-002
2.796395e+003;7.821798e-002
2.798323e+003;7.902083e-002
2.800252e+003;7.984933e-002
2.802180e+003;8.091724e-002
2.804109e+003;8.209155e-002
2.806037e+003;8.329736e-002
2.807966e+003;8.443089e-002
2.809895e+003;8.542776e-002
2.811823e+003;8.673426e-002
2.813751e+003;8.795948e-002
2.815680e+003;8.917317e-002
2.817609e+003;9.056169e-002
2.819537e+003;9.228990e-002
2.821466e+003;9.455890e-002
2.823394e+003;9.703726e-002
2.825323e+003;9.953211e-002
2.827251e+003;1.022863e-001
2.829180e+003;1.060689e-001
2.831108e+003;1.108776e-001
2.833037e+003;1.162378e-001
2.834966e+003;1.233232e-001
2.836894e+003;1.329575e-001
2.838823e+003;1.454432e-001
2.840751e+003;1.627925e-001
2.842680e+003;1.872915e-001
2.844608e+003;2.202975e-001
2.846537e+003;2.604177e-001
2.848465e+003;2.912952e-001
2.850394e+003;2.874137e-001
2.852323e+003;2.502497e-001
2.854251e+003;2.058576e-001
2.856180e+003;1.701784e-001
2.858108e+003;1.450590e-001
2.860037e+003;1.287452e-001
2.861965e+003;1.188024e-001
2.863894e+003;1.128136e-001
2.865822e+003;1.094956e-001
2.867751e+003;1.086324e-001
2.869679e+003;1.091838e-001
2.871608e+003;1.109164e-001
2.873536e+003;1.141733e-001
2.875465e+003;1.182427e-001
2.877394e+003;1.231441e-001
2.879322e+003;1.287377e-001
2.881251e+003;1.341966e-001
2.883179e+003;1.393687e-001
2.885108e+003;1.446786e-001
2.887036e+003;1.501309e-001
2.888965e+003;1.562056e-001
2.890893e+003;1.621839e-001
2.892822e+003;1.679015e-001
2.894750e+003;1.737168e-001
2.896679e+003;1.797497e-001
2.898608e+003;1.861264e-001
2.900536e+003;1.931759e-001
2.902465e+003;2.017625e-001
2.904393e+003;2.118849e-001
2.906322e+003;2.241030e-001
2.908250e+003;2.402319e-001
2.910179e+003;2.610353e-001
2.912107e+003;2.856587e-001
2.914036e+003;3.112359e-001
2.915965e+003;3.281651e-001
2.917893e+003;3.263187e-001
2.919822e+003;3.063210e-001
2.921750e+003;2.764709e-001
2.923679e+003;2.446795e-001
2.925607e+003;2.153637e-001
2.927536e+003;1.898697e-001
2.929464e+003;1.677087e-001
2.931393e+003;1.495038e-001
2.933322e+003;1.346971e-001
2.935250e+003;1.222037e-001
2.937178e+003;1.121294e-001
2.939107e+003;1.040072e-001
2.941036e+003;9.678338e-002
2.942964e+003;9.087907e-002
2.944893e+003;8.583382e-002
2.946821e+003;8.183557e-002
2.948750e+003;7.863685e-002
2.950678e+003;7.592892e-002
2.952607e+003;7.366418e-002
2.954535e+003;7.182198e-002
2.956464e+003;7.053933e-002
2.958393e+003;6.944637e-002
2.960321e+003;6.844847e-002
2.962250e+003;6.784861e-002
2.964178e+003;6.695815e-002
2.966107e+003;6.577753e-002
2.968035e+003;6.508745e-002
2.969964e+003;6.434317e-002
2.971892e+003;6.330447e-002
2.973821e+003;6.249428e-002
2.975750e+003;6.181157e-002
2.977678e+003;6.086440e-002
2.979607e+003;5.994765e-002
2.981535e+003;5.917206e-002
2.983464e+003;5.810916e-002
2.985392e+003;5.741167e-002
2.987321e+003;5.719103e-002
2.989249e+003;5.641638e-002
2.991178e+003;5.551955e-002
2.993106e+003;5.503117e-002
2.995035e+003;5.485526e-002
2.996964e+003;5.450630e-002
2.998892e+003;5.427612e-002
3.000821e+003;5.378670e-002
3.002749e+003;5.313880e-002
3.004678e+003;5.285569e-002
3.006606e+003;5.252825e-002
3.008535e+003;5.252769e-002
3.010463e+003;5.264109e-002
3.012392e+003;5.203643e-002
3.014321e+003;5.159556e-002
3.016249e+003;5.146182e-002
3.018177e+003;5.089113e-002
3.020106e+003;5.051611e-002
3.022035e+003;5.080109e-002
3.023963e+003;5.077681e-002
3.025892e+003;5.032986e-002
3.027820e+003;5.022506e-002
3.029749e+003;4.973439e-002
3.031677e+003;4.916860e-002
3.033606e+003;4.903044e-002
3.035534e+003;4.913116e-002
3.037463e+003;4.930098e-002
3.039392e+003;4.888213e-002
3.041320e+003;4.853681e-002
3.043249e+003;4.850287e-002
3.045177e+003;4.820866e-002
3.047106e+003;4.748241e-002
3.049034e+003;4.734002e-002
3.050963e+003;4.784945e-002
3.052891e+003;4.794735e-002
3.054820e+003;4.729756e-002
3.056749e+003;4.660965e-002
3.058677e+003;4.643793e-002
3.060606e+003;4.648414e-002
3.062534e+003;4.630134e-002
3.064463e+003;4.600356e-002
3.066391e+003;4.585609e-002
3.068320e+003;4.584100e-002
3.070248e+003;4.557529e-002
3.072177e+003;4.517976e-002
3.074105e+003;4.515766e-002
3.076034e+003;4.547186e-002
3.077963e+003;4.558026e-002
3.079891e+003;4.494562e-002
3.081820e+003;4.441029e-002
3.083748e+003;4.448017e-002
3.085677e+003;4.443598e-002
3.087605e+003;4.421453e-002
3.089534e+003;4.408021e-002
3.091462e+003;4.367051e-002
3.093391e+003;4.324764e-002
3.095320e+003;4.267945e-002
3.097248e+003;4.234717e-002
3.099177e+003;4.225897e-002
3.101105e+003;4.233373e-002
3.103034e+003;4.235769e-002
3.104962e+003;4.154300e-002
3.106891e+003;4.090462e-002
3.108819e+003;4.072760e-002
3.110748e+003;4.055784e-002
3.112677e+003;4.014471e-002
3.114605e+003;3.947989e-002
3.116533e+003;3.893748e-002
3.118462e+003;3.837678e-002
3.120391e+003;3.776074e-002
3.122319e+003;3.740516e-002
3.124248e+003;3.729997e-002
3.126176e+003;3.751955e-002
3.128105e+003;3.740317e-002
3.130033e+003;3.691197e-002
3.131962e+003;3.647138e-002
3.133890e+003;3.638126e-002
3.135819e+003;3.630031e-002
3.137748e+003;3.649845e-002
3.139676e+003;3.665041e-002
3.141605e+003;3.644176e-002
3.143533e+003;3.621970e-002
3.145462e+003;3.616709e-002
3.147390e+003;3.647671e-002
3.149319e+003;3.650634e-002
3.151247e+003;3.623843e-002
3.153176e+003;3.600935e-002
3.155104e+003;3.621902e-002
3.157033e+003;3.621527e-002
3.158962e+003;3.594956e-002
3.160890e+003;3.532379e-002
3.162819e+003;3.516288e-002
3.164747e+003;3.537591e-002
3.166676e+003;3.549599e-002
3.168604e+003;3.560171e-002
3.170533e+003;3.570559e-002
3.172461e+003;3.586559e-002
3.174390e+003;3.583382e-002
3.176319e+003;3.591939e-002
3.178247e+003;3.594909e-002
3.180176e+003;3.544864e-002
3.182104e+003;3.520570e-002
3.184033e+003;3.543372e-002
3.185961e+003;3.578319e-002
3.187890e+003;3.596158e-002
3.189818e+003;3.596161e-002
3.191747e+003;3.588197e-002
3.193676e+003;3.592519e-002
3.195604e+003;3.601809e-002
3.197532e+003;3.595398e-002
3.199461e+003;3.627229e-002
3.201390e+003;3.644677e-002
3.203318e+003;3.583267e-002
3.205247e+003;3.550149e-002
3.207175e+003;3.573135e-002
3.209104e+003;3.583360e-002
3.211032e+003;3.566786e-002
3.212961e+003;3.547276e-002
3.214889e+003;3.547830e-002
3.216818e+003;3.558819e-002
3.218747e+003;3.576114e-002
3.220675e+003;3.636090e-002
3.222604e+003;3.618405e-002
3.224532e+003;3.597695e-002
3.226461e+003;3.605658e-002
3.228389e+003;3.569188e-002
3.230318e+003;3.585411e-002
3.232246e+003;3.623972e-002
3.234175e+003;3.616615e-002
3.236104e+003;3.598368e-002
3.238032e+003;3.553310e-002
3.239961e+003;3.486434e-002
3.241889e+003;3.535456e-002
3.243818e+003;3.619071e-002
3.245746e+003;3.645938e-002
3.247675e+003;3.632830e-002
3.249603e+003;3.615019e-002
3.251532e+003;3.633223e-002
3.253460e+003;3.606328e-002
3.255389e+003;3.548894e-002
3.257318e+003;3.559474e-002
3.259246e+003;3.580374e-002
3.261175e+003;3.604488e-002
3.263103e+003;3.603498e-002
3.265032e+003;3.600269e-002
3.266960e+003;3.645927e-002
3.268889e+003;3.715600e-002
3.270817e+003;3.745919e-002
3.272746e+003;3.711179e-002
3.274675e+003;3.675862e-002
3.276603e+003;3.715770e-002
3.278531e+003;3.699610e-002
3.280460e+003;3.667100e-002
3.282389e+003;3.682129e-002
3.284317e+003;3.714832e-002
3.286246e+003;3.736926e-002
3.288174e+003;3.755379e-002
3.290103e+003;3.688983e-002
3.292031e+003;3.621228e-002
3.293960e+003;3.646608e-002
3.295888e+003;3.647051e-002
3.297817e+003;3.669908e-002
3.299746e+003;3.679785e-002
3.301674e+003;3.668830e-002
3.303603e+003;3.651671e-002
3.305531e+003;3.626915e-002
3.307460e+003;3.633054e-002
3.309388e+003;3.709638e-002
3.311317e+003;3.734084e-002
3.313245e+003;3.683049e-002
3.315174e+003;3.679688e-002
3.317103e+003;3.716987e-002
3.319031e+003;3.731669e-002
3.320960e+003;3.663988e-002
3.322888e+003;3.641131e-002
3.324817e+003;3.669195e-002
3.326745e+003;3.675252e-002
3.328674e+003;3.647138e-002
3.330602e+003;3.631656e-002
3.332531e+003;3.653377e-002
3.334459e+003;3.704373e-002
3.336388e+003;3.731347e-002
3.338317e+003;3.665312e-002
3.340245e+003;3.626879e-002
3.342174e+003;3.609028e-002
3.344102e+003;3.603818e-002
3.346031e+003;3.639838e-002
3.347959e+003;3.634170e-002
3.349888e+003;3.592684e-002
3.351816e+003;3.581910e-002
3.353745e+003;3.603797e-002
3.355674e+003;3.654811e-002
3.357602e+003;3.679850e-002
3.359531e+003;3.666599e-002
3.361459e+003;3.657637e-002
3.363388e+003;3.679713e-002
3.365316e+003;3.670727e-002
3.367245e+003;3.667612e-002
3.369173e+003;3.702302e-002
3.371102e+003;3.708483e-002
3.373031e+003;3.683107e-002
3.374959e+003;3.639502e-002
3.376887e+003;3.588470e-002
3.378816e+003;3.565728e-002
3.380745e+003;3.588513e-002
3.382673e+003;3.623472e-002
3.384602e+003;3.602054e-002
3.386530e+003;3.560243e-002
3.388459e+003;3.521307e-002
3.390387e+003;3.518695e-002
3.392316e+003;3.546722e-002
3.394244e+003;3.561059e-002
3.396173e+003;3.541366e-002
3.398102e+003;3.555597e-002
3.400030e+003;3.556161e-002
3.401959e+003;3.500536e-002
3.403887e+003;3.489817e-002
3.405816e+003;3.549621e-002
3.407744e+003;3.559693e-002
3.409673e+003;3.496478e-002
3.411601e+003;3.495013e-002
3.413530e+003;3.519137e-002
3.415458e+003;3.505582e-002
3.417387e+003;3.477312e-002
3.419316e+003;3.481368e-002
3.421244e+003;3.527578e-002
3.423173e+003;3.553205e-002
3.425101e+003;3.532175e-002
3.427030e+003;3.485989e-002
3.428958e+003;3.503366e-002
3.430887e+003;3.546208e-002
3.432815e+003;3.510292e-002
3.434744e+003;3.422182e-002
3.436673e+003;3.402942e-002
3.438601e+003;3.464083e-002
3.440530e+003;3.524638e-002
3.442458e+003;3.477912e-002
3.444387e+003;3.403665e-002
3.446315e+003;3.406188e-002
3.448244e+003;3.425512e-002
3.450172e+003;3.399523e-002
3.452101e+003;3.377420e-002
3.454030e+003;3.369847e-002
3.455958e+003;3.410876e-002
3.457886e+003;3.454503e-002
3.459815e+003;3.459099e-002
3.461744e+003;3.408683e-002
3.463672e+003;3.348017e-002
3.465601e+003;3.342935e-002
3.467529e+003;3.373900e-002
3.469458e+003;3.373911e-002
3.471386e+003;3.387224e-002
3.473315e+003;3.387263e-002
3.475243e+003;3.371472e-002
3.477172e+003;3.370763e-002
3.479101e+003;3.362435e-002
3.481029e+003;3.328938e-002
3.482958e+003;3.313279e-002
3.484886e+003;3.303678e-002
3.486815e+003;3.272002e-002
3.488743e+003;3.303947e-002
3.490672e+003;3.367859e-002
3.492600e+003;3.359893e-002
3.494529e+003;3.327074e-002
3.496458e+003;3.340248e-002
3.498386e+003;3.358909e-002
3.500315e+003;3.342931e-002
3.502243e+003;3.287911e-002
3.504172e+003;3.228459e-002
3.506100e+003;3.252207e-002
3.508029e+003;3.320707e-002
3.509957e+003;3.312675e-002
3.511886e+003;3.286706e-002
3.513814e+003;3.295853e-002
3.515743e+003;3.286792e-002
3.517672e+003;3.292718e-002
3.519600e+003;3.298923e-002
3.521529e+003;3.227117e-002
3.523457e+003;3.193007e-002
3.525386e+003;3.225168e-002
3.527314e+003;3.235587e-002
3.529243e+003;3.211862e-002
3.531171e+003;3.269172e-002
3.533100e+003;3.308634e-002
3.535029e+003;3.212997e-002
3.536957e+003;3.181975e-002
3.538885e+003;3.210203e-002
3.540814e+003;3.220789e-002
3.542743e+003;3.208052e-002
3.544671e+003;3.192230e-002
3.546600e+003;3.206636e-002
3.548528e+003;3.227780e-002
3.550457e+003;3.221610e-002
3.552385e+003;3.190764e-002
3.554314e+003;3.195899e-002
3.556242e+003;3.234145e-002
3.558171e+003;3.240042e-002
3.560100e+003;3.223658e-002
3.562028e+003;3.240803e-002
3.563957e+003;3.226021e-002
3.565885e+003;3.170264e-002
3.567814e+003;3.148043e-002
3.569742e+003;3.172271e-002
3.571671e+003;3.253471e-002
3.573599e+003;3.282342e-002
3.575528e+003;3.256985e-002
3.577457e+003;3.273842e-002
3.579385e+003;3.276986e-002
3.581314e+003;3.284448e-002
3.583242e+003;3.309957e-002
3.585171e+003;3.226260e-002
3.587099e+003;3.143868e-002
3.589028e+003;3.238353e-002
3.590956e+003;3.383026e-002
3.592885e+003;3.434688e-002
3.594813e+003;3.465913e-002
3.596742e+003;3.504634e-002
3.598671e+003;3.591673e-002
3.600599e+003;3.658938e-002
3.602528e+003;3.747262e-002
3.604456e+003;3.806290e-002
3.606385e+003;3.761727e-002
3.608313e+003;3.669007e-002
3.610242e+003;3.653236e-002
3.612170e+003;3.669313e-002
3.614099e+003;3.608733e-002
3.616028e+003;3.479552e-002
3.617956e+003;3.384652e-002
3.619885e+003;3.399018e-002
3.621813e+003;3.457344e-002
3.623742e+003;3.469351e-002
3.625670e+003;3.412421e-002
3.627599e+003;3.237240e-002
3.629527e+003;3.186267e-002
3.631456e+003;3.321305e-002
3.633385e+003;3.403680e-002
3.635313e+003;3.402587e-002
3.637241e+003;3.399330e-002
3.639170e+003;3.439609e-002
3.641099e+003;3.476522e-002
3.643027e+003;3.485838e-002
3.644956e+003;3.424118e-002
3.646884e+003;3.293908e-002
3.648813e+003;3.251046e-002
3.650741e+003;3.321730e-002
3.652670e+003;3.404586e-002
3.654598e+003;3.394242e-002
3.656527e+003;3.358282e-002
3.658456e+003;3.416360e-002
3.660384e+003;3.440480e-002
3.662313e+003;3.427402e-002
3.664241e+003;3.408414e-002
3.666170e+003;3.363065e-002
3.668098e+003;3.217389e-002
3.670027e+003;3.097684e-002
3.671955e+003;3.158364e-002
3.673884e+003;3.122557e-002
3.675813e+003;3.099890e-002
3.677741e+003;3.251150e-002
3.679669e+003;3.280270e-002
3.681598e+003;3.264121e-002
3.683527e+003;3.253121e-002
3.685455e+003;3.259157e-002
3.687384e+003;3.156166e-002
3.689312e+003;3.099808e-002
3.691241e+003;3.161675e-002
3.693169e+003;3.241227e-002
3.695098e+003;3.280138e-002
3.697026e+003;3.292529e-002
3.698955e+003;3.288089e-002
3.700884e+003;3.291896e-002
3.702812e+003;3.316111e-002
3.704741e+003;3.255542e-002
3.706669e+003;3.167848e-002
3.708598e+003;3.125149e-002
3.710526e+003;3.090059e-002
3.712455e+003;3.097296e-002
3.714383e+003;3.171857e-002
3.716312e+003;3.180709e-002
3.718240e+003;3.119146e-002
3.720169e+003;3.115451e-002
3.722098e+003;3.185380e-002
3.724026e+003;3.182848e-002
3.725955e+003;3.129155e-002
3.727883e+003;3.103516e-002
3.729812e+003;3.049967e-002
3.731740e+003;2.987521e-002
3.733669e+003;2.986641e-002
3.735597e+003;2.964900e-002
3.737526e+003;3.017421e-002
3.739455e+003;3.102520e-002
3.741383e+003;3.044682e-002
3.743312e+003;2.776783e-002
3.745240e+003;2.752633e-002
3.747169e+003;2.886443e-002
3.749097e+003;2.825250e-002
3.751026e+003;2.811702e-002
3.752954e+003;2.932197e-002
3.754883e+003;3.080490e-002
3.756812e+003;3.090272e-002
3.758740e+003;3.072142e-002
3.760668e+003;3.082098e-002
3.762597e+003;3.166828e-002
3.764526e+003;3.153964e-002
3.766454e+003;3.112358e-002
3.768383e+003;3.105638e-002
3.770311e+003;3.133037e-002
3.772240e+003;3.209796e-002
3.774168e+003;3.275003e-002
3.776097e+003;3.270862e-002
3.778025e+003;3.210117e-002
3.779954e+003;3.152895e-002
3.781883e+003;3.182082e-002
3.783811e+003;3.254514e-002
3.785740e+003;3.330744e-002
3.787668e+003;3.340945e-002
3.789597e+003;3.316280e-002
3.791525e+003;3.341092e-002
3.793454e+003;3.359915e-002
3.795382e+003;3.299728e-002
3.797311e+003;3.261503e-002
3.799240e+003;3.161041e-002
3.801168e+003;3.083826e-002
3.803097e+003;3.244805e-002
3.805025e+003;3.260803e-002
3.806954e+003;3.195439e-002
3.808882e+003;3.309793e-002
3.810811e+003;3.397133e-002
3.812739e+003;3.392003e-002
3.814668e+003;3.227192e-002
3.816596e+003;3.217282e-002
3.818525e+003;3.324874e-002
3.820454e+003;3.296768e-002
3.822382e+003;3.383219e-002
3.824311e+003;3.435011e-002
3.826239e+003;3.401089e-002
3.828168e+003;3.424871e-002
3.830096e+003;3.455579e-002
3.832025e+003;3.438415e-002
3.833953e+003;3.383097e-002
3.835882e+003;3.254674e-002
3.837811e+003;3.165310e-002
3.839739e+003;3.264872e-002
3.841667e+003;3.358451e-002
3.843596e+003;3.363008e-002
3.845525e+003;3.393443e-002
3.847453e+003;3.436930e-002
3.849382e+003;3.366141e-002
3.851310e+003;3.136979e-002
3.853239e+003;2.959437e-002
3.855167e+003;3.161992e-002
3.857096e+003;3.395055e-002
3.859024e+003;3.420522e-002
3.860953e+003;3.366477e-002
3.862882e+003;3.360298e-002
3.864810e+003;3.404984e-002
3.866739e+003;3.430701e-002
3.868667e+003;3.327418e-002
3.870596e+003;3.373564e-002
3.872524e+003;3.478213e-002
3.874453e+003;3.491914e-002
3.876381e+003;3.552368e-002
3.878310e+003;3.552116e-002
3.880239e+003;3.553306e-002
3.882167e+003;3.539367e-002
3.884096e+003;3.435944e-002
3.886024e+003;3.412966e-002
3.887953e+003;3.507741e-002
3.889881e+003;3.481103e-002
3.891810e+003;3.457940e-002
3.893738e+003;3.518404e-002
3.895667e+003;3.534834e-002
3.897595e+003;3.536685e-002
3.899524e+003;3.522996e-002
3.901453e+003;3.461194e-002
3.903381e+003;3.427377e-002
3.905310e+003;3.524527e-002
3.907238e+003;3.643996e-002
3.909167e+003;3.660531e-002
3.911095e+003;3.658747e-002
3.913024e+003;3.662128e-002
3.914952e+003;3.592379e-002
3.916881e+003;3.545852e-002
3.918810e+003;3.583666e-002
3.920738e+003;3.607717e-002
3.922667e+003;3.612348e-002
3.924595e+003;3.629671e-002
3.926524e+003;3.645646e-002
3.928452e+003;3.647369e-002
3.930381e+003;3.644677e-002
3.932309e+003;3.585296e-002
3.934238e+003;3.560650e-002
3.936167e+003;3.601971e-002
3.938095e+003;3.585840e-002
3.940023e+003;3.508966e-002
3.941952e+003;3.486653e-002
3.943881e+003;3.539094e-002
3.945809e+003;3.557254e-002
3.947738e+003;3.562976e-002
3.949666e+003;3.547686e-002
3.951595e+003;3.569864e-002
3.953523e+003;3.560822e-002
3.955452e+003;3.567689e-002
3.957380e+003;3.591799e-002
3.959309e+003;3.567357e-002
3.961238e+003;3.565379e-002
3.963166e+003;3.545507e-002
3.965095e+003;3.556132e-002
3.967023e+003;3.566613e-002
3.968952e+003;3.561933e-002
3.970880e+003;3.546179e-002
3.972809e+003;3.522360e-002
3.974737e+003;3.552504e-002
3.976666e+003;3.610598e-002
3.978594e+003;3.596881e-002
3.980523e+003;3.580762e-002
3.982452e+003;3.561257e-002
3.984380e+003;3.495666e-002
3.986309e+003;3.446255e-002
3.988237e+003;3.453778e-002
3.990166e+003;3.422770e-002
3.992094e+003;3.392622e-002
3.994023e+003;3.469846e-002
3.995951e+003;3.528271e-002
3.997880e+003;3.504789e-002
3.999809e+003;3.531319e-002
4.001737e+003;0.000000e+000
