3.992094e+002;0.000000e+000
4.011380e+002;0.000000e+000
4.030665e+002;0.000000e+000
4.049951e+002;0.000000e+000
4.069236e+002;0.000000e+000
4.088522e+002;0.000000e+000
4.107807e+002;0.000000e+000
4.127093e+002;0.000000e+000
4.146378e+002;0.000000e+000
4.165664e+002;0.000000e+000
4.184949e+002;0.000000e+000
4.204235e+002;0.000000e+000
4.223520e+002;0.000000e+000
4.242806e+002;0.000000e+000
4.262091e+002;0.000000e+000
4.281377e+002;0.000000e+000
4.300662e+002;0.000000e+000
4.319948e+002;0.000000e+000
4.339233e+002;0.000000e+000
4.358519e+002;0.000000e+000
4.377804e+002;0.000000e+000
4.397090e+002;0.000000e+000
4.416375e+002;0.000000e+000
4.435660e+002;0.000000e+000
4.454946e+002;0.000000e+000
4.474232e+002;0.000000e+000
4.493517e+002;0.000000e+000
4.512802e+002;0.000000e+000
4.532088e+002;0.000000e+000
4.551373e+002;0.000000e+000
4.570659e+002;0.000000e+000
4.589944e+002;0.000000e+000
4.609230e+002;0.000000e+000
4.628515e+002;0.000000e+000
4.647801e+002;0.000000e+000
4.667086e+002;0.000000e+000
4.686372e+002;0.000000e+000
4.705657e+002;0.000000e+000
4.724943e+002;0.000000e+000
4.744228e+002;0.000000e+000
4.763513e+002;0.000000e+000
4.782799e+002;0.000000e+000
4.802085e+002;0.000000e+000
4.821370e+002;0.000000e+000
4.840656e+002;0.000000e+000
4.859941e+002;0.000000e+000
4.879226e+002;0.000000e+000
4.898512e+002;0.000000e+000
4.917798e+002;0.000000e+000
4.937083e+002;0.000000e+000
4.956368e+002;0.000000e+000
4.975654e+002;0.000000e+000
4.994939e+002;0.000000e+000
5.014225e+002;0.000000e+000
5.033510e+002;0.000000e+000
5.052796e+002;0.000000e+000
5.072081e+002;0.000000e+000
5.091367e+002;0.000000e+000
5.110652e+002;0.000000e+000
5.129938e+002;0.000000e+000
5.149223e+002;0.000000e+000
5.168509e+002;0.000000e+000
5.187794e+002;0.000000e+000
5.207079e+002;0.000000e+000
5.226365e+002;0.000000e+000
5.245651e+002;0.000000e+000
5.264936e+002;0.000000e+000
5.284222e+002;0.000000e+000
5.303507e+002;0.000000e+000
5.322792e+002;0.000000e+000
5.342078e+002;0.000000e+000
5.361364e+002;0.000000e+000
5.380649e+002;0.000000e+000
5.399935e+002;0.000000e+000
5.419220e+002;0.000000e+000
5.438505e+002;0.000000e+000
5.457791e+002;0.000000e+000
5.477076e+002;0.000000e+000
5.496362e+002;0.000000e+000
5.515648e+002;0.000000e+000
5.534933e+002;0.000000e+000
5.554218e+002;0.000000e+000
5.573504e+002;0.000000e+000
5.592789e+002;0.000000e+000
5.612075e+002;0.000000e+000
5.631360e+002;0.000000e+000
5.650646e+002;0.000000e+000
5.669931e+002;0.000000e+000
5.689217e+002;0.000000e+000
5.708502e+002;0.000000e+000
5.727787e+002;0.000000e+000
5.747073e+002;0.000000e+000
5.766359e+002;0.000000e+000
5.785644e+002;0.000000e+000
5.804930e+002;0.000000e+000
5.824215e+002;0.000000e+000
5.843500e+002;0.000000e+000
5.862786e+002;0.000000e+000
5.882072e+002;0.000000e+000
5.901357e+002;0.000000e+000
5.920643e+002;0.000000e+000
5.939928e+002;0.000000e+000
5.959213e+002;0.000000e+000
5.978499e+002;0.000000e+000
5.997784e+002;4.707605e-002
6.017070e+002;4.829630e-002
6.036355e+002;4.475109e-002
6.055641e+002;3.963722e-002
6.074926e+002;3.810519e-002
6.094211e+002;3.904981e-002
6.113497e+002;4.043410e-002
6.132783e+002;4.012211e-002
6.152068e+002;3.838087e-002
6.171354e+002;3.782591e-002
6.190639e+002;3.661039e-002
6.209924e+002;3.470955e-002
6.229210e+002;3.299488e-002
6.248495e+002;3.640342e-002
6.267781e+002;3.940627e-002
6.287067e+002;3.792053e-002
6.306352e+002;3.874189e-002
6.325637e+002;4.463618e-002
6.344923e+002;4.463772e-002
6.364208e+002;3.912152e-002
6.383494e+002;3.757460e-002
6.402780e+002;3.990361e-002
6.422065e+002;4.450881e-002
6.441350e+002;4.568648e-002
6.460636e+002;4.498369e-002
6.479921e+002;4.401241e-002
6.499207e+002;4.341187e-002
6.518492e+002;4.059636e-002
6.537778e+002;3.995871e-002
6.557063e+002;4.070737e-002
6.576349e+002;4.245783e-002
6.595634e+002;4.326283e-002
6.614919e+002;4.190297e-002
6.634205e+002;4.088630e-002
6.653491e+002;4.033192e-002
6.672776e+002;4.212109e-002
6.692062e+002;4.374987e-002
6.711347e+002;4.447981e-002
6.730632e+002;4.434654e-002
6.749918e+002;4.290238e-002
6.769203e+002;4.299683e-002
6.788489e+002;4.400988e-002
6.807775e+002;4.470342e-002
6.827060e+002;4.621741e-002
6.846345e+002;4.768652e-002
6.865631e+002;4.839041e-002
6.884916e+002;5.089731e-002
6.904202e+002;5.321902e-002
6.923488e+002;5.382166e-002
6.942773e+002;5.464283e-002
6.962058e+002;5.763750e-002
6.981344e+002;6.237488e-002
7.000629e+002;6.687713e-002
7.019915e+002;7.082798e-002
7.039200e+002;7.648900e-002
7.058486e+002;8.401307e-002
7.077771e+002;9.428143e-002
7.097057e+002;1.099104e-001
7.116342e+002;1.347209e-001
7.135627e+002;1.667089e-001
7.154913e+002;1.890672e-001
7.174199e+002;1.878478e-001
7.193484e+002;1.668122e-001
7.212770e+002;1.378142e-001
7.232055e+002;1.136845e-001
7.251340e+002;9.925081e-002
7.270626e+002;9.295169e-002
7.289911e+002;9.357905e-002
7.309197e+002;9.784569e-002
7.328483e+002;9.255151e-002
7.347768e+002;7.536723e-002
7.367053e+002;6.017008e-002
7.386339e+002;5.205499e-002
7.405624e+002;4.831293e-002
7.424910e+002;4.624528e-002
7.444196e+002;4.456208e-002
7.463481e+002;4.372070e-002
7.482766e+002;4.224842e-002
7.502052e+002;4.034889e-002
7.521337e+002;3.848534e-002
7.540623e+002;3.772474e-002
7.559908e+002;3.857253e-002
7.579194e+002;3.767780e-002
7.598479e+002;3.655168e-002
7.617765e+002;3.673882e-002
7.637050e+002;3.597292e-002
7.656335e+002;3.560650e-002
7.675621e+002;3.581248e-002
7.694907e+002;3.618505e-002
7.714192e+002;3.563135e-002
7.733478e+002;3.498711e-002
7.752763e+002;3.535230e-002
7.772048e+002;3.596719e-002
7.791334e+002;3.601291e-002
7.810620e+002;3.474670e-002
7.829905e+002;3.437443e-002
7.849191e+002;3.453580e-002
7.868476e+002;3.454919e-002
7.887761e+002;3.539328e-002
7.907047e+002;3.599952e-002
7.926332e+002;3.608315e-002
7.945618e+002;3.548222e-002
7.964903e+002;3.565379e-002
7.984189e+002;3.554798e-002
8.003474e+002;3.512149e-002
8.022759e+002;3.567257e-002
8.042045e+002;3.556068e-002
8.061331e+002;3.560024e-002
8.080616e+002;3.622460e-002
8.099902e+002;3.666613e-002
8.119187e+002;3.716326e-002
8.138472e+002;3.709108e-002
8.157758e+002;3.650543e-002
8.177043e+002;3.637571e-002
8.196329e+002;3.704741e-002
8.215615e+002;3.757605e-002
8.234900e+002;3.765080e-002
8.254185e+002;3.788701e-002
8.273471e+002;3.808547e-002
8.292756e+002;3.813423e-002
8.312042e+002;3.846072e-002
8.331328e+002;3.824758e-002
8.350613e+002;3.802782e-002
8.369898e+002;3.860607e-002
8.389184e+002;3.928917e-002
8.408469e+002;3.917384e-002
8.427755e+002;3.849255e-002
8.447040e+002;3.849023e-002
8.466326e+002;3.832622e-002
8.485611e+002;3.706639e-002
8.504897e+002;3.633151e-002
8.524182e+002;3.640558e-002
8.543467e+002;3.677776e-002
8.562753e+002;3.680575e-002
8.582039e+002;3.610868e-002
8.601324e+002;3.549556e-002
8.620610e+002;3.516611e-002
8.639895e+002;3.519176e-002
8.659180e+002;3.537990e-002
8.678466e+002;3.571055e-002
8.697751e+002;3.640871e-002
8.717037e+002;3.696017e-002
8.736323e+002;3.703911e-002
8.755608e+002;3.688575e-002
8.774893e+002;3.690396e-002
8.794179e+002;3.676752e-002
8.813464e+002;3.683983e-002
8.832750e+002;3.723520e-002
8.852036e+002;3.768438e-002
8.871321e+002;3.806735e-002
8.890606e+002;3.801686e-002
8.909892e+002;3.748252e-002
8.929177e+002;3.753837e-002
8.948463e+002;3.799943e-002
8.967748e+002;3.822924e-002
8.987034e+002;3.866984e-002
9.006319e+002;3.896035e-002
9.025605e+002;3.870436e-002
9.044890e+002;3.886950e-002
9.064175e+002;3.977693e-002
9.083461e+002;4.027578e-002
9.102747e+002;3.994476e-002
9.122032e+002;3.936012e-002
9.141318e+002;3.839788e-002
9.160603e+002;3.781052e-002
9.179888e+002;3.799643e-002
9.199174e+002;3.808873e-002
9.218459e+002;3.742488e-002
9.237745e+002;3.706120e-002
9.257031e+002;3.716997e-002
9.276316e+002;3.747866e-002
9.295601e+002;3.759003e-002
9.314887e+002;3.743188e-002
9.334172e+002;3.705914e-002
9.353458e+002;3.741498e-002
9.372744e+002;3.772840e-002
9.392029e+002;3.774903e-002
9.411314e+002;3.763494e-002
9.430600e+002;3.741068e-002
9.449885e+002;3.756424e-002
9.469171e+002;3.775084e-002
9.488456e+002;3.780914e-002
9.507742e+002;3.808504e-002
9.527027e+002;3.805299e-002
9.546313e+002;3.787591e-002
9.565598e+002;3.796439e-002
9.584883e+002;3.833208e-002
9.604169e+002;3.832198e-002
9.623455e+002;3.824132e-002
9.642740e+002;3.837964e-002
9.662026e+002;3.873494e-002
9.681311e+002;3.880015e-002
9.700596e+002;3.886272e-002
9.719882e+002;3.913001e-002
9.739167e+002;3.952416e-002
9.758453e+002;3.996754e-002
9.777739e+002;4.009412e-002
9.797024e+002;3.963374e-002
9.816309e+002;3.963243e-002
9.835595e+002;3.995250e-002
9.854880e+002;3.979382e-002
9.874166e+002;3.925714e-002
9.893452e+002;3.871020e-002
9.912737e+002;3.874617e-002
9.932022e+002;3.902871e-002
9.951307e+002;3.938646e-002
9.970593e+002;3.956877e-002
9.989879e+002;3.967392e-002
1.000916e+003;4.023932e-002
1.002845e+003;4.077193e-002
1.004773e+003;4.133606e-002
1.006702e+003;4.156480e-002
1.008631e+003;4.113873e-002
1.010559e+003;4.117287e-002
1.012488e+003;4.217210e-002
1.014416e+003;4.277118e-002
1.016345e+003;4.262593e-002
1.018273e+003;4.286227e-002
1.020202e+003;4.375984e-002
1.022130e+003;4.459747e-002
1.024059e+003;4.510160e-002
1.025988e+003;4.530162e-002
1.027916e+003;4.586316e-002
1.029845e+003;4.722434e-002
1.031773e+003;4.802002e-002
1.033702e+003;4.771992e-002
1.035630e+003;4.759974e-002
1.037559e+003;4.736640e-002
1.039487e+003;4.731851e-002
1.041416e+003;4.752632e-002
1.043344e+003;4.749786e-002
1.045273e+003;4.744412e-002
1.047202e+003;4.751305e-002
1.049130e+003;4.800574e-002
1.051059e+003;4.877223e-002
1.052987e+003;4.908486e-002
1.054916e+003;4.903615e-002
1.056844e+003;4.931612e-002
1.058773e+003;4.997291e-002
1.060701e+003;5.033295e-002
1.062630e+003;5.062608e-002
1.064558e+003;5.102794e-002
1.066487e+003;5.198392e-002
1.068416e+003;5.262915e-002
1.070344e+003;5.229232e-002
1.072273e+003;5.198656e-002
1.074201e+003;5.268197e-002
1.076130e+003;5.308073e-002
1.078058e+003;5.253286e-002
1.079987e+003;5.145801e-002
1.081915e+003;5.013692e-002
1.083844e+003;4.924657e-002
1.085773e+003;4.864465e-002
1.087701e+003;4.796966e-002
1.089630e+003;4.759608e-002
1.091558e+003;4.680812e-002
1.093487e+003;4.605031e-002
1.095415e+003;4.503165e-002
1.097344e+003;4.435891e-002
1.099272e+003;4.481258e-002
1.101201e+003;4.498784e-002
1.103129e+003;4.444039e-002
1.105058e+003;4.351481e-002
1.106987e+003;4.256153e-002
1.108915e+003;4.208345e-002
1.110844e+003;4.188421e-002
1.112772e+003;4.254765e-002
1.114701e+003;4.302837e-002
1.116629e+003;4.272544e-002
1.118558e+003;4.227573e-002
1.120486e+003;4.186152e-002
1.122415e+003;4.139627e-002
1.124344e+003;4.118103e-002
1.126272e+003;4.160659e-002
1.128201e+003;4.177498e-002
1.130129e+003;4.174343e-002
1.132058e+003;4.204914e-002
1.133986e+003;4.210634e-002
1.135915e+003;4.196136e-002
1.137843e+003;4.193406e-002
1.139772e+003;4.224433e-002
1.141700e+003;4.298820e-002
1.143629e+003;4.382082e-002
1.145557e+003;4.454104e-002
1.147486e+003;4.532361e-002
1.149415e+003;4.550063e-002
1.151343e+003;4.525503e-002
1.153272e+003;4.501574e-002
1.155200e+003;4.455896e-002
1.157129e+003;4.441334e-002
1.159057e+003;4.434845e-002
1.160986e+003;4.407185e-002
1.162914e+003;4.386649e-002
1.164843e+003;4.341224e-002
1.166771e+003;4.323139e-002
1.168700e+003;4.329351e-002
1.170629e+003;4.322641e-002
1.172557e+003;4.264516e-002
1.174486e+003;4.268117e-002
1.176414e+003;4.302965e-002
1.178343e+003;4.240518e-002
1.180271e+003;4.145357e-002
1.182200e+003;4.105212e-002
1.184128e+003;4.093287e-002
1.186057e+003;4.069937e-002
1.187986e+003;4.039064e-002
1.189914e+003;3.984931e-002
1.191843e+003;3.953926e-002
1.193771e+003;3.933974e-002
1.195700e+003;3.926161e-002
1.197628e+003;3.921526e-002
1.199557e+003;3.938693e-002
1.201485e+003;3.891914e-002
1.203414e+003;3.848589e-002
1.205343e+003;3.875450e-002
1.207271e+003;3.882315e-002
1.209200e+003;3.890204e-002
1.211128e+003;3.905351e-002
1.213057e+003;3.912714e-002
1.214985e+003;3.909748e-002
1.216914e+003;3.884634e-002
1.218842e+003;3.869860e-002
1.220771e+003;3.894683e-002
1.222699e+003;3.930288e-002
1.224628e+003;3.942633e-002
1.226557e+003;3.916141e-002
1.228485e+003;3.964423e-002
1.230414e+003;3.996903e-002
1.232342e+003;3.996234e-002
1.234271e+003;4.036890e-002
1.236199e+003;4.055823e-002
1.238128e+003;4.032803e-002
1.240056e+003;3.995965e-002
1.241985e+003;3.978790e-002
1.243913e+003;4.003511e-002
1.245842e+003;4.040595e-002
1.247771e+003;4.104050e-002
1.249699e+003;4.160469e-002
1.251628e+003;4.224049e-002
1.253556e+003;4.316913e-002
1.255485e+003;4.365152e-002
1.257413e+003;4.369868e-002
1.259342e+003;4.317956e-002
1.261270e+003;4.253573e-002
1.263199e+003;4.235536e-002
1.265127e+003;4.263387e-002
1.267056e+003;4.301465e-002
1.268985e+003;4.313605e-002
1.270913e+003;4.299156e-002
1.272842e+003;4.301640e-002
1.274770e+003;4.315251e-002
1.276699e+003;4.302569e-002
1.278627e+003;4.288289e-002
1.280556e+003;4.301293e-002
1.282484e+003;4.309773e-002
1.284413e+003;4.315533e-002
1.286342e+003;4.307900e-002
1.288270e+003;4.304399e-002
1.290199e+003;4.323036e-002
1.292127e+003;4.358357e-002
1.294056e+003;4.400016e-002
1.295984e+003;4.415412e-002
1.297913e+003;4.442593e-002
1.299841e+003;4.462861e-002
1.301770e+003;4.452547e-002
1.303698e+003;4.454809e-002
1.305627e+003;4.455973e-002
1.307556e+003;4.403562e-002
1.309484e+003;4.329519e-002
1.311413e+003;4.273267e-002
1.313341e+003;4.199377e-002
1.315270e+003;4.109015e-002
1.317198e+003;4.006629e-002
1.319127e+003;3.912794e-002
1.321055e+003;3.860491e-002
1.322984e+003;3.811604e-002
1.324912e+003;3.777003e-002
1.326841e+003;3.758913e-002
1.328770e+003;3.727109e-002
1.330698e+003;3.712302e-002
1.332627e+003;3.736045e-002
1.334555e+003;3.756720e-002
1.336484e+003;3.769446e-002
1.338412e+003;3.784887e-002
1.340341e+003;3.864337e-002
1.342269e+003;4.020639e-002
1.344198e+003;4.135020e-002
1.346126e+003;4.208878e-002
1.348055e+003;4.278346e-002
1.349984e+003;4.365053e-002
1.351912e+003;4.427819e-002
1.353841e+003;4.424961e-002
1.355769e+003;4.395363e-002
1.357698e+003;4.392049e-002
1.359626e+003;4.387998e-002
1.361555e+003;4.401013e-002
1.363483e+003;4.542414e-002
1.365412e+003;4.742420e-002
1.367341e+003;4.831952e-002
1.369269e+003;4.842374e-002
1.371198e+003;4.739027e-002
1.373126e+003;4.525521e-002
1.375055e+003;4.387903e-002
1.376983e+003;4.352481e-002
1.378912e+003;4.302244e-002
1.380840e+003;4.207027e-002
1.382769e+003;4.108796e-002
1.384698e+003;4.039013e-002
1.386626e+003;3.921714e-002
1.388555e+003;3.889628e-002
1.390483e+003;3.924122e-002
1.392412e+003;3.867028e-002
1.394340e+003;3.758584e-002
1.396269e+003;3.770501e-002
1.398197e+003;3.814856e-002
1.400126e+003;3.900483e-002
1.402054e+003;3.979291e-002
1.403983e+003;3.984197e-002
1.405911e+003;4.018033e-002
1.407840e+003;4.083523e-002
1.409769e+003;4.130173e-002
1.411697e+003;4.195340e-002
1.413626e+003;4.258854e-002
1.415554e+003;4.291387e-002
1.417483e+003;4.175758e-002
1.419411e+003;4.132141e-002
1.421340e+003;4.438394e-002
1.423268e+003;4.706483e-002
1.425197e+003;4.945092e-002
1.427125e+003;5.233325e-002
1.429054e+003;5.496047e-002
1.430983e+003;5.791633e-002
1.432911e+003;6.074388e-002
1.434840e+003;6.145155e-002
1.436768e+003;6.216260e-002
1.438697e+003;6.633980e-002
1.440625e+003;6.921215e-002
1.442554e+003;7.055075e-002
1.444482e+003;7.197932e-002
1.446411e+003;7.329091e-002
1.448340e+003;7.526193e-002
1.450268e+003;7.913285e-002
1.452197e+003;8.413970e-002
1.454125e+003;8.875239e-002
1.456054e+003;9.159013e-002
1.457982e+003;1.023244e-001
1.459911e+003;1.238945e-001
1.461839e+003;1.411160e-001
1.463768e+003;1.431831e-001
1.465697e+003;1.462560e-001
1.467625e+003;1.602797e-001
1.469554e+003;1.821631e-001
1.471482e+003;1.987851e-001
1.473411e+003;1.803837e-001
1.475339e+003;1.332150e-001
1.477268e+003;9.470583e-002
1.479196e+003;7.579882e-002
1.481125e+003;6.665982e-002
1.483053e+003;6.133843e-002
1.484982e+003;5.716404e-002
1.486911e+003;5.324086e-002
1.488839e+003;4.993503e-002
1.490768e+003;4.878357e-002
1.492696e+003;4.891135e-002
1.494625e+003;4.650682e-002
1.496553e+003;4.392093e-002
1.498482e+003;4.416035e-002
1.500410e+003;4.458176e-002
1.502339e+003;4.431238e-002
1.504267e+003;3.992202e-002
1.506196e+003;3.466211e-002
1.508125e+003;3.649895e-002
1.510053e+003;4.005604e-002
1.511982e+003;4.093869e-002
1.513910e+003;4.088321e-002
1.515839e+003;3.963563e-002
1.517767e+003;3.882337e-002
1.519696e+003;3.682490e-002
1.521624e+003;3.521056e-002
1.523553e+003;3.743622e-002
1.525481e+003;3.856876e-002
1.527410e+003;3.934238e-002
1.529339e+003;4.041839e-002
1.531267e+003;4.020759e-002
1.533196e+003;3.894781e-002
1.535124e+003;3.990924e-002
1.537053e+003;3.823695e-002
1.538981e+003;3.278984e-002
1.540910e+003;3.222706e-002
1.542838e+003;3.531269e-002
1.544767e+003;3.760694e-002
1.546695e+003;3.952551e-002
1.548624e+003;4.014584e-002
1.550553e+003;3.984313e-002
1.552481e+003;3.860013e-002
1.554410e+003;3.651967e-002
1.556338e+003;3.353414e-002
1.558267e+003;2.801416e-002
1.560195e+003;2.986116e-002
1.562124e+003;3.669753e-002
1.564052e+003;3.874243e-002
1.565981e+003;3.822085e-002
1.567910e+003;3.686273e-002
1.569838e+003;3.604041e-002
1.571767e+003;3.755607e-002
1.573695e+003;3.648309e-002
1.575624e+003;3.310364e-002
1.577552e+003;3.514121e-002
1.579481e+003;3.863975e-002
1.581409e+003;3.922933e-002
1.583338e+003;3.911445e-002
1.585266e+003;3.881489e-002
1.587195e+003;3.880261e-002
1.589124e+003;3.911340e-002
1.591052e+003;3.938494e-002
1.592981e+003;3.910705e-002
1.594909e+003;3.900808e-002
1.596838e+003;3.914861e-002
1.598766e+003;3.922817e-002
1.600695e+003;3.919952e-002
1.602623e+003;3.920021e-002
1.604552e+003;3.913856e-002
1.606480e+003;3.894690e-002
1.608409e+003;3.901697e-002
1.610338e+003;3.939477e-002
1.612266e+003;3.956463e-002
1.614195e+003;3.787591e-002
1.616123e+003;3.437712e-002
1.618052e+003;3.568426e-002
1.619980e+003;3.843911e-002
1.621909e+003;3.775423e-002
1.623837e+003;3.755661e-002
1.625766e+003;3.878591e-002
1.627694e+003;3.913305e-002
1.629623e+003;3.998076e-002
1.631552e+003;4.051804e-002
1.633480e+003;3.827693e-002
1.635409e+003;3.569994e-002
1.637337e+003;3.808880e-002
1.639266e+003;4.124420e-002
1.641194e+003;4.255258e-002
1.643123e+003;4.202085e-002
1.645051e+003;3.905760e-002
1.646980e+003;3.821614e-002
1.648909e+003;4.048570e-002
1.650837e+003;3.713814e-002
1.652766e+003;3.110361e-002
1.654694e+003;3.569008e-002
1.656623e+003;4.153873e-002
1.658551e+003;4.280573e-002
1.660480e+003;4.218393e-002
1.662408e+003;4.080691e-002
1.664337e+003;4.119403e-002
1.666266e+003;4.144428e-002
1.668194e+003;3.929468e-002
1.670123e+003;3.853701e-002
1.672051e+003;3.969720e-002
1.673980e+003;3.839296e-002
1.675908e+003;3.816965e-002
1.677837e+003;4.042362e-002
1.679765e+003;4.021933e-002
1.681694e+003;3.753627e-002
1.683622e+003;3.283440e-002
1.685551e+003;3.412758e-002
1.687479e+003;3.851608e-002
1.689408e+003;3.950812e-002
1.691337e+003;3.966844e-002
1.693265e+003;3.797664e-002
1.695194e+003;3.372002e-002
1.697122e+003;3.355605e-002
1.699051e+003;3.205269e-002
1.700979e+003;3.164579e-002
1.702908e+003;3.557139e-002
1.704836e+003;3.564563e-002
1.706765e+003;3.564930e-002
1.708693e+003;3.619107e-002
1.710622e+003;3.610263e-002
1.712551e+003;3.492122e-002
1.714479e+003;3.232463e-002
1.716408e+003;2.868412e-002
1.718336e+003;2.883674e-002
1.720265e+003;3.219722e-002
1.722193e+003;3.336183e-002
1.724122e+003;3.303535e-002
1.726050e+003;3.277987e-002
1.727979e+003;3.237354e-002
1.729908e+003;3.184919e-002
1.731836e+003;2.928387e-002
1.733765e+003;2.635056e-002
1.735693e+003;2.965223e-002
1.737622e+003;3.297890e-002
1.739550e+003;3.250396e-002
1.741479e+003;3.289079e-002
1.743407e+003;3.339621e-002
1.745336e+003;3.302084e-002
1.747265e+003;3.157962e-002
1.749193e+003;2.974086e-002
1.751122e+003;2.823825e-002
1.753050e+003;2.847035e-002
1.754979e+003;2.750413e-002
1.756907e+003;2.616091e-002
1.758836e+003;2.565498e-002
1.760764e+003;2.434360e-002
1.762693e+003;2.401838e-002
1.764621e+003;2.449888e-002
1.766550e+003;2.333955e-002
1.768479e+003;2.224054e-002
1.770407e+003;2.101742e-002
1.772336e+003;1.959036e-002
1.774264e+003;2.120783e-002
1.776193e+003;2.284846e-002
1.778121e+003;2.276915e-002
1.780050e+003;2.224821e-002
1.781978e+003;2.213886e-002
1.783907e+003;2.188897e-002
1.785835e+003;2.198652e-002
1.787764e+003;2.222816e-002
1.789693e+003;2.120717e-002
1.791621e+003;1.967838e-002
1.793550e+003;2.018260e-002
1.795478e+003;2.175591e-002
1.797407e+003;2.195605e-002
1.799335e+003;2.132784e-002
1.801264e+003;2.126928e-002
1.803192e+003;2.197585e-002
1.805121e+003;2.230684e-002
1.807049e+003;2.219416e-002
1.808978e+003;2.171421e-002
1.810907e+003;2.153173e-002
1.812835e+003;2.182506e-002
1.814764e+003;2.201402e-002
1.816692e+003;2.196414e-002
1.818621e+003;2.233789e-002
1.820549e+003;2.241331e-002
1.822478e+003;2.175288e-002
1.824406e+003;2.087305e-002
1.826335e+003;2.073147e-002
1.828264e+003;2.021228e-002
1.830192e+003;1.991389e-002
1.832121e+003;2.077561e-002
1.834049e+003;2.109609e-002
1.835978e+003;2.088358e-002
1.837906e+003;2.088897e-002
1.839835e+003;2.089662e-002
1.841763e+003;2.002782e-002
1.843692e+003;1.851354e-002
1.845620e+003;1.909867e-002
1.847549e+003;2.018156e-002
1.849478e+003;2.055756e-002
1.851406e+003;2.093883e-002
1.853335e+003;2.096574e-002
1.855263e+003;2.076192e-002
1.857192e+003;2.068984e-002
1.859120e+003;2.054673e-002
1.861049e+003;2.027185e-002
1.862977e+003;2.051522e-002
1.864906e+003;2.074617e-002
1.866834e+003;2.023581e-002
1.868763e+003;1.972657e-002
1.870692e+003;2.049667e-002
1.872620e+003;2.120717e-002
1.874549e+003;2.149033e-002
1.876477e+003;2.184357e-002
1.878406e+003;2.212871e-002
1.880334e+003;2.248236e-002
1.882263e+003;2.261292e-002
1.884191e+003;2.295778e-002
1.886120e+003;2.382022e-002
1.888048e+003;2.448061e-002
1.889977e+003;2.475967e-002
1.891906e+003;2.553035e-002
1.893834e+003;2.615753e-002
1.895763e+003;2.630564e-002
1.897691e+003;2.637552e-002
1.899620e+003;2.652406e-002
1.901548e+003;2.648733e-002
1.903477e+003;2.623155e-002
1.905405e+003;2.568155e-002
1.907334e+003;2.499939e-002
1.909262e+003;2.445485e-002
1.911191e+003;2.429342e-002
1.913120e+003;2.425492e-002
1.915048e+003;2.373272e-002
1.916977e+003;2.299135e-002
1.918905e+003;2.311487e-002
1.920834e+003;2.323408e-002
1.922762e+003;2.299481e-002
1.924691e+003;2.317449e-002
1.926619e+003;2.349604e-002
1.928548e+003;2.365259e-002
1.930477e+003;2.330435e-002
1.932405e+003;2.314482e-002
1.934334e+003;2.340424e-002
1.936262e+003;2.336389e-002
1.938191e+003;2.324100e-002
1.940119e+003;2.297797e-002
1.942048e+003;2.248791e-002
1.943976e+003;2.252040e-002
1.945905e+003;2.260266e-002
1.947833e+003;2.256521e-002
1.949762e+003;2.263935e-002
1.951691e+003;2.274199e-002
1.953619e+003;2.283106e-002
1.955548e+003;2.299803e-002
1.957476e+003;2.308628e-002
1.959405e+003;2.312224e-002
1.961333e+003;2.320573e-002
1.963262e+003;2.321231e-002
1.965190e+003;2.293804e-002
1.967119e+003;2.266462e-002
1.969047e+003;2.268389e-002
1.970976e+003;2.262123e-002
1.972905e+003;2.243257e-002
1.974833e+003;2.283878e-002
1.976762e+003;2.320584e-002
1.978690e+003;2.280941e-002
1.980619e+003;2.258228e-002
1.982547e+003;2.274834e-002
1.984476e+003;2.269199e-002
1.986404e+003;2.254909e-002
1.988333e+003;2.265568e-002
1.990261e+003;2.248550e-002
1.992190e+003;2.245986e-002
1.994119e+003;2.276077e-002
1.996047e+003;2.285970e-002
1.997976e+003;2.304736e-002
1.999904e+003;2.335462e-002
2.001833e+003;2.364605e-002
2.003761e+003;2.380695e-002
2.005690e+003;2.405364e-002
2.007618e+003;2.463127e-002
2.009547e+003;2.541398e-002
2.011476e+003;2.633310e-002
2.013404e+003;2.737742e-002
2.015333e+003;2.811850e-002
2.017261e+003;2.857338e-002
2.019190e+003;2.873230e-002
2.021118e+003;2.876979e-002
2.023047e+003;2.865988e-002
2.024975e+003;2.811462e-002
2.026904e+003;2.739446e-002
2.028833e+003;2.678664e-002
2.030761e+003;2.652677e-002
2.032690e+003;2.632595e-002
2.034618e+003;2.581540e-002
2.036547e+003;2.528996e-002
2.038475e+003;2.522948e-002
2.040404e+003;2.507774e-002
2.042332e+003;2.499915e-002
2.044261e+003;2.504909e-002
2.046189e+003;2.504551e-002
2.048118e+003;2.468679e-002
2.050047e+003;2.437574e-002
2.051975e+003;2.432668e-002
2.053904e+003;2.437217e-002
2.055832e+003;2.444893e-002
2.057761e+003;2.445488e-002
2.059689e+003;2.429514e-002
2.061618e+003;2.399824e-002
2.063546e+003;2.373675e-002
2.065475e+003;2.365385e-002
2.067404e+003;2.374934e-002
2.069332e+003;2.367670e-002
2.071260e+003;2.343536e-002
2.073189e+003;2.341186e-002
2.075118e+003;2.341582e-002
2.077046e+003;2.352053e-002
2.078975e+003;2.351252e-002
2.080903e+003;2.339823e-002
2.082832e+003;2.331424e-002
2.084760e+003;2.315429e-002
2.086689e+003;2.297549e-002
2.088617e+003;2.294982e-002
2.090546e+003;2.340599e-002
2.092475e+003;2.351444e-002
2.094403e+003;2.307168e-002
2.096332e+003;2.301183e-002
2.098260e+003;2.326128e-002
2.100189e+003;2.328659e-002
2.102117e+003;2.314178e-002
2.104046e+003;2.297361e-002
2.105974e+003;2.307741e-002
2.107903e+003;2.315768e-002
2.109832e+003;2.296966e-002
2.111760e+003;2.298758e-002
2.113688e+003;2.284147e-002
2.115617e+003;2.246586e-002
2.117546e+003;2.240766e-002
2.119474e+003;2.273116e-002
2.121403e+003;2.293354e-002
2.123331e+003;2.299537e-002
2.125260e+003;2.297619e-002
2.127188e+003;2.291625e-002
2.129117e+003;2.293703e-002
2.131045e+003;2.329610e-002
2.132974e+003;2.376215e-002
2.134903e+003;2.416964e-002
2.136831e+003;2.427899e-002
2.138760e+003;2.423904e-002
2.140688e+003;2.436277e-002
2.142617e+003;2.460031e-002
2.144545e+003;2.465056e-002
2.146474e+003;2.459624e-002
2.148402e+003;2.467781e-002
2.150331e+003;2.482605e-002
2.152260e+003;2.488282e-002
2.154188e+003;2.482243e-002
2.156117e+003;2.471544e-002
2.158045e+003;2.467041e-002
2.159974e+003;2.451858e-002
2.161902e+003;2.415952e-002
2.163831e+003;2.397933e-002
2.165759e+003;2.400514e-002
2.167688e+003;2.435489e-002
2.169616e+003;2.453965e-002
2.171545e+003;2.423936e-002
2.173474e+003;2.417763e-002
2.175402e+003;2.434879e-002
2.177331e+003;2.443518e-002
2.179259e+003;2.443617e-002
2.181188e+003;2.438948e-002
2.183116e+003;2.446410e-002
2.185045e+003;2.441762e-002
2.186973e+003;2.424500e-002
2.188902e+003;2.422692e-002
2.190831e+003;2.429412e-002
2.192759e+003;2.419571e-002
2.194688e+003;2.407907e-002
2.196616e+003;2.421704e-002
2.198545e+003;2.432090e-002
2.200473e+003;2.420937e-002
2.202402e+003;2.428911e-002
2.204330e+003;2.450067e-002
2.206259e+003;2.453874e-002
2.208188e+003;2.454719e-002
2.210116e+003;2.432528e-002
2.212044e+003;2.425628e-002
2.213973e+003;2.476606e-002
2.215902e+003;2.494236e-002
2.217830e+003;2.490246e-002
2.219759e+003;2.484724e-002
2.221687e+003;2.484334e-002
2.223616e+003;2.486738e-002
2.225544e+003;2.481293e-002
2.227473e+003;2.478149e-002
2.229401e+003;2.468409e-002
2.231330e+003;2.449664e-002
2.233259e+003;2.422706e-002
2.235187e+003;2.407679e-002
2.237116e+003;2.430737e-002
2.239044e+003;2.465130e-002
2.240973e+003;2.506980e-002
2.242901e+003;2.528300e-002
2.244830e+003;2.513830e-002
2.246758e+003;2.516898e-002
2.248687e+003;2.515395e-002
2.250615e+003;2.514672e-002
2.252544e+003;2.531458e-002
2.254473e+003;2.566567e-002
2.256401e+003;2.587518e-002
2.258330e+003;2.612245e-002
2.260258e+003;2.635651e-002
2.262187e+003;2.629230e-002
2.264115e+003;2.624348e-002
2.266044e+003;2.624186e-002
2.267972e+003;2.669492e-002
2.269901e+003;2.746113e-002
2.271830e+003;2.773890e-002
2.273758e+003;2.802395e-002
2.275687e+003;2.847519e-002
2.277615e+003;2.873977e-002
2.279544e+003;2.879415e-002
2.281472e+003;2.865482e-002
2.283401e+003;2.853495e-002
2.285329e+003;2.865542e-002
2.287258e+003;2.872607e-002
2.289187e+003;2.891277e-002
2.291115e+003;2.885116e-002
2.293043e+003;2.862813e-002
2.294972e+003;2.886238e-002
2.296901e+003;2.909807e-002
2.298829e+003;2.949152e-002
2.300758e+003;2.983238e-002
2.302686e+003;2.978457e-002
2.304615e+003;2.981956e-002
2.306543e+003;3.000617e-002
2.308472e+003;3.008645e-002
2.310400e+003;3.005769e-002
2.312329e+003;3.038584e-002
2.314258e+003;3.048972e-002
2.316186e+003;3.062350e-002
2.318115e+003;3.126310e-002
2.320043e+003;3.182652e-002
2.321972e+003;3.208409e-002
2.323900e+003;3.242844e-002
2.325829e+003;3.257107e-002
2.327757e+003;3.244965e-002
2.329686e+003;3.243430e-002
2.331615e+003;3.251900e-002
2.333543e+003;3.233752e-002
2.335472e+003;3.224622e-002
2.337400e+003;3.262139e-002
2.339329e+003;3.265332e-002
2.341257e+003;3.258842e-002
2.343186e+003;3.287232e-002
2.345114e+003;3.287803e-002
2.347043e+003;3.257399e-002
2.348971e+003;3.215262e-002
2.350900e+003;3.175889e-002
2.352829e+003;3.105406e-002
2.354757e+003;2.995970e-002
2.356686e+003;2.931793e-002
2.358614e+003;2.862696e-002
2.360543e+003;2.766004e-002
2.362471e+003;2.713935e-002
2.364400e+003;2.697858e-002
2.366328e+003;2.703954e-002
2.368257e+003;2.723960e-002
2.370186e+003;2.737025e-002
2.372114e+003;2.741807e-002
2.374042e+003;2.732307e-002
2.375971e+003;2.719733e-002
2.377900e+003;2.747243e-002
2.379828e+003;2.791242e-002
2.381757e+003;2.806188e-002
2.383685e+003;2.811857e-002
2.385614e+003;2.789649e-002
2.387542e+003;2.774681e-002
2.389471e+003;2.795246e-002
2.391399e+003;2.831838e-002
2.393328e+003;2.843847e-002
2.395257e+003;2.821983e-002
2.397185e+003;2.810009e-002
2.399114e+003;2.831870e-002
2.401042e+003;2.859624e-002
2.402971e+003;2.867060e-002
2.404899e+003;2.878749e-002
2.406828e+003;2.883246e-002
2.408756e+003;2.902140e-002
2.410685e+003;2.935288e-002
2.412614e+003;2.959058e-002
2.414542e+003;2.963556e-002
2.416471e+003;2.975721e-002
2.418399e+003;2.985321e-002
2.420328e+003;2.974011e-002
2.422256e+003;2.928936e-002
2.424185e+003;2.898457e-002
2.426113e+003;2.889535e-002
2.428042e+003;2.881167e-002
2.429970e+003;2.833006e-002
2.431899e+003;2.837052e-002
2.433828e+003;2.886153e-002
2.435756e+003;2.870614e-002
2.437685e+003;2.800381e-002
2.439613e+003;2.758917e-002
2.441542e+003;2.783103e-002
2.443470e+003;2.811589e-002
2.445399e+003;2.819200e-002
2.447327e+003;2.827273e-002
2.449256e+003;2.821895e-002
2.451185e+003;2.808323e-002
2.453113e+003;2.783608e-002
2.455042e+003;2.782071e-002
2.456970e+003;2.798335e-002
2.458899e+003;2.791667e-002
2.460827e+003;2.842008e-002
2.462756e+003;2.890116e-002
2.464684e+003;2.878565e-002
2.466613e+003;2.882573e-002
2.468542e+003;2.922376e-002
2.470470e+003;2.973539e-002
2.472398e+003;3.023765e-002
2.474327e+003;3.057130e-002
2.476256e+003;3.076069e-002
2.478184e+003;3.072217e-002
2.480113e+003;3.058492e-002
2.482041e+003;3.035262e-002
2.483970e+003;3.025982e-002
2.485898e+003;3.027331e-002
2.487827e+003;3.011841e-002
2.489755e+003;3.032259e-002
2.491684e+003;3.076111e-002
2.493613e+003;3.078188e-002
2.495541e+003;3.044739e-002
2.497470e+003;3.040897e-002
2.499398e+003;3.066086e-002
2.501327e+003;3.086775e-002
2.503255e+003;3.075546e-002
2.505184e+003;3.072772e-002
2.507112e+003;3.104961e-002
2.509041e+003;3.137688e-002
2.510969e+003;3.143294e-002
2.512898e+003;3.135537e-002
2.514827e+003;3.151684e-002
2.516755e+003;3.184206e-002
2.518684e+003;3.209675e-002
2.520612e+003;3.248743e-002
2.522541e+003;3.299320e-002
2.524469e+003;3.328795e-002
2.526398e+003;3.374821e-002
2.528326e+003;3.417568e-002
2.530255e+003;3.448382e-002
2.532184e+003;3.396166e-002
2.534112e+003;3.333456e-002
2.536041e+003;3.317767e-002
2.537969e+003;3.291292e-002
2.539898e+003;3.297315e-002
2.541826e+003;3.354244e-002
2.543755e+003;3.387883e-002
2.545683e+003;3.424753e-002
2.547612e+003;3.477438e-002
2.549541e+003;3.498963e-002
2.551469e+003;3.524520e-002
2.553397e+003;3.531175e-002
2.555326e+003;3.514412e-002
2.557255e+003;3.500324e-002
2.559183e+003;3.524264e-002
2.561112e+003;3.556463e-002
2.563040e+003;3.562531e-002
2.564969e+003;3.566462e-002
2.566897e+003;3.571300e-002
2.568826e+003;3.606237e-002
2.570754e+003;3.655521e-002
2.572683e+003;3.685354e-002
2.574612e+003;3.693131e-002
2.576540e+003;3.693856e-002
2.578469e+003;3.732882e-002
2.580397e+003;3.787736e-002
2.582326e+003;3.834204e-002
2.584254e+003;3.873439e-002
2.586183e+003;3.892596e-002
2.588111e+003;3.919836e-002
2.590040e+003;3.962608e-002
2.591969e+003;4.009572e-002
2.593897e+003;4.041759e-002
2.595826e+003;4.095613e-002
2.597754e+003;4.164295e-002
2.599683e+003;4.215023e-002
2.601611e+003;4.216589e-002
2.603540e+003;4.219342e-002
2.605468e+003;4.273845e-002
2.607397e+003;4.340125e-002
2.609325e+003;4.393864e-002
2.611254e+003;4.466100e-002
2.613183e+003;4.534164e-002
2.615111e+003;4.570327e-002
2.617040e+003;4.613044e-002
2.618968e+003;4.670391e-002
2.620897e+003;4.734874e-002
2.622825e+003;4.817260e-002
2.624754e+003;4.896712e-002
2.626682e+003;4.960987e-002
2.628611e+003;5.013859e-002
2.630540e+003;5.052709e-002
2.632468e+003;5.108295e-002
2.634396e+003;5.122937e-002
2.636325e+003;5.082192e-002
2.638254e+003;5.070196e-002
2.640182e+003;5.073521e-002
2.642111e+003;5.043520e-002
2.644039e+003;5.021127e-002
2.645968e+003;5.021335e-002
2.647896e+003;5.020557e-002
2.649825e+003;5.030582e-002
2.651753e+003;5.040874e-002
2.653682e+003;5.085168e-002
2.655611e+003;5.083503e-002
2.657539e+003;5.021127e-002
2.659468e+003;5.024463e-002
2.661396e+003;5.055010e-002
2.663325e+003;5.034478e-002
2.665253e+003;5.003663e-002
2.667182e+003;4.977363e-002
2.669110e+003;4.938628e-002
2.671039e+003;4.903445e-002
2.672968e+003;4.862975e-002
2.674896e+003;4.859710e-002
2.676825e+003;4.836733e-002
2.678753e+003;4.781113e-002
2.680682e+003;4.754170e-002
2.682610e+003;4.735428e-002
2.684539e+003;4.732867e-002
2.686467e+003;4.754118e-002
2.688396e+003;4.746810e-002
2.690324e+003;4.706084e-002
2.692253e+003;4.701838e-002
2.694182e+003;4.748045e-002
2.696110e+003;4.766441e-002
2.698039e+003;4.773734e-002
2.699967e+003;4.827097e-002
2.701896e+003;4.872600e-002
2.703824e+003;4.904209e-002
2.705753e+003;4.947695e-002
2.707681e+003;4.990574e-002
2.709610e+003;5.037741e-002
2.711539e+003;5.059804e-002
2.713467e+003;5.076668e-002
2.715396e+003;5.082721e-002
2.717324e+003;5.095081e-002
2.719253e+003;5.126572e-002
2.721181e+003;5.181054e-002
2.723110e+003;5.229718e-002
2.725038e+003;5.262437e-002
2.726967e+003;5.287593e-002
2.728896e+003;5.319561e-002
2.730824e+003;5.385181e-002
2.732752e+003;5.439493e-002
2.734681e+003;5.508462e-002
2.736610e+003;5.529317e-002
2.738538e+003;5.526603e-002
2.740467e+003;5.574869e-002
2.742395e+003;5.608998e-002
2.744324e+003;5.601590e-002
2.746252e+003;5.589861e-002
2.748181e+003;5.582344e-002
2.750109e+003;5.595985e-002
2.752038e+003;5.627687e-002
2.753967e+003;5.678724e-002
2.755895e+003;5.729340e-002
2.757824e+003;5.761204e-002
2.759752e+003;5.805489e-002
2.761681e+003;5.870273e-002
2.763609e+003;5.925667e-002
2.765538e+003;6.034614e-002
2.767466e+003;6.127791e-002
2.769395e+003;6.154379e-002
2.771323e+003;6.211523e-002
2.773252e+003;6.314603e-002
2.775181e+003;6.422415e-002
2.777109e+003;6.514624e-002
2.779038e+003;6.607935e-002
2.780966e+003;6.696016e-002
2.782895e+003;6.788056e-002
2.784823e+003;6.870584e-002
2.786752e+003;6.966139e-002
2.788680e+003;7.076935e-002
2.790609e+003;7.161316e-002
2.792538e+003;7.252465e-002
2.794466e+003;7.367659e-002
2.796395e+003;7.483457e-002
2.798323e+003;7.600947e-002
2.800252e+003;7.691593e-002
2.802180e+003;7.768265e-002
2.804109e+003;7.882281e-002
2.806037e+003;8.029067e-002
2.807966e+003;8.151693e-002
2.809895e+003;8.258490e-002
2.811823e+003;8.413716e-002
2.813751e+003;8.575243e-002
2.815680e+003;8.707768e-002
2.817609e+003;8.857033e-002
2.819537e+003;9.025408e-002
2.821466e+003;9.251555e-002
2.823394e+003;9.521450e-002
2.825323e+003;9.832814e-002
2.827251e+003;1.017912e-001
2.829180e+003;1.058275e-001
2.831108e+003;1.109598e-001
2.833037e+003;1.171730e-001
2.834966e+003;1.247702e-001
2.836894e+003;1.344104e-001
2.838823e+003;1.475752e-001
2.840751e+003;1.660012e-001
2.842680e+003;1.913111e-001
2.844608e+003;2.247380e-001
2.846537e+003;2.636856e-001
2.848465e+003;2.919568e-001
2.850394e+003;2.866497e-001
2.852323e+003;2.500231e-001
2.854251e+003;2.058076e-001
2.856180e+003;1.704004e-001
2.858108e+003;1.459245e-001
2.860037e+003;1.295920e-001
2.861965e+003;1.193171e-001
2.863894e+003;1.133162e-001
2.865822e+003;1.103140e-001
2.867751e+003;1.096554e-001
2.869679e+003;1.104281e-001
2.871608e+003;1.123067e-001
2.873536e+003;1.156818e-001
2.875465e+003;1.198410e-001
2.877394e+003;1.246551e-001
2.879322e+003;1.303555e-001
2.881251e+003;1.360613e-001
2.883179e+003;1.418371e-001
2.885108e+003;1.471369e-001
2.887036e+003;1.524670e-001
2.888965e+003;1.588162e-001
2.890893e+003;1.650743e-001
2.892822e+003;1.708696e-001
2.894750e+003;1.769204e-001
2.896679e+003;1.834210e-001
2.898608e+003;1.901234e-001
2.900536e+003;1.969638e-001
2.902465e+003;2.051013e-001
2.904393e+003;2.161873e-001
2.906322e+003;2.298612e-001
2.908250e+003;2.468929e-001
2.910179e+003;2.682855e-001
2.912107e+003;2.925755e-001
2.914036e+003;3.151146e-001
2.915965e+003;3.277482e-001
2.917893e+003;3.225704e-001
2.919822e+003;3.007618e-001
2.921750e+003;2.706455e-001
2.923679e+003;2.400971e-001
2.925607e+003;2.117120e-001
2.927536e+003;1.863015e-001
2.929464e+003;1.651450e-001
2.931393e+003;1.478645e-001
2.933322e+003;1.332027e-001
2.935250e+003;1.208643e-001
2.937178e+003;1.107381e-001
2.939107e+003;1.025137e-001
2.941036e+003;9.537205e-002
2.942964e+003;8.954463e-002
2.944893e+003;8.473943e-002
2.946821e+003;8.065844e-002
2.948750e+003;7.737286e-002
2.950678e+003;7.479934e-002
2.952607e+003;7.216997e-002
2.954535e+003;7.009038e-002
2.956464e+003;6.874326e-002
2.958393e+003;6.722450e-002
2.960321e+003;6.606450e-002
2.962250e+003;6.542227e-002
2.964178e+003;6.467745e-002
2.966107e+003;6.396592e-002
2.968035e+003;6.316688e-002
2.969964e+003;6.197263e-002
2.971892e+003;6.084644e-002
2.973821e+003;5.990315e-002
2.975750e+003;5.923840e-002
2.977678e+003;5.826188e-002
2.979607e+003;5.758185e-002
2.981535e+003;5.722244e-002
2.983464e+003;5.638431e-002
2.985392e+003;5.551944e-002
2.987321e+003;5.466639e-002
2.989249e+003;5.369371e-002
2.991178e+003;5.288596e-002
2.993106e+003;5.233979e-002
2.995035e+003;5.215063e-002
2.996964e+003;5.170461e-002
2.998892e+003;5.152863e-002
3.000821e+003;5.136309e-002
3.002749e+003;5.079026e-002
3.004678e+003;5.029701e-002
3.006606e+003;4.963765e-002
3.008535e+003;4.912285e-002
3.010463e+003;4.930175e-002
3.012392e+003;4.915354e-002
3.014321e+003;4.867874e-002
3.016249e+003;4.836411e-002
3.018177e+003;4.772121e-002
3.020106e+003;4.737641e-002
3.022035e+003;4.741980e-002
3.023963e+003;4.709607e-002
3.025892e+003;4.656638e-002
3.027820e+003;4.624966e-002
3.029749e+003;4.604651e-002
3.031677e+003;4.557489e-002
3.033606e+003;4.513024e-002
3.035534e+003;4.513156e-002
3.037463e+003;4.531490e-002
3.039392e+003;4.537731e-002
3.041320e+003;4.514435e-002
3.043249e+003;4.487922e-002
3.045177e+003;4.446582e-002
3.047106e+003;4.381477e-002
3.049034e+003;4.344461e-002
3.050963e+003;4.340360e-002
3.052891e+003;4.321685e-002
3.054820e+003;4.280533e-002
3.056749e+003;4.242294e-002
3.058677e+003;4.245261e-002
3.060606e+003;4.229619e-002
3.062534e+003;4.198493e-002
3.064463e+003;4.169864e-002
3.066391e+003;4.109991e-002
3.068320e+003;4.071807e-002
3.070248e+003;4.060633e-002
3.072177e+003;4.030748e-002
3.074105e+003;4.002240e-002
3.076034e+003;3.996307e-002
3.077963e+003;4.007556e-002
3.079891e+003;3.993474e-002
3.081820e+003;3.948747e-002
3.083748e+003;3.948965e-002
3.085677e+003;3.962891e-002
3.087605e+003;3.931039e-002
3.089534e+003;3.877718e-002
3.091462e+003;3.831656e-002
3.093391e+003;3.791207e-002
3.095320e+003;3.744218e-002
3.097248e+003;3.717142e-002
3.099177e+003;3.673208e-002
3.101105e+003;3.637957e-002
3.103034e+003;3.587034e-002
3.104962e+003;3.498015e-002
3.106891e+003;3.474225e-002
3.108819e+003;3.472477e-002
3.110748e+003;3.414933e-002
3.112677e+003;3.340462e-002
3.114605e+003;3.268537e-002
3.116533e+003;3.204427e-002
3.118462e+003;3.131708e-002
3.120391e+003;3.106702e-002
3.122319e+003;3.129458e-002
3.124248e+003;3.119773e-002
3.126176e+003;3.110603e-002
3.128105e+003;3.053245e-002
3.130033e+003;2.980931e-002
3.131962e+003;2.973507e-002
3.133890e+003;2.999197e-002
3.135819e+003;2.981772e-002
3.137748e+003;2.941628e-002
3.139676e+003;2.923070e-002
3.141605e+003;2.927157e-002
3.143533e+003;2.915242e-002
3.145462e+003;2.925154e-002
3.147390e+003;2.932924e-002
3.149319e+003;2.893866e-002
3.151247e+003;2.879581e-002
3.153176e+003;2.895407e-002
3.155104e+003;2.893045e-002
3.157033e+003;2.876388e-002
3.158962e+003;2.900826e-002
3.160890e+003;2.898878e-002
3.162819e+003;2.890934e-002
3.164747e+003;2.873520e-002
3.166676e+003;2.856167e-002
3.168604e+003;2.857671e-002
3.170533e+003;2.861496e-002
3.172461e+003;2.859957e-002
3.174390e+003;2.851401e-002
3.176319e+003;2.848736e-002
3.178247e+003;2.846578e-002
3.180176e+003;2.815407e-002
3.182104e+003;2.796133e-002
3.184033e+003;2.807474e-002
3.185961e+003;2.804039e-002
3.187890e+003;2.788490e-002
3.189818e+003;2.810641e-002
3.191747e+003;2.838463e-002
3.193676e+003;2.823496e-002
3.195604e+003;2.808408e-002
3.197532e+003;2.830162e-002
3.199461e+003;2.858513e-002
3.201390e+003;2.846893e-002
3.203318e+003;2.787844e-002
3.205247e+003;2.771951e-002
3.207175e+003;2.818744e-002
3.209104e+003;2.821672e-002
3.211032e+003;2.823221e-002
3.212961e+003;2.814463e-002
3.214889e+003;2.803883e-002
3.216818e+003;2.797426e-002
3.218747e+003;2.813250e-002
3.220675e+003;2.856903e-002
3.222604e+003;2.859256e-002
3.224532e+003;2.887130e-002
3.226461e+003;2.909782e-002
3.228389e+003;2.869226e-002
3.230318e+003;2.843571e-002
3.232246e+003;2.855597e-002
3.234175e+003;2.846345e-002
3.236104e+003;2.847916e-002
3.238032e+003;2.840147e-002
3.239961e+003;2.785247e-002
3.241889e+003;2.815099e-002
3.243818e+003;2.900801e-002
3.245746e+003;2.898658e-002
3.247675e+003;2.878434e-002
3.249603e+003;2.875921e-002
3.251532e+003;2.872841e-002
3.253460e+003;2.869092e-002
3.255389e+003;2.899579e-002
3.257318e+003;2.895559e-002
3.259246e+003;2.866947e-002
3.261175e+003;2.883724e-002
3.263103e+003;2.877790e-002
3.265032e+003;2.859617e-002
3.266960e+003;2.842188e-002
3.268889e+003;2.870741e-002
3.270817e+003;2.904454e-002
3.272746e+003;2.922542e-002
3.274675e+003;2.950929e-002
3.276603e+003;2.957057e-002
3.278531e+003;2.922758e-002
3.280460e+003;2.891812e-002
3.282389e+003;2.910572e-002
3.284317e+003;2.930744e-002
3.286246e+003;2.927288e-002
3.288174e+003;2.940802e-002
3.290103e+003;2.904369e-002
3.292031e+003;2.846171e-002
3.293960e+003;2.835305e-002
3.295888e+003;2.808050e-002
3.297817e+003;2.845319e-002
3.299746e+003;2.918708e-002
3.301674e+003;2.923691e-002
3.303603e+003;2.907178e-002
3.305531e+003;2.889889e-002
3.307460e+003;2.888830e-002
3.309388e+003;2.901407e-002
3.311317e+003;2.915979e-002
3.313245e+003;2.934516e-002
3.315174e+003;2.934541e-002
3.317103e+003;2.912567e-002
3.319031e+003;2.910997e-002
3.320960e+003;2.894298e-002
3.322888e+003;2.873443e-002
3.324817e+003;2.880774e-002
3.326745e+003;2.886575e-002
3.328674e+003;2.898666e-002
3.330602e+003;2.917957e-002
3.332531e+003;2.910505e-002
3.334459e+003;2.913368e-002
3.336388e+003;2.938745e-002
3.338317e+003;2.899321e-002
3.340245e+003;2.876558e-002
3.342174e+003;2.868869e-002
3.344102e+003;2.866037e-002
3.346031e+003;2.883409e-002
3.347959e+003;2.891238e-002
3.349888e+003;2.903880e-002
3.351816e+003;2.947223e-002
3.353745e+003;2.943330e-002
3.355674e+003;2.886171e-002
3.357602e+003;2.836132e-002
3.359531e+003;2.818012e-002
3.361459e+003;2.817624e-002
3.363388e+003;2.850605e-002
3.365316e+003;2.881766e-002
3.367245e+003;2.860866e-002
3.369173e+003;2.859996e-002
3.371102e+003;2.888745e-002
3.373031e+003;2.883235e-002
3.374959e+003;2.865956e-002
3.376887e+003;2.844894e-002
3.378816e+003;2.816609e-002
3.380745e+003;2.809987e-002
3.382673e+003;2.817001e-002
3.384602e+003;2.821286e-002
3.386530e+003;2.809242e-002
3.388459e+003;2.782262e-002
3.390387e+003;2.764620e-002
3.392316e+003;2.726549e-002
3.394244e+003;2.739838e-002
3.396173e+003;2.737763e-002
3.398102e+003;2.713416e-002
3.400030e+003;2.731168e-002
3.401959e+003;2.708969e-002
3.403887e+003;2.691427e-002
3.405816e+003;2.743847e-002
3.407744e+003;2.769271e-002
3.409673e+003;2.720143e-002
3.411601e+003;2.703979e-002
3.413530e+003;2.709695e-002
3.415458e+003;2.663650e-002
3.417387e+003;2.649895e-002
3.419316e+003;2.671190e-002
3.421244e+003;2.659377e-002
3.423173e+003;2.678643e-002
3.425101e+003;2.704018e-002
3.427030e+003;2.696179e-002
3.428958e+003;2.688230e-002
3.430887e+003;2.672761e-002
3.432815e+003;2.642000e-002
3.434744e+003;2.598608e-002
3.436673e+003;2.604416e-002
3.438601e+003;2.625555e-002
3.440530e+003;2.638806e-002
3.442458e+003;2.627928e-002
3.444387e+003;2.616922e-002
3.446315e+003;2.588447e-002
3.448244e+003;2.562215e-002
3.450172e+003;2.558251e-002
3.452101e+003;2.535595e-002
3.454030e+003;2.531215e-002
3.455958e+003;2.577345e-002
3.457886e+003;2.578811e-002
3.459815e+003;2.531763e-002
3.461744e+003;2.496363e-002
3.463672e+003;2.491015e-002
3.465601e+003;2.468027e-002
3.467529e+003;2.439365e-002
3.469458e+003;2.431259e-002
3.471386e+003;2.452019e-002
3.473315e+003;2.486738e-002
3.475243e+003;2.495637e-002
3.477172e+003;2.479623e-002
3.479101e+003;2.420891e-002
3.481029e+003;2.403732e-002
3.482958e+003;2.406653e-002
3.484886e+003;2.404355e-002
3.486815e+003;2.359783e-002
3.488743e+003;2.370466e-002
3.490672e+003;2.404310e-002
3.492600e+003;2.376639e-002
3.494529e+003;2.376457e-002
3.496458e+003;2.433614e-002
3.498386e+003;2.477455e-002
3.500315e+003;2.484391e-002
3.502243e+003;2.438114e-002
3.504172e+003;2.368943e-002
3.506100e+003;2.354966e-002
3.508029e+003;2.413206e-002
3.509957e+003;2.470678e-002
3.511886e+003;2.476616e-002
3.513814e+003;2.470401e-002
3.515743e+003;2.444156e-002
3.517672e+003;2.391781e-002
3.519600e+003;2.393959e-002
3.521529e+003;2.352364e-002
3.523457e+003;2.297745e-002
3.525386e+003;2.345054e-002
3.527314e+003;2.372908e-002
3.529243e+003;2.327215e-002
3.531171e+003;2.302692e-002
3.533100e+003;2.325610e-002
3.535029e+003;2.302877e-002
3.536957e+003;2.327771e-002
3.538885e+003;2.352501e-002
3.540814e+003;2.333574e-002
3.542743e+003;2.294321e-002
3.544671e+003;2.295369e-002
3.546600e+003;2.310882e-002
3.548528e+003;2.299044e-002
3.550457e+003;2.286092e-002
3.552385e+003;2.294832e-002
3.554314e+003;2.318718e-002
3.556242e+003;2.347988e-002
3.558171e+003;2.381003e-002
3.560100e+003;2.386646e-002
3.562028e+003;2.370906e-002
3.563957e+003;2.339655e-002
3.565885e+003;2.259421e-002
3.567814e+003;2.258524e-002
3.569742e+003;2.349332e-002
3.571671e+003;2.412085e-002
3.573599e+003;2.466080e-002
3.575528e+003;2.513468e-002
3.577457e+003;2.535061e-002
3.579385e+003;2.529284e-002
3.581314e+003;2.522583e-002
3.583242e+003;2.527735e-002
3.585171e+003;2.411125e-002
3.587099e+003;2.311162e-002
3.589028e+003;2.418919e-002
3.590956e+003;2.584599e-002
3.592885e+003;2.644310e-002
3.594813e+003;2.676144e-002
3.596742e+003;2.762794e-002
3.598671e+003;2.866554e-002
3.600599e+003;2.886836e-002
3.602528e+003;2.948695e-002
3.604456e+003;2.997212e-002
3.606385e+003;2.923010e-002
3.608313e+003;2.792917e-002
3.610242e+003;2.803244e-002
3.612170e+003;2.834410e-002
3.614099e+003;2.828143e-002
3.616028e+003;2.766714e-002
3.617956e+003;2.644693e-002
3.619885e+003;2.636813e-002
3.621813e+003;2.737392e-002
3.623742e+003;2.765496e-002
3.625670e+003;2.616359e-002
3.627599e+003;2.234801e-002
3.629527e+003;2.156756e-002
3.631456e+003;2.451210e-002
3.633385e+003;2.611816e-002
3.635313e+003;2.706130e-002
3.637241e+003;2.754229e-002
3.639170e+003;2.807545e-002
3.641099e+003;2.830993e-002
3.643027e+003;2.821704e-002
3.644956e+003;2.721691e-002
3.646884e+003;2.466561e-002
3.648813e+003;2.340616e-002
3.650741e+003;2.524634e-002
3.652670e+003;2.715204e-002
3.654598e+003;2.614455e-002
3.656527e+003;2.502049e-002
3.658456e+003;2.630332e-002
3.660384e+003;2.736877e-002
3.662313e+003;2.764366e-002
3.664241e+003;2.763942e-002
3.666170e+003;2.660236e-002
3.668098e+003;2.400661e-002
3.670027e+003;2.252619e-002
3.671955e+003;2.420881e-002
3.673884e+003;2.298248e-002
3.675813e+003;2.186531e-002
3.677741e+003;2.479560e-002
3.679669e+003;2.640824e-002
3.681598e+003;2.721652e-002
3.683527e+003;2.733486e-002
3.685455e+003;2.623405e-002
3.687384e+003;2.325443e-002
3.689312e+003;2.300980e-002
3.691241e+003;2.517337e-002
3.693169e+003;2.663565e-002
3.695098e+003;2.702572e-002
3.697026e+003;2.690151e-002
3.698955e+003;2.679112e-002
3.700884e+003;2.651790e-002
3.702812e+003;2.643549e-002
3.704741e+003;2.625277e-002
3.706669e+003;2.546668e-002
3.708598e+003;2.418106e-002
3.710526e+003;2.245166e-002
3.712455e+003;2.266392e-002
3.714383e+003;2.521554e-002
3.716312e+003;2.607488e-002
3.718240e+003;2.524813e-002
3.720169e+003;2.438577e-002
3.722098e+003;2.431963e-002
3.724026e+003;2.448026e-002
3.725955e+003;2.425614e-002
3.727883e+003;2.438573e-002
3.729812e+003;2.358409e-002
3.731740e+003;2.187151e-002
3.733669e+003;2.160311e-002
3.735597e+003;2.148378e-002
3.737526e+003;2.335022e-002
3.739455e+003;2.498476e-002
3.741383e+003;2.328320e-002
3.743312e+003;1.805270e-002
3.745240e+003;1.831674e-002
3.747169e+003;2.078628e-002
3.749097e+003;1.872586e-002
3.751026e+003;1.845356e-002
3.752954e+003;2.115547e-002
3.754883e+003;2.381906e-002
3.756812e+003;2.417539e-002
3.758740e+003;2.435286e-002
3.760668e+003;2.505510e-002
3.762597e+003;2.596438e-002
3.764526e+003;2.544722e-002
3.766454e+003;2.526994e-002
3.768383e+003;2.450340e-002
3.770311e+003;2.483156e-002
3.772240e+003;2.633011e-002
3.774168e+003;2.651987e-002
3.776097e+003;2.577982e-002
3.778025e+003;2.507458e-002
3.779954e+003;2.519212e-002
3.781883e+003;2.624886e-002
3.783811e+003;2.679753e-002
3.785740e+003;2.718957e-002
3.787668e+003;2.727329e-002
3.789597e+003;2.745167e-002
3.791525e+003;2.758437e-002
3.793454e+003;2.741041e-002
3.795382e+003;2.661360e-002
3.797311e+003;2.616996e-002
3.799240e+003;2.408894e-002
3.801168e+003;2.225892e-002
3.803097e+003;2.495444e-002
3.805025e+003;2.556244e-002
3.806954e+003;2.452636e-002
3.808882e+003;2.645518e-002
3.810811e+003;2.755930e-002
3.812739e+003;2.713783e-002
3.814668e+003;2.448089e-002
3.816596e+003;2.436898e-002
3.818525e+003;2.553243e-002
3.820454e+003;2.432717e-002
3.822382e+003;2.626231e-002
3.824311e+003;2.773707e-002
3.826239e+003;2.713677e-002
3.828168e+003;2.745774e-002
3.830096e+003;2.739383e-002
3.832025e+003;2.699624e-002
3.833953e+003;2.635873e-002
3.835882e+003;2.394845e-002
3.837811e+003;2.244841e-002
3.839739e+003;2.467059e-002
3.841667e+003;2.655583e-002
3.843596e+003;2.711596e-002
3.845525e+003;2.749498e-002
3.847453e+003;2.781350e-002
3.849382e+003;2.644155e-002
3.851310e+003;2.169627e-002
3.853239e+003;1.824579e-002
3.855167e+003;2.247842e-002
3.857096e+003;2.713853e-002
3.859024e+003;2.737167e-002
3.860953e+003;2.632493e-002
3.862882e+003;2.605159e-002
3.864810e+003;2.625404e-002
3.866739e+003;2.663812e-002
3.868667e+003;2.489847e-002
3.870596e+003;2.570437e-002
3.872524e+003;2.813452e-002
3.874453e+003;2.890204e-002
3.876381e+003;3.003912e-002
3.878310e+003;2.980232e-002
3.880239e+003;2.901343e-002
3.882167e+003;2.903051e-002
3.884096e+003;2.785480e-002
3.886024e+003;2.718509e-002
3.887953e+003;2.903933e-002
3.889881e+003;2.912333e-002
3.891810e+003;2.879319e-002
3.893738e+003;2.946932e-002
3.895667e+003;2.950198e-002
3.897595e+003;2.845616e-002
3.899524e+003;2.740699e-002
3.901453e+003;2.683961e-002
3.903381e+003;2.691085e-002
3.905310e+003;2.871134e-002
3.907238e+003;3.035116e-002
3.909167e+003;3.042888e-002
3.911095e+003;3.063555e-002
3.913024e+003;3.044540e-002
3.914952e+003;2.939632e-002
3.916881e+003;2.890944e-002
3.918810e+003;2.914523e-002
3.920738e+003;2.914236e-002
3.922667e+003;2.944769e-002
3.924595e+003;3.014157e-002
3.926524e+003;3.082051e-002
3.928452e+003;3.075823e-002
3.930381e+003;2.988923e-002
3.932309e+003;2.891040e-002
3.934238e+003;2.905736e-002
3.936167e+003;2.958504e-002
3.938095e+003;2.982709e-002
3.940023e+003;2.929471e-002
3.941952e+003;2.888324e-002
3.943881e+003;2.890353e-002
3.945809e+003;2.876469e-002
3.947738e+003;2.902902e-002
3.949666e+003;2.907476e-002
3.951595e+003;2.936739e-002
3.953523e+003;2.925246e-002
3.955452e+003;2.906395e-002
3.957380e+003;2.924945e-002
3.959309e+003;2.930251e-002
3.961238e+003;2.919732e-002
3.963166e+003;2.918130e-002
3.965095e+003;2.948085e-002
3.967023e+003;2.960842e-002
3.968952e+003;2.991756e-002
3.970880e+003;3.030714e-002
3.972809e+003;3.022266e-002
3.974737e+003;2.988948e-002
3.976666e+003;2.986975e-002
3.978594e+003;2.983138e-002
3.980523e+003;2.960821e-002
3.982452e+003;2.957646e-002
3.984380e+003;2.914580e-002
3.986309e+003;2.864519e-002
3.988237e+003;2.888936e-002
3.990166e+003;2.840458e-002
3.992094e+003;2.766227e-002
3.994023e+003;2.792204e-002
3.995951e+003;2.843327e-002
3.997880e+003;2.846525e-002
3.999809e+003;2.882594e-002
4.001737e+003;0.000000e+000
