3.992094e+002;0.000000e+000
4.011380e+002;0.000000e+000
4.030665e+002;0.000000e+000
4.049951e+002;0.000000e+000
4.069236e+002;0.000000e+000
4.088522e+002;0.000000e+000
4.107807e+002;0.000000e+000
4.127093e+002;0.000000e+000
4.146378e+002;0.000000e+000
4.165664e+002;0.000000e+000
4.184949e+002;0.000000e+000
4.204235e+002;0.000000e+000
4.223520e+002;0.000000e+000
4.242806e+002;0.000000e+000
4.262091e+002;0.000000e+000
4.281377e+002;0.000000e+000
4.300662e+002;0.000000e+000
4.319948e+002;0.000000e+000
4.339233e+002;0.000000e+000
4.358519e+002;0.000000e+000
4.377804e+002;0.000000e+000
4.397090e+002;0.000000e+000
4.416375e+002;0.000000e+000
4.435660e+002;0.000000e+000
4.454946e+002;0.000000e+000
4.474232e+002;0.000000e+000
4.493517e+002;0.000000e+000
4.512802e+002;0.000000e+000
4.532088e+002;0.000000e+000
4.551373e+002;0.000000e+000
4.570659e+002;0.000000e+000
4.589944e+002;0.000000e+000
4.609230e+002;0.000000e+000
4.628515e+002;0.000000e+000
4.647801e+002;0.000000e+000
4.667086e+002;0.000000e+000
4.686372e+002;0.000000e+000
4.705657e+002;0.000000e+000
4.724943e+002;0.000000e+000
4.744228e+002;0.000000e+000
4.763513e+002;0.000000e+000
4.782799e+002;0.000000e+000
4.802085e+002;0.000000e+000
4.821370e+002;0.000000e+000
4.840656e+002;0.000000e+000
4.859941e+002;0.000000e+000
4.879226e+002;0.000000e+000
4.898512e+002;0.000000e+000
4.917798e+002;0.000000e+000
4.937083e+002;0.000000e+000
4.956368e+002;0.000000e+000
4.975654e+002;0.000000e+000
4.994939e+002;0.000000e+000
5.014225e+002;0.000000e+000
5.033510e+002;0.000000e+000
5.052796e+002;0.000000e+000
5.072081e+002;0.000000e+000
5.091367e+002;0.000000e+000
5.110652e+002;0.000000e+000
5.129938e+002;0.000000e+000
5.149223e+002;0.000000e+000
5.168509e+002;0.000000e+000
5.187794e+002;0.000000e+000
5.207079e+002;0.000000e+000
5.226365e+002;0.000000e+000
5.245651e+002;0.000000e+000
5.264936e+002;0.000000e+000
5.284222e+002;0.000000e+000
5.303507e+002;0.000000e+000
5.322792e+002;0.000000e+000
5.342078e+002;0.000000e+000
5.361364e+002;0.000000e+000
5.380649e+002;0.000000e+000
5.399935e+002;0.000000e+000
5.419220e+002;0.000000e+000
5.438505e+002;0.000000e+000
5.457791e+002;0.000000e+000
5.477076e+002;0.000000e+000
5.496362e+002;0.000000e+000
5.515648e+002;0.000000e+000
5.534933e+002;0.000000e+000
5.554218e+002;0.000000e+000
5.573504e+002;0.000000e+000
5.592789e+002;0.000000e+000
5.612075e+002;0.000000e+000
5.631360e+002;0.000000e+000
5.650646e+002;0.000000e+000
5.669931e+002;0.000000e+000
5.689217e+002;0.000000e+000
5.708502e+002;0.000000e+000
5.727787e+002;0.000000e+000
5.747073e+002;0.000000e+000
5.766359e+002;0.000000e+000
5.785644e+002;0.000000e+000
5.804930e+002;0.000000e+000
5.824215e+002;0.000000e+000
5.843500e+002;0.000000e+000
5.862786e+002;0.000000e+000
5.882072e+002;0.000000e+000
5.901357e+002;0.000000e+000
5.920643e+002;0.000000e+000
5.939928e+002;0.000000e+000
5.959213e+002;0.000000e+000
5.978499e+002;0.000000e+000
5.997784e+002;2.066301e-002
6.017070e+002;2.133641e-002
6.036355e+002;2.504643e-002
6.055641e+002;2.575433e-002
6.074926e+002;2.483447e-002
6.094211e+002;2.545355e-002
6.113497e+002;2.461651e-002
6.132783e+002;1.866990e-002
6.152068e+002;1.211683e-002
6.171354e+002;1.142467e-002
6.190639e+002;1.199221e-002
6.209924e+002;1.296321e-002
6.229210e+002;1.374639e-002
6.248495e+002;1.695512e-002
6.267781e+002;2.099266e-002
6.287067e+002;2.095357e-002
6.306352e+002;1.855213e-002
6.325637e+002;2.023790e-002
6.344923e+002;2.373444e-002
6.364208e+002;2.251963e-002
6.383494e+002;2.073676e-002
6.402780e+002;2.205306e-002
6.422065e+002;2.419753e-002
6.441350e+002;2.216714e-002
6.460636e+002;2.023078e-002
6.479921e+002;2.052606e-002
6.499207e+002;2.184520e-002
6.518492e+002;1.974031e-002
6.537778e+002;1.810234e-002
6.557063e+002;1.881319e-002
6.576349e+002;1.890056e-002
6.595634e+002;1.985912e-002
6.614919e+002;2.011388e-002
6.634205e+002;1.943843e-002
6.653491e+002;1.905564e-002
6.672776e+002;1.975071e-002
6.692062e+002;1.998542e-002
6.711347e+002;1.918063e-002
6.730632e+002;1.955390e-002
6.749918e+002;2.038612e-002
6.769203e+002;1.941757e-002
6.788489e+002;2.068796e-002
6.807775e+002;2.364472e-002
6.827060e+002;2.511674e-002
6.846345e+002;2.676370e-002
6.865631e+002;2.866119e-002
6.884916e+002;3.064981e-002
6.904202e+002;3.154295e-002
6.923488e+002;3.307207e-002
6.942773e+002;3.596799e-002
6.962058e+002;3.941483e-002
6.981344e+002;4.433601e-002
7.000629e+002;4.843045e-002
7.019915e+002;5.345324e-002
7.039200e+002;6.080310e-002
7.058486e+002;7.028998e-002
7.077771e+002;8.276419e-002
7.097057e+002;9.955907e-002
7.116342e+002;1.248357e-001
7.135627e+002;1.565113e-001
7.154913e+002;1.820350e-001
7.174199e+002;1.870562e-001
7.193484e+002;1.704189e-001
7.212770e+002;1.413189e-001
7.232055e+002;1.146162e-001
7.251340e+002;9.573506e-002
7.270626e+002;8.482260e-002
7.289911e+002;8.170497e-002
7.309197e+002;8.288520e-002
7.328483e+002;8.024435e-002
7.347768e+002;6.745495e-002
7.367053e+002;4.944836e-002
7.386339e+002;3.599308e-002
7.405624e+002;2.992917e-002
7.424910e+002;2.805156e-002
7.444196e+002;2.601559e-002
7.463481e+002;2.414271e-002
7.482766e+002;2.285121e-002
7.502052e+002;2.114121e-002
7.521337e+002;1.972255e-002
7.540623e+002;1.906408e-002
7.559908e+002;1.908337e-002
7.579194e+002;1.826425e-002
7.598479e+002;1.684599e-002
7.617765e+002;1.593210e-002
7.637050e+002;1.642335e-002
7.656335e+002;1.722894e-002
7.675621e+002;1.717271e-002
7.694907e+002;1.625646e-002
7.714192e+002;1.557849e-002
7.733478e+002;1.575041e-002
7.752763e+002;1.529442e-002
7.772048e+002;1.449412e-002
7.791334e+002;1.428139e-002
7.810620e+002;1.444263e-002
7.829905e+002;1.453821e-002
7.849191e+002;1.376800e-002
7.868476e+002;1.305539e-002
7.887761e+002;1.332088e-002
7.907047e+002;1.382170e-002
7.926332e+002;1.362117e-002
7.945618e+002;1.289053e-002
7.964903e+002;1.230188e-002
7.984189e+002;1.196609e-002
8.003474e+002;1.199926e-002
8.022759e+002;1.232553e-002
8.042045e+002;1.254989e-002
8.061331e+002;1.278139e-002
8.080616e+002;1.336516e-002
8.099902e+002;1.409981e-002
8.119187e+002;1.430488e-002
8.138472e+002;1.452677e-002
8.157758e+002;1.518937e-002
8.177043e+002;1.554861e-002
8.196329e+002;1.539111e-002
8.215615e+002;1.472728e-002
8.234900e+002;1.500841e-002
8.254185e+002;1.575653e-002
8.273471e+002;1.641633e-002
8.292756e+002;1.699181e-002
8.312042e+002;1.680779e-002
8.331328e+002;1.669167e-002
8.350613e+002;1.722815e-002
8.369898e+002;1.748813e-002
8.389184e+002;1.769122e-002
8.408469e+002;1.785794e-002
8.427755e+002;1.705219e-002
8.447040e+002;1.719140e-002
8.466326e+002;1.764152e-002
8.485611e+002;1.725414e-002
8.504897e+002;1.657300e-002
8.524182e+002;1.589852e-002
8.543467e+002;1.575488e-002
8.562753e+002;1.571029e-002
8.582039e+002;1.533986e-002
8.601324e+002;1.499596e-002
8.620610e+002;1.519524e-002
8.639895e+002;1.542716e-002
8.659180e+002;1.603306e-002
8.678466e+002;1.662357e-002
8.697751e+002;1.671718e-002
8.717037e+002;1.677965e-002
8.736323e+002;1.673719e-002
8.755608e+002;1.689297e-002
8.774893e+002;1.735517e-002
8.794179e+002;1.733927e-002
8.813464e+002;1.723146e-002
8.832750e+002;1.756140e-002
8.852036e+002;1.776487e-002
8.871321e+002;1.797448e-002
8.890606e+002;1.809491e-002
8.909892e+002;1.796356e-002
8.929177e+002;1.833800e-002
8.948463e+002;1.897733e-002
8.967748e+002;1.940350e-002
8.987034e+002;1.922506e-002
9.006319e+002;1.914528e-002
9.025605e+002;1.905525e-002
9.044890e+002;1.932739e-002
9.064175e+002;2.014085e-002
9.083461e+002;2.016070e-002
9.102747e+002;1.988971e-002
9.122032e+002;1.983207e-002
9.141318e+002;1.937225e-002
9.160603e+002;1.902718e-002
9.179888e+002;1.903625e-002
9.199174e+002;1.869829e-002
9.218459e+002;1.805491e-002
9.237745e+002;1.828864e-002
9.257031e+002;1.886430e-002
9.276316e+002;1.931921e-002
9.295601e+002;1.962953e-002
9.314887e+002;1.966441e-002
9.334172e+002;1.925451e-002
9.353458e+002;1.917707e-002
9.372744e+002;1.929001e-002
9.392029e+002;1.940159e-002
9.411314e+002;1.930286e-002
9.430600e+002;1.923636e-002
9.449885e+002;1.934336e-002
9.469171e+002;1.912852e-002
9.488456e+002;1.871414e-002
9.507742e+002;1.853312e-002
9.527027e+002;1.837667e-002
9.546313e+002;1.813278e-002
9.565598e+002;1.810441e-002
9.584883e+002;1.817344e-002
9.604169e+002;1.792244e-002
9.623455e+002;1.761971e-002
9.642740e+002;1.762423e-002
9.662026e+002;1.778879e-002
9.681311e+002;1.758549e-002
9.700596e+002;1.750558e-002
9.719882e+002;1.773177e-002
9.739167e+002;1.803778e-002
9.758453e+002;1.774137e-002
9.777739e+002;1.729600e-002
9.797024e+002;1.687506e-002
9.816309e+002;1.644445e-002
9.835595e+002;1.615548e-002
9.854880e+002;1.586828e-002
9.874166e+002;1.515698e-002
9.893452e+002;1.419042e-002
9.912737e+002;1.422274e-002
9.932022e+002;1.438235e-002
9.951307e+002;1.396843e-002
9.970593e+002;1.389012e-002
9.989879e+002;1.379376e-002
1.000916e+003;1.383333e-002
1.002845e+003;1.380436e-002
1.004773e+003;1.348863e-002
1.006702e+003;1.338604e-002
1.008631e+003;1.321341e-002
1.010559e+003;1.282490e-002
1.012488e+003;1.267589e-002
1.014416e+003;1.245048e-002
1.016345e+003;1.180975e-002
1.018273e+003;1.150751e-002
1.020202e+003;1.193935e-002
1.022130e+003;1.246477e-002
1.024059e+003;1.292337e-002
1.025988e+003;1.331746e-002
1.027916e+003;1.391882e-002
1.029845e+003;1.454233e-002
1.031773e+003;1.493518e-002
1.033702e+003;1.486372e-002
1.035630e+003;1.514727e-002
1.037559e+003;1.558707e-002
1.039487e+003;1.596881e-002
1.041416e+003;1.593805e-002
1.043344e+003;1.580237e-002
1.045273e+003;1.587226e-002
1.047202e+003;1.605032e-002
1.049130e+003;1.641052e-002
1.051059e+003;1.686156e-002
1.052987e+003;1.733589e-002
1.054916e+003;1.805560e-002
1.056844e+003;1.834232e-002
1.058773e+003;1.885156e-002
1.060701e+003;1.955806e-002
1.062630e+003;2.004243e-002
1.064558e+003;2.053186e-002
1.066487e+003;2.056333e-002
1.068416e+003;2.092781e-002
1.070344e+003;2.157852e-002
1.072273e+003;2.154461e-002
1.074201e+003;2.125557e-002
1.076130e+003;2.123194e-002
1.078058e+003;2.098219e-002
1.079987e+003;2.007463e-002
1.081915e+003;1.886676e-002
1.083844e+003;1.822074e-002
1.085773e+003;1.784520e-002
1.087701e+003;1.735762e-002
1.089630e+003;1.686379e-002
1.091558e+003;1.627988e-002
1.093487e+003;1.559422e-002
1.095415e+003;1.515029e-002
1.097344e+003;1.475936e-002
1.099272e+003;1.415619e-002
1.101201e+003;1.399632e-002
1.103129e+003;1.389809e-002
1.105058e+003;1.316853e-002
1.106987e+003;1.266648e-002
1.108915e+003;1.227720e-002
1.110844e+003;1.159306e-002
1.112772e+003;1.190673e-002
1.114701e+003;1.242007e-002
1.116629e+003;1.233082e-002
1.118558e+003;1.240704e-002
1.120486e+003;1.259655e-002
1.122415e+003;1.269926e-002
1.124344e+003;1.310483e-002
1.126272e+003;1.335891e-002
1.128201e+003;1.312314e-002
1.130129e+003;1.283855e-002
1.132058e+003;1.284555e-002
1.133986e+003;1.286510e-002
1.135915e+003;1.281842e-002
1.137843e+003;1.288746e-002
1.139772e+003;1.344724e-002
1.141700e+003;1.421891e-002
1.143629e+003;1.503015e-002
1.145557e+003;1.547646e-002
1.147486e+003;1.559315e-002
1.149415e+003;1.537161e-002
1.151343e+003;1.511063e-002
1.153272e+003;1.510071e-002
1.155200e+003;1.452153e-002
1.157129e+003;1.423942e-002
1.159057e+003;1.444835e-002
1.160986e+003;1.468334e-002
1.162914e+003;1.519857e-002
1.164843e+003;1.507722e-002
1.166771e+003;1.427927e-002
1.168700e+003;1.397251e-002
1.170629e+003;1.429649e-002
1.172557e+003;1.433471e-002
1.174486e+003;1.444397e-002
1.176414e+003;1.430882e-002
1.178343e+003;1.370945e-002
1.180271e+003;1.350244e-002
1.182200e+003;1.338413e-002
1.184128e+003;1.301872e-002
1.186057e+003;1.250849e-002
1.187986e+003;1.201902e-002
1.189914e+003;1.193275e-002
1.191843e+003;1.200236e-002
1.193771e+003;1.173822e-002
1.195700e+003;1.159139e-002
1.197628e+003;1.163829e-002
1.199557e+003;1.169145e-002
1.201485e+003;1.159027e-002
1.203414e+003;1.132859e-002
1.205343e+003;1.123340e-002
1.207271e+003;1.086253e-002
1.209200e+003;1.069728e-002
1.211128e+003;1.112689e-002
1.213057e+003;1.120981e-002
1.214985e+003;1.100456e-002
1.216914e+003;1.103484e-002
1.218842e+003;1.097391e-002
1.220771e+003;1.075831e-002
1.222699e+003;1.090731e-002
1.224628e+003;1.092899e-002
1.226557e+003;1.060780e-002
1.228485e+003;1.094686e-002
1.230414e+003;1.115174e-002
1.232342e+003;1.143553e-002
1.234271e+003;1.189110e-002
1.236199e+003;1.187210e-002
1.238128e+003;1.154365e-002
1.240056e+003;1.090038e-002
1.241985e+003;1.067765e-002
1.243913e+003;1.092467e-002
1.245842e+003;1.121647e-002
1.247771e+003;1.168703e-002
1.249699e+003;1.174343e-002
1.251628e+003;1.172947e-002
1.253556e+003;1.232315e-002
1.255485e+003;1.268712e-002
1.257413e+003;1.225695e-002
1.259342e+003;1.117771e-002
1.261270e+003;1.054920e-002
1.263199e+003;1.051672e-002
1.265127e+003;1.128944e-002
1.267056e+003;1.233290e-002
1.268985e+003;1.277883e-002
1.270913e+003;1.283814e-002
1.272842e+003;1.290214e-002
1.274770e+003;1.309722e-002
1.276699e+003;1.325675e-002
1.278627e+003;1.323496e-002
1.280556e+003;1.310401e-002
1.282484e+003;1.291743e-002
1.284413e+003;1.324962e-002
1.286342e+003;1.355984e-002
1.288270e+003;1.352398e-002
1.290199e+003;1.368719e-002
1.292127e+003;1.446791e-002
1.294056e+003;1.514477e-002
1.295984e+003;1.519277e-002
1.297913e+003;1.499246e-002
1.299841e+003;1.499942e-002
1.301770e+003;1.510483e-002
1.303698e+003;1.512102e-002
1.305627e+003;1.509951e-002
1.307556e+003;1.474959e-002
1.309484e+003;1.417289e-002
1.311413e+003;1.364066e-002
1.313341e+003;1.290146e-002
1.315270e+003;1.221013e-002
1.317198e+003;1.177250e-002
1.319127e+003;1.122857e-002
1.321055e+003;1.063843e-002
1.322984e+003;1.005061e-002
1.324912e+003;9.689218e-003
1.326841e+003;9.314074e-003
1.328770e+003;9.126945e-003
1.330698e+003;9.235341e-003
1.332627e+003;9.204407e-003
1.334555e+003;9.085056e-003
1.336484e+003;9.098522e-003
1.338412e+003;9.362994e-003
1.340341e+003;1.014228e-002
1.342269e+003;1.129767e-002
1.344198e+003;1.215162e-002
1.346126e+003;1.285913e-002
1.348055e+003;1.338324e-002
1.349984e+003;1.375135e-002
1.351912e+003;1.405279e-002
1.353841e+003;1.414811e-002
1.355769e+003;1.392693e-002
1.357698e+003;1.361118e-002
1.359626e+003;1.356288e-002
1.361555e+003;1.391102e-002
1.363483e+003;1.499520e-002
1.365412e+003;1.644947e-002
1.367341e+003;1.716103e-002
1.369269e+003;1.749068e-002
1.371198e+003;1.699333e-002
1.373126e+003;1.532400e-002
1.375055e+003;1.415044e-002
1.376983e+003;1.379523e-002
1.378912e+003;1.297198e-002
1.380840e+003;1.196909e-002
1.382769e+003;1.135998e-002
1.384698e+003;1.106326e-002
1.386626e+003;1.015375e-002
1.388555e+003;1.005082e-002
1.390483e+003;1.058281e-002
1.392412e+003;1.005723e-002
1.394340e+003;8.933301e-003
1.396269e+003;9.095105e-003
1.398197e+003;9.578643e-003
1.400126e+003;9.991683e-003
1.402054e+003;1.033681e-002
1.403983e+003;1.038720e-002
1.405911e+003;1.081028e-002
1.407840e+003;1.145566e-002
1.409769e+003;1.186855e-002
1.411697e+003;1.224220e-002
1.413626e+003;1.255054e-002
1.415554e+003;1.257274e-002
1.417483e+003;1.179467e-002
1.419411e+003;1.192175e-002
1.421340e+003;1.461541e-002
1.423268e+003;1.686882e-002
1.425197e+003;1.917180e-002
1.427125e+003;2.176807e-002
1.429054e+003;2.384188e-002
1.430983e+003;2.635366e-002
1.432911e+003;2.890973e-002
1.434840e+003;3.013152e-002
1.436768e+003;3.175953e-002
1.438697e+003;3.588578e-002
1.440625e+003;3.866608e-002
1.442554e+003;4.037428e-002
1.444482e+003;4.225247e-002
1.446411e+003;4.404820e-002
1.448340e+003;4.656671e-002
1.450268e+003;5.116898e-002
1.452197e+003;5.762445e-002
1.454125e+003;6.482922e-002
1.456054e+003;7.229487e-002
1.457982e+003;8.839294e-002
1.459911e+003;1.149013e-001
1.461839e+003;1.358821e-001
1.463768e+003;1.414276e-001
1.465697e+003;1.481574e-001
1.467625e+003;1.650287e-001
1.469554e+003;1.899223e-001
1.471482e+003;2.096253e-001
1.473411e+003;1.938996e-001
1.475339e+003;1.448015e-001
1.477268e+003;9.633742e-002
1.479196e+003;6.463376e-002
1.481125e+003;4.663208e-002
1.483053e+003;3.673828e-002
1.484982e+003;3.008780e-002
1.486911e+003;2.521607e-002
1.488839e+003;2.158504e-002
1.490768e+003;1.970279e-002
1.492696e+003;1.913066e-002
1.494625e+003;1.685443e-002
1.496553e+003;1.458553e-002
1.498482e+003;1.479334e-002
1.500410e+003;1.513677e-002
1.502339e+003;1.477671e-002
1.504267e+003;1.125251e-002
1.506196e+003;7.433930e-003
1.508125e+003;8.959955e-003
1.510053e+003;1.130036e-002
1.511982e+003;1.157951e-002
1.513910e+003;1.103100e-002
1.515839e+003;9.892454e-003
1.517767e+003;9.490989e-003
1.519696e+003;7.915486e-003
1.521624e+003;6.612683e-003
1.523553e+003;8.217089e-003
1.525481e+003;8.927789e-003
1.527410e+003;9.499895e-003
1.529339e+003;1.041021e-002
1.531267e+003;1.022610e-002
1.533196e+003;9.271253e-003
1.535124e+003;1.009799e-002
1.537053e+003;8.605886e-003
1.538981e+003;4.098476e-003
1.540910e+003;3.814827e-003
1.542838e+003;6.298375e-003
1.544767e+003;7.951221e-003
1.546695e+003;9.430847e-003
1.548624e+003;9.864117e-003
1.550553e+003;9.673634e-003
1.552481e+003;8.754045e-003
1.554410e+003;7.205598e-003
1.556338e+003;4.895877e-003
1.558267e+003;7.660715e-004
1.560195e+003;2.329263e-003
1.562124e+003;7.447952e-003
1.564052e+003;9.077612e-003
1.565981e+003;9.096763e-003
1.567910e+003;8.279866e-003
1.569838e+003;7.666733e-003
1.571767e+003;9.110027e-003
1.573695e+003;8.689609e-003
1.575624e+003;6.263245e-003
1.577552e+003;7.711015e-003
1.579481e+003;1.009314e-002
1.581409e+003;1.054214e-002
1.583338e+003;1.073097e-002
1.585266e+003;1.067436e-002
1.587195e+003;1.051064e-002
1.589124e+003;1.031539e-002
1.591052e+003;1.035153e-002
1.592981e+003;1.027817e-002
1.594909e+003;1.018956e-002
1.596838e+003;1.023577e-002
1.598766e+003;1.045949e-002
1.600695e+003;1.069606e-002
1.602623e+003;1.086127e-002
1.604552e+003;1.071202e-002
1.606480e+003;1.052551e-002
1.608409e+003;1.046757e-002
1.610338e+003;1.068991e-002
1.612266e+003;1.071745e-002
1.614195e+003;9.495527e-003
1.616123e+003;6.827677e-003
1.618052e+003;7.562706e-003
1.619980e+003;9.606319e-003
1.621909e+003;9.101974e-003
1.623837e+003;8.715572e-003
1.625766e+003;9.341089e-003
1.627694e+003;9.472566e-003
1.629623e+003;1.005167e-002
1.631552e+003;1.012807e-002
1.633480e+003;8.034954e-003
1.635409e+003;5.846648e-003
1.637337e+003;7.543724e-003
1.639266e+003;9.883505e-003
1.641194e+003;1.054561e-002
1.643123e+003;1.004580e-002
1.645051e+003;7.993778e-003
1.646980e+003;7.327398e-003
1.648909e+003;8.749785e-003
1.650837e+003;5.727848e-003
1.652766e+003;1.094968e-003
1.654694e+003;4.910555e-003
1.656623e+003;9.470026e-003
1.658551e+003;1.039056e-002
1.660480e+003;9.866930e-003
1.662408e+003;8.998719e-003
1.664337e+003;9.606319e-003
1.666266e+003;9.829070e-003
1.668194e+003;8.223335e-003
1.670123e+003;7.705753e-003
1.672051e+003;8.924000e-003
1.673980e+003;8.341808e-003
1.675908e+003;8.241807e-003
1.677837e+003;9.976833e-003
1.679765e+003;1.030155e-002
1.681694e+003;8.600208e-003
1.683622e+003;5.183184e-003
1.685551e+003;6.316630e-003
1.687479e+003;9.710158e-003
1.689408e+003;1.059877e-002
1.691337e+003;1.077275e-002
1.693265e+003;9.592836e-003
1.695194e+003;6.512137e-003
1.697122e+003;6.597679e-003
1.699051e+003;5.718078e-003
1.700979e+003;5.462225e-003
1.702908e+003;8.291078e-003
1.704836e+003;8.662162e-003
1.706765e+003;8.999193e-003
1.708693e+003;9.435689e-003
1.710622e+003;9.328022e-003
1.712551e+003;8.569690e-003
1.714479e+003;6.842016e-003
1.716408e+003;4.049276e-003
1.718336e+003;4.024662e-003
1.720265e+003;6.499053e-003
1.722193e+003;7.029477e-003
1.724122e+003;6.618806e-003
1.726050e+003;6.448606e-003
1.727979e+003;5.930413e-003
1.729908e+003;5.216415e-003
1.731836e+003;3.029750e-003
1.733765e+003;6.264862e-004
1.735693e+003;2.968528e-003
1.737622e+003;5.056049e-003
1.739550e+003;4.485209e-003
1.741479e+003;4.818477e-003
1.743407e+003;5.180803e-003
1.745336e+003;5.054340e-003
1.747265e+003;4.598212e-003
1.749193e+003;3.595873e-003
1.751122e+003;2.804321e-003
1.753050e+003;3.680006e-003
1.754979e+003;3.305408e-003
1.756907e+003;2.258313e-003
1.758836e+003;1.909498e-003
1.760764e+003;1.083608e-003
1.762693e+003;1.224038e-003
1.764621e+003;1.742398e-003
1.766550e+003;7.569769e-004
1.768479e+003;-6.692560e-005
1.770407e+003;-9.005765e-004
1.772336e+003;-1.765367e-003
1.774264e+003;-4.421805e-004
1.776193e+003;7.262091e-004
1.778121e+003;5.079436e-004
1.780050e+003;1.836677e-004
1.781978e+003;4.012718e-005
1.783907e+003;-4.163615e-004
1.785835e+003;-5.237652e-004
1.787764e+003;-1.454672e-004
1.789693e+003;-5.245925e-004
1.791621e+003;-1.784903e-003
1.793550e+003;-1.583567e-003
1.795478e+003;-3.798481e-004
1.797407e+003;-2.908195e-004
1.799335e+003;-7.546344e-004
1.801264e+003;-9.222008e-004
1.803192e+003;-4.664093e-004
1.805121e+003;2.594473e-005
1.807049e+003;2.194359e-004
1.808978e+003;-1.686490e-005
1.810907e+003;-3.922624e-004
1.812835e+003;-4.882537e-004
1.814764e+003;-2.652895e-004
1.816692e+003;-2.465103e-005
1.818621e+003;-8.604058e-005
1.820549e+003;-2.499906e-004
1.822478e+003;-5.295566e-004
1.824406e+003;-1.131774e-003
1.826335e+003;-1.349571e-003
1.828264e+003;-1.783385e-003
1.830192e+003;-1.923011e-003
1.832121e+003;-1.217096e-003
1.834049e+003;-9.148275e-004
1.835978e+003;-9.669999e-004
1.837906e+003;-1.035330e-003
1.839835e+003;-1.096709e-003
1.841763e+003;-1.791337e-003
1.843692e+003;-2.770329e-003
1.845620e+003;-2.199326e-003
1.847549e+003;-1.314722e-003
1.849478e+003;-1.089273e-003
1.851406e+003;-9.951002e-004
1.853335e+003;-9.759922e-004
1.855263e+003;-9.752318e-004
1.857192e+003;-1.063558e-003
1.859120e+003;-1.189835e-003
1.861049e+003;-1.135938e-003
1.862977e+003;-9.131743e-004
1.864906e+003;-1.019067e-003
1.866834e+003;-1.580266e-003
1.868763e+003;-1.737515e-003
1.870692e+003;-1.039065e-003
1.872620e+003;-5.880292e-004
1.874549e+003;-4.482047e-004
1.876477e+003;-2.459506e-004
1.878406e+003;-1.157880e-004
1.880334e+003;-2.163599e-005
1.882263e+003;-3.333157e-005
1.884191e+003;6.385399e-005
1.886120e+003;6.093315e-004
1.888048e+003;1.063479e-003
1.889977e+003;1.300933e-003
1.891906e+003;1.932396e-003
1.893834e+003;2.336891e-003
1.895763e+003;2.344587e-003
1.897691e+003;2.188541e-003
1.899620e+003;2.225308e-003
1.901548e+003;2.542180e-003
1.903477e+003;2.681282e-003
1.905405e+003;2.352215e-003
1.907334e+003;1.915522e-003
1.909262e+003;1.606124e-003
1.911191e+003;1.571039e-003
1.913120e+003;1.467166e-003
1.915048e+003;1.059526e-003
1.916977e+003;5.063512e-004
1.918905e+003;5.950309e-004
1.920834e+003;8.398317e-004
1.922762e+003;6.423806e-004
1.924691e+003;7.313536e-004
1.926619e+003;9.773603e-004
1.928548e+003;1.040428e-003
1.930477e+003;6.926559e-004
1.932405e+003;6.151382e-004
1.934334e+003;8.470689e-004
1.936262e+003;7.853569e-004
1.938191e+003;7.303579e-004
1.940119e+003;5.730998e-004
1.942048e+003;2.677393e-004
1.943976e+003;2.883287e-004
1.945905e+003;4.432282e-004
1.947833e+003;5.951636e-004
1.949762e+003;6.377682e-004
1.951691e+003;7.123030e-004
1.953619e+003;8.009915e-004
1.955548e+003;1.055873e-003
1.957476e+003;1.032025e-003
1.959405e+003;9.384082e-004
1.961333e+003;1.105067e-003
1.963262e+003;1.127024e-003
1.965190e+003;8.964714e-004
1.967119e+003;6.786512e-004
1.969047e+003;7.435012e-004
1.970976e+003;7.268729e-004
1.972905e+003;5.210470e-004
1.974833e+003;9.775595e-004
1.976762e+003;1.354875e-003
1.978690e+003;1.097592e-003
1.980619e+003;9.501964e-004
1.982547e+003;9.502296e-004
1.984476e+003;9.094206e-004
1.986404e+003;8.215730e-004
1.988333e+003;8.527791e-004
1.990261e+003;8.285112e-004
1.992190e+003;8.815306e-004
1.994119e+003;1.042919e-003
1.996047e+003;1.085202e-003
1.997976e+003;1.172173e-003
1.999904e+003;1.480365e-003
2.001833e+003;1.679893e-003
2.003761e+003;1.742698e-003
2.005690e+003;1.890429e-003
2.007618e+003;2.248355e-003
2.009547e+003;2.651878e-003
2.011476e+003;3.168809e-003
2.013404e+003;3.698419e-003
2.015333e+003;4.129350e-003
2.017261e+003;4.423313e-003
2.019190e+003;4.507640e-003
2.021118e+003;4.691784e-003
2.023047e+003;5.007211e-003
2.024975e+003;4.844074e-003
2.026904e+003;4.125704e-003
2.028833e+003;3.623671e-003
2.030761e+003;3.484533e-003
2.032690e+003;3.284908e-003
2.034618e+003;2.969996e-003
2.036547e+003;2.756035e-003
2.038475e+003;2.721224e-003
2.040404e+003;2.546079e-003
2.042332e+003;2.348651e-003
2.044261e+003;2.269738e-003
2.046189e+003;2.265741e-003
2.048118e+003;2.273468e-003
2.050047e+003;2.388462e-003
2.051975e+003;2.447670e-003
2.053904e+003;2.496789e-003
2.055832e+003;2.433476e-003
2.057761e+003;2.226940e-003
2.059689e+003;1.972236e-003
2.061618e+003;1.958922e-003
2.063546e+003;1.984684e-003
2.065475e+003;2.151845e-003
2.067404e+003;2.404322e-003
2.069332e+003;2.266407e-003
2.071260e+003;2.146950e-003
2.073189e+003;2.247189e-003
2.075118e+003;2.141822e-003
2.077046e+003;2.145884e-003
2.078975e+003;2.169726e-003
2.080903e+003;1.973134e-003
2.082832e+003;1.668950e-003
2.084760e+003;1.726929e-003
2.086689e+003;1.893857e-003
2.088617e+003;1.586968e-003
2.090546e+003;1.748919e-003
2.092475e+003;2.159870e-003
2.094403e+003;2.112321e-003
2.096332e+003;1.879847e-003
2.098260e+003;1.758899e-003
2.100189e+003;2.047699e-003
2.102117e+003;2.222910e-003
2.104046e+003;1.871261e-003
2.105974e+003;1.807840e-003
2.107903e+003;1.807108e-003
2.109832e+003;1.732551e-003
2.111760e+003;1.842744e-003
2.113688e+003;1.691735e-003
2.115617e+003;1.239589e-003
2.117546e+003;1.010471e-003
2.119474e+003;1.408158e-003
2.121403e+003;1.449978e-003
2.123331e+003;1.391072e-003
2.125260e+003;1.375017e-003
2.127188e+003;1.372225e-003
2.129117e+003;1.477472e-003
2.131045e+003;1.691303e-003
2.132974e+003;1.898350e-003
2.134903e+003;2.107160e-003
2.136831e+003;2.285326e-003
2.138760e+003;2.396359e-003
2.140688e+003;2.495822e-003
2.142617e+003;2.660946e-003
2.144545e+003;2.789048e-003
2.146474e+003;2.799686e-003
2.148402e+003;2.858883e-003
2.150331e+003;2.850178e-003
2.152260e+003;2.894105e-003
2.154188e+003;2.933300e-003
2.156117e+003;2.812925e-003
2.158045e+003;2.736162e-003
2.159974e+003;2.938204e-003
2.161902e+003;2.849811e-003
2.163831e+003;2.450136e-003
2.165759e+003;2.363842e-003
2.167688e+003;2.586876e-003
2.169616e+003;2.721725e-003
2.171545e+003;2.746365e-003
2.173474e+003;2.881664e-003
2.175402e+003;3.089580e-003
2.177331e+003;3.117779e-003
2.179259e+003;2.979738e-003
2.181188e+003;3.047168e-003
2.183116e+003;3.040928e-003
2.185045e+003;3.010766e-003
2.186973e+003;2.896607e-003
2.188902e+003;2.793950e-003
2.190831e+003;2.869090e-003
2.192759e+003;3.102628e-003
2.194688e+003;3.029217e-003
2.196616e+003;2.737063e-003
2.198545e+003;2.842974e-003
2.200473e+003;3.019941e-003
2.202402e+003;2.966927e-003
2.204330e+003;2.996686e-003
2.206259e+003;3.165805e-003
2.208188e+003;3.148483e-003
2.210116e+003;3.042797e-003
2.212044e+003;2.970630e-003
2.213973e+003;3.022076e-003
2.215902e+003;3.169743e-003
2.217830e+003;3.323904e-003
2.219759e+003;3.226721e-003
2.221687e+003;3.126489e-003
2.223616e+003;3.437174e-003
2.225544e+003;3.579436e-003
2.227473e+003;3.574391e-003
2.229401e+003;3.533302e-003
2.231330e+003;3.428891e-003
2.233259e+003;3.062250e-003
2.235187e+003;2.692251e-003
2.237116e+003;2.523550e-003
2.239044e+003;2.623943e-003
2.240973e+003;3.023678e-003
2.242901e+003;3.073696e-003
2.244830e+003;3.047935e-003
2.246758e+003;3.318663e-003
2.248687e+003;3.301769e-003
2.250615e+003;3.578835e-003
2.252544e+003;4.119248e-003
2.254473e+003;4.279469e-003
2.256401e+003;4.071317e-003
2.258330e+003;4.265749e-003
2.260258e+003;4.469675e-003
2.262187e+003;4.417187e-003
2.264115e+003;4.440485e-003
2.266044e+003;4.439949e-003
2.267972e+003;4.675942e-003
2.269901e+003;5.172185e-003
2.271830e+003;5.364864e-003
2.273758e+003;5.500813e-003
2.275687e+003;5.785196e-003
2.277615e+003;6.035359e-003
2.279544e+003;6.226236e-003
2.281472e+003;6.324698e-003
2.283401e+003;6.179450e-003
2.285329e+003;6.227245e-003
2.287258e+003;6.407849e-003
2.289187e+003;6.613322e-003
2.291115e+003;6.474132e-003
2.293043e+003;6.239782e-003
2.294972e+003;6.441880e-003
2.296901e+003;6.860867e-003
2.298829e+003;7.161502e-003
2.300758e+003;7.189428e-003
2.302686e+003;7.038468e-003
2.304615e+003;6.965567e-003
2.306543e+003;6.900690e-003
2.308472e+003;7.157931e-003
2.310400e+003;7.538701e-003
2.312329e+003;7.860690e-003
2.314258e+003;7.957701e-003
2.316186e+003;7.951390e-003
2.318115e+003;8.225497e-003
2.320043e+003;8.631065e-003
2.321972e+003;8.840299e-003
2.323900e+003;9.036134e-003
2.325829e+003;9.118283e-003
2.327757e+003;9.139297e-003
2.329686e+003;9.084278e-003
2.331615e+003;9.030451e-003
2.333543e+003;8.952986e-003
2.335472e+003;8.834923e-003
2.337400e+003;8.973247e-003
2.339329e+003;8.992089e-003
2.341257e+003;8.982787e-003
2.343186e+003;9.310080e-003
2.345114e+003;9.446898e-003
2.347043e+003;9.310554e-003
2.348971e+003;9.176250e-003
2.350900e+003;8.892411e-003
2.352829e+003;8.235795e-003
2.354757e+003;7.590253e-003
2.356686e+003;7.258593e-003
2.358614e+003;6.883252e-003
2.360543e+003;6.406907e-003
2.362471e+003;5.987183e-003
2.364400e+003;5.582665e-003
2.366328e+003;5.383616e-003
2.368257e+003;5.551352e-003
2.370186e+003;5.756151e-003
2.372114e+003;5.748127e-003
2.374042e+003;5.506887e-003
2.375971e+003;5.234960e-003
2.377900e+003;5.159511e-003
2.379828e+003;5.358825e-003
2.381757e+003;5.767164e-003
2.383685e+003;5.944218e-003
2.385614e+003;5.693201e-003
2.387542e+003;5.727377e-003
2.389471e+003;6.081693e-003
2.391399e+003;6.250606e-003
2.393328e+003;6.295282e-003
2.395257e+003;6.038047e-003
2.397185e+003;5.627205e-003
2.399114e+003;5.581456e-003
2.401042e+003;5.802992e-003
2.402971e+003;5.935821e-003
2.404899e+003;6.033511e-003
2.406828e+003;5.917111e-003
2.408756e+003;5.984025e-003
2.410685e+003;6.375636e-003
2.412614e+003;6.650734e-003
2.414542e+003;6.475275e-003
2.416471e+003;6.581161e-003
2.418399e+003;6.706152e-003
2.420328e+003;6.585702e-003
2.422256e+003;6.442485e-003
2.424185e+003;6.270742e-003
2.426113e+003;6.210103e-003
2.428042e+003;6.149170e-003
2.429970e+003;5.757494e-003
2.431899e+003;5.639658e-003
2.433828e+003;5.999714e-003
2.435756e+003;6.026557e-003
2.437685e+003;5.538431e-003
2.439613e+003;5.313273e-003
2.441542e+003;5.430283e-003
2.443470e+003;5.510880e-003
2.445399e+003;5.361442e-003
2.447327e+003;5.393949e-003
2.449256e+003;5.431424e-003
2.451185e+003;5.432061e-003
2.453113e+003;5.451555e-003
2.455042e+003;5.518061e-003
2.456970e+003;5.686352e-003
2.458899e+003;5.483834e-003
2.460827e+003;5.495645e-003
2.462756e+003;5.644189e-003
2.464684e+003;5.665908e-003
2.466613e+003;5.741680e-003
2.468542e+003;5.918153e-003
2.470470e+003;6.339559e-003
2.472398e+003;6.748956e-003
2.474327e+003;6.991594e-003
2.476256e+003;7.014087e-003
2.478184e+003;6.959877e-003
2.480113e+003;6.931292e-003
2.482041e+003;6.898839e-003
2.483970e+003;7.105251e-003
2.485898e+003;7.334441e-003
2.487827e+003;7.013111e-003
2.489755e+003;6.826196e-003
2.491684e+003;6.969809e-003
2.493613e+003;6.936847e-003
2.495541e+003;6.760331e-003
2.497470e+003;6.644106e-003
2.499398e+003;6.774230e-003
2.501327e+003;6.793784e-003
2.503255e+003;6.669172e-003
2.505184e+003;6.927050e-003
2.507112e+003;7.369253e-003
2.509041e+003;7.562639e-003
2.510969e+003;7.551445e-003
2.512898e+003;7.439626e-003
2.514827e+003;7.341855e-003
2.516755e+003;7.458334e-003
2.518684e+003;7.723393e-003
2.520612e+003;7.872600e-003
2.522541e+003;8.094228e-003
2.524469e+003;8.426122e-003
2.526398e+003;8.803814e-003
2.528326e+003;8.887338e-003
2.530255e+003;8.793265e-003
2.532184e+003;8.337282e-003
2.534112e+003;8.082245e-003
2.536041e+003;8.298643e-003
2.537969e+003;8.271322e-003
2.539898e+003;8.102871e-003
2.541826e+003;8.209558e-003
2.543755e+003;8.245420e-003
2.545683e+003;8.604940e-003
2.547612e+003;8.950281e-003
2.549541e+003;9.104207e-003
2.551469e+003;9.212597e-003
2.553397e+003;9.530851e-003
2.555326e+003;9.408837e-003
2.557255e+003;9.295050e-003
2.559183e+003;9.515407e-003
2.561112e+003;9.589144e-003
2.563040e+003;9.781759e-003
2.564969e+003;1.002145e-002
2.566897e+003;9.934150e-003
2.568826e+003;9.949270e-003
2.570754e+003;1.030230e-002
2.572683e+003;1.031132e-002
2.574612e+003;1.020805e-002
2.576540e+003;1.030691e-002
2.578469e+003;1.070360e-002
2.580397e+003;1.105316e-002
2.582326e+003;1.141420e-002
2.584254e+003;1.182126e-002
2.586183e+003;1.223259e-002
2.588111e+003;1.259085e-002
2.590040e+003;1.260504e-002
2.591969e+003;1.262554e-002
2.593897e+003;1.294047e-002
2.595826e+003;1.343012e-002
2.597754e+003;1.370511e-002
2.599683e+003;1.373797e-002
2.601611e+003;1.417533e-002
2.603540e+003;1.460321e-002
2.605468e+003;1.488697e-002
2.607397e+003;1.534505e-002
2.609325e+003;1.601629e-002
2.611254e+003;1.656980e-002
2.613183e+003;1.689177e-002
2.615111e+003;1.703630e-002
2.617040e+003;1.744867e-002
2.618968e+003;1.831239e-002
2.620897e+003;1.924384e-002
2.622825e+003;1.974426e-002
2.624754e+003;1.999267e-002
2.626682e+003;2.034358e-002
2.628611e+003;2.073797e-002
2.630540e+003;2.103832e-002
2.632468e+003;2.141155e-002
2.634396e+003;2.169530e-002
2.636325e+003;2.170773e-002
2.638254e+003;2.156477e-002
2.640182e+003;2.156070e-002
2.642111e+003;2.153632e-002
2.644039e+003;2.131608e-002
2.645968e+003;2.101078e-002
2.647896e+003;2.076731e-002
2.649825e+003;2.057896e-002
2.651753e+003;2.055405e-002
2.653682e+003;2.082532e-002
2.655611e+003;2.075191e-002
2.657539e+003;2.061652e-002
2.659468e+003;2.089433e-002
2.661396e+003;2.109112e-002
2.663325e+003;2.101526e-002
2.665253e+003;2.083630e-002
2.667182e+003;2.049934e-002
2.669110e+003;2.005499e-002
2.671039e+003;1.974658e-002
2.672968e+003;1.948264e-002
2.674896e+003;1.948628e-002
2.676825e+003;1.936837e-002
2.678753e+003;1.893126e-002
2.680682e+003;1.874662e-002
2.682610e+003;1.861632e-002
2.684539e+003;1.860940e-002
2.686467e+003;1.858803e-002
2.688396e+003;1.823086e-002
2.690324e+003;1.765436e-002
2.692253e+003;1.758079e-002
2.694182e+003;1.813585e-002
2.696110e+003;1.845020e-002
2.698039e+003;1.869207e-002
2.699967e+003;1.909137e-002
2.701896e+003;1.926278e-002
2.703824e+003;1.944130e-002
2.705753e+003;1.947519e-002
2.707681e+003;1.992374e-002
2.709610e+003;2.051706e-002
2.711539e+003;2.046145e-002
2.713467e+003;2.047579e-002
2.715396e+003;2.075917e-002
2.717324e+003;2.117847e-002
2.719253e+003;2.142645e-002
2.721181e+003;2.173456e-002
2.723110e+003;2.202109e-002
2.725038e+003;2.216651e-002
2.726967e+003;2.266186e-002
2.728896e+003;2.310134e-002
2.730824e+003;2.338665e-002
2.732752e+003;2.380209e-002
2.734681e+003;2.429356e-002
2.736610e+003;2.448920e-002
2.738538e+003;2.473361e-002
2.740467e+003;2.507423e-002
2.742395e+003;2.504537e-002
2.744324e+003;2.498911e-002
2.746252e+003;2.527974e-002
2.748181e+003;2.537921e-002
2.750109e+003;2.556279e-002
2.752038e+003;2.595386e-002
2.753967e+003;2.627202e-002
2.755895e+003;2.635556e-002
2.757824e+003;2.675616e-002
2.759752e+003;2.757925e-002
2.761681e+003;2.836291e-002
2.763609e+003;2.896420e-002
2.765538e+003;2.947117e-002
2.767466e+003;2.992008e-002
2.769395e+003;3.032885e-002
2.771323e+003;3.100659e-002
2.773252e+003;3.214538e-002
2.775181e+003;3.339367e-002
2.777109e+003;3.425903e-002
2.779038e+003;3.486047e-002
2.780966e+003;3.559409e-002
2.782895e+003;3.650270e-002
2.784823e+003;3.723336e-002
2.786752e+003;3.816328e-002
2.788680e+003;3.925475e-002
2.790609e+003;4.041511e-002
2.792538e+003;4.139550e-002
2.794466e+003;4.236098e-002
2.796395e+003;4.338327e-002
2.798323e+003;4.458840e-002
2.800252e+003;4.570547e-002
2.802180e+003;4.650217e-002
2.804109e+003;4.762818e-002
2.806037e+003;4.943391e-002
2.807966e+003;5.111020e-002
2.809895e+003;5.250376e-002
2.811823e+003;5.405598e-002
2.813751e+003;5.601470e-002
2.815680e+003;5.826881e-002
2.817609e+003;6.050878e-002
2.819537e+003;6.312672e-002
2.821466e+003;6.626457e-002
2.823394e+003;6.978659e-002
2.825323e+003;7.367435e-002
2.827251e+003;7.826305e-002
2.829180e+003;8.391763e-002
2.831108e+003;9.063341e-002
2.833037e+003;9.862988e-002
2.834966e+003;1.085326e-001
2.836894e+003;1.208181e-001
2.838823e+003;1.362509e-001
2.840751e+003;1.558428e-001
2.842680e+003;1.810287e-001
2.844608e+003;2.127263e-001
2.846537e+003;2.498091e-001
2.848465e+003;2.839552e-001
2.850394e+003;2.942188e-001
2.852323e+003;2.710424e-001
2.854251e+003;2.306898e-001
2.856180e+003;1.913342e-001
2.858108e+003;1.611597e-001
2.860037e+003;1.406260e-001
2.861965e+003;1.265330e-001
2.863894e+003;1.168928e-001
2.865822e+003;1.110450e-001
2.867751e+003;1.081063e-001
2.869679e+003;1.076244e-001
2.871608e+003;1.092422e-001
2.873536e+003;1.123527e-001
2.875465e+003;1.164975e-001
2.877394e+003;1.218387e-001
2.879322e+003;1.283382e-001
2.881251e+003;1.348977e-001
2.883179e+003;1.414938e-001
2.885108e+003;1.474723e-001
2.887036e+003;1.527394e-001
2.888965e+003;1.587425e-001
2.890893e+003;1.650404e-001
2.892822e+003;1.714052e-001
2.894750e+003;1.777911e-001
2.896679e+003;1.844662e-001
2.898608e+003;1.914921e-001
2.900536e+003;1.988700e-001
2.902465e+003;2.072063e-001
2.904393e+003;2.171966e-001
2.906322e+003;2.289749e-001
2.908250e+003;2.439469e-001
2.910179e+003;2.632633e-001
2.912107e+003;2.860459e-001
2.914036e+003;3.092102e-001
2.915965e+003;3.270769e-001
2.917893e+003;3.315277e-001
2.919822e+003;3.205545e-001
2.921750e+003;2.987372e-001
2.923679e+003;2.715434e-001
2.925607e+003;2.425143e-001
2.927536e+003;2.150295e-001
2.929464e+003;1.906926e-001
2.931393e+003;1.696125e-001
2.933322e+003;1.511313e-001
2.935250e+003;1.354002e-001
2.937178e+003;1.221444e-001
2.939107e+003;1.108039e-001
2.941036e+003;1.010418e-001
2.942964e+003;9.285123e-002
2.944893e+003;8.567280e-002
2.946821e+003;7.952908e-002
2.948750e+003;7.424281e-002
2.950678e+003;6.968671e-002
2.952607e+003;6.596768e-002
2.954535e+003;6.220990e-002
2.956464e+003;5.865199e-002
2.958393e+003;5.603060e-002
2.960321e+003;5.388647e-002
2.962250e+003;5.139247e-002
2.964178e+003;4.910556e-002
2.966107e+003;4.741788e-002
2.968035e+003;4.599918e-002
2.969964e+003;4.430897e-002
2.971892e+003;4.267469e-002
2.973821e+003;4.125272e-002
2.975750e+003;3.965683e-002
2.977678e+003;3.777921e-002
2.979607e+003;3.607184e-002
2.981535e+003;3.494535e-002
2.983464e+003;3.385343e-002
2.985392e+003;3.270930e-002
2.987321e+003;3.147804e-002
2.989249e+003;2.999818e-002
2.991178e+003;2.882602e-002
2.993106e+003;2.821240e-002
2.995035e+003;2.783788e-002
2.996964e+003;2.720820e-002
2.998892e+003;2.655058e-002
3.000821e+003;2.564992e-002
3.002749e+003;2.506173e-002
3.004678e+003;2.461044e-002
3.006606e+003;2.370963e-002
3.008535e+003;2.326456e-002
3.010463e+003;2.307660e-002
3.012392e+003;2.250435e-002
3.014321e+003;2.211532e-002
3.016249e+003;2.195341e-002
3.018177e+003;2.141503e-002
3.020106e+003;2.063250e-002
3.022035e+003;2.036268e-002
3.023963e+003;2.008025e-002
3.025892e+003;1.968310e-002
3.027820e+003;1.943604e-002
3.029749e+003;1.921374e-002
3.031677e+003;1.924862e-002
3.033606e+003;1.902313e-002
3.035534e+003;1.863918e-002
3.037463e+003;1.839887e-002
3.039392e+003;1.825136e-002
3.041320e+003;1.813696e-002
3.043249e+003;1.796028e-002
3.045177e+003;1.749648e-002
3.047106e+003;1.675847e-002
3.049034e+003;1.634962e-002
3.050963e+003;1.641891e-002
3.052891e+003;1.625467e-002
3.054820e+003;1.582986e-002
3.056749e+003;1.542888e-002
3.058677e+003;1.520042e-002
3.060606e+003;1.503746e-002
3.062534e+003;1.477290e-002
3.064463e+003;1.466226e-002
3.066391e+003;1.458697e-002
3.068320e+003;1.431434e-002
3.070248e+003;1.407274e-002
3.072177e+003;1.390216e-002
3.074105e+003;1.349345e-002
3.076034e+003;1.335870e-002
3.077963e+003;1.361830e-002
3.079891e+003;1.313069e-002
3.081820e+003;1.247766e-002
3.083748e+003;1.258570e-002
3.085677e+003;1.294730e-002
3.087605e+003;1.295057e-002
3.089534e+003;1.251220e-002
3.091462e+003;1.200911e-002
3.093391e+003;1.173182e-002
3.095320e+003;1.127383e-002
3.097248e+003;1.108950e-002
3.099177e+003;1.112631e-002
3.101105e+003;1.140416e-002
3.103034e+003;1.158309e-002
3.104962e+003;1.105404e-002
3.106891e+003;1.034882e-002
3.108819e+003;1.019869e-002
3.110748e+003;1.017026e-002
3.112677e+003;9.617632e-003
3.114605e+003;8.939694e-003
3.116533e+003;8.416663e-003
3.118462e+003;7.801718e-003
3.120391e+003;7.582734e-003
3.122319e+003;7.612609e-003
3.124248e+003;7.293601e-003
3.126176e+003;7.101883e-003
3.128105e+003;6.917624e-003
3.130033e+003;6.470601e-003
3.131962e+003;6.124335e-003
3.133890e+003;6.225631e-003
3.135819e+003;6.163016e-003
3.137748e+003;6.014831e-003
3.139676e+003;5.707468e-003
3.141605e+003;5.635965e-003
3.143533e+003;5.854843e-003
3.145462e+003;6.042146e-003
3.147390e+003;6.187819e-003
3.149319e+003;5.797855e-003
3.151247e+003;5.324074e-003
3.153176e+003;5.169972e-003
3.155104e+003;5.469069e-003
3.157033e+003;5.593271e-003
3.158962e+003;5.529001e-003
3.160890e+003;5.261588e-003
3.162819e+003;5.104592e-003
3.164747e+003;5.040160e-003
3.166676e+003;4.702134e-003
3.168604e+003;4.616429e-003
3.170533e+003;4.861263e-003
3.172461e+003;5.158036e-003
3.174390e+003;5.322229e-003
3.176319e+003;5.060977e-003
3.178247e+003;4.895609e-003
3.180176e+003;4.741358e-003
3.182104e+003;4.868668e-003
3.184033e+003;5.105732e-003
3.185961e+003;5.074822e-003
3.187890e+003;4.774287e-003
3.189818e+003;4.773316e-003
3.191747e+003;4.826953e-003
3.193676e+003;4.563923e-003
3.195604e+003;4.446142e-003
3.197532e+003;4.491369e-003
3.199461e+003;4.770837e-003
3.201390e+003;4.991457e-003
3.203318e+003;4.826853e-003
3.205247e+003;4.782060e-003
3.207175e+003;4.645364e-003
3.209104e+003;4.540016e-003
3.211032e+003;4.422744e-003
3.212961e+003;4.554447e-003
3.214889e+003;4.993300e-003
3.216818e+003;4.784974e-003
3.218747e+003;4.362597e-003
3.220675e+003;4.587262e-003
3.222604e+003;4.695770e-003
3.224532e+003;4.730337e-003
3.226461e+003;4.475066e-003
3.228389e+003;3.985168e-003
3.230318e+003;4.163973e-003
3.232246e+003;4.217869e-003
3.234175e+003;4.318420e-003
3.236104e+003;4.586860e-003
3.238032e+003;4.002056e-003
3.239961e+003;3.072161e-003
3.241889e+003;3.373723e-003
3.243818e+003;4.221315e-003
3.245746e+003;4.551835e-003
3.247675e+003;4.523610e-003
3.249603e+003;4.363634e-003
3.251532e+003;4.472655e-003
3.253460e+003;4.239081e-003
3.255389e+003;4.022421e-003
3.257318e+003;3.934845e-003
3.259246e+003;3.765927e-003
3.261175e+003;3.843441e-003
3.263103e+003;4.241390e-003
3.265032e+003;4.409823e-003
3.266960e+003;4.194985e-003
3.268889e+003;4.308213e-003
3.270817e+003;4.271471e-003
3.272746e+003;4.212951e-003
3.274675e+003;4.117141e-003
3.276603e+003;3.963600e-003
3.278531e+003;3.916522e-003
3.280460e+003;4.054427e-003
3.282389e+003;4.756667e-003
3.284317e+003;5.138689e-003
3.286246e+003;4.889778e-003
3.288174e+003;4.587061e-003
3.290103e+003;3.777392e-003
3.292031e+003;3.283673e-003
3.293960e+003;3.594270e-003
3.295888e+003;3.741229e-003
3.297817e+003;3.922440e-003
3.299746e+003;4.031351e-003
3.301674e+003;4.118311e-003
3.303603e+003;4.307946e-003
3.305531e+003;3.979049e-003
3.307460e+003;3.709915e-003
3.309388e+003;4.247346e-003
3.311317e+003;4.458996e-003
3.313245e+003;4.221315e-003
3.315174e+003;4.055196e-003
3.317103e+003;4.154472e-003
3.319031e+003;4.176852e-003
3.320960e+003;3.727259e-003
3.322888e+003;3.756168e-003
3.324817e+003;4.264210e-003
3.326745e+003;4.440786e-003
3.328674e+003;4.264913e-003
3.330602e+003;4.347804e-003
3.332531e+003;4.402560e-003
3.334459e+003;4.134301e-003
3.336388e+003;4.050246e-003
3.338317e+003;3.788488e-003
3.340245e+003;3.826226e-003
3.342174e+003;4.054193e-003
3.344102e+003;4.210676e-003
3.346031e+003;4.509013e-003
3.347959e+003;4.417522e-003
3.349888e+003;4.238111e-003
3.351816e+003;4.195754e-003
3.353745e+003;3.912644e-003
3.355674e+003;3.945979e-003
3.357602e+003;4.316479e-003
3.359531e+003;4.392819e-003
3.361459e+003;4.071986e-003
3.363388e+003;3.843274e-003
3.365316e+003;4.248316e-003
3.367245e+003;4.581101e-003
3.369173e+003;4.322403e-003
3.371102e+003;4.197761e-003
3.373031e+003;4.289641e-003
3.374959e+003;3.997508e-003
3.376887e+003;3.914082e-003
3.378816e+003;4.288972e-003
3.380745e+003;4.575542e-003
3.382673e+003;4.268828e-003
3.384602e+003;3.661528e-003
3.386530e+003;3.566106e-003
3.388459e+003;3.583712e-003
3.390387e+003;3.669146e-003
3.392316e+003;3.561329e-003
3.394244e+003;3.269551e-003
3.396173e+003;3.321300e-003
3.398102e+003;3.725221e-003
3.400030e+003;3.840767e-003
3.401959e+003;3.499865e-003
3.403887e+003;3.115843e-003
3.405816e+003;3.238104e-003
3.407744e+003;3.542054e-003
3.409673e+003;3.221714e-003
3.411601e+003;2.995852e-003
3.413530e+003;3.226054e-003
3.415458e+003;3.463091e-003
3.417387e+003;3.693072e-003
3.419316e+003;3.778327e-003
3.421244e+003;3.692337e-003
3.423173e+003;3.881451e-003
3.425101e+003;4.118545e-003
3.427030e+003;3.831173e-003
3.428958e+003;3.728061e-003
3.430887e+003;3.426754e-003
3.432815e+003;3.296460e-003
3.434744e+003;3.297595e-003
3.436673e+003;3.466932e-003
3.438601e+003;4.069946e-003
3.440530e+003;4.214891e-003
3.442458e+003;3.491147e-003
3.444387e+003;2.809057e-003
3.446315e+003;2.798352e-003
3.448244e+003;3.253427e-003
3.450172e+003;3.425051e-003
3.452101e+003;3.162300e-003
3.454030e+003;3.021843e-003
3.455958e+003;3.384175e-003
3.457886e+003;3.478822e-003
3.459815e+003;3.060348e-003
3.461744e+003;2.689451e-003
3.463672e+003;2.663780e-003
3.465601e+003;2.544646e-003
3.467529e+003;2.523416e-003
3.469458e+003;2.443572e-003
3.471386e+003;2.341122e-003
3.473315e+003;2.413951e-003
3.475243e+003;2.805589e-003
3.477172e+003;2.939238e-003
3.479101e+003;2.786580e-003
3.481029e+003;3.017372e-003
3.482958e+003;3.239773e-003
3.484886e+003;2.788781e-003
3.486815e+003;2.131067e-003
3.488743e+003;2.357845e-003
3.490672e+003;2.839673e-003
3.492600e+003;2.389062e-003
3.494529e+003;1.845772e-003
3.496458e+003;2.244758e-003
3.498386e+003;2.874693e-003
3.500315e+003;2.852413e-003
3.502243e+003;2.399124e-003
3.504172e+003;1.821049e-003
3.506100e+003;1.855621e-003
3.508029e+003;2.765706e-003
3.509957e+003;3.276429e-003
3.511886e+003;2.898242e-003
3.513814e+003;2.762704e-003
3.515743e+003;2.928296e-003
3.517672e+003;2.929364e-003
3.519600e+003;2.763105e-003
3.521529e+003;2.269205e-003
3.523457e+003;2.133631e-003
3.525386e+003;2.501888e-003
3.527314e+003;2.656579e-003
3.529243e+003;2.139857e-003
3.531171e+003;2.119280e-003
3.533100e+003;2.662946e-003
3.535029e+003;2.510686e-003
3.536957e+003;2.119280e-003
3.538885e+003;1.979259e-003
3.540814e+003;1.843842e-003
3.542743e+003;1.568911e-003
3.544671e+003;1.673274e-003
3.546600e+003;1.933161e-003
3.548528e+003;2.292154e-003
3.550457e+003;2.319602e-003
3.552385e+003;2.299150e-003
3.554314e+003;2.721525e-003
3.556242e+003;3.226187e-003
3.558171e+003;2.996452e-003
3.560100e+003;2.915687e-003
3.562028e+003;3.288614e-003
3.563957e+003;2.666047e-003
3.565885e+003;1.268067e-003
3.567814e+003;1.289102e-003
3.569742e+003;2.450303e-003
3.571671e+003;3.206326e-003
3.573599e+003;3.484266e-003
3.575528e+003;3.288214e-003
3.577457e+003;3.053608e-003
3.579385e+003;3.173014e-003
3.581314e+003;3.497794e-003
3.583242e+003;3.618024e-003
3.585171e+003;2.692985e-003
3.587099e+003;2.029689e-003
3.589028e+003;2.790482e-003
3.590956e+003;3.952432e-003
3.592885e+003;4.231687e-003
3.594813e+003;4.003694e-003
3.596742e+003;4.319391e-003
3.598671e+003;5.178188e-003
3.600599e+003;5.361710e-003
3.602528e+003;5.836204e-003
3.604456e+003;6.262573e-003
3.606385e+003;5.814679e-003
3.608313e+003;5.062687e-003
3.610242e+003;5.335680e-003
3.612170e+003;5.764747e-003
3.614099e+003;5.382308e-003
3.616028e+003;4.348004e-003
3.617956e+003;3.660525e-003
3.619885e+003;4.299982e-003
3.621813e+003;5.556385e-003
3.623742e+003;5.815283e-003
3.625670e+003;4.769329e-003
3.627599e+003;2.268206e-003
3.629527e+003;1.330545e-003
3.631456e+003;2.989913e-003
3.633385e+003;4.066267e-003
3.635313e+003;4.523275e-003
3.637241e+003;4.890918e-003
3.639170e+003;5.398210e-003
3.641099e+003;5.526619e-003
3.643027e+003;5.949660e-003
3.644956e+003;5.274098e-003
3.646884e+003;2.734628e-003
3.648813e+003;1.719710e-003
3.650741e+003;3.511856e-003
3.652670e+003;5.210479e-003
3.654598e+003;4.649651e-003
3.656527e+003;3.869216e-003
3.658456e+003;5.000272e-003
3.660384e+003;6.026960e-003
3.662313e+003;5.973846e-003
3.664241e+003;5.661846e-003
3.666170e+003;5.317600e-003
3.668098e+003;3.568345e-003
3.670027e+003;1.879747e-003
3.671955e+003;2.580676e-003
3.673884e+003;1.531668e-003
3.675813e+003;7.417421e-004
3.677741e+003;3.214938e-003
3.679669e+003;4.648244e-003
3.681598e+003;5.215778e-003
3.683527e+003;5.175907e-003
3.685455e+003;4.566937e-003
3.687384e+003;2.578776e-003
3.689312e+003;1.966943e-003
3.691241e+003;3.363071e-003
3.693169e+003;4.744976e-003
3.695098e+003;4.775762e-003
3.697026e+003;4.569448e-003
3.698955e+003;4.774187e-003
3.700884e+003;4.808593e-003
3.702812e+003;4.970778e-003
3.704741e+003;4.862201e-003
3.706669e+003;4.010115e-003
3.708598e+003;3.056544e-003
3.710526e+003;2.196234e-003
3.712455e+003;2.422214e-003
3.714383e+003;3.919832e-003
3.716312e+003;4.813451e-003
3.718240e+003;4.244669e-003
3.720169e+003;3.335390e-003
3.722098e+003;3.169543e-003
3.724026e+003;3.446725e-003
3.725955e+003;3.579536e-003
3.727883e+003;3.699455e-003
3.729812e+003;2.890136e-003
3.731740e+003;1.353578e-003
3.733669e+003;8.707403e-004
3.735597e+003;7.377925e-004
3.737526e+003;2.403455e-003
3.739455e+003;3.972161e-003
3.741383e+003;2.957886e-003
3.743312e+003;-1.121596e-003
3.745240e+003;-1.052023e-003
3.747169e+003;6.178922e-004
3.749097e+003;-7.843692e-004
3.751026e+003;-4.041466e-004
3.752954e+003;1.697290e-003
3.754883e+003;3.027148e-003
3.756812e+003;3.066755e-003
3.758740e+003;3.290350e-003
3.760668e+003;3.722714e-003
3.762597e+003;4.303294e-003
3.764526e+003;3.962096e-003
3.766454e+003;4.174611e-003
3.768383e+003;3.836722e-003
3.770311e+003;3.750553e-003
3.772240e+003;4.691248e-003
3.774168e+003;5.264774e-003
3.776097e+003;4.897284e-003
3.778025e+003;3.915519e-003
3.779954e+003;3.821747e-003
3.781883e+003;4.699890e-003
3.783811e+003;5.106201e-003
3.785740e+003;5.740371e-003
3.787668e+003;5.890107e-003
3.789597e+003;5.458970e-003
3.791525e+003;5.354699e-003
3.793454e+003;5.509235e-003
3.795382e+003;5.244786e-003
3.797311e+003;5.095473e-003
3.799240e+003;3.325641e-003
3.801168e+003;2.006421e-003
3.803097e+003;4.203382e-003
3.805025e+003;4.411731e-003
3.806954e+003;2.908182e-003
3.808882e+003;4.322403e-003
3.810811e+003;5.786807e-003
3.812739e+003;5.791643e-003
3.814668e+003;3.289082e-003
3.816596e+003;2.964391e-003
3.818525e+003;4.378260e-003
3.820454e+003;3.636534e-003
3.822382e+003;4.537974e-003
3.824311e+003;5.556419e-003
3.826239e+003;5.250152e-003
3.828168e+003;5.467593e-003
3.830096e+003;5.301903e-003
3.832025e+003;4.718680e-003
3.833953e+003;4.467198e-003
3.835882e+003;3.035189e-003
3.837811e+003;1.921679e-003
3.839739e+003;3.679873e-003
3.841667e+003;5.254847e-003
3.843596e+003;5.892022e-003
3.845525e+003;6.346754e-003
3.847453e+003;6.528955e-003
3.849382e+003;5.105330e-003
3.851310e+003;1.663795e-003
3.853239e+003;-8.624835e-004
3.855167e+003;2.196700e-003
3.857096e+003;5.482089e-003
3.859024e+003;5.664532e-003
3.860953e+003;5.279598e-003
3.862882e+003;5.373485e-003
3.864810e+003;5.521182e-003
3.866739e+003;5.302037e-003
3.868667e+003;3.574558e-003
3.870596e+003;3.913213e-003
3.872524e+003;5.629991e-003
3.874453e+003;6.219379e-003
3.876381e+003;6.836496e-003
3.878310e+003;6.522430e-003
3.880239e+003;6.534471e-003
3.882167e+003;6.842386e-003
3.884096e+003;5.429880e-003
3.886024e+003;5.009825e-003
3.887953e+003;6.710963e-003
3.889881e+003;6.573289e-003
3.891810e+003;6.455937e-003
3.893738e+003;7.216984e-003
3.895667e+003;7.118791e-003
3.897595e+003;6.481094e-003
3.899524e+003;5.848361e-003
3.901453e+003;5.254780e-003
3.903381e+003;4.949764e-003
3.905310e+003;6.214371e-003
3.907238e+003;7.527441e-003
3.909167e+003;7.708856e-003
3.911095e+003;7.749432e-003
3.913024e+003;7.732500e-003
3.914952e+003;7.444345e-003
3.916881e+003;7.164533e-003
3.918810e+003;7.173999e-003
3.920738e+003;7.192931e-003
3.922667e+003;6.957722e-003
3.924595e+003;7.261692e-003
3.926524e+003;8.101452e-003
3.928452e+003;8.388929e-003
3.930381e+003;8.080557e-003
3.932309e+003;7.406157e-003
3.934238e+003;7.353413e-003
3.936167e+003;7.573698e-003
3.938095e+003;7.831034e-003
3.940023e+003;7.855764e-003
3.941952e+003;7.908467e-003
3.943881e+003;7.873241e-003
3.945809e+003;7.527171e-003
3.947738e+003;7.309336e-003
3.949666e+003;7.104308e-003
3.951595e+003;7.329285e-003
3.953523e+003;7.776384e-003
3.955452e+003;7.837276e-003
3.957380e+003;7.603269e-003
3.959309e+003;7.542713e-003
3.961238e+003;7.407067e-003
3.963166e+003;7.284806e-003
3.965095e+003;7.337743e-003
3.967023e+003;7.279280e-003
3.968952e+003;7.430964e-003
3.970880e+003;7.434840e-003
3.972809e+003;7.018398e-003
3.974737e+003;7.251888e-003
3.976666e+003;7.946463e-003
3.978594e+003;7.819057e-003
3.980523e+003;7.586544e-003
3.982452e+003;7.324601e-003
3.984380e+003;7.138462e-003
3.986309e+003;6.887460e-003
3.988237e+003;6.846224e-003
3.990166e+003;6.916210e-003
3.992094e+003;6.809300e-003
3.994023e+003;7.261793e-003
3.995951e+003;7.739010e-003
3.997880e+003;7.335789e-003
3.999809e+003;7.031261e-003
4.001737e+003;0.000000e+000
