3.992094e+002;0.000000e+000
4.011380e+002;0.000000e+000
4.030665e+002;0.000000e+000
4.049951e+002;0.000000e+000
4.069236e+002;0.000000e+000
4.088522e+002;0.000000e+000
4.107807e+002;0.000000e+000
4.127093e+002;0.000000e+000
4.146378e+002;0.000000e+000
4.165664e+002;0.000000e+000
4.184949e+002;0.000000e+000
4.204235e+002;0.000000e+000
4.223520e+002;0.000000e+000
4.242806e+002;0.000000e+000
4.262091e+002;0.000000e+000
4.281377e+002;0.000000e+000
4.300662e+002;0.000000e+000
4.319948e+002;0.000000e+000
4.339233e+002;0.000000e+000
4.358519e+002;0.000000e+000
4.377804e+002;0.000000e+000
4.397090e+002;0.000000e+000
4.416375e+002;0.000000e+000
4.435660e+002;0.000000e+000
4.454946e+002;0.000000e+000
4.474232e+002;0.000000e+000
4.493517e+002;0.000000e+000
4.512802e+002;0.000000e+000
4.532088e+002;0.000000e+000
4.551373e+002;0.000000e+000
4.570659e+002;0.000000e+000
4.589944e+002;0.000000e+000
4.609230e+002;0.000000e+000
4.628515e+002;0.000000e+000
4.647801e+002;0.000000e+000
4.667086e+002;0.000000e+000
4.686372e+002;0.000000e+000
4.705657e+002;0.000000e+000
4.724943e+002;0.000000e+000
4.744228e+002;0.000000e+000
4.763513e+002;0.000000e+000
4.782799e+002;0.000000e+000
4.802085e+002;0.000000e+000
4.821370e+002;0.000000e+000
4.840656e+002;0.000000e+000
4.859941e+002;0.000000e+000
4.879226e+002;0.000000e+000
4.898512e+002;0.000000e+000
4.917798e+002;0.000000e+000
4.937083e+002;0.000000e+000
4.956368e+002;0.000000e+000
4.975654e+002;0.000000e+000
4.994939e+002;0.000000e+000
5.014225e+002;0.000000e+000
5.033510e+002;0.000000e+000
5.052796e+002;0.000000e+000
5.072081e+002;0.000000e+000
5.091367e+002;0.000000e+000
5.110652e+002;0.000000e+000
5.129938e+002;0.000000e+000
5.149223e+002;0.000000e+000
5.168509e+002;0.000000e+000
5.187794e+002;0.000000e+000
5.207079e+002;0.000000e+000
5.226365e+002;0.000000e+000
5.245651e+002;0.000000e+000
5.264936e+002;0.000000e+000
5.284222e+002;0.000000e+000
5.303507e+002;0.000000e+000
5.322792e+002;0.000000e+000
5.342078e+002;0.000000e+000
5.361364e+002;0.000000e+000
5.380649e+002;0.000000e+000
5.399935e+002;0.000000e+000
5.419220e+002;0.000000e+000
5.438505e+002;0.000000e+000
5.457791e+002;0.000000e+000
5.477076e+002;0.000000e+000
5.496362e+002;0.000000e+000
5.515648e+002;0.000000e+000
5.534933e+002;0.000000e+000
5.554218e+002;0.000000e+000
5.573504e+002;0.000000e+000
5.592789e+002;0.000000e+000
5.612075e+002;0.000000e+000
5.631360e+002;0.000000e+000
5.650646e+002;0.000000e+000
5.669931e+002;0.000000e+000
5.689217e+002;0.000000e+000
5.708502e+002;0.000000e+000
5.727787e+002;0.000000e+000
5.747073e+002;0.000000e+000
5.766359e+002;0.000000e+000
5.785644e+002;0.000000e+000
5.804930e+002;0.000000e+000
5.824215e+002;0.000000e+000
5.843500e+002;0.000000e+000
5.862786e+002;0.000000e+000
5.882072e+002;0.000000e+000
5.901357e+002;0.000000e+000
5.920643e+002;0.000000e+000
5.939928e+002;0.000000e+000
5.959213e+002;0.000000e+000
5.978499e+002;0.000000e+000
5.997784e+002;4.314424e-002
6.017070e+002;4.067953e-002
6.036355e+002;4.089227e-002
6.055641e+002;4.429414e-002
6.074926e+002;4.368336e-002
6.094211e+002;3.942688e-002
6.113497e+002;3.704763e-002
6.132783e+002;3.401465e-002
6.152068e+002;3.255471e-002
6.171354e+002;3.530661e-002
6.190639e+002;3.513967e-002
6.209924e+002;3.433627e-002
6.229210e+002;3.457060e-002
6.248495e+002;3.836842e-002
6.267781e+002;4.124631e-002
6.287067e+002;4.022322e-002
6.306352e+002;4.101319e-002
6.325637e+002;4.452159e-002
6.344923e+002;4.424693e-002
6.364208e+002;3.901697e-002
6.383494e+002;3.465604e-002
6.402780e+002;3.674401e-002
6.422065e+002;4.103111e-002
6.441350e+002;4.084669e-002
6.460636e+002;4.171884e-002
6.479921e+002;4.140385e-002
6.499207e+002;4.192698e-002
6.518492e+002;4.126752e-002
6.537778e+002;3.720080e-002
6.557063e+002;3.725928e-002
6.576349e+002;3.958303e-002
6.595634e+002;4.134827e-002
6.614919e+002;4.165914e-002
6.634205e+002;4.030501e-002
6.653491e+002;3.826835e-002
6.672776e+002;3.881837e-002
6.692062e+002;4.052150e-002
6.711347e+002;4.102099e-002
6.730632e+002;3.987960e-002
6.749918e+002;3.832133e-002
6.769203e+002;3.793271e-002
6.788489e+002;3.996987e-002
6.807775e+002;4.366530e-002
6.827060e+002;4.517520e-002
6.846345e+002;4.476200e-002
6.865631e+002;4.641150e-002
6.884916e+002;4.879455e-002
6.904202e+002;4.930740e-002
6.923488e+002;5.096046e-002
6.942773e+002;5.371995e-002
6.962058e+002;5.661179e-002
6.981344e+002;6.024365e-002
7.000629e+002;6.475005e-002
7.019915e+002;6.900485e-002
7.039200e+002;7.472531e-002
7.058486e+002;8.391892e-002
7.077771e+002;9.517960e-002
7.097057e+002;1.118274e-001
7.116342e+002;1.398145e-001
7.135627e+002;1.757208e-001
7.154913e+002;2.019207e-001
7.174199e+002;1.989587e-001
7.193484e+002;1.703518e-001
7.212770e+002;1.340330e-001
7.232055e+002;1.078338e-001
7.251340e+002;9.340753e-002
7.270626e+002;8.716373e-002
7.289911e+002;9.097923e-002
7.309197e+002;9.976389e-002
7.328483e+002;9.694961e-002
7.347768e+002;7.804310e-002
7.367053e+002;5.971907e-002
7.386339e+002;4.985479e-002
7.405624e+002;4.629375e-002
7.424910e+002;4.538585e-002
7.444196e+002;4.363753e-002
7.463481e+002;4.122398e-002
7.482766e+002;3.930908e-002
7.502052e+002;3.839365e-002
7.521337e+002;3.739071e-002
7.540623e+002;3.673676e-002
7.559908e+002;3.716496e-002
7.579194e+002;3.707527e-002
7.598479e+002;3.588999e-002
7.617765e+002;3.443188e-002
7.637050e+002;3.429389e-002
7.656335e+002;3.464951e-002
7.675621e+002;3.409876e-002
7.694907e+002;3.351112e-002
7.714192e+002;3.262325e-002
7.733478e+002;3.208116e-002
7.752763e+002;3.292936e-002
7.772048e+002;3.363856e-002
7.791334e+002;3.295964e-002
7.810620e+002;3.219658e-002
7.829905e+002;3.202676e-002
7.849191e+002;3.175768e-002
7.868476e+002;3.103292e-002
7.887761e+002;3.138172e-002
7.907047e+002;3.195642e-002
7.926332e+002;3.202501e-002
7.945618e+002;3.130879e-002
7.964903e+002;3.055012e-002
7.984189e+002;3.021165e-002
8.003474e+002;2.993595e-002
8.022759e+002;3.054226e-002
8.042045e+002;3.062239e-002
8.061331e+002;3.001959e-002
8.080616e+002;2.992423e-002
8.099902e+002;3.020632e-002
8.119187e+002;2.998107e-002
8.138472e+002;3.013798e-002
8.157758e+002;3.066826e-002
8.177043e+002;3.042959e-002
8.196329e+002;3.036431e-002
8.215615e+002;3.095058e-002
8.234900e+002;3.145399e-002
8.254185e+002;3.183768e-002
8.273471e+002;3.257310e-002
8.292756e+002;3.293336e-002
8.312042e+002;3.305362e-002
8.331328e+002;3.275803e-002
8.350613e+002;3.294648e-002
8.369898e+002;3.366506e-002
8.389184e+002;3.438224e-002
8.408469e+002;3.425627e-002
8.427755e+002;3.311748e-002
8.447040e+002;3.311899e-002
8.466326e+002;3.332773e-002
8.485611e+002;3.271384e-002
8.504897e+002;3.228812e-002
8.524182e+002;3.244512e-002
8.543467e+002;3.254871e-002
8.562753e+002;3.237689e-002
8.582039e+002;3.218167e-002
8.601324e+002;3.203082e-002
8.620610e+002;3.192479e-002
8.639895e+002;3.243998e-002
8.659180e+002;3.287174e-002
8.678466e+002;3.264039e-002
8.697751e+002;3.281296e-002
8.717037e+002;3.326545e-002
8.736323e+002;3.344585e-002
8.755608e+002;3.348017e-002
8.774893e+002;3.338444e-002
8.794179e+002;3.261882e-002
8.813464e+002;3.254707e-002
8.832750e+002;3.307021e-002
8.852036e+002;3.318711e-002
8.871321e+002;3.345962e-002
8.890606e+002;3.358576e-002
8.909892e+002;3.344749e-002
8.929177e+002;3.334383e-002
8.948463e+002;3.335288e-002
8.967748e+002;3.352469e-002
8.987034e+002;3.370684e-002
9.006319e+002;3.384132e-002
9.025605e+002;3.390756e-002
9.044890e+002;3.396359e-002
9.064175e+002;3.439584e-002
9.083461e+002;3.495224e-002
9.102747e+002;3.465134e-002
9.122032e+002;3.399774e-002
9.141318e+002;3.381091e-002
9.160603e+002;3.402279e-002
9.179888e+002;3.416973e-002
9.199174e+002;3.400243e-002
9.218459e+002;3.355458e-002
9.237745e+002;3.360924e-002
9.257031e+002;3.370366e-002
9.276316e+002;3.363634e-002
9.295601e+002;3.374244e-002
9.314887e+002;3.399652e-002
9.334172e+002;3.384591e-002
9.353458e+002;3.376045e-002
9.372744e+002;3.366567e-002
9.392029e+002;3.362693e-002
9.411314e+002;3.387392e-002
9.430600e+002;3.384652e-002
9.449885e+002;3.365332e-002
9.469171e+002;3.354173e-002
9.488456e+002;3.360108e-002
9.507742e+002;3.378849e-002
9.527027e+002;3.367580e-002
9.546313e+002;3.332988e-002
9.565598e+002;3.324105e-002
9.584883e+002;3.349717e-002
9.604169e+002;3.309589e-002
9.623455e+002;3.286778e-002
9.642740e+002;3.317628e-002
9.662026e+002;3.338938e-002
9.681311e+002;3.306217e-002
9.700596e+002;3.284859e-002
9.719882e+002;3.312299e-002
9.739167e+002;3.322610e-002
9.758453e+002;3.291696e-002
9.777739e+002;3.245144e-002
9.797024e+002;3.207681e-002
9.816309e+002;3.251268e-002
9.835595e+002;3.278269e-002
9.854880e+002;3.261246e-002
9.874166e+002;3.235665e-002
9.893452e+002;3.183055e-002
9.912737e+002;3.221267e-002
9.932022e+002;3.279734e-002
9.951307e+002;3.222170e-002
9.970593e+002;3.183069e-002
9.989879e+002;3.191520e-002
1.000916e+003;3.205919e-002
1.002845e+003;3.202176e-002
1.004773e+003;3.174591e-002
1.006702e+003;3.159947e-002
1.008631e+003;3.120428e-002
1.010559e+003;3.092980e-002
1.012488e+003;3.121425e-002
1.014416e+003;3.116135e-002
1.016345e+003;3.049424e-002
1.018273e+003;3.036658e-002
1.020202e+003;3.080831e-002
1.022130e+003;3.092162e-002
1.024059e+003;3.113240e-002
1.025988e+003;3.109752e-002
1.027916e+003;3.079743e-002
1.029845e+003;3.099420e-002
1.031773e+003;3.163974e-002
1.033702e+003;3.204727e-002
1.035630e+003;3.247261e-002
1.037559e+003;3.265407e-002
1.039487e+003;3.276104e-002
1.041416e+003;3.257042e-002
1.043344e+003;3.239289e-002
1.045273e+003;3.241923e-002
1.047202e+003;3.272041e-002
1.049130e+003;3.300150e-002
1.051059e+003;3.320432e-002
1.052987e+003;3.355826e-002
1.054916e+003;3.357638e-002
1.056844e+003;3.350715e-002
1.058773e+003;3.354653e-002
1.060701e+003;3.357863e-002
1.062630e+003;3.357401e-002
1.064558e+003;3.342173e-002
1.066487e+003;3.363724e-002
1.068416e+003;3.436865e-002
1.070344e+003;3.463121e-002
1.072273e+003;3.439949e-002
1.074201e+003;3.448777e-002
1.076130e+003;3.476145e-002
1.078058e+003;3.495734e-002
1.079987e+003;3.472025e-002
1.081915e+003;3.394578e-002
1.083844e+003;3.328637e-002
1.085773e+003;3.291142e-002
1.087701e+003;3.297061e-002
1.089630e+003;3.350909e-002
1.091558e+003;3.315550e-002
1.093487e+003;3.225339e-002
1.095415e+003;3.153444e-002
1.097344e+003;3.147719e-002
1.099272e+003;3.175069e-002
1.101201e+003;3.150650e-002
1.103129e+003;3.163385e-002
1.105058e+003;3.177383e-002
1.106987e+003;3.167124e-002
1.108915e+003;3.167930e-002
1.110844e+003;3.158012e-002
1.112772e+003;3.192137e-002
1.114701e+003;3.227324e-002
1.116629e+003;3.205466e-002
1.118558e+003;3.167933e-002
1.120486e+003;3.162648e-002
1.122415e+003;3.183607e-002
1.124344e+003;3.227973e-002
1.126272e+003;3.225825e-002
1.128201e+003;3.184674e-002
1.130129e+003;3.190382e-002
1.132058e+003;3.206396e-002
1.133986e+003;3.230200e-002
1.135915e+003;3.238864e-002
1.137843e+003;3.217071e-002
1.139772e+003;3.184898e-002
1.141700e+003;3.160000e-002
1.143629e+003;3.218527e-002
1.145557e+003;3.286874e-002
1.147486e+003;3.333950e-002
1.149415e+003;3.332197e-002
1.151343e+003;3.275182e-002
1.153272e+003;3.245904e-002
1.155200e+003;3.230100e-002
1.157129e+003;3.221382e-002
1.159057e+003;3.188945e-002
1.160986e+003;3.170696e-002
1.162914e+003;3.196566e-002
1.164843e+003;3.200686e-002
1.166771e+003;3.209490e-002
1.168700e+003;3.226025e-002
1.170629e+003;3.239164e-002
1.172557e+003;3.229551e-002
1.174486e+003;3.264450e-002
1.176414e+003;3.265807e-002
1.178343e+003;3.148834e-002
1.180271e+003;3.101627e-002
1.182200e+003;3.124718e-002
1.184128e+003;3.117801e-002
1.186057e+003;3.078420e-002
1.187986e+003;2.999087e-002
1.189914e+003;2.948602e-002
1.191843e+003;2.974430e-002
1.193771e+003;2.989310e-002
1.195700e+003;2.992721e-002
1.197628e+003;2.991373e-002
1.199557e+003;2.969973e-002
1.201485e+003;2.940000e-002
1.203414e+003;2.968710e-002
1.205343e+003;3.023054e-002
1.207271e+003;3.006887e-002
1.209200e+003;2.989456e-002
1.211128e+003;2.990535e-002
1.213057e+003;2.982900e-002
1.214985e+003;2.998856e-002
1.216914e+003;3.013098e-002
1.218842e+003;3.014139e-002
1.220771e+003;3.022447e-002
1.222699e+003;3.028618e-002
1.224628e+003;3.039981e-002
1.226557e+003;3.027513e-002
1.228485e+003;3.057881e-002
1.230414e+003;3.082741e-002
1.232342e+003;3.126812e-002
1.234271e+003;3.204310e-002
1.236199e+003;3.226792e-002
1.238128e+003;3.213460e-002
1.240056e+003;3.206867e-002
1.241985e+003;3.193988e-002
1.243913e+003;3.198175e-002
1.245842e+003;3.221828e-002
1.247771e+003;3.292872e-002
1.249699e+003;3.316483e-002
1.251628e+003;3.303521e-002
1.253556e+003;3.343658e-002
1.255485e+003;3.357080e-002
1.257413e+003;3.305548e-002
1.259342e+003;3.237982e-002
1.261270e+003;3.219837e-002
1.263199e+003;3.242595e-002
1.265127e+003;3.319180e-002
1.267056e+003;3.426057e-002
1.268985e+003;3.486179e-002
1.270913e+003;3.506681e-002
1.272842e+003;3.527060e-002
1.274770e+003;3.564829e-002
1.276699e+003;3.588150e-002
1.278627e+003;3.589291e-002
1.280556e+003;3.591324e-002
1.282484e+003;3.586865e-002
1.284413e+003;3.616618e-002
1.286342e+003;3.630489e-002
1.288270e+003;3.641265e-002
1.290199e+003;3.693466e-002
1.292127e+003;3.776595e-002
1.294056e+003;3.841855e-002
1.295984e+003;3.838854e-002
1.297913e+003;3.832694e-002
1.299841e+003;3.843560e-002
1.301770e+003;3.858028e-002
1.303698e+003;3.880735e-002
1.305627e+003;3.902284e-002
1.307556e+003;3.871682e-002
1.309484e+003;3.798008e-002
1.311413e+003;3.724152e-002
1.313341e+003;3.637892e-002
1.315270e+003;3.577923e-002
1.317198e+003;3.527649e-002
1.319127e+003;3.442464e-002
1.321055e+003;3.381482e-002
1.322984e+003;3.347569e-002
1.324912e+003;3.316394e-002
1.326841e+003;3.294008e-002
1.328770e+003;3.266994e-002
1.330698e+003;3.269094e-002
1.332627e+003;3.292925e-002
1.334555e+003;3.322399e-002
1.336484e+003;3.338011e-002
1.338412e+003;3.360265e-002
1.340341e+003;3.432512e-002
1.342269e+003;3.560189e-002
1.344198e+003;3.668913e-002
1.346126e+003;3.752146e-002
1.348055e+003;3.822186e-002
1.349984e+003;3.895491e-002
1.351912e+003;3.946352e-002
1.353841e+003;3.944419e-002
1.355769e+003;3.928202e-002
1.357698e+003;3.914396e-002
1.359626e+003;3.885131e-002
1.361555e+003;3.908759e-002
1.363483e+003;4.053576e-002
1.365412e+003;4.249123e-002
1.367341e+003;4.311684e-002
1.369269e+003;4.314974e-002
1.371198e+003;4.250259e-002
1.373126e+003;4.034777e-002
1.375055e+003;3.848712e-002
1.376983e+003;3.790863e-002
1.378912e+003;3.702912e-002
1.380840e+003;3.570120e-002
1.382769e+003;3.465353e-002
1.384698e+003;3.400061e-002
1.386626e+003;3.284512e-002
1.388555e+003;3.276640e-002
1.390483e+003;3.342970e-002
1.392412e+003;3.296239e-002
1.394340e+003;3.191613e-002
1.396269e+003;3.198895e-002
1.398197e+003;3.214028e-002
1.400126e+003;3.297687e-002
1.402054e+003;3.404447e-002
1.403983e+003;3.404020e-002
1.405911e+003;3.431712e-002
1.407840e+003;3.492021e-002
1.409769e+003;3.530827e-002
1.411697e+003;3.584512e-002
1.413626e+003;3.652273e-002
1.415554e+003;3.677881e-002
1.417483e+003;3.571458e-002
1.419411e+003;3.576319e-002
1.421340e+003;3.944208e-002
1.423268e+003;4.251513e-002
1.425197e+003;4.476369e-002
1.427125e+003;4.733540e-002
1.429054e+003;4.978083e-002
1.430983e+003;5.254093e-002
1.432911e+003;5.497938e-002
1.434840e+003;5.519928e-002
1.436768e+003;5.581794e-002
1.438697e+003;5.987429e-002
1.440625e+003;6.274623e-002
1.442554e+003;6.435858e-002
1.444482e+003;6.578267e-002
1.446411e+003;6.674122e-002
1.448340e+003;6.846865e-002
1.450268e+003;7.199164e-002
1.452197e+003;7.656669e-002
1.454125e+003;8.078005e-002
1.456054e+003;8.365450e-002
1.457982e+003;9.544899e-002
1.459911e+003;1.191044e-001
1.461839e+003;1.359839e-001
1.463768e+003;1.350871e-001
1.465697e+003;1.383823e-001
1.467625e+003;1.574475e-001
1.469554e+003;1.891334e-001
1.471482e+003;2.112133e-001
1.473411e+003;1.846876e-001
1.475339e+003;1.291911e-001
1.477268e+003;8.880641e-002
1.479196e+003;7.011970e-002
1.481125e+003;6.136122e-002
1.483053e+003;5.629517e-002
1.484982e+003;5.227502e-002
1.486911e+003;4.875407e-002
1.488839e+003;4.589012e-002
1.490768e+003;4.474198e-002
1.492696e+003;4.490509e-002
1.494625e+003;4.253486e-002
1.496553e+003;3.959846e-002
1.498482e+003;3.970293e-002
1.500410e+003;4.033162e-002
1.502339e+003;4.014144e-002
1.504267e+003;3.608164e-002
1.506196e+003;3.111699e-002
1.508125e+003;3.281989e-002
1.510053e+003;3.591443e-002
1.511982e+003;3.633810e-002
1.513910e+003;3.611444e-002
1.515839e+003;3.486653e-002
1.517767e+003;3.400559e-002
1.519696e+003;3.204014e-002
1.521624e+003;3.066428e-002
1.523553e+003;3.293025e-002
1.525481e+003;3.399598e-002
1.527410e+003;3.496208e-002
1.529339e+003;3.613694e-002
1.531267e+003;3.572656e-002
1.533196e+003;3.430077e-002
1.535124e+003;3.531685e-002
1.537053e+003;3.362886e-002
1.538981e+003;2.804321e-002
1.540910e+003;2.754179e-002
1.542838e+003;3.060838e-002
1.544767e+003;3.289776e-002
1.546695e+003;3.481024e-002
1.548624e+003;3.507446e-002
1.550553e+003;3.485529e-002
1.552481e+003;3.416460e-002
1.554410e+003;3.245226e-002
1.556338e+003;2.963354e-002
1.558267e+003;2.458762e-002
1.560195e+003;2.675203e-002
1.562124e+003;3.323304e-002
1.564052e+003;3.511678e-002
1.565981e+003;3.489307e-002
1.567910e+003;3.332537e-002
1.569838e+003;3.201428e-002
1.571767e+003;3.327139e-002
1.573695e+003;3.222031e-002
1.575624e+003;2.899119e-002
1.577552e+003;3.099577e-002
1.579481e+003;3.419816e-002
1.581409e+003;3.480722e-002
1.583338e+003;3.489723e-002
1.585266e+003;3.457139e-002
1.587195e+003;3.425470e-002
1.589124e+003;3.425839e-002
1.591052e+003;3.448361e-002
1.592981e+003;3.405866e-002
1.594909e+003;3.372403e-002
1.596838e+003;3.384430e-002
1.598766e+003;3.407339e-002
1.600695e+003;3.401913e-002
1.602623e+003;3.406636e-002
1.604552e+003;3.414356e-002
1.606480e+003;3.403526e-002
1.608409e+003;3.400566e-002
1.610338e+003;3.398939e-002
1.612266e+003;3.383925e-002
1.614195e+003;3.243762e-002
1.616123e+003;2.934299e-002
1.618052e+003;3.060451e-002
1.619980e+003;3.324077e-002
1.621909e+003;3.260946e-002
1.623837e+003;3.231221e-002
1.625766e+003;3.326241e-002
1.627694e+003;3.339403e-002
1.629623e+003;3.415593e-002
1.631552e+003;3.474882e-002
1.633480e+003;3.244822e-002
1.635409e+003;2.960381e-002
1.637337e+003;3.182780e-002
1.639266e+003;3.483591e-002
1.641194e+003;3.577866e-002
1.643123e+003;3.510403e-002
1.645051e+003;3.222970e-002
1.646980e+003;3.120125e-002
1.648909e+003;3.307861e-002
1.650837e+003;2.951230e-002
1.652766e+003;2.364087e-002
1.654694e+003;2.825006e-002
1.656623e+003;3.378871e-002
1.658551e+003;3.474502e-002
1.660480e+003;3.396162e-002
1.662408e+003;3.263725e-002
1.664337e+003;3.317292e-002
1.666266e+003;3.321287e-002
1.668194e+003;3.116277e-002
1.670123e+003;3.043364e-002
1.672051e+003;3.119737e-002
1.673980e+003;2.996051e-002
1.675908e+003;2.978110e-002
1.677837e+003;3.199398e-002
1.679765e+003;3.191017e-002
1.681694e+003;2.927650e-002
1.683622e+003;2.482485e-002
1.685551e+003;2.614557e-002
1.687479e+003;3.018110e-002
1.689408e+003;3.117541e-002
1.691337e+003;3.171907e-002
1.693265e+003;3.038090e-002
1.695194e+003;2.612833e-002
1.697122e+003;2.570992e-002
1.699051e+003;2.425846e-002
1.700979e+003;2.398374e-002
1.702908e+003;2.778309e-002
1.704836e+003;2.814544e-002
1.706765e+003;2.862395e-002
1.708693e+003;2.930865e-002
1.710622e+003;2.941791e-002
1.712551e+003;2.853478e-002
1.714479e+003;2.635334e-002
1.716408e+003;2.310924e-002
1.718336e+003;2.345145e-002
1.720265e+003;2.676158e-002
1.722193e+003;2.805845e-002
1.724122e+003;2.826527e-002
1.726050e+003;2.860272e-002
1.727979e+003;2.840554e-002
1.729908e+003;2.784516e-002
1.731836e+003;2.522618e-002
1.733765e+003;2.196390e-002
1.735693e+003;2.454835e-002
1.737622e+003;2.716270e-002
1.739550e+003;2.648624e-002
1.741479e+003;2.663104e-002
1.743407e+003;2.707763e-002
1.745336e+003;2.692908e-002
1.747265e+003;2.582029e-002
1.749193e+003;2.415966e-002
1.751122e+003;2.310613e-002
1.753050e+003;2.428561e-002
1.754979e+003;2.414229e-002
1.756907e+003;2.332375e-002
1.758836e+003;2.339896e-002
1.760764e+003;2.246101e-002
1.762693e+003;2.220825e-002
1.764621e+003;2.279377e-002
1.766550e+003;2.174135e-002
1.768479e+003;2.069439e-002
1.770407e+003;1.951737e-002
1.772336e+003;1.849505e-002
1.774264e+003;2.025466e-002
1.776193e+003;2.159238e-002
1.778121e+003;2.158828e-002
1.780050e+003;2.121587e-002
1.781978e+003;2.128682e-002
1.783907e+003;2.122321e-002
1.785835e+003;2.096206e-002
1.787764e+003;2.097385e-002
1.789693e+003;2.022450e-002
1.791621e+003;1.876506e-002
1.793550e+003;1.926805e-002
1.795478e+003;2.097673e-002
1.797407e+003;2.129621e-002
1.799335e+003;2.063730e-002
1.801264e+003;2.030084e-002
1.803192e+003;2.097482e-002
1.805121e+003;2.151867e-002
1.807049e+003;2.157943e-002
1.808978e+003;2.121030e-002
1.810907e+003;2.115370e-002
1.812835e+003;2.130829e-002
1.814764e+003;2.144291e-002
1.816692e+003;2.137633e-002
1.818621e+003;2.155143e-002
1.820549e+003;2.168495e-002
1.822478e+003;2.120324e-002
1.824406e+003;2.025894e-002
1.826335e+003;2.004326e-002
1.828264e+003;1.962610e-002
1.830192e+003;1.937079e-002
1.832121e+003;2.000562e-002
1.834049e+003;2.016618e-002
1.835978e+003;1.993848e-002
1.837906e+003;1.989696e-002
1.839835e+003;2.000863e-002
1.841763e+003;1.903109e-002
1.843692e+003;1.754854e-002
1.845620e+003;1.829013e-002
1.847549e+003;1.947651e-002
1.849478e+003;1.969870e-002
1.851406e+003;1.998140e-002
1.853335e+003;2.020634e-002
1.855263e+003;2.029528e-002
1.857192e+003;2.020464e-002
1.859120e+003;1.995267e-002
1.861049e+003;1.973757e-002
1.862977e+003;1.994792e-002
1.864906e+003;1.995284e-002
1.866834e+003;1.918448e-002
1.868763e+003;1.869985e-002
1.870692e+003;1.967495e-002
1.872620e+003;2.051928e-002
1.874549e+003;2.078979e-002
1.876477e+003;2.113119e-002
1.878406e+003;2.130209e-002
1.880334e+003;2.147045e-002
1.882263e+003;2.162874e-002
1.884191e+003;2.209468e-002
1.886120e+003;2.287465e-002
1.888048e+003;2.333130e-002
1.889977e+003;2.367985e-002
1.891906e+003;2.472779e-002
1.893834e+003;2.537935e-002
1.895763e+003;2.551939e-002
1.897691e+003;2.558085e-002
1.899620e+003;2.560415e-002
1.901548e+003;2.558156e-002
1.903477e+003;2.526169e-002
1.905405e+003;2.482650e-002
1.907334e+003;2.434543e-002
1.909262e+003;2.375627e-002
1.911191e+003;2.357664e-002
1.913120e+003;2.338403e-002
1.915048e+003;2.283794e-002
1.916977e+003;2.206749e-002
1.918905e+003;2.227218e-002
1.920834e+003;2.247322e-002
1.922762e+003;2.208109e-002
1.924691e+003;2.223433e-002
1.926619e+003;2.248194e-002
1.928548e+003;2.265321e-002
1.930477e+003;2.234448e-002
1.932405e+003;2.206132e-002
1.934334e+003;2.210218e-002
1.936262e+003;2.207255e-002
1.938191e+003;2.201377e-002
1.940119e+003;2.165852e-002
1.942048e+003;2.116713e-002
1.943976e+003;2.116093e-002
1.945905e+003;2.135590e-002
1.947833e+003;2.152723e-002
1.949762e+003;2.168084e-002
1.951691e+003;2.183837e-002
1.953619e+003;2.189740e-002
1.955548e+003;2.193873e-002
1.957476e+003;2.201060e-002
1.959405e+003;2.192329e-002
1.961333e+003;2.177706e-002
1.963262e+003;2.182945e-002
1.965190e+003;2.171163e-002
1.967119e+003;2.146370e-002
1.969047e+003;2.153632e-002
1.970976e+003;2.149935e-002
1.972905e+003;2.120390e-002
1.974833e+003;2.145987e-002
1.976762e+003;2.182810e-002
1.978690e+003;2.163818e-002
1.980619e+003;2.149987e-002
1.982547e+003;2.172950e-002
1.984476e+003;2.185576e-002
1.986404e+003;2.162237e-002
1.988333e+003;2.158246e-002
1.990261e+003;2.154666e-002
1.992190e+003;2.157588e-002
1.994119e+003;2.164598e-002
1.996047e+003;2.170634e-002
1.997976e+003;2.181451e-002
1.999904e+003;2.210835e-002
2.001833e+003;2.257139e-002
2.003761e+003;2.273835e-002
2.005690e+003;2.295785e-002
2.007618e+003;2.350269e-002
2.009547e+003;2.438580e-002
2.011476e+003;2.541240e-002
2.013404e+003;2.621194e-002
2.015333e+003;2.715747e-002
2.017261e+003;2.781559e-002
2.019190e+003;2.769691e-002
2.021118e+003;2.777475e-002
2.023047e+003;2.779217e-002
2.024975e+003;2.719599e-002
2.026904e+003;2.652741e-002
2.028833e+003;2.600638e-002
2.030761e+003;2.569706e-002
2.032690e+003;2.549767e-002
2.034618e+003;2.523110e-002
2.036547e+003;2.493699e-002
2.038475e+003;2.459140e-002
2.040404e+003;2.427135e-002
2.042332e+003;2.409889e-002
2.044261e+003;2.393199e-002
2.046189e+003;2.390080e-002
2.048118e+003;2.394313e-002
2.050047e+003;2.386145e-002
2.051975e+003;2.362523e-002
2.053904e+003;2.354578e-002
2.055832e+003;2.352794e-002
2.057761e+003;2.333630e-002
2.059689e+003;2.312958e-002
2.061618e+003;2.297609e-002
2.063546e+003;2.281633e-002
2.065475e+003;2.266493e-002
2.067404e+003;2.277341e-002
2.069332e+003;2.288275e-002
2.071260e+003;2.287839e-002
2.073189e+003;2.309100e-002
2.075118e+003;2.301626e-002
2.077046e+003;2.296484e-002
2.078975e+003;2.305372e-002
2.080903e+003;2.275403e-002
2.082832e+003;2.233346e-002
2.084760e+003;2.244656e-002
2.086689e+003;2.248170e-002
2.088617e+003;2.224560e-002
2.090546e+003;2.234193e-002
2.092475e+003;2.256043e-002
2.094403e+003;2.241589e-002
2.096332e+003;2.231480e-002
2.098260e+003;2.245260e-002
2.100189e+003;2.253335e-002
2.102117e+003;2.236301e-002
2.104046e+003;2.216103e-002
2.105974e+003;2.230977e-002
2.107903e+003;2.247706e-002
2.109832e+003;2.234588e-002
2.111760e+003;2.225076e-002
2.113688e+003;2.203197e-002
2.115617e+003;2.178604e-002
2.117546e+003;2.189193e-002
2.119474e+003;2.223670e-002
2.121403e+003;2.236419e-002
2.123331e+003;2.245375e-002
2.125260e+003;2.246275e-002
2.127188e+003;2.240731e-002
2.129117e+003;2.244342e-002
2.131045e+003;2.255840e-002
2.132974e+003;2.283389e-002
2.134903e+003;2.303199e-002
2.136831e+003;2.324317e-002
2.138760e+003;2.339469e-002
2.140688e+003;2.356590e-002
2.142617e+003;2.401690e-002
2.144545e+003;2.429304e-002
2.146474e+003;2.414036e-002
2.148402e+003;2.396652e-002
2.150331e+003;2.397986e-002
2.152260e+003;2.418425e-002
2.154188e+003;2.407045e-002
2.156117e+003;2.384720e-002
2.158045e+003;2.363425e-002
2.159974e+003;2.357786e-002
2.161902e+003;2.341085e-002
2.163831e+003;2.319445e-002
2.165759e+003;2.307342e-002
2.167688e+003;2.326740e-002
2.169616e+003;2.343260e-002
2.171545e+003;2.334214e-002
2.173474e+003;2.372299e-002
2.175402e+003;2.390357e-002
2.177331e+003;2.384269e-002
2.179259e+003;2.373433e-002
2.181188e+003;2.362498e-002
2.183116e+003;2.370158e-002
2.185045e+003;2.396273e-002
2.186973e+003;2.397986e-002
2.188902e+003;2.374854e-002
2.190831e+003;2.368380e-002
2.192759e+003;2.382771e-002
2.194688e+003;2.382046e-002
2.196616e+003;2.375172e-002
2.198545e+003;2.393126e-002
2.200473e+003;2.392503e-002
2.202402e+003;2.382190e-002
2.204330e+003;2.398388e-002
2.206259e+003;2.403077e-002
2.208188e+003;2.398206e-002
2.210116e+003;2.380433e-002
2.212044e+003;2.366571e-002
2.213973e+003;2.400377e-002
2.215902e+003;2.420506e-002
2.217830e+003;2.411924e-002
2.219759e+003;2.397744e-002
2.221687e+003;2.400556e-002
2.223616e+003;2.432188e-002
2.225544e+003;2.423417e-002
2.227473e+003;2.395209e-002
2.229401e+003;2.401053e-002
2.231330e+003;2.446056e-002
2.233259e+003;2.450266e-002
2.235187e+003;2.460876e-002
2.237116e+003;2.533923e-002
2.239044e+003;2.631627e-002
2.240973e+003;2.716174e-002
2.242901e+003;2.743685e-002
2.244830e+003;2.748284e-002
2.246758e+003;2.745983e-002
2.248687e+003;2.711381e-002
2.250615e+003;2.675584e-002
2.252544e+003;2.651166e-002
2.254473e+003;2.678809e-002
2.256401e+003;2.683394e-002
2.258330e+003;2.644767e-002
2.260258e+003;2.604874e-002
2.262187e+003;2.599533e-002
2.264115e+003;2.617861e-002
2.266044e+003;2.615095e-002
2.267972e+003;2.627558e-002
2.269901e+003;2.688568e-002
2.271830e+003;2.715892e-002
2.273758e+003;2.749008e-002
2.275687e+003;2.790115e-002
2.277615e+003;2.818055e-002
2.279544e+003;2.850506e-002
2.281472e+003;2.856666e-002
2.283401e+003;2.847473e-002
2.285329e+003;2.841427e-002
2.287258e+003;2.823691e-002
2.289187e+003;2.834558e-002
2.291115e+003;2.843366e-002
2.293043e+003;2.823129e-002
2.294972e+003;2.838198e-002
2.296901e+003;2.862686e-002
2.298829e+003;2.877252e-002
2.300758e+003;2.894872e-002
2.302686e+003;2.896586e-002
2.304615e+003;2.904255e-002
2.306543e+003;2.914236e-002
2.308472e+003;2.918679e-002
2.310400e+003;2.954504e-002
2.312329e+003;3.017616e-002
2.314258e+003;3.034892e-002
2.316186e+003;3.030493e-002
2.318115e+003;3.052420e-002
2.320043e+003;3.094186e-002
2.321972e+003;3.120592e-002
2.323900e+003;3.139501e-002
2.325829e+003;3.157417e-002
2.327757e+003;3.190821e-002
2.329686e+003;3.224123e-002
2.331615e+003;3.206906e-002
2.333543e+003;3.165969e-002
2.335472e+003;3.166319e-002
2.337400e+003;3.194490e-002
2.339329e+003;3.212911e-002
2.341257e+003;3.225086e-002
2.343186e+003;3.261442e-002
2.345114e+003;3.276064e-002
2.347043e+003;3.249104e-002
2.348971e+003;3.209547e-002
2.350900e+003;3.169569e-002
2.352829e+003;3.062716e-002
2.354757e+003;2.951209e-002
2.356686e+003;2.859500e-002
2.358614e+003;2.760439e-002
2.360543e+003;2.702984e-002
2.362471e+003;2.665813e-002
2.364400e+003;2.637067e-002
2.366328e+003;2.617823e-002
2.368257e+003;2.624555e-002
2.370186e+003;2.645067e-002
2.372114e+003;2.631638e-002
2.374042e+003;2.631272e-002
2.375971e+003;2.627840e-002
2.377900e+003;2.640024e-002
2.379828e+003;2.664816e-002
2.381757e+003;2.679764e-002
2.383685e+003;2.679372e-002
2.385614e+003;2.679884e-002
2.387542e+003;2.692774e-002
2.389471e+003;2.715254e-002
2.391399e+003;2.728924e-002
2.393328e+003;2.725516e-002
2.395257e+003;2.703443e-002
2.397185e+003;2.694247e-002
2.399114e+003;2.724231e-002
2.401042e+003;2.752450e-002
2.402971e+003;2.743890e-002
2.404899e+003;2.737551e-002
2.406828e+003;2.737135e-002
2.408756e+003;2.751454e-002
2.410685e+003;2.799321e-002
2.412614e+003;2.848510e-002
2.414542e+003;2.861026e-002
2.416471e+003;2.881893e-002
2.418399e+003;2.885066e-002
2.420328e+003;2.861125e-002
2.422256e+003;2.833801e-002
2.424185e+003;2.807969e-002
2.426113e+003;2.799981e-002
2.428042e+003;2.793345e-002
2.429970e+003;2.750158e-002
2.431899e+003;2.711825e-002
2.433828e+003;2.725434e-002
2.435756e+003;2.726397e-002
2.437685e+003;2.668745e-002
2.439613e+003;2.617928e-002
2.441542e+003;2.647743e-002
2.443470e+003;2.673625e-002
2.445399e+003;2.668438e-002
2.447327e+003;2.677860e-002
2.449256e+003;2.672811e-002
2.451185e+003;2.666342e-002
2.453113e+003;2.683052e-002
2.455042e+003;2.715211e-002
2.456970e+003;2.729015e-002
2.458899e+003;2.705333e-002
2.460827e+003;2.705569e-002
2.462756e+003;2.710245e-002
2.464684e+003;2.705597e-002
2.466613e+003;2.734432e-002
2.468542e+003;2.804565e-002
2.470470e+003;2.874795e-002
2.472398e+003;2.924857e-002
2.474327e+003;2.949858e-002
2.476256e+003;2.972301e-002
2.478184e+003;2.993655e-002
2.480113e+003;2.975253e-002
2.482041e+003;2.944890e-002
2.483970e+003;2.941780e-002
2.485898e+003;2.974135e-002
2.487827e+003;2.956816e-002
2.489755e+003;2.935572e-002
2.491684e+003;2.946634e-002
2.493613e+003;2.964882e-002
2.495541e+003;2.944124e-002
2.497470e+003;2.923184e-002
2.499398e+003;2.937338e-002
2.501327e+003;2.942645e-002
2.503255e+003;2.959476e-002
2.505184e+003;2.998309e-002
2.507112e+003;3.028742e-002
2.509041e+003;3.042817e-002
2.510969e+003;3.048709e-002
2.512898e+003;3.057333e-002
2.514827e+003;3.061390e-002
2.516755e+003;3.053327e-002
2.518684e+003;3.068202e-002
2.520612e+003;3.139715e-002
2.522541e+003;3.211855e-002
2.524469e+003;3.250796e-002
2.526398e+003;3.281249e-002
2.528326e+003;3.295045e-002
2.530255e+003;3.309910e-002
2.532184e+003;3.282396e-002
2.534112e+003;3.258757e-002
2.536041e+003;3.247407e-002
2.537969e+003;3.202815e-002
2.539898e+003;3.208640e-002
2.541826e+003;3.269187e-002
2.543755e+003;3.279434e-002
2.545683e+003;3.312743e-002
2.547612e+003;3.387270e-002
2.549541e+003;3.419834e-002
2.551469e+003;3.416884e-002
2.553397e+003;3.418156e-002
2.555326e+003;3.399964e-002
2.557255e+003;3.395937e-002
2.559183e+003;3.412564e-002
2.561112e+003;3.425441e-002
2.563040e+003;3.458087e-002
2.564969e+003;3.490700e-002
2.566897e+003;3.499221e-002
2.568826e+003;3.529935e-002
2.570754e+003;3.577225e-002
2.572683e+003;3.609413e-002
2.574612e+003;3.607098e-002
2.576540e+003;3.614897e-002
2.578469e+003;3.647621e-002
2.580397e+003;3.680553e-002
2.582326e+003;3.710104e-002
2.584254e+003;3.727235e-002
2.586183e+003;3.753223e-002
2.588111e+003;3.799856e-002
2.590040e+003;3.857300e-002
2.591969e+003;3.933669e-002
2.593897e+003;3.963087e-002
2.595826e+003;3.993506e-002
2.597754e+003;4.072509e-002
2.599683e+003;4.118358e-002
2.601611e+003;4.151350e-002
2.603540e+003;4.166421e-002
2.605468e+003;4.178739e-002
2.607397e+003;4.250559e-002
2.609325e+003;4.341301e-002
2.611254e+003;4.395638e-002
2.613183e+003;4.425302e-002
2.615111e+003;4.457004e-002
2.617040e+003;4.522531e-002
2.618968e+003;4.602268e-002
2.620897e+003;4.675701e-002
2.622825e+003;4.742353e-002
2.624754e+003;4.804245e-002
2.626682e+003;4.873553e-002
2.628611e+003;4.917476e-002
2.630540e+003;4.940718e-002
2.632468e+003;4.983434e-002
2.634396e+003;5.013933e-002
2.636325e+003;4.991169e-002
2.638254e+003;4.956585e-002
2.640182e+003;4.943402e-002
2.642111e+003;4.944587e-002
2.644039e+003;4.935614e-002
2.645968e+003;4.925666e-002
2.647896e+003;4.924430e-002
2.649825e+003;4.914444e-002
2.651753e+003;4.883496e-002
2.653682e+003;4.890289e-002
2.655611e+003;4.918359e-002
2.657539e+003;4.920426e-002
2.659468e+003;4.928940e-002
2.661396e+003;4.947242e-002
2.663325e+003;4.924208e-002
2.665253e+003;4.897135e-002
2.667182e+003;4.887575e-002
2.669110e+003;4.849910e-002
2.671039e+003;4.799271e-002
2.672968e+003;4.754189e-002
2.674896e+003;4.749013e-002
2.676825e+003;4.731600e-002
2.678753e+003;4.669716e-002
2.680682e+003;4.643919e-002
2.682610e+003;4.629651e-002
2.684539e+003;4.627885e-002
2.686467e+003;4.625991e-002
2.688396e+003;4.605057e-002
2.690324e+003;4.595984e-002
2.692253e+003;4.614835e-002
2.694182e+003;4.636755e-002
2.696110e+003;4.650918e-002
2.698039e+003;4.681177e-002
2.699967e+003;4.717252e-002
2.701896e+003;4.745779e-002
2.703824e+003;4.778738e-002
2.705753e+003;4.792367e-002
2.707681e+003;4.802879e-002
2.709610e+003;4.861926e-002
2.711539e+003;4.904212e-002
2.713467e+003;4.946540e-002
2.715396e+003;4.992752e-002
2.717324e+003;5.014443e-002
2.719253e+003;5.017861e-002
2.721181e+003;5.032644e-002
2.723110e+003;5.062358e-002
2.725038e+003;5.098494e-002
2.726967e+003;5.119902e-002
2.728896e+003;5.174429e-002
2.730824e+003;5.261531e-002
2.732752e+003;5.327270e-002
2.734681e+003;5.351999e-002
2.736610e+003;5.390511e-002
2.738538e+003;5.439508e-002
2.740467e+003;5.457846e-002
2.742395e+003;5.452805e-002
2.744324e+003;5.445382e-002
2.746252e+003;5.467830e-002
2.748181e+003;5.490658e-002
2.750109e+003;5.507503e-002
2.752038e+003;5.532380e-002
2.753967e+003;5.567485e-002
2.755895e+003;5.616486e-002
2.757824e+003;5.657857e-002
2.759752e+003;5.698780e-002
2.761681e+003;5.764756e-002
2.763609e+003;5.831932e-002
2.765538e+003;5.902620e-002
2.767466e+003;5.964999e-002
2.769395e+003;6.015715e-002
2.771323e+003;6.098948e-002
2.773252e+003;6.221315e-002
2.775181e+003;6.336822e-002
2.777109e+003;6.417963e-002
2.779038e+003;6.478298e-002
2.780966e+003;6.543864e-002
2.782895e+003;6.666569e-002
2.784823e+003;6.787367e-002
2.786752e+003;6.861693e-002
2.788680e+003;6.921681e-002
2.790609e+003;7.016838e-002
2.792538e+003;7.141604e-002
2.794466e+003;7.238509e-002
2.796395e+003;7.308851e-002
2.798323e+003;7.396599e-002
2.800252e+003;7.524412e-002
2.802180e+003;7.627208e-002
2.804109e+003;7.724222e-002
2.806037e+003;7.869360e-002
2.807966e+003;8.006912e-002
2.809895e+003;8.113821e-002
2.811823e+003;8.270618e-002
2.813751e+003;8.438787e-002
2.815680e+003;8.573762e-002
2.817609e+003;8.719321e-002
2.819537e+003;8.906378e-002
2.821466e+003;9.129304e-002
2.823394e+003;9.388170e-002
2.825323e+003;9.696224e-002
2.827251e+003;1.004911e-001
2.829180e+003;1.048808e-001
2.831108e+003;1.103155e-001
2.833037e+003;1.166630e-001
2.834966e+003;1.245215e-001
2.836894e+003;1.352868e-001
2.838823e+003;1.499961e-001
2.840751e+003;1.701758e-001
2.842680e+003;1.983910e-001
2.844608e+003;2.356747e-001
2.846537e+003;2.783469e-001
2.848465e+003;3.061752e-001
2.850394e+003;2.934847e-001
2.852323e+003;2.484077e-001
2.854251e+003;2.001279e-001
2.856180e+003;1.636446e-001
2.858108e+003;1.391350e-001
2.860037e+003;1.234013e-001
2.861965e+003;1.138862e-001
2.863894e+003;1.084240e-001
2.865822e+003;1.053427e-001
2.867751e+003;1.043960e-001
2.869679e+003;1.053579e-001
2.871608e+003;1.076498e-001
2.873536e+003;1.113673e-001
2.875465e+003;1.164389e-001
2.877394e+003;1.225952e-001
2.879322e+003;1.289681e-001
2.881251e+003;1.349364e-001
2.883179e+003;1.412051e-001
2.885108e+003;1.477481e-001
2.887036e+003;1.541026e-001
2.888965e+003;1.608113e-001
2.890893e+003;1.677589e-001
2.892822e+003;1.741677e-001
2.894750e+003;1.807782e-001
2.896679e+003;1.878802e-001
2.898608e+003;1.954500e-001
2.900536e+003;2.037258e-001
2.902465e+003;2.139193e-001
2.904393e+003;2.262518e-001
2.906322e+003;2.407899e-001
2.908250e+003;2.602888e-001
2.910179e+003;2.843057e-001
2.912107e+003;3.094893e-001
2.914036e+003;3.300889e-001
2.915965e+003;3.368718e-001
2.917893e+003;3.249478e-001
2.919822e+003;2.985352e-001
2.921750e+003;2.653449e-001
2.923679e+003;2.316785e-001
2.925607e+003;2.020631e-001
2.927536e+003;1.778797e-001
2.929464e+003;1.573357e-001
2.931393e+003;1.398656e-001
2.933322e+003;1.247593e-001
2.935250e+003;1.123013e-001
2.937178e+003;1.026840e-001
2.939107e+003;9.475189e-002
2.941036e+003;8.790249e-002
2.942964e+003;8.209860e-002
2.944893e+003;7.694212e-002
2.946821e+003;7.315219e-002
2.948750e+003;7.025851e-002
2.950678e+003;6.727646e-002
2.952607e+003;6.464807e-002
2.954535e+003;6.284291e-002
2.956464e+003;6.153584e-002
2.958393e+003;6.061258e-002
2.960321e+003;5.968766e-002
2.962250e+003;5.862449e-002
2.964178e+003;5.780394e-002
2.966107e+003;5.722426e-002
2.968035e+003;5.658212e-002
2.969964e+003;5.606231e-002
2.971892e+003;5.550328e-002
2.973821e+003;5.476644e-002
2.975750e+003;5.415345e-002
2.977678e+003;5.327955e-002
2.979607e+003;5.251509e-002
2.981535e+003;5.218567e-002
2.983464e+003;5.173174e-002
2.985392e+003;5.145749e-002
2.987321e+003;5.094064e-002
2.989249e+003;4.994165e-002
2.991178e+003;4.912400e-002
2.993106e+003;4.881423e-002
2.995035e+003;4.867867e-002
2.996964e+003;4.823158e-002
2.998892e+003;4.801336e-002
3.000821e+003;4.742076e-002
3.002749e+003;4.667609e-002
3.004678e+003;4.652574e-002
3.006606e+003;4.644490e-002
3.008535e+003;4.629673e-002
3.010463e+003;4.627384e-002
3.012392e+003;4.608911e-002
3.014321e+003;4.588320e-002
3.016249e+003;4.539313e-002
3.018177e+003;4.463210e-002
3.020106e+003;4.432710e-002
3.022035e+003;4.435003e-002
3.023963e+003;4.398901e-002
3.025892e+003;4.355862e-002
3.027820e+003;4.355804e-002
3.029749e+003;4.327048e-002
3.031677e+003;4.289792e-002
3.033606e+003;4.280551e-002
3.035534e+003;4.286449e-002
3.037463e+003;4.288494e-002
3.039392e+003;4.273790e-002
3.041320e+003;4.261563e-002
3.043249e+003;4.243916e-002
3.045177e+003;4.202939e-002
3.047106e+003;4.167157e-002
3.049034e+003;4.132866e-002
3.050963e+003;4.123677e-002
3.052891e+003;4.081328e-002
3.054820e+003;4.018694e-002
3.056749e+003;3.998018e-002
3.058677e+003;3.978321e-002
3.060606e+003;3.960731e-002
3.062534e+003;3.977272e-002
3.064463e+003;3.960209e-002
3.066391e+003;3.899362e-002
3.068320e+003;3.856721e-002
3.070248e+003;3.868238e-002
3.072177e+003;3.844114e-002
3.074105e+003;3.788007e-002
3.076034e+003;3.777473e-002
3.077963e+003;3.788332e-002
3.079891e+003;3.756160e-002
3.081820e+003;3.692088e-002
3.083748e+003;3.681859e-002
3.085677e+003;3.725372e-002
3.087605e+003;3.739028e-002
3.089534e+003;3.695616e-002
3.091462e+003;3.611728e-002
3.093391e+003;3.569544e-002
3.095320e+003;3.545982e-002
3.097248e+003;3.505561e-002
3.099177e+003;3.492463e-002
3.101105e+003;3.481717e-002
3.103034e+003;3.445233e-002
3.104962e+003;3.386013e-002
3.106891e+003;3.310196e-002
3.108819e+003;3.266086e-002
3.110748e+003;3.251842e-002
3.112677e+003;3.192397e-002
3.114605e+003;3.080056e-002
3.116533e+003;2.991355e-002
3.118462e+003;2.943074e-002
3.120391e+003;2.909442e-002
3.122319e+003;2.898485e-002
3.124248e+003;2.878792e-002
3.126176e+003;2.846444e-002
3.128105e+003;2.816626e-002
3.130033e+003;2.792836e-002
3.131962e+003;2.745309e-002
3.133890e+003;2.718844e-002
3.135819e+003;2.673611e-002
3.137748e+003;2.651487e-002
3.139676e+003;2.672342e-002
3.141605e+003;2.691293e-002
3.143533e+003;2.683323e-002
3.145462e+003;2.673575e-002
3.147390e+003;2.661258e-002
3.149319e+003;2.654784e-002
3.151247e+003;2.659046e-002
3.153176e+003;2.640292e-002
3.155104e+003;2.629290e-002
3.157033e+003;2.616728e-002
3.158962e+003;2.589983e-002
3.160890e+003;2.578439e-002
3.162819e+003;2.590740e-002
3.164747e+003;2.572082e-002
3.166676e+003;2.548886e-002
3.168604e+003;2.570152e-002
3.170533e+003;2.576603e-002
3.172461e+003;2.580907e-002
3.174390e+003;2.559938e-002
3.176319e+003;2.569115e-002
3.178247e+003;2.600979e-002
3.180176e+003;2.557330e-002
3.182104e+003;2.521600e-002
3.184033e+003;2.527327e-002
3.185961e+003;2.553552e-002
3.187890e+003;2.520989e-002
3.189818e+003;2.501842e-002
3.191747e+003;2.511923e-002
3.193676e+003;2.525101e-002
3.195604e+003;2.542080e-002
3.197532e+003;2.557874e-002
3.199461e+003;2.561871e-002
3.201390e+003;2.579785e-002
3.203318e+003;2.544364e-002
3.205247e+003;2.491703e-002
3.207175e+003;2.504450e-002
3.209104e+003;2.524560e-002
3.211032e+003;2.516716e-002
3.212961e+003;2.502144e-002
3.214889e+003;2.527506e-002
3.216818e+003;2.570025e-002
3.218747e+003;2.576048e-002
3.220675e+003;2.602545e-002
3.222604e+003;2.591816e-002
3.224532e+003;2.579508e-002
3.226461e+003;2.559565e-002
3.228389e+003;2.534232e-002
3.230318e+003;2.584030e-002
3.232246e+003;2.575921e-002
3.234175e+003;2.523598e-002
3.236104e+003;2.526671e-002
3.238032e+003;2.506671e-002
3.239961e+003;2.430471e-002
3.241889e+003;2.473926e-002
3.243818e+003;2.566169e-002
3.245746e+003;2.565937e-002
3.247675e+003;2.559737e-002
3.249603e+003;2.555341e-002
3.251532e+003;2.551261e-002
3.253460e+003;2.534517e-002
3.255389e+003;2.534275e-002
3.257318e+003;2.544009e-002
3.259246e+003;2.569737e-002
3.261175e+003;2.581881e-002
3.263103e+003;2.553492e-002
3.265032e+003;2.529115e-002
3.266960e+003;2.530847e-002
3.268889e+003;2.562415e-002
3.270817e+003;2.581990e-002
3.272746e+003;2.588520e-002
3.274675e+003;2.599692e-002
3.276603e+003;2.596146e-002
3.278531e+003;2.540130e-002
3.280460e+003;2.503481e-002
3.282389e+003;2.539688e-002
3.284317e+003;2.566897e-002
3.286246e+003;2.575099e-002
3.288174e+003;2.604300e-002
3.290103e+003;2.556202e-002
3.292031e+003;2.512109e-002
3.293960e+003;2.543784e-002
3.295888e+003;2.541103e-002
3.297817e+003;2.525645e-002
3.299746e+003;2.539210e-002
3.301674e+003;2.545428e-002
3.303603e+003;2.529280e-002
3.305531e+003;2.529744e-002
3.307460e+003;2.543615e-002
3.309388e+003;2.564767e-002
3.311317e+003;2.598024e-002
3.313245e+003;2.593958e-002
3.315174e+003;2.546559e-002
3.317103e+003;2.551394e-002
3.319031e+003;2.557548e-002
3.320960e+003;2.550519e-002
3.322888e+003;2.554209e-002
3.324817e+003;2.554951e-002
3.326745e+003;2.534232e-002
3.328674e+003;2.536245e-002
3.330602e+003;2.558781e-002
3.332531e+003;2.578084e-002
3.334459e+003;2.579592e-002
3.336388e+003;2.579082e-002
3.338317e+003;2.564015e-002
3.340245e+003;2.557530e-002
3.342174e+003;2.516902e-002
3.344102e+003;2.497805e-002
3.346031e+003;2.535767e-002
3.347959e+003;2.580225e-002
3.349888e+003;2.605475e-002
3.351816e+003;2.616404e-002
3.353745e+003;2.574842e-002
3.355674e+003;2.584023e-002
3.357602e+003;2.638229e-002
3.359531e+003;2.624320e-002
3.361459e+003;2.588584e-002
3.363388e+003;2.603776e-002
3.365316e+003;2.628568e-002
3.367245e+003;2.622592e-002
3.369173e+003;2.628885e-002
3.371102e+003;2.659014e-002
3.373031e+003;2.665264e-002
3.374959e+003;2.602538e-002
3.376887e+003;2.546208e-002
3.378816e+003;2.567185e-002
3.380745e+003;2.617573e-002
3.382673e+003;2.622926e-002
3.384602e+003;2.605999e-002
3.386530e+003;2.566088e-002
3.388459e+003;2.499146e-002
3.390387e+003;2.516723e-002
3.392316e+003;2.569277e-002
3.394244e+003;2.545052e-002
3.396173e+003;2.489018e-002
3.398102e+003;2.463702e-002
3.400030e+003;2.485289e-002
3.401959e+003;2.490482e-002
3.403887e+003;2.462528e-002
3.405816e+003;2.458257e-002
3.407744e+003;2.462500e-002
3.409673e+003;2.433989e-002
3.411601e+003;2.426546e-002
3.413530e+003;2.438980e-002
3.415458e+003;2.436218e-002
3.417387e+003;2.476006e-002
3.419316e+003;2.514142e-002
3.421244e+003;2.500059e-002
3.423173e+003;2.473260e-002
3.425101e+003;2.463829e-002
3.427030e+003;2.478988e-002
3.428958e+003;2.481138e-002
3.430887e+003;2.452857e-002
3.432815e+003;2.421186e-002
3.434744e+003;2.401645e-002
3.436673e+003;2.396949e-002
3.438601e+003;2.427657e-002
3.440530e+003;2.458642e-002
3.442458e+003;2.451202e-002
3.444387e+003;2.410705e-002
3.446315e+003;2.359126e-002
3.448244e+003;2.349485e-002
3.450172e+003;2.360175e-002
3.452101e+003;2.353634e-002
3.454030e+003;2.372649e-002
3.455958e+003;2.445481e-002
3.457886e+003;2.470334e-002
3.459815e+003;2.436880e-002
3.461744e+003;2.371120e-002
3.463672e+003;2.326068e-002
3.465601e+003;2.327425e-002
3.467529e+003;2.335564e-002
3.469458e+003;2.311840e-002
3.471386e+003;2.283302e-002
3.473315e+003;2.276133e-002
3.475243e+003;2.312409e-002
3.477172e+003;2.361435e-002
3.479101e+003;2.352326e-002
3.481029e+003;2.336480e-002
3.482958e+003;2.339627e-002
3.484886e+003;2.326100e-002
3.486815e+003;2.293679e-002
3.488743e+003;2.285635e-002
3.490672e+003;2.295478e-002
3.492600e+003;2.272229e-002
3.494529e+003;2.274199e-002
3.496458e+003;2.313091e-002
3.498386e+003;2.351850e-002
3.500315e+003;2.350251e-002
3.502243e+003;2.304739e-002
3.504172e+003;2.249765e-002
3.506100e+003;2.270875e-002
3.508029e+003;2.365420e-002
3.509957e+003;2.401662e-002
3.511886e+003;2.375312e-002
3.513814e+003;2.334371e-002
3.515743e+003;2.328274e-002
3.517672e+003;2.355264e-002
3.519600e+003;2.335025e-002
3.521529e+003;2.276381e-002
3.523457e+003;2.250173e-002
3.525386e+003;2.278776e-002
3.527314e+003;2.264650e-002
3.529243e+003;2.190761e-002
3.531171e+003;2.197498e-002
3.533100e+003;2.228947e-002
3.535029e+003;2.198965e-002
3.536957e+003;2.191350e-002
3.538885e+003;2.211550e-002
3.540814e+003;2.244328e-002
3.542743e+003;2.239531e-002
3.544671e+003;2.243041e-002
3.546600e+003;2.263090e-002
3.548528e+003;2.302129e-002
3.550457e+003;2.351773e-002
3.552385e+003;2.361988e-002
3.554314e+003;2.328687e-002
3.556242e+003;2.310529e-002
3.558171e+003;2.316261e-002
3.560100e+003;2.311637e-002
3.562028e+003;2.332368e-002
3.563957e+003;2.318536e-002
3.565885e+003;2.220351e-002
3.567814e+003;2.207809e-002
3.569742e+003;2.309180e-002
3.571671e+003;2.385315e-002
3.573599e+003;2.378137e-002
3.575528e+003;2.377734e-002
3.577457e+003;2.401978e-002
3.579385e+003;2.408267e-002
3.581314e+003;2.446389e-002
3.583242e+003;2.490811e-002
3.585171e+003;2.383772e-002
3.587099e+003;2.292701e-002
3.589028e+003;2.422349e-002
3.590956e+003;2.594049e-002
3.592885e+003;2.635475e-002
3.594813e+003;2.615011e-002
3.596742e+003;2.665327e-002
3.598671e+003;2.791002e-002
3.600599e+003;2.877252e-002
3.602528e+003;2.953475e-002
3.604456e+003;2.982418e-002
3.606385e+003;2.886450e-002
3.608313e+003;2.733948e-002
3.610242e+003;2.762851e-002
3.612170e+003;2.842506e-002
3.614099e+003;2.846989e-002
3.616028e+003;2.775126e-002
3.617956e+003;2.653921e-002
3.619885e+003;2.644158e-002
3.621813e+003;2.716862e-002
3.623742e+003;2.714104e-002
3.625670e+003;2.586927e-002
3.627599e+003;2.246052e-002
3.629527e+003;2.191514e-002
3.631456e+003;2.482882e-002
3.633385e+003;2.606890e-002
3.635313e+003;2.611316e-002
3.637241e+003;2.610018e-002
3.639170e+003;2.690997e-002
3.641099e+003;2.765160e-002
3.643027e+003;2.829229e-002
3.644956e+003;2.736655e-002
3.646884e+003;2.434953e-002
3.648813e+003;2.285324e-002
3.650741e+003;2.480149e-002
3.652670e+003;2.698880e-002
3.654598e+003;2.628917e-002
3.656527e+003;2.585489e-002
3.658456e+003;2.730081e-002
3.660384e+003;2.751408e-002
3.662313e+003;2.726810e-002
3.664241e+003;2.737354e-002
3.666170e+003;2.635222e-002
3.668098e+003;2.374332e-002
3.670027e+003;2.197135e-002
3.671955e+003;2.314918e-002
3.673884e+003;2.164664e-002
3.675813e+003;2.063751e-002
3.677741e+003;2.415059e-002
3.679669e+003;2.620086e-002
3.681598e+003;2.684222e-002
3.683527e+003;2.672606e-002
3.685455e+003;2.521235e-002
3.687384e+003;2.255910e-002
3.689312e+003;2.246673e-002
3.691241e+003;2.415409e-002
3.693169e+003;2.591109e-002
3.695098e+003;2.652153e-002
3.697026e+003;2.632043e-002
3.698955e+003;2.587367e-002
3.700884e+003;2.571172e-002
3.702812e+003;2.636165e-002
3.704741e+003;2.647486e-002
3.706669e+003;2.559720e-002
3.708598e+003;2.445047e-002
3.710526e+003;2.288457e-002
3.712455e+003;2.301008e-002
3.714383e+003;2.505559e-002
3.716312e+003;2.554511e-002
3.718240e+003;2.484187e-002
3.720169e+003;2.422780e-002
3.722098e+003;2.408229e-002
3.724026e+003;2.398851e-002
3.725955e+003;2.372611e-002
3.727883e+003;2.415427e-002
3.729812e+003;2.370371e-002
3.731740e+003;2.233049e-002
3.733669e+003;2.175560e-002
3.735597e+003;2.103258e-002
3.737526e+003;2.246973e-002
3.739455e+003;2.403067e-002
3.741383e+003;2.282729e-002
3.743312e+003;1.784227e-002
3.745240e+003;1.797800e-002
3.747169e+003;2.016986e-002
3.749097e+003;1.834190e-002
3.751026e+003;1.836613e-002
3.752954e+003;2.128184e-002
3.754883e+003;2.390735e-002
3.756812e+003;2.401512e-002
3.758740e+003;2.393381e-002
3.760668e+003;2.415560e-002
3.762597e+003;2.505513e-002
3.764526e+003;2.482296e-002
3.766454e+003;2.476052e-002
3.768383e+003;2.413868e-002
3.770311e+003;2.431571e-002
3.772240e+003;2.574153e-002
3.774168e+003;2.624411e-002
3.776097e+003;2.575837e-002
3.778025e+003;2.480882e-002
3.779954e+003;2.468851e-002
3.781883e+003;2.552203e-002
3.783811e+003;2.581484e-002
3.785740e+003;2.640151e-002
3.787668e+003;2.669273e-002
3.789597e+003;2.667511e-002
3.791525e+003;2.677483e-002
3.793454e+003;2.670115e-002
3.795382e+003;2.590434e-002
3.797311e+003;2.547621e-002
3.799240e+003;2.337910e-002
3.801168e+003;2.176925e-002
3.803097e+003;2.466480e-002
3.805025e+003;2.568359e-002
3.806954e+003;2.461006e-002
3.808882e+003;2.651899e-002
3.810811e+003;2.780011e-002
3.812739e+003;2.714718e-002
3.814668e+003;2.406120e-002
3.816596e+003;2.384717e-002
3.818525e+003;2.558275e-002
3.820454e+003;2.470917e-002
3.822382e+003;2.609574e-002
3.824311e+003;2.742471e-002
3.826239e+003;2.677772e-002
3.828168e+003;2.670062e-002
3.830096e+003;2.662392e-002
3.832025e+003;2.630392e-002
3.833953e+003;2.572377e-002
3.835882e+003;2.378753e-002
3.837811e+003;2.279970e-002
3.839739e+003;2.510645e-002
3.841667e+003;2.693391e-002
3.843596e+003;2.710503e-002
3.845525e+003;2.733405e-002
3.847453e+003;2.775123e-002
3.849382e+003;2.657785e-002
3.851310e+003;2.224120e-002
3.853239e+003;1.859159e-002
3.855167e+003;2.242709e-002
3.857096e+003;2.681166e-002
3.859024e+003;2.730120e-002
3.860953e+003;2.679260e-002
3.862882e+003;2.645095e-002
3.864810e+003;2.647306e-002
3.866739e+003;2.709067e-002
3.868667e+003;2.544128e-002
3.870596e+003;2.588200e-002
3.872524e+003;2.789303e-002
3.874453e+003;2.878629e-002
3.876381e+003;3.027317e-002
3.878310e+003;2.948280e-002
3.880239e+003;2.858180e-002
3.882167e+003;2.881599e-002
3.884096e+003;2.762522e-002
3.886024e+003;2.712915e-002
3.887953e+003;2.850201e-002
3.889881e+003;2.809606e-002
3.891810e+003;2.801784e-002
3.893738e+003;2.932268e-002
3.895667e+003;2.986343e-002
3.897595e+003;2.925073e-002
3.899524e+003;2.799345e-002
3.901453e+003;2.666877e-002
3.903381e+003;2.626252e-002
3.905310e+003;2.760912e-002
3.907238e+003;2.895602e-002
3.909167e+003;2.928575e-002
3.911095e+003;2.938720e-002
3.913024e+003;2.955663e-002
3.914952e+003;2.915823e-002
3.916881e+003;2.880898e-002
3.918810e+003;2.919771e-002
3.920738e+003;2.926533e-002
3.922667e+003;2.920877e-002
3.924595e+003;2.910469e-002
3.926524e+003;2.943092e-002
3.928452e+003;2.973759e-002
3.930381e+003;2.961764e-002
3.932309e+003;2.897096e-002
3.934238e+003;2.882835e-002
3.936167e+003;2.948755e-002
3.938095e+003;2.996925e-002
3.940023e+003;2.931602e-002
3.941952e+003;2.859861e-002
3.943881e+003;2.862586e-002
3.945809e+003;2.838637e-002
3.947738e+003;2.860375e-002
3.949666e+003;2.907734e-002
3.951595e+003;2.948372e-002
3.953523e+003;2.943301e-002
3.955452e+003;2.935895e-002
3.957380e+003;2.959178e-002
3.959309e+003;2.937682e-002
3.961238e+003;2.900933e-002
3.963166e+003;2.872345e-002
3.965095e+003;2.897383e-002
3.967023e+003;2.964698e-002
3.968952e+003;2.955387e-002
3.970880e+003;2.920512e-002
3.972809e+003;2.891610e-002
3.974737e+003;2.877970e-002
3.976666e+003;2.914927e-002
3.978594e+003;2.915285e-002
3.980523e+003;2.939174e-002
3.982452e+003;2.955553e-002
3.984380e+003;2.899923e-002
3.986309e+003;2.864402e-002
3.988237e+003;2.903922e-002
3.990166e+003;2.893285e-002
3.992094e+003;2.847661e-002
3.994023e+003;2.858170e-002
3.995951e+003;2.870487e-002
3.997880e+003;2.818179e-002
3.999809e+003;2.848117e-002
4.001737e+003;0.000000e+000
