3.992094e+002;0.000000e+000
4.011380e+002;0.000000e+000
4.030665e+002;0.000000e+000
4.049951e+002;0.000000e+000
4.069236e+002;0.000000e+000
4.088522e+002;0.000000e+000
4.107807e+002;0.000000e+000
4.127093e+002;0.000000e+000
4.146378e+002;0.000000e+000
4.165664e+002;0.000000e+000
4.184949e+002;0.000000e+000
4.204235e+002;0.000000e+000
4.223520e+002;0.000000e+000
4.242806e+002;0.000000e+000
4.262091e+002;0.000000e+000
4.281377e+002;0.000000e+000
4.300662e+002;0.000000e+000
4.319948e+002;0.000000e+000
4.339233e+002;0.000000e+000
4.358519e+002;0.000000e+000
4.377804e+002;0.000000e+000
4.397090e+002;0.000000e+000
4.416375e+002;0.000000e+000
4.435660e+002;0.000000e+000
4.454946e+002;0.000000e+000
4.474232e+002;0.000000e+000
4.493517e+002;0.000000e+000
4.512802e+002;0.000000e+000
4.532088e+002;0.000000e+000
4.551373e+002;0.000000e+000
4.570659e+002;0.000000e+000
4.589944e+002;0.000000e+000
4.609230e+002;0.000000e+000
4.628515e+002;0.000000e+000
4.647801e+002;0.000000e+000
4.667086e+002;0.000000e+000
4.686372e+002;0.000000e+000
4.705657e+002;0.000000e+000
4.724943e+002;0.000000e+000
4.744228e+002;0.000000e+000
4.763513e+002;0.000000e+000
4.782799e+002;0.000000e+000
4.802085e+002;0.000000e+000
4.821370e+002;0.000000e+000
4.840656e+002;0.000000e+000
4.859941e+002;0.000000e+000
4.879226e+002;0.000000e+000
4.898512e+002;0.000000e+000
4.917798e+002;0.000000e+000
4.937083e+002;0.000000e+000
4.956368e+002;0.000000e+000
4.975654e+002;0.000000e+000
4.994939e+002;0.000000e+000
5.014225e+002;0.000000e+000
5.033510e+002;0.000000e+000
5.052796e+002;0.000000e+000
5.072081e+002;0.000000e+000
5.091367e+002;0.000000e+000
5.110652e+002;0.000000e+000
5.129938e+002;0.000000e+000
5.149223e+002;0.000000e+000
5.168509e+002;0.000000e+000
5.187794e+002;0.000000e+000
5.207079e+002;0.000000e+000
5.226365e+002;0.000000e+000
5.245651e+002;0.000000e+000
5.264936e+002;0.000000e+000
5.284222e+002;0.000000e+000
5.303507e+002;0.000000e+000
5.322792e+002;0.000000e+000
5.342078e+002;0.000000e+000
5.361364e+002;0.000000e+000
5.380649e+002;0.000000e+000
5.399935e+002;0.000000e+000
5.419220e+002;0.000000e+000
5.438505e+002;0.000000e+000
5.457791e+002;0.000000e+000
5.477076e+002;0.000000e+000
5.496362e+002;0.000000e+000
5.515648e+002;0.000000e+000
5.534933e+002;0.000000e+000
5.554218e+002;0.000000e+000
5.573504e+002;0.000000e+000
5.592789e+002;0.000000e+000
5.612075e+002;0.000000e+000
5.631360e+002;0.000000e+000
5.650646e+002;0.000000e+000
5.669931e+002;0.000000e+000
5.689217e+002;0.000000e+000
5.708502e+002;0.000000e+000
5.727787e+002;0.000000e+000
5.747073e+002;0.000000e+000
5.766359e+002;0.000000e+000
5.785644e+002;0.000000e+000
5.804930e+002;0.000000e+000
5.824215e+002;0.000000e+000
5.843500e+002;0.000000e+000
5.862786e+002;0.000000e+000
5.882072e+002;0.000000e+000
5.901357e+002;0.000000e+000
5.920643e+002;0.000000e+000
5.939928e+002;0.000000e+000
5.959213e+002;0.000000e+000
5.978499e+002;0.000000e+000
5.997784e+002;2.792391e-002
6.017070e+002;3.035898e-002
6.036355e+002;3.307697e-002
6.055641e+002;3.541812e-002
6.074926e+002;3.693878e-002
6.094211e+002;3.072448e-002
6.113497e+002;3.117277e-002
6.132783e+002;3.024998e-002
6.152068e+002;2.517404e-002
6.171354e+002;2.623894e-002
6.190639e+002;2.872257e-002
6.209924e+002;2.801445e-002
6.229210e+002;2.713536e-002
6.248495e+002;2.898067e-002
6.267781e+002;3.406866e-002
6.287067e+002;3.375007e-002
6.306352e+002;3.079657e-002
6.325637e+002;3.409614e-002
6.344923e+002;3.665852e-002
6.364208e+002;3.212319e-002
6.383494e+002;2.831502e-002
6.402780e+002;3.227984e-002
6.422065e+002;3.789142e-002
6.441350e+002;3.967454e-002
6.460636e+002;3.727210e-002
6.479921e+002;3.181475e-002
6.499207e+002;2.960094e-002
6.518492e+002;3.185836e-002
6.537778e+002;3.349026e-002
6.557063e+002;3.193713e-002
6.576349e+002;3.093478e-002
6.595634e+002;3.346041e-002
6.614919e+002;3.507472e-002
6.634205e+002;3.302559e-002
6.653491e+002;3.097236e-002
6.672776e+002;3.204966e-002
6.692062e+002;3.324892e-002
6.711347e+002;3.398566e-002
6.730632e+002;3.471630e-002
6.749918e+002;3.282557e-002
6.769203e+002;3.288661e-002
6.788489e+002;3.589269e-002
6.807775e+002;3.892280e-002
6.827060e+002;4.001673e-002
6.846345e+002;4.006803e-002
6.865631e+002;4.193815e-002
6.884916e+002;4.536492e-002
6.904202e+002;4.738318e-002
6.923488e+002;4.864235e-002
6.942773e+002;5.059119e-002
6.962058e+002;5.391851e-002
6.981344e+002;5.766921e-002
7.000629e+002;6.162553e-002
7.019915e+002;6.650355e-002
7.039200e+002;7.403204e-002
7.058486e+002;8.521076e-002
7.077771e+002;9.831788e-002
7.097057e+002;1.164229e-001
7.116342e+002;1.450387e-001
7.135627e+002;1.797067e-001
7.154913e+002;2.018794e-001
7.174199e+002;1.970096e-001
7.193484e+002;1.697284e-001
7.212770e+002;1.365455e-001
7.232055e+002;1.113838e-001
7.251340e+002;9.548613e-002
7.270626e+002;8.662289e-002
7.289911e+002;8.663446e-002
7.309197e+002;9.231244e-002
7.328483e+002;8.948945e-002
7.347768e+002;7.306052e-002
7.367053e+002;5.644207e-002
7.386339e+002;4.703713e-002
7.405624e+002;4.277399e-002
7.424910e+002;4.128752e-002
7.444196e+002;4.016157e-002
7.463481e+002;3.891124e-002
7.482766e+002;3.724112e-002
7.502052e+002;3.620180e-002
7.521337e+002;3.466412e-002
7.540623e+002;3.308162e-002
7.559908e+002;3.261136e-002
7.579194e+002;3.227895e-002
7.598479e+002;3.150319e-002
7.617765e+002;3.093051e-002
7.637050e+002;3.055684e-002
7.656335e+002;3.023118e-002
7.675621e+002;3.042621e-002
7.694907e+002;3.056594e-002
7.714192e+002;2.970506e-002
7.733478e+002;2.859355e-002
7.752763e+002;2.869400e-002
7.772048e+002;2.922673e-002
7.791334e+002;2.954309e-002
7.810620e+002;2.923698e-002
7.829905e+002;2.908684e-002
7.849191e+002;2.892400e-002
7.868476e+002;2.793564e-002
7.887761e+002;2.813809e-002
7.907047e+002;2.861974e-002
7.926332e+002;2.874381e-002
7.945618e+002;2.832549e-002
7.964903e+002;2.784367e-002
7.984189e+002;2.756453e-002
8.003474e+002;2.748069e-002
8.022759e+002;2.812066e-002
8.042045e+002;2.843065e-002
8.061331e+002;2.825855e-002
8.080616e+002;2.808899e-002
8.099902e+002;2.797334e-002
8.119187e+002;2.842266e-002
8.138472e+002;2.886797e-002
8.157758e+002;2.890679e-002
8.177043e+002;2.906402e-002
8.196329e+002;2.939972e-002
8.215615e+002;2.962215e-002
8.234900e+002;2.997709e-002
8.254185e+002;3.028877e-002
8.273471e+002;3.057301e-002
8.292756e+002;3.076641e-002
8.312042e+002;3.131929e-002
8.331328e+002;3.209721e-002
8.350613e+002;3.248022e-002
8.369898e+002;3.246658e-002
8.389184e+002;3.292761e-002
8.408469e+002;3.317449e-002
8.427755e+002;3.237682e-002
8.447040e+002;3.273321e-002
8.466326e+002;3.295960e-002
8.485611e+002;3.184050e-002
8.504897e+002;3.073046e-002
8.524182e+002;3.068938e-002
8.543467e+002;3.098826e-002
8.562753e+002;3.077033e-002
8.582039e+002;3.052783e-002
8.601324e+002;3.032668e-002
8.620610e+002;2.998888e-002
8.639895e+002;3.005474e-002
8.659180e+002;3.062396e-002
8.678466e+002;3.072342e-002
8.697751e+002;3.120620e-002
8.717037e+002;3.180606e-002
8.736323e+002;3.129707e-002
8.755608e+002;3.051987e-002
8.774893e+002;3.074987e-002
8.794179e+002;3.060223e-002
8.813464e+002;2.999974e-002
8.832750e+002;3.054674e-002
8.852036e+002;3.115921e-002
8.871321e+002;3.136993e-002
8.890606e+002;3.133799e-002
8.909892e+002;3.118156e-002
8.929177e+002;3.118922e-002
8.948463e+002;3.126919e-002
8.967748e+002;3.121980e-002
8.987034e+002;3.144836e-002
9.006319e+002;3.178973e-002
9.025605e+002;3.169402e-002
9.044890e+002;3.181311e-002
9.064175e+002;3.256200e-002
9.083461e+002;3.269983e-002
9.102747e+002;3.255385e-002
9.122032e+002;3.241074e-002
9.141318e+002;3.165175e-002
9.160603e+002;3.144067e-002
9.179888e+002;3.198835e-002
9.199174e+002;3.186018e-002
9.218459e+002;3.104043e-002
9.237745e+002;3.102894e-002
9.257031e+002;3.141015e-002
9.276316e+002;3.179536e-002
9.295601e+002;3.185772e-002
9.314887e+002;3.205897e-002
9.334172e+002;3.216803e-002
9.353458e+002;3.209632e-002
9.372744e+002;3.183016e-002
9.392029e+002;3.192533e-002
9.411314e+002;3.201349e-002
9.430600e+002;3.223113e-002
9.449885e+002;3.230836e-002
9.469171e+002;3.191670e-002
9.488456e+002;3.175507e-002
9.507742e+002;3.177133e-002
9.527027e+002;3.159102e-002
9.546313e+002;3.137652e-002
9.565598e+002;3.143857e-002
9.584883e+002;3.165991e-002
9.604169e+002;3.146457e-002
9.623455e+002;3.133621e-002
9.642740e+002;3.150700e-002
9.662026e+002;3.165285e-002
9.681311e+002;3.153935e-002
9.700596e+002;3.146960e-002
9.719882e+002;3.149222e-002
9.739167e+002;3.168468e-002
9.758453e+002;3.171180e-002
9.777739e+002;3.194715e-002
9.797024e+002;3.179532e-002
9.816309e+002;3.158111e-002
9.835595e+002;3.150294e-002
9.854880e+002;3.138443e-002
9.874166e+002;3.090924e-002
9.893452e+002;3.033197e-002
9.912737e+002;3.056448e-002
9.932022e+002;3.100559e-002
9.951307e+002;3.099079e-002
9.970593e+002;3.091439e-002
9.989879e+002;3.095239e-002
1.000916e+003;3.119897e-002
1.002845e+003;3.136377e-002
1.004773e+003;3.126128e-002
1.006702e+003;3.094464e-002
1.008631e+003;3.073903e-002
1.010559e+003;3.075741e-002
1.012488e+003;3.123173e-002
1.014416e+003;3.116255e-002
1.016345e+003;3.038243e-002
1.018273e+003;2.988710e-002
1.020202e+003;3.053522e-002
1.022130e+003;3.134824e-002
1.024059e+003;3.169844e-002
1.025988e+003;3.211352e-002
1.027916e+003;3.260332e-002
1.029845e+003;3.290123e-002
1.031773e+003;3.304122e-002
1.033702e+003;3.289966e-002
1.035630e+003;3.283354e-002
1.037559e+003;3.262985e-002
1.039487e+003;3.238550e-002
1.041416e+003;3.253753e-002
1.043344e+003;3.291074e-002
1.045273e+003;3.363015e-002
1.047202e+003;3.370151e-002
1.049130e+003;3.317885e-002
1.051059e+003;3.300343e-002
1.052987e+003;3.340119e-002
1.054916e+003;3.396144e-002
1.056844e+003;3.432092e-002
1.058773e+003;3.480076e-002
1.060701e+003;3.491673e-002
1.062630e+003;3.496715e-002
1.064558e+003;3.477998e-002
1.066487e+003;3.483605e-002
1.068416e+003;3.535241e-002
1.070344e+003;3.533932e-002
1.072273e+003;3.524681e-002
1.074201e+003;3.593501e-002
1.076130e+003;3.677545e-002
1.078058e+003;3.692785e-002
1.079987e+003;3.607634e-002
1.081915e+003;3.492513e-002
1.083844e+003;3.448605e-002
1.085773e+003;3.426437e-002
1.087701e+003;3.387095e-002
1.089630e+003;3.361390e-002
1.091558e+003;3.292196e-002
1.093487e+003;3.207492e-002
1.095415e+003;3.185429e-002
1.097344e+003;3.170924e-002
1.099272e+003;3.122009e-002
1.101201e+003;3.134632e-002
1.103129e+003;3.165948e-002
1.105058e+003;3.158838e-002
1.106987e+003;3.114105e-002
1.108915e+003;3.087686e-002
1.110844e+003;3.093350e-002
1.112772e+003;3.114565e-002
1.114701e+003;3.128008e-002
1.116629e+003;3.086761e-002
1.118558e+003;3.078875e-002
1.120486e+003;3.120528e-002
1.122415e+003;3.113871e-002
1.124344e+003;3.080095e-002
1.126272e+003;3.106011e-002
1.128201e+003;3.155307e-002
1.130129e+003;3.123077e-002
1.132058e+003;3.072846e-002
1.133986e+003;3.080170e-002
1.135915e+003;3.075457e-002
1.137843e+003;3.066467e-002
1.139772e+003;3.071211e-002
1.141700e+003;3.097609e-002
1.143629e+003;3.151912e-002
1.145557e+003;3.182335e-002
1.147486e+003;3.233156e-002
1.149415e+003;3.232278e-002
1.151343e+003;3.203568e-002
1.153272e+003;3.184909e-002
1.155200e+003;3.118612e-002
1.157129e+003;3.099317e-002
1.159057e+003;3.090600e-002
1.160986e+003;3.080550e-002
1.162914e+003;3.077822e-002
1.164843e+003;3.052850e-002
1.166771e+003;3.075493e-002
1.168700e+003;3.093368e-002
1.170629e+003;3.077527e-002
1.172557e+003;3.050458e-002
1.174486e+003;3.077616e-002
1.176414e+003;3.071900e-002
1.178343e+003;2.999254e-002
1.180271e+003;2.963967e-002
1.182200e+003;2.973681e-002
1.184128e+003;2.950964e-002
1.186057e+003;2.876303e-002
1.187986e+003;2.824221e-002
1.189914e+003;2.805495e-002
1.191843e+003;2.805682e-002
1.193771e+003;2.785985e-002
1.195700e+003;2.761269e-002
1.197628e+003;2.760033e-002
1.199557e+003;2.762127e-002
1.201485e+003;2.742658e-002
1.203414e+003;2.718728e-002
1.205343e+003;2.717998e-002
1.207271e+003;2.702124e-002
1.209200e+003;2.722760e-002
1.211128e+003;2.733726e-002
1.213057e+003;2.703806e-002
1.214985e+003;2.688822e-002
1.216914e+003;2.684705e-002
1.218842e+003;2.682992e-002
1.220771e+003;2.689731e-002
1.222699e+003;2.705710e-002
1.224628e+003;2.696892e-002
1.226557e+003;2.671976e-002
1.228485e+003;2.724732e-002
1.230414e+003;2.777150e-002
1.232342e+003;2.793013e-002
1.234271e+003;2.814382e-002
1.236199e+003;2.823040e-002
1.238128e+003;2.820816e-002
1.240056e+003;2.794200e-002
1.241985e+003;2.760090e-002
1.243913e+003;2.760930e-002
1.245842e+003;2.808977e-002
1.247771e+003;2.913690e-002
1.249699e+003;2.977595e-002
1.251628e+003;2.999094e-002
1.253556e+003;3.077986e-002
1.255485e+003;3.131541e-002
1.257413e+003;3.156957e-002
1.259342e+003;3.111710e-002
1.261270e+003;3.043474e-002
1.263199e+003;3.003706e-002
1.265127e+003;3.050330e-002
1.267056e+003;3.157670e-002
1.268985e+003;3.221057e-002
1.270913e+003;3.219498e-002
1.272842e+003;3.225382e-002
1.274770e+003;3.264096e-002
1.276699e+003;3.282328e-002
1.278627e+003;3.279177e-002
1.280556e+003;3.286917e-002
1.282484e+003;3.284683e-002
1.284413e+003;3.313966e-002
1.286342e+003;3.341196e-002
1.288270e+003;3.343787e-002
1.290199e+003;3.392329e-002
1.292127e+003;3.463476e-002
1.294056e+003;3.486556e-002
1.295984e+003;3.487206e-002
1.297913e+003;3.535704e-002
1.299841e+003;3.578125e-002
1.301770e+003;3.580503e-002
1.303698e+003;3.570081e-002
1.305627e+003;3.559142e-002
1.307556e+003;3.526809e-002
1.309484e+003;3.465256e-002
1.311413e+003;3.400147e-002
1.313341e+003;3.327164e-002
1.315270e+003;3.234598e-002
1.317198e+003;3.145513e-002
1.319127e+003;3.055804e-002
1.321055e+003;2.991362e-002
1.322984e+003;2.972773e-002
1.324912e+003;2.957824e-002
1.326841e+003;2.907841e-002
1.328770e+003;2.863485e-002
1.330698e+003;2.857713e-002
1.332627e+003;2.868600e-002
1.334555e+003;2.891890e-002
1.336484e+003;2.910810e-002
1.338412e+003;2.938522e-002
1.340341e+003;3.040101e-002
1.342269e+003;3.191010e-002
1.344198e+003;3.310007e-002
1.346126e+003;3.391164e-002
1.348055e+003;3.451306e-002
1.349984e+003;3.497893e-002
1.351912e+003;3.544637e-002
1.353841e+003;3.549225e-002
1.355769e+003;3.517326e-002
1.357698e+003;3.499275e-002
1.359626e+003;3.496704e-002
1.361555e+003;3.526719e-002
1.363483e+003;3.642205e-002
1.365412e+003;3.835991e-002
1.367341e+003;3.935838e-002
1.369269e+003;3.939201e-002
1.371198e+003;3.833740e-002
1.373126e+003;3.610508e-002
1.375055e+003;3.452321e-002
1.376983e+003;3.411152e-002
1.378912e+003;3.310651e-002
1.380840e+003;3.194227e-002
1.382769e+003;3.118424e-002
1.384698e+003;3.040148e-002
1.386626e+003;2.923311e-002
1.388555e+003;2.920427e-002
1.390483e+003;2.977237e-002
1.392412e+003;2.915593e-002
1.394340e+003;2.801098e-002
1.396269e+003;2.829876e-002
1.398197e+003;2.884807e-002
1.400126e+003;2.972971e-002
1.402054e+003;3.049506e-002
1.403983e+003;3.044629e-002
1.405911e+003;3.084445e-002
1.407840e+003;3.166005e-002
1.409769e+003;3.217203e-002
1.411697e+003;3.267419e-002
1.413626e+003;3.313933e-002
1.415554e+003;3.310032e-002
1.417483e+003;3.199926e-002
1.419411e+003;3.196812e-002
1.421340e+003;3.523380e-002
1.423268e+003;3.798243e-002
1.425197e+003;4.035620e-002
1.427125e+003;4.328263e-002
1.429054e+003;4.589395e-002
1.430983e+003;4.915502e-002
1.432911e+003;5.202638e-002
1.434840e+003;5.252497e-002
1.436768e+003;5.353232e-002
1.438697e+003;5.775867e-002
1.440625e+003;6.047237e-002
1.442554e+003;6.192459e-002
1.444482e+003;6.330236e-002
1.446411e+003;6.460804e-002
1.448340e+003;6.673728e-002
1.450268e+003;7.087985e-002
1.452197e+003;7.598563e-002
1.454125e+003;8.054394e-002
1.456054e+003;8.385497e-002
1.457982e+003;9.543953e-002
1.459911e+003;1.174927e-001
1.461839e+003;1.347694e-001
1.463768e+003;1.384367e-001
1.465697e+003;1.453025e-001
1.467625e+003;1.641947e-001
1.469554e+003;1.920058e-001
1.471482e+003;2.094591e-001
1.473411e+003;1.833565e-001
1.475339e+003;1.303524e-001
1.477268e+003;8.997204e-002
1.479196e+003;7.000913e-002
1.481125e+003;5.995154e-002
1.483053e+003;5.415138e-002
1.484982e+003;4.983628e-002
1.486911e+003;4.601402e-002
1.488839e+003;4.301161e-002
1.490768e+003;4.171965e-002
1.492696e+003;4.161530e-002
1.494625e+003;3.920572e-002
1.496553e+003;3.643462e-002
1.498482e+003;3.652760e-002
1.500410e+003;3.710523e-002
1.502339e+003;3.670612e-002
1.504267e+003;3.236590e-002
1.506196e+003;2.729403e-002
1.508125e+003;2.898325e-002
1.510053e+003;3.220889e-002
1.511982e+003;3.275739e-002
1.513910e+003;3.238182e-002
1.515839e+003;3.110300e-002
1.517767e+003;3.052520e-002
1.519696e+003;2.849759e-002
1.521624e+003;2.690387e-002
1.523553e+003;2.915440e-002
1.525481e+003;3.009103e-002
1.527410e+003;3.086437e-002
1.529339e+003;3.198360e-002
1.531267e+003;3.151623e-002
1.533196e+003;3.015528e-002
1.535124e+003;3.105239e-002
1.537053e+003;2.928036e-002
1.538981e+003;2.381850e-002
1.540910e+003;2.332641e-002
1.542838e+003;2.629741e-002
1.544767e+003;2.833872e-002
1.546695e+003;3.017751e-002
1.548624e+003;3.064686e-002
1.550553e+003;3.039611e-002
1.552481e+003;2.931191e-002
1.554410e+003;2.739633e-002
1.556338e+003;2.438222e-002
1.558267e+003;1.883180e-002
1.560195e+003;2.072258e-002
1.562124e+003;2.713998e-002
1.564052e+003;2.899399e-002
1.565981e+003;2.870441e-002
1.567910e+003;2.752354e-002
1.569838e+003;2.678664e-002
1.571767e+003;2.819745e-002
1.573695e+003;2.731101e-002
1.575624e+003;2.434504e-002
1.577552e+003;2.625418e-002
1.579481e+003;2.937554e-002
1.581409e+003;2.988931e-002
1.583338e+003;2.994805e-002
1.585266e+003;2.972382e-002
1.587195e+003;2.960225e-002
1.589124e+003;2.966287e-002
1.591052e+003;2.969320e-002
1.592981e+003;2.926278e-002
1.594909e+003;2.921210e-002
1.596838e+003;2.941826e-002
1.598766e+003;2.946230e-002
1.600695e+003;2.937838e-002
1.602623e+003;2.940979e-002
1.604552e+003;2.941589e-002
1.606480e+003;2.923740e-002
1.608409e+003;2.903898e-002
1.610338e+003;2.915689e-002
1.612266e+003;2.944078e-002
1.614195e+003;2.822351e-002
1.616123e+003;2.492475e-002
1.618052e+003;2.618333e-002
1.619980e+003;2.896845e-002
1.621909e+003;2.836076e-002
1.623837e+003;2.783028e-002
1.625766e+003;2.867004e-002
1.627694e+003;2.914884e-002
1.629623e+003;3.025868e-002
1.631552e+003;3.065781e-002
1.633480e+003;2.829678e-002
1.635409e+003;2.575541e-002
1.637337e+003;2.787981e-002
1.639266e+003;3.084808e-002
1.641194e+003;3.187369e-002
1.643123e+003;3.126701e-002
1.645051e+003;2.863839e-002
1.646980e+003;2.780241e-002
1.648909e+003;2.963588e-002
1.650837e+003;2.600926e-002
1.652766e+003;2.017555e-002
1.654694e+003;2.460262e-002
1.656623e+003;3.033563e-002
1.658551e+003;3.168760e-002
1.660480e+003;3.072978e-002
1.662408e+003;2.918531e-002
1.664337e+003;2.975984e-002
1.666266e+003;2.997248e-002
1.668194e+003;2.762808e-002
1.670123e+003;2.671539e-002
1.672051e+003;2.811196e-002
1.673980e+003;2.733172e-002
1.675908e+003;2.704748e-002
1.677837e+003;2.908227e-002
1.679765e+003;2.919080e-002
1.681694e+003;2.686926e-002
1.683622e+003;2.237577e-002
1.685551e+003;2.370861e-002
1.687479e+003;2.808065e-002
1.689408e+003;2.918828e-002
1.691337e+003;2.933438e-002
1.693265e+003;2.779033e-002
1.695194e+003;2.396575e-002
1.697122e+003;2.394295e-002
1.699051e+003;2.248132e-002
1.700979e+003;2.224682e-002
1.702908e+003;2.612488e-002
1.704836e+003;2.635518e-002
1.706765e+003;2.646352e-002
1.708693e+003;2.707939e-002
1.710622e+003;2.715010e-002
1.712551e+003;2.591556e-002
1.714479e+003;2.341039e-002
1.716408e+003;2.017156e-002
1.718336e+003;2.027983e-002
1.720265e+003;2.341099e-002
1.722193e+003;2.451487e-002
1.724122e+003;2.425327e-002
1.726050e+003;2.422640e-002
1.727979e+003;2.369787e-002
1.729908e+003;2.293172e-002
1.731836e+003;2.031264e-002
1.733765e+003;1.707900e-002
1.735693e+003;1.966531e-002
1.737622e+003;2.238603e-002
1.739550e+003;2.186548e-002
1.741479e+003;2.198523e-002
1.743407e+003;2.227116e-002
1.745336e+003;2.215755e-002
1.747265e+003;2.134852e-002
1.749193e+003;1.987889e-002
1.751122e+003;1.877641e-002
1.753050e+003;1.976007e-002
1.754979e+003;1.979686e-002
1.756907e+003;1.916429e-002
1.758836e+003;1.918413e-002
1.760764e+003;1.827195e-002
1.762693e+003;1.814708e-002
1.764621e+003;1.883139e-002
1.766550e+003;1.781555e-002
1.768479e+003;1.695529e-002
1.770407e+003;1.588560e-002
1.772336e+003;1.472053e-002
1.774264e+003;1.645160e-002
1.776193e+003;1.796242e-002
1.778121e+003;1.789433e-002
1.780050e+003;1.751866e-002
1.781978e+003;1.742501e-002
1.783907e+003;1.699447e-002
1.785835e+003;1.710119e-002
1.787764e+003;1.765926e-002
1.789693e+003;1.685091e-002
1.791621e+003;1.505331e-002
1.793550e+003;1.538219e-002
1.795478e+003;1.689862e-002
1.797407e+003;1.698968e-002
1.799335e+003;1.652057e-002
1.801264e+003;1.654962e-002
1.803192e+003;1.723711e-002
1.805121e+003;1.769111e-002
1.807049e+003;1.775079e-002
1.808978e+003;1.737007e-002
1.810907e+003;1.707924e-002
1.812835e+003;1.718457e-002
1.814764e+003;1.734544e-002
1.816692e+003;1.729120e-002
1.818621e+003;1.744853e-002
1.820549e+003;1.748782e-002
1.822478e+003;1.709361e-002
1.824406e+003;1.623905e-002
1.826335e+003;1.608969e-002
1.828264e+003;1.556142e-002
1.830192e+003;1.538253e-002
1.832121e+003;1.641729e-002
1.834049e+003;1.663982e-002
1.835978e+003;1.634029e-002
1.837906e+003;1.623644e-002
1.839835e+003;1.616569e-002
1.841763e+003;1.545607e-002
1.843692e+003;1.410546e-002
1.845620e+003;1.469873e-002
1.847549e+003;1.574670e-002
1.849478e+003;1.595163e-002
1.851406e+003;1.626182e-002
1.853335e+003;1.645659e-002
1.855263e+003;1.628982e-002
1.857192e+003;1.616462e-002
1.859120e+003;1.616861e-002
1.861049e+003;1.604345e-002
1.862977e+003;1.622625e-002
1.864906e+003;1.615627e-002
1.866834e+003;1.544968e-002
1.868763e+003;1.498820e-002
1.870692e+003;1.599367e-002
1.872620e+003;1.699629e-002
1.874549e+003;1.713473e-002
1.876477e+003;1.722270e-002
1.878406e+003;1.736100e-002
1.880334e+003;1.764677e-002
1.882263e+003;1.794571e-002
1.884191e+003;1.852233e-002
1.886120e+003;1.936321e-002
1.888048e+003;1.972123e-002
1.889977e+003;2.016219e-002
1.891906e+003;2.114476e-002
1.893834e+003;2.164727e-002
1.895763e+003;2.169934e-002
1.897691e+003;2.167872e-002
1.899620e+003;2.168356e-002
1.901548e+003;2.165946e-002
1.903477e+003;2.143550e-002
1.905405e+003;2.106712e-002
1.907334e+003;2.056340e-002
1.909262e+003;2.015789e-002
1.911191e+003;1.992901e-002
1.913120e+003;1.957223e-002
1.915048e+003;1.908835e-002
1.916977e+003;1.837733e-002
1.918905e+003;1.850162e-002
1.920834e+003;1.872936e-002
1.922762e+003;1.852430e-002
1.924691e+003;1.856825e-002
1.926619e+003;1.862593e-002
1.928548e+003;1.867363e-002
1.930477e+003;1.848837e-002
1.932405e+003;1.856752e-002
1.934334e+003;1.870324e-002
1.936262e+003;1.863188e-002
1.938191e+003;1.856514e-002
1.940119e+003;1.832054e-002
1.942048e+003;1.784033e-002
1.943976e+003;1.764332e-002
1.945905e+003;1.788287e-002
1.947833e+003;1.817769e-002
1.949762e+003;1.828118e-002
1.951691e+003;1.828097e-002
1.953619e+003;1.827233e-002
1.955548e+003;1.822268e-002
1.957476e+003;1.824994e-002
1.959405e+003;1.832866e-002
1.961333e+003;1.827182e-002
1.963262e+003;1.825917e-002
1.965190e+003;1.819949e-002
1.967119e+003;1.794802e-002
1.969047e+003;1.809605e-002
1.970976e+003;1.816076e-002
1.972905e+003;1.786609e-002
1.974833e+003;1.797313e-002
1.976762e+003;1.818736e-002
1.978690e+003;1.816190e-002
1.980619e+003;1.813233e-002
1.982547e+003;1.809609e-002
1.984476e+003;1.791888e-002
1.986404e+003;1.775710e-002
1.988333e+003;1.798919e-002
1.990261e+003;1.811909e-002
1.992190e+003;1.814321e-002
1.994119e+003;1.829874e-002
1.996047e+003;1.835687e-002
1.997976e+003;1.837909e-002
1.999904e+003;1.872496e-002
2.001833e+003;1.911238e-002
2.003761e+003;1.930102e-002
2.005690e+003;1.945735e-002
2.007618e+003;2.003705e-002
2.009547e+003;2.116692e-002
2.011476e+003;2.223423e-002
2.013404e+003;2.293343e-002
2.015333e+003;2.326652e-002
2.017261e+003;2.347495e-002
2.019190e+003;2.376824e-002
2.021118e+003;2.409980e-002
2.023047e+003;2.420327e-002
2.024975e+003;2.375823e-002
2.026904e+003;2.314915e-002
2.028833e+003;2.255526e-002
2.030761e+003;2.202925e-002
2.032690e+003;2.175549e-002
2.034618e+003;2.154311e-002
2.036547e+003;2.135854e-002
2.038475e+003;2.104695e-002
2.040404e+003;2.055593e-002
2.042332e+003;2.026491e-002
2.044261e+003;2.029393e-002
2.046189e+003;2.037275e-002
2.048118e+003;2.031219e-002
2.050047e+003;2.011242e-002
2.051975e+003;1.981684e-002
2.053904e+003;1.976659e-002
2.055832e+003;1.987989e-002
2.057761e+003;1.979922e-002
2.059689e+003;1.946920e-002
2.061618e+003;1.935053e-002
2.063546e+003;1.927241e-002
2.065475e+003;1.922368e-002
2.067404e+003;1.937578e-002
2.069332e+003;1.922309e-002
2.071260e+003;1.903389e-002
2.073189e+003;1.904425e-002
2.075118e+003;1.915078e-002
2.077046e+003;1.921693e-002
2.078975e+003;1.903573e-002
2.080903e+003;1.896525e-002
2.082832e+003;1.878046e-002
2.084760e+003;1.863053e-002
2.086689e+003;1.857904e-002
2.088617e+003;1.851970e-002
2.090546e+003;1.897325e-002
2.092475e+003;1.921104e-002
2.094403e+003;1.870279e-002
2.096332e+003;1.842701e-002
2.098260e+003;1.861995e-002
2.100189e+003;1.870020e-002
2.102117e+003;1.861445e-002
2.104046e+003;1.865564e-002
2.105974e+003;1.903871e-002
2.107903e+003;1.915916e-002
2.109832e+003;1.891247e-002
2.111760e+003;1.864250e-002
2.113688e+003;1.834159e-002
2.115617e+003;1.800325e-002
2.117546e+003;1.792492e-002
2.119474e+003;1.828018e-002
2.121403e+003;1.838193e-002
2.123331e+003;1.856842e-002
2.125260e+003;1.866692e-002
2.127188e+003;1.859149e-002
2.129117e+003;1.871590e-002
2.131045e+003;1.904840e-002
2.132974e+003;1.940087e-002
2.134903e+003;1.966916e-002
2.136831e+003;1.983678e-002
2.138760e+003;1.996214e-002
2.140688e+003;2.001970e-002
2.142617e+003;2.011190e-002
2.144545e+003;2.032337e-002
2.146474e+003;2.041546e-002
2.148402e+003;2.043398e-002
2.150331e+003;2.024456e-002
2.152260e+003;1.998681e-002
2.154188e+003;1.976108e-002
2.156117e+003;1.964690e-002
2.158045e+003;1.972033e-002
2.159974e+003;1.989613e-002
2.161902e+003;1.981580e-002
2.163831e+003;1.967287e-002
2.165759e+003;1.972033e-002
2.167688e+003;1.994834e-002
2.169616e+003;2.017358e-002
2.171545e+003;2.013824e-002
2.173474e+003;2.016417e-002
2.175402e+003;2.015660e-002
2.177331e+003;2.023161e-002
2.179259e+003;2.030685e-002
2.181188e+003;2.017392e-002
2.183116e+003;2.002820e-002
2.185045e+003;2.009799e-002
2.186973e+003;2.001578e-002
2.188902e+003;1.991257e-002
2.190831e+003;1.998497e-002
2.192759e+003;1.986744e-002
2.194688e+003;1.967502e-002
2.196616e+003;1.984837e-002
2.198545e+003;2.006158e-002
2.200473e+003;2.009722e-002
2.202402e+003;2.004010e-002
2.204330e+003;2.014196e-002
2.206259e+003;2.033716e-002
2.208188e+003;2.043137e-002
2.210116e+003;2.013515e-002
2.212044e+003;1.984538e-002
2.213973e+003;1.998754e-002
2.215902e+003;2.027463e-002
2.217830e+003;2.041366e-002
2.219759e+003;2.007911e-002
2.221687e+003;1.986952e-002
2.223616e+003;2.013675e-002
2.225544e+003;2.031330e-002
2.227473e+003;2.033455e-002
2.229401e+003;2.006703e-002
2.231330e+003;1.994095e-002
2.233259e+003;1.974502e-002
2.235187e+003;1.952031e-002
2.237116e+003;1.972176e-002
2.239044e+003;2.001810e-002
2.240973e+003;2.028890e-002
2.242901e+003;2.046544e-002
2.244830e+003;2.045148e-002
2.246758e+003;2.041043e-002
2.248687e+003;2.030598e-002
2.250615e+003;2.049056e-002
2.252544e+003;2.091220e-002
2.254473e+003;2.133393e-002
2.256401e+003;2.137612e-002
2.258330e+003;2.159778e-002
2.260258e+003;2.181747e-002
2.262187e+003;2.197080e-002
2.264115e+003;2.222583e-002
2.266044e+003;2.231895e-002
2.267972e+003;2.231229e-002
2.269901e+003;2.269311e-002
2.271830e+003;2.282244e-002
2.273758e+003;2.300250e-002
2.275687e+003;2.367684e-002
2.277615e+003;2.393791e-002
2.279544e+003;2.392580e-002
2.281472e+003;2.414649e-002
2.283401e+003;2.421984e-002
2.285329e+003;2.417977e-002
2.287258e+003;2.415700e-002
2.289187e+003;2.432500e-002
2.291115e+003;2.435615e-002
2.293043e+003;2.410869e-002
2.294972e+003;2.440918e-002
2.296901e+003;2.496679e-002
2.298829e+003;2.509511e-002
2.300758e+003;2.498897e-002
2.302686e+003;2.475617e-002
2.304615e+003;2.489099e-002
2.306543e+003;2.504751e-002
2.308472e+003;2.531486e-002
2.310400e+003;2.570838e-002
2.312329e+003;2.605999e-002
2.314258e+003;2.611949e-002
2.316186e+003;2.632701e-002
2.318115e+003;2.675313e-002
2.320043e+003;2.689217e-002
2.321972e+003;2.718298e-002
2.323900e+003;2.786028e-002
2.325829e+003;2.796497e-002
2.327757e+003;2.798628e-002
2.329686e+003;2.804396e-002
2.331615e+003;2.789850e-002
2.333543e+003;2.741638e-002
2.335472e+003;2.710062e-002
2.337400e+003;2.739990e-002
2.339329e+003;2.778097e-002
2.341257e+003;2.789250e-002
2.343186e+003;2.816170e-002
2.345114e+003;2.841059e-002
2.347043e+003;2.844006e-002
2.348971e+003;2.801006e-002
2.350900e+003;2.734597e-002
2.352829e+003;2.650571e-002
2.354757e+003;2.542453e-002
2.356686e+003;2.449036e-002
2.358614e+003;2.369339e-002
2.360543e+003;2.303349e-002
2.362471e+003;2.277362e-002
2.364400e+003;2.253942e-002
2.366328e+003;2.234371e-002
2.368257e+003;2.242165e-002
2.370186e+003;2.256183e-002
2.372114e+003;2.264724e-002
2.374042e+003;2.261285e-002
2.375971e+003;2.243229e-002
2.377900e+003;2.249137e-002
2.379828e+003;2.278057e-002
2.381757e+003;2.295369e-002
2.383685e+003;2.301997e-002
2.385614e+003;2.276192e-002
2.387542e+003;2.262025e-002
2.389471e+003;2.301563e-002
2.391399e+003;2.345484e-002
2.393328e+003;2.347565e-002
2.395257e+003;2.333962e-002
2.397185e+003;2.331525e-002
2.399114e+003;2.356789e-002
2.401042e+003;2.369853e-002
2.402971e+003;2.348191e-002
2.404899e+003;2.362761e-002
2.406828e+003;2.383408e-002
2.408756e+003;2.397495e-002
2.410685e+003;2.429423e-002
2.412614e+003;2.468584e-002
2.414542e+003;2.476490e-002
2.416471e+003;2.498476e-002
2.418399e+003;2.497030e-002
2.420328e+003;2.470962e-002
2.422256e+003;2.464348e-002
2.424185e+003;2.436193e-002
2.426113e+003;2.399957e-002
2.428042e+003;2.388473e-002
2.429970e+003;2.367397e-002
2.431899e+003;2.350535e-002
2.433828e+003;2.357768e-002
2.435756e+003;2.337952e-002
2.437685e+003;2.278885e-002
2.439613e+003;2.245103e-002
2.441542e+003;2.272931e-002
2.443470e+003;2.307940e-002
2.445399e+003;2.297968e-002
2.447327e+003;2.275546e-002
2.449256e+003;2.266560e-002
2.451185e+003;2.277540e-002
2.453113e+003;2.295226e-002
2.455042e+003;2.311840e-002
2.456970e+003;2.327103e-002
2.458899e+003;2.308904e-002
2.460827e+003;2.305560e-002
2.462756e+003;2.329830e-002
2.464684e+003;2.346929e-002
2.466613e+003;2.361169e-002
2.468542e+003;2.399348e-002
2.470470e+003;2.458769e-002
2.472398e+003;2.513566e-002
2.474327e+003;2.553123e-002
2.476256e+003;2.553963e-002
2.478184e+003;2.542449e-002
2.480113e+003;2.541384e-002
2.482041e+003;2.530457e-002
2.483970e+003;2.548900e-002
2.485898e+003;2.578017e-002
2.487827e+003;2.548734e-002
2.489755e+003;2.549353e-002
2.491684e+003;2.575985e-002
2.493613e+003;2.569758e-002
2.495541e+003;2.554634e-002
2.497470e+003;2.547944e-002
2.499398e+003;2.559980e-002
2.501327e+003;2.564078e-002
2.503255e+003;2.555889e-002
2.505184e+003;2.576705e-002
2.507112e+003;2.594876e-002
2.509041e+003;2.614184e-002
2.510969e+003;2.620642e-002
2.512898e+003;2.608174e-002
2.514827e+003;2.620888e-002
2.516755e+003;2.648141e-002
2.518684e+003;2.683693e-002
2.520612e+003;2.724672e-002
2.522541e+003;2.765612e-002
2.524469e+003;2.814318e-002
2.526398e+003;2.854412e-002
2.528326e+003;2.870295e-002
2.530255e+003;2.890112e-002
2.532184e+003;2.862130e-002
2.534112e+003;2.807322e-002
2.536041e+003;2.782919e-002
2.537969e+003;2.796430e-002
2.539898e+003;2.825363e-002
2.541826e+003;2.834799e-002
2.543755e+003;2.847633e-002
2.545683e+003;2.905219e-002
2.547612e+003;2.950652e-002
2.549541e+003;2.962577e-002
2.551469e+003;2.998934e-002
2.553397e+003;3.026546e-002
2.555326e+003;3.013383e-002
2.557255e+003;3.006312e-002
2.559183e+003;3.013535e-002
2.561112e+003;3.028411e-002
2.563040e+003;3.030206e-002
2.564969e+003;3.051251e-002
2.566897e+003;3.062033e-002
2.568826e+003;3.096101e-002
2.570754e+003;3.152446e-002
2.572683e+003;3.188232e-002
2.574612e+003;3.194102e-002
2.576540e+003;3.217442e-002
2.578469e+003;3.261553e-002
2.580397e+003;3.293243e-002
2.582326e+003;3.316190e-002
2.584254e+003;3.342301e-002
2.586183e+003;3.374881e-002
2.588111e+003;3.421214e-002
2.590040e+003;3.471142e-002
2.591969e+003;3.525041e-002
2.593897e+003;3.569645e-002
2.595826e+003;3.607688e-002
2.597754e+003;3.660766e-002
2.599683e+003;3.687922e-002
2.601611e+003;3.694642e-002
2.603540e+003;3.720113e-002
2.605468e+003;3.767375e-002
2.607397e+003;3.826372e-002
2.609325e+003;3.905862e-002
2.611254e+003;3.977076e-002
2.613183e+003;4.033541e-002
2.615111e+003;4.087188e-002
2.617040e+003;4.149943e-002
2.618968e+003;4.201880e-002
2.620897e+003;4.258511e-002
2.622825e+003;4.343146e-002
2.624754e+003;4.417990e-002
2.626682e+003;4.488407e-002
2.628611e+003;4.541568e-002
2.630540e+003;4.585705e-002
2.632468e+003;4.619677e-002
2.634396e+003;4.644601e-002
2.636325e+003;4.617087e-002
2.638254e+003;4.573257e-002
2.640182e+003;4.555450e-002
2.642111e+003;4.542260e-002
2.644039e+003;4.535399e-002
2.645968e+003;4.521962e-002
2.647896e+003;4.515487e-002
2.649825e+003;4.521215e-002
2.651753e+003;4.527246e-002
2.653682e+003;4.537842e-002
2.655611e+003;4.538519e-002
2.657539e+003;4.530817e-002
2.659468e+003;4.526113e-002
2.661396e+003;4.536720e-002
2.663325e+003;4.525378e-002
2.665253e+003;4.507385e-002
2.667182e+003;4.487140e-002
2.669110e+003;4.428204e-002
2.671039e+003;4.390161e-002
2.672968e+003;4.363819e-002
2.674896e+003;4.334227e-002
2.676825e+003;4.297949e-002
2.678753e+003;4.272152e-002
2.680682e+003;4.280792e-002
2.682610e+003;4.241746e-002
2.684539e+003;4.220602e-002
2.686467e+003;4.258050e-002
2.688396e+003;4.246613e-002
2.690324e+003;4.180595e-002
2.692253e+003;4.166920e-002
2.694182e+003;4.219236e-002
2.696110e+003;4.244559e-002
2.698039e+003;4.275509e-002
2.699967e+003;4.363504e-002
2.701896e+003;4.389164e-002
2.703824e+003;4.393930e-002
2.705753e+003;4.406719e-002
2.707681e+003;4.426710e-002
2.709610e+003;4.476310e-002
2.711539e+003;4.511340e-002
2.713467e+003;4.545107e-002
2.715396e+003;4.586033e-002
2.717324e+003;4.625858e-002
2.719253e+003;4.630020e-002
2.721181e+003;4.632781e-002
2.723110e+003;4.674597e-002
2.725038e+003;4.745546e-002
2.726967e+003;4.820447e-002
2.728896e+003;4.871741e-002
2.730824e+003;4.924471e-002
2.732752e+003;4.953540e-002
2.734681e+003;4.980959e-002
2.736610e+003;5.004377e-002
2.738538e+003;5.012164e-002
2.740467e+003;5.053364e-002
2.742395e+003;5.110658e-002
2.744324e+003;5.129216e-002
2.746252e+003;5.123030e-002
2.748181e+003;5.091001e-002
2.750109e+003;5.076221e-002
2.752038e+003;5.118419e-002
2.753967e+003;5.173891e-002
2.755895e+003;5.219389e-002
2.757824e+003;5.269544e-002
2.759752e+003;5.345561e-002
2.761681e+003;5.426539e-002
2.763609e+003;5.479234e-002
2.765538e+003;5.553197e-002
2.767466e+003;5.635560e-002
2.769395e+003;5.698365e-002
2.771323e+003;5.774058e-002
2.773252e+003;5.871316e-002
2.775181e+003;5.971667e-002
2.777109e+003;6.067998e-002
2.779038e+003;6.156379e-002
2.780966e+003;6.240024e-002
2.782895e+003;6.330922e-002
2.784823e+003;6.430218e-002
2.786752e+003;6.525246e-002
2.788680e+003;6.606631e-002
2.790609e+003;6.710345e-002
2.792538e+003;6.838439e-002
2.794466e+003;6.943063e-002
2.796395e+003;7.031620e-002
2.798323e+003;7.131115e-002
2.800252e+003;7.238059e-002
2.802180e+003;7.337011e-002
2.804109e+003;7.452980e-002
2.806037e+003;7.617347e-002
2.807966e+003;7.762346e-002
2.809895e+003;7.878809e-002
2.811823e+003;8.043459e-002
2.813751e+003;8.213174e-002
2.815680e+003;8.371352e-002
2.817609e+003;8.545434e-002
2.819537e+003;8.743989e-002
2.821466e+003;9.001366e-002
2.823394e+003;9.294406e-002
2.825323e+003;9.602223e-002
2.827251e+003;9.975434e-002
2.829180e+003;1.042037e-001
2.831108e+003;1.092681e-001
2.833037e+003;1.155356e-001
2.834966e+003;1.237458e-001
2.836894e+003;1.345085e-001
2.838823e+003;1.488128e-001
2.840751e+003;1.679193e-001
2.842680e+003;1.943656e-001
2.844608e+003;2.293781e-001
2.846537e+003;2.690219e-001
2.848465e+003;2.970933e-001
2.850394e+003;2.902781e-001
2.852323e+003;2.507984e-001
2.854251e+003;2.046421e-001
2.856180e+003;1.677747e-001
2.858108e+003;1.424354e-001
2.860037e+003;1.258297e-001
2.861965e+003;1.152233e-001
2.863894e+003;1.090005e-001
2.865822e+003;1.057724e-001
2.867751e+003;1.048564e-001
2.869679e+003;1.056456e-001
2.871608e+003;1.077590e-001
2.873536e+003;1.115400e-001
2.875465e+003;1.162709e-001
2.877394e+003;1.220771e-001
2.879322e+003;1.287541e-001
2.881251e+003;1.350236e-001
2.883179e+003;1.409408e-001
2.885108e+003;1.468601e-001
2.887036e+003;1.528622e-001
2.888965e+003;1.592654e-001
2.890893e+003;1.656495e-001
2.892822e+003;1.721726e-001
2.894750e+003;1.790859e-001
2.896679e+003;1.859860e-001
2.898608e+003;1.936914e-001
2.900536e+003;2.021162e-001
2.902465e+003;2.117945e-001
2.904393e+003;2.236149e-001
2.906322e+003;2.377670e-001
2.908250e+003;2.558882e-001
2.910179e+003;2.780824e-001
2.912107e+003;3.021156e-001
2.914036e+003;3.225509e-001
2.915965e+003;3.312902e-001
2.917893e+003;3.225857e-001
2.919822e+003;2.990225e-001
2.921750e+003;2.684779e-001
2.923679e+003;2.369688e-001
2.925607e+003;2.079904e-001
2.927536e+003;1.829994e-001
2.929464e+003;1.614044e-001
2.931393e+003;1.437544e-001
2.933322e+003;1.291678e-001
2.935250e+003;1.161265e-001
2.937178e+003;1.050896e-001
2.939107e+003;9.611023e-002
2.941036e+003;8.861982e-002
2.942964e+003;8.262446e-002
2.944893e+003;7.774130e-002
2.946821e+003;7.376230e-002
2.948750e+003;7.014735e-002
2.950678e+003;6.684470e-002
2.952607e+003;6.420951e-002
2.954535e+003;6.216707e-002
2.956464e+003;6.084884e-002
2.958393e+003;5.955581e-002
2.960321e+003;5.817909e-002
2.962250e+003;5.726058e-002
2.964178e+003;5.631614e-002
2.966107e+003;5.572861e-002
2.968035e+003;5.513619e-002
2.969964e+003;5.460105e-002
2.971892e+003;5.387901e-002
2.973821e+003;5.323322e-002
2.975750e+003;5.249292e-002
2.977678e+003;5.126729e-002
2.979607e+003;5.076236e-002
2.981535e+003;5.065307e-002
2.983464e+003;4.975360e-002
2.985392e+003;4.912018e-002
2.987321e+003;4.870788e-002
2.989249e+003;4.781216e-002
2.991178e+003;4.672870e-002
2.993106e+003;4.619832e-002
2.995035e+003;4.600364e-002
2.996964e+003;4.560035e-002
2.998892e+003;4.531630e-002
3.000821e+003;4.476747e-002
3.002749e+003;4.403048e-002
3.004678e+003;4.379509e-002
3.006606e+003;4.352679e-002
3.008535e+003;4.305339e-002
3.010463e+003;4.300528e-002
3.012392e+003;4.259549e-002
3.014321e+003;4.192359e-002
3.016249e+003;4.145382e-002
3.018177e+003;4.107568e-002
3.020106e+003;4.071214e-002
3.022035e+003;4.081892e-002
3.023963e+003;4.113567e-002
3.025892e+003;4.065505e-002
3.027820e+003;4.019988e-002
3.029749e+003;4.015867e-002
3.031677e+003;3.981292e-002
3.033606e+003;3.928185e-002
3.035534e+003;3.920670e-002
3.037463e+003;3.909824e-002
3.039392e+003;3.877833e-002
3.041320e+003;3.885602e-002
3.043249e+003;3.905325e-002
3.045177e+003;3.860172e-002
3.047106e+003;3.784507e-002
3.049034e+003;3.759830e-002
3.050963e+003;3.768647e-002
3.052891e+003;3.733203e-002
3.054820e+003;3.676857e-002
3.056749e+003;3.638270e-002
3.058677e+003;3.617213e-002
3.060606e+003;3.612945e-002
3.062534e+003;3.572883e-002
3.064463e+003;3.540719e-002
3.066391e+003;3.547147e-002
3.068320e+003;3.539471e-002
3.070248e+003;3.501175e-002
3.072177e+003;3.436679e-002
3.074105e+003;3.413088e-002
3.076034e+003;3.446352e-002
3.077963e+003;3.447844e-002
3.079891e+003;3.370291e-002
3.081820e+003;3.311119e-002
3.083748e+003;3.316508e-002
3.085677e+003;3.353106e-002
3.087605e+003;3.352580e-002
3.089534e+003;3.279087e-002
3.091462e+003;3.206675e-002
3.093391e+003;3.173925e-002
3.095320e+003;3.120218e-002
3.097248e+003;3.072669e-002
3.099177e+003;3.039220e-002
3.101105e+003;3.023331e-002
3.103034e+003;3.009519e-002
3.104962e+003;2.926111e-002
3.106891e+003;2.856953e-002
3.108819e+003;2.848138e-002
3.110748e+003;2.829098e-002
3.112677e+003;2.758748e-002
3.114605e+003;2.684338e-002
3.116533e+003;2.625594e-002
3.118462e+003;2.546240e-002
3.120391e+003;2.504186e-002
3.122319e+003;2.490962e-002
3.124248e+003;2.485362e-002
3.126176e+003;2.474936e-002
3.128105e+003;2.433232e-002
3.130033e+003;2.376877e-002
3.131962e+003;2.328225e-002
3.133890e+003;2.317459e-002
3.135819e+003;2.320367e-002
3.137748e+003;2.335448e-002
3.139676e+003;2.341162e-002
3.141605e+003;2.314443e-002
3.143533e+003;2.263059e-002
3.145462e+003;2.265680e-002
3.147390e+003;2.330529e-002
3.149319e+003;2.333074e-002
3.151247e+003;2.285701e-002
3.153176e+003;2.260681e-002
3.155104e+003;2.242685e-002
3.157033e+003;2.210329e-002
3.158962e+003;2.197407e-002
3.160890e+003;2.171090e-002
3.162819e+003;2.160823e-002
3.164747e+003;2.171198e-002
3.166676e+003;2.151494e-002
3.168604e+003;2.151843e-002
3.170533e+003;2.158357e-002
3.172461e+003;2.164037e-002
3.174390e+003;2.172261e-002
3.176319e+003;2.192343e-002
3.178247e+003;2.183531e-002
3.180176e+003;2.150342e-002
3.182104e+003;2.142259e-002
3.184033e+003;2.169122e-002
3.185961e+003;2.160910e-002
3.187890e+003;2.131392e-002
3.189818e+003;2.158396e-002
3.191747e+003;2.193971e-002
3.193676e+003;2.150683e-002
3.195604e+003;2.112997e-002
3.197532e+003;2.137285e-002
3.199461e+003;2.186740e-002
3.201390e+003;2.188667e-002
3.203318e+003;2.153991e-002
3.205247e+003;2.125414e-002
3.207175e+003;2.136613e-002
3.209104e+003;2.139561e-002
3.211032e+003;2.117652e-002
3.212961e+003;2.106534e-002
3.214889e+003;2.124690e-002
3.216818e+003;2.116778e-002
3.218747e+003;2.096981e-002
3.220675e+003;2.155265e-002
3.222604e+003;2.161589e-002
3.224532e+003;2.151623e-002
3.226461e+003;2.167423e-002
3.228389e+003;2.144789e-002
3.230318e+003;2.159548e-002
3.232246e+003;2.165932e-002
3.234175e+003;2.158831e-002
3.236104e+003;2.135851e-002
3.238032e+003;2.086078e-002
3.239961e+003;2.063229e-002
3.241889e+003;2.123577e-002
3.243818e+003;2.163504e-002
3.245746e+003;2.169105e-002
3.247675e+003;2.159869e-002
3.249603e+003;2.133331e-002
3.251532e+003;2.125630e-002
3.253460e+003;2.093699e-002
3.255389e+003;2.068695e-002
3.257318e+003;2.091453e-002
3.259246e+003;2.103696e-002
3.261175e+003;2.112601e-002
3.263103e+003;2.117123e-002
3.265032e+003;2.092882e-002
3.266960e+003;2.074927e-002
3.268889e+003;2.153542e-002
3.270817e+003;2.217101e-002
3.272746e+003;2.189103e-002
3.274675e+003;2.170658e-002
3.276603e+003;2.211780e-002
3.278531e+003;2.199554e-002
3.280460e+003;2.157414e-002
3.282389e+003;2.172128e-002
3.284317e+003;2.208701e-002
3.286246e+003;2.212013e-002
3.288174e+003;2.209789e-002
3.290103e+003;2.139303e-002
3.292031e+003;2.092256e-002
3.293960e+003;2.072577e-002
3.295888e+003;2.055027e-002
3.297817e+003;2.089575e-002
3.299746e+003;2.121218e-002
3.301674e+003;2.155234e-002
3.303603e+003;2.171240e-002
3.305531e+003;2.125612e-002
3.307460e+003;2.078423e-002
3.309388e+003;2.118337e-002
3.311317e+003;2.163108e-002
3.313245e+003;2.157361e-002
3.315174e+003;2.123462e-002
3.317103e+003;2.123500e-002
3.319031e+003;2.152675e-002
3.320960e+003;2.137831e-002
3.322888e+003;2.107599e-002
3.324817e+003;2.130954e-002
3.326745e+003;2.154590e-002
3.328674e+003;2.122495e-002
3.330602e+003;2.107077e-002
3.332531e+003;2.126033e-002
3.334459e+003;2.142892e-002
3.336388e+003;2.154847e-002
3.338317e+003;2.121774e-002
3.340245e+003;2.100838e-002
3.342174e+003;2.098873e-002
3.344102e+003;2.133815e-002
3.346031e+003;2.189130e-002
3.347959e+003;2.199844e-002
3.349888e+003;2.158284e-002
3.351816e+003;2.173285e-002
3.353745e+003;2.174250e-002
3.355674e+003;2.179524e-002
3.357602e+003;2.205644e-002
3.359531e+003;2.186865e-002
3.361459e+003;2.165068e-002
3.363388e+003;2.173839e-002
3.365316e+003;2.201262e-002
3.367245e+003;2.217550e-002
3.369173e+003;2.214838e-002
3.371102e+003;2.208245e-002
3.373031e+003;2.178155e-002
3.374959e+003;2.161948e-002
3.376887e+003;2.180315e-002
3.378816e+003;2.144904e-002
3.380745e+003;2.093292e-002
3.382673e+003;2.091369e-002
3.384602e+003;2.105748e-002
3.386530e+003;2.115109e-002
3.388459e+003;2.106740e-002
3.390387e+003;2.097690e-002
3.392316e+003;2.079296e-002
3.394244e+003;2.093382e-002
3.396173e+003;2.080189e-002
3.398102e+003;2.097885e-002
3.400030e+003;2.111032e-002
3.401959e+003;2.039821e-002
3.403887e+003;2.026848e-002
3.405816e+003;2.066833e-002
3.407744e+003;2.049743e-002
3.409673e+003;2.025519e-002
3.411601e+003;2.029910e-002
3.413530e+003;2.001328e-002
3.415458e+003;1.983664e-002
3.417387e+003;2.007435e-002
3.419316e+003;2.048823e-002
3.421244e+003;2.056555e-002
3.423173e+003;2.065822e-002
3.425101e+003;2.062316e-002
3.427030e+003;2.067583e-002
3.428958e+003;2.102051e-002
3.430887e+003;2.096526e-002
3.432815e+003;2.055006e-002
3.434744e+003;1.986019e-002
3.436673e+003;1.933865e-002
3.438601e+003;1.955671e-002
3.440530e+003;2.022689e-002
3.442458e+003;1.987632e-002
3.444387e+003;1.896082e-002
3.446315e+003;1.881357e-002
3.448244e+003;1.934817e-002
3.450172e+003;1.974301e-002
3.452101e+003;1.929569e-002
3.454030e+003;1.890012e-002
3.455958e+003;1.940742e-002
3.457886e+003;1.966320e-002
3.459815e+003;1.952219e-002
3.461744e+003;1.928097e-002
3.463672e+003;1.904781e-002
3.465601e+003;1.877340e-002
3.467529e+003;1.879364e-002
3.469458e+003;1.865447e-002
3.471386e+003;1.889205e-002
3.473315e+003;1.904750e-002
3.475243e+003;1.903614e-002
3.477172e+003;1.924498e-002
3.479101e+003;1.896144e-002
3.481029e+003;1.876233e-002
3.482958e+003;1.902756e-002
3.484886e+003;1.899149e-002
3.486815e+003;1.823619e-002
3.488743e+003;1.820495e-002
3.490672e+003;1.849356e-002
3.492600e+003;1.808483e-002
3.494529e+003;1.811906e-002
3.496458e+003;1.828540e-002
3.498386e+003;1.889987e-002
3.500315e+003;1.926188e-002
3.502243e+003;1.850452e-002
3.504172e+003;1.775424e-002
3.506100e+003;1.784858e-002
3.508029e+003;1.843814e-002
3.509957e+003;1.878565e-002
3.511886e+003;1.905622e-002
3.513814e+003;1.899104e-002
3.515743e+003;1.841874e-002
3.517672e+003;1.840996e-002
3.519600e+003;1.878361e-002
3.521529e+003;1.813920e-002
3.523457e+003;1.767182e-002
3.525386e+003;1.788570e-002
3.527314e+003;1.806970e-002
3.529243e+003;1.787786e-002
3.531171e+003;1.790693e-002
3.533100e+003;1.830897e-002
3.535029e+003;1.835165e-002
3.536957e+003;1.832213e-002
3.538885e+003;1.821801e-002
3.540814e+003;1.811820e-002
3.542743e+003;1.805654e-002
3.544671e+003;1.789778e-002
3.546600e+003;1.776363e-002
3.548528e+003;1.834374e-002
3.550457e+003;1.851503e-002
3.552385e+003;1.821556e-002
3.554314e+003;1.835155e-002
3.556242e+003;1.874406e-002
3.558171e+003;1.870117e-002
3.560100e+003;1.847133e-002
3.562028e+003;1.881291e-002
3.563957e+003;1.904878e-002
3.565885e+003;1.813554e-002
3.567814e+003;1.787430e-002
3.569742e+003;1.880163e-002
3.571671e+003;1.954416e-002
3.573599e+003;1.958600e-002
3.575528e+003;1.950621e-002
3.577457e+003;1.994875e-002
3.579385e+003;2.011402e-002
3.581314e+003;1.992440e-002
3.583242e+003;1.971333e-002
3.585171e+003;1.859470e-002
3.587099e+003;1.768701e-002
3.589028e+003;1.878049e-002
3.590956e+003;2.066756e-002
3.592885e+003;2.126200e-002
3.594813e+003;2.141256e-002
3.596742e+003;2.202493e-002
3.598671e+003;2.293811e-002
3.600599e+003;2.358412e-002
3.602528e+003;2.456767e-002
3.604456e+003;2.497230e-002
3.606385e+003;2.444938e-002
3.608313e+003;2.344386e-002
3.610242e+003;2.323478e-002
3.612170e+003;2.291422e-002
3.614099e+003;2.280829e-002
3.616028e+003;2.228361e-002
3.617956e+003;2.111136e-002
3.619885e+003;2.132130e-002
3.621813e+003;2.243386e-002
3.623742e+003;2.286029e-002
3.625670e+003;2.197390e-002
3.627599e+003;1.857171e-002
3.629527e+003;1.763052e-002
3.631456e+003;2.013914e-002
3.633385e+003;2.114469e-002
3.635313e+003;2.145047e-002
3.637241e+003;2.180541e-002
3.639170e+003;2.201775e-002
3.641099e+003;2.228197e-002
3.643027e+003;2.281308e-002
3.644956e+003;2.168485e-002
3.646884e+003;1.869269e-002
3.648813e+003;1.763511e-002
3.650741e+003;1.973160e-002
3.652670e+003;2.188092e-002
3.654598e+003;2.112110e-002
3.656527e+003;2.028556e-002
3.658456e+003;2.151307e-002
3.660384e+003;2.228365e-002
3.662313e+003;2.249862e-002
3.664241e+003;2.247385e-002
3.666170e+003;2.172135e-002
3.668098e+003;1.945787e-002
3.670027e+003;1.758732e-002
3.671955e+003;1.898204e-002
3.673884e+003;1.751235e-002
3.675813e+003;1.643423e-002
3.677741e+003;1.985742e-002
3.679669e+003;2.122655e-002
3.681598e+003;2.138806e-002
3.683527e+003;2.126621e-002
3.685455e+003;2.058560e-002
3.687384e+003;1.812525e-002
3.689312e+003;1.762037e-002
3.691241e+003;1.947010e-002
3.693169e+003;2.119976e-002
3.695098e+003;2.168391e-002
3.697026e+003;2.170084e-002
3.698955e+003;2.156874e-002
3.700884e+003;2.109376e-002
3.702812e+003;2.124054e-002
3.704741e+003;2.134904e-002
3.706669e+003;2.061471e-002
3.708598e+003;1.949165e-002
3.710526e+003;1.782362e-002
3.712455e+003;1.787348e-002
3.714383e+003;1.983428e-002
3.716312e+003;2.033966e-002
3.718240e+003;1.989030e-002
3.720169e+003;1.968005e-002
3.722098e+003;1.952704e-002
3.724026e+003;1.932659e-002
3.725955e+003;1.905775e-002
3.727883e+003;1.953570e-002
3.729812e+003;1.906003e-002
3.731740e+003;1.742708e-002
3.733669e+003;1.704192e-002
3.735597e+003;1.662009e-002
3.737526e+003;1.777888e-002
3.739455e+003;1.914673e-002
3.741383e+003;1.803654e-002
3.743312e+003;1.321207e-002
3.745240e+003;1.341823e-002
3.747169e+003;1.549573e-002
3.749097e+003;1.341683e-002
3.751026e+003;1.366247e-002
3.752954e+003;1.640776e-002
3.754883e+003;1.894002e-002
3.756812e+003;1.928855e-002
3.758740e+003;1.900859e-002
3.760668e+003;1.937363e-002
3.762597e+003;2.041689e-002
3.764526e+003;2.025213e-002
3.766454e+003;2.040911e-002
3.768383e+003;1.958305e-002
3.770311e+003;1.908132e-002
3.772240e+003;2.017729e-002
3.774168e+003;2.083550e-002
3.776097e+003;2.088838e-002
3.778025e+003;2.042192e-002
3.779954e+003;2.041501e-002
3.781883e+003;2.093932e-002
3.783811e+003;2.078667e-002
3.785740e+003;2.121601e-002
3.787668e+003;2.169084e-002
3.789597e+003;2.193699e-002
3.791525e+003;2.236199e-002
3.793454e+003;2.225861e-002
3.795382e+003;2.151098e-002
3.797311e+003;2.106816e-002
3.799240e+003;1.872995e-002
3.801168e+003;1.710660e-002
3.803097e+003;1.997689e-002
3.805025e+003;2.058199e-002
3.806954e+003;1.928672e-002
3.808882e+003;2.110089e-002
3.810811e+003;2.234441e-002
3.812739e+003;2.207638e-002
3.814668e+003;1.946753e-002
3.816596e+003;1.958863e-002
3.818525e+003;2.084479e-002
3.820454e+003;1.947218e-002
3.822382e+003;2.118567e-002
3.824311e+003;2.266315e-002
3.826239e+003;2.204138e-002
3.828168e+003;2.237431e-002
3.830096e+003;2.245884e-002
3.832025e+003;2.198202e-002
3.833953e+003;2.127230e-002
3.835882e+003;1.910172e-002
3.837811e+003;1.772718e-002
3.839739e+003;2.002862e-002
3.841667e+003;2.210511e-002
3.843596e+003;2.218597e-002
3.845525e+003;2.273636e-002
3.847453e+003;2.337319e-002
3.849382e+003;2.159973e-002
3.851310e+003;1.663369e-002
3.853239e+003;1.327346e-002
3.855167e+003;1.749375e-002
3.857096e+003;2.155819e-002
3.859024e+003;2.175699e-002
3.860953e+003;2.135892e-002
3.862882e+003;2.104966e-002
3.864810e+003;2.132809e-002
3.866739e+003;2.192608e-002
3.868667e+003;2.031167e-002
3.870596e+003;2.052175e-002
3.872524e+003;2.229656e-002
3.874453e+003;2.327065e-002
3.876381e+003;2.432924e-002
3.878310e+003;2.398434e-002
3.880239e+003;2.359948e-002
3.882167e+003;2.372450e-002
3.884096e+003;2.228424e-002
3.886024e+003;2.170307e-002
3.887953e+003;2.340249e-002
3.889881e+003;2.299858e-002
3.891810e+003;2.268773e-002
3.893738e+003;2.414859e-002
3.895667e+003;2.449607e-002
3.897595e+003;2.337165e-002
3.899524e+003;2.227249e-002
3.901453e+003;2.153817e-002
3.903381e+003;2.145649e-002
3.905310e+003;2.336938e-002
3.907238e+003;2.490145e-002
3.909167e+003;2.519714e-002
3.911095e+003;2.529789e-002
3.913024e+003;2.558721e-002
3.914952e+003;2.478170e-002
3.916881e+003;2.393591e-002
3.918810e+003;2.425670e-002
3.920738e+003;2.419630e-002
3.922667e+003;2.390983e-002
3.924595e+003;2.442506e-002
3.926524e+003;2.502968e-002
3.928452e+003;2.470489e-002
3.930381e+003;2.412390e-002
3.932309e+003;2.383054e-002
3.934238e+003;2.382169e-002
3.936167e+003;2.439744e-002
3.938095e+003;2.480777e-002
3.940023e+003;2.426771e-002
3.941952e+003;2.392772e-002
3.943881e+003;2.409773e-002
3.945809e+003;2.381031e-002
3.947738e+003;2.363114e-002
3.949666e+003;2.381731e-002
3.951595e+003;2.415223e-002
3.953523e+003;2.425979e-002
3.955452e+003;2.459687e-002
3.957380e+003;2.499711e-002
3.959309e+003;2.464292e-002
3.961238e+003;2.396911e-002
3.963166e+003;2.351906e-002
3.965095e+003;2.407192e-002
3.967023e+003;2.480268e-002
3.968952e+003;2.500704e-002
3.970880e+003;2.465670e-002
3.972809e+003;2.392804e-002
3.974737e+003;2.401319e-002
3.976666e+003;2.487780e-002
3.978594e+003;2.485882e-002
3.980523e+003;2.463289e-002
3.982452e+003;2.444213e-002
3.984380e+003;2.415283e-002
3.986309e+003;2.403165e-002
3.988237e+003;2.408442e-002
3.990166e+003;2.384248e-002
3.992094e+003;2.340102e-002
3.994023e+003;2.351318e-002
3.995951e+003;2.368163e-002
3.997880e+003;2.351241e-002
3.999809e+003;2.360921e-002
4.001737e+003;0.000000e+000
