3.992094e+002;0.000000e+000
4.011380e+002;0.000000e+000
4.030665e+002;0.000000e+000
4.049951e+002;0.000000e+000
4.069236e+002;0.000000e+000
4.088522e+002;0.000000e+000
4.107807e+002;0.000000e+000
4.127093e+002;0.000000e+000
4.146378e+002;0.000000e+000
4.165664e+002;0.000000e+000
4.184949e+002;0.000000e+000
4.204235e+002;0.000000e+000
4.223520e+002;0.000000e+000
4.242806e+002;0.000000e+000
4.262091e+002;0.000000e+000
4.281377e+002;0.000000e+000
4.300662e+002;0.000000e+000
4.319948e+002;0.000000e+000
4.339233e+002;0.000000e+000
4.358519e+002;0.000000e+000
4.377804e+002;0.000000e+000
4.397090e+002;0.000000e+000
4.416375e+002;0.000000e+000
4.435660e+002;0.000000e+000
4.454946e+002;0.000000e+000
4.474232e+002;0.000000e+000
4.493517e+002;0.000000e+000
4.512802e+002;0.000000e+000
4.532088e+002;0.000000e+000
4.551373e+002;0.000000e+000
4.570659e+002;0.000000e+000
4.589944e+002;0.000000e+000
4.609230e+002;0.000000e+000
4.628515e+002;0.000000e+000
4.647801e+002;0.000000e+000
4.667086e+002;0.000000e+000
4.686372e+002;0.000000e+000
4.705657e+002;0.000000e+000
4.724943e+002;0.000000e+000
4.744228e+002;0.000000e+000
4.763513e+002;0.000000e+000
4.782799e+002;0.000000e+000
4.802085e+002;0.000000e+000
4.821370e+002;0.000000e+000
4.840656e+002;0.000000e+000
4.859941e+002;0.000000e+000
4.879226e+002;0.000000e+000
4.898512e+002;0.000000e+000
4.917798e+002;0.000000e+000
4.937083e+002;0.000000e+000
4.956368e+002;0.000000e+000
4.975654e+002;0.000000e+000
4.994939e+002;0.000000e+000
5.014225e+002;0.000000e+000
5.033510e+002;0.000000e+000
5.052796e+002;0.000000e+000
5.072081e+002;0.000000e+000
5.091367e+002;0.000000e+000
5.110652e+002;0.000000e+000
5.129938e+002;0.000000e+000
5.149223e+002;0.000000e+000
5.168509e+002;0.000000e+000
5.187794e+002;0.000000e+000
5.207079e+002;0.000000e+000
5.226365e+002;0.000000e+000
5.245651e+002;0.000000e+000
5.264936e+002;0.000000e+000
5.284222e+002;0.000000e+000
5.303507e+002;0.000000e+000
5.322792e+002;0.000000e+000
5.342078e+002;0.000000e+000
5.361364e+002;0.000000e+000
5.380649e+002;0.000000e+000
5.399935e+002;0.000000e+000
5.419220e+002;0.000000e+000
5.438505e+002;0.000000e+000
5.457791e+002;0.000000e+000
5.477076e+002;0.000000e+000
5.496362e+002;0.000000e+000
5.515648e+002;0.000000e+000
5.534933e+002;0.000000e+000
5.554218e+002;0.000000e+000
5.573504e+002;0.000000e+000
5.592789e+002;0.000000e+000
5.612075e+002;0.000000e+000
5.631360e+002;0.000000e+000
5.650646e+002;0.000000e+000
5.669931e+002;0.000000e+000
5.689217e+002;0.000000e+000
5.708502e+002;0.000000e+000
5.727787e+002;0.000000e+000
5.747073e+002;0.000000e+000
5.766359e+002;0.000000e+000
5.785644e+002;0.000000e+000
5.804930e+002;0.000000e+000
5.824215e+002;0.000000e+000
5.843500e+002;0.000000e+000
5.862786e+002;0.000000e+000
5.882072e+002;0.000000e+000
5.901357e+002;0.000000e+000
5.920643e+002;0.000000e+000
5.939928e+002;0.000000e+000
5.959213e+002;0.000000e+000
5.978499e+002;0.000000e+000
5.997784e+002;5.390391e-002
6.017070e+002;5.133221e-002
6.036355e+002;5.011059e-002
6.055641e+002;4.814938e-002
6.074926e+002;4.755937e-002
6.094211e+002;4.844768e-002
6.113497e+002;4.766530e-002
6.132783e+002;4.247076e-002
6.152068e+002;3.849244e-002
6.171354e+002;3.824487e-002
6.190639e+002;3.962271e-002
6.209924e+002;4.201530e-002
6.229210e+002;4.436948e-002
6.248495e+002;4.505132e-002
6.267781e+002;4.603034e-002
6.287067e+002;4.544989e-002
6.306352e+002;4.355653e-002
6.325637e+002;4.753767e-002
6.344923e+002;5.021082e-002
6.364208e+002;4.592341e-002
6.383494e+002;4.241750e-002
6.402780e+002;4.400698e-002
6.422065e+002;4.713064e-002
6.441350e+002;5.011572e-002
6.460636e+002;5.207669e-002
6.479921e+002;4.645077e-002
6.499207e+002;4.439205e-002
6.518492e+002;4.435007e-002
6.537778e+002;4.449798e-002
6.557063e+002;4.533465e-002
6.576349e+002;4.498479e-002
6.595634e+002;4.629076e-002
6.614919e+002;4.688570e-002
6.634205e+002;4.682210e-002
6.653491e+002;4.545563e-002
6.672776e+002;4.542241e-002
6.692062e+002;4.717030e-002
6.711347e+002;4.925989e-002
6.730632e+002;4.997436e-002
6.749918e+002;4.816971e-002
6.769203e+002;4.573945e-002
6.788489e+002;4.696344e-002
6.807775e+002;4.987277e-002
6.827060e+002;5.110244e-002
6.846345e+002;5.219621e-002
6.865631e+002;5.284813e-002
6.884916e+002;5.379019e-002
6.904202e+002;5.540442e-002
6.923488e+002;5.725246e-002
6.942773e+002;5.997337e-002
6.962058e+002;6.263974e-002
6.981344e+002;6.533418e-002
7.000629e+002;6.843532e-002
7.019915e+002;7.290988e-002
7.039200e+002;7.867251e-002
7.058486e+002;8.623520e-002
7.077771e+002;9.613070e-002
7.097057e+002;1.109624e-001
7.116342e+002;1.356379e-001
7.135627e+002;1.676533e-001
7.154913e+002;1.932012e-001
7.174199e+002;1.934704e-001
7.193484e+002;1.702093e-001
7.212770e+002;1.396421e-001
7.232055e+002;1.155318e-001
7.251340e+002;1.009061e-001
7.270626e+002;9.493949e-002
7.289911e+002;9.738065e-002
7.309197e+002;1.015101e-001
7.328483e+002;9.409407e-002
7.347768e+002;7.653686e-002
7.367053e+002;6.246731e-002
7.386339e+002;5.540096e-002
7.405624e+002;5.245699e-002
7.424910e+002;5.071507e-002
7.444196e+002;4.873527e-002
7.463481e+002;4.762951e-002
7.482766e+002;4.693099e-002
7.502052e+002;4.589509e-002
7.521337e+002;4.466614e-002
7.540623e+002;4.423559e-002
7.559908e+002;4.412855e-002
7.579194e+002;4.344574e-002
7.598479e+002;4.212949e-002
7.617765e+002;4.101669e-002
7.637050e+002;4.084669e-002
7.656335e+002;4.145791e-002
7.675621e+002;4.148299e-002
7.694907e+002;4.091379e-002
7.714192e+002;4.012723e-002
7.733478e+002;4.025470e-002
7.752763e+002;4.033951e-002
7.772048e+002;4.044795e-002
7.791334e+002;4.108752e-002
7.810620e+002;4.100620e-002
7.829905e+002;4.053124e-002
7.849191e+002;4.031650e-002
7.868476e+002;4.012374e-002
7.887761e+002;4.051811e-002
7.907047e+002;4.102233e-002
7.926332e+002;4.155798e-002
7.945618e+002;4.123870e-002
7.964903e+002;4.078281e-002
7.984189e+002;4.102317e-002
8.003474e+002;4.136376e-002
8.022759e+002;4.162974e-002
8.042045e+002;4.166468e-002
8.061331e+002;4.108308e-002
8.080616e+002;4.095133e-002
8.099902e+002;4.171348e-002
8.119187e+002;4.197658e-002
8.138472e+002;4.230623e-002
8.157758e+002;4.293907e-002
8.177043e+002;4.239324e-002
8.196329e+002;4.260974e-002
8.215615e+002;4.341901e-002
8.234900e+002;4.396797e-002
8.254185e+002;4.428295e-002
8.273471e+002;4.406485e-002
8.292756e+002;4.402528e-002
8.312042e+002;4.432001e-002
8.331328e+002;4.420011e-002
8.350613e+002;4.417851e-002
8.369898e+002;4.361079e-002
8.389184e+002;4.338686e-002
8.408469e+002;4.405462e-002
8.427755e+002;4.359698e-002
8.447040e+002;4.357408e-002
8.466326e+002;4.363918e-002
8.485611e+002;4.285301e-002
8.504897e+002;4.202760e-002
8.524182e+002;4.190319e-002
8.543467e+002;4.229144e-002
8.562753e+002;4.216480e-002
8.582039e+002;4.144172e-002
8.601324e+002;4.076928e-002
8.620610e+002;4.110096e-002
8.639895e+002;4.233406e-002
8.659180e+002;4.311911e-002
8.678466e+002;4.287364e-002
8.697751e+002;4.269641e-002
8.717037e+002;4.270076e-002
8.736323e+002;4.255543e-002
8.755608e+002;4.258679e-002
8.774893e+002;4.245787e-002
8.794179e+002;4.196216e-002
8.813464e+002;4.219645e-002
8.832750e+002;4.294661e-002
8.852036e+002;4.373283e-002
8.871321e+002;4.408216e-002
8.890606e+002;4.384930e-002
8.909892e+002;4.353357e-002
8.929177e+002;4.331657e-002
8.948463e+002;4.343483e-002
8.967748e+002;4.394927e-002
8.987034e+002;4.412536e-002
9.006319e+002;4.440031e-002
9.025605e+002;4.469467e-002
9.044890e+002;4.467249e-002
9.064175e+002;4.491574e-002
9.083461e+002;4.538007e-002
9.102747e+002;4.554714e-002
9.122032e+002;4.539972e-002
9.141318e+002;4.499501e-002
9.160603e+002;4.458352e-002
9.179888e+002;4.440031e-002
9.199174e+002;4.458998e-002
9.218459e+002;4.428827e-002
9.237745e+002;4.398876e-002
9.257031e+002;4.409121e-002
9.276316e+002;4.438669e-002
9.295601e+002;4.473526e-002
9.314887e+002;4.473610e-002
9.334172e+002;4.430904e-002
9.353458e+002;4.412851e-002
9.372744e+002;4.425390e-002
9.392029e+002;4.432023e-002
9.411314e+002;4.449376e-002
9.430600e+002;4.468182e-002
9.449885e+002;4.476762e-002
9.469171e+002;4.461047e-002
9.488456e+002;4.434746e-002
9.507742e+002;4.430064e-002
9.527027e+002;4.424711e-002
9.546313e+002;4.407203e-002
9.565598e+002;4.404270e-002
9.584883e+002;4.442354e-002
9.604169e+002;4.429928e-002
9.623455e+002;4.390304e-002
9.642740e+002;4.409947e-002
9.662026e+002;4.461260e-002
9.681311e+002;4.471410e-002
9.700596e+002;4.500758e-002
9.719882e+002;4.540983e-002
9.739167e+002;4.536293e-002
9.758453e+002;4.494353e-002
9.777739e+002;4.469651e-002
9.797024e+002;4.464260e-002
9.816309e+002;4.509322e-002
9.835595e+002;4.534454e-002
9.854880e+002;4.494084e-002
9.874166e+002;4.417792e-002
9.893452e+002;4.351243e-002
9.912737e+002;4.382548e-002
9.932022e+002;4.447555e-002
9.951307e+002;4.429334e-002
9.970593e+002;4.398359e-002
9.989879e+002;4.440170e-002
1.000916e+003;4.499582e-002
1.002845e+003;4.523745e-002
1.004773e+003;4.528985e-002
1.006702e+003;4.549625e-002
1.008631e+003;4.544905e-002
1.010559e+003;4.514634e-002
1.012488e+003;4.531409e-002
1.014416e+003;4.582836e-002
1.016345e+003;4.609260e-002
1.018273e+003;4.618192e-002
1.020202e+003;4.700771e-002
1.022130e+003;4.789936e-002
1.024059e+003;4.875506e-002
1.025988e+003;5.017351e-002
1.027916e+003;5.160019e-002
1.029845e+003;5.267771e-002
1.031773e+003;5.319441e-002
1.033702e+003;5.291336e-002
1.035630e+003;5.232802e-002
1.037559e+003;5.137014e-002
1.039487e+003;5.062258e-002
1.041416e+003;5.029560e-002
1.043344e+003;5.027368e-002
1.045273e+003;5.068934e-002
1.047202e+003;5.122505e-002
1.049130e+003;5.201136e-002
1.051059e+003;5.252792e-002
1.052987e+003;5.260447e-002
1.054916e+003;5.292530e-002
1.056844e+003;5.330379e-002
1.058773e+003;5.392474e-002
1.060701e+003;5.430549e-002
1.062630e+003;5.413828e-002
1.064558e+003;5.441337e-002
1.066487e+003;5.526897e-002
1.068416e+003;5.668706e-002
1.070344e+003;5.792595e-002
1.072273e+003;5.839266e-002
1.074201e+003;5.857853e-002
1.076130e+003;5.864505e-002
1.078058e+003;5.879271e-002
1.079987e+003;5.793670e-002
1.081915e+003;5.593472e-002
1.083844e+003;5.411895e-002
1.085773e+003;5.335081e-002
1.087701e+003;5.283571e-002
1.089630e+003;5.230817e-002
1.091558e+003;5.119026e-002
1.093487e+003;5.013324e-002
1.095415e+003;4.969196e-002
1.097344e+003;4.921595e-002
1.099272e+003;4.891020e-002
1.101201e+003;4.867715e-002
1.103129e+003;4.884227e-002
1.105058e+003;4.903549e-002
1.106987e+003;4.851592e-002
1.108915e+003;4.778642e-002
1.110844e+003;4.720927e-002
1.112772e+003;4.717603e-002
1.114701e+003;4.698238e-002
1.116629e+003;4.665130e-002
1.118558e+003;4.649125e-002
1.120486e+003;4.629293e-002
1.122415e+003;4.625530e-002
1.124344e+003;4.652253e-002
1.126272e+003;4.655580e-002
1.128201e+003;4.630668e-002
1.130129e+003;4.663783e-002
1.132058e+003;4.686543e-002
1.133986e+003;4.672184e-002
1.135915e+003;4.656859e-002
1.137843e+003;4.655347e-002
1.139772e+003;4.653024e-002
1.141700e+003;4.704577e-002
1.143629e+003;4.830211e-002
1.145557e+003;4.953603e-002
1.147486e+003;5.033224e-002
1.149415e+003;5.005273e-002
1.151343e+003;4.946343e-002
1.153272e+003;4.911621e-002
1.155200e+003;4.830749e-002
1.157129e+003;4.785119e-002
1.159057e+003;4.743621e-002
1.160986e+003;4.711919e-002
1.162914e+003;4.692187e-002
1.164843e+003;4.676372e-002
1.166771e+003;4.702882e-002
1.168700e+003;4.718142e-002
1.170629e+003;4.723011e-002
1.172557e+003;4.690869e-002
1.174486e+003;4.697990e-002
1.176414e+003;4.707801e-002
1.178343e+003;4.593656e-002
1.180271e+003;4.517667e-002
1.182200e+003;4.535440e-002
1.184128e+003;4.528702e-002
1.186057e+003;4.471396e-002
1.187986e+003;4.443694e-002
1.189914e+003;4.437425e-002
1.191843e+003;4.434412e-002
1.193771e+003;4.395730e-002
1.195700e+003;4.366416e-002
1.197628e+003;4.344596e-002
1.199557e+003;4.307706e-002
1.201485e+003;4.291043e-002
1.203414e+003;4.312544e-002
1.205343e+003;4.328618e-002
1.207271e+003;4.287883e-002
1.209200e+003;4.268350e-002
1.211128e+003;4.284266e-002
1.213057e+003;4.303235e-002
1.214985e+003;4.305171e-002
1.216914e+003;4.293091e-002
1.218842e+003;4.310165e-002
1.220771e+003;4.364442e-002
1.222699e+003;4.363288e-002
1.224628e+003;4.352826e-002
1.226557e+003;4.334593e-002
1.228485e+003;4.363867e-002
1.230414e+003;4.399118e-002
1.232342e+003;4.390572e-002
1.234271e+003;4.408949e-002
1.236199e+003;4.449651e-002
1.238128e+003;4.454361e-002
1.240056e+003;4.409701e-002
1.241985e+003;4.388123e-002
1.243913e+003;4.389630e-002
1.245842e+003;4.421424e-002
1.247771e+003;4.495323e-002
1.249699e+003;4.549154e-002
1.251628e+003;4.595568e-002
1.253556e+003;4.673940e-002
1.255485e+003;4.747428e-002
1.257413e+003;4.780913e-002
1.259342e+003;4.719579e-002
1.261270e+003;4.648307e-002
1.263199e+003;4.621859e-002
1.265127e+003;4.642366e-002
1.267056e+003;4.672852e-002
1.268985e+003;4.689286e-002
1.270913e+003;4.706756e-002
1.272842e+003;4.718548e-002
1.274770e+003;4.728855e-002
1.276699e+003;4.756070e-002
1.278627e+003;4.758599e-002
1.280556e+003;4.733289e-002
1.282484e+003;4.709463e-002
1.284413e+003;4.739149e-002
1.286342e+003;4.758081e-002
1.288270e+003;4.747709e-002
1.290199e+003;4.770967e-002
1.292127e+003;4.835730e-002
1.294056e+003;4.861378e-002
1.295984e+003;4.842930e-002
1.297913e+003;4.847568e-002
1.299841e+003;4.868045e-002
1.301770e+003;4.873331e-002
1.303698e+003;4.853841e-002
1.305627e+003;4.863749e-002
1.307556e+003;4.860125e-002
1.309484e+003;4.799893e-002
1.311413e+003;4.724089e-002
1.313341e+003;4.636685e-002
1.315270e+003;4.552896e-002
1.317198e+003;4.478595e-002
1.319127e+003;4.391352e-002
1.321055e+003;4.331664e-002
1.322984e+003;4.286709e-002
1.324912e+003;4.235306e-002
1.326841e+003;4.187557e-002
1.328770e+003;4.147234e-002
1.330698e+003;4.142033e-002
1.332627e+003;4.180993e-002
1.334555e+003;4.216472e-002
1.336484e+003;4.212547e-002
1.338412e+003;4.235496e-002
1.340341e+003;4.338419e-002
1.342269e+003;4.471289e-002
1.344198e+003;4.568335e-002
1.346126e+003;4.649251e-002
1.348055e+003;4.712879e-002
1.349984e+003;4.784375e-002
1.351912e+003;4.827319e-002
1.353841e+003;4.816849e-002
1.355769e+003;4.780913e-002
1.357698e+003;4.753135e-002
1.359626e+003;4.741256e-002
1.361555e+003;4.785467e-002
1.363483e+003;4.923944e-002
1.365412e+003;5.091862e-002
1.367341e+003;5.159519e-002
1.369269e+003;5.151412e-002
1.371198e+003;5.063609e-002
1.373126e+003;4.862341e-002
1.375055e+003;4.709448e-002
1.376983e+003;4.669848e-002
1.378912e+003;4.619950e-002
1.380840e+003;4.522024e-002
1.382769e+003;4.436372e-002
1.384698e+003;4.380799e-002
1.386626e+003;4.259746e-002
1.388555e+003;4.231839e-002
1.390483e+003;4.274847e-002
1.392412e+003;4.218831e-002
1.394340e+003;4.124420e-002
1.396269e+003;4.164357e-002
1.398197e+003;4.207345e-002
1.400126e+003;4.251757e-002
1.402054e+003;4.314992e-002
1.403983e+003;4.320917e-002
1.405911e+003;4.373506e-002
1.407840e+003;4.443037e-002
1.409769e+003;4.472053e-002
1.411697e+003;4.506951e-002
1.413626e+003;4.554250e-002
1.415554e+003;4.569513e-002
1.417483e+003;4.461036e-002
1.419411e+003;4.454512e-002
1.421340e+003;4.760773e-002
1.423268e+003;5.015577e-002
1.425197e+003;5.235314e-002
1.427125e+003;5.482767e-002
1.429054e+003;5.700805e-002
1.430983e+003;5.938574e-002
1.432911e+003;6.163099e-002
1.434840e+003;6.225471e-002
1.436768e+003;6.322332e-002
1.438697e+003;6.710248e-002
1.440625e+003;6.944209e-002
1.442554e+003;7.049618e-002
1.444482e+003;7.167760e-002
1.446411e+003;7.272581e-002
1.448340e+003;7.448681e-002
1.450268e+003;7.793853e-002
1.452197e+003;8.250913e-002
1.454125e+003;8.656044e-002
1.456054e+003;8.924922e-002
1.457982e+003;9.995913e-002
1.459911e+003;1.216437e-001
1.461839e+003;1.394887e-001
1.463768e+003;1.415828e-001
1.465697e+003;1.445387e-001
1.467625e+003;1.585272e-001
1.469554e+003;1.807703e-001
1.471482e+003;1.976933e-001
1.473411e+003;1.763453e-001
1.475339e+003;1.263099e-001
1.477268e+003;8.852174e-002
1.479196e+003;7.179204e-002
1.481125e+003;6.465176e-002
1.483053e+003;6.077490e-002
1.484982e+003;5.738683e-002
1.486911e+003;5.401013e-002
1.488839e+003;5.127862e-002
1.490768e+003;5.038054e-002
1.492696e+003;5.079960e-002
1.494625e+003;4.874231e-002
1.496553e+003;4.635564e-002
1.498482e+003;4.679265e-002
1.500410e+003;4.731257e-002
1.502339e+003;4.682339e-002
1.504267e+003;4.282266e-002
1.506196e+003;3.824769e-002
1.508125e+003;3.999449e-002
1.510053e+003;4.315402e-002
1.511982e+003;4.379645e-002
1.513910e+003;4.354719e-002
1.515839e+003;4.234199e-002
1.517767e+003;4.166581e-002
1.519696e+003;3.990259e-002
1.521624e+003;3.864463e-002
1.523553e+003;4.076633e-002
1.525481e+003;4.136285e-002
1.527410e+003;4.194453e-002
1.529339e+003;4.322688e-002
1.531267e+003;4.305921e-002
1.533196e+003;4.188119e-002
1.535124e+003;4.264841e-002
1.537053e+003;4.061990e-002
1.538981e+003;3.544281e-002
1.540910e+003;3.526590e-002
1.542838e+003;3.814458e-002
1.544767e+003;4.028931e-002
1.546695e+003;4.216385e-002
1.548624e+003;4.242159e-002
1.550553e+003;4.199067e-002
1.552481e+003;4.093461e-002
1.554410e+003;3.900595e-002
1.556338e+003;3.639928e-002
1.558267e+003;3.141349e-002
1.560195e+003;3.301018e-002
1.562124e+003;3.885471e-002
1.564052e+003;4.052710e-002
1.565981e+003;4.039704e-002
1.567910e+003;3.922407e-002
1.569838e+003;3.830483e-002
1.571767e+003;3.989932e-002
1.573695e+003;3.928373e-002
1.575624e+003;3.633417e-002
1.577552e+003;3.808533e-002
1.579481e+003;4.110683e-002
1.581409e+003;4.187542e-002
1.583338e+003;4.218020e-002
1.585266e+003;4.206944e-002
1.587195e+003;4.185597e-002
1.589124e+003;4.166242e-002
1.591052e+003;4.169995e-002
1.592981e+003;4.146264e-002
1.594909e+003;4.149254e-002
1.596838e+003;4.181496e-002
1.598766e+003;4.209849e-002
1.600695e+003;4.198242e-002
1.602623e+003;4.189480e-002
1.604552e+003;4.196826e-002
1.606480e+003;4.196063e-002
1.608409e+003;4.191020e-002
1.610338e+003;4.213942e-002
1.612266e+003;4.245842e-002
1.614195e+003;4.126777e-002
1.616123e+003;3.845077e-002
1.618052e+003;3.974432e-002
1.619980e+003;4.226317e-002
1.621909e+003;4.157082e-002
1.623837e+003;4.130676e-002
1.625766e+003;4.233833e-002
1.627694e+003;4.273403e-002
1.629623e+003;4.352969e-002
1.631552e+003;4.373455e-002
1.633480e+003;4.141293e-002
1.635409e+003;3.887113e-002
1.637337e+003;4.118208e-002
1.639266e+003;4.418596e-002
1.641194e+003;4.527985e-002
1.643123e+003;4.486269e-002
1.645051e+003;4.216114e-002
1.646980e+003;4.142215e-002
1.648909e+003;4.331532e-002
1.650837e+003;3.987204e-002
1.652766e+003;3.411371e-002
1.654694e+003;3.818311e-002
1.656623e+003;4.345365e-002
1.658551e+003;4.457647e-002
1.660480e+003;4.382863e-002
1.662408e+003;4.262674e-002
1.664337e+003;4.299551e-002
1.666266e+003;4.288549e-002
1.668194e+003;4.091128e-002
1.670123e+003;4.045006e-002
1.672051e+003;4.174704e-002
1.673980e+003;4.078398e-002
1.675908e+003;4.039013e-002
1.677837e+003;4.223465e-002
1.679765e+003;4.238231e-002
1.681694e+003;4.016648e-002
1.683622e+003;3.595809e-002
1.685551e+003;3.733669e-002
1.687479e+003;4.141373e-002
1.689408e+003;4.220942e-002
1.691337e+003;4.233008e-002
1.693265e+003;4.099568e-002
1.695194e+003;3.701231e-002
1.697122e+003;3.673651e-002
1.699051e+003;3.555093e-002
1.700979e+003;3.527190e-002
1.702908e+003;3.878573e-002
1.704836e+003;3.898612e-002
1.706765e+003;3.923469e-002
1.708693e+003;3.961051e-002
1.710622e+003;3.946410e-002
1.712551e+003;3.843191e-002
1.714479e+003;3.583468e-002
1.716408e+003;3.240056e-002
1.718336e+003;3.259503e-002
1.720265e+003;3.564397e-002
1.722193e+003;3.659901e-002
1.724122e+003;3.619521e-002
1.726050e+003;3.602443e-002
1.727979e+003;3.586354e-002
1.729908e+003;3.519194e-002
1.731836e+003;3.229315e-002
1.733765e+003;2.927572e-002
1.735693e+003;3.218438e-002
1.737622e+003;3.499214e-002
1.739550e+003;3.437550e-002
1.741479e+003;3.440183e-002
1.743407e+003;3.452784e-002
1.745336e+003;3.437349e-002
1.747265e+003;3.354184e-002
1.749193e+003;3.212418e-002
1.751122e+003;3.117234e-002
1.753050e+003;3.213657e-002
1.754979e+003;3.182089e-002
1.756907e+003;3.081984e-002
1.758836e+003;3.087327e-002
1.760764e+003;3.005687e-002
1.762693e+003;2.968952e-002
1.764621e+003;3.015688e-002
1.766550e+003;2.926108e-002
1.768479e+003;2.845609e-002
1.770407e+003;2.762363e-002
1.772336e+003;2.664619e-002
1.774264e+003;2.805983e-002
1.776193e+003;2.925828e-002
1.778121e+003;2.937898e-002
1.780050e+003;2.922273e-002
1.781978e+003;2.905063e-002
1.783907e+003;2.871587e-002
1.785835e+003;2.883497e-002
1.787764e+003;2.890633e-002
1.789693e+003;2.795083e-002
1.791621e+003;2.647145e-002
1.793550e+003;2.679573e-002
1.795478e+003;2.828366e-002
1.797407e+003;2.849126e-002
1.799335e+003;2.784943e-002
1.801264e+003;2.764390e-002
1.803192e+003;2.824784e-002
1.805121e+003;2.870943e-002
1.807049e+003;2.874115e-002
1.808978e+003;2.849561e-002
1.810907e+003;2.850038e-002
1.812835e+003;2.869375e-002
1.814764e+003;2.874603e-002
1.816692e+003;2.870186e-002
1.818621e+003;2.905594e-002
1.820549e+003;2.909704e-002
1.822478e+003;2.848004e-002
1.824406e+003;2.769430e-002
1.826335e+003;2.759994e-002
1.828264e+003;2.695065e-002
1.830192e+003;2.664788e-002
1.832121e+003;2.740533e-002
1.834049e+003;2.765379e-002
1.835978e+003;2.756834e-002
1.837906e+003;2.738811e-002
1.839835e+003;2.731408e-002
1.841763e+003;2.665168e-002
1.843692e+003;2.540053e-002
1.845620e+003;2.613716e-002
1.847549e+003;2.731154e-002
1.849478e+003;2.750868e-002
1.851406e+003;2.754857e-002
1.853335e+003;2.736507e-002
1.855263e+003;2.729657e-002
1.857192e+003;2.734185e-002
1.859120e+003;2.738049e-002
1.861049e+003;2.752990e-002
1.862977e+003;2.771361e-002
1.864906e+003;2.777041e-002
1.866834e+003;2.718926e-002
1.868763e+003;2.661843e-002
1.870692e+003;2.734393e-002
1.872620e+003;2.813219e-002
1.874549e+003;2.845050e-002
1.876477e+003;2.867365e-002
1.878406e+003;2.882318e-002
1.880334e+003;2.903968e-002
1.882263e+003;2.907263e-002
1.884191e+003;2.949847e-002
1.886120e+003;3.034714e-002
1.888048e+003;3.090006e-002
1.889977e+003;3.124120e-002
1.891906e+003;3.217563e-002
1.893834e+003;3.281514e-002
1.895763e+003;3.278162e-002
1.897691e+003;3.266283e-002
1.899620e+003;3.290505e-002
1.901548e+003;3.294405e-002
1.903477e+003;3.275882e-002
1.905405e+003;3.233820e-002
1.907334e+003;3.168539e-002
1.909262e+003;3.124757e-002
1.911191e+003;3.116821e-002
1.913120e+003;3.096798e-002
1.915048e+003;3.043666e-002
1.916977e+003;2.996119e-002
1.918905e+003;3.020412e-002
1.920834e+003;3.027864e-002
1.922762e+003;2.993598e-002
1.924691e+003;3.002311e-002
1.926619e+003;3.012303e-002
1.928548e+003;3.021495e-002
1.930477e+003;3.017140e-002
1.932405e+003;3.000400e-002
1.934334e+003;2.995696e-002
1.936262e+003;3.002935e-002
1.938191e+003;3.017538e-002
1.940119e+003;2.994010e-002
1.942048e+003;2.942145e-002
1.943976e+003;2.928387e-002
1.945905e+003;2.933030e-002
1.947833e+003;2.922833e-002
1.949762e+003;2.922720e-002
1.951691e+003;2.948216e-002
1.953619e+003;2.979529e-002
1.955548e+003;3.001732e-002
1.957476e+003;2.982017e-002
1.959405e+003;2.961271e-002
1.961333e+003;2.955082e-002
1.963262e+003;2.967898e-002
1.965190e+003;2.962101e-002
1.967119e+003;2.938302e-002
1.969047e+003;2.942929e-002
1.970976e+003;2.945787e-002
1.972905e+003;2.918396e-002
1.974833e+003;2.918757e-002
1.976762e+003;2.935810e-002
1.978690e+003;2.932109e-002
1.980619e+003;2.947241e-002
1.982547e+003;2.974852e-002
1.984476e+003;2.977116e-002
1.986404e+003;2.941808e-002
1.988333e+003;2.932389e-002
1.990261e+003;2.926909e-002
1.992190e+003;2.929978e-002
1.994119e+003;2.969310e-002
1.996047e+003;2.985481e-002
1.997976e+003;2.993059e-002
1.999904e+003;3.024695e-002
2.001833e+003;3.057049e-002
2.003761e+003;3.076687e-002
2.005690e+003;3.107983e-002
2.007618e+003;3.172282e-002
2.009547e+003;3.257489e-002
2.011476e+003;3.351832e-002
2.013404e+003;3.419113e-002
2.015333e+003;3.490901e-002
2.017261e+003;3.548596e-002
2.019190e+003;3.569595e-002
2.021118e+003;3.584087e-002
2.023047e+003;3.574779e-002
2.024975e+003;3.510794e-002
2.026904e+003;3.436127e-002
2.028833e+003;3.384566e-002
2.030761e+003;3.355780e-002
2.032690e+003;3.338991e-002
2.034618e+003;3.315746e-002
2.036547e+003;3.276422e-002
2.038475e+003;3.242663e-002
2.040404e+003;3.223766e-002
2.042332e+003;3.215194e-002
2.044261e+003;3.201831e-002
2.046189e+003;3.184203e-002
2.048118e+003;3.175550e-002
2.050047e+003;3.163981e-002
2.051975e+003;3.135711e-002
2.053904e+003;3.136434e-002
2.055832e+003;3.145610e-002
2.057761e+003;3.124455e-002
2.059689e+003;3.103132e-002
2.061618e+003;3.109716e-002
2.063546e+003;3.095563e-002
2.065475e+003;3.061855e-002
2.067404e+003;3.075685e-002
2.069332e+003;3.084004e-002
2.071260e+003;3.065638e-002
2.073189e+003;3.060351e-002
2.075118e+003;3.081319e-002
2.077046e+003;3.094329e-002
2.078975e+003;3.067900e-002
2.080903e+003;3.056284e-002
2.082832e+003;3.037291e-002
2.084760e+003;3.016927e-002
2.086689e+003;3.013905e-002
2.088617e+003;3.003202e-002
2.090546e+003;3.012750e-002
2.092475e+003;3.045997e-002
2.094403e+003;3.033314e-002
2.096332e+003;3.001458e-002
2.098260e+003;2.998895e-002
2.100189e+003;3.013930e-002
2.102117e+003;3.000365e-002
2.104046e+003;2.988320e-002
2.105974e+003;3.008315e-002
2.107903e+003;3.030884e-002
2.109832e+003;3.027470e-002
2.111760e+003;3.037504e-002
2.113688e+003;3.034380e-002
2.115617e+003;2.998309e-002
2.117546e+003;2.992033e-002
2.119474e+003;3.015659e-002
2.121403e+003;3.013724e-002
2.123331e+003;3.011319e-002
2.125260e+003;3.001774e-002
2.127188e+003;2.987852e-002
2.129117e+003;3.012143e-002
2.131045e+003;3.048101e-002
2.132974e+003;3.094386e-002
2.134903e+003;3.110987e-002
2.136831e+003;3.112578e-002
2.138760e+003;3.129874e-002
2.140688e+003;3.130106e-002
2.142617e+003;3.158247e-002
2.144545e+003;3.198446e-002
2.146474e+003;3.207367e-002
2.148402e+003;3.193039e-002
2.150331e+003;3.186346e-002
2.152260e+003;3.175504e-002
2.154188e+003;3.154937e-002
2.156117e+003;3.167274e-002
2.158045e+003;3.188079e-002
2.159974e+003;3.197051e-002
2.161902e+003;3.190118e-002
2.163831e+003;3.152386e-002
2.165759e+003;3.139483e-002
2.167688e+003;3.187594e-002
2.169616e+003;3.201117e-002
2.171545e+003;3.194519e-002
2.173474e+003;3.201032e-002
2.175402e+003;3.187212e-002
2.177331e+003;3.184752e-002
2.179259e+003;3.186806e-002
2.181188e+003;3.162894e-002
2.183116e+003;3.152257e-002
2.185045e+003;3.168386e-002
2.186973e+003;3.181040e-002
2.188902e+003;3.182695e-002
2.190831e+003;3.177083e-002
2.192759e+003;3.165567e-002
2.194688e+003;3.162456e-002
2.196616e+003;3.172863e-002
2.198545e+003;3.181105e-002
2.200473e+003;3.181208e-002
2.202402e+003;3.178563e-002
2.204330e+003;3.178955e-002
2.206259e+003;3.190332e-002
2.208188e+003;3.198949e-002
2.210116e+003;3.180908e-002
2.212044e+003;3.166069e-002
2.213973e+003;3.175832e-002
2.215902e+003;3.190439e-002
2.217830e+003;3.209785e-002
2.219759e+003;3.215051e-002
2.221687e+003;3.210410e-002
2.223616e+003;3.207691e-002
2.225544e+003;3.217435e-002
2.227473e+003;3.227502e-002
2.229401e+003;3.216008e-002
2.231330e+003;3.219829e-002
2.233259e+003;3.193275e-002
2.235187e+003;3.163788e-002
2.237116e+003;3.191702e-002
2.239044e+003;3.225610e-002
2.240973e+003;3.256617e-002
2.242901e+003;3.285931e-002
2.244830e+003;3.286592e-002
2.246758e+003;3.283465e-002
2.248687e+003;3.270412e-002
2.250615e+003;3.268037e-002
2.252544e+003;3.293558e-002
2.254473e+003;3.334762e-002
2.256401e+003;3.344316e-002
2.258330e+003;3.346635e-002
2.260258e+003;3.345347e-002
2.262187e+003;3.362471e-002
2.264115e+003;3.408037e-002
2.266044e+003;3.433609e-002
2.267972e+003;3.438701e-002
2.269901e+003;3.464976e-002
2.271830e+003;3.480205e-002
2.273758e+003;3.517498e-002
2.275687e+003;3.586286e-002
2.277615e+003;3.614065e-002
2.279544e+003;3.604830e-002
2.281472e+003;3.616128e-002
2.283401e+003;3.609481e-002
2.285329e+003;3.594164e-002
2.287258e+003;3.585685e-002
2.289187e+003;3.610090e-002
2.291115e+003;3.640216e-002
2.293043e+003;3.619262e-002
2.294972e+003;3.635298e-002
2.296901e+003;3.669137e-002
2.298829e+003;3.692232e-002
2.300758e+003;3.728661e-002
2.302686e+003;3.725105e-002
2.304615e+003;3.720672e-002
2.306543e+003;3.718874e-002
2.308472e+003;3.719315e-002
2.310400e+003;3.737717e-002
2.312329e+003;3.782378e-002
2.314258e+003;3.825417e-002
2.316186e+003;3.844382e-002
2.318115e+003;3.861715e-002
2.320043e+003;3.900054e-002
2.321972e+003;3.940141e-002
2.323900e+003;3.977777e-002
2.325829e+003;3.998011e-002
2.327757e+003;4.013501e-002
2.329686e+003;4.006920e-002
2.331615e+003;3.967327e-002
2.333543e+003;3.945188e-002
2.335472e+003;3.969513e-002
2.337400e+003;4.006149e-002
2.339329e+003;4.024812e-002
2.341257e+003;4.042708e-002
2.343186e+003;4.070191e-002
2.345114e+003;4.065297e-002
2.347043e+003;4.025244e-002
2.348971e+003;3.979062e-002
2.350900e+003;3.926520e-002
2.352829e+003;3.855189e-002
2.354757e+003;3.769865e-002
2.356686e+003;3.690090e-002
2.358614e+003;3.630643e-002
2.360543e+003;3.576121e-002
2.362471e+003;3.545935e-002
2.364400e+003;3.509860e-002
2.366328e+003;3.476885e-002
2.368257e+003;3.492790e-002
2.370186e+003;3.528494e-002
2.372114e+003;3.524318e-002
2.374042e+003;3.487432e-002
2.375971e+003;3.459734e-002
2.377900e+003;3.467847e-002
2.379828e+003;3.484851e-002
2.381757e+003;3.505291e-002
2.383685e+003;3.528354e-002
2.385614e+003;3.520499e-002
2.387542e+003;3.533231e-002
2.389471e+003;3.565908e-002
2.391399e+003;3.584976e-002
2.393328e+003;3.588808e-002
2.395257e+003;3.566055e-002
2.397185e+003;3.540532e-002
2.399114e+003;3.557154e-002
2.401042e+003;3.577229e-002
2.402971e+003;3.572074e-002
2.404899e+003;3.579895e-002
2.406828e+003;3.604488e-002
2.408756e+003;3.614886e-002
2.410685e+003;3.636858e-002
2.412614e+003;3.686407e-002
2.414542e+003;3.699094e-002
2.416471e+003;3.736847e-002
2.418399e+003;3.773895e-002
2.420328e+003;3.780202e-002
2.422256e+003;3.725047e-002
2.424185e+003;3.659940e-002
2.426113e+003;3.632265e-002
2.428042e+003;3.615311e-002
2.429970e+003;3.566872e-002
2.431899e+003;3.562800e-002
2.433828e+003;3.597483e-002
2.435756e+003;3.600031e-002
2.437685e+003;3.571609e-002
2.439613e+003;3.521674e-002
2.441542e+003;3.505496e-002
2.443470e+003;3.515404e-002
2.445399e+003;3.538529e-002
2.447327e+003;3.544616e-002
2.449256e+003;3.514024e-002
2.451185e+003;3.523815e-002
2.453113e+003;3.547869e-002
2.455042e+003;3.551400e-002
2.456970e+003;3.547237e-002
2.458899e+003;3.540442e-002
2.460827e+003;3.547452e-002
2.462756e+003;3.551735e-002
2.464684e+003;3.562002e-002
2.466613e+003;3.584256e-002
2.468542e+003;3.607789e-002
2.470470e+003;3.658113e-002
2.472398e+003;3.723426e-002
2.474327e+003;3.766642e-002
2.476256e+003;3.785491e-002
2.478184e+003;3.802138e-002
2.480113e+003;3.776558e-002
2.482041e+003;3.743391e-002
2.483970e+003;3.762688e-002
2.485898e+003;3.780263e-002
2.487827e+003;3.746840e-002
2.489755e+003;3.724553e-002
2.491684e+003;3.747255e-002
2.493613e+003;3.775962e-002
2.495541e+003;3.769489e-002
2.497470e+003;3.765250e-002
2.499398e+003;3.780993e-002
2.501327e+003;3.785925e-002
2.503255e+003;3.782230e-002
2.505184e+003;3.801925e-002
2.507112e+003;3.826955e-002
2.509041e+003;3.835648e-002
2.510969e+003;3.852054e-002
2.512898e+003;3.865108e-002
2.514827e+003;3.872418e-002
2.516755e+003;3.901831e-002
2.518684e+003;3.961261e-002
2.520612e+003;4.005230e-002
2.522541e+003;4.037777e-002
2.524469e+003;4.068972e-002
2.526398e+003;4.088201e-002
2.528326e+003;4.081557e-002
2.530255e+003;4.080611e-002
2.532184e+003;4.064366e-002
2.534112e+003;4.046079e-002
2.536041e+003;4.020297e-002
2.537969e+003;3.979294e-002
2.539898e+003;4.001095e-002
2.541826e+003;4.043031e-002
2.543755e+003;4.057540e-002
2.545683e+003;4.116667e-002
2.547612e+003;4.183083e-002
2.549541e+003;4.206352e-002
2.551469e+003;4.203333e-002
2.553397e+003;4.200278e-002
2.555326e+003;4.197541e-002
2.557255e+003;4.197650e-002
2.559183e+003;4.215377e-002
2.561112e+003;4.229670e-002
2.563040e+003;4.229396e-002
2.564969e+003;4.247259e-002
2.566897e+003;4.246711e-002
2.568826e+003;4.258697e-002
2.570754e+003;4.300045e-002
2.572683e+003;4.333992e-002
2.574612e+003;4.364944e-002
2.576540e+003;4.369908e-002
2.578469e+003;4.379924e-002
2.580397e+003;4.412096e-002
2.582326e+003;4.409133e-002
2.584254e+003;4.431161e-002
2.586183e+003;4.472681e-002
2.588111e+003;4.537128e-002
2.590040e+003;4.604014e-002
2.591969e+003;4.651777e-002
2.593897e+003;4.666119e-002
2.595826e+003;4.691914e-002
2.597754e+003;4.753970e-002
2.599683e+003;4.793599e-002
2.601611e+003;4.827182e-002
2.603540e+003;4.838455e-002
2.605468e+003;4.862708e-002
2.607397e+003;4.935279e-002
2.609325e+003;5.002116e-002
2.611254e+003;5.041860e-002
2.613183e+003;5.095726e-002
2.615111e+003;5.135690e-002
2.617040e+003;5.164408e-002
2.618968e+003;5.239568e-002
2.620897e+003;5.313723e-002
2.622825e+003;5.351774e-002
2.624754e+003;5.393539e-002
2.626682e+003;5.457347e-002
2.628611e+003;5.513916e-002
2.630540e+003;5.536829e-002
2.632468e+003;5.575505e-002
2.634396e+003;5.604346e-002
2.636325e+003;5.589484e-002
2.638254e+003;5.558842e-002
2.640182e+003;5.564220e-002
2.642111e+003;5.559369e-002
2.644039e+003;5.558861e-002
2.645968e+003;5.547806e-002
2.647896e+003;5.515767e-002
2.649825e+003;5.500278e-002
2.651753e+003;5.496825e-002
2.653682e+003;5.513472e-002
2.655611e+003;5.512656e-002
2.657539e+003;5.505795e-002
2.659468e+003;5.517825e-002
2.661396e+003;5.553239e-002
2.663325e+003;5.571071e-002
2.665253e+003;5.543661e-002
2.667182e+003;5.503324e-002
2.669110e+003;5.453823e-002
2.671039e+003;5.446412e-002
2.672968e+003;5.430522e-002
2.674896e+003;5.399561e-002
2.676825e+003;5.376023e-002
2.678753e+003;5.325835e-002
2.680682e+003;5.300765e-002
2.682610e+003;5.285082e-002
2.684539e+003;5.281090e-002
2.686467e+003;5.290104e-002
2.688396e+003;5.279428e-002
2.690324e+003;5.253936e-002
2.692253e+003;5.256943e-002
2.694182e+003;5.266375e-002
2.696110e+003;5.290195e-002
2.698039e+003;5.315742e-002
2.699967e+003;5.346516e-002
2.701896e+003;5.379300e-002
2.703824e+003;5.432760e-002
2.705753e+003;5.486301e-002
2.707681e+003;5.525362e-002
2.709610e+003;5.548882e-002
2.711539e+003;5.555363e-002
2.713467e+003;5.559964e-002
2.715396e+003;5.590434e-002
2.717324e+003;5.605971e-002
2.719253e+003;5.614273e-002
2.721181e+003;5.673343e-002
2.723110e+003;5.718151e-002
2.725038e+003;5.752366e-002
2.726967e+003;5.807875e-002
2.728896e+003;5.848864e-002
2.730824e+003;5.895219e-002
2.732752e+003;5.926650e-002
2.734681e+003;5.968512e-002
2.736610e+003;5.990669e-002
2.738538e+003;5.978899e-002
2.740467e+003;5.990528e-002
2.742395e+003;6.032714e-002
2.744324e+003;6.062035e-002
2.746252e+003;6.057433e-002
2.748181e+003;6.021458e-002
2.750109e+003;6.036315e-002
2.752038e+003;6.091205e-002
2.753967e+003;6.142827e-002
2.755895e+003;6.186854e-002
2.757824e+003;6.216906e-002
2.759752e+003;6.259546e-002
2.761681e+003;6.306054e-002
2.763609e+003;6.364466e-002
2.765538e+003;6.439690e-002
2.767466e+003;6.478025e-002
2.769395e+003;6.513603e-002
2.771323e+003;6.589325e-002
2.773252e+003;6.678759e-002
2.775181e+003;6.768955e-002
2.777109e+003;6.852295e-002
2.779038e+003;6.927468e-002
2.780966e+003;6.988749e-002
2.782895e+003;7.084583e-002
2.784823e+003;7.178590e-002
2.786752e+003;7.241738e-002
2.788680e+003;7.328883e-002
2.790609e+003;7.421875e-002
2.792538e+003;7.502971e-002
2.794466e+003;7.573732e-002
2.796395e+003;7.647552e-002
2.798323e+003;7.765496e-002
2.800252e+003;7.837873e-002
2.802180e+003;7.904527e-002
2.804109e+003;8.033587e-002
2.806037e+003;8.164031e-002
2.807966e+003;8.286928e-002
2.809895e+003;8.411754e-002
2.811823e+003;8.525971e-002
2.813751e+003;8.670565e-002
2.815680e+003;8.810464e-002
2.817609e+003;8.938426e-002
2.819537e+003;9.115274e-002
2.821466e+003;9.353513e-002
2.823394e+003;9.634119e-002
2.825323e+003;9.915567e-002
2.827251e+003;1.026175e-001
2.829180e+003;1.070122e-001
2.831108e+003;1.120588e-001
2.833037e+003;1.181869e-001
2.834966e+003;1.264579e-001
2.836894e+003;1.376562e-001
2.838823e+003;1.524669e-001
2.840751e+003;1.728976e-001
2.842680e+003;2.017560e-001
2.844608e+003;2.398016e-001
2.846537e+003;2.819035e-001
2.848465e+003;3.086677e-001
2.850394e+003;2.949860e-001
2.852323e+003;2.491311e-001
2.854251e+003;2.013740e-001
2.856180e+003;1.650588e-001
2.858108e+003;1.402049e-001
2.860037e+003;1.245565e-001
2.861965e+003;1.148084e-001
2.863894e+003;1.091357e-001
2.865822e+003;1.065836e-001
2.867751e+003;1.061483e-001
2.869679e+003;1.068291e-001
2.871608e+003;1.089227e-001
2.873536e+003;1.125397e-001
2.875465e+003;1.170147e-001
2.877394e+003;1.226638e-001
2.879322e+003;1.289979e-001
2.881251e+003;1.345973e-001
2.883179e+003;1.401629e-001
2.885108e+003;1.465897e-001
2.887036e+003;1.528562e-001
2.888965e+003;1.593341e-001
2.890893e+003;1.663924e-001
2.892822e+003;1.726835e-001
2.894750e+003;1.788867e-001
2.896679e+003;1.854770e-001
2.898608e+003;1.927119e-001
2.900536e+003;2.006709e-001
2.902465e+003;2.102726e-001
2.904393e+003;2.222863e-001
2.906322e+003;2.371157e-001
2.908250e+003;2.565157e-001
2.910179e+003;2.815846e-001
2.912107e+003;3.100258e-001
2.914036e+003;3.356202e-001
2.915965e+003;3.464637e-001
2.917893e+003;3.342260e-001
2.919822e+003;3.052792e-001
2.921750e+003;2.699245e-001
2.923679e+003;2.350093e-001
2.925607e+003;2.045303e-001
2.927536e+003;1.792297e-001
2.929464e+003;1.583367e-001
2.931393e+003;1.413437e-001
2.933322e+003;1.269415e-001
2.935250e+003;1.150249e-001
2.937178e+003;1.054736e-001
2.939107e+003;9.740038e-002
2.941036e+003;9.032910e-002
2.942964e+003;8.477757e-002
2.944893e+003;8.001176e-002
2.946821e+003;7.605850e-002
2.948750e+003;7.295147e-002
2.950678e+003;7.055476e-002
2.952607e+003;6.843948e-002
2.954535e+003;6.665746e-002
2.956464e+003;6.550320e-002
2.958393e+003;6.467783e-002
2.960321e+003;6.398182e-002
2.962250e+003;6.323165e-002
2.964178e+003;6.265888e-002
2.966107e+003;6.191194e-002
2.968035e+003;6.120462e-002
2.969964e+003;6.057985e-002
2.971892e+003;5.967519e-002
2.973821e+003;5.898798e-002
2.975750e+003;5.858615e-002
2.977678e+003;5.796665e-002
2.979607e+003;5.759021e-002
2.981535e+003;5.727575e-002
2.983464e+003;5.643291e-002
2.985392e+003;5.623844e-002
2.987321e+003;5.602507e-002
2.989249e+003;5.514627e-002
2.991178e+003;5.417030e-002
2.993106e+003;5.376057e-002
2.995035e+003;5.374215e-002
2.996964e+003;5.337250e-002
2.998892e+003;5.307328e-002
3.000821e+003;5.274108e-002
3.002749e+003;5.214551e-002
3.004678e+003;5.199900e-002
3.006606e+003;5.172402e-002
3.008535e+003;5.144395e-002
3.010463e+003;5.117237e-002
3.012392e+003;5.076408e-002
3.014321e+003;5.051321e-002
3.016249e+003;5.016674e-002
3.018177e+003;4.975984e-002
3.020106e+003;4.982620e-002
3.022035e+003;5.037142e-002
3.023963e+003;5.035661e-002
3.025892e+003;4.972949e-002
3.027820e+003;4.948853e-002
3.029749e+003;4.915877e-002
3.031677e+003;4.896638e-002
3.033606e+003;4.895959e-002
3.035534e+003;4.887571e-002
3.037463e+003;4.888543e-002
3.039392e+003;4.874332e-002
3.041320e+003;4.852840e-002
3.043249e+003;4.827345e-002
3.045177e+003;4.762381e-002
3.047106e+003;4.720720e-002
3.049034e+003;4.716292e-002
3.050963e+003;4.728090e-002
3.052891e+003;4.724263e-002
3.054820e+003;4.690534e-002
3.056749e+003;4.635321e-002
3.058677e+003;4.611221e-002
3.060606e+003;4.608944e-002
3.062534e+003;4.617566e-002
3.064463e+003;4.597266e-002
3.066391e+003;4.532814e-002
3.068320e+003;4.497355e-002
3.070248e+003;4.513391e-002
3.072177e+003;4.498071e-002
3.074105e+003;4.451817e-002
3.076034e+003;4.459142e-002
3.077963e+003;4.499472e-002
3.079891e+003;4.444791e-002
3.081820e+003;4.374393e-002
3.083748e+003;4.363423e-002
3.085677e+003;4.402352e-002
3.087605e+003;4.437388e-002
3.089534e+003;4.408623e-002
3.091462e+003;4.327245e-002
3.093391e+003;4.287086e-002
3.095320e+003;4.256994e-002
3.097248e+003;4.204436e-002
3.099177e+003;4.141960e-002
3.101105e+003;4.125888e-002
3.103034e+003;4.110260e-002
3.104962e+003;4.040628e-002
3.106891e+003;3.981125e-002
3.108819e+003;3.980696e-002
3.110748e+003;3.973165e-002
3.112677e+003;3.918831e-002
3.114605e+003;3.800666e-002
3.116533e+003;3.718705e-002
3.118462e+003;3.693311e-002
3.120391e+003;3.682710e-002
3.122319e+003;3.699441e-002
3.124248e+003;3.672227e-002
3.126176e+003;3.613096e-002
3.128105e+003;3.579129e-002
3.130033e+003;3.556132e-002
3.131962e+003;3.521174e-002
3.133890e+003;3.504321e-002
3.135819e+003;3.491838e-002
3.137748e+003;3.502486e-002
3.139676e+003;3.511635e-002
3.141605e+003;3.493181e-002
3.143533e+003;3.475607e-002
3.145462e+003;3.477208e-002
3.147390e+003;3.484657e-002
3.149319e+003;3.488772e-002
3.151247e+003;3.476433e-002
3.153176e+003;3.430912e-002
3.155104e+003;3.407590e-002
3.157033e+003;3.410403e-002
3.158962e+003;3.420888e-002
3.160890e+003;3.385383e-002
3.162819e+003;3.362159e-002
3.164747e+003;3.381088e-002
3.166676e+003;3.374305e-002
3.168604e+003;3.397807e-002
3.170533e+003;3.408238e-002
3.172461e+003;3.396245e-002
3.174390e+003;3.391186e-002
3.176319e+003;3.407124e-002
3.178247e+003;3.413855e-002
3.180176e+003;3.379523e-002
3.182104e+003;3.334150e-002
3.184033e+003;3.331120e-002
3.185961e+003;3.377292e-002
3.187890e+003;3.372299e-002
3.189818e+003;3.352276e-002
3.191747e+003;3.359278e-002
3.193676e+003;3.377789e-002
3.195604e+003;3.383438e-002
3.197532e+003;3.403286e-002
3.199461e+003;3.441112e-002
3.201390e+003;3.407342e-002
3.203318e+003;3.315460e-002
3.205247e+003;3.291453e-002
3.207175e+003;3.327933e-002
3.209104e+003;3.355648e-002
3.211032e+003;3.358139e-002
3.212961e+003;3.325200e-002
3.214889e+003;3.325937e-002
3.216818e+003;3.335800e-002
3.218747e+003;3.347068e-002
3.220675e+003;3.380146e-002
3.222604e+003;3.352637e-002
3.224532e+003;3.335131e-002
3.226461e+003;3.351338e-002
3.228389e+003;3.366631e-002
3.230318e+003;3.401813e-002
3.232246e+003;3.401229e-002
3.234175e+003;3.381725e-002
3.236104e+003;3.400344e-002
3.238032e+003;3.391354e-002
3.239961e+003;3.313522e-002
3.241889e+003;3.327861e-002
3.243818e+003;3.389800e-002
3.245746e+003;3.402247e-002
3.247675e+003;3.378155e-002
3.249603e+003;3.354638e-002
3.251532e+003;3.370226e-002
3.253460e+003;3.359191e-002
3.255389e+003;3.337882e-002
3.257318e+003;3.329804e-002
3.259246e+003;3.346596e-002
3.261175e+003;3.364651e-002
3.263103e+003;3.344581e-002
3.265032e+003;3.369309e-002
3.266960e+003;3.415579e-002
3.268889e+003;3.444612e-002
3.270817e+003;3.437364e-002
3.272746e+003;3.418221e-002
3.274675e+003;3.423720e-002
3.276603e+003;3.455862e-002
3.278531e+003;3.410840e-002
3.280460e+003;3.347061e-002
3.282389e+003;3.403053e-002
3.284317e+003;3.460254e-002
3.286246e+003;3.440710e-002
3.288174e+003;3.446661e-002
3.290103e+003;3.437654e-002
3.292031e+003;3.408496e-002
3.293960e+003;3.388245e-002
3.295888e+003;3.363706e-002
3.297817e+003;3.395406e-002
3.299746e+003;3.433638e-002
3.301674e+003;3.414984e-002
3.303603e+003;3.382377e-002
3.305531e+003;3.329707e-002
3.307460e+003;3.350493e-002
3.309388e+003;3.420310e-002
3.311317e+003;3.422680e-002
3.313245e+003;3.406816e-002
3.315174e+003;3.406034e-002
3.317103e+003;3.455234e-002
3.319031e+003;3.493368e-002
3.320960e+003;3.441320e-002
3.322888e+003;3.427251e-002
3.324817e+003;3.459942e-002
3.326745e+003;3.430514e-002
3.328674e+003;3.395811e-002
3.330602e+003;3.391960e-002
3.332531e+003;3.398208e-002
3.334459e+003;3.415596e-002
3.336388e+003;3.448680e-002
3.338317e+003;3.415138e-002
3.340245e+003;3.364418e-002
3.342174e+003;3.366492e-002
3.344102e+003;3.377141e-002
3.346031e+003;3.394615e-002
3.347959e+003;3.405318e-002
3.349888e+003;3.402849e-002
3.351816e+003;3.463297e-002
3.353745e+003;3.507730e-002
3.355674e+003;3.493357e-002
3.357602e+003;3.477930e-002
3.359531e+003;3.446069e-002
3.361459e+003;3.411805e-002
3.363388e+003;3.425154e-002
3.365316e+003;3.434147e-002
3.367245e+003;3.427162e-002
3.369173e+003;3.444953e-002
3.371102e+003;3.483070e-002
3.373031e+003;3.462726e-002
3.374959e+003;3.411159e-002
3.376887e+003;3.407930e-002
3.378816e+003;3.415665e-002
3.380745e+003;3.392931e-002
3.382673e+003;3.357813e-002
3.384602e+003;3.344345e-002
3.386530e+003;3.329850e-002
3.388459e+003;3.308637e-002
3.390387e+003;3.337846e-002
3.392316e+003;3.377718e-002
3.394244e+003;3.361544e-002
3.396173e+003;3.332823e-002
3.398102e+003;3.323694e-002
3.400030e+003;3.324302e-002
3.401959e+003;3.292732e-002
3.403887e+003;3.252678e-002
3.405816e+003;3.300078e-002
3.407744e+003;3.362986e-002
3.409673e+003;3.321766e-002
3.411601e+003;3.293107e-002
3.413530e+003;3.287789e-002
3.415458e+003;3.270401e-002
3.417387e+003;3.285859e-002
3.419316e+003;3.330677e-002
3.421244e+003;3.317327e-002
3.423173e+003;3.257514e-002
3.425101e+003;3.262950e-002
3.427030e+003;3.289365e-002
3.428958e+003;3.295349e-002
3.430887e+003;3.263943e-002
3.432815e+003;3.228562e-002
3.434744e+003;3.188143e-002
3.436673e+003;3.175943e-002
3.438601e+003;3.236933e-002
3.440530e+003;3.278933e-002
3.442458e+003;3.228502e-002
3.444387e+003;3.190300e-002
3.446315e+003;3.195250e-002
3.448244e+003;3.206739e-002
3.450172e+003;3.210688e-002
3.452101e+003;3.166835e-002
3.454030e+003;3.122112e-002
3.455958e+003;3.138414e-002
3.457886e+003;3.185148e-002
3.459815e+003;3.227602e-002
3.461744e+003;3.188229e-002
3.463672e+003;3.136010e-002
3.465601e+003;3.135544e-002
3.467529e+003;3.149863e-002
3.469458e+003;3.115629e-002
3.471386e+003;3.110724e-002
3.473315e+003;3.115835e-002
3.475243e+003;3.141634e-002
3.477172e+003;3.189908e-002
3.479101e+003;3.191163e-002
3.481029e+003;3.135633e-002
3.482958e+003;3.108898e-002
3.484886e+003;3.116391e-002
3.486815e+003;3.075286e-002
3.488743e+003;3.066933e-002
3.490672e+003;3.083542e-002
3.492600e+003;3.050341e-002
3.494529e+003;3.044412e-002
3.496458e+003;3.099008e-002
3.498386e+003;3.142015e-002
3.500315e+003;3.160146e-002
3.502243e+003;3.108136e-002
3.504172e+003;3.014771e-002
3.506100e+003;3.010066e-002
3.508029e+003;3.110012e-002
3.509957e+003;3.153465e-002
3.511886e+003;3.120410e-002
3.513814e+003;3.125947e-002
3.515743e+003;3.115472e-002
3.517672e+003;3.114775e-002
3.519600e+003;3.124013e-002
3.521529e+003;3.063583e-002
3.523457e+003;3.052801e-002
3.525386e+003;3.109332e-002
3.527314e+003;3.098218e-002
3.529243e+003;3.023548e-002
3.531171e+003;3.022877e-002
3.533100e+003;3.087974e-002
3.535029e+003;3.050081e-002
3.536957e+003;2.999495e-002
3.538885e+003;2.976633e-002
3.540814e+003;2.988522e-002
3.542743e+003;3.003631e-002
3.544671e+003;2.991650e-002
3.546600e+003;3.019136e-002
3.548528e+003;3.096826e-002
3.550457e+003;3.111930e-002
3.552385e+003;3.071833e-002
3.554314e+003;3.072864e-002
3.556242e+003;3.104146e-002
3.558171e+003;3.109752e-002
3.560100e+003;3.076766e-002
3.562028e+003;3.071317e-002
3.563957e+003;3.060611e-002
3.565885e+003;2.954287e-002
3.567814e+003;2.945138e-002
3.569742e+003;3.090646e-002
3.571671e+003;3.184082e-002
3.573599e+003;3.180556e-002
3.575528e+003;3.168981e-002
3.577457e+003;3.211544e-002
3.579385e+003;3.237728e-002
3.581314e+003;3.246940e-002
3.583242e+003;3.230668e-002
3.585171e+003;3.119517e-002
3.587099e+003;3.046140e-002
3.589028e+003;3.136441e-002
3.590956e+003;3.267879e-002
3.592885e+003;3.315328e-002
3.594813e+003;3.358690e-002
3.596742e+003;3.442937e-002
3.598671e+003;3.552846e-002
3.600599e+003;3.593969e-002
3.602528e+003;3.638551e-002
3.604456e+003;3.656238e-002
3.606385e+003;3.602695e-002
3.608313e+003;3.531017e-002
3.610242e+003;3.561703e-002
3.612170e+003;3.576178e-002
3.614099e+003;3.522910e-002
3.616028e+003;3.407873e-002
3.617956e+003;3.274725e-002
3.619885e+003;3.284519e-002
3.621813e+003;3.385583e-002
3.623742e+003;3.413665e-002
3.625670e+003;3.319602e-002
3.627599e+003;3.033375e-002
3.629527e+003;2.965322e-002
3.631456e+003;3.201007e-002
3.633385e+003;3.337134e-002
3.635313e+003;3.377567e-002
3.637241e+003;3.380751e-002
3.639170e+003;3.433892e-002
3.641099e+003;3.479757e-002
3.643027e+003;3.518724e-002
3.644956e+003;3.433139e-002
3.646884e+003;3.184217e-002
3.648813e+003;3.074344e-002
3.650741e+003;3.256721e-002
3.652670e+003;3.425997e-002
3.654598e+003;3.337231e-002
3.656527e+003;3.283465e-002
3.658456e+003;3.416073e-002
3.660384e+003;3.458327e-002
3.662313e+003;3.451715e-002
3.664241e+003;3.495368e-002
3.666170e+003;3.443095e-002
3.668098e+003;3.172738e-002
3.670027e+003;2.976719e-002
3.671955e+003;3.104171e-002
3.673884e+003;3.007143e-002
3.675813e+003;2.921242e-002
3.677741e+003;3.187248e-002
3.679669e+003;3.312360e-002
3.681598e+003;3.369120e-002
3.683527e+003;3.377428e-002
3.685455e+003;3.295831e-002
3.687384e+003;3.047320e-002
3.689312e+003;3.007274e-002
3.691241e+003;3.168243e-002
3.693169e+003;3.309764e-002
3.695098e+003;3.390523e-002
3.697026e+003;3.394930e-002
3.698955e+003;3.357978e-002
3.700884e+003;3.339353e-002
3.702812e+003;3.363623e-002
3.704741e+003;3.324230e-002
3.706669e+003;3.173340e-002
3.708598e+003;3.048692e-002
3.710526e+003;2.955390e-002
3.712455e+003;3.000642e-002
3.714383e+003;3.201481e-002
3.716312e+003;3.271023e-002
3.718240e+003;3.217778e-002
3.720169e+003;3.149251e-002
3.722098e+003;3.125085e-002
3.724026e+003;3.143529e-002
3.725955e+003;3.155535e-002
3.727883e+003;3.190093e-002
3.729812e+003;3.116120e-002
3.731740e+003;2.953915e-002
3.733669e+003;2.899916e-002
3.735597e+003;2.828737e-002
3.737526e+003;2.938440e-002
3.739455e+003;3.070948e-002
3.741383e+003;2.983035e-002
3.743312e+003;2.550460e-002
3.745240e+003;2.566883e-002
3.747169e+003;2.751549e-002
3.749097e+003;2.566732e-002
3.751026e+003;2.577911e-002
3.752954e+003;2.857444e-002
3.754883e+003;3.116647e-002
3.756812e+003;3.130508e-002
3.758740e+003;3.145107e-002
3.760668e+003;3.177689e-002
3.762597e+003;3.265511e-002
3.764526e+003;3.252907e-002
3.766454e+003;3.241877e-002
3.768383e+003;3.161532e-002
3.770311e+003;3.154331e-002
3.772240e+003;3.296382e-002
3.774168e+003;3.337410e-002
3.776097e+003;3.280013e-002
3.778025e+003;3.204399e-002
3.779954e+003;3.175729e-002
3.781883e+003;3.247750e-002
3.783811e+003;3.319598e-002
3.785740e+003;3.400118e-002
3.787668e+003;3.423666e-002
3.789597e+003;3.398556e-002
3.791525e+003;3.390681e-002
3.793454e+003;3.395016e-002
3.795382e+003;3.366312e-002
3.797311e+003;3.314945e-002
3.799240e+003;3.053341e-002
3.801168e+003;2.877584e-002
3.803097e+003;3.154598e-002
3.805025e+003;3.194547e-002
3.806954e+003;3.083040e-002
3.808882e+003;3.274628e-002
3.810811e+003;3.396434e-002
3.812739e+003;3.401100e-002
3.814668e+003;3.159939e-002
3.816596e+003;3.122265e-002
3.818525e+003;3.246711e-002
3.820454e+003;3.173868e-002
3.822382e+003;3.338616e-002
3.824311e+003;3.486456e-002
3.826239e+003;3.465385e-002
3.828168e+003;3.487310e-002
3.830096e+003;3.470029e-002
3.832025e+003;3.386790e-002
3.833953e+003;3.329299e-002
3.835882e+003;3.142275e-002
3.837811e+003;3.004778e-002
3.839739e+003;3.206678e-002
3.841667e+003;3.386815e-002
3.843596e+003;3.436187e-002
3.845525e+003;3.475356e-002
3.847453e+003;3.497900e-002
3.849382e+003;3.348063e-002
3.851310e+003;2.928958e-002
3.853239e+003;2.585496e-002
3.855167e+003;2.938671e-002
3.857096e+003;3.383538e-002
3.859024e+003;3.487307e-002
3.860953e+003;3.404253e-002
3.862882e+003;3.323247e-002
3.864810e+003;3.371433e-002
3.866739e+003;3.431486e-002
3.868667e+003;3.236808e-002
3.870596e+003;3.275947e-002
3.872524e+003;3.476576e-002
3.874453e+003;3.553993e-002
3.876381e+003;3.655535e-002
3.878310e+003;3.565476e-002
3.880239e+003;3.495853e-002
3.882167e+003;3.571232e-002
3.884096e+003;3.491914e-002
3.886024e+003;3.444860e-002
3.887953e+003;3.588524e-002
3.889881e+003;3.493853e-002
3.891810e+003;3.417780e-002
3.893738e+003;3.581248e-002
3.895667e+003;3.655024e-002
3.897595e+003;3.606727e-002
3.899524e+003;3.541121e-002
3.901453e+003;3.440710e-002
3.903381e+003;3.394374e-002
3.905310e+003;3.556826e-002
3.907238e+003;3.702493e-002
3.909167e+003;3.754953e-002
3.911095e+003;3.774798e-002
3.913024e+003;3.727676e-002
3.914952e+003;3.623324e-002
3.916881e+003;3.570498e-002
3.918810e+003;3.612078e-002
3.920738e+003;3.612297e-002
3.922667e+003;3.583105e-002
3.924595e+003;3.609985e-002
3.926524e+003;3.711970e-002
3.928452e+003;3.748964e-002
3.930381e+003;3.679911e-002
3.932309e+003;3.587095e-002
3.934238e+003;3.615610e-002
3.936167e+003;3.643290e-002
3.938095e+003;3.603523e-002
3.940023e+003;3.542290e-002
3.941952e+003;3.518569e-002
3.943881e+003;3.538245e-002
3.945809e+003;3.546924e-002
3.947738e+003;3.507457e-002
3.949666e+003;3.487655e-002
3.951595e+003;3.553482e-002
3.953523e+003;3.605604e-002
3.955452e+003;3.636015e-002
3.957380e+003;3.605103e-002
3.959309e+003;3.562192e-002
3.961238e+003;3.572843e-002
3.963166e+003;3.578074e-002
3.965095e+003;3.590129e-002
3.967023e+003;3.636040e-002
3.968952e+003;3.682090e-002
3.970880e+003;3.663174e-002
3.972809e+003;3.597529e-002
3.974737e+003;3.640544e-002
3.976666e+003;3.706289e-002
3.978594e+003;3.650198e-002
3.980523e+003;3.610979e-002
3.982452e+003;3.653106e-002
3.984380e+003;3.620911e-002
3.986309e+003;3.545345e-002
3.988237e+003;3.597497e-002
3.990166e+003;3.601259e-002
3.992094e+003;3.552141e-002
3.994023e+003;3.593433e-002
3.995951e+003;3.597501e-002
3.997880e+003;3.557880e-002
3.999809e+003;3.587686e-002
4.001737e+003;0.000000e+000
